DTS Sentinel unit serial number:	SN413079Multiplexer serial number:	ORYXHardware model number:	OX4-SRSoftware version number:	ORYX F/W v4.00 Oryx Data Collector v3.7.2.0data status	okinstallation	princeton_trtdifferential loss correction	single-endedforward channel	channel 3reverse channel	N/Adate	2019/09/18time	00:16:35forward acquisition time	60.00reverse acquisition time	0.00gamma	496.2192k internal	0.2344k external	0.2344temperature offset calibration	0.9948default loss term (dB/km)	0.3790temperature slope calibration	1.0000multiplexer offset coefficient	1.0000multiplexer slope coefficient	1.0000fibre end	0.00T internal ref (°C)	23.67T ext. ref 1 (°C)	0.17T ext. ref 2 (°C)	17.15length (m)	temperature (°C)	Stokes	anti-Stokes-747.200	-72.696	0.278	0.103
-746.185	-62.671	-0.379	0.157
-745.171	37.016	0.247	0.219
-744.156	64.379	-0.105	-0.106
-743.142	327.965	0.096	0.184
-742.127	189.716	-0.201	0.302
-741.112	203.438	-0.123	0.191
-740.098	-200.000	0.028	0.403
-739.083	-106.887	-0.157	0.035
-738.069	34.167	-0.121	0.106
-737.054	-200.000	0.015	-0.281
-736.039	-83.729	-0.306	-0.098
-735.025	-200.000	-0.006	-0.066
-734.010	-30.092	0.282	0.161
-732.996	71.314	-0.132	-0.137
-731.981	92.519	0.271	0.306
-730.966	-3.129	-0.426	0.297
-729.952	180.213	-0.117	-0.172
-728.937	141.166	-0.278	-0.368
-727.923	37.274	-0.080	-0.071
-726.908	211.747	0.106	-0.167
-725.894	-200.000	-0.015	-0.194
-724.879	800.000	0.024	-0.087
-723.864	-104.981	0.237	-0.054
-722.850	-200.000	-0.025	-0.158
-721.835	-58.753	-0.089	-0.039
-720.821	-85.352	-0.514	0.160
-719.806	-200.000	-0.013	-0.191
-718.791	128.426	-0.075	-0.095
-717.777	80.949	-0.160	-0.172
-716.762	-200.000	0.017	0.218
-715.748	-200.000	0.040	0.210
-714.733	-102.191	0.293	-0.071
-713.718	30.685	0.096	0.082
-712.704	800.000	-0.063	-0.216
-711.689	-62.997	0.214	0.088
-710.675	-200.000	0.045	-0.221
-709.660	-125.469	0.461	0.070
-708.645	-200.000	0.028	-0.320
-707.631	-200.000	-0.017	-0.236
-706.616	-200.000	0.077	0.442
-705.602	70.976	0.157	0.162
-704.587	58.013	-0.118	-0.116
-703.572	174.358	-0.089	0.129
-702.558	800.000	0.068	-0.266
-701.543	-151.630	-0.313	-0.023
-700.529	-20.961	-0.078	-0.048
-699.514	-200.000	-0.004	-0.080
-698.499	251.953	-0.185	-0.314
-697.485	67.156	0.245	-0.250
-696.470	95.339	0.084	0.095
-695.456	269.539	-0.055	0.096
-694.441	-79.157	0.325	0.110
-693.426	-172.122	0.201	-0.006
-692.412	-200.000	0.037	-0.261
-691.397	800.000	-0.044	-0.175
-690.383	-121.758	-0.309	-0.051
-689.368	5.283	0.182	-0.134
-688.354	34.475	-0.150	-0.130
-687.339	334.579	0.259	0.502
-686.324	-117.740	0.219	-0.039
-685.310	107.983	0.137	-0.163
-684.295	800.000	-0.090	-0.344
-683.281	56.232	-0.119	-0.115
-682.266	-122.744	0.255	0.041
-681.251	-176.270	0.088	-0.002
-680.237	-200.000	-0.002	-0.404
-679.222	-58.844	0.338	-0.146
-678.208	-106.285	0.191	-0.043
-677.193	-91.842	-0.582	-0.165
-676.178	511.012	-0.087	0.202
-675.164	467.811	0.080	0.178
-674.149	408.536	0.079	-0.166
-673.135	94.701	0.193	-0.219
-672.120	120.055	0.092	-0.113
-671.105	145.023	-0.231	-0.309
-670.091	474.023	-0.187	-0.421
-669.076	-153.263	0.233	-0.016
-668.062	-169.663	-0.327	0.012
-667.047	-146.515	0.201	-0.017
-666.032	-200.000	-0.003	-0.241
-665.018	162.418	-0.104	-0.145
-664.003	-200.000	0.003	0.299
-662.989	288.627	-0.081	-0.146
-661.974	-111.887	-0.155	0.031
-660.959	-200.000	-0.007	0.191
-659.945	-200.000	-0.031	0.154
-658.930	230.074	-0.225	-0.367
-657.916	-77.665	-0.119	-0.041
-656.901	381.646	0.164	-0.335
-655.886	244.042	0.130	-0.218
-654.872	37.665	-0.086	0.076
-653.857	-200.000	-0.003	0.070
-652.843	-200.000	-0.007	-0.135
-651.828	-127.743	0.338	-0.049
-650.814	712.936	0.056	-0.149
-649.799	-78.930	-0.052	0.018
-648.784	578.724	-0.088	0.215
-647.770	800.000	-0.045	-0.138
-646.755	239.282	-0.083	-0.138
-645.741	800.000	0.009	0.033
-644.726	57.046	-0.466	-0.453
-643.711	-94.875	0.239	-0.064
-642.697	-25.017	-0.203	0.120
-641.682	-200.000	0.004	-0.348
-640.668	44.507	-0.090	-0.083
-639.653	753.930	-0.165	-0.445
-638.638	42.585	0.109	-0.099
-637.624	-200.000	0.015	0.072
-636.609	-89.016	0.183	0.054
-635.595	-35.372	-0.274	-0.148
-634.580	2.245	-0.253	0.182
-633.565	-200.000	-0.007	0.168
-632.551	-23.057	-0.169	0.102
-631.536	800.000	-0.025	0.095
-630.522	159.362	-0.135	0.187
-629.507	79.482	-0.028	-0.030
-628.492	-94.804	-0.299	0.081
-627.478	-109.099	-0.151	-0.032
-626.463	-122.508	-0.223	-0.036
-625.449	215.166	0.196	0.309
-624.434	-200.000	0.003	0.145
-623.419	514.825	0.109	0.254
-622.405	-200.000	-0.028	0.213
-621.390	67.836	0.104	-0.106
-620.376	-126.309	0.251	0.037
-619.361	-200.000	0.012	0.189
-618.346	-44.391	0.165	-0.082
-617.332	-200.000	0.050	0.281
-616.317	-96.343	0.356	0.094
-615.303	-154.624	0.104	0.007
-614.288	-200.000	0.024	-0.260
-613.273	-143.614	-0.066	-0.006
-612.259	-76.084	-0.067	-0.024
-611.244	-80.055	0.298	-0.100
-610.230	-149.010	-0.079	0.006
-609.215	800.000	-0.052	0.211
-608.201	25.506	-0.235	-0.195
-607.186	800.000	-0.060	0.192
-606.171	21.407	0.105	-0.085
-605.157	-6.800	-0.043	0.029
-604.142	-200.000	-0.032	-0.250
-603.128	18.870	0.180	0.143
-602.113	148.098	-0.150	-0.202
-601.098	-181.230	0.161	-0.003
-600.084	-142.265	-0.078	0.008
-599.069	-200.000	-0.007	-0.226
-598.055	-200.000	0.004	-0.184
-597.040	89.864	0.268	-0.298
-596.025	409.970	0.021	0.044
-595.011	-96.569	0.129	0.034
-593.996	-200.000	0.021	0.198
-592.982	274.981	-0.137	0.242
-591.967	-92.817	-0.075	-0.021
-590.952	-200.000	-0.041	-0.184
-589.938	22.203	0.172	-0.140
-588.923	-200.000	-0.026	0.125
-587.909	-52.257	0.167	-0.077
-586.894	-171.482	-0.258	0.009
-585.879	363.369	0.091	0.181
-584.865	-70.911	0.035	-0.013
-583.850	741.639	0.047	-0.125
-582.836	-77.496	-0.274	-0.095
-581.821	78.894	-0.052	0.056
-580.806	249.166	0.164	-0.276
-579.792	132.215	-0.244	0.312
-578.777	1.674	0.183	-0.131
-577.763	210.121	0.172	-0.268
-576.748	21.555	-0.163	-0.132
-575.733	-200.000	0.015	-0.180
-574.719	-123.098	-0.339	0.054
-573.704	-150.349	0.080	0.006
-572.690	246.076	-0.223	-0.374
-571.675	-200.000	-0.050	0.247
-570.661	-200.000	-0.065	-0.354
-569.646	28.407	0.130	0.109
-568.631	-200.000	-0.025	0.167
-567.617	-106.778	-0.326	0.072
-566.602	-0.950	0.100	-0.070
-565.588	-44.944	0.238	-0.118
-564.573	-23.431	0.094	-0.056
-563.558	-63.303	0.142	0.058
-562.544	-64.318	-0.071	-0.029
-561.529	-93.285	0.220	0.061
-560.515	261.538	-0.122	-0.210
-559.500	541.759	-0.160	-0.378
-558.485	800.000	-0.082	0.284
-557.471	-200.000	-0.007	0.177
-556.456	-92.284	-0.043	0.012
-555.442	-189.098	0.255	0.003
-554.427	-34.571	0.155	0.084
-553.412	-200.000	0.032	0.182
-552.398	124.211	0.139	0.173
-551.383	82.111	-0.173	0.187
-550.369	239.069	-0.028	-0.047
-549.354	-174.427	0.278	-0.008
-548.339	12.269	-0.209	0.160
-547.325	-47.283	0.182	0.088
-546.310	293.208	-0.081	-0.147
-545.296	-109.884	-0.287	-0.060
-544.281	-158.385	-0.190	0.011
-543.266	-200.000	-0.009	-0.104
-542.252	-148.204	0.236	0.019
-541.237	13.237	-0.097	0.075
-540.223	-3.532	0.155	-0.107
-539.208	-20.778	-0.247	-0.150
-538.193	800.000	0.103	-0.348
-537.179	-18.319	0.109	0.068
-536.164	511.016	0.041	-0.094
-535.150	41.658	0.206	0.185
-534.135	-47.478	0.132	0.064
-533.121	164.639	-0.161	-0.226
-532.106	63.814	-0.118	-0.118
-531.091	-200.000	0.088	-0.458
-530.077	-55.876	-0.267	0.118
-529.062	800.000	0.076	-0.261
-528.048	217.294	0.041	0.065
-527.033	-12.241	0.124	0.080
-526.018	11.333	0.159	0.121
-525.004	-200.000	0.013	0.249
-523.989	168.595	0.055	-0.077
-522.975	-94.210	0.319	0.087
-521.960	66.199	0.100	-0.100
-520.945	-200.000	-0.004	0.110
-519.931	58.637	0.121	-0.118
-518.916	-18.562	-0.162	-0.100
-517.902	322.959	0.134	-0.253
-516.887	-184.910	-0.270	-0.004
-515.872	-200.000	0.003	-0.042
-514.858	150.782	0.191	-0.257
-513.843	-102.828	-0.082	0.019
-512.829	-129.341	0.248	-0.034
-511.814	311.093	0.194	-0.360
-510.799	-86.765	-0.170	0.052
-509.785	-54.347	-0.220	-0.099
-508.770	-200.000	-0.019	-0.224
-507.756	-88.533	-0.341	0.101
-506.741	-200.000	-0.035	0.209
-505.726	-78.562	0.114	0.039
-504.712	43.154	0.168	0.152
-503.697	-59.954	-0.483	-0.205
-502.683	800.000	-0.036	0.102
-501.668	48.576	-0.055	-0.051
-500.653	-67.463	0.298	0.116
-499.639	146.439	-0.111	-0.147
-498.624	-168.860	-0.141	-0.005
-497.610	-200.000	-0.025	-0.146
-496.595	31.972	-0.232	-0.198
-495.581	-166.560	0.184	-0.008
-494.566	-44.229	0.252	0.125
-493.551	322.241	-0.119	0.224
-492.537	226.279	-0.212	0.340
-491.522	261.487	-0.044	-0.076
-490.508	800.000	0.091	0.384
-489.493	38.865	0.153	0.136
-488.478	130.929	-0.113	0.144
-487.464	-200.000	-0.017	0.088
-486.449	-136.448	-0.252	0.029
-485.435	505.020	0.037	0.085
-484.420	82.410	0.206	0.221
-483.405	-151.215	0.103	-0.008
-482.391	-107.790	0.194	0.042
-481.376	166.901	-0.157	-0.220
-480.362	115.832	0.186	-0.226
-479.347	145.283	-0.110	-0.146
-478.332	664.401	0.053	-0.136
-477.318	332.993	-0.240	0.459
-476.303	-174.862	-0.520	-0.014
-475.289	-31.950	-0.218	-0.121
-474.274	29.058	0.280	-0.235
-473.259	800.000	0.049	0.205
-472.245	353.140	-0.097	-0.190
-471.230	800.000	0.043	-0.164
-470.216	-16.839	0.112	-0.070
-469.201	-200.000	0.050	-0.520
-468.186	32.777	-0.266	-0.228
-467.172	42.257	0.201	-0.181
-466.157	137.467	-0.076	0.098
-465.143	259.436	0.184	0.315
-464.128	-11.353	-0.284	-0.185
-463.113	-200.000	-0.041	0.387
-462.099	-103.720	0.507	-0.118
-461.084	800.000	-0.047	-0.137
-460.070	-58.034	-0.308	0.133
-459.055	165.507	-0.110	0.155
-458.040	-200.000	0.041	-0.228
-457.026	-200.000	0.104	-0.573
-456.011	185.991	0.037	-0.055
-454.997	800.000	0.093	0.276
-453.982	-83.032	0.311	-0.099
-452.968	186.362	-0.090	0.132
-451.953	-200.000	-0.003	0.045
-450.938	34.367	-0.233	-0.201
-449.924	222.662	-0.232	-0.370
-448.909	-200.000	-0.007	-0.116
-447.895	-200.000	-0.021	-0.093
-446.880	14.573	0.168	0.130
-445.865	-10.840	-0.229	0.150
-444.851	335.485	-0.105	0.202
-443.836	-111.566	-0.042	0.009
-442.822	800.000	0.015	-0.043
-441.807	104.196	-0.091	0.106
-440.792	-65.954	-0.114	0.045
-439.778	318.842	0.039	-0.072
-438.763	-200.000	0.029	0.206
-437.749	-52.707	-0.193	0.088
-436.734	310.510	-0.024	-0.044
-435.719	-114.212	-0.186	-0.036
-434.705	311.981	-0.140	-0.260
-433.690	94.526	0.195	0.219
-432.676	470.579	0.068	-0.152
-431.661	800.000	0.030	-0.111
-430.646	-64.081	-0.082	-0.033
-429.632	164.624	0.111	-0.155
-428.617	645.042	-0.041	0.103
-427.603	-47.163	-0.295	0.142
-426.588	327.598	-0.035	-0.067
-425.573	-200.000	-0.019	-0.196
-424.559	-57.363	-0.062	-0.027
-423.544	800.000	-0.034	0.117
-422.530	-200.000	0.019	-0.313
-421.515	-140.905	0.281	0.029
-420.500	185.262	0.211	-0.310
-419.486	-29.232	-0.102	-0.058
-418.471	53.758	0.073	-0.069
-417.457	-75.570	0.078	-0.028
-416.442	-200.000	-0.019	0.442
-415.428	8.065	-0.063	0.047
-414.413	37.082	0.158	0.138
-413.398	61.107	0.238	-0.233
-412.384	467.721	0.127	0.282
-411.369	-14.552	0.187	0.119
-410.355	-200.000	0.020	0.119
-409.340	122.110	0.064	0.079
-408.325	278.921	-0.109	0.191
-407.311	-172.113	-0.240	-0.008
-406.296	-78.862	-0.316	0.106
-405.282	386.342	0.069	0.140
-404.267	-53.178	0.054	-0.024
-403.252	-194.100	-0.483	0.004
-402.238	-93.954	-0.173	-0.047
-401.223	-200.000	-0.013	-0.132
-400.209	730.230	-0.104	0.274
-399.194	-200.000	0.044	-0.268
-398.179	242.717	0.234	0.386
-397.165	48.178	-0.138	-0.128
-396.150	-83.486	-0.134	0.042
-395.136	-61.716	0.100	-0.041
-394.121	-47.923	0.063	-0.030
-393.106	165.768	0.259	-0.362
-392.092	791.539	-0.148	-0.401
-391.077	603.498	-0.134	0.328
-390.063	-200.000	-0.011	0.113
-389.048	-12.312	0.235	-0.152
-388.033	-30.478	-0.332	0.186
-387.019	467.827	0.085	0.188
-386.004	77.299	0.076	0.079
-384.990	-38.857	0.059	-0.031
-383.975	76.844	-0.159	-0.167
-382.960	800.000	-0.027	-0.107
-381.946	175.462	-0.246	-0.351
-380.931	800.000	0.105	0.435
-379.917	-200.000	0.049	0.237
-378.902	800.000	0.083	0.261
-377.888	-200.000	-0.007	-0.299
-376.873	-95.006	0.472	0.126
-375.858	82.365	-0.029	-0.031
-374.844	-104.932	0.334	-0.076
-373.829	84.012	0.250	-0.269
-372.815	141.500	0.130	-0.170
-371.800	-136.080	0.176	0.020
-370.785	-200.000	0.056	0.397
-369.771	499.324	0.162	-0.368
-368.756	51.982	0.090	0.084
-367.742	54.672	0.109	0.103
-366.727	94.613	-0.185	0.207
-365.712	288.853	0.213	-0.380
-364.698	-164.369	0.123	-0.006
-363.683	-165.623	-0.248	0.011
-362.669	215.872	0.176	0.275
-361.654	-2.901	-0.150	0.103
-360.639	-200.000	0.033	-0.291
-359.625	800.000	-0.023	0.080
-358.610	61.763	0.176	0.172
-357.596	-200.000	-0.013	-0.313
-356.581	-66.139	-0.320	-0.126
-355.566	-14.519	-0.258	0.163
-354.552	57.616	-0.115	0.111
-353.537	-37.627	0.189	-0.099
-352.523	-200.000	0.003	-0.177
-351.508	-200.000	0.021	0.193
-350.493	750.869	0.019	-0.051
-349.479	-200.000	-0.042	-0.211
-348.464	-112.494	-0.322	0.063
-347.450	-200.000	0.023	0.428
-346.435	-144.480	0.219	-0.020
-345.420	-200.000	-0.048	0.365
-344.406	253.174	-0.078	-0.131
-343.391	-173.182	0.307	-0.009
-342.377	-150.922	-0.061	0.005
-341.362	127.786	-0.087	-0.109
-340.348	-22.888	-0.123	-0.073
-339.333	-93.500	-0.065	-0.018
-338.318	73.060	0.168	0.173
-337.304	-172.310	-0.107	0.003
-336.289	50.099	-0.142	0.132
-335.275	800.000	-0.100	0.329
-334.260	800.000	-0.131	0.358
-333.245	-200.000	-0.054	-0.385
-332.231	22.862	0.184	-0.148
-331.216	511.056	0.118	0.270
-330.202	-80.317	-0.288	0.095
-329.187	120.036	-0.105	0.128
-328.172	800.000	0.062	0.207
-327.158	-139.592	0.056	0.006
-326.143	126.977	-0.170	0.212
-325.129	800.000	-0.041	0.119
-324.114	-132.833	0.286	-0.036
-323.099	87.905	0.151	-0.165
-322.085	335.159	-0.085	-0.163
-321.070	-53.792	-0.385	0.173
-320.056	-58.221	-0.141	-0.060
-319.041	205.808	0.069	-0.106
-318.026	-2.642	-0.184	-0.126
-317.012	6.749	0.238	0.175
-315.997	-200.000	0.023	-0.111
-314.983	-73.733	0.285	-0.102
-313.968	282.662	0.137	-0.241
-312.953	-9.425	-0.102	0.067
-311.939	-27.473	0.347	-0.198
-310.924	800.000	0.053	-0.225
-309.910	37.715	0.052	-0.046
-308.895	800.000	-0.076	-0.248
-307.880	-70.289	0.120	-0.045
-306.866	-158.344	-0.186	0.011
-305.851	-66.142	0.088	0.034
-304.837	-91.918	0.215	0.060
-303.822	-200.000	-0.033	-0.182
-302.807	80.717	0.136	0.144
-301.793	-192.609	-0.203	0.002
-300.778	-200.000	-0.022	-0.157
-299.764	-200.000	-0.027	-0.151
-298.749	-104.115	-0.112	0.026
-297.735	-49.452	0.112	0.053
-296.720	-200.000	0.006	0.322
-295.705	-148.394	0.337	-0.027
-294.691	439.347	-0.067	0.144
-293.676	159.170	-0.127	0.174
-292.662	800.000	-0.104	0.322
-291.647	-56.989	-0.139	-0.060
-290.632	-67.435	-0.133	-0.051
-289.618	800.000	-0.101	0.424
-288.603	-53.822	0.329	0.148
-287.589	57.904	0.159	-0.153
-286.574	-91.442	0.220	0.062
-285.559	35.713	-0.170	-0.147
-284.545	-200.000	0.025	0.126
-283.530	737.077	-0.096	0.254
-282.516	-90.890	0.441	0.125
-281.501	274.132	-0.212	0.368
-280.486	74.672	0.148	-0.153
-279.472	27.608	-0.247	-0.204
-278.457	110.272	-0.035	-0.042
-277.443	-132.232	0.173	-0.022
-276.428	20.590	-0.114	-0.091
-275.413	-49.847	-0.170	-0.079
-274.399	-200.000	0.005	0.142
-273.384	800.000	-0.075	-0.277
-272.370	-70.130	0.117	-0.044
-271.355	86.904	0.063	0.069
-270.340	544.969	0.093	0.218
-269.326	135.043	0.044	-0.056
-268.311	117.780	0.065	-0.079
-267.297	-200.000	0.053	0.602
-266.282	63.362	0.090	-0.089
-265.267	255.933	0.070	0.118
-264.253	155.349	-0.142	0.192
-263.238	-4.464	-0.098	-0.067
-262.224	-102.360	-0.314	0.074
-261.209	84.496	-0.083	0.089
-260.195	-86.555	-0.176	0.053
-259.180	78.825	-0.134	0.140
-258.165	-93.708	-0.032	0.009
-257.151	-31.566	-0.210	-0.116
-256.136	-200.000	-0.001	0.208
-255.122	-200.000	-0.004	0.130
-254.107	98.947	0.274	0.311
-253.092	12.750	-0.086	0.065
-252.078	81.220	0.251	0.266
-251.063	636.634	-0.024	0.059
-250.049	-155.684	-0.101	0.006
-249.034	-77.924	-0.337	-0.114
-248.019	-179.313	-0.175	0.004
-247.005	-54.191	0.276	0.123
-245.990	687.446	-0.039	-0.099
-244.976	-200.000	0.281	0.001
-243.961	83.671	0.390	-0.417
-242.946	-200.000	-0.338	-0.002
-241.932	82.692	-0.208	-0.222
-240.917	-49.937	-0.514	0.239
-239.903	-198.851	-0.073	0.000
-238.888	-200.000	-0.022	-0.187
-237.873	322.313	-0.117	-0.218
-236.859	515.883	0.064	-0.147
-235.844	347.968	-0.187	-0.362
-234.830	-162.215	0.198	0.010
-233.815	63.504	0.134	-0.132
-232.800	491.988	0.125	0.281
-231.786	34.891	0.134	-0.115
-230.771	95.456	0.247	-0.277
-229.757	800.000	-0.015	-0.060
-228.742	8.549	-0.056	0.041
-227.727	96.903	-0.109	-0.122
-226.713	191.429	0.043	-0.063
-225.698	-18.851	-0.174	0.106
-224.684	-200.000	0.042	0.320
-223.669	-39.486	0.285	-0.146
-222.655	488.916	-0.109	-0.243
-221.640	-200.000	0.061	0.457
-220.625	-113.726	0.240	0.046
-219.611	-66.937	-0.116	0.045
-218.596	134.531	-0.144	0.183
-217.582	-97.920	-0.465	0.118
-216.567	-200.000	0.049	0.242
-215.552	110.926	0.196	-0.231
-214.538	683.734	0.043	0.110
-213.523	-200.000	0.011	-0.090
-212.509	-79.032	0.278	-0.093
-211.494	-163.858	0.225	-0.010
-210.479	-200.000	-0.034	-0.188
-209.465	694.854	-0.139	0.357
-208.450	-109.788	0.098	-0.020
-207.436	12.165	0.156	-0.118
-206.421	-200.000	-0.039	-0.278
-205.406	-200.000	0.032	0.297
-204.392	-59.933	0.230	-0.097
-203.377	-92.200	0.082	-0.023
-202.363	-115.147	-0.178	0.033
-201.348	26.046	0.225	0.184
-200.333	-29.154	0.258	-0.145
-199.319	-51.717	0.213	-0.097
-198.304	-89.931	0.150	-0.043
-197.290	-76.996	0.100	-0.034
-196.275	-124.972	-0.258	0.039
-195.260	114.221	-0.084	-0.100
-194.246	-63.991	0.274	0.110
-193.231	-200.000	-0.006	-0.096
-192.217	372.553	-0.090	-0.179
-191.202	91.596	-0.064	-0.071
-190.187	-200.000	0.042	0.280
-189.173	-200.000	-0.006	0.190
-188.158	-200.000	-0.041	0.271
-187.144	-29.134	0.284	0.160
-186.129	-200.000	-0.021	-0.290
-185.114	122.980	-0.265	-0.324
-184.100	81.438	0.092	0.097
-183.085	138.557	-0.056	0.072
-182.071	233.162	0.256	0.412
-181.056	-78.961	-0.152	0.051
-180.042	-145.538	-0.082	-0.007
-179.027	-66.180	-0.132	-0.052
-178.012	-156.801	0.417	-0.025
-176.998	-78.882	0.227	0.076
-175.983	800.000	-0.013	0.036
-174.969	198.989	0.154	-0.231
-173.954	191.379	-0.130	-0.191
-172.939	-200.000	0.041	0.384
-171.925	-33.426	0.232	0.126
-170.910	800.000	0.076	0.265
-169.896	27.106	-0.360	-0.295
-168.881	-63.060	0.348	0.141
-167.866	-200.000	-0.038	-0.454
-166.852	-200.000	0.020	0.207
-165.837	-138.896	-0.563	-0.060
-164.823	6.253	-0.248	0.180
-163.808	-37.820	0.123	-0.064
-162.793	132.777	-0.110	-0.139
-161.779	108.656	-0.118	0.138
-160.764	-200.000	0.001	0.186
-159.750	210.011	-0.104	0.159
-158.735	800.000	0.009	-0.030
-157.720	-84.927	-0.053	0.016
-156.706	800.000	0.101	-0.424
-155.691	-200.000	-0.027	-0.136
-154.677	-9.549	-0.123	-0.080
-153.662	366.883	0.077	-0.152
-152.647	800.000	0.142	0.394
-151.633	-186.805	0.277	-0.004
-150.618	800.000	-0.085	0.240
-149.604	73.689	0.093	-0.095
-148.589	-68.699	-0.167	-0.063
-147.574	30.904	0.177	0.148
-146.560	-103.986	0.212	0.048
-145.545	319.316	0.013	0.024
-144.531	-175.031	0.292	0.008
-143.516	8.224	0.015	-0.011
-142.502	-44.840	-0.239	-0.116
-141.487	-15.605	-0.106	0.066
-140.472	-200.000	0.019	0.141
-139.458	-8.419	0.036	0.024
-138.443	800.000	-0.078	-0.236
-137.429	-40.940	0.107	0.054
-136.414	59.034	0.068	0.066
-135.399	800.000	-0.102	-0.397
-134.385	-200.000	0.012	0.184
-133.370	-10.533	0.410	0.265
-132.356	-164.890	0.202	0.009
-131.341	-108.205	0.148	-0.031
-130.326	179.565	-0.099	0.141
-129.312	16.403	-0.107	-0.083
-128.297	-200.000	0.023	-0.132
-127.283	594.460	0.121	0.292
-126.268	-73.991	0.425	-0.151
-125.253	-45.359	-0.254	-0.123
-124.239	-90.418	-0.324	-0.092
-123.224	-200.000	0.004	-0.098
-122.210	65.720	0.030	-0.030
-121.195	266.187	0.224	0.383
-120.180	30.512	0.237	-0.197
-119.166	-101.289	-0.145	0.034
-118.151	308.074	0.062	0.113
-117.137	10.437	0.149	-0.110
-116.122	-112.643	-0.086	0.017
-115.107	249.894	0.067	0.112
-114.093	61.818	-0.026	0.026
-113.078	27.651	-0.064	-0.053
-112.064	8.897	-0.104	0.077
-111.049	-4.756	0.103	0.069
-110.034	-103.240	-0.457	0.105
-109.020	-28.483	0.584	0.329
-108.005	-121.627	-0.103	-0.017
-106.991	97.180	-0.152	-0.170
-105.976	91.821	-0.231	0.254
-104.962	463.782	-0.036	0.078
-103.947	273.553	0.043	0.075
-102.932	-7.864	0.368	0.243
-101.918	800.000	0.055	-0.231
-100.903	30.432	0.055	-0.046
-99.889	14.955	-0.265	0.202
-98.874	-183.855	0.122	-0.002
-97.859	800.000	-0.031	0.087
-96.845	8.794	-0.188	-0.138
-95.830	-200.000	0.047	-0.216
-94.816	-122.655	-0.256	-0.040
-93.801	-98.533	0.321	0.080
-92.786	22.511	0.133	-0.106
-91.772	-101.749	0.174	0.041
-90.757	178.794	-0.091	-0.130
-89.743	58.801	-0.240	0.230
-88.728	293.642	-0.158	0.281
-87.713	-8.772	-0.328	0.215
-86.699	-200.000	-0.028	0.323
-85.684	-39.277	0.063	-0.032
-84.670	-38.023	0.327	0.169
-83.655	800.000	0.102	0.387
-82.640	2.705	-0.359	-0.254
-81.626	-154.706	-0.164	0.011
-80.611	-200.000	-0.009	-0.103
-79.597	-179.680	-0.117	0.002
-78.582	-110.481	-0.265	-0.054
-77.567	-200.000	0.010	0.101
-76.553	-200.000	-0.016	0.074
-75.538	487.317	0.087	-0.193
-74.524	800.000	0.096	0.262
-73.509	-109.905	-0.086	0.018
-72.494	239.907	0.184	0.298
-71.480	96.639	-0.118	0.131
-70.465	60.846	-0.082	0.079
-69.451	800.000	-0.049	0.185
-68.436	24.139	-0.344	-0.277
-67.422	133.691	0.167	0.211
-66.407	-200.000	0.027	-0.115
-65.392	782.537	0.031	-0.083
-64.378	-162.537	-0.156	0.007
-63.363	-0.497	0.257	0.178
-62.349	113.576	0.206	-0.244
-61.334	-2.205	-1.261	-0.862
-60.319	22.522	0.997	0.795
-59.305	258.147	-0.698	-1.171
-58.290	128.099	0.959	1.189
-57.276	800.000	0.565	1.520
-56.261	-200.000	123.873	664.939
-55.246	442.125	1544.488	3294.238
-54.232	148.169	2689.552	3535.265
-53.217	97.012	2158.013	2410.393
-52.203	34.133	1684.419	1429.993
-51.188	26.616	1504.251	1226.312
-50.173	24.837	1480.372	1194.926
-49.159	49.100	1551.466	1419.539
-48.144	46.077	1564.225	1410.440
-47.130	26.737	1513.656	1234.605
-46.115	23.894	1497.050	1201.829
-45.100	23.679	1494.567	1198.336
-44.086	23.719	1492.164	1196.628
-43.071	23.582	1490.705	1194.493
-42.057	23.680	1488.442	1193.289
-41.042	23.749	1486.748	1192.350
-40.027	23.738	1485.474	1191.205
-39.013	23.682	1483.794	1189.436
-37.998	23.609	1483.452	1188.627
-36.984	23.602	1482.466	1187.740
-35.969	23.685	1480.252	1186.476
-34.954	23.587	1478.660	1184.500
-33.940	23.640	1477.385	1183.778
-32.925	23.655	1476.036	1182.753
-31.911	23.654	1475.121	1181.966
-30.896	23.743	1473.518	1181.226
-29.881	23.710	1472.723	1180.322
-28.867	23.763	1470.924	1179.190
-27.852	23.714	1469.956	1178.039
-26.838	23.783	1468.291	1177.117
-25.823	23.618	1467.116	1175.035
-24.809	23.770	1464.973	1174.274
-23.794	23.756	1463.809	1173.205
-22.779	23.750	1462.339	1171.941
-21.765	23.737	1461.222	1170.914
-20.750	23.743	1460.505	1170.331
-19.736	23.723	1459.072	1169.006
-18.721	23.694	1458.872	1168.608
-17.706	23.639	1457.007	1166.702
-16.692	23.671	1456.524	1166.479
-15.677	23.731	1455.200	1165.770
-14.663	23.663	1454.419	1164.649
-13.648	23.684	1453.290	1163.836
-12.633	23.581	1453.025	1162.905
-11.619	23.692	1451.282	1162.188
-10.604	23.626	1450.945	1161.443
-9.590	23.585	1450.045	1160.408
-8.575	23.615	1449.000	1159.721
-7.560	23.636	1448.160	1159.141
-6.546	23.703	1446.958	1158.569
-5.531	23.622	1446.500	1157.628
-4.517	23.726	1445.080	1157.125
-3.502	23.682	1444.700	1156.491
-2.487	23.652	1443.819	1155.538
-1.473	23.645	1442.451	1154.356
-0.458	23.608	1440.968	1152.884
0.556	21.845	1431.054	1141.154
1.571	18.650	1407.335	1101.662
2.586	15.369	1346.360	1033.656
3.600	13.582	1264.602	960.450
4.615	12.730	1221.062	922.529
5.629	11.061	1164.888	871.085
6.644	5.438	1085.011	783.193
7.659	0.850	1049.189	735.012
8.673	0.331	1044.198	728.946
9.688	0.048	1041.099	725.352
10.702	0.232	1039.465	725.037
11.717	0.058	1037.367	722.673
12.731	1.965	1038.252	732.385
13.746	8.089	1046.835	767.952
14.761	14.497	1054.294	804.359
15.775	16.791	1056.819	817.293
16.790	16.482	1055.432	814.658
17.804	15.355	1054.162	808.182
18.819	14.596	1051.917	802.735
19.834	14.103	1050.180	798.975
20.848	13.934	1049.416	797.508
21.863	13.644	1048.833	795.604
22.877	13.339	1047.971	793.415
23.892	13.219	1047.123	792.130
24.907	13.184	1046.284	791.256
25.921	13.235	1045.395	790.759
26.936	13.261	1044.633	790.238
27.950	13.263	1044.259	789.895
28.965	13.170	1043.682	788.946
29.980	13.340	1042.425	788.734
30.994	13.371	1041.134	787.833
32.009	13.319	1040.505	787.042
33.023	13.387	1040.034	786.938
34.038	13.329	1039.622	786.284
35.053	13.447	1038.105	785.626
36.067	13.343	1037.573	784.660
37.082	13.316	1036.553	783.690
38.096	13.236	1036.432	783.153
39.111	13.343	1035.231	782.680
40.126	13.319	1034.367	781.846
41.140	13.301	1033.600	781.113
42.155	13.213	1032.226	779.586
43.169	13.260	1031.587	779.260
44.184	13.103	1030.946	777.967
45.199	13.098	1029.523	776.800
46.213	13.227	1028.765	776.764
47.228	13.204	1027.772	775.840
48.242	13.182	1026.835	774.958
49.257	13.260	1026.124	774.721
50.271	13.318	1024.673	773.825
51.286	13.287	1023.792	772.950
52.301	13.364	1023.160	772.761
53.315	13.340	1022.384	771.998
54.330	13.191	1021.826	770.810
55.344	13.268	1020.323	769.969
56.359	13.168	1019.522	768.830
57.374	13.262	1018.432	768.380
58.388	13.190	1017.668	767.399
59.403	13.203	1016.996	766.887
60.417	13.207	1016.296	766.307
61.432	13.170	1015.912	765.778
62.447	13.053	1015.060	764.528
63.461	13.027	1013.988	763.533
64.476	13.157	1012.713	763.105
65.490	13.093	1012.185	762.345
66.505	13.102	1011.367	761.702
67.520	13.234	1010.728	761.762
68.534	13.185	1009.988	760.908
69.549	13.139	1009.294	760.109
70.563	13.106	1008.623	759.387
71.578	13.158	1007.845	758.972
72.593	13.169	1006.867	758.216
73.607	13.149	1005.982	757.393
74.622	13.072	1005.112	756.316
75.636	13.052	1004.291	755.540
76.651	13.108	1003.323	755.000
77.666	13.088	1002.972	754.581
78.680	13.045	1001.951	753.549
79.695	13.119	1001.332	753.353
80.709	13.151	1000.965	753.156
81.724	13.178	999.711	752.269
82.739	13.100	999.585	751.755
83.753	13.285	998.451	751.675
84.768	13.371	997.797	751.505
85.782	13.350	996.992	750.737
86.797	13.394	996.335	750.379
87.812	13.437	995.417	749.813
88.826	13.305	994.764	748.660
89.841	13.216	994.106	747.696
90.855	13.396	992.912	747.541
91.870	13.375	992.328	746.941
92.884	13.415	991.706	746.590
93.899	13.452	990.563	745.830
94.914	13.323	989.856	744.652
95.928	13.439	989.211	744.621
96.943	13.393	988.871	744.094
97.957	13.444	987.851	743.489
98.972	13.443	986.915	742.713
99.987	13.413	986.363	742.097
101.001	13.414	985.510	741.393
102.016	13.405	984.818	740.769
103.030	13.312	983.858	739.565
104.045	13.516	982.573	739.443
105.060	13.385	981.998	738.360
106.074	13.347	981.124	737.469
107.089	13.360	980.075	736.674
108.103	13.190	979.814	735.655
109.118	13.248	978.490	734.853
110.133	13.269	977.671	734.269
111.147	13.288	976.931	733.732
112.162	13.235	976.450	733.069
113.176	13.224	975.159	731.987
114.191	13.217	974.344	731.280
115.206	13.411	973.272	731.269
116.220	13.380	972.594	730.558
117.235	13.289	971.950	729.606
118.249	13.253	971.131	728.768
119.264	13.341	970.252	728.431
120.279	13.356	969.283	727.706
121.293	13.330	968.312	726.799
122.308	13.221	967.472	725.624
123.322	13.218	967.265	725.393
124.337	13.318	965.377	724.353
125.352	13.286	964.520	723.503
126.366	13.310	963.512	722.788
127.381	13.264	962.274	721.593
128.395	13.202	961.790	720.898
129.410	13.207	960.520	719.906
130.424	13.189	960.245	719.557
131.439	13.264	959.058	718.929
132.454	13.273	958.184	718.247
133.468	13.373	957.503	718.108
134.483	13.412	956.771	717.668
135.497	13.286	956.226	716.649
136.512	13.285	955.318	715.898
137.527	13.178	955.027	715.156
138.541	13.377	953.796	715.028
139.556	13.173	953.393	713.784
140.570	13.304	952.514	713.628
141.585	13.480	951.203	713.342
142.600	13.393	951.102	712.828
143.614	13.427	950.627	712.555
144.629	13.525	949.717	712.232
145.643	13.438	949.293	711.474
146.658	13.462	948.208	710.704
147.673	13.464	947.259	709.936
148.687	13.479	945.942	708.952
149.702	13.562	945.322	708.778
150.716	13.513	944.546	707.926
151.731	13.403	943.617	706.695
152.746	13.431	942.963	706.261
153.760	13.442	942.548	705.936
154.775	13.467	941.778	705.403
155.789	13.584	941.057	705.299
156.804	13.612	940.240	704.743
157.819	13.648	939.028	703.927
158.833	13.598	938.739	703.436
159.848	13.524	937.980	702.491
160.862	13.716	937.416	702.817
161.877	13.748	936.222	701.996
162.892	13.616	935.709	700.991
163.906	13.687	934.734	700.498
164.921	13.568	934.197	699.533
165.935	13.536	932.905	698.368
166.950	13.690	932.052	698.316
167.964	13.630	931.272	697.419
168.979	13.770	930.096	697.062
169.994	13.729	929.254	696.198
171.008	13.546	928.430	694.753
172.023	13.613	927.959	694.621
173.037	13.729	926.942	694.282
174.052	13.735	926.469	693.893
175.067	13.714	925.623	693.111
176.081	13.532	925.033	691.845
177.096	13.684	924.012	691.658
178.110	13.646	922.989	690.671
179.125	13.605	922.736	690.248
180.140	13.687	921.777	689.811
181.154	13.735	921.120	689.458
182.169	13.712	920.388	688.754
183.183	13.769	920.052	688.678
184.198	13.918	919.094	688.520
185.213	13.830	918.400	687.574
186.227	13.836	918.224	687.403
187.242	13.845	917.844	687.097
188.256	13.983	917.036	687.002
189.271	13.835	916.107	685.634
190.286	13.888	915.369	685.239
191.300	13.747	914.885	684.236
192.315	13.739	913.889	683.396
193.329	13.617	913.013	682.181
194.344	13.850	912.442	682.649
195.359	13.840	911.985	682.209
196.373	13.873	911.428	681.863
197.388	13.950	910.474	681.406
198.402	13.841	910.517	680.931
199.417	14.058	909.913	681.311
200.432	14.096	909.366	680.996
201.446	14.226	908.951	681.158
202.461	14.163	908.398	680.423
203.475	14.212	907.836	680.144
204.490	14.020	907.623	679.137
205.504	14.164	906.441	678.783
206.519	14.139	905.374	677.820
207.534	14.086	904.814	677.125
208.548	14.059	904.006	676.350
209.563	14.216	903.564	676.601
210.577	14.123	903.102	675.815
211.592	14.212	902.227	675.460
212.607	14.173	901.677	674.833
213.621	14.302	901.435	675.115
214.636	14.379	900.408	674.598
215.650	14.255	899.699	673.506
216.665	14.228	899.485	673.176
217.680	14.339	898.639	672.933
218.694	14.363	898.221	672.657
219.709	14.337	898.129	672.422
220.723	14.266	897.163	671.352
221.738	14.352	896.538	671.171
222.753	14.263	895.676	670.111
223.767	14.406	894.950	670.083
224.782	14.311	894.239	669.110
225.796	14.427	893.355	668.855
226.811	14.579	892.579	668.825
227.826	14.510	891.947	668.015
228.840	14.437	891.457	667.295
229.855	14.464	890.590	666.695
230.869	14.445	890.145	666.229
231.884	14.511	889.561	665.995
232.899	14.429	889.064	665.239
233.913	14.461	887.958	664.477
234.928	14.441	887.357	663.893
235.942	14.406	886.611	663.135
236.957	14.518	886.110	663.148
237.972	14.479	885.299	662.327
238.986	14.384	884.609	661.372
240.001	14.519	884.258	661.587
241.015	14.406	883.474	660.497
242.030	14.630	882.372	660.499
243.045	14.666	881.748	660.115
244.059	14.700	881.437	659.960
245.074	14.384	881.274	658.531
246.088	14.753	880.150	659.089
247.103	14.671	879.857	658.486
248.117	14.763	879.028	658.172
249.132	14.674	878.663	657.488
250.147	14.707	878.080	657.123
251.161	14.755	877.365	656.721
252.176	14.802	876.499	656.198
253.190	14.826	875.883	655.774
254.205	15.048	875.394	656.221
255.220	14.921	874.913	655.305
256.234	14.941	874.371	654.919
257.249	14.894	873.752	654.213
258.263	14.999	873.341	654.257
259.278	14.910	872.594	653.294
260.293	15.081	872.148	653.566
261.307	15.107	871.650	653.240
262.322	15.121	870.870	652.649
263.336	14.985	870.278	651.621
264.351	15.142	869.419	651.530
265.366	15.210	868.773	651.253
266.380	15.192	868.523	650.936
267.395	15.160	867.556	650.032
268.409	15.169	866.968	649.569
269.424	15.293	865.908	649.196
270.439	15.219	865.230	648.346
271.453	15.206	864.747	647.876
272.468	15.208	864.181	647.401
273.482	15.140	863.210	646.354
274.497	15.166	862.892	646.159
275.512	15.163	861.991	645.414
276.526	15.175	861.506	645.043
277.541	15.244	861.134	644.972
278.555	15.305	860.584	644.738
279.570	15.469	859.588	644.562
280.585	15.376	859.274	643.914
281.599	15.391	858.435	643.285
282.614	15.283	858.184	642.625
283.628	15.335	857.760	642.451
284.643	15.385	856.996	642.014
285.657	15.398	856.410	641.567
286.672	15.451	855.815	641.268
287.687	15.452	855.355	640.870
288.701	15.353	855.284	640.381
289.716	15.512	854.399	640.268
290.730	15.462	854.027	639.742
291.745	15.482	853.337	639.245
292.760	15.589	852.188	638.735
293.774	15.477	851.642	637.844
294.789	15.519	851.606	637.919
295.803	15.557	851.086	637.618
296.818	15.468	850.142	636.517
297.833	15.584	849.275	636.251
298.847	15.636	848.768	636.012
299.862	15.502	848.561	635.293
300.876	15.691	847.071	634.837
301.891	15.657	846.535	634.250
302.906	15.639	846.157	633.842
303.920	15.678	845.530	633.462
304.935	15.775	844.680	633.137
305.949	15.754	844.179	632.624
306.964	15.693	843.752	632.020
307.979	15.690	843.259	631.583
308.993	15.825	842.484	631.455
310.008	15.816	842.173	631.130
311.022	15.926	841.283	630.820
312.037	15.888	841.029	630.433
313.052	15.928	840.395	630.049
314.066	15.773	839.805	628.974
315.081	15.692	839.521	628.401
316.095	15.876	838.714	628.429
317.110	15.884	838.182	628.003
318.125	15.792	837.632	627.196
319.139	15.838	837.078	626.894
320.154	15.783	836.893	626.495
321.168	15.985	835.678	626.282
322.183	15.934	835.698	626.052
323.197	15.995	835.239	625.881
324.212	15.955	834.520	625.137
325.227	15.990	833.926	624.768
326.241	16.099	833.417	624.736
327.256	16.122	832.760	624.272
328.270	15.822	832.527	622.930
329.285	15.997	831.859	623.022
330.300	15.920	831.329	622.285
331.314	15.983	830.597	621.915
332.329	16.138	830.016	621.996
333.343	15.949	829.447	620.819
334.358	16.047	828.556	620.458
335.373	16.081	828.513	620.497
336.387	16.041	828.083	619.972
337.402	16.244	827.540	620.256
338.416	16.230	826.932	619.695
339.431	16.230	826.143	619.050
340.446	16.236	825.879	618.820
341.460	16.507	824.948	619.060
342.475	16.465	824.357	618.406
343.489	16.388	823.829	617.674
344.504	16.349	823.713	617.389
345.519	16.396	822.949	616.936
346.533	16.485	822.251	616.682
347.548	16.562	821.654	616.460
348.562	16.405	821.670	615.844
349.577	16.504	820.975	615.632
350.592	16.332	820.470	614.570
351.606	16.312	820.297	614.313
352.621	16.177	819.830	613.421
353.635	16.444	819.019	613.728
354.650	16.432	818.917	613.552
355.665	16.325	818.500	612.797
356.679	16.429	817.997	612.746
357.694	16.399	817.557	612.251
358.708	16.532	816.833	612.137
359.723	16.494	815.954	611.286
360.738	16.614	815.376	611.232
361.752	16.605	815.035	610.890
362.767	16.564	814.567	610.339
363.781	16.591	814.517	610.346
364.796	16.635	813.781	609.896
365.810	16.618	813.199	609.345
366.825	16.902	812.495	609.786
367.840	16.590	812.600	608.689
368.854	16.743	811.981	608.720
369.869	16.790	811.825	608.720
370.883	16.878	811.028	608.383
371.898	16.827	810.231	607.548
372.913	16.929	809.672	607.442
373.927	16.837	809.104	606.632
374.942	16.867	808.822	606.475
375.956	16.949	808.127	606.195
376.971	17.004	807.616	605.955
377.986	16.793	807.287	604.898
379.000	16.876	806.813	604.785
380.015	16.895	806.258	604.383
381.029	16.890	805.829	603.991
382.044	16.882	805.350	603.549
383.059	17.069	804.627	603.621
384.073	16.923	804.291	602.795
385.088	16.995	803.627	602.502
386.102	16.962	802.887	601.777
387.117	16.904	802.497	601.225
388.132	17.080	801.861	601.317
389.146	16.937	801.709	600.646
390.161	16.881	801.257	600.053
391.175	17.104	800.746	600.408
392.190	16.991	800.686	599.908
393.205	17.043	800.143	599.633
394.219	17.214	799.630	599.799
395.234	17.112	799.037	598.943
396.248	17.184	798.487	598.731
397.263	17.179	798.088	598.361
398.278	17.066	797.634	597.570
399.292	17.050	797.408	597.291
400.307	16.961	796.891	596.537
401.321	16.925	796.565	596.115
402.336	17.280	795.946	596.844
403.350	17.071	795.620	595.813
404.365	17.096	795.198	595.534
405.380	17.114	794.680	595.158
406.394	17.180	794.447	595.159
407.409	17.322	793.952	595.235
408.423	17.346	793.222	594.717
409.438	17.334	793.015	594.470
410.453	17.374	792.632	594.266
411.467	17.485	791.798	593.976
412.482	17.483	791.526	593.713
413.496	17.509	790.953	593.322
414.511	17.443	790.578	592.759
415.526	17.458	790.254	592.517
416.540	17.518	790.372	592.760
417.555	17.503	789.515	592.012
418.569	17.453	789.199	591.549
419.584	17.477	788.703	591.209
420.599	17.569	788.084	591.012
421.613	114.122	1296.730	1488.157
422.628	98.073	1370.784	1488.237
