DTS Sentinel unit serial number:	SN413079Multiplexer serial number:	ORYXHardware model number:	OX4-SRSoftware version number:	ORYX F/W v4.00 Oryx Data Collector v3.7.2.0data status	okinstallation	princeton_trtdifferential loss correction	single-endedforward channel	channel 3reverse channel	N/Adate	2019/09/12time	17:38:11forward acquisition time	60.00reverse acquisition time	0.00gamma	496.2192k internal	0.2316k external	0.2316temperature offset calibration	1.0087default loss term (dB/km)	0.3790temperature slope calibration	1.0000multiplexer offset coefficient	1.0000multiplexer slope coefficient	1.0000fibre end	0.00T internal ref (°C)	34.37T ext. ref 1 (°C)	2.86T ext. ref 2 (°C)	28.40length (m)	temperature (°C)	Stokes	anti-Stokes-747.200	-140.572	-0.236	0.025
-746.185	-200.000	0.024	-0.124
-745.171	-67.106	0.206	-0.082
-744.156	35.011	-0.111	0.098
-743.142	36.612	-0.229	0.205
-742.127	44.463	-0.326	0.303
-741.112	47.112	-0.231	0.217
-740.098	104.491	0.052	-0.062
-739.083	763.905	-0.060	-0.165
-738.069	-87.877	0.271	-0.083
-737.054	-179.787	0.219	-0.005
-736.039	-200.000	-0.018	-0.096
-735.025	-47.035	0.161	0.080
-734.010	-150.196	-0.382	0.030
-732.996	-79.292	0.129	-0.044
-731.981	800.000	-0.083	-0.234
-730.966	-200.000	-0.062	-0.534
-729.952	529.409	0.061	-0.145
-728.937	-31.589	-0.102	-0.058
-727.923	-200.000	-0.077	-0.582
-726.908	-200.000	-0.014	-0.093
-725.894	-200.000	-0.034	-0.201
-724.879	-157.227	-0.351	-0.022
-723.864	-61.550	-0.266	-0.113
-722.850	-99.629	-0.278	0.071
-721.835	-200.000	-0.030	0.272
-720.821	-200.000	-0.054	0.243
-719.806	50.690	0.186	-0.178
-718.791	-200.000	0.007	-0.279
-717.777	-119.270	-0.488	0.086
-716.762	-129.067	0.054	-0.008
-715.748	-200.000	-0.039	-0.173
-714.733	-4.343	-0.197	-0.138
-713.718	132.317	0.139	-0.181
-712.704	207.038	-0.120	-0.190
-711.689	63.190	0.208	-0.211
-710.675	-200.000	-0.004	-0.177
-709.660	-73.292	0.277	-0.102
-708.645	358.748	0.085	-0.171
-707.631	-79.344	-0.346	-0.119
-706.616	800.000	-0.058	0.228
-705.602	-132.129	-0.054	0.007
-704.587	-125.719	0.169	0.026
-703.572	-165.570	0.135	0.006
-702.558	-175.842	-0.318	0.009
-701.543	260.720	-0.140	0.245
-700.529	174.102	-0.122	-0.178
-699.514	-200.000	-0.032	0.179
-698.499	47.646	-0.236	-0.223
-697.485	355.676	-0.160	-0.323
-696.470	-200.000	-0.001	-0.311
-695.456	5.433	0.144	-0.107
-694.441	-63.346	-0.155	0.065
-693.426	800.000	0.099	0.296
-692.412	-108.562	-0.197	-0.043
-691.397	800.000	-0.063	-0.230
-690.383	110.766	-0.056	0.068
-689.368	160.655	-0.179	-0.253
-688.354	-200.000	0.527	0.001
-687.339	-125.338	0.219	0.034
-686.324	268.632	-0.018	-0.031
-685.310	97.245	-0.202	0.234
-684.295	-150.765	-0.245	0.019
-683.281	538.109	-0.095	-0.228
-682.266	-118.078	0.110	-0.020
-681.251	320.811	0.132	0.253
-680.237	551.629	-0.141	0.342
-679.222	30.400	-0.222	-0.192
-678.208	-200.000	-0.002	-0.278
-677.193	240.112	-0.134	-0.226
-676.178	706.966	-0.130	-0.348
-675.164	460.270	0.169	-0.380
-674.149	-200.000	-0.121	-0.000
-673.135	-13.309	-0.280	-0.183
-672.120	-34.495	-0.047	0.026
-671.105	434.314	0.189	-0.414
-670.091	-17.599	-0.245	0.156
-669.076	29.033	-0.168	-0.144
-668.062	800.000	-0.049	-0.144
-667.047	-200.000	-0.014	-0.158
-666.032	800.000	-0.098	-0.278
-665.018	-117.397	-0.192	0.035
-664.003	-141.581	-0.232	0.024
-662.989	-200.000	0.019	-0.174
-661.974	747.972	-0.107	-0.290
-660.959	100.583	-0.089	-0.105
-659.945	389.056	-0.095	-0.198
-658.930	-111.720	0.137	-0.028
-657.916	81.719	0.290	0.317
-656.901	-200.000	-0.110	0.000
-655.886	669.358	0.057	-0.148
-654.872	415.462	-0.089	-0.191
-653.857	-97.505	-0.198	-0.052
-652.843	59.069	0.129	0.128
-651.828	-200.000	0.010	0.060
-650.814	-200.000	-0.025	0.185
-649.799	-52.358	-0.048	0.023
-648.784	-19.555	-0.209	0.131
-647.770	-93.391	-0.074	0.021
-646.755	800.000	-0.060	-0.250
-645.741	-154.408	-0.281	-0.019
-644.726	182.028	0.125	-0.186
-643.711	-200.000	0.008	-0.224
-642.697	-200.000	-0.032	-0.477
-641.682	-200.000	0.052	0.239
-640.668	-16.850	0.105	0.067
-639.653	2.648	0.178	-0.130
-638.638	-115.188	-0.098	-0.019
-637.624	-200.000	-0.023	-0.289
-636.609	455.878	-0.186	-0.416
-635.595	211.511	-0.238	-0.378
-634.580	-200.000	-0.057	-0.310
-633.565	-44.642	0.082	-0.041
-632.551	80.184	-0.190	-0.206
-631.536	29.454	0.253	0.217
-630.522	-64.316	0.144	-0.059
-629.507	-93.082	0.504	0.142
-628.492	25.583	-0.252	-0.212
-627.478	800.000	0.013	0.040
-626.463	-135.136	-0.252	0.031
-625.449	356.828	0.107	-0.215
-624.434	-51.551	0.117	0.055
-623.419	25.886	0.068	-0.057
-622.405	800.000	-0.100	0.296
-621.390	-61.298	-0.084	0.036
-620.376	59.218	-0.163	-0.161
-619.361	800.000	0.098	0.306
-618.346	-30.140	-0.215	-0.123
-617.332	25.731	0.167	0.140
-616.317	112.059	0.206	0.251
-615.303	386.092	-0.051	0.107
-614.288	-142.805	0.427	0.042
-613.273	-109.102	-0.381	-0.082
-612.259	348.604	0.116	-0.230
-611.244	-65.556	0.229	-0.093
-610.230	65.631	0.104	-0.106
-609.215	-200.000	0.061	0.367
-608.201	202.715	0.048	0.075
-607.186	-100.965	-0.036	-0.009
-606.171	-200.000	0.014	0.188
-605.157	-78.448	-0.106	-0.037
-604.142	-170.689	-0.277	0.010
-603.128	352.177	0.119	-0.237
-602.113	-49.358	0.298	-0.143
-601.098	-11.296	0.135	-0.090
-600.084	-96.694	0.339	0.090
-599.069	-200.000	0.034	-0.201
-598.055	-200.000	-0.028	-0.153
-597.040	-200.000	0.032	-0.210
-596.025	21.223	-0.200	0.164
-595.011	116.271	-0.043	0.053
-593.996	-33.233	-0.141	-0.079
-592.982	4.707	0.191	0.141
-591.967	-131.813	0.072	-0.010
-590.952	74.440	-0.234	0.247
-589.938	-200.000	-0.043	0.211
-588.923	-20.826	0.175	-0.108
-587.909	41.384	0.093	-0.084
-586.894	262.370	0.155	-0.271
-585.879	-200.000	-0.018	0.314
-584.865	-75.025	0.133	0.048
-583.850	100.119	0.176	0.205
-582.836	-118.264	-0.227	0.041
-581.821	-54.174	-0.383	0.175
-580.806	-200.000	0.010	0.102
-579.792	-111.650	0.212	-0.043
-578.777	7.505	-0.245	-0.184
-577.763	102.284	-0.259	-0.305
-576.748	12.900	0.153	-0.119
-575.733	-200.000	-0.013	0.074
-574.719	38.320	-0.106	-0.095
-573.704	-61.199	-0.184	-0.078
-572.690	168.135	-0.217	-0.310
-571.675	290.710	0.050	-0.091
-570.661	-44.150	-0.154	-0.078
-569.646	-117.531	0.239	0.043
-568.631	-107.643	-0.467	0.103
-567.617	-95.466	0.070	0.019
-566.602	107.977	0.099	-0.118
-565.588	-29.920	0.167	-0.096
-564.573	-200.000	-0.007	-0.236
-563.558	255.987	-0.058	0.101
-562.544	-133.209	0.464	-0.059
-561.529	372.013	0.027	-0.055
-560.515	248.902	0.037	0.063
-559.500	-131.318	0.287	-0.038
-558.485	92.577	-0.204	0.231
-557.471	-84.110	0.260	0.083
-556.456	-60.334	0.181	0.077
-555.442	800.000	0.073	-0.276
-554.427	-131.604	-0.097	-0.013
-553.412	69.666	0.128	0.133
-552.398	-11.300	-0.174	-0.115
-551.383	-200.000	-0.082	-0.409
-550.369	800.000	0.119	0.433
-549.354	-200.000	-0.035	-0.157
-548.339	-83.102	-0.215	0.070
-547.325	-40.240	-0.158	0.083
-546.310	-134.514	0.174	0.021
-545.296	35.348	-0.098	-0.086
-544.281	-200.000	0.039	-0.249
-543.266	-88.093	0.148	0.045
-542.252	-55.049	-0.199	0.090
-541.237	-41.745	-0.323	-0.167
-540.223	-200.000	-0.011	-0.187
-539.208	-64.038	0.229	-0.094
-538.193	-30.410	0.193	0.110
-537.179	-135.013	0.124	0.015
-536.164	-178.452	0.337	0.008
-535.150	800.000	-0.104	-0.352
-534.135	-164.692	-0.174	-0.008
-533.121	-69.313	-0.144	0.055
-532.106	174.615	0.050	0.072
-531.091	-8.422	-0.265	-0.179
-530.077	-158.812	-0.298	-0.017
-529.062	-147.038	0.179	0.015
-528.048	220.948	-0.101	-0.162
-527.033	703.915	0.051	-0.134
-526.018	800.000	0.079	0.300
-525.004	-87.071	0.191	-0.058
-523.989	287.499	0.115	-0.210
-522.975	135.277	0.224	0.292
-521.960	442.586	0.094	-0.206
-520.945	-16.372	0.263	-0.168
-519.931	-46.062	0.054	-0.027
-518.916	-53.553	-0.134	0.062
-517.902	800.000	-0.067	-0.217
-516.887	350.660	0.059	0.118
-515.872	17.933	0.111	-0.089
-514.858	117.408	-0.231	0.286
-513.843	-200.000	-0.012	0.083
-512.829	-33.573	0.214	0.119
-511.814	-200.000	-0.002	-0.086
-510.799	478.673	-0.077	-0.175
-509.785	-200.000	0.000	-0.049
-508.770	-152.843	-0.219	0.016
-507.756	-42.850	0.302	-0.154
-506.741	16.554	-0.203	0.161
-505.726	-74.158	-0.459	0.167
-504.712	-112.154	0.304	-0.061
-503.697	364.396	0.178	0.359
-502.683	277.374	-0.159	-0.283
-501.668	18.714	-0.149	-0.120
-500.653	-13.356	0.124	-0.081
-499.639	-65.682	0.200	0.080
-498.624	21.261	-0.132	0.108
-497.610	84.700	-0.090	0.099
-496.595	-124.119	-0.236	-0.037
-495.581	752.859	0.171	0.464
-494.566	167.641	-0.062	-0.088
-493.551	800.000	-0.062	-0.197
-492.537	-126.923	-0.242	0.036
-491.522	-200.000	-0.010	0.116
-490.508	-60.025	0.030	0.013
-489.493	100.040	-0.278	-0.323
-488.478	-39.753	0.079	0.042
-487.464	800.000	-0.047	-0.189
-486.449	357.335	-0.212	0.424
-485.435	-200.000	-0.003	-0.025
-484.420	222.508	-0.168	-0.272
-483.405	800.000	-0.061	0.207
-482.391	-200.000	0.039	-0.271
-481.376	-200.000	0.083	-0.528
-480.362	382.146	0.050	0.103
-479.347	-200.000	0.023	0.134
-478.332	316.932	-0.029	-0.054
-477.318	800.000	0.094	0.328
-476.303	400.743	-0.192	-0.404
-475.289	72.883	0.045	-0.047
-474.274	82.143	0.129	0.140
-473.259	113.364	-0.207	-0.251
-472.245	685.663	0.084	0.220
-471.230	189.695	0.167	-0.251
-470.216	51.808	0.257	0.245
-469.201	-92.586	0.191	-0.054
-468.186	-92.453	0.019	0.005
-467.172	47.706	-0.089	-0.083
-466.157	5.004	0.282	0.208
-465.143	83.692	-0.188	0.206
-464.128	378.479	-0.102	0.208
-463.113	-181.536	0.380	0.007
-462.099	-200.000	-0.001	-0.306
-461.084	-106.639	0.227	-0.051
-460.070	-3.728	0.061	-0.042
-459.055	-95.406	-0.243	-0.066
-458.040	18.451	0.394	-0.316
-457.026	137.001	0.186	0.244
-456.011	-185.658	0.156	0.002
-454.997	66.691	0.086	-0.088
-453.982	-107.509	0.243	-0.053
-452.968	143.600	-0.140	-0.186
-451.953	800.000	0.018	-0.061
-450.938	118.147	-0.149	0.184
-449.924	-200.000	0.005	0.239
-448.909	79.770	-0.159	0.171
-447.895	-142.707	0.193	-0.019
-446.880	-177.753	0.290	-0.007
-445.865	800.000	0.085	0.287
-444.851	-97.396	-0.187	-0.049
-443.836	29.402	-0.215	-0.183
-442.822	-200.000	-0.040	-0.180
-441.807	-101.663	-0.213	-0.052
-440.792	-132.327	-0.107	0.014
-439.778	640.823	-0.075	-0.191
-438.763	-145.535	-0.289	0.026
-437.749	-200.000	-0.001	0.224
-436.734	539.614	-0.094	0.223
-435.719	-200.000	0.042	0.219
-434.705	45.058	-0.086	0.079
-433.690	596.543	-0.069	-0.171
-432.676	-25.172	-0.181	0.107
-431.661	-200.000	-0.059	0.285
-430.646	52.232	-0.097	-0.092
-429.632	-200.000	-0.012	-0.179
-428.617	800.000	0.090	-0.304
-427.603	150.949	0.063	0.085
-426.588	196.689	0.026	0.040
-425.573	219.242	0.030	0.048
-424.559	-78.987	-0.087	-0.030
-423.544	-37.225	-0.242	-0.129
-422.530	240.759	0.119	0.199
-421.515	-200.000	0.016	-0.086
-420.500	-200.000	0.001	0.462
-419.486	-200.000	0.018	-0.342
-418.471	800.000	0.031	-0.129
-417.457	-200.000	0.010	0.162
-416.442	800.000	-0.007	-0.024
-415.428	-28.169	-0.210	0.121
-414.413	71.110	0.117	0.121
-413.398	35.285	-0.423	0.371
-412.384	-39.075	-0.214	0.112
-411.369	-54.815	-0.177	0.080
-410.355	184.418	-0.177	-0.262
-409.340	-200.000	0.004	0.207
-408.325	-200.000	-0.008	-0.389
-407.311	800.000	-0.099	0.290
-406.296	144.120	-0.177	-0.236
-405.282	286.767	0.151	0.273
-404.267	-200.000	-0.030	0.168
-403.252	800.000	-0.105	0.355
-402.238	-24.019	-0.055	-0.033
-401.223	423.352	0.074	-0.159
-400.209	215.536	-0.084	-0.134
-399.194	-65.062	-0.185	-0.074
-398.179	98.905	-0.198	-0.228
-397.165	-89.987	-0.211	-0.062
-396.150	59.624	-0.207	-0.204
-395.136	91.763	-0.133	-0.149
-394.121	800.000	0.048	-0.200
-393.106	21.177	-0.242	-0.196
-392.092	-200.000	-0.018	0.237
-391.077	-200.000	-0.026	0.284
-390.063	140.729	-0.206	-0.272
-389.048	125.923	0.125	-0.157
-388.033	-76.360	-0.047	-0.017
-387.019	800.000	-0.130	0.368
-386.004	473.749	-0.161	0.363
-384.990	-191.895	0.120	0.001
-383.975	-200.000	0.069	-0.353
-382.960	11.852	0.230	-0.177
-381.946	179.692	-0.269	0.393
-380.931	-154.826	-0.213	0.014
-379.917	-200.000	0.037	0.288
-378.902	-50.984	0.244	-0.115
-377.888	-200.000	-0.075	0.404
-376.873	-60.134	-0.239	-0.102
-375.858	2.671	-0.352	-0.255
-374.844	-141.251	0.339	-0.034
-373.829	-30.286	0.122	-0.069
-372.815	-200.000	-0.033	-0.205
-371.800	2.211	-0.128	0.092
-370.785	-36.403	-0.195	0.105
-369.771	-127.779	-0.124	-0.018
-368.756	-183.454	0.121	-0.002
-367.742	-200.000	-0.016	-0.103
-366.727	87.251	0.328	-0.362
-365.712	-150.088	0.100	-0.008
-364.698	268.901	0.050	0.088
-363.683	-139.464	0.228	-0.024
-362.669	25.379	-0.083	-0.069
-361.654	26.039	0.212	0.177
-360.639	581.981	-0.121	0.297
-359.625	10.439	-0.187	-0.142
-358.610	-74.826	-0.286	0.102
-357.596	175.828	-0.113	-0.164
-356.581	50.999	-0.265	0.250
-355.566	94.701	0.090	-0.102
-354.552	58.672	0.184	0.180
-353.537	-132.843	0.189	-0.024
-352.523	-137.689	-0.217	0.024
-351.508	-19.590	0.007	0.005
-350.493	139.199	-0.078	0.102
-349.479	800.000	0.094	0.309
-348.464	298.337	0.024	0.044
-347.450	-98.296	-0.136	0.035
-346.435	-200.000	-0.019	-0.121
-345.420	-98.318	-0.061	-0.016
-344.406	-200.000	0.012	-0.060
-343.391	-54.255	0.193	0.087
-342.377	-200.000	-0.034	0.239
-341.362	-90.886	0.170	0.049
-340.348	-50.267	-0.415	-0.195
-339.333	-38.298	-0.090	-0.048
-338.318	800.000	0.121	-0.418
-337.304	27.726	0.183	-0.154
-336.289	-200.000	-0.030	0.279
-335.275	39.585	-0.115	0.103
-334.260	800.000	0.051	0.178
-333.245	170.536	-0.061	-0.087
-332.231	59.521	0.025	0.025
-331.216	17.312	-0.219	0.173
-330.202	90.114	0.310	0.345
-329.187	-130.588	0.185	-0.025
-328.172	-200.000	0.005	-0.098
-327.158	800.000	0.089	0.271
-326.143	-83.171	-0.311	0.100
-325.129	141.253	-0.143	-0.189
-324.114	115.315	0.174	0.211
-323.099	60.639	0.175	-0.173
-322.085	-70.595	-0.111	0.042
-321.070	800.000	-0.059	0.191
-320.056	-1.408	-0.095	-0.067
-319.041	194.751	-0.176	0.266
-318.026	-200.000	-0.002	-0.046
-317.012	-51.570	0.065	-0.030
-315.997	-62.775	-0.112	0.046
-314.983	110.614	0.104	-0.125
-313.968	385.466	-0.102	-0.210
-312.953	156.604	0.100	0.138
-311.939	2.451	0.298	0.215
-310.924	28.417	0.225	0.189
-309.910	800.000	-0.127	0.371
-308.895	-89.503	0.115	-0.034
-307.880	-134.562	-0.260	-0.032
-306.866	-200.000	-0.026	-0.148
-305.851	143.358	0.169	0.224
-304.837	562.602	0.057	0.137
-303.822	28.450	-0.133	0.112
-302.807	50.352	0.250	0.235
-301.793	193.201	0.158	0.239
-300.778	74.018	0.049	0.052
-299.764	-199.152	-0.283	-0.002
-298.749	735.793	-0.038	0.100
-297.735	262.859	-0.083	0.143
-296.720	-95.424	0.361	0.096
-295.705	46.454	0.176	0.163
-294.691	328.794	0.083	-0.159
-293.676	89.219	0.227	-0.252
-292.662	-51.449	0.220	0.102
-291.647	-47.301	0.251	0.122
-290.632	44.177	-0.150	0.137
-289.618	156.676	0.063	0.087
-288.603	800.000	-0.142	-0.407
-287.589	-88.443	0.222	0.066
-286.574	40.687	0.099	-0.089
-285.559	800.000	-0.158	-0.507
-284.545	495.546	0.183	-0.419
-283.530	-192.576	-0.131	-0.001
-282.516	41.110	-0.178	0.160
-281.501	-111.390	0.183	0.037
-280.486	-77.934	-0.083	-0.028
-279.472	31.512	0.120	0.102
-278.457	-187.991	-0.195	0.003
-277.443	-200.000	0.028	-0.132
-276.428	-67.053	-0.348	0.136
-275.413	-200.000	-0.020	0.275
-274.399	178.626	-0.164	-0.238
-273.384	676.136	-0.090	-0.234
-272.370	-200.000	-0.013	-0.265
-271.355	-36.843	0.315	-0.168
-270.340	-200.000	0.047	0.329
-269.326	612.501	0.071	-0.178
-268.311	-193.223	-0.286	0.003
-267.297	-86.057	0.418	0.128
-266.282	800.000	0.136	0.453
-265.267	25.142	-0.163	-0.135
-264.253	267.420	0.134	-0.233
-263.238	139.772	0.035	-0.045
-262.224	248.637	-0.069	0.116
-261.209	-41.829	-0.197	-0.100
-260.195	-47.823	-0.158	0.076
-259.180	-161.965	-0.066	-0.003
-258.165	53.998	0.054	0.052
-257.151	26.020	-0.281	0.233
-256.136	26.350	-0.067	-0.056
-255.122	141.293	-0.110	0.145
-254.107	-53.111	0.323	-0.148
-253.092	-200.000	0.054	0.362
-252.078	800.000	0.106	0.294
-251.063	150.872	-0.175	0.237
-250.049	618.808	-0.100	0.250
-249.034	-145.168	0.376	-0.034
-248.019	800.000	-0.102	-0.409
-247.005	-103.644	0.289	-0.067
-245.990	-101.146	-0.225	0.055
-244.976	30.748	-0.309	-0.263
-243.961	800.000	-0.093	-0.273
-242.946	800.000	0.144	-0.402
-241.932	-200.000	0.047	-0.504
-240.917	-200.000	-0.040	0.321
-239.903	800.000	0.030	-0.113
-238.888	800.000	-0.037	0.114
-237.873	-117.550	0.122	0.022
-236.859	-113.363	0.074	0.014
-235.844	-160.421	0.256	0.014
-234.830	-200.000	-0.006	-0.177
-233.815	136.541	0.054	-0.070
-232.800	500.429	-0.057	0.131
-231.786	441.337	-0.157	0.340
-230.771	67.773	0.170	0.173
-229.757	-132.934	0.027	-0.003
-228.742	449.554	0.017	0.037
-227.727	-97.690	0.219	0.056
-226.713	800.000	0.056	0.184
-225.698	-162.581	0.139	0.007
-224.684	221.015	0.083	-0.132
-223.669	-200.000	0.061	0.298
-222.655	-200.000	0.003	0.021
-221.640	-154.543	0.361	0.024
-220.625	108.996	0.185	0.220
-219.611	100.621	0.066	0.076
-218.596	130.035	0.205	0.260
-217.582	-28.797	-0.059	-0.034
-216.567	231.328	-0.205	-0.334
-215.552	-131.352	-0.172	-0.023
-214.538	40.206	0.346	0.309
-213.523	-136.681	-0.062	-0.007
-212.509	800.000	-0.068	0.230
-211.494	-28.237	-0.277	-0.159
-210.479	-200.000	0.056	-0.273
-209.465	655.757	0.211	-0.538
-208.450	-72.409	0.007	-0.003
-207.436	291.682	0.200	0.362
-206.421	-127.695	-0.263	0.038
-205.406	-71.573	-0.284	0.105
-204.392	800.000	-0.040	-0.175
-203.377	579.492	0.025	-0.060
-202.363	260.122	-0.080	0.138
-201.348	173.344	0.056	0.079
-200.333	-103.507	-0.220	-0.051
-199.319	-200.000	-0.039	0.260
-198.304	33.137	0.246	-0.212
-197.290	-62.098	0.091	-0.038
-196.275	-115.435	-0.326	0.061
-195.260	-117.718	0.335	0.060
-194.246	-80.729	-0.286	0.094
-193.231	-200.000	-0.020	0.261
-192.217	291.669	-0.117	-0.212
-191.202	-105.011	0.156	0.035
-190.187	-58.201	-0.101	-0.044
-189.173	725.160	0.175	0.462
-188.158	800.000	-0.065	-0.282
-187.144	-200.000	-0.030	-0.144
-186.129	-69.441	0.108	0.041
-185.114	-200.000	0.032	0.270
-184.100	707.525	0.097	-0.253
-183.085	-122.262	-0.337	0.055
-182.071	42.947	0.104	-0.094
-181.056	800.000	0.101	0.341
-180.042	-24.513	-0.168	-0.099
-179.027	-200.000	-0.023	-0.132
-178.012	-39.644	0.108	0.056
-176.998	-44.315	-0.163	-0.081
-175.983	185.343	0.138	-0.202
-174.969	285.836	-0.226	0.403
-173.954	-82.523	0.196	-0.063
-172.939	208.424	0.081	-0.125
-171.925	800.000	-0.083	-0.257
-170.910	-50.686	-0.283	-0.132
-169.896	102.194	-0.107	0.124
-168.881	776.520	0.046	0.124
-167.866	-200.000	0.007	-0.089
-166.852	-55.382	-0.053	-0.024
-165.837	335.646	0.122	-0.235
-164.823	277.075	-0.181	0.319
-163.808	-154.767	0.202	-0.013
-162.793	-5.408	0.222	0.151
-161.779	-200.000	0.045	0.431
-160.764	-112.325	0.064	0.013
-159.750	39.874	0.183	0.163
-158.735	424.669	0.097	-0.206
-157.720	178.221	-0.099	-0.143
-156.706	358.902	0.116	-0.230
-155.691	-200.000	0.001	0.096
-154.677	180.675	0.315	-0.458
-153.662	-112.044	-0.134	0.027
-152.647	99.627	0.073	0.084
-151.633	-147.824	0.548	-0.045
-150.618	165.405	0.171	-0.239
-149.604	-123.713	0.151	0.024
-148.589	29.968	0.090	-0.076
-147.574	-110.472	-0.263	0.054
-146.560	652.152	-0.094	-0.240
-145.545	-121.042	0.112	0.019
-144.531	269.397	-0.176	0.307
-143.516	-135.553	0.131	-0.015
-142.502	410.106	0.093	-0.196
-141.487	-161.442	-0.328	0.017
-140.472	-86.173	0.059	-0.018
-139.458	288.592	-0.161	0.289
-138.443	77.139	-0.035	-0.037
-137.429	87.610	-0.233	0.255
-136.414	-179.085	-0.262	-0.006
-135.399	800.000	0.098	0.285
-134.385	424.765	-0.124	0.265
-133.370	22.002	-0.322	0.260
-132.356	-21.213	-0.068	-0.041
-131.341	-122.668	-0.097	-0.016
-130.326	15.682	-0.195	0.152
-129.312	34.936	0.257	-0.223
-128.297	490.400	-0.023	0.051
-127.283	-17.282	-0.274	0.170
-126.268	83.444	-0.088	-0.095
-125.253	-125.827	-0.268	-0.040
-124.239	35.978	-0.245	0.213
-123.224	-200.000	0.001	0.066
-122.210	96.069	0.333	-0.376
-121.195	13.741	-0.158	-0.122
-120.180	194.475	-0.174	0.261
-119.166	800.000	0.085	0.253
-118.151	479.459	0.032	-0.072
-117.137	-113.639	-0.333	-0.064
-116.122	59.473	-0.301	0.294
-115.107	242.779	0.197	-0.326
-114.093	79.070	-0.191	-0.202
-113.078	27.230	-0.018	-0.015
-112.064	-200.000	0.004	0.068
-111.049	56.635	-0.172	0.166
-110.034	-18.160	0.277	-0.171
-109.020	181.424	-0.112	-0.163
-108.005	-200.000	0.015	-0.068
-106.991	-200.000	0.080	-0.355
-105.976	208.885	-0.177	0.274
-104.962	-35.984	-0.145	-0.078
-103.947	-52.066	-0.253	0.116
-102.932	-170.606	0.351	0.012
-101.918	-96.476	-0.212	-0.055
-100.903	297.346	0.122	0.221
-99.889	492.481	0.031	0.070
-98.874	188.022	-0.135	0.199
-97.859	-43.367	0.325	-0.162
-96.845	-155.532	-0.151	0.010
-95.830	672.120	-0.071	0.183
-94.816	-79.506	0.100	-0.033
-93.801	-174.009	0.246	-0.007
-92.786	-200.000	-0.045	-0.227
-91.772	-126.815	-0.224	0.033
-90.757	-157.142	0.221	-0.013
-89.743	-58.457	-0.517	0.222
-88.728	-163.173	0.325	0.015
-87.713	35.359	0.056	-0.049
-86.699	-92.583	0.141	-0.039
-85.684	-143.728	-0.375	0.035
-84.670	-116.156	0.421	0.077
-83.655	-200.000	0.020	-0.264
-82.640	-111.672	-0.152	0.030
-81.626	-35.298	-0.190	0.102
-80.611	-132.380	-0.148	-0.019
-79.597	173.331	0.169	0.240
-78.582	-134.395	0.293	0.035
-77.567	178.968	0.070	-0.101
-76.553	717.625	0.055	0.145
-75.538	354.947	-0.087	0.172
-74.524	-128.190	0.227	0.032
-73.509	502.752	0.055	-0.124
-72.494	-133.582	-0.435	0.054
-71.480	359.072	0.135	0.265
-70.465	-200.000	0.012	0.075
-69.451	-30.055	0.104	0.058
-68.436	-103.013	-0.263	-0.062
-67.422	-200.000	0.023	-0.158
-66.407	758.555	0.068	0.181
-65.392	220.568	-0.076	0.120
-64.378	56.396	0.256	0.246
-63.363	-92.915	-0.053	0.015
-62.349	-155.997	0.180	0.011
-61.334	8.607	-0.986	-0.733
-60.319	525.256	0.138	0.321
-59.305	-200.000	-0.063	-0.957
-58.290	544.967	0.420	0.990
-57.276	800.000	0.418	1.417
-56.261	-200.000	96.322	574.519
-55.246	545.851	1385.367	3265.826
-54.232	155.260	2576.130	3495.232
-53.217	112.078	2172.466	2588.543
-52.203	44.559	1711.289	1550.681
-51.188	37.493	1523.808	1332.543
-50.173	35.130	1496.533	1292.713
-49.159	54.145	1547.513	1467.735
-48.144	57.622	1565.588	1508.671
-47.130	37.854	1522.117	1333.329
-46.115	34.628	1506.535	1297.736
-45.100	34.493	1503.435	1294.104
-44.086	34.458	1501.930	1292.513
-43.071	34.367	1500.084	1290.261
-42.057	34.287	1498.513	1288.319
-41.042	34.409	1497.177	1287.943
-40.027	34.397	1495.623	1286.474
-39.013	34.367	1494.133	1284.938
-37.998	34.323	1492.623	1283.290
-36.984	34.462	1492.036	1283.674
-35.969	34.258	1490.066	1280.556
-34.954	34.413	1488.807	1280.461
-33.940	34.375	1487.245	1278.813
-32.925	34.375	1486.202	1277.866
-31.911	34.430	1484.353	1276.597
-30.896	34.432	1483.434	1275.764
-29.881	34.449	1482.212	1274.777
-28.867	34.365	1480.928	1273.062
-27.852	34.383	1479.472	1271.879
-26.838	34.350	1477.971	1270.317
-25.823	34.446	1476.697	1269.813
-24.809	34.438	1474.872	1268.143
-23.794	34.458	1473.265	1266.842
-22.779	34.318	1472.396	1265.112
-21.765	34.371	1471.157	1264.354
-20.750	34.499	1469.954	1264.115
-19.736	34.309	1469.232	1262.189
-18.721	34.398	1468.512	1262.108
-17.706	34.409	1467.285	1261.072
-16.692	34.331	1465.979	1259.387
-15.677	34.432	1464.803	1258.995
-14.663	34.339	1464.039	1257.673
-13.648	34.374	1463.061	1257.012
-12.633	34.391	1462.290	1256.415
-11.619	34.339	1461.778	1255.580
-10.604	34.278	1460.552	1254.079
-9.590	34.374	1459.434	1253.700
-8.575	34.388	1459.160	1253.502
-7.560	34.401	1458.334	1252.830
-6.546	34.388	1457.204	1251.729
-5.531	34.337	1456.672	1250.886
-4.517	34.356	1455.184	1249.683
-3.502	34.310	1454.413	1248.668
-2.487	34.374	1453.037	1247.854
-1.473	34.339	1452.672	1247.265
-0.458	34.363	1451.312	1246.203
0.556	35.102	1441.207	1233.454
1.571	31.706	1415.208	1189.576
2.586	27.733	1354.548	1114.278
3.600	25.667	1273.353	1035.516
4.615	24.187	1226.619	989.212
5.629	20.627	1170.207	924.740
6.644	11.402	1084.563	811.321
7.659	4.154	1043.637	745.855
8.673	3.171	1037.742	736.868
9.688	2.801	1034.664	732.850
10.702	2.760	1032.549	731.095
11.717	2.689	1030.962	729.569
12.731	5.598	1034.710	746.031
13.746	15.176	1047.453	801.157
14.761	23.515	1058.161	849.388
15.775	25.977	1060.805	863.235
16.790	26.407	1060.632	865.078
17.804	26.255	1060.031	863.782
18.819	26.104	1059.127	862.249
19.834	26.292	1058.559	862.608
20.848	26.408	1058.240	862.823
21.863	26.630	1057.661	863.332
22.877	26.436	1057.588	862.272
23.892	26.381	1056.961	861.421
24.907	26.215	1056.081	859.840
25.921	26.216	1055.672	859.434
26.936	26.352	1054.517	859.064
27.950	26.336	1053.581	858.150
28.965	26.305	1052.448	857.006
29.980	26.164	1051.125	855.183
30.994	26.209	1049.696	854.161
32.009	26.393	1049.425	854.731
33.023	26.482	1048.804	854.570
34.038	26.358	1047.394	852.765
35.053	26.288	1046.516	851.644
36.067	26.414	1046.074	851.801
37.082	26.336	1045.122	850.583
38.096	26.480	1044.115	850.364
39.111	26.719	1043.640	851.026
40.126	26.705	1043.151	850.486
41.140	26.558	1041.612	848.468
42.155	26.291	1040.083	845.898
43.169	25.953	1039.346	843.642
44.184	25.972	1038.037	842.596
45.199	26.077	1036.890	842.076
46.213	25.857	1036.534	840.688
47.228	25.931	1035.644	840.238
48.242	26.205	1034.804	840.755
49.257	26.284	1033.741	840.184
50.271	26.359	1033.173	839.998
51.286	26.458	1032.783	840.067
52.301	26.492	1032.107	839.602
53.315	26.565	1031.039	838.994
54.330	26.405	1030.758	837.949
55.344	26.254	1030.274	836.784
56.359	26.317	1029.119	836.064
57.374	26.322	1028.034	835.130
58.388	26.030	1027.382	833.178
59.403	26.169	1026.253	832.833
60.417	26.155	1025.768	832.297
61.432	25.926	1024.713	830.316
62.447	25.978	1023.970	829.880
63.461	26.068	1023.764	830.051
64.476	26.224	1022.711	829.841
65.490	26.088	1022.575	829.033
66.505	25.981	1021.059	827.241
67.520	26.128	1020.126	827.085
68.534	26.041	1020.018	826.524
69.549	25.993	1018.718	825.178
70.563	25.666	1017.651	822.747
71.578	25.458	1017.066	821.248
72.593	25.711	1015.860	821.359
73.607	25.489	1014.717	819.348
74.622	25.528	1013.803	818.717
75.636	25.693	1013.381	819.053
76.651	25.915	1012.807	819.528
77.666	25.904	1011.583	818.416
78.680	25.670	1010.603	816.490
79.695	25.725	1010.607	816.668
80.709	25.677	1010.303	816.131
81.724	26.015	1009.051	816.580
82.739	26.010	1008.043	815.668
83.753	25.848	1007.245	814.219
84.768	26.107	1007.017	815.133
85.782	26.546	1006.202	816.381
86.797	26.640	1005.856	816.455
87.812	26.668	1005.043	815.848
88.826	26.521	1004.061	814.318
89.841	26.476	1003.152	813.303
90.855	26.533	1002.572	813.018
91.870	26.667	1001.245	812.473
92.884	26.569	1000.852	811.641
93.899	26.482	999.626	810.187
94.914	26.476	998.488	809.163
95.928	26.472	998.050	808.721
96.943	26.629	997.187	808.649
97.957	26.212	996.483	806.149
98.972	26.038	995.131	804.209
99.987	25.758	994.134	802.083
101.001	25.974	993.427	802.405
102.016	26.162	993.304	803.070
103.030	26.345	991.985	802.745
104.045	26.290	991.200	801.794
105.060	26.084	990.089	799.910
106.074	25.912	988.656	797.921
107.089	25.978	988.226	797.797
108.103	26.118	988.430	798.507
109.118	26.341	986.847	798.145
110.133	26.072	985.765	796.013
111.147	25.995	984.996	794.981
112.162	25.864	983.904	793.451
113.176	25.739	982.680	791.844
114.191	25.887	981.993	791.871
115.206	25.960	981.240	791.518
116.220	25.723	980.223	789.585
117.235	25.584	979.254	788.127
118.249	25.535	979.195	787.793
119.264	25.683	978.085	787.478
120.279	25.694	976.783	786.410
121.293	25.571	976.397	785.492
122.308	25.675	976.091	785.630
123.322	25.797	974.854	785.099
124.337	25.676	974.021	783.829
125.352	25.714	972.642	782.818
126.366	25.140	971.280	779.156
127.381	24.736	970.066	776.359
128.395	25.335	969.702	778.602
129.410	26.013	969.436	781.254
130.424	26.327	969.036	782.223
131.439	26.299	967.859	781.085
132.454	26.118	967.058	779.587
133.468	26.151	966.223	778.983
134.483	26.213	965.395	778.517
135.497	26.232	964.755	778.011
136.512	26.368	964.098	778.001
137.527	26.529	963.181	777.882
138.541	26.351	962.932	776.848
139.556	26.511	962.227	776.897
140.570	26.412	961.302	775.657
141.585	26.595	960.163	775.453
142.600	26.546	959.559	774.688
143.614	26.455	958.775	773.596
144.629	26.497	958.531	773.511
145.643	26.842	957.484	774.069
146.658	26.719	956.384	772.587
147.673	26.469	955.161	770.466
148.687	26.285	954.509	769.090
149.702	26.362	952.918	768.068
150.716	26.217	952.083	766.711
151.731	26.264	951.433	766.321
152.746	26.260	950.786	765.715
153.760	26.383	950.349	765.815
154.775	26.580	949.408	765.823
155.789	26.768	948.186	765.562
156.804	26.684	947.655	764.711
157.819	26.680	946.412	763.623
158.833	26.593	945.711	762.623
159.848	26.635	945.276	762.385
160.862	26.645	944.617	761.827
161.877	26.738	943.279	761.071
162.892	26.543	942.763	759.767
163.906	26.684	941.960	759.643
164.921	26.731	940.727	758.779
165.935	26.747	939.729	757.974
166.950	26.624	938.948	756.763
167.964	26.671	937.709	755.895
168.979	26.568	937.059	754.874
169.994	26.496	936.153	753.779
171.008	26.372	934.845	752.142
172.023	26.478	934.084	751.905
173.037	26.811	933.715	752.922
174.052	26.578	932.496	750.908
175.067	26.298	931.628	748.981
176.081	26.283	930.833	748.214
177.096	26.550	929.987	748.573
178.110	26.406	929.415	747.450
179.125	26.267	928.365	745.965
180.140	25.986	927.448	744.003
181.154	25.972	926.488	743.111
182.169	26.034	926.356	743.196
183.183	26.400	925.873	744.248
184.198	26.620	925.890	745.101
185.213	26.550	925.051	744.073
186.227	26.411	924.327	742.851
187.242	26.552	924.171	743.241
188.256	26.595	923.462	742.782
189.271	26.608	922.445	741.953
190.286	26.722	921.713	741.764
191.300	26.604	920.877	740.544
192.315	26.091	919.221	737.052
193.329	25.272	917.772	732.484
194.344	24.834	916.597	729.696
195.359	25.372	916.737	731.935
196.373	26.311	917.328	736.169
197.388	26.584	917.457	737.317
198.402	26.577	916.346	736.333
199.417	26.526	915.801	735.621
200.432	26.510	915.297	735.089
201.446	26.542	914.552	734.554
202.461	26.048	914.245	732.238
203.475	26.149	913.673	732.124
204.490	25.722	912.391	729.301
205.504	24.666	909.832	722.923
206.519	24.808	910.026	723.587
207.534	25.909	910.511	728.364
208.548	26.122	909.668	728.484
209.563	26.461	909.538	729.683
210.577	26.389	909.024	728.914
211.592	26.173	908.093	727.234
212.607	26.612	907.914	728.795
213.621	26.758	907.362	728.874
214.636	26.690	906.725	728.025
215.650	26.731	906.484	727.932
216.665	26.618	905.446	726.580
217.680	26.716	905.137	726.658
218.694	26.805	904.724	726.622
219.709	26.514	903.717	724.582
220.723	26.190	902.417	722.182
221.738	26.323	902.333	722.583
222.753	26.518	902.127	723.132
223.767	26.442	900.996	721.860
224.782	26.545	900.581	721.873
225.796	26.717	900.060	722.078
226.811	26.901	899.604	722.379
227.826	26.404	898.427	719.394
228.840	25.612	896.886	714.949
229.855	25.451	896.567	713.991
230.869	25.777	896.235	714.960
231.884	25.552	894.390	712.533
232.899	25.570	894.142	712.344
233.913	26.278	894.811	715.621
234.928	26.377	894.461	715.669
235.942	26.296	893.471	714.491
236.957	26.367	893.086	714.400
237.972	26.042	892.151	712.307
238.986	26.061	891.170	711.537
240.001	26.095	890.724	711.250
241.015	26.153	890.043	710.874
242.030	26.279	889.349	710.752
243.045	26.330	889.397	710.926
244.059	26.302	889.178	710.579
245.074	26.496	888.482	710.724
246.088	26.639	887.600	710.515
247.103	26.115	886.952	707.879
248.117	26.212	886.008	707.445
249.132	26.881	885.999	709.994
250.147	27.044	885.986	710.557
251.161	27.182	885.372	710.541
252.176	27.301	885.268	710.858
253.190	27.351	884.683	710.522
254.205	27.422	883.948	710.147
255.220	27.543	883.467	710.168
256.234	27.613	882.834	709.870
257.249	27.502	882.470	709.082
258.263	27.265	881.511	707.328
259.278	27.305	881.120	707.104
260.293	27.436	880.565	707.106
261.307	27.480	880.067	706.815
262.322	27.343	879.260	705.574
263.336	27.342	878.626	704.996
264.351	26.755	877.272	701.578
265.366	25.679	875.423	695.878
266.380	25.291	874.392	693.498
267.395	26.165	874.849	697.176
268.409	26.977	874.727	700.152
269.424	26.813	874.239	699.066
270.439	27.050	873.980	699.713
271.453	27.207	873.448	699.825
272.468	27.115	872.764	698.864
273.482	27.354	872.321	699.364
274.497	27.429	871.664	699.064
275.512	27.222	871.267	697.890
276.526	26.703	869.503	694.429
277.541	26.857	869.366	694.846
278.555	27.386	869.247	696.714
279.570	26.992	868.730	694.730
280.585	26.938	867.586	693.550
281.599	26.971	867.203	693.309
282.614	27.078	866.958	693.457
283.628	26.680	865.478	690.698
284.643	26.392	864.636	688.867
285.657	26.869	864.643	690.629
286.672	26.554	864.198	689.011
287.687	26.209	863.211	686.852
288.701	26.470	862.907	687.540
289.716	26.800	863.032	688.834
290.730	26.488	861.878	686.668
291.745	26.436	860.950	685.671
292.760	26.356	859.610	684.241
293.774	26.088	859.604	683.162
294.789	27.033	860.508	687.398
295.803	27.657	860.087	689.359
296.818	27.582	860.163	689.078
297.833	27.719	859.505	689.006
298.847	27.503	858.317	687.179
299.862	27.187	857.289	685.102
300.876	27.480	856.576	685.577
301.891	27.639	856.723	686.233
302.906	27.696	856.259	686.016
303.920	27.413	855.067	683.937
304.935	27.231	854.669	682.875
305.949	27.490	854.474	683.630
306.964	27.719	853.823	683.906
307.979	27.489	853.224	682.505
308.993	27.381	852.648	681.579
310.008	27.719	852.178	682.409
311.022	27.957	851.754	682.896
312.037	27.657	851.316	681.365
313.052	27.512	850.624	680.211
314.066	27.339	849.665	678.737
315.081	26.649	848.210	674.943
316.095	25.944	847.096	671.376
317.110	26.454	847.345	673.413
318.125	27.312	847.584	676.733
319.139	26.957	846.438	674.442
320.154	25.860	844.708	668.933
321.168	25.405	843.667	666.362
322.183	25.979	844.149	668.812
323.197	26.916	844.500	672.507
324.212	27.233	844.178	673.365
325.227	27.319	843.995	673.476
326.241	27.499	843.881	673.992
327.256	27.416	842.795	672.760
328.270	27.220	842.326	671.600
329.285	27.223	841.877	671.195
330.300	27.126	840.735	669.866
331.314	26.779	840.066	667.997
332.329	26.895	839.526	667.936
333.343	27.453	839.189	669.661
334.358	27.652	838.792	670.016
335.373	27.620	838.433	669.551
336.387	27.658	837.964	669.258
337.402	27.835	837.779	669.702
338.416	28.135	837.375	670.420
339.431	28.086	836.632	669.587
340.446	28.044	836.027	668.889
341.460	28.245	835.724	669.322
342.475	28.238	835.195	668.814
343.489	27.992	834.775	667.519
344.504	27.963	833.529	666.357
345.519	28.334	833.391	667.540
346.533	28.456	833.407	667.940
347.548	28.558	832.723	667.705
348.562	28.537	832.201	667.148
349.577	28.561	831.738	666.807
350.592	28.349	831.159	665.511
351.606	28.234	830.822	664.765
352.621	28.347	830.109	664.545
353.635	28.276	829.727	663.924
354.650	28.232	829.114	663.215
355.665	27.848	827.843	660.751
356.679	26.751	826.426	655.597
357.694	26.684	826.159	655.085
358.708	27.324	826.235	657.400
359.723	27.343	825.188	656.579
360.738	27.527	825.048	657.071
361.752	27.992	825.226	658.833
362.767	28.172	824.892	659.157
363.781	28.197	824.747	659.072
364.796	28.447	824.823	659.976
365.810	28.610	824.403	660.165
366.825	28.853	823.660	660.385
367.840	28.669	823.604	659.620
368.854	28.623	822.773	658.733
369.869	28.262	821.693	656.517
370.883	28.010	821.269	655.216
371.898	28.091	820.439	654.785
372.913	28.081	819.915	654.274
373.927	28.178	819.208	653.999
374.942	28.203	818.962	653.832
375.956	28.246	818.171	653.298
376.971	28.489	817.659	653.695
377.986	28.389	817.310	653.002
379.000	28.805	816.628	653.882
380.015	28.698	816.569	653.396
381.029	28.556	815.597	652.057
382.044	28.511	814.927	651.301
383.059	28.652	814.567	651.458
384.073	28.695	813.905	651.022
385.088	28.738	813.400	650.713
386.102	28.668	812.821	649.945
387.117	28.500	812.107	648.724
388.132	28.229	812.057	647.667
389.146	28.206	810.919	646.621
390.161	27.824	809.749	644.281
391.175	27.822	809.726	644.199
392.190	28.310	810.130	646.187
393.205	28.347	809.275	645.576
394.219	27.341	807.847	640.841
395.234	25.696	805.325	633.005
396.248	25.098	803.718	629.585
397.263	25.851	805.121	633.275
398.278	27.844	806.513	641.324
399.292	28.160	806.429	642.308
400.307	27.931	805.829	640.972
401.321	27.894	805.161	640.255
402.336	27.960	805.002	640.300
403.350	28.244	804.830	641.103
404.365	28.656	805.132	642.730
405.380	28.961	804.651	643.357
406.394	29.175	804.711	644.096
407.409	29.501	803.882	644.513
408.423	29.346	803.175	643.350
409.438	29.207	803.155	642.791
410.453	29.231	802.564	642.345
411.467	29.519	801.878	642.741
412.482	29.361	801.392	641.745
413.496	29.307	800.998	641.184
414.511	29.517	800.661	641.589
415.526	29.430	800.699	641.260
416.540	29.482	799.865	640.714
417.555	29.369	799.561	640.023
418.569	28.940	798.938	637.980
419.584	29.106	797.973	637.728
420.599	29.228	797.574	637.777
421.613	109.292	1283.764	1447.264
422.628	94.130	1354.608	1447.357
