DTS Sentinel unit serial number:	SN413079Multiplexer serial number:	ORYXHardware model number:	OX4-SRSoftware version number:	ORYX F/W v4.00 Oryx Data Collector v3.7.2.0data status	okinstallation	princeton_trtdifferential loss correction	single-endedforward channel	channel 3reverse channel	N/Adate	2019/09/12time	20:32:35forward acquisition time	60.00reverse acquisition time	0.00gamma	496.2192k internal	0.2324k external	0.2324temperature offset calibration	1.0124default loss term (dB/km)	0.3790temperature slope calibration	1.0000multiplexer offset coefficient	1.0000multiplexer slope coefficient	1.0000fibre end	0.00T internal ref (°C)	31.25T ext. ref 1 (°C)	3.58T ext. ref 2 (°C)	25.77length (m)	temperature (°C)	Stokes	anti-Stokes-747.200	-35.480	-0.093	-0.051
-746.185	641.077	0.201	0.516
-745.171	-200.000	0.034	0.192
-744.156	233.898	-0.049	0.082
-743.142	65.903	-0.189	-0.193
-742.127	800.000	-0.123	0.478
-741.112	800.000	0.158	0.454
-740.098	-200.000	0.009	0.058
-739.083	-133.903	0.339	-0.043
-738.069	-97.359	0.433	0.114
-737.054	-109.346	0.174	-0.037
-736.039	81.388	-0.293	-0.320
-735.025	508.815	-0.072	0.169
-734.010	-114.954	0.094	0.018
-732.996	-71.048	-0.349	-0.133
-731.981	536.279	0.154	0.369
-730.966	-21.102	0.070	-0.043
-729.952	-44.246	0.070	-0.035
-728.937	550.206	-0.115	-0.278
-727.923	213.549	-0.112	-0.178
-726.908	-75.929	0.419	-0.150
-725.894	-42.485	0.064	0.033
-724.879	-200.000	-0.074	-0.518
-723.864	507.643	0.050	0.118
-722.850	34.907	0.062	0.055
-721.835	192.959	-0.124	0.189
-720.821	-51.963	-0.269	0.126
-719.806	37.630	-0.135	-0.121
-718.791	-151.891	0.152	-0.011
-717.777	-80.043	-0.341	-0.115
-716.762	586.529	0.058	0.143
-715.748	105.821	0.167	-0.200
-714.733	-156.833	-0.302	0.019
-713.718	-82.260	0.085	0.028
-712.704	-62.404	-0.190	-0.080
-711.689	-200.000	-0.026	0.198
-710.675	-108.011	-0.071	0.015
-709.660	-133.321	-0.185	0.023
-708.645	-200.000	0.040	-0.400
-707.631	193.837	-0.131	-0.200
-706.616	800.000	-0.054	-0.201
-705.602	240.399	0.060	0.101
-704.587	-200.000	0.002	0.388
-703.572	-87.651	-0.187	-0.057
-702.558	-49.577	-0.311	-0.149
-701.543	74.835	0.089	-0.095
-700.529	-200.000	-0.034	-0.186
-699.514	800.000	0.064	-0.205
-698.499	-112.302	-0.138	0.028
-697.485	-78.914	-0.305	-0.105
-696.470	32.674	0.124	0.108
-695.456	-54.106	-0.182	0.084
-694.441	800.000	0.019	0.059
-693.426	-19.366	-0.130	0.081
-692.412	-200.000	0.049	0.296
-691.397	71.278	0.132	0.137
-690.383	717.164	-0.097	0.260
-689.368	-147.371	0.096	0.008
-688.354	-152.594	-0.281	0.020
-687.339	-45.785	-0.172	-0.086
-686.324	-109.986	0.254	-0.053
-685.310	305.657	-0.100	0.187
-684.295	800.000	0.060	-0.215
-683.281	117.320	0.133	0.164
-682.266	-104.748	-0.155	0.036
-681.251	-65.182	-0.274	0.111
-680.237	800.000	-0.023	-0.095
-679.222	146.435	0.037	-0.050
-678.208	-200.000	0.021	0.132
-677.193	-45.185	-0.324	-0.162
-676.178	178.699	-0.119	-0.176
-675.164	-200.000	0.035	-0.197
-674.149	-48.312	0.086	0.042
-673.135	-5.376	-0.139	0.096
-672.120	39.148	-0.172	0.155
-671.105	12.697	-0.077	0.060
-670.091	800.000	-0.135	0.387
-669.076	-170.285	-0.269	0.010
-668.062	-116.168	-0.554	0.104
-667.047	19.405	-0.035	-0.028
-666.032	-13.281	-0.179	0.117
-665.018	-200.000	-0.008	0.091
-664.003	-63.343	-0.371	-0.154
-662.989	-105.475	0.132	-0.030
-661.974	800.000	-0.058	-0.187
-660.959	-111.613	0.054	0.011
-659.945	-65.976	-0.377	0.152
-658.930	101.986	0.070	-0.083
-657.916	-165.553	-0.133	0.006
-656.901	95.497	0.110	0.126
-655.886	-91.768	-0.290	0.083
-654.872	471.409	0.069	-0.156
-653.857	-55.961	0.477	0.214
-652.843	-119.581	-0.168	-0.029
-651.828	-24.636	0.291	-0.174
-650.814	-200.000	0.035	-0.285
-649.799	238.995	-0.153	-0.256
-648.784	-146.835	0.321	-0.028
-647.770	-24.309	-0.033	0.020
-646.755	73.149	-0.044	0.046
-645.741	-200.000	-0.005	0.028
-644.726	-67.894	-0.280	0.110
-643.711	800.000	0.093	-0.319
-642.697	29.243	-0.083	-0.071
-641.682	169.847	-0.018	-0.026
-640.668	-200.000	-0.043	0.299
-639.653	-188.466	-0.287	0.004
-638.638	-52.832	0.074	-0.034
-637.624	87.746	-0.219	-0.244
-636.609	76.416	0.068	0.073
-635.595	-200.000	0.061	-0.291
-634.580	15.140	0.158	-0.125
-633.565	-137.786	-0.426	-0.048
-632.551	-200.000	-0.029	-0.140
-631.536	-43.498	-0.217	0.110
-630.522	47.068	-0.198	0.185
-629.507	800.000	-0.027	0.110
-628.492	-90.304	-0.108	0.031
-627.478	-101.572	0.120	-0.029
-626.463	205.958	-0.077	-0.121
-625.449	28.084	0.229	0.194
-624.434	-59.548	0.228	0.098
-623.419	-29.775	0.236	-0.135
-622.405	645.905	0.025	-0.064
-621.390	103.761	-0.158	0.186
-620.376	-13.215	-0.085	-0.056
-619.361	-32.593	-0.167	0.093
-618.346	800.000	0.018	0.066
-617.332	800.000	0.082	-0.340
-616.317	165.581	0.091	-0.129
-615.303	-111.026	-0.405	-0.083
-614.288	-64.446	-0.186	0.076
-613.273	-109.222	-0.107	0.023
-612.259	227.941	-0.166	0.272
-611.244	-151.122	0.300	-0.023
-610.230	434.449	-0.093	-0.204
-609.215	-31.898	0.140	-0.079
-608.201	-200.000	-0.027	-0.198
-607.186	24.441	-0.208	-0.173
-606.171	145.489	-0.021	0.028
-605.157	405.726	-0.104	-0.219
-604.142	-72.703	0.379	-0.140
-603.128	226.185	0.085	0.138
-602.113	33.601	0.164	-0.144
-601.098	-17.439	0.215	-0.136
-600.084	-68.109	0.261	0.102
-599.069	27.601	-0.051	-0.043
-598.055	238.140	-0.037	0.061
-597.040	-125.925	0.450	0.068
-596.025	-108.155	-0.353	-0.077
-595.011	-200.000	0.032	-0.175
-593.996	-8.455	0.219	-0.148
-592.982	-200.000	0.004	0.028
-591.967	28.188	-0.222	-0.188
-590.952	82.716	-0.141	-0.154
-589.938	4.568	0.082	-0.061
-588.923	83.760	0.141	0.154
-587.909	-54.224	-0.222	-0.101
-586.894	145.893	0.074	0.100
-585.879	-200.000	0.002	0.230
-584.865	-200.000	-0.034	-0.161
-583.850	324.760	0.069	-0.131
-582.836	11.608	-0.226	-0.174
-581.821	800.000	-0.021	0.064
-580.806	302.760	-0.177	-0.328
-579.792	342.895	0.043	-0.084
-578.777	-84.397	0.197	0.062
-577.763	-200.000	0.013	-0.140
-576.748	337.768	0.124	-0.242
-575.733	11.564	-0.133	0.103
-574.719	-69.371	-0.127	0.049
-573.704	126.952	0.178	0.226
-572.690	-40.424	0.172	-0.090
-571.675	-44.463	0.318	-0.159
-570.661	-200.000	-0.059	-0.299
-569.646	-200.000	-0.015	0.092
-568.631	-110.509	0.234	0.049
-567.617	-84.087	-0.200	-0.064
-566.602	-114.143	-0.361	0.070
-565.588	75.697	-0.027	-0.029
-564.573	-135.539	0.274	0.033
-563.558	8.456	-0.358	0.270
-562.544	99.076	0.105	0.122
-561.529	-175.364	0.193	-0.005
-560.515	-200.000	0.051	0.276
-559.500	8.252	-0.273	-0.206
-558.485	445.592	0.161	-0.354
-557.471	116.202	0.026	0.032
-556.456	-69.203	-0.190	-0.073
-555.442	-200.000	-0.018	-0.154
-554.427	-158.367	-0.350	0.020
-553.412	800.000	-0.079	0.270
-552.398	-28.159	-0.196	-0.114
-551.383	800.000	-0.086	0.284
-550.369	-14.949	-0.096	0.062
-549.354	156.509	0.107	-0.148
-548.339	800.000	0.060	-0.229
-547.325	146.242	-0.135	0.182
-546.310	-124.714	0.138	0.021
-545.296	-3.243	0.112	0.078
-544.281	-116.429	-0.185	0.034
-543.266	434.750	-0.069	-0.149
-542.252	-200.000	0.033	0.410
-541.237	148.851	0.074	-0.100
-540.223	57.694	-0.246	0.241
-539.208	372.987	0.235	0.478
-538.193	537.226	0.042	-0.100
-537.179	619.000	-0.088	-0.221
-536.164	-145.896	-0.178	-0.016
-535.150	315.798	0.102	-0.193
-534.135	-136.498	-0.095	0.011
-533.121	800.000	0.068	0.266
-532.106	-200.000	0.017	-0.102
-531.091	25.711	0.274	-0.229
-530.077	800.000	-0.043	-0.122
-529.062	214.624	0.093	-0.147
-528.048	800.000	-0.046	-0.134
-527.033	800.000	-0.048	-0.155
-526.018	108.742	0.056	-0.067
-525.004	800.000	0.085	-0.253
-523.989	-200.000	0.009	0.074
-522.975	-200.000	-0.008	0.095
-521.960	-32.402	0.219	0.122
-520.945	-60.001	0.139	0.059
-519.931	-140.539	-0.054	-0.006
-518.916	40.571	0.056	0.050
-517.902	27.257	0.084	0.070
-516.887	122.670	-0.265	-0.332
-515.872	269.517	-0.142	-0.249
-514.858	105.980	-0.048	-0.057
-513.843	-41.428	0.108	-0.056
-512.829	-200.000	0.027	0.200
-511.814	-200.000	-0.008	0.064
-510.799	-56.545	-0.178	0.079
-509.785	-160.068	-0.360	0.020
-508.770	800.000	-0.091	-0.336
-507.756	800.000	-0.031	0.094
-506.741	-11.742	0.300	-0.197
-505.726	-142.491	-0.141	-0.014
-504.712	294.908	0.070	0.129
-503.697	-200.000	-0.032	-0.219
-502.683	800.000	-0.107	-0.328
-501.668	-69.439	0.024	-0.009
-500.653	-120.858	0.066	-0.011
-499.639	-177.028	-0.270	-0.007
-498.624	-114.861	-0.108	0.020
-497.610	34.260	0.164	-0.143
-496.595	800.000	0.054	0.179
-495.581	174.844	0.170	-0.246
-494.566	-34.593	-0.260	0.142
-493.551	438.854	0.013	0.027
-492.537	-200.000	0.046	0.300
-491.522	800.000	0.012	0.036
-490.508	-35.471	0.111	0.060
-489.493	800.000	-0.097	0.271
-488.478	-200.000	-0.046	-0.482
-487.464	336.876	-0.133	-0.258
-486.449	-178.315	0.373	-0.009
-485.435	287.743	-0.190	0.344
-484.420	800.000	-0.206	0.592
-483.405	241.429	0.101	0.169
-482.391	294.608	-0.037	-0.067
-481.376	-152.287	-0.128	0.009
-480.362	218.850	-0.063	0.101
-479.347	160.879	-0.157	0.219
-478.332	-200.000	-0.000	0.197
-477.318	-122.213	-0.259	-0.042
-476.303	-178.282	0.096	0.002
-475.289	27.960	0.204	-0.172
-474.274	-15.425	0.416	0.265
-473.259	64.777	-0.163	0.164
-472.245	-114.390	-0.269	-0.052
-471.230	-200.000	0.005	-0.487
-470.216	-142.390	0.325	-0.032
-469.201	-8.240	-0.121	-0.082
-468.186	800.000	-0.064	0.180
-467.172	236.562	-0.049	-0.082
-466.157	23.464	-0.213	-0.175
-465.143	800.000	-0.063	-0.232
-464.128	107.794	-0.102	-0.121
-463.113	25.838	0.120	0.100
-462.099	-167.722	0.196	0.008
-461.084	399.653	-0.169	0.353
-460.070	355.076	-0.042	-0.083
-459.055	800.000	-0.032	-0.088
-458.040	-76.301	0.017	-0.006
-457.026	-7.494	-0.199	-0.135
-456.011	-200.000	-0.013	-0.175
-454.997	281.268	-0.014	0.026
-453.982	130.958	0.162	0.207
-452.968	-28.102	-0.273	-0.158
-451.953	185.834	-0.059	-0.088
-450.938	-200.000	0.080	0.402
-449.924	-146.697	-0.152	-0.013
-448.909	-200.000	0.021	0.200
-447.895	-31.835	0.121	-0.067
-446.880	-152.700	-0.287	0.020
-445.865	-61.119	0.300	-0.126
-444.851	-22.576	-0.153	-0.092
-443.836	521.285	-0.102	0.240
-442.822	-77.703	-0.040	-0.014
-441.807	-17.112	-0.237	0.149
-440.792	-147.032	-0.246	-0.021
-439.778	-200.000	0.026	-0.130
-438.763	51.081	-0.107	-0.101
-437.749	800.000	0.077	-0.227
-436.734	-76.679	0.219	0.077
-435.719	175.162	0.264	0.381
-434.705	-92.934	0.128	-0.036
-433.690	800.000	0.027	0.090
-432.676	800.000	-0.098	0.345
-431.661	-39.479	-0.356	-0.186
-430.646	-42.579	-0.130	-0.066
-429.632	-87.223	0.094	0.028
-428.617	-200.000	-0.103	-0.508
-427.603	323.145	-0.144	-0.274
-426.588	601.649	-0.113	0.280
-425.573	66.708	-0.135	0.137
-424.559	-76.828	0.489	-0.171
-423.544	-105.064	0.181	-0.041
-422.530	519.871	-0.049	0.116
-421.515	-78.626	0.269	-0.092
-420.500	-45.462	-0.377	-0.187
-419.486	-43.053	-0.254	-0.128
-418.471	800.000	0.096	0.353
-417.457	221.406	-0.082	-0.131
-416.442	89.867	0.191	0.213
-415.428	51.384	-0.170	-0.161
-414.413	-98.046	0.335	0.086
-413.398	-13.257	0.075	0.048
-412.384	260.252	-0.151	0.260
-411.369	-56.056	-0.279	-0.124
-410.355	-101.324	0.145	-0.035
-409.340	272.645	0.111	-0.195
-408.325	-14.228	0.154	-0.099
-407.311	-81.293	-0.068	0.022
-406.296	108.949	-0.033	-0.040
-405.282	178.982	0.072	0.105
-404.267	-200.000	-0.074	0.330
-403.252	-43.343	0.149	-0.075
-402.238	348.997	-0.117	0.230
-401.223	4.555	0.084	-0.061
-400.209	-159.544	-0.264	-0.015
-399.194	13.374	-0.174	0.135
-398.179	-58.632	0.348	-0.150
-397.165	-200.000	-0.015	-0.182
-396.150	316.713	0.060	-0.114
-395.136	517.596	-0.085	-0.198
-394.121	-0.892	0.108	-0.076
-393.106	377.854	0.155	-0.316
-392.092	554.758	0.085	-0.203
-391.077	800.000	0.042	0.140
-390.063	-200.000	-0.031	0.147
-389.048	-164.603	0.203	-0.009
-388.033	225.090	0.057	0.091
-387.019	345.108	-0.114	0.224
-386.004	-57.764	0.223	0.097
-384.990	-110.472	0.169	-0.035
-383.975	-200.000	-0.026	-0.154
-382.960	-24.913	-0.386	-0.228
-381.946	2.324	-0.186	-0.134
-380.931	199.829	-0.023	0.035
-379.917	-70.195	-0.057	0.021
-378.902	-165.425	-0.319	-0.014
-377.888	-63.093	-0.130	0.054
-376.873	-123.680	-0.258	0.041
-375.858	-16.656	0.249	0.157
-374.844	114.290	-0.136	0.165
-373.829	2.145	-0.098	0.071
-372.815	-56.508	-0.157	0.069
-371.800	-200.000	-0.016	0.151
-370.785	-200.000	0.023	-0.136
-369.771	381.433	-0.105	0.215
-368.756	345.753	0.028	-0.054
-367.742	-182.125	0.331	-0.006
-366.727	-103.834	-0.205	0.048
-365.712	-82.473	-0.370	0.119
-364.698	40.557	-0.116	-0.104
-363.683	21.837	-0.215	0.175
-362.669	-65.201	-0.178	0.072
-361.654	-200.000	0.022	0.211
-360.639	736.493	0.114	0.305
-359.625	-79.186	0.164	-0.055
-358.610	-126.360	-0.479	-0.071
-357.596	-83.958	-0.216	-0.068
-356.581	800.000	-0.028	-0.107
-355.566	-24.325	-0.248	0.147
-354.552	-57.534	-0.332	0.145
-353.537	-129.794	0.340	0.046
-352.523	-54.990	0.369	-0.165
-351.508	800.000	0.026	0.080
-350.493	-200.000	-0.023	-0.188
-349.479	-200.000	0.040	-0.199
-348.464	-200.000	-0.009	-0.190
-347.450	-29.632	0.236	-0.134
-346.435	-123.129	0.211	0.034
-345.420	-121.070	0.374	-0.062
-344.406	170.292	-0.080	-0.114
-343.391	42.671	0.201	-0.182
-342.377	-173.430	-0.267	0.008
-341.362	206.386	0.123	-0.190
-340.348	-153.486	0.329	-0.023
-339.333	-36.192	0.222	-0.119
-338.318	4.578	0.185	-0.135
-337.304	-145.349	-0.400	-0.036
-336.289	75.258	-0.273	0.286
-335.275	-200.000	-0.051	-0.278
-334.260	211.267	0.101	0.159
-333.245	-200.000	0.013	-0.084
-332.231	-132.229	0.258	0.033
-331.216	201.793	-0.218	-0.334
-330.202	-60.827	-0.156	0.066
-329.187	800.000	-0.064	0.184
-328.172	800.000	0.024	0.094
-327.158	-101.369	0.136	-0.033
-326.143	256.379	0.048	-0.082
-325.129	-79.238	0.296	0.100
-324.114	-72.814	0.232	-0.085
-323.099	-17.828	0.167	-0.104
-322.085	800.000	-0.080	0.228
-321.070	-200.000	0.020	0.123
-320.056	800.000	-0.084	-0.237
-319.041	159.854	-0.190	-0.263
-318.026	800.000	-0.025	-0.092
-317.012	-156.527	-0.106	0.007
-315.997	284.909	-0.089	-0.159
-314.983	-21.460	0.245	0.148
-313.968	-9.504	0.189	0.125
-312.953	145.572	0.179	-0.238
-311.939	-104.866	-0.284	-0.065
-310.924	-67.111	-0.216	-0.085
-309.910	-106.874	0.353	0.078
-308.895	-111.391	-0.212	-0.043
-307.880	-36.663	-0.511	0.272
-306.866	371.112	-0.064	-0.129
-305.851	-116.040	-0.101	-0.019
-304.837	0.454	-0.286	-0.203
-303.822	74.629	0.173	0.180
-302.807	105.553	0.300	0.352
-301.793	-200.000	0.031	-0.236
-300.778	800.000	0.041	-0.120
-299.764	68.031	0.030	0.031
-298.749	-200.000	0.006	0.168
-297.735	1.077	0.199	-0.141
-296.720	387.886	0.133	-0.274
-295.705	65.624	0.150	-0.151
-294.691	-200.000	0.051	0.314
-293.676	142.452	0.142	0.187
-292.662	-94.056	0.375	0.102
-291.647	800.000	-0.044	0.161
-290.632	-23.172	0.177	0.106
-289.618	149.539	-0.131	-0.176
-288.603	64.826	0.131	0.131
-287.589	141.074	-0.200	0.262
-286.574	77.686	0.184	0.195
-285.559	253.256	-0.068	0.115
-284.545	-0.187	0.298	0.210
-283.530	-200.000	0.009	0.049
-282.516	-31.947	-0.182	-0.101
-281.501	375.282	-0.035	-0.071
-280.486	41.502	-0.172	0.155
-279.472	243.278	-0.186	0.309
-278.457	-181.990	-0.176	0.003
-277.443	-51.056	-0.194	-0.090
-276.428	220.702	0.077	0.122
-275.413	-63.265	0.089	-0.036
-274.399	800.000	0.069	-0.256
-273.384	-115.610	-0.150	0.028
-272.370	-61.942	0.178	0.074
-271.355	284.650	0.211	-0.377
-270.340	179.317	-0.133	0.192
-269.326	503.563	-0.206	0.471
-268.311	470.350	-0.167	0.372
-267.297	800.000	-0.032	0.092
-266.282	-44.847	-0.138	-0.068
-265.267	-76.345	0.135	-0.047
-264.253	-111.312	-0.154	0.031
-263.238	-182.412	0.406	0.007
-262.224	414.283	0.093	0.196
-261.209	-129.165	-0.257	-0.036
-260.195	68.428	0.252	-0.256
-259.180	800.000	0.111	-0.348
-258.165	48.488	0.284	0.264
-257.151	800.000	0.018	0.062
-256.136	186.105	-0.044	0.065
-255.122	45.811	0.317	0.290
-254.107	-132.003	-0.166	0.021
-253.092	-200.000	-0.037	0.167
-252.078	-32.336	0.124	-0.068
-251.063	45.106	-0.208	0.190
-250.049	800.000	-0.017	0.055
-249.034	-128.695	-0.189	-0.026
-248.019	-118.090	-0.252	-0.045
-247.005	-95.575	-0.152	0.040
-245.990	27.742	-0.190	0.159
-244.976	21.463	-0.125	0.100
-243.961	92.912	0.230	0.258
-242.946	231.126	0.024	0.039
-241.932	-200.000	-0.055	-0.248
-240.917	37.455	-0.197	-0.173
-239.903	69.054	-0.190	-0.193
-238.888	47.075	-0.105	0.096
-237.873	-128.909	0.107	0.015
-236.859	-96.398	0.190	-0.050
-235.844	800.000	0.078	-0.307
-234.830	-108.376	0.415	-0.089
-233.815	-200.000	-0.028	-0.338
-232.800	-149.156	0.222	-0.018
-231.786	-200.000	0.012	0.443
-230.771	-115.379	0.207	-0.039
-229.757	276.441	0.092	0.162
-228.742	-71.509	0.081	-0.030
-227.727	109.835	-0.150	0.178
-226.713	-63.918	0.444	0.180
-225.698	-106.843	0.127	0.028
-224.684	-60.242	0.110	0.046
-223.669	-24.029	0.037	0.022
-222.655	-200.000	0.017	0.088
-221.640	366.921	-0.110	0.219
-220.625	-200.000	-0.066	-0.331
-219.611	-40.172	-0.236	0.122
-218.596	800.000	0.050	-0.145
-217.582	85.535	0.198	-0.215
-216.567	-103.682	-0.236	-0.055
-215.552	514.806	-0.017	0.040
-214.538	113.193	0.071	-0.085
-213.523	-74.212	-0.192	0.069
-212.509	-81.210	-0.069	0.022
-211.494	-127.727	0.497	-0.071
-210.479	-75.774	0.116	0.041
-209.465	-91.863	-0.093	0.026
-208.450	-90.451	-0.051	-0.015
-207.436	184.131	-0.017	-0.024
-206.421	-139.956	0.372	-0.039
-205.406	-126.782	0.193	-0.028
-204.392	81.609	-0.097	0.103
-203.377	381.850	0.216	0.439
-202.363	358.564	0.176	-0.347
-201.348	-80.072	-0.300	-0.099
-200.333	-11.678	-0.233	-0.151
-199.319	129.869	0.093	-0.117
-198.304	-174.747	-0.473	0.013
-197.290	42.828	0.280	0.252
-196.275	800.000	-0.129	-0.405
-195.260	234.553	0.106	0.173
-194.246	-200.000	0.003	0.105
-193.231	332.185	0.100	0.191
-192.217	-14.396	0.211	0.135
-191.202	-20.172	-0.104	0.063
-190.187	-154.336	-0.223	-0.015
-189.173	22.424	0.203	0.164
-188.158	-116.398	-0.206	0.038
-187.144	-189.277	0.136	-0.002
-186.129	78.129	0.190	0.200
-185.114	-30.955	0.157	0.087
-184.100	125.198	0.147	0.183
-183.085	571.484	-0.096	-0.231
-182.071	357.592	0.060	0.118
-181.056	38.823	-0.162	0.143
-180.042	68.261	0.207	0.209
-179.027	-146.973	0.292	-0.025
-178.012	-200.000	-0.021	-0.258
-176.998	16.979	0.106	-0.083
-175.983	24.558	-0.040	0.033
-174.969	800.000	-0.095	0.291
-173.954	-74.390	0.141	0.050
-172.939	70.672	0.177	0.181
-171.925	159.866	0.125	0.172
-170.910	67.055	0.154	-0.155
-169.896	-9.463	0.161	-0.106
-168.881	-170.017	-0.242	0.008
-167.866	-142.574	0.208	-0.020
-166.852	99.100	-0.078	0.089
-165.837	566.600	0.110	0.263
-164.823	-107.754	0.225	0.049
-163.808	800.000	-0.054	0.178
-162.793	91.175	-0.189	-0.209
-161.779	19.664	0.099	0.078
-160.764	41.027	0.126	0.112
-159.750	-35.271	0.223	0.120
-158.735	-43.947	-0.233	-0.116
-157.720	-200.000	0.000	0.153
-156.706	41.313	0.349	-0.312
-155.691	-55.866	-0.351	-0.154
-154.677	257.006	0.058	0.098
-153.662	68.897	-0.115	0.116
-152.647	87.758	0.240	-0.262
-151.633	563.033	0.029	0.069
-150.618	-107.110	-0.122	-0.027
-149.604	120.262	0.108	0.132
-148.589	355.921	0.093	0.182
-147.574	-134.151	0.110	0.013
-146.560	23.960	-0.116	0.095
-145.545	-200.000	-0.041	0.252
-144.531	-57.971	0.237	0.102
-143.516	72.147	-0.216	-0.221
-142.502	151.916	-0.083	0.112
-141.487	185.811	0.165	0.242
-140.472	-200.000	-0.016	0.156
-139.458	728.447	-0.078	0.205
-138.443	-200.000	-0.003	-0.438
-137.429	677.186	0.098	0.251
-136.414	-137.649	0.238	0.026
-135.399	-67.373	-0.191	0.074
-134.385	-200.000	0.027	0.146
-133.370	-200.000	0.062	-0.314
-132.356	104.252	-0.042	0.049
-131.341	319.172	-0.113	-0.211
-130.326	69.314	0.061	0.062
-129.312	441.741	-0.029	0.062
-128.297	-72.245	0.231	0.084
-127.283	-200.000	-0.035	-0.187
-126.268	-117.128	-0.502	0.090
-125.253	-9.794	0.054	0.036
-124.239	92.641	0.132	0.147
-123.224	55.297	0.042	-0.040
-122.210	-82.680	0.232	-0.074
-121.195	-103.908	0.127	0.029
-120.180	-200.000	0.003	-0.273
-119.166	-12.577	-0.159	0.102
-118.151	800.000	-0.019	-0.077
-117.137	-22.494	0.109	-0.065
-116.122	-200.000	-0.077	-0.372
-115.107	-56.086	0.181	-0.079
-114.093	800.000	-0.041	0.154
-113.078	-46.003	-0.229	-0.111
-112.064	-55.572	-0.052	0.023
-111.049	144.521	-0.194	-0.255
-110.034	123.233	0.228	0.281
-109.020	732.722	-0.059	-0.155
-108.005	97.188	0.244	0.276
-106.991	2.249	-0.161	-0.115
-105.976	497.596	0.084	0.190
-104.962	52.152	-0.029	-0.027
-103.947	-200.000	0.006	-0.153
-102.932	800.000	-0.102	0.282
-101.918	-200.000	0.032	0.147
-100.903	-119.126	-0.202	-0.035
-99.889	800.000	-0.058	-0.245
-98.874	342.998	0.034	-0.065
-97.859	-167.485	0.208	0.008
-96.845	-52.160	-0.186	0.085
-95.830	800.000	-0.142	0.416
-94.816	-129.396	-0.327	0.045
-93.801	34.833	0.128	0.110
-92.786	-153.247	-0.209	-0.014
-91.772	800.000	0.012	0.041
-90.757	-8.529	0.327	0.216
-89.743	28.353	0.157	-0.130
-88.728	-89.473	0.048	0.014
-87.713	94.136	0.085	0.095
-86.699	2.357	-0.192	-0.137
-85.684	179.003	0.047	0.068
-84.670	27.045	-0.231	0.191
-83.655	-73.132	-0.163	0.059
-82.640	-43.338	-0.157	-0.078
-81.626	-49.024	0.253	-0.119
-80.611	78.798	0.107	-0.112
-79.597	83.617	-0.176	-0.189
-78.582	-75.680	0.498	0.174
-77.567	52.563	-0.117	-0.110
-76.553	-111.532	-0.203	0.041
-75.538	21.407	-0.315	-0.252
-74.524	-200.000	0.008	-0.274
-73.509	126.262	0.302	-0.376
-72.494	800.000	0.062	0.177
-71.480	521.363	-0.133	0.306
-70.465	134.145	0.131	0.167
-69.451	214.272	-0.187	0.291
-68.436	800.000	-0.034	-0.139
-67.422	-200.000	0.007	0.191
-66.407	-129.764	-0.291	0.039
-65.392	-68.605	0.170	-0.065
-64.378	32.695	0.121	-0.103
-63.363	140.800	-0.117	0.152
-62.349	-200.000	-0.003	0.094
-61.334	232.777	-0.866	-1.398
-60.319	-8.311	0.482	0.319
-59.305	468.640	-0.347	-0.766
-58.290	238.124	0.629	1.027
-57.276	409.041	0.675	1.404
-56.261	-200.000	100.711	603.397
-55.246	593.767	1399.840	3400.713
-54.232	195.276	2574.112	3842.622
-53.217	116.838	2148.720	2591.973
-52.203	41.850	1688.869	1504.807
-51.188	34.389	1501.371	1287.528
-50.173	31.988	1474.695	1248.649
-49.159	52.496	1526.577	1431.913
-48.144	53.757	1544.360	1457.079
-47.130	34.580	1502.916	1289.940
-46.115	31.488	1487.920	1256.288
-45.100	31.442	1483.980	1252.603
-44.086	31.334	1482.333	1250.443
-43.071	31.288	1480.480	1248.526
-42.057	31.218	1478.753	1246.548
-41.042	31.212	1477.490	1245.394
-40.027	31.134	1476.430	1243.935
-39.013	31.176	1474.576	1242.604
-37.998	31.136	1473.170	1241.100
-36.984	31.263	1471.661	1240.626
-35.969	31.249	1470.552	1239.546
-34.954	31.222	1469.343	1238.297
-33.940	31.193	1467.878	1236.824
-32.925	31.210	1466.552	1235.772
-31.911	31.260	1465.209	1234.920
-30.896	31.370	1463.945	1234.531
-29.881	31.342	1462.885	1233.405
-28.867	31.355	1461.228	1232.043
-27.852	31.312	1460.332	1230.953
-26.838	31.344	1458.931	1229.940
-25.823	31.371	1456.692	1228.180
-24.809	31.301	1455.661	1226.800
-23.794	31.346	1453.959	1225.614
-22.779	31.300	1453.121	1224.559
-21.765	31.329	1452.311	1224.013
-20.750	31.243	1451.206	1222.473
-19.736	31.178	1450.068	1221.037
-18.721	31.277	1448.450	1220.275
-17.706	31.219	1447.724	1219.237
-16.692	31.353	1446.119	1218.713
-15.677	31.218	1445.512	1217.271
-14.663	31.259	1444.154	1216.346
-13.648	31.300	1443.684	1216.166
-12.633	31.203	1442.711	1214.667
-11.619	31.234	1441.867	1214.111
-10.604	31.238	1441.159	1213.496
-9.590	31.070	1440.416	1211.731
-8.575	31.174	1439.162	1211.299
-7.560	31.230	1438.068	1210.693
-6.546	31.251	1437.536	1210.334
-5.531	31.220	1436.684	1209.366
-4.517	31.272	1435.367	1208.548
-3.502	31.197	1434.702	1207.453
-2.487	31.283	1433.831	1207.229
-1.473	31.252	1432.786	1206.106
-0.458	31.189	1431.412	1204.492
0.556	32.725	1421.570	1193.017
1.571	29.669	1396.196	1152.589
2.586	26.075	1338.211	1083.099
3.600	24.265	1258.023	1007.881
4.615	22.679	1212.723	962.851
5.629	19.513	1156.874	901.916
6.644	11.203	1073.754	796.574
7.659	4.645	1034.140	736.156
8.673	3.756	1028.567	727.936
9.688	3.602	1024.724	724.430
10.702	3.361	1023.590	722.434
11.717	3.613	1021.351	721.970
12.731	6.497	1024.443	737.605
13.746	15.029	1036.376	786.378
14.761	22.226	1045.770	827.431
15.775	24.173	1047.561	837.944
16.790	23.960	1046.308	835.864
17.804	23.360	1044.809	831.779
18.819	23.040	1043.214	828.937
19.834	22.842	1042.521	827.386
20.848	22.776	1042.131	826.690
21.863	22.892	1042.022	827.076
22.877	22.728	1041.535	825.847
23.892	22.692	1040.721	824.962
24.907	22.512	1039.897	823.393
25.921	22.530	1039.107	822.780
26.936	22.455	1037.786	821.311
27.950	22.459	1036.538	820.272
28.965	22.340	1035.520	818.839
29.980	22.332	1034.404	817.843
30.994	22.490	1033.559	817.840
32.009	22.670	1032.779	817.986
33.023	22.747	1031.891	817.567
34.038	22.597	1031.692	816.639
35.053	22.652	1030.456	815.845
36.067	22.596	1029.765	814.967
37.082	22.352	1028.851	813.043
38.096	22.225	1028.103	811.794
39.111	22.496	1027.646	812.614
40.126	22.503	1027.019	812.077
41.140	22.482	1025.589	810.779
42.155	22.234	1023.727	808.094
43.169	21.796	1023.408	805.759
44.184	21.657	1022.201	804.098
45.199	21.749	1020.820	803.363
46.213	21.775	1019.768	802.584
47.228	21.823	1019.359	802.411
48.242	22.287	1018.947	804.135
49.257	22.603	1018.599	805.233
50.271	22.513	1017.844	804.154
51.286	22.460	1016.822	803.034
52.301	22.779	1016.343	804.038
53.315	22.895	1015.307	803.676
54.330	22.643	1014.878	802.121
55.344	22.301	1014.242	799.992
56.359	22.350	1012.873	799.063
57.374	22.169	1012.126	797.581
58.388	22.195	1011.324	796.998
59.403	21.982	1010.816	795.561
60.417	22.002	1009.662	794.671
61.432	21.899	1009.171	793.750
62.447	21.930	1008.219	793.073
63.461	21.709	1008.202	791.989
64.476	21.778	1006.811	791.139
65.490	21.716	1005.956	790.117
66.505	21.726	1004.936	789.288
67.520	21.724	1004.633	788.973
68.534	21.849	1003.710	788.739
69.549	21.734	1002.853	787.478
70.563	21.642	1001.719	786.108
71.578	21.432	1000.972	784.509
72.593	21.282	999.917	782.941
73.607	20.945	999.037	780.674
74.622	21.072	997.917	780.298
75.636	21.309	997.047	780.609
76.651	21.307	996.410	780.030
77.666	21.220	995.948	779.212
78.680	21.480	994.982	779.547
79.695	21.290	994.755	778.451
80.709	21.402	994.195	778.442
81.724	21.619	993.152	778.524
82.739	21.706	992.629	778.430
83.753	21.795	991.564	777.922
84.768	22.298	991.554	780.077
85.782	22.662	991.436	781.528
86.797	23.084	990.677	782.731
87.812	23.181	989.822	782.413
88.826	22.887	988.790	780.228
89.841	22.656	988.471	778.887
90.855	22.916	987.141	778.918
91.870	23.028	986.644	778.950
92.884	23.011	986.330	778.558
93.899	22.950	985.190	777.322
94.914	22.841	984.060	775.882
95.928	22.860	983.561	775.503
96.943	22.790	983.174	774.822
97.957	22.648	982.328	773.464
98.972	22.596	980.580	771.792
99.987	22.619	980.374	771.661
101.001	22.731	979.950	771.749
102.016	22.768	978.593	770.778
103.030	22.610	977.644	769.272
104.045	22.569	977.080	768.581
105.060	22.721	976.246	768.520
106.074	22.650	975.296	767.391
107.089	22.465	974.029	765.525
108.103	22.182	973.298	763.651
109.118	22.146	971.970	762.386
110.133	21.820	970.795	759.983
111.147	21.545	969.956	758.068
112.162	21.510	968.884	757.015
113.176	21.512	968.291	756.490
114.191	21.776	967.347	756.827
115.206	21.979	966.624	757.072
116.220	21.963	965.691	756.203
117.235	21.628	965.519	754.559
118.249	21.572	964.570	753.509
119.264	21.674	962.988	752.647
120.279	21.517	962.145	751.244
121.293	21.418	961.394	750.168
122.308	21.271	960.924	749.104
123.322	21.181	959.929	747.880
124.337	21.093	958.937	746.663
125.352	21.081	957.793	745.656
126.366	21.192	956.382	744.963
127.381	21.179	955.678	744.293
128.395	21.320	954.912	744.233
129.410	21.550	954.110	744.518
130.424	21.397	953.731	743.509
131.439	21.594	952.727	743.496
132.454	21.808	952.122	743.867
133.468	22.014	951.025	743.815
134.483	21.852	951.123	743.139
135.497	21.883	950.451	742.680
136.512	21.870	949.835	742.077
137.527	21.923	949.155	741.707
138.541	22.002	948.145	741.182
139.556	21.999	947.539	740.633
140.570	22.001	946.775	739.977
141.585	22.199	946.021	740.155
142.600	22.452	945.809	740.989
143.614	22.694	944.901	741.230
144.629	22.740	944.649	741.158
145.643	23.047	943.615	741.573
146.658	22.887	943.305	740.593
147.673	22.408	941.855	737.383
148.687	22.267	940.757	735.867
149.702	22.121	939.245	734.011
150.716	22.063	938.189	732.877
151.731	21.844	937.651	731.477
152.746	22.053	936.595	731.459
153.760	22.085	936.171	731.196
154.775	22.312	935.481	731.538
155.789	22.449	934.585	731.340
156.804	22.426	933.708	730.494
157.819	22.364	933.176	729.759
158.833	22.374	932.714	729.374
159.848	22.612	931.712	729.510
160.862	22.648	931.421	729.369
161.877	22.749	930.347	728.876
162.892	22.386	929.076	726.321
163.906	21.956	928.254	723.839
164.921	21.936	927.004	722.721
165.935	21.939	925.678	721.635
166.950	21.900	925.113	720.969
167.964	22.227	924.277	721.597
168.979	22.169	923.575	720.748
169.994	22.131	921.971	719.277
171.008	21.979	921.075	717.891
172.023	22.140	920.832	718.296
173.037	22.504	920.382	719.370
174.052	22.684	919.725	719.528
175.067	22.680	919.006	718.885
176.081	22.189	917.783	715.863
177.096	21.784	916.460	713.124
178.110	21.585	915.815	711.746
179.125	21.725	915.108	711.706
180.140	21.792	913.936	711.001
181.154	21.897	913.797	711.256
182.169	22.169	913.234	711.855
183.183	22.497	913.120	713.034
184.198	22.540	912.870	712.950
185.213	22.468	911.995	711.911
186.227	22.421	911.524	711.292
187.242	22.484	910.635	710.788
188.256	22.667	910.382	711.265
189.271	22.631	909.643	710.479
190.286	22.841	909.107	710.845
191.300	22.531	907.931	708.616
192.315	21.881	906.913	705.147
193.329	21.579	905.680	702.913
194.344	21.549	905.040	702.233
195.359	21.869	904.461	703.007
196.373	22.159	904.282	703.967
197.388	22.216	904.045	703.949
198.402	22.382	903.716	704.294
199.417	22.726	903.714	705.604
200.432	22.988	903.588	706.492
201.446	23.059	903.195	706.407
202.461	23.252	902.689	706.716
203.475	23.227	902.251	706.213
204.490	23.141	901.384	705.129
205.504	22.633	900.161	702.088
206.519	22.459	899.074	700.486
207.534	22.419	898.530	699.839
208.548	22.512	897.658	699.468
209.563	22.452	897.395	698.963
210.577	22.525	896.591	698.566
211.592	22.369	896.155	697.545
212.607	22.863	895.514	698.939
213.621	22.992	895.390	699.293
214.636	22.987	894.532	698.539
215.650	22.810	894.004	697.368
216.665	22.758	893.674	696.842
217.680	22.785	893.064	696.413
218.694	22.877	892.782	696.494
219.709	22.983	892.041	696.273
220.723	22.852	891.291	695.109
221.738	22.784	890.341	694.039
222.753	22.737	889.514	693.148
223.767	22.548	888.879	691.850
224.782	22.682	888.514	692.031
225.796	22.840	888.195	692.341
226.811	23.176	887.171	692.795
227.826	22.957	886.402	691.278
228.840	22.612	885.586	689.234
229.855	22.362	885.146	687.853
230.869	22.458	884.251	687.469
231.884	22.506	883.474	686.994
232.899	22.439	883.083	686.368
233.913	22.344	882.490	685.474
234.928	22.254	881.653	684.415
235.942	22.176	880.569	683.211
236.957	21.972	880.078	681.974
237.972	21.874	879.732	681.266
238.986	21.934	879.079	680.934
240.001	21.940	878.651	680.564
241.015	21.841	877.748	679.420
242.030	22.011	877.283	679.659
243.045	22.303	876.723	680.293
244.059	22.298	876.652	680.159
245.074	22.318	876.085	679.737
246.088	22.402	875.507	679.552
247.103	22.680	874.984	680.158
248.117	22.768	874.600	680.141
249.132	23.048	874.421	681.018
250.147	23.433	874.533	682.529
251.161	23.833	874.252	683.786
252.176	24.023	873.290	683.707
253.190	23.983	872.912	683.196
254.205	23.876	872.694	682.553
255.220	24.151	872.187	683.149
256.234	23.936	871.210	681.503
257.249	23.884	870.052	680.337
258.263	23.717	870.075	679.654
259.278	23.735	869.239	679.012
260.293	23.613	869.133	678.400
261.307	23.780	868.309	678.336
262.322	23.909	868.011	678.536
263.336	23.896	867.720	678.199
264.351	23.985	866.614	677.615
265.366	23.822	865.662	676.189
266.380	23.761	865.001	675.379
267.395	23.844	864.541	675.278
268.409	23.842	864.006	674.791
269.424	23.640	863.788	673.794
270.439	23.604	863.283	673.205
271.453	23.650	861.953	672.280
272.468	23.310	861.097	670.267
273.482	23.394	860.284	669.895
274.497	23.451	860.151	669.947
275.512	23.306	859.291	668.669
276.526	23.351	858.360	668.057
277.541	23.482	857.883	668.120
278.555	23.547	857.664	668.134
279.570	23.764	856.988	668.367
280.585	23.826	857.347	668.821
281.599	23.998	856.739	668.932
282.614	23.713	855.906	667.154
283.628	23.464	854.650	665.181
284.643	23.344	854.022	664.184
285.657	23.354	853.737	663.939
286.672	23.267	853.266	663.188
287.687	23.358	852.747	663.066
288.701	23.456	852.180	662.936
289.716	23.635	851.699	663.170
290.730	23.666	850.905	662.609
291.745	23.552	850.653	661.931
292.760	23.539	849.726	661.103
293.774	23.594	849.402	660.997
294.789	23.831	849.329	661.763
295.803	24.032	848.811	662.048
296.818	23.821	847.882	660.479
297.833	23.682	846.992	659.215
298.847	23.668	845.960	658.298
299.862	23.474	845.569	657.219
300.876	23.674	845.223	657.634
301.891	23.722	845.105	657.658
302.906	24.086	844.656	658.599
303.920	24.190	843.934	658.362
304.935	24.258	843.786	658.438
305.949	24.504	843.202	658.833
306.964	24.345	842.787	657.864
307.979	24.026	841.692	655.777
308.993	23.795	840.941	654.283
310.008	23.926	841.012	654.762
311.022	24.023	840.257	654.474
312.037	24.167	839.533	654.380
313.052	23.699	839.460	652.546
314.066	23.745	837.642	651.243
315.081	23.365	836.755	649.106
316.095	23.302	836.204	648.390
317.110	23.229	836.446	648.253
318.125	23.487	835.413	648.337
319.139	23.436	834.801	647.620
320.154	23.110	834.420	646.074
321.168	23.010	833.678	645.079
322.183	23.127	833.547	645.346
323.197	23.448	833.077	646.099
324.212	23.608	832.441	646.130
325.227	23.545	832.043	645.533
326.241	23.363	831.268	644.213
327.256	23.248	830.857	643.422
328.270	23.283	830.165	642.955
329.285	23.304	829.745	642.650
330.300	23.255	828.887	641.750
331.314	23.089	828.249	640.598
332.329	23.285	827.369	640.571
333.343	23.485	827.499	641.336
334.358	23.699	827.209	641.829
335.373	23.913	826.675	642.129
336.387	23.721	826.255	641.055
337.402	24.022	825.439	641.450
338.416	23.951	825.481	641.169
339.431	24.146	825.339	641.706
340.446	24.436	824.940	642.382
341.460	24.505	824.286	642.066
342.475	24.678	823.396	641.937
343.489	24.647	823.114	641.548
344.504	24.718	822.923	641.596
345.519	24.874	822.370	641.667
346.533	25.101	822.244	642.327
347.548	24.972	821.395	641.144
348.562	24.694	820.539	639.425
349.577	24.311	819.906	637.506
350.592	24.039	819.365	636.057
351.606	24.008	818.586	635.288
352.621	23.814	818.289	634.307
353.635	23.860	817.482	633.790
354.650	24.054	817.133	634.154
355.665	23.967	816.572	633.354
356.679	23.761	816.342	632.384
357.694	24.091	816.086	633.305
358.708	24.181	815.501	633.116
359.723	24.122	814.547	632.108
360.738	24.054	813.703	631.155
361.752	24.146	813.397	631.187
362.767	24.199	813.273	631.225
363.781	24.360	813.461	631.884
364.796	24.571	813.427	632.551
365.810	24.951	812.292	632.955
366.825	24.920	812.199	632.716
367.840	25.010	812.147	632.938
368.854	24.876	811.291	631.744
369.869	24.811	810.743	631.030
370.883	24.652	810.021	629.854
371.898	24.375	809.662	628.542
372.913	24.644	809.028	628.943
373.927	24.963	808.387	629.508
374.942	24.777	807.382	628.018
375.956	24.623	807.304	627.360
376.971	24.682	806.903	627.199
377.986	24.887	806.586	627.618
379.000	25.043	806.070	627.705
380.015	25.155	805.287	627.432
381.029	24.987	804.789	626.401
382.044	24.874	804.419	625.665
383.059	24.881	803.966	625.279
384.073	25.199	803.164	625.711
385.088	25.142	802.361	624.833
386.102	24.637	801.858	622.626
387.117	24.397	800.956	621.037
388.132	24.310	800.232	620.114
389.146	24.305	799.908	619.791
390.161	24.263	799.500	619.276
391.175	24.640	799.256	620.341
392.190	25.088	799.145	621.754
393.205	24.857	798.470	620.375
394.219	24.332	797.886	618.045
395.234	24.363	796.456	616.990
396.248	23.861	796.583	615.299
397.263	24.090	796.113	615.672
398.278	24.189	795.572	615.540
399.292	24.130	794.879	614.746
400.307	23.813	794.657	613.429
401.321	23.898	793.562	612.821
402.336	23.910	793.627	612.858
403.350	24.133	793.289	613.310
404.365	24.471	793.231	614.374
405.380	24.844	792.942	615.379
406.394	25.032	793.228	616.194
407.409	25.311	792.693	616.681
408.423	25.324	792.375	616.425
409.438	25.365	791.757	616.029
410.453	25.443	791.492	616.036
411.467	25.592	790.793	615.948
412.482	25.433	790.028	614.755
413.496	25.325	789.865	614.203
414.511	25.557	789.811	614.899
415.526	25.529	789.572	614.563
416.540	25.271	789.017	613.198
417.555	25.375	788.316	612.953
418.569	25.228	787.798	611.994
419.584	25.236	787.296	611.576
420.599	25.358	786.773	611.534
421.613	162.298	1369.821	1795.691
422.628	140.505	1454.780	1795.779
