DTS Sentinel unit serial number:	SN413079Multiplexer serial number:	ORYXHardware model number:	OX4-SRSoftware version number:	ORYX F/W v4.00 Oryx Data Collector v3.7.2.0data status	okinstallation	princeton_trtdifferential loss correction	single-endedforward channel	channel 3reverse channel	N/Adate	2019/09/19time	14:40:35forward acquisition time	60.00reverse acquisition time	0.00gamma	496.2192k internal	0.2319k external	0.2319temperature offset calibration	1.0005default loss term (dB/km)	0.3790temperature slope calibration	1.0000multiplexer offset coefficient	1.0000multiplexer slope coefficient	1.0000fibre end	0.00T internal ref (°C)	32.52T ext. ref 1 (°C)	1.09T ext. ref 2 (°C)	29.52length (m)	temperature (°C)	Stokes	anti-Stokes-747.200	-141.982	0.373	0.038
-746.185	127.764	-0.100	0.129
-745.171	-13.901	-0.222	0.145
-744.156	303.737	-0.149	0.279
-743.142	570.494	0.054	-0.132
-742.127	-200.000	-0.066	0.316
-741.112	-200.000	0.029	-0.275
-740.098	299.852	-0.207	0.385
-739.083	-143.378	0.341	0.033
-738.069	-55.859	-0.201	-0.091
-737.054	-65.705	0.076	-0.031
-736.039	49.464	-0.285	0.272
-735.025	187.120	0.178	-0.268
-734.010	-200.000	-0.022	0.135
-732.996	-76.042	-0.306	0.109
-731.981	-76.752	-0.163	-0.058
-730.966	119.664	-0.145	0.181
-729.952	-200.000	-0.010	0.251
-728.937	800.000	-0.045	-0.141
-727.923	151.000	0.101	-0.139
-726.908	119.508	-0.077	0.096
-725.894	-144.030	0.107	-0.010
-724.879	52.741	0.182	-0.176
-723.864	800.000	0.081	-0.332
-722.850	9.553	-0.301	0.231
-721.835	-56.428	0.254	-0.114
-720.821	-55.061	-0.104	0.047
-719.806	376.213	0.192	-0.396
-718.791	644.462	0.066	-0.171
-717.777	-104.761	0.298	-0.069
-716.762	208.799	-0.135	0.214
-715.748	5.066	0.147	-0.110
-714.733	18.920	-0.172	0.139
-713.718	-135.515	-0.027	-0.003
-712.704	129.967	0.152	-0.196
-711.689	-46.856	-0.248	-0.122
-710.675	-107.157	0.112	-0.025
-709.660	195.503	-0.118	0.180
-708.645	800.000	0.106	-0.370
-707.631	-54.728	-0.197	0.090
-706.616	-200.000	-0.008	-0.647
-705.602	-27.982	-0.058	-0.034
-704.587	-126.182	-0.236	0.036
-703.572	-80.810	0.111	-0.037
-702.558	605.557	-0.134	-0.338
-701.543	-33.084	-0.123	-0.069
-700.529	267.739	-0.263	-0.465
-699.514	230.900	0.108	-0.179
-698.499	-52.032	-0.160	0.075
-697.485	45.464	0.230	-0.215
-696.470	-200.000	0.042	-0.241
-695.456	-200.000	-0.030	-0.175
-694.441	-116.599	0.369	-0.069
-693.426	189.450	-0.106	0.161
-692.412	-5.364	0.244	0.169
-691.397	-200.000	-0.010	-0.118
-690.383	-128.766	-0.082	-0.012
-689.368	135.397	-0.236	-0.310
-688.354	-200.000	-0.017	0.122
-687.339	-101.557	-0.282	-0.069
-686.324	13.228	0.197	0.154
-685.310	800.000	0.057	0.207
-684.295	800.000	-0.120	-0.394
-683.281	-84.182	0.235	0.075
-682.266	-38.775	-0.332	0.177
-681.251	-181.070	0.090	-0.002
-680.237	-108.554	0.288	0.062
-679.222	-200.000	0.110	-0.505
-678.208	-53.978	0.021	-0.010
-677.193	800.000	-0.078	-0.289
-676.178	800.000	-0.086	-0.370
-675.164	-200.000	-0.001	0.200
-674.149	-40.246	-0.287	-0.150
-673.135	148.563	-0.130	0.178
-672.120	-111.151	0.184	0.038
-671.105	264.912	-0.237	-0.416
-670.091	138.720	0.134	-0.177
-669.076	716.563	-0.069	-0.185
-668.062	162.828	-0.049	-0.070
-667.047	-32.446	-0.161	0.091
-666.032	-200.000	-0.051	-0.298
-665.018	71.244	-0.014	-0.014
-664.003	800.000	0.023	0.091
-662.989	-200.000	0.072	0.377
-661.974	35.832	-0.267	0.236
-660.959	-6.981	0.391	-0.268
-659.945	339.711	-0.045	0.088
-658.930	-87.087	-0.204	0.063
-657.916	-62.923	-0.255	-0.106
-656.901	29.822	-0.205	0.176
-655.886	-191.073	-0.219	0.002
-654.872	240.373	-0.110	-0.185
-653.857	-200.000	-0.030	-0.275
-652.843	314.946	-0.130	0.246
-651.828	100.165	0.155	0.181
-650.814	-200.000	-0.005	0.178
-649.799	309.483	-0.090	-0.170
-648.784	-27.279	-0.086	-0.050
-647.770	70.100	0.131	0.136
-646.755	430.933	-0.095	0.207
-645.741	-200.000	-0.018	0.092
-644.726	63.321	-0.263	0.266
-643.711	142.250	0.150	0.200
-642.697	40.964	-0.121	0.110
-641.682	-141.635	0.184	0.019
-640.668	800.000	-0.081	-0.249
-639.653	-148.928	-0.129	-0.010
-638.638	-94.033	0.319	-0.088
-637.624	-200.000	-0.054	-0.263
-636.609	-161.998	0.226	-0.011
-635.595	349.767	0.216	-0.429
-634.580	800.000	0.094	-0.265
-633.565	-200.000	-0.001	-0.030
-632.551	-98.521	0.277	-0.071
-631.536	354.273	0.090	0.180
-630.522	-200.000	-0.034	0.159
-629.507	118.445	-0.158	0.197
-628.492	205.052	0.104	0.163
-627.478	800.000	0.083	-0.262
-626.463	-143.416	0.123	0.012
-625.449	-72.015	0.012	-0.005
-624.434	-5.516	0.099	-0.068
-623.419	-138.315	-0.109	-0.012
-622.405	800.000	0.059	0.215
-621.390	46.432	0.104	0.097
-620.376	-37.962	-0.063	0.034
-619.361	-200.000	0.078	-0.458
-618.346	-50.060	-0.277	-0.132
-617.332	-200.000	0.075	0.372
-616.317	427.406	-0.059	0.129
-615.303	-132.471	0.396	0.051
-614.288	-170.472	0.303	0.011
-613.273	61.389	-0.210	0.210
-612.259	-45.540	-0.225	-0.112
-611.244	-76.789	-0.191	-0.067
-610.230	26.446	0.134	-0.113
-609.215	-135.933	-0.131	-0.016
-608.201	269.730	0.264	-0.466
-607.186	19.887	-0.141	0.114
-606.171	-63.256	-0.282	0.117
-605.157	-145.795	-0.162	0.014
-604.142	30.955	0.132	0.114
-603.128	201.197	0.263	-0.407
-602.113	800.000	-0.002	0.007
-601.098	-64.660	-0.128	-0.052
-600.084	-18.783	-0.185	-0.116
-599.069	-133.246	-0.210	0.027
-598.055	-43.133	0.118	-0.060
-597.040	66.469	0.274	0.280
-596.025	25.216	-0.372	-0.311
-595.011	113.960	0.180	-0.220
-593.996	143.973	0.163	-0.219
-592.982	-55.493	-0.154	-0.070
-591.967	748.624	-0.128	0.347
-590.952	-112.962	-0.067	-0.013
-589.938	800.000	-0.073	-0.236
-588.923	-20.600	-0.188	-0.116
-587.909	17.387	-0.231	-0.184
-586.894	206.206	-0.040	0.063
-585.879	38.340	-0.064	-0.057
-584.865	800.000	-0.045	-0.141
-583.850	346.147	0.139	0.275
-582.836	-58.460	-0.162	-0.071
-581.821	-200.000	-0.170	0.000
-580.806	-30.339	-0.377	0.215
-579.792	-68.819	0.094	-0.037
-578.777	126.925	0.069	0.087
-577.763	640.140	-0.031	-0.081
-576.748	-25.595	-0.257	0.153
-575.733	-164.192	-0.119	-0.006
-574.719	-82.595	0.115	0.038
-573.704	-200.000	-0.036	-0.199
-572.690	-200.000	0.040	-0.325
-571.675	-63.027	-0.098	0.041
-570.661	-46.661	0.263	0.129
-569.646	99.007	-0.117	-0.136
-568.631	617.222	0.042	-0.107
-567.617	-89.212	0.367	-0.109
-566.602	38.655	0.159	0.142
-565.588	-38.816	0.056	0.030
-564.573	800.000	0.079	0.241
-563.558	800.000	0.087	0.267
-562.544	-200.000	0.112	0.559
-561.529	566.394	0.045	-0.109
-560.515	28.704	-0.169	-0.143
-559.500	288.290	-0.189	0.343
-558.485	199.271	-0.234	0.360
-557.471	-146.521	-0.362	0.032
-556.456	800.000	0.056	0.171
-555.442	800.000	0.208	-0.590
-554.427	-5.343	0.197	0.136
-553.412	540.162	0.146	-0.349
-552.398	-85.875	-0.227	-0.071
-551.383	103.010	-0.199	0.235
-550.369	765.627	0.130	-0.356
-549.354	-172.252	0.181	-0.006
-548.339	347.079	0.090	0.178
-547.325	60.773	0.208	0.207
-546.310	354.867	-0.039	-0.077
-545.296	-85.529	0.196	0.061
-544.281	-200.000	0.055	0.327
-543.266	-7.204	0.172	0.117
-542.252	56.291	0.103	-0.101
-541.237	800.000	-0.022	0.093
-540.223	505.808	0.020	0.047
-539.208	-200.000	0.101	0.737
-538.193	696.010	0.013	-0.034
-537.179	180.882	0.071	0.105
-536.164	-9.491	0.237	-0.158
-535.150	176.519	0.120	0.175
-534.135	321.202	-0.095	-0.182
-533.121	-10.599	-0.128	-0.085
-532.106	-92.485	-0.193	-0.054
-531.091	5.598	-0.274	0.203
-530.077	-155.678	0.269	0.017
-529.062	255.724	-0.071	-0.122
-528.048	175.216	-0.191	-0.278
-527.033	-21.531	-0.035	0.021
-526.018	-154.194	0.181	-0.012
-525.004	-6.068	0.069	-0.048
-523.989	429.525	0.027	0.059
-522.975	81.114	-0.093	0.100
-521.960	-200.000	-0.007	0.046
-520.945	174.822	0.067	-0.098
-519.931	-200.000	-0.012	0.404
-518.916	-57.738	0.246	0.108
-517.902	-200.000	-0.010	-0.283
-516.887	26.630	-0.112	-0.094
-515.872	-12.855	-0.261	-0.171
-514.858	-75.555	-0.154	0.055
-513.843	800.000	0.116	0.332
-512.829	85.738	0.203	0.223
-511.814	-119.082	0.099	-0.017
-510.799	-45.547	-0.181	-0.090
-509.785	-52.740	-0.146	-0.068
-508.770	-111.298	0.076	-0.016
-507.756	-200.000	-0.007	-0.044
-506.741	-2.450	0.153	-0.108
-505.726	624.088	-0.067	-0.169
-504.712	235.036	-0.147	0.243
-503.697	-200.000	-0.004	-0.297
-502.683	800.000	-0.075	-0.212
-501.668	449.211	-0.115	0.255
-500.653	301.593	-0.005	0.010
-499.639	18.656	-0.276	0.221
-498.624	15.155	-0.166	-0.130
-497.610	160.554	-0.119	-0.167
-496.595	-58.964	0.400	-0.173
-495.581	-40.734	0.066	0.034
-494.566	-71.594	-0.295	0.110
-493.551	441.839	0.145	-0.319
-492.537	-200.000	0.040	0.262
-491.522	80.319	-0.319	-0.344
-490.508	-173.814	-0.104	0.003
-489.493	-79.574	0.082	-0.028
-488.478	562.411	-0.117	-0.284
-487.464	-200.000	0.010	-0.104
-486.449	-50.962	0.077	0.036
-485.435	-200.000	-0.026	-0.185
-484.420	-145.981	0.083	0.007
-483.405	-110.279	0.545	0.114
-482.391	375.981	0.107	-0.219
-481.376	-200.000	-0.002	0.017
-480.362	800.000	-0.038	-0.154
-479.347	-200.000	-0.006	-0.251
-478.332	-109.055	-0.237	0.050
-477.318	800.000	0.117	0.343
-476.303	91.881	0.039	-0.044
-475.289	165.483	0.177	-0.251
-474.274	25.175	0.210	0.175
-473.259	140.236	0.141	0.186
-472.245	-21.418	-0.094	0.057
-471.230	-73.178	0.237	-0.087
-470.216	71.679	-0.180	0.187
-469.201	-200.000	-0.013	-0.083
-468.186	-29.036	0.210	0.121
-467.172	-125.726	0.241	-0.036
-466.157	-200.000	-0.067	0.461
-465.143	167.633	0.307	0.436
-464.128	-26.622	-0.121	0.071
-463.113	667.338	-0.062	0.160
-462.099	800.000	0.018	-0.076
-461.084	71.030	0.148	-0.153
-460.070	-200.000	-0.044	0.309
-459.055	159.865	0.146	-0.204
-458.040	524.335	0.051	-0.120
-457.026	-28.763	0.245	-0.141
-456.011	272.549	0.105	0.185
-454.997	-170.981	-0.242	-0.008
-453.982	-200.000	0.002	-0.268
-452.968	-200.000	0.016	-0.129
-451.953	-9.160	-0.144	-0.096
-450.938	800.000	0.067	-0.248
-449.924	-65.806	-0.231	-0.092
-448.909	-88.564	-0.349	0.104
-447.895	-200.000	0.003	0.053
-446.880	62.049	0.124	0.124
-445.865	-200.000	-0.015	0.191
-444.851	368.758	0.020	-0.041
-443.836	-158.468	-0.134	-0.008
-442.822	-83.672	-0.250	-0.080
-441.807	800.000	-0.043	-0.122
-440.792	-134.195	0.267	0.033
-439.778	-200.000	-0.024	0.119
-438.763	-20.121	-0.158	0.097
-437.749	800.000	0.055	-0.158
-436.734	-105.938	-0.184	0.042
-435.719	-105.496	-0.204	-0.046
-434.705	-120.921	-0.454	0.076
-433.690	240.091	-0.077	0.129
-432.676	251.087	-0.086	-0.146
-431.661	-10.512	0.240	-0.159
-430.646	-200.000	-0.000	-0.009
-429.632	32.526	-0.180	-0.155
-428.617	53.988	-0.219	0.211
-427.603	16.090	-0.052	-0.041
-426.588	-94.418	0.114	-0.031
-425.573	-46.011	0.239	0.118
-424.559	199.532	-0.098	0.151
-423.544	598.246	-0.011	0.027
-422.530	-112.565	-0.122	-0.024
-421.515	395.883	0.095	0.199
-420.500	-55.580	-0.228	0.102
-419.486	-49.609	-0.305	-0.145
-418.471	800.000	0.086	-0.246
-417.457	410.099	-0.114	-0.242
-416.442	-11.136	-0.135	-0.089
-415.428	800.000	0.011	0.035
-414.413	-87.346	-0.257	0.078
-413.398	75.552	0.131	-0.138
-412.384	-200.000	-0.008	0.244
-411.369	-63.158	-0.181	0.075
-410.355	-200.000	0.050	0.290
-409.340	-119.122	-0.093	0.016
-408.325	-200.000	0.003	0.146
-407.311	355.939	0.149	-0.297
-406.296	-156.492	0.245	0.015
-405.282	-136.947	0.394	0.045
-404.267	3.861	0.224	0.163
-403.252	-200.000	0.023	0.120
-402.238	-147.380	-0.336	-0.028
-401.223	129.327	0.201	0.256
-400.209	-200.000	-0.063	0.335
-399.194	206.577	-0.058	0.090
-398.179	800.000	0.049	0.143
-397.165	52.054	-0.316	0.301
-396.150	526.181	-0.011	-0.026
-395.136	800.000	-0.121	0.356
-394.121	-102.050	-0.559	0.135
-393.106	-144.114	-0.186	0.017
-392.092	-127.375	0.242	-0.035
-391.077	110.927	-0.203	0.244
-390.063	669.995	-0.130	-0.337
-389.048	399.279	-0.161	0.336
-388.033	10.602	-0.526	-0.400
-387.019	-71.201	0.330	0.124
-386.004	-36.837	0.187	-0.100
-384.990	25.970	0.180	0.150
-383.975	33.180	0.120	-0.104
-382.960	82.481	-0.251	-0.272
-381.946	-139.680	-0.149	0.016
-380.931	800.000	0.065	0.259
-379.917	177.031	-0.088	0.127
-378.902	-200.000	0.146	0.001
-377.888	148.257	0.081	0.110
-376.873	110.383	-0.135	0.161
-375.858	-131.707	0.204	0.027
-374.844	800.000	-0.006	0.024
-373.829	800.000	0.075	0.249
-372.815	-62.892	-0.141	0.058
-371.800	317.336	-0.165	-0.311
-370.785	-200.000	-0.015	0.298
-369.771	-28.828	-0.254	0.146
-368.756	-37.386	-0.285	0.152
-367.742	-200.000	0.018	0.389
-366.727	-49.371	0.402	0.191
-365.712	11.292	0.035	0.027
-364.698	123.567	-0.087	0.109
-363.683	800.000	-0.089	0.259
-362.669	-200.000	0.061	-0.292
-361.654	1.904	-0.123	0.088
-360.639	235.206	0.034	-0.056
-359.625	-26.158	0.088	-0.052
-358.610	-94.101	-0.081	0.022
-357.596	-198.738	0.311	-0.002
-356.581	-59.457	0.084	-0.036
-355.566	-200.000	-0.007	-0.310
-354.552	800.000	0.062	0.173
-353.537	-67.024	0.142	0.056
-352.523	-108.169	-0.133	-0.029
-351.508	-133.356	-0.242	0.030
-350.493	-85.236	0.211	0.066
-349.479	-200.000	-0.031	-0.416
-348.464	-44.788	-0.231	-0.115
-347.450	390.481	0.109	0.225
-346.435	276.998	-0.049	0.088
-345.420	-200.000	0.040	0.332
-344.406	-200.000	0.015	-0.273
-343.391	800.000	0.041	-0.166
-342.377	-158.778	-0.196	-0.011
-341.362	800.000	0.062	0.206
-340.348	-124.245	0.216	-0.034
-339.333	-115.329	-0.325	-0.061
-338.318	-107.843	0.298	-0.065
-337.304	39.696	0.138	0.124
-336.289	49.157	0.069	-0.065
-335.275	-114.944	0.098	0.019
-334.260	-83.894	-0.198	-0.063
-333.245	-200.000	0.016	0.264
-332.231	-78.347	0.157	0.054
-331.216	800.000	0.064	0.227
-330.202	-26.330	-0.289	0.169
-329.187	-158.341	0.184	-0.011
-328.172	-42.519	0.229	-0.116
-327.158	-52.578	0.327	-0.150
-326.143	64.905	-0.009	-0.009
-325.129	743.907	0.079	0.211
-324.114	-27.141	-0.208	0.121
-323.099	-103.590	0.098	0.023
-322.085	-35.375	0.014	-0.007
-321.070	290.827	0.106	-0.193
-320.056	-142.024	0.093	0.009
-319.041	275.295	0.030	0.052
-318.026	-122.114	-0.067	-0.011
-317.012	145.101	0.212	-0.282
-315.997	307.652	-0.063	0.117
-314.983	-46.062	-0.177	-0.087
-313.968	-61.838	-0.322	-0.134
-312.953	800.000	-0.108	0.327
-311.939	143.995	-0.332	-0.440
-310.924	0.929	-0.042	0.030
-309.910	105.040	0.107	-0.126
-308.895	221.086	0.180	0.288
-307.880	-147.589	0.268	-0.022
-306.866	180.012	0.166	-0.243
-305.851	365.279	-0.105	-0.210
-304.837	165.268	0.022	0.031
-303.822	14.501	0.512	-0.398
-302.807	68.941	0.053	0.054
-301.793	108.801	0.189	-0.225
-300.778	800.000	-0.102	-0.326
-299.764	-200.000	0.010	-0.074
-298.749	-200.000	0.017	-0.142
-297.735	165.395	0.107	-0.151
-296.720	-52.027	-0.081	0.037
-295.705	-200.000	0.049	-0.296
-294.691	-200.000	-0.059	0.366
-293.676	65.798	0.043	-0.044
-292.662	800.000	-0.066	0.218
-291.647	800.000	0.102	-0.311
-290.632	-189.375	-0.645	-0.008
-289.618	514.253	0.128	-0.297
-288.603	546.524	0.077	-0.184
-287.589	560.604	0.090	0.216
-286.574	800.000	0.083	0.242
-285.559	-200.000	0.001	-0.151
-284.545	800.000	0.015	-0.061
-283.530	800.000	0.122	0.411
-282.516	800.000	0.115	0.328
-281.501	-103.000	0.275	-0.065
-280.486	23.339	-0.214	-0.175
-279.472	-55.024	0.134	0.060
-278.457	-91.713	0.129	-0.036
-277.443	393.605	-0.163	0.337
-276.428	-33.028	0.115	-0.064
-275.413	-200.000	-0.048	-0.262
-274.399	-123.407	0.269	0.043
-273.384	85.086	-0.189	0.206
-272.370	-200.000	-0.008	-0.074
-271.355	203.303	0.098	-0.150
-270.340	800.000	0.046	0.164
-269.326	-63.355	-0.128	0.052
-268.311	389.324	0.047	-0.096
-267.297	85.602	0.046	-0.050
-266.282	367.283	-0.054	0.109
-265.267	-32.149	0.036	-0.020
-264.253	800.000	0.091	0.307
-263.238	-185.391	-0.110	-0.002
-262.224	2.259	-0.096	0.069
-261.209	-200.000	0.055	0.488
-260.195	177.358	0.149	0.216
-259.180	-200.000	0.042	-0.243
-258.165	321.843	0.122	-0.230
-257.151	376.062	-0.084	-0.169
-256.136	-144.040	-0.264	-0.025
-255.122	-200.000	0.034	-0.278
-254.107	101.038	0.162	0.187
-253.092	800.000	-0.037	-0.114
-252.078	46.823	0.144	0.133
-251.063	-104.772	0.110	-0.025
-250.049	-200.000	0.008	-0.045
-249.034	451.532	-0.081	-0.178
-248.019	-29.093	-0.224	-0.128
-247.005	-111.729	-0.155	-0.031
-245.990	34.846	-0.267	0.232
-244.976	800.000	0.046	0.157
-243.961	800.000	-0.030	-0.118
-242.946	-58.384	0.090	-0.039
-241.932	-63.293	-0.133	0.054
-240.917	167.333	-0.138	-0.195
-239.903	-200.000	-0.080	-0.365
-238.888	-200.000	-0.034	-0.165
-237.873	53.868	-0.135	-0.129
-236.859	-68.266	0.418	-0.161
-235.844	-17.203	0.272	-0.170
-234.830	800.000	0.098	0.301
-233.815	-25.857	-0.121	-0.071
-232.800	77.677	-0.238	-0.252
-231.786	-120.917	0.417	0.070
-230.771	-135.708	-0.337	-0.040
-229.757	-105.405	-0.050	0.011
-228.742	-110.643	-0.026	-0.005
-227.727	79.762	0.102	0.109
-226.713	716.319	-0.089	0.233
-225.698	100.399	0.153	0.176
-224.684	-200.000	-0.006	0.098
-223.669	332.298	-0.073	-0.139
-222.655	-3.428	0.355	-0.245
-221.640	108.122	-0.099	0.117
-220.625	652.903	-0.062	0.157
-219.611	-27.225	-0.273	0.158
-218.596	800.000	0.071	0.201
-217.582	305.275	0.166	-0.306
-216.567	25.068	0.201	-0.165
-215.552	-77.922	0.486	-0.166
-214.538	-200.000	0.005	0.295
-213.523	341.985	-0.122	-0.237
-212.509	-200.000	0.026	-0.327
-211.494	-21.748	0.356	-0.215
-210.479	-6.716	-0.175	-0.118
-209.465	800.000	0.090	0.316
-208.450	-200.000	-0.010	-0.236
-207.436	45.847	-0.044	0.040
-206.421	-147.846	-0.298	0.025
-205.406	-112.897	0.188	0.037
-204.392	800.000	0.145	0.445
-203.377	-200.000	-0.046	0.373
-202.363	341.118	0.167	-0.323
-201.348	277.931	-0.063	-0.111
-200.333	-75.662	-0.177	-0.062
-199.319	142.958	0.173	-0.228
-198.304	-155.951	-0.074	-0.005
-197.290	-200.000	-0.018	0.100
-196.275	43.967	-0.352	0.320
-195.260	-43.711	0.232	0.116
-194.246	-200.000	0.015	-0.087
-193.231	-200.000	0.000	-0.215
-192.217	-23.144	0.252	0.150
-191.202	617.678	0.142	-0.354
-190.187	-148.933	-0.119	0.009
-189.173	-122.998	0.261	-0.042
-188.158	-162.577	-0.179	0.009
-187.144	-40.272	-0.106	0.055
-186.129	-200.000	0.006	0.054
-185.114	72.314	-0.110	-0.114
-184.100	-60.795	0.240	0.100
-183.085	-71.384	-0.161	0.060
-182.071	-200.000	-0.005	-0.354
-181.056	38.334	-0.330	-0.291
-180.042	-4.313	0.312	0.214
-179.027	-38.036	0.201	0.106
-178.012	-161.826	-0.228	-0.011
-176.998	-150.585	0.198	-0.015
-175.983	-72.950	0.322	-0.117
-174.969	152.396	-0.079	0.106
-173.954	-200.000	0.015	-0.298
-172.939	-200.000	-0.019	-0.320
-171.925	145.790	0.066	-0.087
-170.910	-55.923	-0.201	-0.089
-169.896	73.278	-0.010	-0.010
-168.881	-200.000	-0.001	0.059
-167.866	-200.000	-0.043	-0.246
-166.852	-125.309	-0.313	0.047
-165.837	38.970	0.191	-0.169
-164.823	-160.058	-0.203	-0.011
-163.808	-167.798	-0.130	-0.005
-162.793	118.037	-0.243	-0.296
-161.779	800.000	-0.165	0.643
-160.764	14.382	-0.141	-0.109
-159.750	-110.505	0.285	-0.058
-158.735	-82.884	0.298	0.095
-157.720	-41.046	-0.216	-0.110
-156.706	137.745	-0.158	-0.205
-155.691	-200.000	0.004	0.287
-154.677	361.419	-0.191	-0.378
-153.662	800.000	-0.016	-0.050
-152.647	7.981	0.029	0.021
-151.633	-200.000	0.034	0.183
-150.618	-200.000	0.013	0.275
-149.604	29.817	-0.170	-0.143
-148.589	-128.349	0.194	-0.027
-147.574	-181.512	-0.391	0.008
-146.560	-140.867	0.113	-0.012
-145.545	115.063	0.176	0.213
-144.531	20.772	-0.176	0.141
-143.516	-75.157	0.281	0.099
-142.502	-114.328	-0.047	0.009
-141.487	455.272	0.051	-0.111
-140.472	316.537	0.037	0.069
-139.458	121.588	-0.208	0.256
-138.443	75.638	0.129	-0.134
-137.429	-156.638	-0.200	-0.012
-136.414	-200.000	0.030	0.225
-135.399	-56.060	0.136	0.060
-134.385	202.540	0.091	-0.139
-133.370	-200.000	-0.113	-0.000
-132.356	-151.479	0.220	0.016
-131.341	188.468	-0.106	-0.157
-130.326	-9.799	-0.244	0.160
-129.312	64.253	-0.167	0.166
-128.297	-105.640	-0.204	-0.046
-127.283	800.000	0.034	-0.149
-126.268	-36.946	0.098	0.052
-125.253	131.135	-0.070	-0.089
-124.239	-49.835	-0.186	0.087
-123.224	142.906	-0.089	0.116
-122.210	-46.374	0.270	0.131
-121.195	-32.613	0.169	0.093
-120.180	800.000	0.045	0.147
-119.166	-8.985	-0.137	-0.091
-118.151	-56.647	0.203	-0.089
-117.137	-200.000	0.004	-0.145
-116.122	-48.963	0.087	-0.041
-115.107	-200.000	-0.025	0.308
-114.093	-58.985	-0.199	-0.085
-113.078	800.000	0.102	-0.286
-112.064	-52.668	0.483	0.220
-111.049	-69.249	-0.064	0.024
-110.034	31.209	0.198	-0.168
-109.020	98.956	-0.197	-0.225
-108.005	-176.342	-0.176	0.005
-106.991	765.122	0.023	0.062
-105.976	111.934	0.098	0.117
-104.962	192.009	0.115	0.172
-103.947	-200.000	0.003	-0.142
-102.932	14.202	-0.083	-0.064
-101.918	-166.582	0.067	-0.003
-100.903	-200.000	0.007	-0.053
-99.889	-8.600	-0.212	-0.140
-98.874	599.810	0.034	0.084
-97.859	11.831	-0.294	0.223
-96.845	-162.702	0.259	-0.013
-95.830	192.795	-0.083	0.123
-94.816	-57.146	0.380	-0.165
-93.801	5.265	-0.145	0.106
-92.786	216.080	-0.028	0.044
-91.772	800.000	0.065	-0.180
-90.757	-131.131	0.098	-0.013
-89.743	65.816	0.152	0.152
-88.728	282.229	0.187	0.331
-87.713	31.145	0.078	0.066
-86.699	-72.290	0.313	0.114
-85.684	-45.602	-0.202	0.099
-84.670	-24.083	0.190	-0.112
-83.655	146.005	-0.156	-0.207
-82.640	174.415	0.041	-0.058
-81.626	-21.169	-0.043	0.026
-80.611	377.773	0.206	0.416
-79.597	214.720	0.202	-0.315
-78.582	800.000	0.055	0.152
-77.567	-129.357	0.253	0.035
-76.553	37.153	0.155	0.135
-75.538	88.151	0.183	0.201
-74.524	378.352	-0.138	-0.279
-73.509	117.408	0.101	-0.123
-72.494	-48.682	0.108	0.051
-71.480	46.680	0.069	0.063
-70.465	-200.000	0.068	0.368
-69.451	-55.457	0.121	-0.053
-68.436	-200.000	0.026	-0.168
-67.422	-200.000	-0.039	0.323
-66.407	229.866	-0.200	0.323
-65.392	-21.802	0.337	0.202
-64.378	57.929	-0.089	0.086
-63.363	120.863	0.229	-0.280
-62.349	-200.000	-0.063	-0.283
-61.334	166.665	-0.856	-1.196
-60.319	148.042	0.552	0.734
-59.305	-200.000	-0.066	-0.755
-58.290	-200.000	0.300	1.440
-57.276	800.000	0.522	1.604
-56.261	-200.000	94.406	543.085
-55.246	492.872	1422.343	3211.592
-54.232	149.480	2629.581	3507.528
-53.217	109.970	2230.128	2635.369
-52.203	43.255	1756.720	1579.759
-51.188	35.699	1564.132	1353.572
-50.173	33.322	1536.187	1312.872
-49.159	51.826	1583.067	1483.542
-48.144	53.404	1601.489	1511.860
-47.130	35.909	1562.088	1353.069
-46.115	32.705	1547.311	1317.859
-45.100	32.567	1543.661	1313.737
-44.086	32.587	1542.403	1312.751
-43.071	32.640	1539.651	1310.728
-42.057	32.590	1538.011	1308.933
-41.042	32.598	1536.806	1307.910
-40.027	32.612	1535.522	1306.863
-39.013	32.471	1533.920	1304.469
-37.998	32.464	1532.492	1303.155
-36.984	32.522	1531.054	1302.282
-35.969	32.603	1529.525	1301.487
-34.954	32.539	1528.427	1300.062
-33.940	32.474	1527.454	1298.737
-32.925	32.577	1525.487	1297.721
-31.911	32.708	1523.920	1297.239
-30.896	32.613	1522.858	1295.630
-29.881	32.632	1521.091	1294.206
-28.867	32.587	1520.017	1292.927
-27.852	32.500	1518.507	1291.001
-26.838	32.613	1516.916	1290.365
-25.823	32.572	1515.482	1288.815
-24.809	32.478	1513.965	1286.833
-23.794	32.551	1512.022	1285.629
-22.779	32.563	1511.052	1284.832
-21.765	32.565	1509.861	1283.786
-20.750	32.480	1509.012	1282.435
-19.736	32.569	1507.962	1282.098
-18.721	32.514	1506.695	1280.594
-17.706	32.498	1505.607	1279.507
-16.692	32.494	1504.767	1278.719
-15.677	32.459	1503.796	1277.602
-14.663	32.529	1502.612	1277.019
-13.648	32.449	1501.896	1275.821
-12.633	32.495	1499.887	1274.372
-11.619	32.489	1499.811	1274.221
-10.604	32.448	1498.918	1273.130
-9.590	32.430	1497.955	1272.141
-8.575	32.529	1497.305	1272.208
-7.560	32.500	1496.356	1271.153
-6.546	32.446	1495.736	1270.216
-5.531	32.408	1494.593	1268.939
-4.517	32.371	1493.408	1267.628
-3.502	32.428	1492.517	1267.207
-2.487	32.402	1491.877	1266.437
-1.473	32.380	1490.162	1264.786
-0.458	32.503	1488.622	1264.255
0.556	32.136	1479.973	1255.659
1.571	29.522	1453.648	1216.029
2.586	25.717	1389.611	1138.344
3.600	23.201	1302.021	1051.571
4.615	21.000	1254.057	1000.132
5.629	17.636	1195.857	935.201
6.644	9.194	1108.230	823.488
7.659	2.232	1066.703	758.120
8.673	1.150	1060.600	748.376
9.688	1.146	1057.413	746.040
10.702	1.049	1056.287	744.703
11.717	1.006	1054.123	742.902
12.731	3.369	1056.946	756.438
13.746	10.842	1066.675	800.240
14.761	16.390	1073.680	832.850
15.775	17.655	1073.830	839.124
16.790	17.221	1072.333	835.743
17.804	16.265	1070.435	829.494
18.819	15.470	1068.514	824.035
19.834	14.896	1067.049	820.014
20.848	14.669	1065.978	818.010
21.863	14.385	1065.729	816.355
22.877	14.111	1064.542	814.033
23.892	13.970	1063.771	812.680
24.907	13.779	1062.782	810.916
25.921	13.806	1062.400	810.686
26.936	13.823	1061.650	810.128
27.950	13.806	1061.072	809.529
28.965	13.910	1060.115	809.235
29.980	13.955	1059.226	808.707
30.994	14.017	1057.891	807.914
32.009	13.974	1057.003	806.955
33.023	14.038	1056.694	806.961
34.038	14.095	1055.407	806.183
35.053	13.968	1054.779	805.018
36.067	14.056	1053.261	804.212
37.082	14.008	1052.493	803.325
38.096	14.047	1052.010	803.072
39.111	13.958	1051.205	801.954
40.126	14.079	1050.100	801.624
41.140	13.868	1049.593	800.150
42.155	13.841	1048.543	799.151
43.169	13.873	1047.671	798.568
44.184	13.822	1046.475	797.341
45.199	13.827	1045.042	796.202
46.213	13.725	1044.496	795.227
47.228	13.846	1043.421	794.915
48.242	13.887	1042.115	794.048
49.257	13.946	1041.383	793.702
50.271	13.869	1039.958	792.180
51.286	13.907	1039.546	791.976
52.301	14.016	1038.370	791.529
53.315	14.002	1037.558	790.775
54.330	13.891	1037.081	789.813
55.344	13.918	1036.124	789.140
56.359	13.991	1034.854	788.453
57.374	13.892	1034.236	787.443
58.388	13.927	1033.412	786.907
59.403	13.851	1032.585	785.852
60.417	13.779	1031.832	784.866
61.432	13.757	1031.171	784.189
62.447	13.940	1030.255	784.288
63.461	13.723	1029.524	782.638
64.476	13.673	1028.613	781.641
65.490	13.814	1027.509	781.397
66.505	13.778	1027.072	780.829
67.520	13.689	1026.200	779.677
68.534	13.848	1025.369	779.721
69.549	13.776	1025.111	779.119
70.563	13.851	1023.765	778.380
71.578	13.903	1022.996	777.969
72.593	13.819	1022.344	777.010
73.607	13.797	1021.440	776.155
74.622	13.654	1020.616	774.791
75.636	13.694	1019.815	774.300
76.651	13.602	1019.070	773.237
77.666	13.738	1017.861	772.884
78.680	13.745	1017.368	772.474
79.695	13.815	1016.548	772.109
80.709	13.817	1016.110	771.716
81.724	13.796	1015.430	771.035
82.739	13.827	1014.787	770.622
83.753	13.827	1014.035	769.984
84.768	13.906	1012.814	769.355
85.782	14.007	1012.126	769.230
86.797	14.031	1011.213	768.581
87.812	13.963	1010.613	767.744
88.826	13.899	1009.710	766.691
89.841	13.897	1009.028	766.098
90.855	13.902	1008.470	765.629
91.870	13.954	1007.554	765.107
92.884	14.026	1006.700	764.721
93.899	14.090	1005.750	764.224
94.914	14.030	1004.946	763.273
95.928	13.997	1004.324	762.578
96.943	14.060	1003.935	762.505
97.957	14.017	1002.827	761.399
98.972	14.011	1001.942	760.634
99.987	14.000	1001.534	760.207
101.001	14.084	1000.709	759.896
102.016	13.976	999.989	758.790
103.030	14.017	999.169	758.289
104.045	14.007	998.061	757.334
105.060	13.999	996.795	756.269
106.074	14.017	995.853	755.569
107.089	14.069	995.120	755.182
108.103	13.804	994.652	753.557
109.118	13.954	993.326	753.166
110.133	13.877	992.502	752.127
111.147	13.889	991.904	751.663
112.162	14.003	991.027	751.447
113.176	13.952	990.260	750.567
114.191	13.954	989.218	749.720
115.206	13.901	988.550	748.910
116.220	13.909	988.015	748.475
117.235	13.942	986.813	747.646
118.249	13.974	986.228	747.279
119.264	14.002	985.192	746.553
120.279	14.002	984.083	745.647
121.293	13.903	983.936	745.026
122.308	13.852	982.980	744.010
123.322	13.942	982.128	743.700
124.337	13.954	981.087	742.899
125.352	13.849	979.949	741.502
126.366	14.034	978.386	741.079
127.381	14.135	977.078	740.472
128.395	13.866	976.833	739.023
129.410	14.010	975.595	738.662
130.424	13.784	975.138	737.247
131.439	14.060	973.938	737.501
132.454	13.904	973.267	736.233
133.468	13.957	972.460	735.795
134.483	14.061	971.546	735.496
135.497	13.966	971.134	734.699
136.512	14.063	970.042	734.236
137.527	14.047	969.592	733.761
138.541	13.953	968.882	732.745
139.556	14.018	968.367	732.576
140.570	14.025	967.347	731.773
141.585	14.003	966.906	731.277
142.600	14.021	965.836	730.479
143.614	14.051	965.448	730.253
144.629	14.145	964.292	729.727
145.643	14.270	963.564	729.663
146.658	14.067	962.624	727.995
147.673	14.159	961.700	727.635
148.687	14.035	960.996	726.494
149.702	13.988	959.843	725.356
150.716	13.977	959.361	724.877
151.731	14.082	958.388	724.537
152.746	14.057	957.877	723.979
153.760	14.141	956.741	723.419
154.775	14.191	955.924	722.956
155.789	14.211	955.255	722.474
156.804	14.206	954.582	721.879
157.819	14.119	954.282	721.211
158.833	14.170	953.088	720.464
159.848	14.186	952.347	719.910
160.862	14.281	951.729	719.792
161.877	14.125	951.103	718.577
162.892	14.131	950.408	718.014
163.906	14.126	949.335	717.122
164.921	14.045	948.363	715.973
165.935	14.056	947.734	715.481
166.950	14.137	946.659	714.956
167.964	14.239	945.585	714.518
168.979	14.098	944.842	713.291
169.994	14.231	943.453	712.749
171.008	14.211	942.469	711.856
172.023	14.222	942.255	711.680
173.037	14.324	941.238	711.283
174.052	14.321	940.941	710.982
175.067	14.271	939.930	709.942
176.081	14.305	939.198	709.472
177.096	14.343	938.145	708.775
178.110	14.306	937.284	707.907
179.125	14.212	936.774	707.060
180.140	14.344	935.872	706.873
181.154	14.328	935.072	706.140
182.169	14.320	934.428	705.558
183.183	14.315	933.971	705.129
184.198	14.409	933.314	704.969
185.213	14.496	932.482	704.644
186.227	14.437	931.929	703.914
187.242	14.448	931.090	703.266
188.256	14.440	930.331	702.597
189.271	14.575	929.634	702.578
190.286	14.577	929.077	702.101
191.300	14.493	927.998	700.872
192.315	14.544	927.213	700.429
193.329	14.379	926.933	699.463
194.344	14.321	926.457	698.799
195.359	14.380	925.989	698.631
196.373	14.460	924.881	698.070
197.388	14.500	924.747	698.073
198.402	14.475	923.846	697.227
199.417	14.595	923.232	697.204
200.432	14.592	922.956	696.922
201.446	14.704	922.448	696.943
202.461	14.706	922.577	696.989
203.475	14.842	921.629	696.776
204.490	14.669	921.041	695.549
205.504	14.684	920.142	694.872
206.519	14.750	919.013	694.234
207.534	14.747	918.756	693.966
208.548	14.771	917.903	693.360
209.563	14.677	917.597	692.675
210.577	14.712	916.939	692.263
211.592	14.795	915.962	691.807
212.607	14.670	915.898	691.182
213.621	14.878	914.775	691.133
214.636	14.878	913.831	690.359
215.650	14.811	913.545	689.805
216.665	14.786	912.790	689.070
217.680	14.985	912.188	689.376
218.694	14.876	911.687	688.484
219.709	15.086	911.157	688.889
220.723	14.927	910.727	687.849
221.738	14.901	910.063	687.181
222.753	14.974	909.259	686.810
223.767	14.951	908.419	686.020
224.782	14.881	907.651	685.094
225.796	15.046	906.877	685.127
226.811	15.128	906.200	684.889
227.826	15.072	905.706	684.225
228.840	15.116	904.670	683.561
229.855	14.961	904.517	682.755
230.869	15.206	903.453	682.890
231.884	15.078	903.052	682.005
232.899	15.042	902.008	681.006
233.913	14.931	901.854	680.379
234.928	14.976	900.995	679.854
235.942	15.124	900.360	679.915
236.957	15.153	899.452	679.286
237.972	15.036	898.767	678.236
238.986	15.109	898.234	678.069
240.001	15.030	897.526	677.158
241.015	15.159	896.679	676.977
242.030	15.116	895.789	676.075
243.045	15.218	895.424	676.147
244.059	15.263	894.727	675.743
245.074	15.278	894.123	675.287
246.088	15.233	893.739	674.759
247.103	15.213	893.462	674.410
248.117	15.270	892.355	673.742
249.132	15.336	891.922	673.623
250.147	15.338	890.994	672.871
251.161	15.361	890.431	672.475
252.176	15.435	889.920	672.326
253.190	15.526	889.245	672.124
254.205	15.588	889.037	672.153
255.220	15.453	888.109	670.851
256.234	15.560	887.330	670.632
257.249	15.572	886.736	670.171
258.263	15.506	886.306	669.524
259.278	15.623	885.544	669.353
260.293	15.502	885.310	668.638
261.307	15.594	884.801	668.559
262.322	15.714	883.893	668.291
263.336	15.732	883.272	667.833
264.351	15.847	882.479	667.633
265.366	15.814	881.714	666.863
266.380	15.701	881.708	666.352
267.395	15.830	880.930	666.217
268.409	15.678	880.290	665.073
269.424	15.748	879.442	664.650
270.439	15.875	878.519	664.393
271.453	15.803	877.818	663.521
272.468	15.897	877.075	663.272
273.482	15.791	876.368	662.262
274.497	15.715	876.530	662.026
275.512	15.951	875.342	661.996
276.526	15.875	874.625	661.096
277.541	15.873	873.700	660.332
278.555	15.895	873.673	660.340
279.570	15.743	873.209	659.334
280.585	15.901	872.469	659.338
281.599	16.104	871.484	659.325
282.614	15.817	871.206	657.937
283.628	15.869	870.848	657.809
284.643	16.104	869.717	657.816
285.657	15.937	869.248	656.753
286.672	16.040	868.825	656.777
287.687	16.001	868.372	656.225
288.701	16.112	867.642	656.046
289.716	16.067	867.250	655.515
290.730	15.999	867.115	655.093
291.745	16.060	866.031	654.453
292.760	16.117	864.988	653.826
293.774	16.256	864.497	653.936
294.789	16.217	864.028	653.371
295.803	16.177	863.215	652.545
296.818	16.171	862.958	652.270
297.833	16.134	862.189	651.489
298.847	16.277	861.388	651.375
299.862	16.195	860.248	650.142
300.876	16.266	859.864	650.068
301.891	16.274	859.367	649.665
302.906	16.096	858.986	648.635
303.920	16.299	857.876	648.516
304.935	16.401	857.127	648.288
305.949	16.390	856.732	647.887
306.964	16.289	856.438	647.220
307.979	16.424	855.762	647.171
308.993	16.340	855.528	646.615
310.008	16.461	854.782	646.457
311.022	16.413	854.253	645.817
312.037	16.578	853.498	645.818
313.052	16.451	853.258	645.094
314.066	16.538	852.699	644.947
315.081	16.565	851.877	644.371
316.095	16.376	851.813	643.544
317.110	16.458	851.004	643.188
318.125	16.522	850.480	642.980
319.139	16.513	850.140	642.630
320.154	16.461	849.400	641.818
321.168	16.357	848.992	641.056
322.183	16.581	848.568	641.531
323.197	16.488	847.953	640.655
324.212	16.483	847.462	640.210
325.227	16.473	847.068	639.819
326.241	16.504	846.587	639.515
327.256	16.606	845.581	639.084
328.270	16.693	844.590	638.605
329.285	16.557	844.578	638.027
330.300	16.568	843.884	637.488
331.314	16.704	843.103	637.352
332.329	16.578	842.853	636.632
333.343	16.646	841.791	636.032
334.358	16.709	841.648	636.104
335.373	16.659	841.170	635.500
336.387	16.768	840.609	635.426
337.402	16.708	840.152	634.800
338.416	16.624	839.503	633.939
339.431	16.587	839.116	633.454
340.446	16.751	838.442	633.500
341.460	16.897	837.713	633.438
342.475	16.819	837.577	632.988
343.489	16.860	836.738	632.452
344.504	17.015	835.707	632.193
345.519	16.943	835.275	631.544
346.533	16.957	834.815	631.191
347.548	17.019	834.367	631.030
348.562	16.968	834.121	630.598
349.577	16.913	833.671	629.995
350.592	16.953	833.024	629.600
351.606	17.108	832.301	629.574
352.621	16.963	832.044	628.785
353.635	17.014	831.568	628.561
354.650	16.899	831.698	628.174
355.665	17.068	830.793	628.060
356.679	17.185	830.143	627.947
357.694	17.156	829.465	627.272
358.708	16.964	829.102	626.231
359.723	17.097	828.877	626.497
360.738	17.013	828.207	625.628
361.752	17.060	827.323	625.078
362.767	17.103	827.390	625.229
363.781	17.210	826.532	624.921
364.796	17.177	826.283	624.554
365.810	17.274	825.735	624.443
366.825	17.289	825.325	624.131
367.840	17.208	825.108	623.617
368.854	17.279	824.743	623.544
369.869	17.273	824.068	622.958
370.883	17.408	823.594	623.040
371.898	17.268	823.116	622.107
372.913	17.273	822.542	621.639
373.927	17.336	821.890	621.323
374.942	17.510	820.895	621.149
375.956	17.488	820.348	620.599
376.971	17.495	819.756	620.123
377.986	17.616	819.252	620.128
379.000	17.574	819.091	619.796
380.015	17.555	818.722	619.392
381.029	17.503	818.067	618.654
382.044	17.550	817.109	618.048
383.059	17.715	816.467	618.106
384.073	17.578	816.170	617.329
385.088	17.597	815.870	617.116
386.102	17.601	815.351	616.681
387.117	17.616	814.510	616.046
388.132	17.555	814.111	615.470
389.146	17.671	813.887	615.665
390.161	17.757	813.090	615.318
391.175	17.670	812.859	614.775
392.190	17.517	812.777	614.106
393.205	17.777	811.938	614.355
394.219	17.637	811.959	613.812
395.234	17.739	811.465	613.752
396.248	17.617	810.955	612.871
397.263	17.656	810.362	612.512
398.278	17.709	809.604	612.072
399.292	17.640	809.396	611.615
400.307	17.619	808.958	611.153
401.321	17.738	808.811	611.417
402.336	17.751	808.354	611.063
403.350	17.764	807.772	610.614
404.365	17.861	807.234	610.502
405.380	17.849	806.604	609.928
406.394	17.702	806.356	609.160
407.409	17.928	805.725	609.439
408.423	17.990	805.120	609.149
409.438	17.998	804.802	608.882
410.453	17.816	804.538	607.979
411.467	18.023	804.066	608.306
412.482	18.079	803.330	607.892
413.496	18.025	803.062	607.446
414.511	18.079	802.632	607.257
415.526	18.075	802.488	607.083
416.540	18.072	802.273	606.853
417.555	18.113	801.367	606.261
418.569	18.125	801.224	606.143
419.584	17.995	800.686	605.219
420.599	18.097	800.063	605.056
421.613	108.874	1287.531	1459.541
422.628	93.749	1358.558	1459.633
