DTS Sentinel unit serial number:	SN413079Multiplexer serial number:	ORYXHardware model number:	OX4-SRSoftware version number:	ORYX F/W v4.00 Oryx Data Collector v3.7.2.0data status	okinstallation	princeton_trtdifferential loss correction	single-endedforward channel	channel 3reverse channel	N/Adate	2019/09/15time	12:56:35forward acquisition time	60.00reverse acquisition time	0.00gamma	496.2192k internal	0.2296k external	0.2296temperature offset calibration	0.9960default loss term (dB/km)	0.3790temperature slope calibration	1.0000multiplexer offset coefficient	1.0000multiplexer slope coefficient	1.0000fibre end	0.00T internal ref (°C)	36.30T ext. ref 1 (°C)	5.01T ext. ref 2 (°C)	34.22length (m)	temperature (°C)	Stokes	anti-Stokes-747.200	-155.662	0.084	0.005
-746.185	109.297	-0.057	-0.070
-745.171	800.000	-0.070	0.210
-744.156	-200.000	-0.037	-0.167
-743.142	-89.708	-0.348	-0.104
-742.127	-38.156	-0.165	0.089
-741.112	226.453	-0.100	0.166
-740.098	-137.699	0.023	-0.003
-739.083	467.157	-0.127	-0.292
-738.069	55.795	0.046	0.046
-737.054	55.344	-0.098	-0.097
-736.039	800.000	0.086	-0.254
-735.025	87.544	0.062	-0.070
-734.010	-89.190	0.046	-0.014
-732.996	-200.000	-0.018	-0.119
-731.981	-200.000	0.014	-0.482
-730.966	-134.476	-0.106	0.013
-729.952	-198.826	-0.589	0.003
-728.937	82.738	-0.146	0.162
-727.923	143.955	-0.304	-0.414
-726.908	15.647	-0.253	-0.203
-725.894	-134.864	-0.364	0.045
-724.879	-61.379	-0.336	-0.144
-723.864	338.440	0.053	0.105
-722.850	298.117	-0.131	0.246
-721.835	-20.739	-0.161	0.101
-720.821	-123.605	-0.205	-0.033
-719.806	156.349	0.163	-0.229
-718.791	-200.000	0.004	-0.147
-717.777	339.428	-0.083	-0.165
-716.762	311.795	0.167	0.320
-715.748	456.388	0.078	-0.177
-714.733	800.000	-0.100	0.355
-713.718	507.994	-0.099	0.235
-712.704	140.757	0.028	0.038
-711.689	314.960	0.175	0.337
-710.675	661.850	0.044	-0.115
-709.660	-76.560	0.167	-0.060
-708.645	-154.560	-0.409	-0.028
-707.631	407.137	0.106	-0.229
-706.616	-200.000	-0.014	0.146
-705.602	472.300	0.146	-0.336
-704.587	506.244	0.125	0.295
-703.572	-124.916	0.222	-0.035
-702.558	-115.517	0.137	-0.026
-701.543	277.992	0.064	-0.116
-700.529	-182.650	0.248	-0.005
-699.514	488.003	-0.171	-0.398
-698.499	311.824	-0.094	0.180
-697.485	8.040	0.225	0.172
-696.470	-158.114	-0.307	0.018
-695.456	-137.502	0.225	-0.026
-694.441	362.652	0.138	-0.283
-693.426	-106.574	0.098	-0.022
-692.412	73.694	-0.139	-0.148
-691.397	245.166	-0.229	-0.393
-690.383	800.000	-0.032	-0.119
-689.368	-200.000	-0.004	-0.328
-688.354	-200.000	-0.041	-0.240
-687.339	89.333	-0.201	-0.228
-686.324	283.527	-0.095	0.174
-685.310	206.029	-0.173	-0.275
-684.295	297.125	0.044	-0.083
-683.281	32.026	0.056	0.049
-682.266	-76.142	0.120	0.043
-681.251	369.841	0.078	-0.160
-680.237	-200.000	-0.024	-0.486
-679.222	-96.321	0.050	-0.014
-678.208	-86.265	0.303	-0.095
-677.193	195.448	0.125	0.194
-676.178	398.535	0.125	0.266
-675.164	-125.761	0.153	-0.024
-674.149	156.506	0.194	-0.274
-673.135	61.071	0.139	0.140
-672.120	54.983	0.116	0.114
-671.105	-99.926	-0.080	-0.020
-670.091	-146.512	-0.137	-0.012
-669.076	7.667	-0.235	0.179
-668.062	-101.444	-0.119	0.030
-667.047	188.334	-0.058	-0.089
-666.032	521.221	-0.120	0.287
-665.018	-200.000	-0.001	0.488
-664.003	-200.000	0.024	0.188
-662.989	111.669	-0.204	0.251
-661.974	696.896	0.102	0.272
-660.959	4.103	-0.235	0.175
-659.945	800.000	0.043	0.153
-658.930	-200.000	-0.041	-0.206
-657.916	-156.190	0.398	0.025
-656.901	218.256	0.055	0.090
-655.886	126.133	-0.122	0.157
-654.872	100.487	-0.233	0.276
-653.857	506.050	0.015	0.034
-652.843	-45.070	0.133	-0.067
-651.828	70.084	0.130	-0.137
-650.814	-200.000	0.031	-0.149
-649.799	469.065	0.091	0.209
-648.784	800.000	-0.079	-0.246
-647.770	-127.332	-0.143	-0.021
-646.755	112.054	-0.270	0.333
-645.741	573.394	0.064	0.160
-644.726	-200.000	0.008	-0.205
-643.711	127.494	0.272	-0.352
-642.697	-56.292	0.154	0.070
-641.682	110.258	-0.179	0.219
-640.668	-60.216	0.237	-0.103
-639.653	-157.763	-0.118	0.007
-638.638	800.000	0.113	-0.365
-637.624	-200.000	-0.027	0.384
-636.609	-200.000	0.000	0.130
-635.595	800.000	-0.017	-0.053
-634.580	-200.000	0.008	-0.193
-633.565	114.334	-0.132	-0.163
-632.551	-85.538	0.243	0.077
-631.536	-200.000	0.009	-0.057
-630.522	36.682	-0.050	-0.045
-629.507	-148.943	-0.177	0.015
-628.492	-200.000	0.045	-0.207
-627.478	-64.662	-0.298	-0.123
-626.463	-174.796	0.189	-0.005
-625.449	-123.372	-0.059	-0.009
-624.434	-40.386	-0.143	0.075
-623.419	337.432	0.108	-0.213
-622.405	-200.000	-0.012	0.075
-621.390	800.000	0.025	-0.073
-620.376	800.000	-0.061	0.214
-619.361	-96.570	0.124	-0.033
-618.346	-200.000	0.048	0.286
-617.332	-94.428	-0.280	0.078
-616.317	-118.790	0.092	0.017
-615.303	118.113	0.102	0.128
-614.288	-0.884	-0.117	0.084
-613.273	-33.681	0.379	0.213
-612.259	-120.803	0.312	0.053
-611.244	-36.373	0.207	0.113
-610.230	14.922	-0.173	-0.137
-609.215	285.397	-0.098	-0.179
-608.201	-133.211	-0.163	0.021
-607.186	9.030	0.197	-0.151
-606.171	-200.000	0.014	-0.128
-605.157	-200.000	-0.018	-0.149
-604.142	-200.000	0.007	-0.219
-603.128	-200.000	0.058	-0.361
-602.113	800.000	-0.157	0.490
-601.098	288.291	0.151	-0.277
-600.084	55.586	-0.075	-0.074
-599.069	800.000	-0.030	-0.119
-598.055	-92.763	0.280	-0.080
-597.040	28.563	0.137	0.117
-596.025	-200.000	-0.041	0.377
-595.011	-52.704	0.164	-0.077
-593.996	-27.446	0.148	-0.088
-592.982	-22.737	0.160	-0.098
-591.967	-53.989	0.074	-0.034
-590.952	5.584	-0.166	-0.125
-589.938	524.988	0.069	-0.164
-588.923	-44.090	0.027	0.014
-587.909	42.950	-0.114	-0.106
-586.894	-124.548	-0.270	-0.043
-585.879	209.475	-0.233	0.370
-584.865	18.681	0.127	-0.103
-583.850	197.381	0.141	-0.218
-582.836	572.028	0.131	0.325
-581.821	437.927	0.080	-0.177
-580.806	164.765	0.135	0.193
-579.792	54.846	0.238	0.233
-578.777	309.605	-0.052	-0.098
-577.763	480.727	0.148	0.342
-576.748	-200.000	-0.006	-0.287
-575.733	-200.000	0.016	0.246
-574.719	222.848	0.222	-0.364
-573.704	-32.958	0.016	0.009
-572.690	233.375	0.127	0.212
-571.675	127.954	-0.243	-0.313
-570.661	125.694	0.231	-0.296
-569.646	-52.746	0.166	0.078
-568.631	-82.379	0.254	0.084
-567.617	259.575	-0.094	0.164
-566.602	-157.562	-0.051	0.003
-565.588	77.685	-0.181	-0.196
-564.573	257.207	-0.105	0.183
-563.558	-200.000	0.015	-0.205
-562.544	-45.768	-0.418	0.209
-561.529	452.165	0.081	-0.182
-560.515	9.322	0.120	-0.092
-559.500	55.198	-0.054	-0.053
-558.485	-79.233	0.143	-0.049
-557.471	-200.000	-0.049	-0.249
-556.456	-68.363	0.189	0.074
-555.442	-96.076	-0.409	0.110
-554.427	70.161	0.124	0.130
-553.412	-26.220	-0.408	-0.243
-552.398	-200.000	0.042	-0.203
-551.383	-200.000	-0.058	-0.479
-550.369	293.441	0.066	0.123
-549.354	17.743	-0.265	-0.214
-548.339	-6.910	0.039	-0.027
-547.325	28.505	-0.099	-0.085
-546.310	-96.972	-0.369	0.098
-545.296	221.956	0.051	0.083
-544.281	-71.676	-0.299	-0.113
-543.266	26.401	0.095	0.081
-542.252	84.773	-0.120	-0.133
-541.237	-200.000	0.028	-0.257
-540.223	13.580	0.091	-0.072
-539.208	-1.942	0.024	-0.017
-538.193	-200.000	-0.224	-0.001
-537.179	-200.000	0.026	-0.420
-536.164	197.413	-0.125	-0.194
-535.150	-198.957	0.144	0.001
-534.135	-151.794	0.205	0.015
-533.121	-140.978	0.099	-0.010
-532.106	43.099	0.379	-0.350
-531.091	800.000	0.040	-0.153
-530.077	173.026	-0.215	0.314
-529.062	108.333	-0.030	0.036
-528.048	65.477	0.073	0.075
-527.033	800.000	0.027	-0.105
-526.018	-116.123	-0.120	0.023
-525.004	475.936	0.054	0.124
-523.989	-89.842	0.145	0.043
-522.975	-158.711	-0.208	-0.012
-521.960	-200.000	0.028	0.476
-520.945	-200.000	-0.042	0.391
-519.931	51.580	0.205	-0.198
-518.916	-43.702	-0.219	0.112
-517.902	229.343	-0.150	-0.249
-516.887	-200.000	-0.001	0.240
-515.872	800.000	0.063	-0.217
-514.858	-103.495	-0.271	-0.064
-513.843	150.322	-0.103	-0.141
-512.829	208.160	-0.130	-0.206
-511.814	125.550	-0.037	-0.048
-510.799	-2.715	0.036	0.026
-509.785	-200.000	-0.008	-0.079
-508.770	-200.000	-0.017	0.190
-507.756	94.106	0.118	0.136
-506.741	-200.000	0.072	0.343
-505.726	-133.839	0.127	0.016
-504.712	58.327	0.083	0.082
-503.697	800.000	-0.107	-0.362
-502.683	800.000	0.130	-0.451
-501.668	-200.000	0.023	-0.105
-500.653	-38.773	0.119	0.064
-499.639	-200.000	-0.008	-0.120
-498.624	-38.832	0.167	-0.089
-497.610	-129.271	-0.304	-0.043
-496.595	-72.588	-0.100	0.037
-495.581	54.113	-0.178	0.173
-494.566	49.618	-0.196	-0.187
-493.551	38.577	0.200	0.180
-492.537	-36.191	-0.202	-0.110
-491.522	-200.000	0.006	-0.242
-490.508	-63.693	-0.173	0.072
-489.493	201.810	-0.130	-0.203
-488.478	29.493	0.207	-0.178
-487.464	-82.173	0.316	0.104
-486.449	-200.000	0.011	-0.189
-485.435	36.674	-0.126	-0.113
-484.420	-142.595	-0.137	-0.014
-483.405	-126.599	0.060	0.009
-482.391	-39.209	-0.078	0.042
-481.376	237.945	0.179	0.301
-480.362	-68.907	0.334	0.131
-479.347	-200.000	-0.016	-0.127
-478.332	-78.758	0.090	-0.031
-477.318	285.322	-0.131	-0.240
-476.303	780.521	0.058	0.160
-475.289	800.000	0.033	0.132
-474.274	-67.805	-0.329	0.130
-473.259	38.834	0.305	0.275
-472.245	69.016	0.183	-0.190
-471.230	203.029	0.108	-0.169
-470.216	63.059	-0.033	0.033
-469.201	-200.000	-0.051	0.295
-468.186	-108.021	0.233	-0.051
-467.172	20.061	-0.074	-0.060
-466.157	-200.000	-0.036	0.197
-465.143	0.750	0.249	0.180
-464.128	-56.560	-0.201	0.090
-463.113	-5.443	0.135	0.094
-462.099	-200.000	0.016	0.099
-461.084	385.360	-0.073	0.152
-460.070	-106.874	0.319	0.071
-459.055	-41.006	-0.158	-0.082
-458.040	115.576	-0.219	-0.270
-457.026	136.691	0.139	0.184
-456.011	-58.831	-0.340	0.148
-454.997	708.102	0.066	0.175
-453.982	427.464	0.085	-0.186
-452.968	-125.602	0.144	-0.022
-451.953	800.000	-0.057	0.238
-450.938	-97.804	0.384	0.100
-449.924	-126.809	0.174	0.026
-448.909	25.987	-0.225	-0.190
-447.895	-20.586	0.221	-0.137
-446.880	-137.368	0.175	-0.020
-445.865	-26.748	-0.231	0.136
-444.851	-200.000	-0.035	-0.190
-443.836	38.526	0.235	-0.212
-442.822	304.612	-0.042	0.079
-441.807	800.000	-0.130	0.543
-440.792	56.100	0.138	-0.135
-439.778	63.550	0.109	0.111
-438.763	-90.423	0.181	0.053
-437.749	-135.847	0.273	0.033
-436.734	-40.521	-0.302	-0.158
-435.719	-97.566	-0.309	-0.081
-434.705	-200.000	-0.013	-0.204
-433.690	-200.000	-0.006	-0.212
-432.676	76.432	-0.132	0.141
-431.661	75.314	-0.173	0.184
-430.646	80.602	-0.237	0.258
-429.632	-34.885	-0.263	-0.145
-428.617	251.213	-0.063	-0.107
-427.603	-158.996	-0.292	-0.017
-426.588	6.183	-0.255	0.191
-425.573	-152.589	0.077	-0.006
-424.559	467.939	-0.059	0.134
-423.544	508.501	-0.098	0.230
-422.530	-77.687	0.410	0.143
-421.515	256.835	0.137	0.237
-420.500	502.942	-0.034	0.079
-419.486	-151.154	0.097	-0.007
-418.471	106.354	-0.206	0.246
-417.457	-200.000	0.069	0.310
-416.442	-111.309	-0.170	-0.035
-415.428	216.907	-0.100	-0.160
-414.413	73.451	0.190	-0.200
-413.398	800.000	-0.051	-0.219
-412.384	671.709	0.113	-0.296
-411.369	446.288	-0.010	-0.023
-410.355	-200.000	0.035	0.244
-409.340	-115.439	-0.172	-0.033
-408.325	35.059	-0.166	-0.147
-407.311	172.642	0.085	0.124
-406.296	-123.326	0.211	-0.034
-405.282	-51.875	0.074	0.035
-404.267	-90.970	0.212	-0.062
-403.252	35.365	0.056	-0.050
-402.238	244.809	0.058	0.099
-401.223	138.106	0.181	0.239
-400.209	31.605	0.150	-0.130
-399.194	145.983	0.062	0.084
-398.179	-67.530	-0.152	-0.060
-397.165	629.827	-0.069	0.177
-396.150	7.170	0.226	0.170
-395.136	19.264	0.128	0.103
-394.121	-77.717	-0.113	0.039
-393.106	-136.814	-0.172	0.020
-392.092	800.000	-0.015	-0.061
-391.077	87.515	0.263	-0.293
-390.063	-61.035	0.111	0.047
-389.048	-41.469	-0.265	-0.137
-388.033	769.639	0.156	-0.429
-387.019	800.000	0.111	-0.315
-386.004	223.855	-0.064	-0.104
-384.990	297.636	-0.114	-0.211
-383.975	578.697	0.257	-0.634
-382.960	-200.000	0.056	0.302
-381.946	19.008	-0.148	0.120
-380.931	114.570	0.207	-0.254
-379.917	-200.000	-0.025	-0.136
-378.902	-166.368	0.222	0.009
-377.888	-95.985	-0.246	-0.066
-376.873	69.249	-0.032	0.033
-375.858	800.000	0.069	0.199
-374.844	800.000	-0.105	0.349
-373.829	800.000	-0.061	-0.172
-372.815	-200.000	0.018	-0.105
-371.800	373.719	-0.032	0.065
-370.785	-200.000	0.027	-0.288
-369.771	41.320	-0.176	-0.160
-368.756	-4.755	0.179	0.124
-367.742	-1.782	0.097	-0.069
-366.727	-200.000	0.420	-0.000
-365.712	66.254	0.169	0.172
-364.698	26.420	0.160	0.135
-363.683	31.137	-0.202	-0.175
-362.669	-200.000	-0.008	-0.044
-361.654	-23.715	-0.214	0.129
-360.639	800.000	-0.063	0.223
-359.625	-200.000	0.004	0.284
-358.610	53.608	-0.144	-0.139
-357.596	-102.338	-0.137	-0.033
-356.581	-18.735	-0.255	-0.160
-355.566	-138.654	0.211	0.023
-354.552	0.427	0.220	0.158
-353.537	548.994	-0.095	-0.230
-352.523	-200.000	0.013	0.101
-351.508	72.176	0.082	0.086
-350.493	-113.255	-0.388	-0.077
-349.479	-90.363	0.195	-0.057
-348.464	99.628	-0.102	-0.118
-347.450	52.145	0.157	0.151
-346.435	-22.436	-0.288	-0.175
-345.420	-112.769	0.079	0.016
-344.406	-200.000	0.018	0.427
-343.391	704.604	-0.192	0.508
-342.377	-200.000	-0.002	0.076
-341.362	-200.000	0.080	0.394
-340.348	-144.891	0.392	0.036
-339.333	-200.000	-0.045	0.327
-338.318	-200.000	-0.050	0.379
-337.304	173.630	-0.262	0.380
-336.289	-62.118	0.190	0.080
-335.275	167.772	0.037	-0.053
-334.260	-21.644	-0.196	-0.120
-333.245	-200.000	0.064	-0.308
-332.231	336.655	0.126	-0.247
-331.216	30.383	0.176	-0.151
-330.202	486.967	0.046	-0.105
-329.187	386.940	-0.102	0.212
-328.172	800.000	-0.037	-0.136
-327.158	488.085	-0.092	0.211
-326.143	-42.565	-0.105	0.054
-325.129	800.000	-0.099	0.359
-324.114	212.244	0.039	0.062
-323.099	-92.079	-0.131	0.037
-322.085	-200.000	0.047	-0.281
-321.070	-116.247	0.337	0.063
-320.056	-57.269	-0.381	0.168
-319.041	27.475	0.216	0.183
-318.026	-200.000	-0.030	-0.183
-317.012	32.636	-0.087	-0.075
-315.997	-200.000	-0.003	0.180
-314.983	-200.000	0.045	0.243
-313.968	233.667	0.161	-0.267
-312.953	668.391	-0.105	-0.272
-311.939	800.000	-0.032	-0.114
-310.924	-200.000	0.007	-0.052
-309.910	-21.548	0.139	0.085
-308.895	-200.000	-0.020	0.341
-307.880	659.344	-0.033	-0.085
-306.866	800.000	0.068	-0.281
-305.851	-52.406	-0.248	-0.115
-304.837	-200.000	0.067	0.346
-303.822	-47.176	0.426	-0.208
-302.807	593.146	-0.135	-0.334
-301.793	-87.511	-0.192	0.058
-300.778	-187.506	0.187	0.003
-299.764	800.000	-0.077	0.307
-298.749	-61.524	-0.068	0.029
-297.735	800.000	-0.039	-0.110
-296.720	800.000	-0.114	-0.473
-295.705	-101.391	0.333	-0.082
-294.691	800.000	0.079	0.273
-293.676	-44.548	0.199	0.100
-292.662	149.552	-0.175	0.238
-291.647	578.003	0.232	0.569
-290.632	-42.857	0.086	0.044
-289.618	-143.984	0.271	0.026
-288.603	105.476	-0.113	0.134
-287.589	116.528	0.110	0.136
-286.574	61.272	0.193	0.193
-285.559	-1.731	0.297	0.210
-284.545	142.522	0.166	0.221
-283.530	16.944	0.211	0.168
-282.516	8.625	0.140	0.106
-281.501	141.629	0.117	0.156
-280.486	15.478	-0.147	0.116
-279.472	48.985	0.280	-0.263
-278.457	-200.000	-0.008	0.422
-277.443	200.657	-0.020	-0.030
-276.428	-82.423	0.313	0.102
-275.413	-102.489	-0.281	-0.067
-274.399	111.067	-0.072	0.087
-273.384	29.933	-0.106	0.090
-272.370	-125.483	-0.086	0.013
-271.355	19.348	-0.381	0.307
-270.340	-97.147	0.050	0.013
-269.326	124.685	0.258	0.326
-268.311	160.625	-0.107	0.150
-267.297	771.279	-0.068	-0.187
-266.282	800.000	0.075	0.297
-265.267	-16.320	0.108	0.069
-264.253	324.146	-0.114	-0.218
-263.238	27.097	0.158	0.133
-262.224	800.000	-0.060	0.236
-261.209	123.214	0.277	0.348
-260.195	-82.130	-0.155	-0.051
-259.180	-200.000	0.002	0.025
-258.165	-200.000	0.002	0.016
-257.151	128.871	0.174	-0.223
-256.136	144.709	-0.152	0.203
-255.122	655.250	-0.073	0.187
-254.107	197.557	-0.043	-0.066
-253.092	778.284	0.104	0.284
-252.078	22.475	-0.048	-0.040
-251.063	-200.000	0.055	0.360
-250.049	-125.903	-0.570	-0.086
-249.034	-89.103	0.266	0.079
-248.019	-200.000	0.001	0.067
-247.005	-29.140	-0.179	-0.103
-245.990	131.317	-0.142	0.183
-244.976	-200.000	0.029	0.131
-243.961	800.000	0.055	-0.166
-242.946	-22.053	-0.184	0.112
-241.932	-8.035	0.214	-0.145
-240.917	160.922	-0.162	-0.227
-239.903	-82.702	0.422	-0.137
-238.888	88.614	0.129	-0.144
-237.873	196.304	-0.052	-0.079
-236.859	-200.000	-0.025	-0.323
-235.844	159.797	0.090	0.125
-234.830	-82.883	-0.174	-0.056
-233.815	-6.275	-0.092	-0.063
-232.800	-102.532	-0.230	-0.055
-231.786	-99.473	0.088	-0.022
-230.771	800.000	-0.146	-0.421
-229.757	97.063	0.173	-0.199
-228.742	733.295	0.093	-0.249
-227.727	-68.511	-0.165	0.064
-226.713	-200.000	0.026	0.161
-225.698	-102.365	0.212	0.051
-224.684	-4.135	-0.079	0.054
-223.669	74.571	0.011	-0.011
-222.655	-28.409	0.040	-0.023
-221.640	153.757	0.093	0.127
-220.625	325.056	0.088	-0.169
-219.611	-142.248	-0.144	-0.014
-218.596	-93.396	-0.120	0.033
-217.582	-200.000	-0.082	-0.462
-216.567	-200.000	0.001	0.220
-215.552	265.500	-0.017	-0.030
-214.538	-167.228	-0.548	-0.022
-213.523	255.656	0.173	0.296
-212.509	800.000	-0.024	-0.084
-211.494	4.837	-0.081	-0.060
-210.479	406.271	-0.128	0.270
-209.465	206.924	-0.206	0.322
-208.450	-164.196	0.288	-0.013
-207.436	201.534	0.159	-0.246
-206.421	-116.883	-0.204	-0.037
-205.406	-38.988	-0.378	-0.199
-204.392	-3.674	-0.156	-0.109
-203.377	800.000	-0.097	-0.358
-202.363	-200.000	-0.042	0.238
-201.348	68.211	-0.165	-0.169
-200.333	800.000	0.032	0.097
-199.319	-200.000	-0.005	-0.139
-198.304	-9.317	0.152	-0.102
-197.290	-15.587	-0.224	-0.143
-196.275	-172.619	-0.313	0.010
-195.260	-200.000	-0.009	0.063
-194.246	127.774	-0.071	-0.090
-193.231	105.933	-0.234	0.276
-192.217	-131.127	0.133	-0.018
-191.202	-23.077	0.194	0.117
-190.187	800.000	-0.036	-0.148
-189.173	-200.000	-0.011	-0.123
-188.158	-6.051	0.079	-0.054
-187.144	-54.534	-0.164	-0.074
-186.129	-60.419	-0.411	0.175
-185.114	800.000	-0.099	-0.318
-184.100	-52.501	0.171	-0.079
-183.085	196.274	0.105	-0.159
-182.071	715.174	-0.117	-0.310
-181.056	-141.812	-0.270	-0.027
-180.042	-52.222	0.093	0.043
-179.027	0.015	-0.167	0.119
-178.012	-134.509	0.017	-0.002
-176.998	17.895	-0.232	0.185
-175.983	221.347	-0.167	-0.268
-174.969	-3.809	0.241	-0.167
-173.954	-87.401	0.198	0.060
-172.939	1.438	0.188	-0.135
-171.925	-145.139	0.094	0.009
-170.910	448.818	0.109	0.240
-169.896	800.000	0.063	-0.232
-168.881	-50.661	-0.476	-0.224
-167.866	800.000	0.058	-0.170
-166.852	14.343	0.256	0.200
-165.837	-200.000	0.018	-0.240
-164.823	506.332	-0.112	-0.259
-163.808	-200.000	0.032	-0.152
-162.793	41.242	0.154	0.139
-161.779	497.605	0.053	0.122
-160.764	-200.000	0.022	-0.126
-159.750	-97.130	0.391	0.102
-158.735	-88.867	-0.111	0.033
-157.720	-127.083	-0.339	-0.050
-156.706	-73.477	-0.080	-0.029
-155.691	53.981	0.208	0.200
-154.677	-91.281	-0.340	-0.097
-153.662	-200.000	-0.060	-0.310
-152.647	-174.778	-0.195	-0.005
-151.633	6.472	-0.396	0.294
-150.618	-133.328	0.099	0.012
-149.604	49.436	-0.216	0.203
-148.589	800.000	-0.091	-0.276
-147.574	28.757	-0.362	-0.306
-146.560	-39.649	-0.169	0.089
-145.545	-200.000	0.068	0.300
-144.531	324.815	0.120	-0.228
-143.516	379.569	0.062	-0.127
-142.502	-200.000	-0.009	0.055
-141.487	-200.000	-0.006	-0.094
-140.472	-39.092	-0.180	-0.094
-139.458	-26.591	-0.147	0.086
-138.443	204.220	0.158	-0.245
-137.429	-109.279	0.339	-0.072
-136.414	436.088	-0.059	0.128
-135.399	-200.000	0.007	-0.106
-134.385	-200.000	-0.007	0.201
-133.370	166.467	-0.243	0.343
-132.356	243.548	-0.170	0.285
-131.341	623.172	-0.077	0.193
-130.326	-11.265	0.181	-0.119
-129.312	188.855	0.111	-0.166
-128.297	800.000	0.048	-0.201
-127.283	800.000	0.093	-0.366
-126.268	-111.023	0.259	-0.053
-125.253	57.873	0.124	0.122
-124.239	800.000	0.081	0.237
-123.224	800.000	0.044	0.162
-122.210	82.838	0.160	-0.173
-121.195	-24.668	-0.292	0.173
-120.180	165.668	-0.108	-0.152
-119.166	56.476	0.221	0.214
-118.151	93.093	0.158	0.178
-117.137	-188.377	-0.076	0.001
-116.122	800.000	0.062	0.233
-115.107	800.000	-0.105	0.351
-114.093	80.037	0.195	-0.209
-113.078	210.225	-0.111	-0.174
-112.064	-200.000	0.023	0.312
-111.049	-91.052	-0.190	0.054
-110.034	-200.000	-0.020	0.247
-109.020	800.000	-0.065	0.281
-108.005	162.495	0.173	0.241
-106.991	43.048	0.177	0.161
-105.976	74.503	-0.183	-0.192
-104.962	-25.140	0.132	-0.078
-103.947	-96.253	0.116	0.031
-102.932	-200.000	0.026	0.129
-101.918	-45.439	0.189	-0.093
-100.903	-34.451	-0.243	0.133
-99.889	101.899	-0.038	-0.044
-98.874	296.925	0.055	0.100
-97.859	251.135	-0.022	0.037
-96.845	64.229	-0.244	-0.245
-95.830	580.510	-0.137	0.335
-94.816	40.085	0.269	0.241
-93.801	216.320	0.109	-0.172
-92.786	5.799	0.260	0.192
-91.772	26.171	0.096	-0.080
-90.757	800.000	0.015	-0.054
-89.743	151.887	-0.082	0.111
-88.728	248.866	0.193	0.326
-87.713	-114.186	-0.051	0.010
-86.699	-114.192	0.379	-0.073
-85.684	-60.341	0.122	0.052
-84.670	-146.588	0.070	-0.006
-83.655	-148.201	0.373	0.031
-82.640	800.000	-0.084	-0.277
-81.626	-163.547	0.144	0.007
-80.611	-146.733	-0.409	0.035
-79.597	-175.170	-0.107	0.003
-78.582	67.096	-0.168	0.170
-77.567	-133.793	0.355	0.044
-76.553	198.033	-0.017	0.025
-75.538	10.393	0.169	-0.128
-74.524	541.130	0.023	-0.056
-73.509	683.521	-0.069	0.180
-72.494	186.504	0.133	0.197
-71.480	-200.000	-0.049	0.231
-70.465	800.000	-0.038	0.147
-69.451	303.768	0.055	0.102
-68.436	800.000	-0.036	0.113
-67.422	-200.000	-0.021	0.287
-66.407	-25.405	0.083	0.049
-65.392	146.600	-0.152	-0.203
-64.378	-13.403	0.288	0.186
-63.363	-127.110	0.435	-0.063
-62.349	-58.769	-0.177	-0.076
-61.334	207.812	-0.657	-1.021
-60.319	248.217	0.344	0.578
-59.305	800.000	-0.209	-0.790
-58.290	191.807	0.443	0.665
-57.276	800.000	0.547	1.734
-56.261	-200.000	88.807	499.256
-55.246	505.778	1408.030	3245.746
-54.232	182.300	2612.821	3830.839
-53.217	115.967	2236.934	2723.694
-52.203	45.888	1757.181	1616.785
-51.188	39.207	1561.429	1389.607
-50.173	36.776	1533.204	1347.537
-49.159	53.782	1578.951	1508.213
-48.144	57.480	1598.743	1553.200
-47.130	39.854	1557.091	1390.083
-46.115	36.600	1541.535	1353.415
-45.100	36.472	1537.586	1349.002
-44.086	36.397	1535.770	1346.828
-43.071	36.219	1534.200	1344.157
-42.057	36.209	1532.562	1342.599
-41.042	36.306	1530.696	1341.589
-40.027	36.291	1529.677	1340.538
-39.013	36.210	1528.258	1338.679
-37.998	36.347	1526.445	1337.987
-36.984	36.246	1525.484	1336.388
-35.969	36.355	1523.910	1335.714
-34.954	36.240	1523.114	1334.167
-33.940	36.230	1521.752	1332.854
-32.925	36.362	1519.923	1332.108
-31.911	36.362	1519.054	1331.295
-30.896	36.352	1517.284	1329.623
-29.881	36.413	1516.114	1328.966
-28.867	36.359	1514.540	1327.158
-27.852	36.405	1512.907	1325.994
-26.838	36.406	1511.135	1324.393
-25.823	36.426	1509.378	1322.938
-24.809	36.286	1508.378	1321.049
-23.794	36.395	1506.749	1320.313
-22.779	36.253	1506.302	1318.899
-21.765	36.280	1505.062	1317.949
-20.750	36.323	1503.584	1316.897
-19.736	36.318	1502.596	1315.940
-18.721	36.357	1501.282	1315.004
-17.706	36.329	1500.383	1313.973
-16.692	36.298	1499.406	1312.856
-15.677	36.241	1498.283	1311.430
-14.663	36.233	1497.136	1310.323
-13.648	36.188	1496.454	1309.366
-12.633	36.345	1494.782	1308.922
-11.619	36.215	1494.285	1307.552
-10.604	36.248	1493.124	1306.703
-9.590	36.210	1492.705	1306.031
-8.575	36.337	1491.551	1305.829
-7.560	36.316	1490.761	1304.940
-6.546	36.229	1489.469	1303.173
-5.531	36.216	1488.877	1302.517
-4.517	36.231	1488.276	1302.041
-3.502	36.148	1487.288	1300.562
-2.487	36.265	1486.155	1300.306
-1.473	36.281	1484.504	1298.922
-0.458	36.286	1483.305	1297.852
0.556	35.171	1474.795	1290.025
1.571	32.880	1448.838	1252.033
2.586	29.785	1386.834	1178.652
3.600	28.097	1302.149	1096.474
4.615	26.020	1255.260	1044.878
5.629	22.713	1197.117	978.091
6.644	13.574	1109.505	859.244
7.659	6.358	1065.722	789.203
8.673	5.291	1059.562	779.252
9.688	5.060	1056.623	775.873
10.702	4.881	1054.985	773.713
11.717	4.828	1053.582	772.354
12.731	7.980	1056.979	790.437
13.746	16.065	1068.523	839.412
14.761	20.122	1072.950	863.060
15.775	18.698	1069.715	853.306
16.790	17.292	1066.735	843.879
17.804	16.127	1064.659	836.390
18.819	15.262	1062.698	830.488
19.834	14.822	1061.537	827.330
20.848	14.406	1060.668	824.525
21.863	14.280	1059.719	823.089
22.877	13.931	1058.913	820.665
23.892	13.888	1057.876	819.580
24.907	13.813	1057.180	818.598
25.921	13.794	1056.135	817.622
26.936	13.772	1055.503	816.951
27.950	13.738	1054.827	816.190
28.965	13.827	1053.406	815.455
29.980	13.808	1052.416	814.520
30.994	13.934	1051.014	813.983
32.009	13.990	1050.424	813.725
33.023	14.029	1049.487	813.120
34.038	14.132	1048.770	812.995
35.053	13.985	1047.785	811.442
36.067	13.947	1047.036	810.605
37.082	13.798	1046.313	809.249
38.096	13.924	1044.985	808.763
39.111	13.916	1044.953	808.627
40.126	13.956	1043.841	807.890
41.140	13.841	1042.342	806.101
42.155	13.814	1041.091	804.930
43.169	13.585	1040.647	803.404
44.184	13.566	1039.852	802.630
45.199	13.637	1038.399	801.778
46.213	13.615	1037.251	800.716
47.228	13.722	1036.416	800.517
48.242	13.735	1035.113	799.504
49.257	13.933	1034.402	799.835
50.271	13.842	1033.706	798.789
51.286	13.810	1032.448	797.591
52.301	13.947	1031.538	797.476
53.315	13.782	1031.362	796.478
54.330	13.790	1030.134	795.497
55.344	13.761	1029.025	794.431
56.359	13.750	1028.136	793.623
57.374	13.706	1027.089	792.534
58.388	13.582	1026.841	791.681
59.403	13.529	1025.953	790.673
60.417	13.666	1024.803	790.372
61.432	13.575	1024.158	789.370
62.447	13.596	1023.803	789.127
63.461	13.548	1022.613	787.912
64.476	13.447	1021.612	786.591
65.490	13.537	1020.916	786.410
66.505	13.651	1019.615	785.880
67.520	13.643	1018.872	785.199
68.534	13.679	1018.242	784.815
69.549	13.594	1017.664	783.899
70.563	13.566	1016.946	783.144
71.578	13.522	1016.068	782.192
72.593	13.535	1015.160	781.486
73.607	13.410	1014.497	780.317
74.622	13.405	1013.518	779.471
75.636	13.492	1012.418	778.962
76.651	13.591	1011.473	778.631
77.666	13.361	1011.207	777.277
78.680	13.396	1010.626	776.927
79.695	13.487	1009.933	776.752
80.709	13.477	1009.524	776.324
81.724	13.578	1008.228	775.731
82.739	13.529	1007.846	775.137
83.753	13.703	1007.284	775.451
84.768	13.760	1006.273	774.872
85.782	13.891	1005.413	774.750
86.797	13.997	1004.517	774.488
87.812	13.876	1003.500	773.071
88.826	13.761	1003.122	772.178
89.841	13.785	1002.213	771.517
90.855	13.953	1001.431	771.629
91.870	14.035	1000.549	771.261
92.884	13.997	1000.009	770.600
93.899	13.972	999.392	769.941
94.914	13.944	998.565	769.107
95.928	13.908	998.023	768.456
96.943	14.096	996.564	768.133
97.957	13.946	996.292	767.159
98.972	13.927	995.456	766.363
99.987	13.863	994.821	765.512
101.001	14.058	993.602	765.404
102.016	13.876	992.972	764.011
103.030	13.820	992.655	763.445
104.045	13.908	991.558	762.938
105.060	13.989	990.201	762.197
106.074	13.901	988.900	760.725
107.089	13.803	988.179	759.654
108.103	13.762	987.364	758.770
109.118	13.621	986.531	757.419
110.133	13.700	985.355	756.812
111.147	13.648	984.900	756.156
112.162	13.591	984.397	755.444
113.176	13.767	983.242	755.294
114.191	13.676	982.617	754.333
115.206	13.704	981.726	753.710
116.220	13.598	981.079	752.664
117.235	13.750	979.982	752.444
118.249	13.699	979.028	751.416
119.264	13.737	977.768	750.553
120.279	13.640	977.364	749.740
121.293	13.579	976.913	749.051
122.308	13.670	975.432	748.257
123.322	13.614	974.850	747.492
124.337	13.670	973.865	746.926
125.352	13.635	972.607	745.736
126.366	13.541	971.882	744.691
127.381	13.621	970.676	744.061
128.395	13.584	969.941	743.268
129.410	13.629	968.819	742.541
130.424	13.766	967.764	742.281
131.439	13.771	966.840	741.527
132.454	13.792	966.378	741.203
133.468	13.888	965.776	741.105
134.483	13.878	964.664	740.138
135.497	13.898	964.218	739.823
136.512	13.893	963.238	738.980
137.527	13.886	962.381	738.230
138.541	13.810	961.793	737.376
139.556	13.834	961.208	736.966
140.570	13.863	960.118	736.193
141.585	13.838	959.540	735.575
142.600	14.065	958.734	735.897
143.614	14.049	958.038	735.226
144.629	13.957	957.341	734.219
145.643	13.921	956.862	733.629
146.658	13.941	956.020	733.009
147.673	13.843	954.791	731.570
148.687	13.851	954.082	730.995
149.702	13.838	953.229	730.220
150.716	13.864	952.082	729.392
151.731	13.788	951.114	728.251
152.746	13.705	950.738	727.535
153.760	13.679	950.157	726.913
154.775	13.823	948.940	726.546
155.789	14.028	947.822	726.524
156.804	13.923	947.540	725.785
157.819	13.875	946.504	724.715
158.833	13.906	945.704	724.174
159.848	14.094	945.347	724.657
160.862	14.031	944.770	723.876
161.877	14.034	943.643	722.962
162.892	14.021	942.833	722.221
163.906	13.935	941.960	721.113
164.921	13.851	941.336	720.209
165.935	13.871	940.555	719.634
166.950	13.822	939.445	718.511
167.964	13.842	938.684	717.950
168.979	13.910	937.322	717.139
169.994	14.052	936.232	716.852
171.008	13.922	935.395	715.589
172.023	13.805	934.960	714.687
173.037	14.057	934.086	715.042
174.052	14.081	933.448	714.595
175.067	14.019	932.932	713.868
176.081	14.107	931.851	713.355
177.096	13.986	931.084	712.187
178.110	13.919	930.547	711.425
179.125	13.938	929.527	710.663
180.140	14.026	928.682	710.333
181.154	13.890	928.072	709.220
182.169	14.051	927.478	709.395
183.183	14.166	926.794	709.296
184.198	14.189	926.038	708.755
185.213	14.180	925.301	708.088
186.227	14.142	924.829	707.502
187.242	14.131	924.508	707.148
188.256	14.244	923.743	706.981
189.271	14.195	923.143	706.250
190.286	14.302	922.036	705.796
191.300	14.126	921.442	704.534
192.315	14.129	920.450	703.724
193.329	13.975	919.809	702.520
194.344	13.919	919.257	701.801
195.359	13.926	918.623	701.285
196.373	14.134	918.372	701.908
197.388	14.192	917.680	701.561
198.402	14.150	917.319	701.047
199.417	14.283	916.915	701.234
200.432	14.474	916.213	701.441
201.446	14.413	915.803	700.808
202.461	14.553	915.213	700.882
203.475	14.473	915.107	700.405
204.490	14.579	914.061	699.986
205.504	14.469	913.353	698.922
206.519	14.379	912.875	698.116
207.534	14.434	911.731	697.411
208.548	14.380	911.249	696.755
209.563	14.420	910.253	696.095
210.577	14.338	909.954	695.463
211.592	14.543	908.765	695.348
212.607	14.573	908.426	695.153
213.621	14.667	907.682	694.911
214.636	14.448	907.520	693.816
215.650	14.493	906.507	693.169
216.665	14.566	906.108	693.103
217.680	14.677	905.072	692.712
218.694	14.610	904.818	692.178
219.709	14.579	904.595	691.819
220.723	14.681	903.441	691.296
221.738	14.669	902.958	690.816
222.753	14.591	902.358	689.973
223.767	14.749	901.392	689.827
224.782	14.660	900.639	688.819
225.796	14.784	899.605	688.479
226.811	14.745	899.358	688.070
227.826	14.695	898.900	687.450
228.840	14.759	897.908	686.897
229.855	14.734	897.493	686.414
230.869	14.656	896.743	685.459
231.884	14.661	895.899	684.774
232.899	14.803	894.921	684.550
233.913	14.764	894.081	683.685
234.928	14.708	893.589	683.021
235.942	14.689	893.005	682.435
236.957	14.603	892.517	681.651
237.972	14.703	891.720	681.392
238.986	14.577	891.559	680.693
240.001	14.658	890.824	680.400
241.015	14.708	890.018	679.931
242.030	14.796	889.091	679.517
243.045	14.694	888.620	678.684
244.059	14.813	887.790	678.473
245.074	14.815	887.429	678.146
246.088	14.846	886.586	677.568
247.103	14.936	886.127	677.521
248.117	14.792	885.879	676.686
249.132	14.972	885.154	676.805
250.147	15.076	884.559	676.711
251.161	15.107	883.753	676.156
252.176	15.235	883.221	676.209
253.190	15.242	882.831	675.879
254.205	15.297	881.774	675.231
255.220	15.386	881.167	675.063
256.234	15.335	880.776	674.497
257.249	15.251	879.967	673.481
258.263	15.295	879.733	673.420
259.278	15.405	878.973	673.222
260.293	15.337	878.618	672.617
261.307	15.307	878.179	672.099
262.322	15.456	877.299	671.963
263.336	15.420	877.076	671.590
264.351	15.356	876.493	670.827
265.366	15.557	875.563	670.860
266.380	15.572	874.643	670.153
267.395	15.431	874.280	669.254
268.409	15.377	873.272	668.209
269.424	15.441	872.524	667.832
270.439	15.465	871.817	667.327
271.453	15.407	871.165	666.540
272.468	15.470	870.023	665.858
273.482	15.483	869.660	665.572
274.497	15.446	869.341	665.122
275.512	15.477	868.683	664.680
276.526	15.405	868.188	663.958
277.541	15.561	867.174	663.742
278.555	15.512	866.763	663.176
279.570	15.720	866.186	663.494
280.585	15.724	865.529	662.949
281.599	15.771	865.165	662.796
282.614	15.557	864.452	661.351
283.628	15.700	863.671	661.255
284.643	15.550	863.263	660.297
285.657	15.552	862.775	659.870
286.672	15.638	862.333	659.814
287.687	15.699	861.542	659.388
288.701	15.714	861.228	659.149
289.716	15.657	860.518	658.324
290.730	15.739	859.895	658.110
291.745	15.777	859.338	657.774
292.760	15.742	858.549	656.974
293.774	15.739	857.844	656.365
294.789	15.655	857.948	656.061
295.803	15.843	856.915	655.943
296.818	15.732	856.352	655.024
297.833	15.690	855.763	654.350
298.847	15.769	854.802	653.865
299.862	15.817	854.411	653.694
300.876	15.838	853.860	653.296
301.891	15.721	853.372	652.412
302.906	15.905	852.353	652.289
303.920	15.941	851.659	651.838
304.935	16.046	850.942	651.638
305.949	16.085	850.452	651.356
306.964	16.111	849.646	650.783
307.979	16.116	849.248	650.439
308.993	15.972	849.188	649.779
310.008	16.062	848.574	649.599
311.022	16.254	847.301	649.306
312.037	16.148	847.221	648.778
313.052	16.144	846.779	648.365
314.066	16.172	845.449	647.399
315.081	16.021	845.198	646.572
316.095	16.075	844.919	646.508
317.110	15.965	844.577	645.766
318.125	16.022	843.588	645.173
319.139	15.969	843.362	644.739
320.154	15.934	843.164	644.396
321.168	16.054	842.548	644.328
322.183	16.068	841.814	643.761
323.197	16.125	841.464	643.656
324.212	16.088	840.918	643.040
325.227	16.086	840.283	642.490
326.241	16.101	839.518	641.903
327.256	16.234	838.734	641.752
328.270	16.178	838.044	640.955
329.285	16.112	837.604	640.315
330.300	16.155	837.396	640.259
331.314	16.073	836.847	639.472
332.329	16.074	836.320	639.019
333.343	16.194	835.661	638.910
334.358	16.417	834.845	639.074
335.373	16.277	834.483	638.213
336.387	16.344	833.956	638.006
337.402	16.440	833.351	637.850
338.416	16.398	832.783	637.200
339.431	16.441	832.584	637.152
340.446	16.415	831.988	636.541
341.460	16.410	831.761	636.291
342.475	16.591	830.700	636.106
343.489	16.578	830.043	635.497
344.504	16.581	829.780	635.252
345.519	16.666	829.227	635.090
346.533	16.679	828.514	634.538
347.548	16.654	828.137	634.099
348.562	16.620	827.608	633.509
349.577	16.591	827.010	632.888
350.592	16.521	826.584	632.245
351.606	16.516	826.174	631.854
352.621	16.502	825.675	631.367
353.635	16.513	825.423	631.158
354.650	16.586	824.812	630.908
355.665	16.485	824.302	630.085
356.679	16.609	823.778	630.093
357.694	16.695	822.978	629.744
358.708	16.744	822.629	629.602
359.723	16.535	822.237	628.471
360.738	16.547	821.882	628.188
361.752	16.708	821.247	628.243
362.767	16.695	820.695	627.717
363.781	16.780	820.066	627.497
364.796	16.851	819.763	627.472
365.810	16.840	819.511	627.185
366.825	16.824	819.225	626.851
367.840	16.839	818.753	626.489
368.854	16.944	818.184	626.383
369.869	16.975	817.914	626.237
370.883	16.821	817.431	625.243
371.898	16.832	816.762	624.719
372.913	16.959	816.075	624.603
373.927	16.967	815.389	624.053
374.942	17.121	814.680	624.022
375.956	16.911	814.217	622.840
376.971	17.067	813.484	622.799
377.986	17.083	812.819	622.294
379.000	17.143	812.455	622.176
380.015	17.193	812.002	621.959
381.029	17.134	811.853	621.574
382.044	17.304	810.654	621.224
383.059	17.148	810.552	620.518
384.073	17.100	809.928	619.809
385.088	17.312	809.108	619.901
386.102	17.178	808.685	619.034
387.117	17.030	808.312	618.155
388.132	17.155	807.661	618.059
389.146	17.096	807.488	617.657
390.161	17.026	807.141	617.080
391.175	17.303	806.491	617.535
392.190	17.249	806.332	617.163
393.205	17.220	806.141	616.856
394.219	17.276	805.024	616.153
395.234	17.080	805.078	615.428
396.248	17.132	804.457	615.086
397.263	17.277	803.392	614.742
398.278	17.116	803.515	614.201
399.292	17.127	802.986	613.781
400.307	17.038	802.871	613.318
401.321	17.034	802.439	612.919
402.336	17.240	801.719	613.058
403.350	17.203	801.147	612.431
404.365	17.304	800.832	612.502
405.380	17.335	800.553	612.347
406.394	17.339	800.341	612.143
407.409	17.489	799.603	612.064
408.423	17.518	798.954	611.616
409.438	17.517	799.044	611.627
410.453	17.529	798.446	611.159
411.467	17.682	797.654	611.047
412.482	17.687	797.204	610.666
413.496	17.552	796.966	609.948
414.511	17.622	796.747	609.977
415.526	17.634	796.280	609.606
416.540	17.804	796.002	609.948
417.555	17.666	795.561	609.063
418.569	17.745	794.734	608.657
419.584	17.742	793.804	607.880
420.599	17.643	794.005	607.628
421.613	150.187	1366.297	1783.832
422.628	129.872	1449.681	1783.947
