DTS Sentinel unit serial number:	SN413079Multiplexer serial number:	ORYXHardware model number:	OX4-SRSoftware version number:	ORYX F/W v4.00 Oryx Data Collector v3.7.2.0data status	okinstallation	princeton_trtdifferential loss correction	single-endedforward channel	channel 3reverse channel	N/Adate	2019/09/13time	05:36:35forward acquisition time	60.00reverse acquisition time	0.00gamma	496.2192k internal	0.2339k external	0.2339temperature offset calibration	1.0135default loss term (dB/km)	0.3790temperature slope calibration	1.0000multiplexer offset coefficient	1.0000multiplexer slope coefficient	1.0000fibre end	0.00T internal ref (°C)	26.25T ext. ref 1 (°C)	4.05T ext. ref 2 (°C)	20.87length (m)	temperature (°C)	Stokes	anti-Stokes-747.200	106.291	0.295	0.351
-746.185	293.752	-0.062	0.113
-745.171	-82.417	-0.141	0.046
-744.156	-200.000	0.045	0.248
-743.142	-200.000	-0.007	0.061
-742.127	-31.981	0.345	0.194
-741.112	189.557	0.019	-0.028
-740.098	-200.000	0.009	0.115
-739.083	364.639	-0.058	-0.116
-738.069	66.241	0.312	0.317
-737.054	225.964	-0.107	0.174
-736.039	-74.331	-0.511	0.185
-735.025	187.692	-0.072	0.108
-734.010	27.629	-0.117	-0.098
-732.996	800.000	0.012	-0.040
-731.981	-200.000	-0.017	-0.400
-730.966	25.241	-0.221	0.184
-729.952	-156.257	-0.406	-0.026
-728.937	-97.277	-0.341	-0.089
-727.923	71.959	0.158	-0.165
-726.908	-125.948	-0.076	0.011
-725.894	324.429	-0.276	-0.528
-724.879	-176.163	-0.342	-0.009
-723.864	86.730	0.043	0.047
-722.850	-32.397	-0.185	0.104
-721.835	-200.000	0.009	0.196
-720.821	274.514	0.114	0.202
-719.806	-13.191	-0.089	0.058
-718.791	32.959	-0.234	-0.203
-717.777	6.578	0.119	-0.088
-716.762	-200.000	-0.035	-0.269
-715.748	-18.540	0.207	-0.129
-714.733	-55.866	-0.532	0.238
-713.718	-88.293	-0.593	-0.178
-712.704	154.946	-0.056	-0.077
-711.689	141.058	0.317	-0.420
-710.675	-40.511	-0.180	-0.094
-709.660	-152.365	-0.186	-0.013
-708.645	46.903	-0.111	0.104
-707.631	-144.845	-0.521	0.048
-706.616	-200.000	0.000	-0.036
-705.602	174.340	0.281	0.407
-704.587	800.000	0.065	-0.239
-703.572	-143.948	0.197	0.019
-702.558	-114.979	-0.161	0.031
-701.543	226.886	0.037	-0.061
-700.529	484.614	0.054	-0.124
-699.514	-200.000	0.029	-0.186
-698.499	92.573	0.203	-0.229
-697.485	137.565	-0.120	-0.158
-696.470	-181.900	-0.200	-0.004
-695.456	-200.000	0.009	-0.173
-694.441	287.759	0.079	0.142
-693.426	-43.348	-0.127	0.064
-692.412	-21.832	0.121	0.073
-691.397	-75.625	-0.350	0.124
-690.383	77.187	-0.083	-0.089
-689.368	-200.000	0.046	-0.293
-688.354	113.456	0.096	-0.116
-687.339	-131.709	0.417	-0.055
-686.324	770.947	0.041	-0.112
-685.310	-200.000	0.014	-0.218
-684.295	-200.000	0.045	0.338
-683.281	766.860	-0.043	-0.116
-682.266	-164.398	-0.236	-0.011
-681.251	204.212	0.082	0.126
-680.237	-171.598	-0.371	-0.012
-679.222	-128.580	-0.164	-0.023
-678.208	-139.119	0.296	-0.032
-677.193	-25.645	-0.384	0.227
-676.178	-117.298	-0.126	-0.023
-675.164	-41.606	0.143	-0.074
-674.149	18.820	-0.043	-0.034
-673.135	800.000	0.090	-0.302
-672.120	91.535	0.201	0.226
-671.105	431.180	-0.098	0.212
-670.091	800.000	-0.069	-0.229
-669.076	88.413	-0.018	0.020
-668.062	38.090	0.172	0.153
-667.047	-106.825	0.228	0.050
-666.032	36.008	-0.103	0.091
-665.018	41.303	-0.325	0.294
-664.003	51.253	0.447	-0.424
-662.989	54.728	-0.321	-0.310
-661.974	-200.000	0.023	0.203
-660.959	389.853	0.071	0.147
-659.945	800.000	0.099	-0.375
-658.930	17.543	-0.313	-0.249
-657.916	-65.588	-0.685	0.275
-656.901	800.000	-0.143	0.427
-655.886	28.029	-0.161	-0.136
-654.872	-157.050	-0.234	0.014
-653.857	-85.110	0.088	0.028
-652.843	60.035	-0.177	-0.175
-651.828	-135.319	0.055	-0.007
-650.814	-17.892	-0.127	0.079
-649.799	-6.889	0.249	0.169
-648.784	711.455	-0.094	0.249
-647.770	-200.000	-0.029	-0.206
-646.755	-107.249	-0.112	-0.025
-645.741	-42.011	-0.151	-0.077
-644.726	-200.000	0.080	-0.415
-643.711	800.000	-0.075	0.258
-642.697	-200.000	0.019	0.340
-641.682	491.054	0.114	0.260
-640.668	-117.115	-0.099	0.018
-639.653	369.888	-0.083	-0.169
-638.638	-127.248	-0.322	-0.047
-637.624	-200.000	0.039	-0.239
-636.609	209.397	0.080	-0.126
-635.595	-200.000	-0.052	-0.265
-634.580	120.195	-0.123	-0.153
-633.565	-200.000	-0.015	-0.253
-632.551	800.000	0.029	-0.107
-631.536	224.346	-0.205	0.331
-630.522	-149.378	-0.167	0.013
-629.507	324.747	-0.092	-0.175
-628.492	-130.874	-0.252	-0.034
-627.478	-144.052	0.079	-0.007
-626.463	-113.250	-0.237	-0.047
-625.449	72.180	-0.041	-0.043
-624.434	35.508	-0.231	-0.203
-623.419	-153.061	0.152	-0.011
-622.405	237.785	0.070	0.115
-621.390	-38.598	0.063	0.033
-620.376	333.649	0.084	-0.161
-619.361	161.987	0.333	-0.465
-618.346	-94.575	-0.058	-0.016
-617.332	46.111	-0.139	-0.129
-616.317	-91.092	0.179	0.051
-615.303	-186.296	-0.115	0.002
-614.288	182.839	-0.199	-0.293
-613.273	37.823	-0.258	-0.229
-612.259	3.937	0.228	-0.166
-611.244	310.564	-0.130	0.244
-610.230	-52.222	0.153	0.071
-609.215	-72.348	-0.348	-0.128
-608.201	532.418	0.056	0.133
-607.186	-200.000	-0.049	0.358
-606.171	-200.000	0.008	0.073
-605.157	382.983	0.014	0.028
-604.142	265.073	0.047	-0.081
-603.128	557.469	0.186	-0.448
-602.113	171.427	-0.176	-0.252
-601.098	-101.419	0.097	0.024
-600.084	-169.228	0.276	-0.010
-599.069	108.842	0.204	-0.243
-598.055	-85.395	0.109	-0.034
-597.040	223.847	0.040	0.064
-596.025	-32.562	0.203	-0.113
-595.011	800.000	-0.044	0.136
-593.996	-200.000	-0.003	-0.095
-592.982	-118.363	-0.094	0.017
-591.967	-46.874	0.159	-0.077
-590.952	128.381	-0.087	0.110
-589.938	90.151	-0.121	-0.134
-588.923	800.000	-0.083	0.250
-587.909	-36.442	-0.032	-0.017
-586.894	-133.967	0.119	-0.015
-585.879	-180.167	0.216	-0.005
-584.865	138.512	0.131	-0.171
-583.850	-94.584	-0.329	-0.089
-582.836	800.000	0.046	-0.187
-581.821	178.457	0.069	0.101
-580.806	224.365	0.076	0.122
-579.792	175.065	0.083	-0.120
-578.777	-15.936	-0.251	-0.160
-577.763	39.417	-0.127	0.113
-576.748	800.000	0.113	-0.377
-575.733	-15.428	-0.062	-0.040
-574.719	800.000	0.075	0.311
-573.704	-62.110	-0.234	-0.098
-572.690	105.597	-0.197	-0.232
-571.675	-163.726	0.173	-0.008
-570.661	2.762	-0.392	0.284
-569.646	16.165	0.344	-0.271
-568.631	309.728	-0.068	-0.127
-567.617	18.766	-0.061	-0.049
-566.602	109.422	0.147	-0.176
-565.588	800.000	-0.047	-0.175
-564.573	-200.000	0.044	-0.210
-563.558	-124.862	-0.228	-0.035
-562.544	-119.367	0.076	0.013
-561.529	-43.407	0.335	0.169
-560.515	-107.068	0.161	0.035
-559.500	6.921	-0.314	0.233
-558.485	-200.000	-0.055	0.315
-557.471	-200.000	0.006	-0.200
-556.456	-107.279	-0.290	0.064
-555.442	-138.973	0.204	-0.022
-554.427	334.881	0.106	-0.204
-553.412	40.770	0.047	-0.042
-552.398	-56.586	-0.285	-0.126
-551.383	-146.346	0.260	-0.023
-550.369	800.000	0.054	0.215
-549.354	652.373	0.021	0.055
-548.339	93.419	-0.146	0.164
-547.325	-76.463	-0.326	-0.114
-546.310	-79.068	-0.055	-0.019
-545.296	-119.584	-0.055	0.009
-544.281	-121.346	0.233	0.039
-543.266	-167.793	-0.402	-0.016
-542.252	467.440	0.141	-0.314
-541.237	-200.000	-0.025	0.127
-540.223	24.261	0.254	-0.209
-539.208	27.597	-0.195	-0.163
-538.193	-60.246	-0.226	0.096
-537.179	-47.501	0.107	-0.052
-536.164	587.830	-0.159	0.391
-535.150	-106.936	-0.336	0.074
-534.135	-110.349	-0.268	-0.055
-533.121	-130.432	0.379	-0.051
-532.106	-200.000	-0.022	-0.095
-531.091	-49.133	-0.260	-0.124
-530.077	800.000	0.051	0.174
-529.062	182.816	-0.147	0.216
-528.048	800.000	0.079	0.231
-527.033	800.000	-0.032	-0.118
-526.018	307.323	0.133	0.246
-525.004	425.934	0.088	-0.189
-523.989	549.307	-0.077	0.183
-522.975	800.000	0.033	-0.114
-521.960	-200.000	-0.010	0.085
-520.945	-200.000	0.034	-0.186
-519.931	-93.625	-0.437	-0.120
-518.916	-61.547	-0.063	-0.026
-517.902	106.279	0.162	0.191
-516.887	55.366	0.106	0.102
-515.872	800.000	0.042	0.143
-514.858	-200.000	0.029	0.128
-513.843	-107.498	-0.314	-0.068
-512.829	-32.592	0.177	-0.098
-511.814	114.644	0.089	-0.108
-510.799	-93.141	-0.298	-0.083
-509.785	783.409	-0.090	-0.246
-508.770	-76.596	-0.299	-0.104
-507.756	101.210	0.122	0.141
-506.741	-119.744	0.118	0.020
-505.726	-200.000	0.000	-0.067
-504.712	647.948	-0.040	-0.102
-503.697	-200.000	-0.009	0.159
-502.683	-200.000	0.071	0.381
-501.668	-152.927	0.452	-0.032
-500.653	115.145	0.065	0.079
-499.639	30.361	-0.399	-0.339
-498.624	800.000	0.025	-0.085
-497.610	-200.000	0.138	0.000
-496.595	-38.875	-0.214	-0.112
-495.581	-10.256	0.087	-0.057
-494.566	778.298	0.056	0.153
-493.551	102.974	0.211	0.246
-492.537	238.046	-0.107	0.176
-491.522	120.708	0.091	-0.113
-490.508	-7.052	0.260	0.175
-489.493	225.384	0.008	-0.013
-488.478	153.300	0.085	-0.115
-487.464	-200.000	0.015	-0.166
-486.449	110.820	0.035	-0.042
-485.435	800.000	-0.087	0.279
-484.420	800.000	0.064	0.233
-483.405	-87.454	-0.209	0.063
-482.391	-134.002	0.295	-0.036
-481.376	339.395	0.022	-0.043
-480.362	63.076	-0.153	0.152
-479.347	-156.495	-0.097	0.006
-478.332	-135.628	0.188	-0.022
-477.318	-110.487	0.099	-0.020
-476.303	800.000	0.070	0.275
-475.289	74.393	-0.110	-0.115
-474.274	-104.891	-0.237	0.054
-473.259	-200.000	-0.041	-0.279
-472.245	800.000	0.133	-0.397
-471.230	-200.000	-0.045	0.299
-470.216	54.614	-0.061	-0.058
-469.201	262.075	-0.181	0.312
-468.186	433.916	0.152	0.327
-467.172	767.774	0.018	0.050
-466.157	-31.723	0.143	0.079
-465.143	153.394	-0.111	0.151
-464.128	800.000	0.060	0.262
-463.113	-127.592	-0.204	0.029
-462.099	-79.773	0.328	0.110
-461.084	-200.000	0.050	0.275
-460.070	-92.594	0.316	-0.088
-459.055	-116.518	-0.461	0.084
-458.040	-37.067	0.083	0.044
-457.026	28.799	-0.181	-0.152
-456.011	177.157	-0.080	0.116
-454.997	54.313	0.105	0.100
-453.982	-43.132	0.444	0.223
-452.968	-200.000	0.008	0.146
-451.953	-139.722	-0.105	0.011
-450.938	-50.038	-0.337	-0.158
-449.924	168.990	-0.188	-0.265
-448.909	51.351	-0.107	-0.101
-447.895	-106.274	-0.197	-0.044
-446.880	47.712	-0.143	-0.132
-445.865	-108.669	0.220	-0.047
-444.851	-200.000	-0.021	-0.207
-443.836	-128.424	0.202	-0.028
-442.822	103.691	-0.110	0.128
-441.807	588.118	-0.237	-0.578
-440.792	-200.000	0.061	-0.396
-439.778	4.401	-0.359	-0.261
-438.763	-52.205	0.176	0.081
-437.749	83.880	-0.073	0.079
-436.734	-89.826	0.225	0.065
-435.719	70.213	0.049	-0.050
-434.705	120.386	-0.071	-0.087
-433.690	-145.434	-0.302	0.027
-432.676	71.399	-0.114	-0.117
-431.661	150.205	0.020	-0.026
-430.646	-59.060	-0.084	0.036
-429.632	22.406	0.091	-0.073
-428.617	-200.000	-0.043	0.432
-427.603	57.031	-0.055	-0.053
-426.588	521.384	-0.034	0.079
-425.573	-45.661	-0.299	-0.147
-424.559	-200.000	-0.002	0.149
-423.544	-13.718	0.056	0.036
-422.530	21.202	0.219	0.176
-421.515	13.710	0.079	-0.061
-420.500	170.971	0.031	-0.043
-419.486	776.568	0.068	0.185
-418.471	-162.161	0.280	-0.014
-417.457	92.079	-0.165	0.184
-416.442	251.597	-0.167	0.281
-415.428	131.160	-0.201	0.256
-414.413	646.017	-0.117	-0.295
-413.398	-4.604	0.122	-0.083
-412.384	-200.000	0.048	-0.359
-411.369	-2.367	-0.205	0.142
-410.355	-36.393	0.191	-0.102
-409.340	-200.000	-0.032	0.251
-408.325	-200.000	0.041	-0.352
-407.311	284.327	0.027	-0.048
-406.296	65.325	-0.111	-0.111
-405.282	-200.000	-0.022	-0.143
-404.267	-200.000	0.003	0.150
-403.252	-115.852	0.168	-0.031
-402.238	-28.388	-0.121	-0.069
-401.223	59.003	0.209	-0.203
-400.209	444.628	-0.163	0.355
-399.194	5.031	-0.080	-0.058
-398.179	-57.881	0.224	-0.097
-397.165	-200.000	-0.006	-0.219
-396.150	-49.969	-0.059	0.028
-395.136	-200.000	-0.016	-0.132
-394.121	324.819	-0.131	0.248
-393.106	800.000	0.098	0.359
-392.092	279.706	0.065	0.115
-391.077	-61.870	0.215	0.089
-390.063	-200.000	0.004	0.306
-389.048	314.434	0.054	-0.101
-388.033	-4.580	0.447	0.306
-387.019	41.210	0.145	-0.129
-386.004	352.881	0.059	0.116
-384.990	457.332	0.047	0.102
-383.975	-174.460	-0.474	-0.013
-382.960	-200.000	-0.041	-0.219
-381.946	0.736	0.215	0.152
-380.931	-28.047	0.183	0.105
-379.917	283.877	-0.304	0.541
-378.902	234.359	-0.052	0.085
-377.888	-200.000	0.029	0.127
-376.873	800.000	-0.031	-0.102
-375.858	-78.910	-0.139	-0.047
-374.844	-36.136	0.088	-0.047
-373.829	-46.408	-0.459	-0.223
-372.815	98.228	-0.039	0.044
-371.800	-53.740	-0.297	-0.134
-370.785	-200.000	-0.007	0.328
-369.771	333.883	-0.099	0.189
-368.756	88.341	0.138	-0.151
-367.742	70.754	0.208	-0.213
-366.727	20.983	0.033	-0.026
-365.712	-43.168	-0.316	0.158
-364.698	49.600	-0.171	-0.159
-363.683	-64.264	-0.226	0.091
-362.669	-66.345	-0.118	-0.046
-361.654	800.000	0.081	-0.280
-360.639	587.491	-0.100	-0.244
-359.625	18.172	-0.093	-0.073
-358.610	-200.000	-0.015	-0.107
-357.596	138.292	-0.110	-0.143
-356.581	-86.727	-0.136	-0.041
-355.566	295.751	-0.042	-0.076
-354.552	131.977	-0.104	-0.132
-353.537	121.825	0.107	-0.132
-352.523	383.196	0.197	0.400
-351.508	286.504	-0.041	0.074
-350.493	-2.435	0.105	-0.072
-349.479	434.597	0.116	-0.248
-348.464	413.597	0.101	0.212
-347.450	53.374	-0.148	-0.140
-346.435	512.955	0.089	-0.206
-345.420	66.086	0.242	-0.243
-344.406	-200.000	-0.009	0.170
-343.391	74.200	0.159	-0.165
-342.377	120.469	-0.330	-0.404
-341.362	439.734	0.064	0.138
-340.348	-77.288	-0.095	-0.033
-339.333	800.000	0.086	0.290
-338.318	242.916	-0.168	-0.278
-337.304	-200.000	0.027	0.136
-336.289	800.000	0.047	0.171
-335.275	92.963	0.116	-0.130
-334.260	-200.000	0.029	0.323
-333.245	-111.845	0.334	-0.067
-332.231	3.783	-0.120	-0.086
-331.216	-130.954	-0.251	-0.033
-330.202	-85.517	-0.117	0.036
-329.187	-200.000	0.017	-0.140
-328.172	59.049	-0.197	-0.192
-327.158	-200.000	0.047	0.215
-326.143	-31.385	0.111	0.062
-325.129	-62.926	0.427	-0.174
-324.114	-162.873	-0.085	0.004
-323.099	534.095	-0.211	-0.494
-322.085	-73.326	-0.083	0.030
-321.070	18.081	-0.323	-0.254
-320.056	283.293	0.025	-0.044
-319.041	29.468	0.358	0.300
-318.026	403.731	0.114	0.236
-317.012	30.205	0.158	-0.133
-315.997	-130.345	-0.189	-0.025
-314.983	-152.752	-0.281	-0.020
-313.968	62.017	0.226	0.222
-312.953	-34.087	0.260	-0.141
-311.939	800.000	0.038	0.137
-310.924	-200.000	0.000	0.147
-309.910	-141.600	-0.320	0.032
-308.895	596.068	0.046	0.113
-307.880	89.458	0.270	0.297
-306.866	10.601	0.283	0.212
-305.851	79.318	-0.183	-0.193
-304.837	800.000	-0.095	-0.263
-303.822	800.000	-0.023	0.072
-302.807	-200.000	-0.019	-0.203
-301.793	-200.000	0.023	0.221
-300.778	-141.588	-0.012	0.001
-299.764	-54.943	-0.303	0.135
-298.749	-31.058	0.426	0.237
-297.735	-13.564	0.081	0.052
-296.720	-26.416	-0.219	0.127
-295.705	-18.472	-0.214	0.132
-294.691	-200.000	-0.011	0.054
-293.676	-200.000	0.006	0.194
-292.662	-92.301	0.184	-0.051
-291.647	129.935	0.167	0.211
-290.632	-85.216	-0.306	-0.094
-289.618	800.000	-0.042	0.129
-288.603	-19.841	-0.154	0.094
-287.589	257.530	0.124	-0.210
-286.574	471.635	-0.116	0.256
-285.559	800.000	-0.037	0.160
-284.545	-60.524	0.165	0.069
-283.530	-47.500	0.174	0.083
-282.516	-69.283	0.093	-0.035
-281.501	-58.808	0.106	-0.045
-280.486	-200.000	-0.005	-0.047
-279.472	-35.005	0.048	-0.026
-278.457	42.467	0.153	-0.137
-277.443	-117.629	0.112	-0.020
-276.428	-85.489	-0.103	-0.032
-275.413	253.092	0.146	-0.246
-274.399	-134.544	0.244	-0.029
-273.384	-90.461	0.252	0.072
-272.370	-86.632	0.068	0.020
-271.355	-200.000	-0.032	0.158
-270.340	17.072	0.297	-0.232
-269.326	800.000	-0.103	-0.443
-268.311	-111.126	0.016	0.003
-267.297	-97.095	0.367	-0.095
-266.282	-200.000	0.002	0.068
-265.267	-200.000	-0.026	0.178
-264.253	158.647	0.280	-0.383
-263.238	-200.000	0.047	0.427
-262.224	-200.000	0.017	0.132
-261.209	68.089	0.154	-0.155
-260.195	-15.076	-0.084	-0.053
-259.180	-200.000	0.015	-0.141
-258.165	-19.232	0.275	0.168
-257.151	606.338	0.035	0.085
-256.136	282.997	0.122	0.216
-255.122	177.619	-0.053	0.076
-254.107	-141.796	-0.142	-0.014
-253.092	-104.723	-0.117	-0.026
-252.078	233.360	0.045	-0.073
-251.063	56.682	-0.203	0.194
-250.049	-47.097	0.292	-0.140
-249.034	-45.129	-0.241	-0.118
-248.019	-50.119	-0.355	-0.165
-247.005	-117.704	-0.212	-0.037
-245.990	-18.899	0.447	0.274
-244.976	34.513	-0.092	-0.079
-243.961	-200.000	0.007	0.050
-242.946	79.385	-0.234	-0.246
-241.932	331.076	0.071	-0.134
-240.917	-200.000	0.010	0.225
-239.903	-91.021	0.202	0.057
-238.888	-10.422	-0.089	-0.058
-237.873	34.029	0.131	-0.112
-236.859	-33.806	-0.279	-0.151
-235.844	-26.851	0.324	0.186
-234.830	179.749	0.100	-0.144
-233.815	608.884	-0.078	0.191
-232.800	272.590	-0.078	0.136
-231.786	141.290	0.102	-0.132
-230.771	-2.415	0.155	-0.107
-229.757	-200.000	-0.002	0.068
-228.742	4.667	-0.096	-0.069
-227.727	64.907	0.059	0.058
-226.713	127.226	0.108	0.135
-225.698	209.041	-0.190	0.292
-224.684	67.449	0.124	-0.124
-223.669	-200.000	0.023	0.181
-222.655	800.000	0.114	0.409
-221.640	158.300	0.018	0.025
-220.625	63.466	0.057	0.056
-219.611	-43.568	-0.132	-0.065
-218.596	276.756	-0.183	-0.320
-217.582	-19.402	0.169	-0.103
-216.567	-16.621	0.316	0.197
-215.552	190.589	-0.242	-0.357
-214.538	800.000	-0.049	0.156
-213.523	800.000	-0.017	-0.053
-212.509	-6.060	0.209	0.141
-211.494	199.376	0.059	0.089
-210.479	-45.427	0.165	0.081
-209.465	-75.647	-0.155	0.054
-208.450	-169.534	0.300	0.011
-207.436	205.457	-0.085	-0.130
-206.421	800.000	0.054	0.160
-205.406	539.298	-0.091	0.214
-204.392	-200.000	-0.275	0.000
-203.377	81.181	0.192	-0.204
-202.363	-111.763	0.164	0.033
-201.348	22.907	-0.161	-0.129
-200.333	800.000	-0.019	0.073
-199.319	159.902	-0.204	0.280
-198.304	-200.000	-0.003	0.150
-197.290	-139.654	0.134	0.014
-196.275	-70.510	-0.164	-0.061
-195.260	33.734	-0.207	0.177
-194.246	114.840	-0.127	-0.152
-193.231	-26.620	0.343	-0.197
-192.217	-200.000	0.029	-0.204
-191.202	-74.408	-0.035	0.012
-190.187	406.236	0.142	0.294
-189.173	212.484	-0.034	-0.053
-188.158	382.480	0.117	0.235
-187.144	-86.944	0.294	-0.088
-186.129	800.000	0.115	0.332
-185.114	-20.980	-0.196	0.118
-184.100	-15.200	0.111	-0.070
-183.085	-62.911	0.294	-0.119
-182.071	36.331	-0.126	0.109
-181.056	66.963	0.133	-0.133
-180.042	620.952	0.044	0.109
-179.027	-130.546	0.163	0.022
-178.012	200.307	0.059	-0.088
-176.998	-99.158	0.351	0.087
-175.983	84.251	-0.097	0.104
-174.969	-7.229	0.035	-0.023
-173.954	-115.144	0.230	-0.043
-172.939	-160.547	0.170	0.009
-171.925	800.000	-0.061	0.193
-170.910	-150.022	0.109	0.008
-169.896	173.093	0.163	-0.231
-168.881	-76.030	0.098	0.034
-167.866	572.094	0.053	-0.127
-166.852	20.723	0.098	0.078
-165.837	-10.474	0.123	0.080
-164.823	-67.355	0.125	0.048
-163.808	-164.738	-0.391	0.017
-162.793	-44.783	-0.050	-0.024
-161.779	125.264	0.125	-0.155
-160.764	227.220	-0.063	-0.101
-159.750	-85.075	-0.029	-0.009
-158.735	-114.008	-0.339	0.064
-157.720	360.197	0.043	-0.085
-156.706	-200.000	-0.022	0.179
-155.691	-168.377	-0.195	-0.007
-154.677	-200.000	-0.006	-0.305
-153.662	-53.663	0.078	-0.035
-152.647	27.124	-0.364	0.300
-151.633	136.357	0.093	0.118
-150.618	0.366	0.152	-0.106
-149.604	800.000	-0.100	-0.334
-148.589	88.969	0.244	-0.266
-147.574	-110.255	0.274	-0.056
-146.560	800.000	0.050	0.215
-145.545	-200.000	-0.027	-0.170
-144.531	176.783	0.098	0.140
-143.516	-112.390	-0.163	0.032
-142.502	38.400	-0.286	0.249
-141.487	-78.571	0.163	-0.055
-140.472	800.000	0.025	0.096
-139.458	-8.836	0.183	-0.120
-138.443	72.581	-0.115	-0.118
-137.429	-26.654	-0.158	0.091
-136.414	-86.326	-0.267	-0.080
-135.399	26.883	0.005	-0.004
-134.385	-200.000	-0.001	-0.400
-133.370	313.000	0.065	0.120
-132.356	-53.702	0.147	-0.066
-131.341	99.524	0.132	0.150
-130.326	800.000	-0.043	0.152
-129.312	1.268	0.185	0.130
-128.297	481.627	0.093	0.206
-127.283	204.513	-0.021	0.032
-126.268	-34.356	0.165	-0.089
-125.253	48.780	-0.119	-0.110
-124.239	-36.768	-0.160	0.084
-123.224	-113.724	-0.073	-0.014
-122.210	-137.991	0.218	0.024
-121.195	-146.094	0.061	-0.005
-120.180	-53.033	-0.173	-0.078
-119.166	569.441	0.042	0.100
-118.151	149.145	0.039	0.052
-117.137	107.652	0.238	0.277
-116.122	-10.141	-0.238	0.154
-115.107	3.503	-0.171	-0.122
-114.093	171.200	-0.106	0.149
-113.078	18.818	-0.093	-0.073
-112.064	-200.000	-0.032	0.284
-111.049	173.471	0.167	-0.236
-110.034	800.000	-0.094	0.330
-109.020	-200.000	0.006	0.101
-108.005	-181.348	-0.210	0.004
-106.991	-100.622	0.245	-0.059
-105.976	10.634	-0.070	0.052
-104.962	145.473	-0.203	-0.266
-103.947	-122.215	0.287	-0.046
-102.932	53.234	0.072	0.067
-101.918	-29.058	0.057	-0.032
-100.903	-200.000	0.029	-0.173
-99.889	-124.018	-0.196	-0.030
-98.874	100.839	-0.073	-0.083
-97.859	18.034	0.197	-0.153
-96.845	4.568	-0.222	-0.159
-95.830	800.000	0.042	-0.165
-94.816	-43.273	-0.391	-0.193
-93.801	-78.694	-0.070	0.023
-92.786	-62.744	-0.207	-0.084
-91.772	-20.789	0.185	-0.111
-90.757	-170.714	-0.411	-0.014
-89.743	238.007	0.054	-0.087
-88.728	-16.926	-0.045	0.028
-87.713	-156.938	-0.148	-0.009
-86.699	23.357	0.311	0.250
-85.684	-42.032	-0.287	-0.144
-84.670	103.667	0.021	0.024
-83.655	-43.319	-0.110	-0.054
-82.640	800.000	-0.107	0.308
-81.626	-118.682	-0.158	-0.027
-80.611	176.162	-0.151	0.215
-79.597	649.002	-0.089	0.224
-78.582	-17.011	0.062	-0.038
-77.567	159.320	0.129	0.175
-76.553	30.857	-0.123	0.103
-75.538	-85.732	-0.052	-0.016
-74.524	-33.700	-0.246	0.133
-73.509	-10.953	-0.323	-0.208
-72.494	203.639	0.193	0.292
-71.480	40.326	-0.266	-0.234
-70.465	-142.569	-0.247	-0.024
-69.451	-151.891	0.394	-0.028
-68.436	-186.375	-0.238	-0.003
-67.422	800.000	-0.061	0.232
-66.407	391.111	0.037	-0.075
-65.392	75.183	-0.101	0.104
-64.378	-114.942	0.262	0.049
-63.363	-148.470	-0.102	-0.008
-62.349	-80.384	0.307	0.100
-61.334	54.440	-1.134	-1.067
-60.319	160.196	0.426	0.581
-59.305	800.000	-0.298	-1.160
-58.290	187.862	0.831	1.212
-57.276	211.950	0.913	1.405
-56.261	-200.000	117.301	643.502
-55.246	487.438	1551.050	3455.972
-54.232	174.831	2717.914	3841.003
-53.217	103.244	2172.723	2487.153
-52.203	36.661	1689.654	1456.894
-51.188	29.468	1505.053	1249.199
-50.173	27.109	1480.248	1212.833
-49.159	49.119	1541.949	1414.288
-48.144	47.956	1556.019	1419.200
-47.130	29.375	1511.035	1253.332
-46.115	26.494	1495.875	1221.291
-45.100	26.274	1492.348	1216.887
-44.086	26.243	1490.624	1215.221
-43.071	26.228	1488.689	1213.495
-42.057	26.178	1487.395	1212.057
-41.042	26.236	1485.678	1210.997
-40.027	26.174	1484.463	1209.544
-39.013	26.186	1482.784	1208.209
-37.998	26.210	1482.000	1207.685
-36.984	26.222	1480.715	1206.670
-35.969	26.216	1479.304	1205.432
-34.954	26.233	1477.659	1204.156
-33.940	26.245	1476.038	1202.869
-32.925	26.378	1474.545	1202.489
-31.911	26.260	1473.450	1200.763
-30.896	26.218	1472.472	1199.638
-29.881	26.428	1470.670	1199.514
-28.867	26.239	1469.881	1197.570
-27.852	26.216	1468.692	1196.400
-26.838	26.256	1467.330	1195.510
-25.823	26.392	1465.341	1194.743
-24.809	26.268	1464.473	1193.167
-23.794	26.274	1462.948	1191.920
-22.779	26.374	1461.320	1191.200
-21.765	26.283	1460.602	1189.967
-20.750	26.295	1459.317	1188.956
-19.736	26.281	1458.365	1188.042
-18.721	26.280	1457.517	1187.293
-17.706	26.292	1455.829	1185.950
-16.692	26.236	1455.427	1185.210
-15.677	26.290	1453.826	1184.217
-14.663	26.221	1453.230	1183.229
-13.648	26.153	1452.501	1182.145
-12.633	26.262	1451.152	1181.711
-11.619	26.231	1450.763	1181.146
-10.604	26.203	1449.304	1179.731
-9.590	26.208	1448.793	1179.300
-8.575	26.224	1447.469	1178.279
-7.560	26.184	1446.907	1177.514
-6.546	26.271	1446.017	1177.310
-5.531	26.205	1445.001	1176.006
-4.517	26.205	1444.145	1175.262
-3.502	26.162	1443.356	1174.292
-2.487	26.269	1442.413	1174.176
-1.473	26.282	1440.950	1173.021
-0.458	26.295	1439.360	1171.764
0.556	27.872	1429.788	1160.227
1.571	24.627	1405.798	1120.349
2.586	21.157	1347.391	1052.815
3.600	19.633	1266.560	980.921
4.615	18.534	1222.070	940.360
5.629	16.438	1166.193	886.305
6.644	9.834	1085.223	792.367
7.659	4.893	1049.033	742.376
8.673	4.262	1043.796	735.611
9.688	4.070	1040.544	732.348
10.702	3.889	1038.908	730.277
11.717	3.970	1036.949	729.217
12.731	6.361	1038.231	741.323
13.746	13.511	1048.269	782.308
14.761	20.064	1056.798	819.713
15.775	22.319	1058.978	832.007
16.790	21.939	1057.975	829.349
17.804	20.979	1055.564	822.855
18.819	20.159	1054.103	817.779
19.834	19.872	1052.451	815.072
20.848	19.743	1052.054	814.085
21.863	19.896	1051.453	814.267
22.877	19.642	1050.732	812.442
23.892	19.524	1049.586	810.933
24.907	19.307	1049.034	809.417
25.921	19.271	1048.711	808.924
26.936	19.252	1048.036	808.244
27.950	19.351	1046.159	807.187
28.965	19.258	1045.539	806.202
29.980	19.324	1044.646	805.752
30.994	19.501	1043.440	805.575
32.009	19.692	1042.990	806.049
33.023	19.676	1042.126	805.236
34.038	19.681	1041.268	804.523
35.053	19.724	1039.943	803.629
36.067	19.445	1039.418	801.854
37.082	19.406	1038.248	800.704
38.096	19.441	1037.695	800.366
39.111	19.385	1037.407	799.812
40.126	19.670	1036.295	800.204
41.140	19.491	1034.618	798.012
42.155	19.193	1033.480	795.688
43.169	18.941	1032.682	793.841
44.184	18.855	1031.278	792.295
45.199	18.862	1030.324	791.524
46.213	18.834	1029.496	790.687
47.228	19.013	1028.438	790.626
48.242	19.398	1027.454	791.567
49.257	19.387	1027.198	791.250
50.271	19.284	1026.377	790.076
51.286	19.489	1025.466	790.246
52.301	19.496	1024.519	789.474
53.315	19.463	1024.088	788.923
54.330	19.275	1023.434	787.490
55.344	19.263	1021.926	786.207
56.359	19.122	1021.072	784.838
57.374	19.073	1020.031	783.744
58.388	19.063	1019.166	782.966
59.403	18.969	1018.751	782.148
60.417	18.886	1017.183	780.499
61.432	18.894	1017.277	780.540
62.447	18.994	1016.310	780.183
63.461	18.818	1015.125	778.403
64.476	18.765	1014.267	777.441
65.490	18.666	1013.396	776.256
66.505	18.714	1012.613	775.801
67.520	18.619	1012.001	774.835
68.534	18.740	1011.440	774.886
69.549	18.709	1010.619	774.047
70.563	18.725	1009.790	773.414
71.578	18.625	1009.254	772.487
72.593	18.681	1007.576	771.384
73.607	18.449	1006.947	769.792
74.622	18.398	1006.357	769.045
75.636	18.489	1005.020	768.363
76.651	18.551	1004.441	768.129
77.666	18.526	1004.157	767.732
78.680	18.574	1002.918	766.931
79.695	18.591	1002.589	766.689
80.709	18.613	1001.852	766.157
81.724	18.758	1001.543	766.500
82.739	18.825	1000.711	766.096
83.753	19.058	999.995	766.515
84.768	19.249	999.563	766.968
85.782	19.553	999.408	768.132
86.797	19.770	998.711	768.493
87.812	19.815	997.739	767.877
88.826	19.642	996.683	766.230
89.841	19.647	995.435	765.225
90.855	19.636	995.082	764.837
91.870	19.680	994.363	764.409
92.884	19.775	993.620	764.193
93.899	19.886	992.750	763.944
94.914	19.717	991.840	762.434
95.928	19.762	991.486	762.292
96.943	19.904	990.470	762.069
97.957	19.635	989.711	760.231
98.972	19.555	988.836	759.141
99.987	19.564	988.240	758.658
101.001	19.601	987.129	757.902
102.016	19.594	986.455	757.286
103.030	19.626	985.398	756.544
104.045	19.665	984.725	756.132
105.060	19.557	984.260	755.237
106.074	19.614	982.727	754.243
107.089	19.342	981.567	752.099
108.103	18.983	980.785	749.867
109.118	18.944	979.409	748.582
110.133	18.741	978.933	747.265
111.147	18.818	977.570	746.493
112.162	18.738	976.964	745.617
113.176	18.763	976.032	744.948
114.191	18.836	975.524	744.811
115.206	19.124	974.733	745.388
116.220	18.925	973.907	743.830
117.235	18.987	973.292	743.564
118.249	18.813	972.563	742.190
119.264	18.778	971.509	741.167
120.279	18.623	970.920	739.983
121.293	18.744	969.633	739.458
122.308	18.740	968.724	738.683
123.322	18.639	968.241	737.815
124.337	18.424	967.048	735.919
125.352	18.491	965.730	735.138
126.366	18.525	964.726	734.453
127.381	18.550	963.541	733.592
128.395	18.365	963.014	732.335
129.410	18.478	962.274	732.192
130.424	18.702	961.109	732.197
131.439	18.628	960.444	731.311
132.454	18.823	959.856	731.628
133.468	18.908	959.264	731.472
134.483	18.933	958.656	731.053
135.497	18.954	958.146	730.687
136.512	18.894	957.433	729.822
137.527	18.929	956.743	729.382
138.541	18.859	956.105	728.535
139.556	19.046	955.138	728.526
140.570	19.091	954.475	728.144
141.585	19.030	953.909	727.392
142.600	19.450	953.703	728.945
143.614	19.465	952.867	728.304
144.629	19.458	952.302	727.776
145.643	19.719	951.013	727.826
146.658	19.707	950.183	727.077
147.673	19.428	949.419	725.255
148.687	19.198	947.695	722.909
149.702	19.193	947.221	722.462
150.716	19.010	946.013	720.712
151.731	18.944	945.178	719.733
152.746	18.965	944.695	719.392
153.760	19.212	944.014	719.842
154.775	19.053	943.470	718.699
155.789	19.087	942.564	718.085
156.804	19.175	942.092	718.031
157.819	19.299	941.347	717.915
158.833	19.315	940.394	717.193
159.848	19.636	939.728	717.956
160.862	19.751	939.350	718.082
161.877	19.729	937.926	716.838
162.892	19.297	936.974	714.255
163.906	18.898	936.231	711.976
164.921	19.184	934.864	712.054
165.935	18.890	934.741	710.681
166.950	19.164	933.611	710.891
167.964	19.269	932.377	710.323
168.979	19.153	931.878	709.402
169.994	19.079	930.794	708.210
171.008	19.037	929.896	707.291
172.023	19.159	929.218	707.212
173.037	19.291	928.810	707.382
174.052	19.574	927.918	707.798
175.067	19.680	926.859	707.362
176.081	19.139	925.898	704.353
177.096	18.977	924.653	702.684
178.110	18.842	923.974	701.553
179.125	19.050	923.509	701.989
180.140	19.038	923.180	701.628
181.154	19.080	922.364	701.116
182.169	19.210	922.130	701.404
183.183	19.395	921.980	701.981
184.198	19.562	921.114	701.940
185.213	19.558	920.344	701.276
186.227	19.647	919.537	700.957
187.242	19.622	919.390	700.683
188.256	19.698	918.602	700.330
189.271	19.813	918.138	700.377
190.286	19.864	917.387	699.951
191.300	19.657	916.489	698.366
192.315	19.160	914.785	695.001
193.329	18.870	914.263	693.374
194.344	18.738	913.779	692.414
195.359	18.862	913.852	692.904
196.373	19.225	913.140	693.766
197.388	19.402	912.267	693.754
198.402	19.438	911.815	693.495
199.417	19.656	911.853	694.336
200.432	19.868	911.827	695.110
201.446	19.931	910.963	694.639
202.461	20.174	910.771	695.409
203.475	20.217	910.668	695.441
204.490	20.147	909.509	694.211
205.504	19.900	908.278	692.224
206.519	19.667	907.371	690.539
207.534	19.534	906.970	689.642
208.548	19.555	905.600	688.623
209.563	19.704	905.109	688.786
210.577	19.550	904.663	687.771
211.592	19.620	904.423	687.806
212.607	19.844	903.935	688.264
213.621	20.128	903.262	688.820
214.636	20.098	902.210	687.839
215.650	19.919	901.942	686.861
216.665	19.800	901.418	685.932
217.680	19.993	900.991	686.309
218.694	20.144	900.493	686.467
219.709	20.262	899.926	686.441
220.723	20.048	899.541	685.241
221.738	20.028	898.613	684.394
222.753	19.929	897.828	683.347
223.767	19.878	897.137	682.559
224.782	19.967	896.705	682.521
225.796	20.298	895.738	683.027
226.811	20.301	895.097	682.489
227.826	20.109	894.760	681.417
228.840	19.955	893.715	679.955
229.855	19.950	892.912	679.265
230.869	19.950	892.409	678.821
231.884	19.823	891.799	677.802
232.899	19.890	890.407	676.944
233.913	19.689	890.106	675.868
234.928	19.632	889.852	675.396
235.942	19.510	888.817	674.073
236.957	19.512	888.111	673.486
237.972	19.547	887.619	673.191
238.986	19.636	886.774	672.835
240.001	19.463	886.551	671.933
241.015	19.574	885.604	671.589
242.030	19.790	884.832	671.781
243.045	19.761	884.300	671.207
244.059	19.851	883.814	671.129
245.074	19.953	883.050	670.882
246.088	19.976	882.631	670.592
247.103	20.095	882.177	670.650
248.117	20.213	881.590	670.599
249.132	20.320	881.590	670.957
250.147	20.591	881.267	671.698
251.161	20.937	880.648	672.501
252.176	21.012	880.308	672.471
253.190	21.019	879.520	671.837
254.205	21.087	879.017	671.653
255.220	21.289	878.186	671.739
256.234	21.052	877.363	670.137
257.249	20.966	877.179	669.606
258.263	20.944	876.491	668.940
259.278	20.979	875.953	668.603
260.293	20.954	875.507	668.108
261.307	21.167	874.483	668.082
262.322	21.019	874.074	667.146
263.336	21.125	873.496	667.049
264.351	21.068	873.268	666.600
265.366	21.130	872.192	665.954
266.380	21.095	871.910	665.548
267.395	21.185	871.187	665.280
268.409	20.974	870.531	663.918
269.424	20.856	869.625	662.716
270.439	20.757	869.341	662.068
271.453	20.993	868.344	662.145
272.468	20.867	866.868	660.484
273.482	20.720	866.509	659.594
274.497	20.691	866.156	659.158
275.512	20.652	865.360	658.346
276.526	20.777	864.563	658.152
277.541	20.726	864.201	657.628
278.555	20.602	863.755	656.760
279.570	21.063	863.213	658.031
280.585	21.141	862.933	658.051
281.599	21.298	862.364	658.153
282.614	21.172	861.092	656.648
283.628	20.793	860.733	654.893
284.643	20.817	860.270	654.573
285.657	20.845	859.687	654.176
286.672	20.825	859.551	653.939
287.687	20.954	858.426	653.507
288.701	20.963	858.332	653.415
289.716	20.969	857.543	652.778
290.730	20.911	856.849	651.975
291.745	20.924	856.706	651.855
292.760	20.940	855.847	651.203
293.774	20.957	855.875	651.234
294.789	21.217	855.029	651.499
295.803	21.398	854.392	651.631
296.818	21.151	853.768	650.180
297.833	20.927	852.778	648.533
298.847	20.955	851.884	647.900
299.862	20.915	851.670	647.531
300.876	21.012	851.123	647.418
301.891	21.183	850.383	647.432
302.906	21.297	849.854	647.396
303.920	21.330	849.450	647.152
304.935	21.516	848.543	647.094
305.949	21.660	848.693	647.682
306.964	21.631	847.813	646.847
307.979	21.438	846.950	645.417
308.993	21.278	846.700	644.580
310.008	21.459	846.057	644.702
311.022	21.534	845.415	644.430
312.037	21.442	845.269	643.923
313.052	21.253	844.263	642.405
314.066	21.077	843.238	640.921
315.081	20.912	842.925	640.021
316.095	20.697	842.566	638.901
317.110	20.972	841.403	638.972
318.125	21.095	840.844	638.942
319.139	20.883	840.890	638.146
320.154	20.991	840.155	637.924
321.168	20.977	839.543	637.351
322.183	20.975	838.976	636.860
323.197	21.168	838.736	637.323
324.212	21.005	838.609	636.578
325.227	21.168	837.617	636.361
326.241	21.158	837.085	635.864
327.256	20.908	836.557	634.498
328.270	21.122	835.948	634.756
329.285	20.916	835.435	633.564
330.300	20.936	834.918	633.188
331.314	20.885	834.445	632.586
332.329	21.168	833.429	632.788
333.343	21.215	832.956	632.544
334.358	21.391	832.742	632.961
335.373	21.649	831.753	633.085
336.387	21.398	831.650	632.044
337.402	21.384	831.408	631.756
338.416	21.594	830.772	631.974
339.431	21.708	830.446	632.080
340.446	21.965	829.673	632.363
341.460	21.949	829.129	631.836
342.475	22.066	829.032	632.126
343.489	21.971	828.811	631.560
344.504	22.108	827.971	631.356
345.519	22.115	827.507	630.971
346.533	22.291	827.046	631.196
347.548	22.233	826.505	630.521
348.562	21.842	825.883	628.587
349.577	21.717	824.778	627.242
350.592	21.617	824.097	626.314
351.606	21.614	823.356	625.685
352.621	21.488	823.387	625.202
353.635	21.496	822.586	624.565
354.650	21.452	822.587	624.355
355.665	21.602	822.177	624.523
356.679	21.577	821.936	624.196
357.694	21.782	821.435	624.489
358.708	21.867	820.721	624.194
359.723	21.804	819.666	623.113
360.738	21.720	819.637	622.738
361.752	21.763	818.845	622.233
362.767	21.829	818.874	622.433
363.781	21.964	818.010	622.202
364.796	22.255	818.043	623.204
365.810	22.314	817.681	623.080
366.825	22.294	817.625	622.913
367.840	22.472	817.246	623.197
368.854	22.314	816.783	622.230
369.869	22.384	815.621	621.540
370.883	22.195	815.158	620.462
371.898	22.134	814.570	619.745
372.913	22.336	814.221	620.139
373.927	22.428	813.793	620.079
374.942	22.551	812.821	619.718
375.956	22.155	812.430	617.972
376.971	22.205	812.302	617.995
377.986	22.469	811.370	618.160
379.000	22.708	810.956	618.628
380.015	22.552	810.938	618.014
381.029	22.617	809.892	617.388
382.044	22.592	809.129	616.666
383.059	22.676	808.432	616.373
384.073	22.568	807.985	615.598
385.088	22.533	807.602	615.131
386.102	22.302	806.952	613.775
387.117	22.149	806.026	612.484
388.132	22.182	805.489	612.137
389.146	22.067	805.415	611.627
390.161	22.114	804.848	611.303
391.175	22.235	805.120	611.876
392.190	22.584	804.306	612.418
393.205	22.365	804.129	611.470
394.219	22.220	803.062	610.100
395.234	22.202	802.622	609.649
396.248	21.984	802.087	608.435
397.263	22.127	801.413	608.365
398.278	22.000	800.645	607.287
399.292	21.937	800.247	606.715
400.307	21.719	800.414	606.031
401.321	21.702	799.944	605.564
402.336	22.040	799.492	606.335
403.350	21.903	799.465	605.789
404.365	22.172	798.846	606.194
405.380	22.348	798.089	606.173
406.394	22.598	798.192	607.060
407.409	22.672	797.628	606.832
408.423	22.778	797.524	607.061
409.438	22.776	796.871	606.503
410.453	22.893	796.524	606.588
411.467	23.013	795.828	606.418
412.482	22.818	795.527	605.465
413.496	22.990	795.171	605.729
414.511	23.041	794.761	605.538
415.526	23.160	794.222	605.482
416.540	22.969	794.064	604.654
417.555	22.944	793.124	603.798
418.569	22.921	792.805	603.423
419.584	22.842	792.751	603.060
420.599	22.890	792.489	602.971
421.613	165.165	1370.588	1796.654
422.628	143.272	1454.823	1796.719
