DTS Sentinel unit serial number:	SN413079Multiplexer serial number:	ORYXHardware model number:	OX4-SRSoftware version number:	ORYX F/W v4.00 Oryx Data Collector v3.7.2.0data status	okinstallation	princeton_trtdifferential loss correction	single-endedforward channel	channel 3reverse channel	N/Adate	2019/09/12time	04:38:11forward acquisition time	60.00reverse acquisition time	0.00gamma	496.2192k internal	0.2324k external	0.2324temperature offset calibration	1.0112default loss term (dB/km)	0.3790temperature slope calibration	1.0000multiplexer offset coefficient	1.0000multiplexer slope coefficient	1.0000fibre end	0.00T internal ref (°C)	31.62T ext. ref 1 (°C)	2.85T ext. ref 2 (°C)	27.02length (m)	temperature (°C)	Stokes	anti-Stokes-747.200	-20.330	0.206	0.128
-746.185	-66.493	-0.194	0.078
-745.171	-200.000	0.000	-0.035
-744.156	-96.449	-0.297	-0.079
-743.142	-47.061	0.398	-0.196
-742.127	-17.788	-0.102	0.064
-741.112	-200.000	-0.013	-0.332
-740.098	-10.377	-0.258	-0.173
-739.083	14.724	0.136	0.107
-738.069	-69.578	-0.115	0.044
-737.054	-90.408	0.184	0.054
-736.039	92.415	-0.053	0.060
-735.025	-61.949	0.120	-0.051
-734.010	44.034	-0.346	-0.320
-732.996	-84.827	-0.141	-0.045
-731.981	-74.296	0.272	0.099
-730.966	29.408	-0.192	0.165
-729.952	-76.879	0.173	0.061
-728.937	-200.000	-0.035	-0.166
-727.923	-1.971	0.239	-0.169
-726.908	154.735	0.126	-0.175
-725.894	51.473	-0.329	-0.316
-724.879	68.523	0.109	-0.112
-723.864	80.124	0.095	-0.103
-722.850	153.791	0.057	0.079
-721.835	234.312	0.114	-0.189
-720.821	-24.515	-0.275	-0.165
-719.806	-56.175	-0.129	0.058
-718.791	-48.394	-0.454	0.220
-717.777	131.606	-0.105	0.136
-716.762	-69.318	0.147	-0.057
-715.748	98.668	-0.100	-0.116
-714.733	-21.588	0.264	0.162
-713.718	-97.646	-0.295	0.077
-712.704	164.830	-0.120	0.171
-711.689	-200.000	-0.010	-0.319
-710.675	11.605	0.106	-0.082
-709.660	262.624	0.063	-0.110
-708.645	126.398	0.313	-0.400
-707.631	73.525	0.298	0.315
-706.616	235.244	-0.094	0.157
-705.602	-88.077	0.414	-0.125
-704.587	800.000	-0.126	-0.453
-703.572	-123.930	-0.477	-0.076
-702.558	-200.000	-0.028	-0.653
-701.543	800.000	0.047	-0.159
-700.529	-119.448	-0.176	-0.031
-699.514	336.173	0.080	0.157
-698.499	-189.794	0.299	-0.003
-697.485	-149.342	-0.088	-0.007
-696.470	-75.070	-0.130	0.047
-695.456	513.293	-0.115	0.271
-694.441	-44.772	-0.326	-0.164
-693.426	112.460	-0.145	-0.176
-692.412	-112.929	0.323	-0.064
-691.397	96.242	0.309	-0.356
-690.383	107.834	-0.052	0.062
-689.368	506.561	-0.095	-0.221
-688.354	-200.000	0.011	0.239
-687.339	-88.451	0.356	-0.107
-686.324	155.861	0.180	0.250
-685.310	163.679	-0.092	-0.131
-684.295	-11.808	0.090	-0.059
-683.281	-30.954	-0.096	-0.055
-682.266	-55.927	0.264	-0.119
-681.251	800.000	-0.075	0.242
-680.237	161.529	-0.088	0.124
-679.222	239.689	0.078	-0.131
-678.208	-200.000	0.022	-0.162
-677.193	-18.574	0.216	0.136
-676.178	7.172	-0.148	-0.111
-675.164	800.000	-0.033	-0.129
-674.149	108.881	-0.112	0.135
-673.135	33.592	0.123	0.107
-672.120	143.700	-0.094	0.126
-671.105	729.272	0.063	-0.169
-670.091	94.564	0.162	-0.185
-669.076	-105.101	0.200	0.046
-668.062	-2.981	-0.141	0.099
-667.047	1.013	-0.066	-0.048
-666.032	800.000	0.074	-0.288
-665.018	-200.000	-0.077	0.500
-664.003	-200.000	-0.034	0.178
-662.989	-153.918	0.347	-0.024
-661.974	414.293	-0.089	0.190
-660.959	308.330	0.072	-0.136
-659.945	-200.000	-0.015	-0.390
-658.930	98.116	-0.165	0.191
-657.916	-21.886	-0.128	0.078
-656.901	-200.000	-0.005	0.158
-655.886	-200.000	-0.047	0.210
-654.872	261.083	-0.048	0.084
-653.857	112.248	-0.140	-0.170
-652.843	420.233	0.075	-0.163
-651.828	3.932	-0.434	-0.319
-650.814	231.611	-0.153	0.252
-649.799	-69.392	0.032	-0.012
-648.784	-0.761	-0.105	-0.075
-647.770	19.578	-0.200	0.162
-646.755	317.928	0.120	-0.228
-645.741	-95.182	-0.263	-0.071
-644.726	-200.000	-0.035	-0.179
-643.711	-51.554	0.282	-0.132
-642.697	302.702	0.173	0.322
-641.682	67.862	-0.047	0.049
-640.668	-79.306	-0.453	0.154
-639.653	145.476	0.116	0.156
-638.638	-200.000	0.054	0.291
-637.624	252.722	-0.072	0.123
-636.609	-155.874	0.146	-0.009
-635.595	-21.192	0.096	0.059
-634.580	-97.133	0.388	0.102
-633.565	-200.000	0.001	-0.347
-632.551	-63.035	0.244	-0.101
-631.536	800.000	0.055	-0.198
-630.522	-200.000	0.011	0.429
-629.507	-110.604	0.061	0.013
-628.492	37.498	0.192	-0.171
-627.478	-15.287	0.133	0.085
-626.463	43.808	0.131	-0.121
-625.449	-200.000	0.044	-0.528
-624.434	-110.590	-0.095	0.020
-623.419	24.973	-0.173	-0.144
-622.405	800.000	-0.040	0.131
-621.390	-64.528	-0.039	0.016
-620.376	-200.000	-0.004	0.081
-619.361	-76.960	-0.250	0.088
-618.346	118.346	0.073	0.090
-617.332	-78.905	0.025	-0.008
-616.317	-45.606	0.084	0.042
-615.303	-60.964	0.213	0.091
-614.288	93.178	-0.165	-0.187
-613.273	-50.558	-0.275	0.130
-612.259	-200.000	-0.037	0.333
-611.244	-123.972	-0.049	-0.008
-610.230	800.000	0.002	0.009
-609.215	800.000	0.079	0.225
-608.201	-42.577	0.079	-0.040
-607.186	800.000	-0.066	-0.192
-606.171	800.000	0.117	-0.362
-605.157	-200.000	0.056	0.343
-604.142	66.487	-0.373	-0.381
-603.128	302.852	0.034	-0.062
-602.113	-42.281	-0.334	0.171
-601.098	-47.023	-0.161	-0.079
-600.084	-200.000	-0.062	-0.428
-599.069	28.539	0.102	0.087
-598.055	73.774	-0.090	-0.094
-597.040	-136.083	0.034	0.004
-596.025	-200.000	0.005	-0.082
-595.011	-62.776	-0.256	0.106
-593.996	-125.527	0.095	0.015
-592.982	257.900	0.196	0.338
-591.967	800.000	-0.028	-0.110
-590.952	304.583	0.065	0.121
-589.938	232.879	0.096	-0.159
-588.923	-200.000	-0.016	-0.340
-587.909	-22.647	0.293	0.177
-586.894	-61.657	0.286	0.120
-585.879	-25.472	-0.168	-0.100
-584.865	75.528	0.311	0.329
-583.850	50.854	0.265	-0.251
-582.836	120.563	0.056	-0.070
-581.821	-64.346	0.365	0.149
-580.806	192.421	0.041	0.062
-579.792	123.898	-0.417	-0.525
-578.777	800.000	0.028	0.091
-577.763	-95.680	0.225	-0.060
-576.748	293.017	-0.053	-0.096
-575.733	72.528	-0.066	-0.070
-574.719	78.973	-0.146	-0.156
-573.704	-56.135	0.108	-0.048
-572.690	-200.000	-0.003	-0.140
-571.675	-200.000	0.033	-0.222
-570.661	91.924	0.209	-0.236
-569.646	-86.543	0.169	-0.052
-568.631	-25.675	-0.064	0.038
-567.617	-200.000	0.012	-0.265
-566.602	188.796	0.166	0.249
-565.588	-43.989	-0.176	0.089
-564.573	-123.738	-0.269	-0.043
-563.558	-78.101	0.106	0.037
-562.544	165.623	-0.137	0.194
-561.529	-1.389	-0.175	-0.124
-560.515	-200.000	0.007	0.195
-559.500	97.079	0.078	0.090
-558.485	72.585	-0.060	-0.062
-557.471	4.374	0.166	0.122
-556.456	-69.315	-0.250	-0.096
-555.442	-200.000	0.005	-0.366
-554.427	-3.812	0.394	-0.274
-553.412	-22.843	-0.140	0.084
-552.398	-114.115	0.269	-0.052
-551.383	-200.000	0.061	0.276
-550.369	220.529	0.192	0.308
-549.354	69.537	-0.046	0.047
-548.339	-34.017	0.315	0.173
-547.325	50.520	-0.412	0.390
-546.310	-166.718	0.326	-0.014
-545.296	87.874	-0.087	0.097
-544.281	242.402	-0.216	0.362
-543.266	-72.722	-0.204	0.075
-542.252	-151.106	-0.109	-0.008
-541.237	-109.062	0.462	-0.099
-540.223	450.588	0.086	-0.190
-539.208	800.000	-0.022	0.089
-538.193	-148.249	0.125	0.010
-537.179	121.660	0.034	0.043
-536.164	-149.059	0.275	-0.022
-535.150	28.098	-0.153	-0.130
-534.135	-62.792	0.266	0.110
-533.121	800.000	-0.042	-0.117
-532.106	122.415	-0.137	-0.172
-531.091	177.421	0.030	-0.044
-530.077	-200.000	-0.052	0.284
-529.062	-40.429	-0.405	-0.211
-528.048	192.185	-0.205	0.310
-527.033	800.000	0.131	-0.501
-526.018	-200.000	-0.009	-0.105
-525.004	800.000	-0.081	-0.339
-523.989	41.483	-0.284	-0.258
-522.975	-200.000	-0.025	-0.163
-521.960	343.752	0.097	0.191
-520.945	35.097	-0.095	0.083
-519.931	-200.000	-0.021	0.142
-518.916	-135.431	0.300	0.036
-517.902	14.129	-0.147	0.114
-516.887	4.685	-0.248	-0.182
-515.872	-14.076	0.311	0.201
-514.858	-35.295	0.150	0.082
-513.843	-17.092	0.288	-0.182
-512.829	-200.000	0.026	0.267
-511.814	571.865	-0.101	0.246
-510.799	-200.000	-0.003	-0.151
-509.785	-127.399	0.170	0.025
-508.770	-28.311	0.047	-0.027
-507.756	-200.000	0.035	0.280
-506.741	-200.000	-0.013	0.231
-505.726	-119.518	0.336	-0.058
-504.712	-157.303	0.248	0.015
-503.697	-118.902	0.056	0.010
-502.683	-200.000	0.043	-0.323
-501.668	-105.529	-0.076	0.017
-500.653	-200.000	0.066	0.355
-499.639	800.000	-0.099	0.385
-498.624	178.259	-0.105	0.153
-497.610	-200.000	-0.010	-0.402
-496.595	-11.040	-0.240	0.158
-495.581	800.000	0.038	0.159
-494.566	-134.203	0.355	0.044
-493.551	-63.862	0.104	-0.043
-492.537	63.361	-0.116	0.116
-491.522	-83.145	0.174	-0.056
-490.508	-23.037	0.173	0.104
-489.493	-25.028	0.202	0.120
-488.478	-60.348	0.160	-0.068
-487.464	58.156	-0.178	0.175
-486.449	-100.486	0.177	0.044
-485.435	-200.000	0.045	0.326
-484.420	-14.338	-0.015	0.010
-483.405	501.019	0.082	0.188
-482.391	-133.517	-0.358	-0.045
-481.376	-76.321	0.196	0.069
-480.362	-55.393	0.426	-0.191
-479.347	201.257	0.051	-0.078
-478.332	65.797	-0.260	0.264
-477.318	-84.109	-0.235	0.075
-476.303	-38.072	-0.367	-0.195
-475.289	188.945	0.169	0.252
-474.274	52.860	0.046	-0.044
-473.259	-134.689	-0.308	-0.037
-472.245	21.338	0.177	0.143
-471.230	38.832	-0.094	-0.084
-470.216	278.713	-0.203	-0.362
-469.201	-50.184	-0.110	-0.052
-468.186	-200.000	0.020	-0.159
-467.172	-59.612	0.273	0.117
-466.157	-102.956	-0.105	0.025
-465.143	-81.226	-0.167	0.055
-464.128	-124.440	0.210	-0.033
-463.113	800.000	-0.065	-0.259
-462.099	470.095	-0.074	-0.167
-461.084	-200.000	0.010	0.140
-460.070	-46.152	0.159	0.078
-459.055	26.194	0.228	0.190
-458.040	91.323	0.127	0.142
-457.026	-92.244	0.072	0.020
-456.011	-28.057	-0.255	-0.147
-454.997	131.979	0.312	0.401
-453.982	-77.264	-0.075	0.026
-452.968	288.309	0.048	-0.087
-451.953	372.014	0.254	0.514
-450.938	-92.628	-0.223	-0.062
-449.924	-200.000	0.042	0.256
-448.909	52.913	-0.439	-0.419
-447.895	47.085	-0.119	-0.110
-446.880	-79.133	0.140	-0.047
-445.865	-200.000	0.002	0.099
-444.851	-2.256	0.305	-0.213
-443.836	-120.744	0.195	0.033
-442.822	-78.427	-0.241	-0.082
-441.807	-168.393	-0.159	0.006
-440.792	-200.000	0.049	0.283
-439.778	166.837	0.068	0.097
-438.763	132.957	-0.079	-0.102
-437.749	-83.912	-0.211	0.067
-436.734	-43.542	-0.061	0.031
-435.719	-99.140	-0.433	0.109
-434.705	-56.787	-0.313	-0.138
-433.690	184.534	0.171	0.252
-432.676	-200.000	0.009	0.165
-431.661	-200.000	0.062	-0.345
-430.646	78.906	0.062	-0.066
-429.632	81.464	0.240	-0.259
-428.617	562.244	-0.109	-0.263
-427.603	285.080	-0.109	0.195
-426.588	800.000	0.072	0.199
-425.573	-30.484	0.202	0.114
-424.559	706.178	0.038	0.100
-423.544	-140.414	-0.068	-0.007
-422.530	-200.000	0.037	-0.224
-421.515	275.851	0.136	-0.241
-420.500	-2.054	0.064	0.045
-419.486	39.483	0.339	0.303
-418.471	-62.434	0.066	0.027
-417.457	-200.000	0.004	0.090
-416.442	800.000	0.089	0.249
-415.428	25.731	-0.065	0.054
-414.413	23.570	0.114	-0.093
-413.398	222.917	0.046	0.074
-412.384	26.877	-0.099	-0.082
-411.369	121.828	0.067	-0.083
-410.355	800.000	-0.152	-0.497
-409.340	241.982	-0.146	-0.242
-408.325	-200.000	0.016	0.195
-407.311	162.663	0.060	-0.085
-406.296	96.481	-0.168	0.192
-405.282	366.541	-0.226	-0.454
-404.267	-89.325	0.229	-0.067
-403.252	-200.000	-0.007	-0.139
-402.238	-163.190	0.281	0.013
-401.223	105.322	0.051	0.060
-400.209	426.811	-0.094	-0.201
-399.194	-42.111	0.079	-0.040
-398.179	800.000	0.063	-0.266
-397.165	-200.000	-0.044	0.401
-396.150	91.146	-0.142	-0.158
-395.136	-21.046	0.198	0.120
-394.121	401.602	0.107	0.224
-393.106	-0.460	0.047	0.033
-392.092	-200.000	-0.021	-0.110
-391.077	-200.000	0.035	0.604
-390.063	128.747	0.077	-0.097
-389.048	-200.000	0.048	0.233
-388.033	-114.166	-0.121	-0.023
-387.019	-200.000	-0.127	-0.000
-386.004	219.356	0.063	0.100
-384.990	-54.679	0.200	0.090
-383.975	9.497	0.171	-0.129
-382.960	-11.355	-0.328	0.215
-381.946	255.463	-0.121	0.206
-380.931	-7.327	-0.149	-0.101
-379.917	-200.000	0.018	0.433
-378.902	344.966	0.078	-0.153
-377.888	800.000	0.192	-0.530
-376.873	-200.000	-0.031	0.222
-375.858	469.307	-0.150	0.335
-374.844	800.000	-0.104	0.350
-373.829	-200.000	-0.027	0.335
-372.815	800.000	0.022	-0.073
-371.800	-200.000	0.011	0.261
-370.785	-73.002	0.192	0.070
-369.771	-56.792	0.077	0.034
-368.756	393.209	-0.160	-0.331
-367.742	-173.639	-0.100	-0.003
-366.727	423.736	0.093	-0.199
-365.712	196.915	-0.270	-0.409
-364.698	64.691	0.216	0.216
-363.683	137.928	-0.295	0.384
-362.669	-143.575	-0.259	0.024
-361.654	800.000	-0.040	-0.160
-360.639	-30.520	0.244	0.138
-359.625	-62.885	-0.152	0.063
-358.610	-55.947	-0.055	0.024
-357.596	-200.000	0.070	-0.631
-356.581	-21.186	0.117	0.071
-355.566	-200.000	-0.001	-0.022
-354.552	-97.214	0.214	0.056
-353.537	7.933	-0.186	0.138
-352.523	-200.000	-0.017	0.095
-351.508	99.088	0.311	-0.357
-350.493	800.000	0.067	0.213
-349.479	-19.664	0.181	0.111
-348.464	-72.006	0.072	0.027
-347.450	-23.753	0.159	-0.095
-346.435	-200.000	0.005	-0.024
-345.420	2.120	-0.253	0.181
-344.406	124.884	-0.066	0.082
-343.391	-5.295	-0.039	0.027
-342.377	-200.000	0.076	0.000
-341.362	326.767	-0.215	-0.410
-340.348	67.143	0.153	-0.155
-339.333	192.100	0.023	0.034
-338.318	-8.069	-0.132	-0.088
-337.304	-200.000	-0.075	0.329
-336.289	171.879	-0.072	0.103
-335.275	-200.000	-0.038	-0.212
-334.260	107.230	-0.218	0.257
-333.245	-82.269	-0.250	-0.081
-332.231	-107.346	-0.187	-0.041
-331.216	-20.894	-0.036	0.022
-330.202	-165.506	0.271	0.012
-329.187	800.000	-0.084	0.253
-328.172	-42.905	0.029	0.015
-327.158	496.715	-0.044	-0.101
-326.143	-200.000	-0.449	-0.001
-325.129	180.376	0.173	-0.252
-324.114	155.271	-0.101	0.138
-323.099	239.307	-0.112	-0.184
-322.085	111.554	0.147	-0.176
-321.070	755.341	-0.043	0.116
-320.056	-200.000	0.015	-0.067
-319.041	-39.482	-0.087	0.045
-318.026	208.842	-0.129	0.201
-317.012	-182.006	0.251	0.005
-315.997	47.659	0.342	0.317
-314.983	-87.655	-0.469	0.140
-313.968	212.262	0.037	0.058
-312.953	41.568	-0.167	-0.150
-311.939	-68.262	-0.192	0.074
-310.924	239.213	-0.132	0.217
-309.910	800.000	-0.088	0.271
-308.895	-154.684	0.276	0.018
-307.880	-46.995	-0.269	0.131
-306.866	-17.481	-0.229	-0.143
-305.851	127.551	-0.247	-0.311
-304.837	677.004	0.112	-0.289
-303.822	-68.903	0.114	0.043
-302.807	225.004	0.097	0.156
-301.793	-106.110	-0.254	0.057
-300.778	-200.000	0.029	-0.402
-299.764	-76.667	0.256	0.089
-298.749	-156.196	-0.199	0.012
-297.735	147.920	-0.202	0.270
-296.720	5.647	0.058	0.043
-295.705	59.362	0.161	-0.157
-294.691	-200.000	-0.007	-0.177
-293.676	-200.000	-0.192	-0.000
-292.662	-66.357	0.057	0.023
-291.647	-74.895	-0.466	-0.166
-290.632	-15.744	-0.148	0.093
-289.618	-170.176	0.119	0.004
-288.603	-116.655	-0.352	0.064
-287.589	71.414	-0.175	-0.180
-286.574	-88.416	0.156	0.046
-285.559	-200.000	-0.005	-0.066
-284.545	759.540	0.062	0.167
-283.530	199.106	0.104	0.157
-282.516	-47.545	0.346	0.167
-281.501	681.405	0.102	0.262
-280.486	-200.000	-0.003	-0.044
-279.472	-68.280	-0.244	-0.094
-278.457	397.881	0.050	0.104
-277.443	-181.421	0.230	0.004
-276.428	252.555	-0.114	0.192
-275.413	-36.667	-0.400	0.213
-274.399	16.365	0.155	-0.121
-273.384	160.951	-0.109	-0.150
-272.370	422.515	0.083	0.177
-271.355	-200.000	0.017	-0.086
-270.340	371.489	-0.214	-0.429
-269.326	-200.000	0.053	-0.276
-268.311	-14.040	0.189	0.121
-267.297	-100.571	-0.243	-0.060
-266.282	-143.025	-0.126	-0.012
-265.267	-42.084	0.288	0.146
-264.253	-97.409	-0.207	0.053
-263.238	800.000	0.036	-0.140
-262.224	-46.736	0.092	-0.045
-261.209	53.636	-0.071	-0.067
-260.195	-47.637	-0.041	-0.020
-259.180	145.705	0.161	-0.214
-258.165	-200.000	0.041	-0.190
-257.151	-83.844	-0.113	0.036
-256.136	595.196	0.093	-0.227
-255.122	-113.211	-0.368	0.072
-254.107	206.811	-0.174	0.269
-253.092	379.006	-0.144	0.293
-252.078	800.000	-0.070	0.208
-251.063	166.406	0.109	-0.153
-250.049	-112.259	0.320	0.064
-249.034	-72.087	0.209	0.077
-248.019	-38.214	-0.259	-0.136
-247.005	800.000	-0.052	0.163
-245.990	175.417	0.113	0.162
-244.976	112.563	-0.144	0.172
-243.961	-200.000	0.025	-0.306
-242.946	-200.000	-0.002	-0.139
-241.932	176.658	-0.185	-0.267
-240.917	-200.000	0.034	-0.183
-239.903	-200.000	0.008	-0.128
-238.888	102.209	0.222	0.257
-237.873	-200.000	-0.032	0.146
-236.859	-200.000	-0.034	-0.357
-235.844	-200.000	0.031	-0.154
-234.830	-89.829	0.161	0.047
-233.815	15.431	0.221	0.172
-232.800	800.000	0.054	-0.198
-231.786	-200.000	-0.051	-0.293
-230.771	-66.629	-0.471	-0.185
-229.757	5.613	-0.204	-0.149
-228.742	-120.348	0.168	-0.028
-227.727	-150.608	-0.241	0.018
-226.713	-93.495	-0.249	0.068
-225.698	-182.255	0.162	-0.003
-224.684	-64.703	-0.484	0.194
-223.669	-200.000	0.051	0.308
-222.655	-176.513	0.179	-0.005
-221.640	153.092	-0.203	0.275
-220.625	-160.958	0.179	-0.009
-219.611	-200.000	0.000	-0.060
-218.596	1.771	0.211	-0.150
-217.582	-167.976	0.162	-0.006
-216.567	-102.063	0.304	0.072
-215.552	-200.000	-0.013	-0.165
-214.538	124.006	0.175	0.217
-213.523	-33.995	-0.107	-0.058
-212.509	-200.000	-0.007	-0.142
-211.494	-140.720	-0.250	-0.026
-210.479	350.867	-0.022	0.043
-209.465	40.024	0.167	0.149
-208.450	-112.025	0.246	-0.049
-207.436	428.114	-0.118	-0.253
-206.421	-88.791	0.217	0.064
-205.406	73.429	-0.116	0.120
-204.392	81.974	-0.169	-0.181
-203.377	427.751	0.072	-0.154
-202.363	-96.119	0.076	-0.020
-201.348	172.026	0.027	0.039
-200.333	105.672	-0.217	-0.254
-199.319	800.000	-0.081	-0.278
-198.304	-42.946	0.051	-0.026
-197.290	-131.213	0.241	-0.032
-196.275	-24.508	0.191	-0.112
-195.260	24.047	-0.163	-0.133
-194.246	161.640	0.087	-0.121
-193.231	160.760	-0.163	-0.225
-192.217	112.614	0.153	-0.183
-191.202	84.731	-0.064	-0.069
-190.187	586.716	-0.074	-0.181
-189.173	-116.974	-0.052	-0.009
-188.158	301.605	-0.054	0.098
-187.144	-58.524	-0.259	0.111
-186.129	-200.000	-0.017	0.190
-185.114	-190.519	0.085	-0.001
-184.100	-95.692	0.139	-0.037
-183.085	-123.422	0.218	-0.034
-182.071	-200.000	0.048	0.231
-181.056	-73.614	-0.393	0.141
-180.042	-200.000	-0.014	-0.126
-179.027	-62.925	0.208	0.085
-178.012	-56.856	0.205	-0.089
-176.998	-200.000	-0.005	-0.050
-175.983	77.349	-0.068	0.071
-174.969	297.393	-0.069	-0.126
-173.954	63.425	0.188	0.186
-172.939	24.926	-0.270	-0.221
-171.925	-104.726	0.166	0.038
-170.910	574.498	-0.024	-0.057
-169.896	-200.000	0.057	-0.311
-168.881	153.645	0.120	-0.162
-167.866	800.000	-0.069	-0.245
-166.852	-94.080	0.116	0.031
-165.837	-200.000	0.004	0.051
-164.823	109.929	0.140	-0.166
-163.808	-119.106	-0.121	-0.021
-162.793	-200.000	0.024	-0.112
-161.779	-50.134	-0.322	-0.150
-160.764	-126.350	-0.361	-0.053
-159.750	-82.510	-0.194	0.062
-158.735	133.270	0.076	0.097
-157.720	-43.166	0.210	-0.105
-156.706	201.627	-0.030	0.045
-155.691	-200.000	-0.036	0.202
-154.677	-56.257	0.289	0.127
-153.662	-80.569	-0.299	0.098
-152.647	-76.787	0.147	-0.051
-151.633	800.000	-0.038	-0.112
-150.618	-200.000	-0.025	0.338
-149.604	-200.000	0.020	-0.214
-148.589	246.513	-0.055	-0.091
-147.574	-200.000	0.022	-0.243
-146.560	123.746	-0.223	0.277
-145.545	-61.153	0.426	-0.177
-144.531	800.000	0.028	-0.115
-143.516	-173.298	0.065	0.002
-142.502	119.515	0.108	-0.131
-141.487	736.301	0.148	-0.392
-140.472	373.261	-0.128	0.256
-139.458	7.261	-0.295	0.217
-138.443	-151.103	0.184	-0.014
-137.429	485.305	-0.067	-0.151
-136.414	79.745	-0.104	0.110
-135.399	800.000	0.016	0.062
-134.385	800.000	-0.052	0.181
-133.370	339.549	-0.043	-0.083
-132.356	-13.650	0.130	0.083
-131.341	28.064	-0.203	0.169
-130.326	-146.398	0.201	0.017
-129.312	-135.325	0.418	0.049
-128.297	800.000	-0.062	0.242
-127.283	176.264	-0.110	-0.158
-126.268	-142.555	-0.177	-0.017
-125.253	-200.000	-0.004	0.087
-124.239	-200.000	-0.024	-0.254
-123.224	-64.682	0.240	-0.096
-122.210	71.028	-0.215	-0.219
-121.195	-200.000	-0.026	-0.276
-120.180	255.242	-0.118	-0.200
-119.166	-77.342	0.388	-0.133
-118.151	-126.749	0.094	-0.014
-117.137	800.000	-0.014	-0.042
-116.122	-91.358	-0.229	0.064
-115.107	-200.000	0.051	0.219
-114.093	178.753	0.155	0.223
-113.078	-200.000	0.100	-0.562
-112.064	800.000	0.009	-0.025
-111.049	-200.000	-0.020	0.182
-110.034	-177.228	0.183	-0.004
-109.020	-17.000	0.438	-0.272
-108.005	37.380	0.177	0.155
-106.991	-7.967	0.109	0.072
-105.976	142.331	0.153	-0.200
-104.962	-139.988	0.146	0.015
-103.947	-21.490	0.168	-0.101
-102.932	-65.802	-0.297	-0.117
-101.918	18.895	0.207	-0.163
-100.903	51.124	0.146	0.137
-99.889	800.000	-0.032	0.118
-98.874	800.000	0.043	0.137
-97.859	-138.377	-0.094	-0.010
-96.845	298.529	0.067	0.122
-95.830	238.758	0.199	0.325
-94.816	-200.000	-0.038	0.291
-93.801	103.288	0.224	0.259
-92.786	179.737	0.159	0.229
-91.772	-113.900	0.103	0.020
-90.757	-59.210	-0.110	-0.047
-89.743	53.285	-0.246	0.232
-88.728	-108.098	0.422	0.090
-87.713	318.786	0.107	0.200
-86.699	753.855	-0.089	0.238
-85.684	-137.036	0.066	0.007
-84.670	-70.366	0.411	0.153
-83.655	17.188	-0.033	-0.026
-82.640	-61.279	0.306	0.127
-81.626	-44.836	-0.217	0.107
-80.611	-89.737	0.173	0.050
-79.597	-200.000	0.027	0.160
-78.582	-59.606	0.111	-0.047
-77.567	800.000	-0.031	-0.087
-76.553	-31.348	-0.153	0.084
-75.538	-46.028	0.089	0.043
-74.524	236.112	0.059	-0.096
-73.509	-85.255	0.275	0.084
-72.494	800.000	0.065	-0.180
-71.480	63.450	0.118	-0.117
-70.465	203.595	0.135	-0.206
-69.451	167.802	0.098	-0.137
-68.436	371.607	0.094	0.187
-67.422	-31.856	-0.065	-0.036
-66.407	-106.813	0.082	0.018
-65.392	114.630	0.232	-0.278
-64.378	800.000	0.059	0.249
-63.363	-98.325	-0.122	-0.031
-62.349	-200.000	-0.005	-0.063
-61.334	84.165	-0.946	-1.016
-60.319	64.573	0.295	0.293
-59.305	229.252	-0.587	-0.942
-58.290	579.670	0.503	1.210
-57.276	649.943	0.626	1.575
-56.261	-200.000	97.065	595.321
-55.246	548.951	1372.508	3231.116
-54.232	161.917	2550.586	3509.637
-53.217	111.910	2152.963	2554.539
-52.203	42.302	1696.982	1515.090
-51.188	34.931	1509.648	1298.003
-50.173	32.371	1483.194	1258.115
-49.159	52.080	1532.786	1434.604
-48.144	53.722	1550.941	1462.706
-47.130	35.006	1510.183	1298.763
-46.115	31.802	1495.590	1264.589
-45.100	31.785	1491.979	1261.370
-44.086	31.677	1489.989	1258.908
-43.071	31.629	1488.112	1256.950
-42.057	31.661	1486.659	1255.890
-41.042	31.655	1485.026	1254.422
-40.027	31.605	1484.125	1253.274
-39.013	31.522	1482.746	1251.505
-37.998	31.641	1480.814	1250.618
-36.984	31.636	1479.837	1249.715
-35.969	31.619	1478.558	1248.471
-34.954	31.650	1476.715	1247.070
-33.940	31.641	1475.694	1246.099
-32.925	31.736	1474.149	1245.373
-31.911	31.710	1472.789	1244.007
-30.896	31.749	1471.482	1243.108
-29.881	31.696	1470.657	1242.013
-28.867	31.729	1468.897	1240.693
-27.852	31.748	1467.533	1239.620
-26.838	31.666	1466.257	1237.949
-25.823	31.667	1464.384	1236.326
-24.809	31.607	1463.223	1234.902
-23.794	31.557	1461.856	1233.369
-22.779	31.711	1460.562	1233.245
-21.765	31.680	1459.183	1231.827
-20.750	31.709	1458.050	1231.010
-19.736	31.511	1457.439	1229.146
-18.721	31.672	1455.769	1228.746
-17.706	31.539	1455.120	1227.276
-16.692	31.589	1453.798	1226.440
-15.677	31.610	1452.487	1225.420
-14.663	31.575	1451.810	1224.574
-13.648	31.670	1450.559	1224.093
-12.633	31.644	1450.048	1223.439
-11.619	31.598	1449.512	1222.637
-10.604	31.483	1448.667	1221.130
-9.590	31.549	1447.719	1220.713
-8.575	31.683	1446.739	1220.713
-7.560	31.616	1445.601	1219.267
-6.546	31.543	1444.707	1217.985
-5.531	31.535	1443.926	1217.229
-4.517	31.597	1442.966	1216.772
-3.502	31.657	1441.194	1215.618
-2.487	31.676	1440.296	1214.938
-1.473	31.541	1440.097	1213.847
-0.458	31.562	1438.516	1212.602
0.556	32.838	1430.183	1202.161
1.571	30.362	1404.587	1165.028
2.586	27.494	1348.284	1100.922
3.600	26.120	1270.094	1029.158
4.615	24.845	1223.441	984.262
5.629	21.083	1165.862	918.097
6.644	11.104	1080.326	801.761
7.659	3.931	1039.308	737.172
8.673	3.181	1033.822	729.664
9.688	2.856	1030.770	725.906
10.702	2.721	1029.371	724.220
11.717	2.623	1027.463	722.354
12.731	5.693	1030.799	739.133
13.746	15.569	1043.806	795.366
14.761	23.766	1054.542	842.516
15.775	26.099	1056.377	854.977
16.790	26.254	1056.685	855.884
17.804	26.169	1055.789	854.678
18.819	26.078	1055.207	853.702
19.834	26.169	1054.372	853.381
20.848	26.159	1054.240	853.153
21.863	26.263	1053.905	853.295
22.877	26.350	1053.495	853.300
23.892	26.276	1053.235	852.665
24.907	26.198	1052.357	851.509
25.921	26.235	1051.222	850.689
26.936	26.222	1050.503	849.971
27.950	26.116	1049.773	848.809
28.965	26.048	1049.025	847.809
29.980	26.017	1047.072	846.008
30.994	26.079	1046.251	845.562
32.009	26.325	1044.912	845.554
33.023	26.322	1044.829	845.397
34.038	26.022	1043.310	842.695
35.053	26.197	1042.496	842.781
36.067	26.322	1042.053	842.930
37.082	26.231	1041.573	842.044
38.096	26.211	1040.791	841.244
39.111	26.370	1039.846	841.144
40.126	26.563	1038.983	841.268
41.140	26.421	1037.846	839.614
42.155	26.199	1036.290	837.252
43.169	25.822	1035.260	834.601
44.184	25.870	1034.041	833.767
45.199	25.873	1033.383	833.173
46.213	25.954	1031.955	832.325
47.228	25.855	1031.388	831.336
48.242	26.056	1030.874	831.776
49.257	26.143	1030.504	831.804
50.271	26.067	1029.486	830.561
51.286	26.307	1028.700	830.953
52.301	26.297	1028.101	830.350
53.315	26.293	1027.631	829.881
54.330	26.260	1026.555	828.786
55.344	26.174	1026.164	828.000
56.359	26.144	1024.732	826.638
57.374	26.263	1023.944	826.471
58.388	26.072	1022.974	824.742
59.403	26.069	1022.192	824.025
60.417	26.044	1021.456	823.246
61.432	25.833	1020.681	821.587
62.447	25.822	1019.712	820.682
63.461	25.987	1019.516	821.204
64.476	25.981	1018.666	820.422
65.490	25.895	1018.021	819.439
66.505	25.998	1016.442	818.559
67.520	25.874	1016.197	817.728
68.534	26.042	1015.402	817.777
69.549	25.927	1014.206	816.220
70.563	25.592	1012.997	813.663
71.578	25.377	1012.470	812.193
72.593	25.552	1011.592	812.210
73.607	25.337	1010.502	810.293
74.622	25.363	1009.857	809.819
75.636	25.641	1008.735	810.101
76.651	25.863	1007.801	810.278
77.666	25.622	1007.422	808.817
78.680	25.696	1006.169	808.073
79.695	25.634	1005.958	807.554
80.709	25.717	1005.353	807.368
81.724	25.771	1004.943	807.211
82.739	25.892	1003.318	806.375
83.753	25.835	1002.889	805.703
84.768	25.953	1002.481	805.829
85.782	26.388	1001.731	807.100
86.797	26.689	1000.921	807.716
87.812	26.512	1000.410	806.444
88.826	26.542	998.961	805.340
89.841	26.468	998.521	804.586
90.855	26.372	998.040	803.698
91.870	26.520	996.877	803.348
92.884	26.537	996.193	802.802
93.899	26.351	995.281	801.172
94.914	26.263	994.372	799.978
95.928	26.302	993.708	799.547
96.943	26.393	993.194	799.465
97.957	26.007	991.734	796.512
98.972	25.936	990.630	795.243
99.987	25.732	989.456	793.334
101.001	25.903	988.868	793.544
102.016	26.133	988.353	794.073
103.030	26.215	987.483	793.665
104.045	26.070	986.690	792.320
105.060	25.953	985.229	790.562
106.074	25.928	984.016	789.410
107.089	25.938	982.906	788.491
108.103	26.249	983.101	789.940
109.118	26.348	982.253	789.623
110.133	26.020	980.609	786.798
111.147	26.012	979.986	786.194
112.162	25.795	979.378	784.693
113.176	25.582	977.950	782.553
114.191	25.819	977.207	782.916
115.206	25.938	976.446	782.758
116.220	25.559	975.255	780.087
117.235	25.467	974.671	779.154
118.249	25.512	974.221	778.920
119.264	25.688	973.114	778.727
120.279	25.421	972.152	776.733
121.293	25.497	971.509	776.481
122.308	25.583	971.146	776.491
123.322	25.594	970.334	775.821
124.337	25.612	968.710	774.535
125.352	25.415	967.755	772.854
126.366	24.946	966.324	769.625
127.381	24.793	964.929	767.789
128.395	25.339	964.749	769.922
129.410	26.112	964.286	772.796
130.424	26.091	963.497	772.004
131.439	26.056	962.841	771.263
132.454	26.108	961.761	770.552
133.468	26.143	960.709	769.790
134.483	26.069	959.837	768.708
135.497	26.093	959.347	768.350
136.512	26.199	958.889	768.364
137.527	26.322	958.126	768.209
138.541	26.424	957.194	767.824
139.556	26.292	956.494	766.637
140.570	26.407	955.812	766.508
141.585	26.397	954.747	765.546
142.600	26.496	954.333	765.565
143.614	26.342	953.454	764.143
144.629	26.546	952.133	763.875
145.643	26.766	951.925	764.568
146.658	26.642	950.872	763.133
147.673	26.377	949.980	761.233
148.687	26.173	949.386	759.832
149.702	26.164	948.054	758.660
150.716	26.183	947.059	757.878
151.731	26.200	945.553	756.675
152.746	26.238	945.239	756.519
153.760	26.262	944.916	756.295
154.775	26.520	943.884	756.479
155.789	26.601	943.244	756.237
156.804	26.421	942.476	754.802
157.819	26.362	941.355	753.595
158.833	26.402	940.759	753.215
159.848	26.632	939.923	753.436
160.862	26.622	939.031	752.613
161.877	26.528	937.882	751.234
162.892	26.478	937.219	750.430
163.906	26.636	936.445	750.400
164.921	26.445	935.926	749.124
165.935	26.499	934.455	748.107
166.950	26.553	933.875	747.798
167.964	26.432	933.146	746.649
168.979	26.446	932.025	745.745
169.994	26.367	931.005	744.536
171.008	26.219	930.360	743.345
172.023	26.439	929.511	743.504
173.037	26.566	929.022	743.572
174.052	26.453	927.598	741.900
175.067	26.251	926.459	740.096
176.081	26.209	925.681	739.239
177.096	26.259	925.243	739.027
178.110	26.257	923.926	737.901
179.125	26.039	923.430	736.550
180.140	25.871	922.338	734.930
181.154	25.823	921.422	733.940
182.169	26.038	921.275	734.633
183.183	26.264	920.785	735.098
184.198	26.517	920.748	736.030
185.213	26.531	919.901	735.346
186.227	26.326	919.230	733.912
187.242	26.438	918.848	733.999
188.256	26.547	917.910	733.626
189.271	26.571	917.144	733.045
190.286	26.637	916.243	732.526
191.300	26.454	915.517	731.143
192.315	25.929	914.072	727.804
193.329	25.158	912.422	723.319
194.344	24.674	911.876	720.868
195.359	25.394	911.895	723.724
196.373	26.306	911.936	727.363
197.388	26.520	911.893	728.125
198.402	26.405	911.400	727.206
199.417	26.319	910.734	726.267
200.432	26.442	910.074	726.167
201.446	26.214	909.711	724.901
202.461	25.978	908.777	723.142
203.475	25.954	908.357	722.650
204.490	25.672	906.830	720.244
205.504	24.491	905.069	714.062
206.519	24.946	905.154	715.883
207.534	25.902	905.087	719.584
208.548	25.953	904.472	719.235
209.563	26.311	904.555	720.668
210.577	26.170	904.135	719.707
211.592	26.083	902.880	718.298
212.607	26.484	902.569	719.580
213.621	26.671	902.276	720.028
214.636	26.618	901.729	719.316
215.650	26.620	900.693	718.434
216.665	26.507	900.194	717.526
217.680	26.556	899.836	717.370
218.694	26.668	899.381	717.386
219.709	26.295	898.547	715.182
220.723	26.044	897.684	713.439
221.738	26.115	897.346	713.390
222.753	26.289	896.943	713.692
223.767	26.306	895.722	712.724
224.782	26.461	895.230	712.880
225.796	26.664	894.432	712.983
226.811	26.693	894.559	713.135
227.826	26.209	893.282	710.152
228.840	25.487	891.304	705.684
229.855	25.414	891.032	705.118
230.869	25.640	890.441	705.474
231.884	25.407	889.136	703.465
232.899	25.414	889.176	703.462
233.913	26.321	889.161	706.938
234.928	26.496	888.687	707.182
235.942	26.319	888.087	705.950
236.957	26.272	887.405	705.164
237.972	26.068	886.368	703.481
238.986	25.981	885.557	702.437
240.001	26.083	885.199	702.487
241.015	26.009	885.020	701.993
242.030	26.082	884.205	701.572
243.045	26.204	883.921	701.759
244.059	26.319	883.660	701.936
245.074	26.574	882.686	702.087
246.088	26.310	882.205	700.621
247.103	26.120	880.777	698.689
248.117	26.171	880.215	698.377
249.132	26.757	880.553	700.853
250.147	27.100	879.994	701.669
251.161	27.187	879.676	701.687
252.176	27.362	879.232	701.946
253.190	27.443	878.224	701.392
254.205	27.357	878.191	700.973
255.220	27.489	877.927	701.209
256.234	27.474	877.356	700.634
257.249	27.445	876.543	699.809
258.263	27.127	876.123	698.191
259.278	27.257	875.710	698.301
260.293	27.281	875.144	697.877
261.307	27.508	874.283	698.001
262.322	27.345	873.960	697.056
263.336	27.242	873.253	696.038
264.351	26.613	872.133	692.678
265.366	25.602	870.313	687.308
266.380	25.145	868.839	684.340
267.395	26.073	869.653	688.463
268.409	26.846	869.718	691.402
269.424	26.728	869.209	690.489
270.439	26.994	868.627	690.976
271.453	26.969	868.107	690.405
272.468	27.040	867.257	689.938
273.482	27.195	867.029	690.287
274.497	27.385	866.406	690.450
275.512	27.171	864.998	688.455
276.526	26.548	864.249	685.440
277.541	26.729	863.689	685.620
278.555	27.171	863.573	687.137
279.570	26.979	862.780	685.721
280.585	26.816	862.212	684.594
281.599	26.881	861.677	684.354
282.614	27.102	861.361	684.876
283.628	26.623	860.010	681.937
284.643	26.241	859.542	680.069
285.657	26.711	858.959	681.315
286.672	26.442	858.648	679.998
287.687	26.101	857.605	677.832
288.701	26.370	857.503	678.699
289.716	26.934	857.128	680.458
290.730	26.332	856.384	677.553
291.745	26.274	855.902	676.891
292.760	26.000	854.878	674.997
293.774	26.052	854.219	674.614
294.789	26.945	854.955	678.475
295.803	27.766	854.485	681.106
296.818	27.578	854.382	680.262
297.833	27.658	854.058	680.242
298.847	27.394	852.901	678.277
299.862	27.125	851.958	676.466
300.876	27.292	851.676	676.805
301.891	27.570	851.012	677.249
302.906	27.694	850.571	677.300
303.920	27.329	849.044	674.672
304.935	27.192	848.812	673.919
305.949	27.481	848.783	674.909
306.964	27.701	848.057	675.085
307.979	27.465	847.248	673.510
308.993	27.282	847.258	672.779
310.008	27.618	847.175	673.897
311.022	27.850	846.175	673.896
312.037	27.637	845.698	672.674
313.052	27.388	844.891	671.052
314.066	27.221	844.527	670.090
315.081	26.479	843.001	666.088
316.095	25.849	841.626	662.629
317.110	26.321	841.863	664.491
318.125	27.207	842.252	667.995
319.139	26.779	840.961	665.342
320.154	25.590	839.314	659.622
321.168	25.153	838.442	657.280
322.183	25.828	838.645	659.852
323.197	26.685	839.392	663.523
324.212	27.285	838.411	664.883
325.227	27.176	838.390	664.407
326.241	27.397	837.697	664.606
327.256	27.402	836.836	663.884
328.270	27.318	836.338	663.125
329.285	27.236	835.443	662.055
330.300	26.978	834.895	660.623
331.314	26.659	834.248	658.893
332.329	26.819	833.656	658.951
333.343	27.281	833.722	660.624
334.358	27.535	833.294	661.146
335.373	27.452	832.950	660.515
336.387	27.539	832.239	660.206
337.402	27.754	831.721	660.516
338.416	28.053	831.528	661.386
339.431	27.859	831.037	660.237
340.446	27.898	830.606	659.976
341.460	28.147	830.256	660.539
342.475	28.065	829.435	659.531
343.489	27.843	828.654	658.050
344.504	27.755	828.325	657.415
345.519	28.161	827.782	658.387
346.533	28.375	827.623	658.972
347.548	28.199	827.840	658.455
348.562	28.400	827.071	658.506
349.577	28.265	826.344	657.384
350.592	28.306	825.516	656.816
351.606	28.274	825.173	656.369
352.621	28.203	824.688	655.668
353.635	28.214	823.649	654.825
354.650	28.087	823.385	654.104
355.665	27.791	822.280	652.110
356.679	26.694	820.548	646.764
357.694	26.509	820.185	645.761
358.708	27.408	820.080	648.828
359.723	27.129	819.611	647.407
360.738	27.502	819.666	648.720
361.752	27.830	819.616	649.790
362.767	27.914	819.175	649.684
363.781	28.170	819.386	650.703
364.796	28.492	818.831	651.348
365.810	28.567	818.385	651.202
366.825	28.592	818.417	651.260
367.840	28.712	818.053	651.337
368.854	28.515	817.131	649.848
369.869	28.025	816.301	647.396
370.883	27.857	815.642	646.220
371.898	28.066	814.819	646.250
372.913	27.914	814.110	645.093
373.927	27.840	813.845	644.566
374.942	28.225	813.270	645.413
375.956	28.263	812.583	644.943
376.971	28.220	812.202	644.433
377.986	28.429	811.827	644.814
379.000	28.535	811.403	644.791
380.015	28.726	811.070	645.143
381.029	28.417	810.268	643.361
382.044	28.452	809.531	642.841
383.059	28.657	808.932	643.028
384.073	28.679	808.467	642.679
385.088	28.563	808.222	642.023
386.102	28.786	807.287	642.000
387.117	28.573	806.545	640.610
388.132	28.251	806.218	639.170
389.146	28.087	805.550	638.012
390.161	27.816	804.135	635.889
391.175	27.707	804.300	635.584
392.190	28.236	804.663	637.659
393.205	28.169	804.141	636.956
394.219	27.230	802.091	632.014
395.234	25.723	799.924	625.021
396.248	24.932	798.681	621.254
397.263	25.894	800.085	625.631
398.278	27.740	801.020	632.716
399.292	28.245	800.927	634.336
400.307	27.966	800.354	632.859
401.321	27.971	799.937	632.491
402.336	27.818	799.638	631.671
403.350	28.180	799.577	632.819
404.365	28.750	799.172	634.411
405.380	29.019	799.083	635.214
406.394	29.244	799.006	635.873
407.409	29.477	798.734	636.403
408.423	29.494	798.001	635.820
409.438	29.230	797.718	634.631
410.453	29.214	797.299	634.185
411.467	29.484	796.433	634.367
412.482	29.382	796.020	633.632
413.496	29.374	795.493	633.129
414.511	29.220	795.228	632.335
415.526	29.425	794.944	632.756
416.540	29.366	794.738	632.335
417.555	29.360	793.792	631.505
418.569	29.046	793.384	630.051
419.584	29.029	792.909	629.557
420.599	28.973	792.341	628.861
421.613	113.444	1286.442	1461.678
422.628	97.751	1358.447	1461.773
