DTS Sentinel unit serial number:	SN413079Multiplexer serial number:	ORYXHardware model number:	OX4-SRSoftware version number:	ORYX F/W v4.00 Oryx Data Collector v3.7.2.0data status	okinstallation	princeton_trtdifferential loss correction	single-endedforward channel	channel 3reverse channel	N/Adate	2019/09/18time	11:12:34forward acquisition time	60.00reverse acquisition time	0.00gamma	496.2192k internal	0.2326k external	0.2326temperature offset calibration	0.9957default loss term (dB/km)	0.3790temperature slope calibration	1.0000multiplexer offset coefficient	1.0000multiplexer slope coefficient	1.0000fibre end	0.00T internal ref (°C)	29.69T ext. ref 1 (°C)	0.41T ext. ref 2 (°C)	26.57length (m)	temperature (°C)	Stokes	anti-Stokes-747.200	-183.682	0.334	-0.006
-746.185	-200.000	-0.050	0.235
-745.171	10.120	0.114	0.088
-744.156	290.159	-0.198	-0.362
-743.142	-157.972	0.424	0.025
-742.127	800.000	-0.066	0.198
-741.112	-25.566	-0.222	0.132
-740.098	-200.000	-0.000	0.257
-739.083	-23.534	-0.228	0.138
-738.069	29.016	-0.140	-0.119
-737.054	109.567	0.173	0.209
-736.039	800.000	-0.019	0.056
-735.025	-79.070	0.310	0.106
-734.010	-200.000	-0.018	-0.547
-732.996	-115.141	-0.175	0.033
-731.981	-107.572	0.164	-0.036
-730.966	-4.962	0.135	-0.093
-729.952	800.000	-0.100	-0.357
-728.937	6.839	-0.194	0.146
-727.923	242.445	0.080	-0.136
-726.908	6.034	-0.179	0.133
-725.894	422.117	-0.034	0.074
-724.879	159.035	-0.209	-0.293
-723.864	800.000	-0.007	0.027
-722.850	-105.839	-0.388	-0.088
-721.835	64.255	0.268	-0.272
-720.821	-32.158	-0.082	-0.046
-719.806	536.135	-0.007	-0.017
-718.791	33.585	0.180	-0.158
-717.777	-113.588	0.176	0.035
-716.762	-200.000	0.014	0.171
-715.748	696.117	0.116	0.307
-714.733	-200.000	0.005	-0.125
-713.718	-200.000	-0.026	0.236
-712.704	800.000	-0.024	0.073
-711.689	328.026	0.151	-0.292
-710.675	800.000	0.036	-0.124
-709.660	-102.003	0.121	-0.029
-708.645	-200.000	-0.042	0.413
-707.631	800.000	0.016	0.058
-706.616	-192.150	-0.279	0.003
-705.602	-200.000	0.010	-0.353
-704.587	-103.094	0.311	-0.074
-703.572	-29.200	-0.355	-0.205
-702.558	96.288	-0.166	0.191
-701.543	-78.661	0.273	0.094
-700.529	734.793	0.107	-0.289
-699.514	84.971	-0.031	-0.034
-698.499	-43.251	-0.159	-0.081
-697.485	324.399	0.226	-0.435
-696.470	-140.484	0.170	-0.018
-695.456	39.540	0.089	-0.080
-694.441	266.102	-0.071	0.125
-693.426	-77.496	-0.267	-0.093
-692.412	390.444	0.048	-0.101
-691.397	800.000	-0.137	-0.400
-690.383	-0.287	-0.122	-0.087
-689.368	-36.907	0.279	0.150
-688.354	73.836	0.218	0.230
-687.339	-200.000	0.009	-0.042
-686.324	364.688	-0.059	0.119
-685.310	-108.115	-0.172	-0.038
-684.295	-115.165	0.252	0.048
-683.281	800.000	0.088	-0.246
-682.266	63.803	-0.118	-0.120
-681.251	305.012	-0.140	0.261
-680.237	2.656	-0.129	-0.094
-679.222	800.000	0.053	-0.197
-678.208	-200.000	-0.031	-0.348
-677.193	4.694	0.128	-0.094
-676.178	-76.295	-0.273	-0.097
-675.164	-111.016	-0.172	-0.036
-674.149	800.000	0.077	0.289
-673.135	-134.876	0.249	0.030
-672.120	47.490	0.305	-0.286
-671.105	-140.624	0.182	-0.019
-670.091	-37.693	-0.159	0.085
-669.076	-57.440	0.312	0.138
-668.062	800.000	-0.027	-0.105
-667.047	-11.922	0.122	0.080
-666.032	-200.000	0.015	-0.361
-665.018	127.982	0.150	-0.192
-664.003	-112.249	-0.224	0.045
-662.989	16.293	0.136	-0.108
-661.974	-3.778	0.269	0.188
-660.959	46.109	-0.095	-0.089
-659.945	80.905	0.240	-0.260
-658.930	-111.843	-0.286	0.058
-657.916	-105.464	0.078	0.018
-656.901	2.534	0.105	0.076
-655.886	-47.071	-0.214	-0.105
-654.872	-174.140	-0.084	-0.002
-653.857	800.000	-0.076	-0.270
-652.843	36.971	-0.234	-0.208
-651.828	-200.000	0.005	0.333
-650.814	128.388	0.187	-0.239
-649.799	126.673	-0.209	-0.266
-648.784	-96.956	0.090	0.024
-647.770	-130.186	0.199	-0.027
-646.755	-54.948	0.113	-0.051
-645.741	16.776	-0.159	0.127
-644.726	-122.120	-0.210	-0.035
-643.711	468.620	-0.017	-0.038
-642.697	-114.085	-0.155	-0.030
-641.682	800.000	0.025	-0.088
-640.668	117.326	-0.292	-0.360
-639.653	119.648	0.023	0.028
-638.638	323.643	0.094	0.180
-637.624	-78.191	-0.427	0.147
-636.609	8.025	0.249	-0.188
-635.595	-200.000	0.027	0.159
-634.580	43.036	-0.315	-0.289
-633.565	-69.952	-0.194	-0.074
-632.551	-109.284	0.376	0.080
-631.536	-75.418	-0.163	-0.058
-630.522	13.285	-0.117	0.091
-629.507	-53.042	-0.059	-0.027
-628.492	-118.392	-0.423	0.075
-627.478	800.000	-0.027	0.095
-626.463	-3.488	-0.079	0.056
-625.449	102.221	0.118	-0.139
-624.434	155.594	0.056	0.077
-623.419	-81.305	-0.170	-0.056
-622.405	59.111	-0.127	-0.126
-621.390	-56.700	0.179	-0.079
-620.376	-161.984	-0.180	0.009
-619.361	4.932	0.214	-0.158
-618.346	-54.885	0.109	0.049
-617.332	800.000	-0.060	-0.183
-616.317	-184.086	0.253	-0.004
-615.303	49.938	-0.217	0.205
-614.288	175.996	-0.078	-0.114
-613.273	-200.000	-0.005	0.229
-612.259	-200.000	-0.007	0.169
-611.244	729.868	-0.112	-0.301
-610.230	67.001	0.130	-0.133
-609.215	-63.471	-0.125	-0.051
-608.201	-19.742	0.321	-0.199
-607.186	113.038	0.245	0.298
-606.171	-93.669	-0.147	0.041
-605.157	-63.811	-0.155	-0.064
-604.142	-200.000	-0.009	-0.158
-603.128	-93.323	-0.152	0.042
-602.113	-200.000	0.008	-0.127
-601.098	-136.187	0.173	-0.020
-600.084	152.221	-0.099	-0.136
-599.069	-47.480	0.293	-0.143
-598.055	177.453	-0.051	0.075
-597.040	142.552	0.126	-0.168
-596.025	244.022	0.041	0.068
-595.011	616.451	0.075	-0.189
-593.996	-77.721	-0.243	0.084
-592.982	11.179	0.022	-0.017
-591.967	800.000	0.083	-0.282
-590.952	800.000	-0.077	0.292
-589.938	-123.192	0.275	0.044
-588.923	90.667	-0.097	0.108
-587.909	8.709	0.154	0.116
-586.894	157.081	0.185	-0.256
-585.879	800.000	0.047	-0.133
-584.865	800.000	0.066	-0.291
-583.850	-13.174	-0.198	0.129
-582.836	442.384	0.045	0.099
-581.821	-161.191	0.120	0.006
-580.806	-200.000	-0.095	0.513
-579.792	438.954	-0.075	-0.164
-578.777	-17.603	-0.104	-0.066
-577.763	800.000	-0.158	-0.496
-576.748	75.179	-0.102	-0.108
-575.733	-37.399	-0.296	-0.159
-574.719	20.066	-0.115	-0.093
-573.704	16.849	-0.287	-0.228
-572.690	-200.000	0.018	-0.221
-571.675	800.000	0.060	0.198
-570.661	-57.378	-0.069	0.030
-569.646	800.000	-0.080	0.280
-568.631	-0.176	0.111	0.079
-567.617	619.719	-0.042	0.106
-566.602	-42.495	0.159	-0.081
-565.588	-159.345	-0.237	-0.013
-564.573	52.065	-0.153	-0.146
-563.558	-200.000	-0.025	-0.309
-562.544	800.000	0.095	0.361
-561.529	618.530	0.121	0.306
-560.515	-103.719	-0.291	-0.068
-559.500	-200.000	-0.037	-0.204
-558.485	-122.220	0.323	0.053
-557.471	-103.654	0.239	-0.056
-556.456	-30.302	-0.157	0.089
-555.442	115.327	-0.180	0.221
-554.427	-95.014	-0.128	-0.035
-553.412	-118.076	0.238	-0.043
-552.398	227.098	0.146	-0.237
-551.383	79.469	0.174	-0.186
-550.369	-200.000	0.006	-0.149
-549.354	-80.810	-0.196	0.065
-548.339	800.000	-0.110	-0.476
-547.325	173.538	0.201	0.290
-546.310	-10.900	-0.210	-0.139
-545.296	-14.957	0.182	0.117
-544.281	-200.000	0.011	0.155
-543.266	-105.216	0.315	0.072
-542.252	800.000	0.018	0.068
-541.237	-200.000	0.081	-0.639
-540.223	157.253	-0.125	-0.172
-539.208	-91.859	0.099	0.028
-538.193	99.464	0.343	0.397
-537.179	800.000	-0.092	0.304
-536.164	32.840	-0.087	0.076
-535.150	-152.081	-0.174	0.013
-534.135	-116.723	0.168	0.031
-533.121	197.906	0.107	0.164
-532.106	-74.304	-0.289	0.105
-531.091	-200.000	-0.365	-0.002
-530.077	527.341	-0.127	0.299
-529.062	34.124	-0.174	0.152
-528.048	-157.814	0.197	-0.012
-527.033	34.198	-0.105	-0.091
-526.018	450.713	0.057	-0.126
-525.004	266.419	0.146	0.256
-523.989	-200.000	0.008	0.125
-522.975	9.969	0.065	0.049
-521.960	-111.507	-0.227	-0.046
-520.945	-151.187	-0.350	-0.026
-519.931	-67.534	0.236	0.093
-518.916	-88.790	-0.182	-0.054
-517.902	79.405	-0.201	-0.215
-516.887	800.000	-0.031	-0.122
-515.872	-200.000	-0.021	0.266
-514.858	-146.060	-0.110	0.010
-513.843	-129.931	0.304	0.042
-512.829	800.000	0.055	0.202
-511.814	-200.000	-0.015	-0.095
-510.799	-146.517	0.485	0.042
-509.785	-50.748	0.223	-0.105
-508.770	-87.481	0.302	-0.091
-507.756	-1.720	0.226	-0.159
-506.741	229.450	0.201	-0.327
-505.726	-200.000	-0.031	-0.259
-504.712	405.226	-0.131	0.276
-503.697	76.063	-0.295	-0.311
-502.683	-200.000	0.038	-0.209
-501.668	-109.281	0.246	0.052
-500.653	314.625	-0.111	-0.209
-499.639	94.974	-0.139	0.158
-498.624	-31.825	-0.143	0.080
-497.610	-35.879	0.056	-0.030
-496.595	-27.243	0.305	0.177
-495.581	132.249	-0.222	0.285
-494.566	-59.408	-0.169	0.073
-493.551	800.000	0.016	-0.055
-492.537	163.873	-0.125	0.175
-491.522	-96.607	-0.185	-0.049
-490.508	-93.888	-0.059	-0.016
-489.493	-200.000	0.048	-0.382
-488.478	706.773	0.063	0.166
-487.464	-79.988	0.064	0.021
-486.449	116.886	0.046	0.057
-485.435	-190.918	-0.168	-0.002
-484.420	-64.893	0.317	-0.128
-483.405	6.627	-0.155	0.115
-482.391	-200.000	0.043	-0.414
-481.376	0.711	-0.170	0.121
-480.362	8.675	0.259	0.195
-479.347	-200.000	0.009	-0.200
-478.332	-200.000	0.034	-0.392
-477.318	-148.052	-0.292	-0.024
-476.303	179.100	-0.062	-0.091
-475.289	-122.413	-0.293	-0.048
-474.274	-18.888	-0.125	0.077
-473.259	-137.323	0.194	-0.022
-472.245	-61.806	0.317	0.133
-471.230	-200.000	-0.025	-0.185
-470.216	18.905	0.094	0.075
-469.201	110.831	0.245	-0.294
-468.186	562.623	0.074	0.180
-467.172	509.634	0.120	0.278
-466.157	35.478	0.395	0.346
-465.143	103.698	-0.109	-0.127
-464.128	800.000	0.080	-0.259
-463.113	78.723	-0.191	0.203
-462.099	-25.821	0.243	0.143
-461.084	-197.943	-0.402	0.002
-460.070	-200.000	0.023	-0.293
-459.055	-96.843	-0.085	-0.022
-458.040	-36.163	-0.423	0.228
-457.026	-134.646	0.293	-0.036
-456.011	186.711	0.128	-0.191
-454.997	-200.000	-0.094	-0.485
-453.982	62.119	0.126	-0.125
-452.968	222.746	0.297	-0.477
-451.953	260.256	-0.036	0.062
-450.938	800.000	-0.057	-0.216
-449.924	-28.318	0.506	-0.291
-448.909	-66.949	-0.257	-0.101
-447.895	-87.295	0.125	0.038
-446.880	-200.000	0.004	0.189
-445.865	78.565	0.197	0.210
-444.851	118.927	-0.145	-0.179
-443.836	-200.000	-0.020	0.131
-442.822	-200.000	0.023	0.253
-441.807	-98.483	-0.140	0.036
-440.792	342.238	-0.042	-0.082
-439.778	-55.509	0.072	-0.032
-438.763	-112.203	-0.063	-0.013
-437.749	800.000	-0.032	0.096
-436.734	-46.961	-0.154	-0.075
-435.719	292.034	0.185	-0.335
-434.705	-200.000	0.016	0.107
-433.690	389.300	0.049	0.101
-432.676	800.000	-0.022	0.071
-431.661	31.028	-0.192	0.164
-430.646	168.935	-0.141	-0.201
-429.632	0.899	-0.239	-0.171
-428.617	-56.351	-0.417	0.185
-427.603	-118.202	0.140	0.025
-426.588	114.093	0.202	0.245
-425.573	137.477	0.092	0.120
-424.559	-59.746	0.283	0.121
-423.544	729.744	0.031	0.084
-422.530	-16.872	0.054	0.034
-421.515	140.295	0.230	-0.302
-420.500	-72.336	0.160	0.059
-419.486	151.090	-0.127	0.172
-418.471	-64.800	-0.168	-0.068
-417.457	-20.366	-0.049	0.030
-416.442	144.310	-0.176	-0.234
-415.428	800.000	0.050	0.207
-414.413	497.262	0.081	0.185
-413.398	331.046	0.209	0.400
-412.384	179.602	-0.172	-0.251
-411.369	433.155	0.054	-0.116
-410.355	-200.000	-0.053	-0.268
-409.340	-200.000	-0.002	0.077
-408.325	-47.248	-0.229	-0.111
-407.311	-200.000	-0.009	0.091
-406.296	-141.938	-0.339	0.034
-405.282	-200.000	0.010	-0.115
-404.267	-200.000	-0.044	-0.375
-403.252	84.190	0.097	0.105
-402.238	-153.856	0.190	0.013
-401.223	-45.700	0.324	0.159
-400.209	221.464	-0.132	0.211
-399.194	113.164	0.245	0.295
-398.179	-175.704	0.172	0.005
-397.165	-47.193	-0.090	0.044
-396.150	-183.117	0.187	0.003
-395.136	517.706	0.063	-0.147
-394.121	800.000	0.112	-0.307
-393.106	-200.000	-0.027	-0.173
-392.092	169.357	0.234	0.332
-391.077	-200.000	0.056	0.346
-390.063	800.000	0.006	0.026
-389.048	217.719	-0.046	0.072
-388.033	-140.290	0.359	-0.037
-387.019	-128.661	0.376	-0.053
-386.004	-48.491	0.137	-0.066
-384.990	-131.384	-0.156	0.021
-383.975	141.955	0.052	-0.069
-382.960	-12.258	-0.122	-0.080
-381.946	-200.000	0.066	0.333
-380.931	800.000	-0.078	-0.215
-379.917	-200.000	0.011	-0.101
-378.902	303.018	0.171	0.315
-377.888	-55.710	-0.330	0.147
-376.873	-200.000	-0.011	-0.239
-375.858	-174.445	0.311	-0.009
-374.844	43.157	0.297	0.270
-373.829	49.314	-0.039	-0.037
-372.815	-139.298	-0.206	0.022
-371.800	83.228	-0.027	0.030
-370.785	31.748	0.211	0.181
-369.771	-60.173	-0.178	0.075
-368.756	-22.660	-0.129	0.077
-367.742	0.422	0.045	-0.032
-366.727	474.572	-0.015	-0.033
-365.712	0.522	-0.120	0.085
-364.698	-32.647	0.198	-0.110
-363.683	-41.505	-0.055	0.028
-362.669	589.344	0.092	0.225
-361.654	-161.243	-0.089	-0.005
-360.639	-111.409	0.081	-0.016
-359.625	6.920	-0.108	0.080
-358.610	-133.965	0.222	0.027
-357.596	-200.000	-0.010	-0.056
-356.581	71.496	0.180	-0.186
-355.566	7.792	-0.319	0.237
-354.552	-105.026	-0.162	0.037
-353.537	426.714	0.119	-0.254
-352.523	-20.651	-0.088	0.053
-351.508	45.884	0.113	0.104
-350.493	171.129	-0.175	-0.250
-349.479	-200.000	0.052	0.247
-348.464	-42.666	0.214	0.108
-347.450	-200.000	0.019	0.123
-346.435	-19.294	-0.396	-0.244
-345.420	728.623	-0.113	-0.300
-344.406	-145.934	0.321	0.028
-343.391	-200.000	0.001	-0.227
-342.377	-15.623	-0.179	-0.113
-341.362	-54.670	0.193	0.086
-340.348	-200.000	-0.012	0.149
-339.333	800.000	-0.061	0.171
-338.318	-160.426	0.085	-0.005
-337.304	-139.287	0.182	0.019
-336.289	800.000	0.098	0.284
-335.275	-110.692	0.281	-0.058
-334.260	84.561	-0.082	-0.089
-333.245	-200.000	-0.050	-0.222
-332.231	99.612	0.046	0.053
-331.216	800.000	0.091	-0.307
-330.202	-87.070	0.060	0.018
-329.187	-111.873	-0.166	0.033
-328.172	-8.280	-0.039	-0.026
-327.158	-168.930	-0.362	-0.013
-326.143	135.340	-0.191	0.246
-325.129	24.973	-0.338	0.279
-324.114	-200.000	0.001	-0.294
-323.099	116.558	-0.176	-0.214
-322.085	-142.976	-0.136	0.013
-321.070	800.000	0.030	-0.122
-320.056	62.756	-0.202	0.201
-319.041	11.951	-0.208	0.159
-318.026	-188.604	0.126	0.002
-317.012	288.666	0.032	0.058
-315.997	227.346	-0.161	0.259
-314.983	800.000	0.123	0.375
-313.968	-59.274	-0.180	0.077
-312.953	-10.936	0.344	-0.225
-311.939	147.768	-0.206	0.275
-310.924	55.564	0.108	0.104
-309.910	-109.623	0.108	-0.023
-308.895	-66.737	0.206	0.081
-307.880	-167.458	0.170	0.007
-306.866	800.000	0.070	0.283
-305.851	11.654	-0.157	0.120
-304.837	492.971	-0.243	0.553
-303.822	1.305	-0.064	0.046
-302.807	-148.663	0.367	-0.030
-301.793	-126.214	-0.096	0.014
-300.778	61.611	-0.086	0.085
-299.764	-200.000	-0.021	-0.445
-298.749	800.000	-0.036	-0.129
-297.735	800.000	0.088	0.245
-296.720	709.463	0.070	0.183
-295.705	-42.444	-0.148	0.075
-294.691	233.615	0.263	0.429
-293.676	-62.557	-0.106	0.044
-292.662	61.596	0.184	-0.181
-291.647	-200.000	-0.007	-0.051
-290.632	-108.230	0.277	-0.059
-289.618	108.396	-0.103	0.122
-288.603	-185.093	-0.164	0.003
-287.589	320.536	0.127	0.239
-286.574	-80.228	-0.126	-0.042
-285.559	-118.589	-0.224	0.039
-284.545	-174.958	-0.368	-0.010
-283.530	-100.271	-0.183	-0.045
-282.516	-72.953	-0.401	0.146
-281.501	230.307	-0.083	0.134
-280.486	-200.000	0.071	-0.430
-279.472	-200.000	0.041	-0.264
-278.457	-77.913	0.144	0.049
-277.443	6.722	0.281	0.207
-276.428	292.415	0.061	0.111
-275.413	449.654	0.111	-0.242
-274.399	-8.488	0.408	-0.272
-273.384	-200.000	-0.104	0.000
-272.370	239.142	-0.100	0.165
-271.355	-200.000	-0.004	0.150
-270.340	-200.000	-0.000	0.157
-269.326	134.811	-0.138	-0.178
-268.311	-189.778	-0.484	-0.005
-267.297	-200.000	-0.024	0.122
-266.282	193.640	0.165	0.247
-265.267	450.709	0.031	0.067
-264.253	9.946	-0.150	0.113
-263.238	5.982	-0.295	0.216
-262.224	-200.000	-0.025	-0.428
-261.209	-115.866	-0.215	-0.040
-260.195	336.841	-0.149	0.287
-259.180	800.000	0.021	0.087
-258.165	173.397	0.305	0.435
-257.151	115.567	-0.309	-0.373
-256.136	-133.484	0.155	0.019
-255.122	108.550	0.059	-0.070
-254.107	-16.893	0.129	0.080
-253.092	-13.757	0.187	-0.120
-252.078	109.318	0.056	0.067
-251.063	-200.000	-0.007	-0.190
-250.049	-109.956	0.294	0.061
-249.034	-79.409	0.170	-0.057
-248.019	-145.978	-0.181	-0.016
-247.005	-200.000	-0.002	-0.169
-245.990	109.289	0.271	0.321
-244.976	40.315	-0.032	0.028
-243.961	-140.767	-0.513	0.052
-242.946	55.415	0.126	-0.121
-241.932	34.720	-0.173	0.150
-240.917	356.955	0.108	-0.213
-239.903	-132.489	-0.136	-0.017
-238.888	-15.214	-0.158	-0.100
-237.873	71.442	0.040	0.041
-236.859	-153.810	-0.100	-0.007
-235.844	-200.000	0.086	-0.376
-234.830	-44.814	0.343	-0.169
-233.815	113.774	-0.032	0.039
-232.800	-0.090	0.292	0.206
-231.786	-34.358	0.192	0.104
-230.771	242.859	-0.191	0.316
-229.757	-200.000	0.011	0.051
-228.742	800.000	0.073	0.276
-227.727	-200.000	0.024	-0.242
-226.713	-104.301	-0.067	-0.015
-225.698	-2.100	0.350	-0.243
-224.684	800.000	0.046	-0.154
-223.669	323.804	0.107	-0.202
-222.655	278.965	-0.035	-0.061
-221.640	79.767	-0.039	0.041
-220.625	-156.440	0.139	-0.009
-219.611	-76.931	-0.217	-0.075
-218.596	-153.594	0.286	0.019
-217.582	-67.127	0.074	0.029
-216.567	547.035	0.120	-0.284
-215.552	207.506	0.118	-0.182
-214.538	-42.999	-0.233	0.117
-213.523	-200.000	-0.011	0.080
-212.509	376.850	-0.116	-0.235
-211.494	-156.201	-0.358	0.022
-210.479	-75.674	-0.175	-0.061
-209.465	-200.000	0.027	-0.501
-208.450	346.901	0.063	0.123
-207.436	-62.016	0.293	0.121
-206.421	-200.000	-0.015	0.167
-205.406	129.508	0.117	0.147
-204.392	27.753	-0.033	-0.027
-203.377	800.000	0.020	0.065
-202.363	390.502	-0.088	-0.180
-201.348	-200.000	-0.010	0.116
-200.333	-200.000	0.018	0.116
-199.319	-200.000	-0.061	0.293
-198.304	41.445	-0.413	0.369
-197.290	800.000	0.021	-0.071
-196.275	800.000	-0.103	-0.421
-195.260	228.153	0.112	0.180
-194.246	55.395	-0.128	0.122
-193.231	358.386	0.027	-0.053
-192.217	189.534	-0.281	0.416
-191.202	-68.913	-0.093	-0.035
-190.187	-200.000	-0.007	0.085
-189.173	-127.287	-0.037	0.005
-188.158	80.887	0.189	0.201
-187.144	-175.832	0.698	0.018
-186.129	-200.000	-0.031	-0.477
-185.114	800.000	-0.075	-0.207
-184.100	-82.043	-0.041	-0.013
-183.085	-91.455	0.195	0.055
-182.071	-200.000	-0.080	-0.477
-181.056	79.987	0.240	0.255
-180.042	-99.462	-0.410	0.102
-179.027	-150.872	-0.330	0.025
-178.012	0.991	0.073	0.052
-176.998	-68.169	0.192	0.074
-175.983	45.692	-0.286	-0.261
-174.969	-77.201	0.279	0.096
-173.954	19.151	-0.142	-0.112
-172.939	-148.829	-0.078	0.006
-171.925	108.724	-0.339	-0.400
-170.910	-200.000	-0.017	-0.138
-169.896	800.000	0.062	-0.250
-168.881	211.056	0.054	-0.083
-167.866	5.074	0.099	-0.072
-166.852	-23.785	0.160	0.095
-165.837	-42.108	-0.198	0.100
-164.823	-41.304	0.138	0.070
-163.808	-133.757	-0.335	-0.041
-162.793	-200.000	0.001	0.055
-161.779	31.817	-0.092	0.078
-160.764	145.942	-0.152	0.202
-159.750	-200.000	0.004	0.093
-158.735	-200.000	0.004	-0.082
-157.720	-200.000	0.027	0.291
-156.706	263.011	0.090	-0.154
-155.691	-51.183	0.302	0.139
-154.677	78.419	0.124	0.130
-153.662	-124.947	0.247	-0.037
-152.647	399.472	0.178	0.367
-151.633	-100.952	-0.066	0.016
-150.618	-87.054	-0.074	0.022
-149.604	800.000	0.109	-0.323
-148.589	-50.283	0.089	0.041
-147.574	239.473	-0.242	-0.396
-146.560	800.000	-0.085	-0.300
-145.545	800.000	-0.043	-0.124
-144.531	20.224	-0.120	0.096
-143.516	76.252	0.237	0.248
-142.502	432.148	-0.085	0.182
-141.487	237.198	-0.072	-0.118
-140.472	-200.000	0.061	-0.263
-139.458	-95.694	-0.301	-0.079
-138.443	-200.000	-0.045	0.311
-137.429	-0.749	0.200	-0.140
-136.414	800.000	-0.034	0.136
-135.399	-200.000	-0.009	-0.477
-134.385	96.115	0.168	-0.190
-133.370	243.272	-0.105	0.173
-132.356	26.251	-0.186	0.153
-131.341	-95.385	-0.151	0.040
-130.326	138.722	0.071	-0.092
-129.312	-200.000	-0.076	0.403
-128.297	14.585	-0.073	0.056
-127.283	-47.663	0.040	-0.019
-126.268	176.982	-0.341	0.489
-125.253	34.036	0.245	-0.211
-124.239	-70.366	0.219	-0.082
-123.224	-136.520	0.234	0.027
-122.210	-192.444	-0.389	0.004
-121.195	-200.000	0.006	0.166
-120.180	-200.000	0.007	-0.232
-119.166	-120.806	0.260	0.043
-118.151	-20.274	-0.013	0.008
-117.137	18.319	-0.016	-0.013
-116.122	115.547	0.256	0.308
-115.107	265.532	-0.157	0.270
-114.093	-21.060	0.655	-0.394
-113.078	-55.702	-0.136	-0.060
-112.064	200.612	-0.031	0.046
-111.049	-200.000	0.023	0.270
-110.034	39.753	0.045	0.040
-109.020	128.159	-0.218	-0.272
-108.005	-200.000	-0.015	0.078
-106.991	32.970	0.195	0.167
-105.976	-168.954	0.186	0.007
-104.962	45.910	-0.327	-0.298
-103.947	393.179	0.044	-0.090
-102.932	75.880	-0.213	0.221
-101.918	18.597	-0.165	-0.130
-100.903	35.207	-0.273	-0.235
-99.889	23.213	0.205	0.166
-98.874	-200.000	0.002	0.081
-97.859	-156.822	-0.208	-0.013
-96.845	-200.000	-0.012	-0.273
-95.830	-200.000	0.018	0.145
-94.816	261.209	0.106	0.181
-93.801	-127.200	0.354	-0.051
-92.786	-142.166	-0.012	-0.001
-91.772	13.193	-0.325	-0.247
-90.757	-113.330	0.377	-0.073
-89.743	28.802	0.272	0.227
-88.728	52.528	-0.197	-0.185
-87.713	-139.268	0.279	-0.029
-86.699	800.000	0.050	0.211
-85.684	300.087	0.168	0.305
-84.670	-200.000	0.000	0.051
-83.655	153.087	0.328	-0.441
-82.640	-200.000	0.028	-0.146
-81.626	237.575	-0.095	-0.155
-80.611	97.183	-0.065	-0.073
-79.597	437.583	0.048	-0.102
-78.582	-173.009	0.394	-0.012
-77.567	-200.000	0.014	0.065
-76.553	220.439	0.216	0.341
-75.538	-4.361	0.482	-0.328
-74.524	-71.560	0.233	0.086
-73.509	88.500	0.029	0.032
-72.494	-169.305	0.350	0.013
-71.480	800.000	0.031	-0.103
-70.465	-114.429	0.088	0.017
-69.451	-138.426	0.300	0.033
-68.436	-106.353	0.158	-0.035
-67.422	-106.495	-0.219	0.048
-66.407	800.000	-0.072	-0.210
-65.392	50.750	0.405	0.377
-64.378	99.885	0.174	0.198
-63.363	-128.624	0.391	0.054
-62.349	-95.915	-0.144	0.038
-61.334	98.394	-0.820	-0.928
-60.319	81.742	0.561	0.596
-59.305	499.896	-0.389	-0.881
-58.290	159.851	1.091	1.493
-57.276	624.465	0.635	1.573
-56.261	-200.000	104.500	564.063
-55.246	434.622	1479.558	3157.537
-54.232	144.371	2683.835	3517.913
-53.217	104.176	2214.736	2557.703
-52.203	40.066	1734.485	1530.310
-51.188	32.749	1543.950	1311.492
-50.173	30.462	1516.458	1272.448
-49.159	49.983	1569.854	1453.891
-48.144	50.610	1587.593	1474.637
-47.130	33.066	1544.104	1313.621
-46.115	30.020	1529.282	1279.951
-45.100	29.849	1526.071	1276.035
-44.086	29.767	1523.652	1273.395
-43.071	29.725	1521.887	1271.580
-42.057	29.723	1520.076	1270.002
-41.042	29.748	1518.598	1268.888
-40.027	29.727	1517.119	1267.458
-39.013	29.593	1515.771	1265.363
-37.998	29.712	1514.082	1264.719
-36.984	29.711	1512.933	1263.704
-35.969	29.652	1511.777	1262.282
-34.954	29.589	1510.562	1260.789
-33.940	29.688	1508.687	1259.849
-32.925	29.673	1507.944	1259.078
-31.911	29.714	1506.188	1257.837
-30.896	29.796	1504.713	1257.116
-29.881	29.802	1503.737	1256.288
-28.867	29.700	1502.699	1254.680
-27.852	29.823	1500.610	1253.720
-26.838	29.822	1499.891	1253.061
-25.823	29.743	1498.071	1250.956
-24.809	29.826	1495.915	1249.671
-23.794	29.829	1495.139	1248.992
-22.779	29.648	1494.318	1247.034
-21.765	29.674	1492.890	1245.968
-20.750	29.737	1491.453	1245.147
-19.736	29.732	1490.240	1244.048
-18.721	29.589	1489.665	1242.556
-17.706	29.623	1488.339	1241.630
-16.692	29.757	1486.366	1240.836
-15.677	29.680	1486.011	1239.976
-14.663	29.750	1484.662	1239.266
-13.648	29.636	1484.308	1238.160
-12.633	29.669	1482.885	1237.141
-11.619	29.639	1482.462	1236.538
-10.604	29.638	1481.123	1235.368
-9.590	29.603	1480.585	1234.636
-8.575	29.665	1479.607	1234.182
-7.560	29.721	1478.172	1233.313
-6.546	29.629	1477.516	1232.100
-5.531	29.538	1476.974	1230.998
-4.517	29.543	1476.089	1230.245
-3.502	29.625	1474.811	1229.675
-2.487	29.618	1473.652	1228.610
-1.473	29.587	1472.931	1227.755
-0.458	29.655	1471.060	1226.599
0.556	28.325	1461.866	1217.209
1.571	25.831	1436.374	1179.569
2.586	22.681	1373.249	1107.875
3.600	20.943	1288.802	1029.402
4.615	19.457	1242.887	984.170
5.629	16.661	1186.106	923.888
6.644	8.414	1099.180	814.228
7.659	1.630	1058.349	750.536
8.673	0.582	1052.815	741.400
9.688	0.435	1049.148	738.034
10.702	0.303	1048.265	736.698
11.717	0.310	1046.156	735.187
12.731	2.863	1048.509	749.245
13.746	10.790	1059.269	795.826
14.761	16.435	1066.456	828.918
15.775	17.083	1066.425	831.996
16.790	16.653	1064.131	828.029
17.804	15.718	1062.092	821.802
18.819	14.864	1060.260	816.147
19.834	14.457	1058.663	812.858
20.848	14.055	1057.985	810.307
21.863	13.738	1057.207	808.097
22.877	13.533	1056.337	806.362
23.892	13.348	1055.653	804.870
24.907	13.320	1054.763	803.982
25.921	13.211	1054.063	802.846
26.936	13.175	1053.825	802.420
27.950	13.292	1053.148	802.403
28.965	13.290	1052.021	801.464
29.980	13.403	1051.173	801.293
30.994	13.393	1050.000	800.282
32.009	13.494	1049.183	800.073
33.023	13.475	1048.768	799.595
34.038	13.405	1047.932	798.551
35.053	13.386	1046.933	797.627
36.067	13.401	1045.975	796.897
37.082	13.300	1045.172	795.730
38.096	13.486	1044.416	795.977
39.111	13.381	1044.164	795.211
40.126	13.419	1042.846	794.316
41.140	13.394	1042.136	793.590
42.155	13.384	1040.591	792.291
43.169	13.400	1039.860	791.745
44.184	13.227	1039.205	790.348
45.199	13.108	1038.141	788.899
46.213	13.206	1037.277	788.641
47.228	13.281	1036.185	788.099
48.242	13.315	1034.969	787.265
49.257	13.357	1033.635	786.379
50.271	13.340	1032.843	785.628
51.286	13.394	1031.701	784.946
52.301	13.302	1031.186	784.049
53.315	13.328	1030.306	783.434
54.330	13.326	1029.790	782.961
55.344	13.267	1028.725	781.803
56.359	13.340	1027.239	780.950
57.374	13.363	1026.346	780.311
58.388	13.300	1025.572	779.357
59.403	13.314	1024.961	778.891
60.417	13.272	1024.698	778.425
61.432	13.288	1024.025	777.918
62.447	13.278	1022.716	776.807
63.461	13.160	1022.435	775.973
64.476	13.152	1021.024	774.797
65.490	13.062	1020.675	774.040
66.505	13.102	1019.819	773.507
67.520	13.225	1018.718	773.181
68.534	13.143	1018.185	772.326
69.549	13.242	1017.147	771.931
70.563	13.256	1016.822	771.680
71.578	13.279	1015.829	770.967
72.593	13.210	1014.864	769.846
73.607	13.187	1013.867	768.913
74.622	13.101	1013.143	767.897
75.636	13.154	1012.004	767.209
76.651	13.153	1011.900	767.061
77.666	13.117	1011.027	766.162
78.680	13.121	1010.264	765.537
79.695	13.196	1009.651	765.349
80.709	13.177	1008.800	764.549
81.724	13.322	1007.913	764.480
82.739	13.269	1007.031	763.500
83.753	13.270	1006.417	762.972
84.768	13.254	1006.042	762.546
85.782	13.222	1005.325	761.788
86.797	13.328	1004.435	761.532
87.812	13.323	1003.696	760.881
88.826	13.333	1002.772	760.162
89.841	13.326	1001.847	759.362
90.855	13.245	1001.583	758.720
91.870	13.388	1000.366	758.387
92.884	13.517	999.622	758.347
93.899	13.318	999.129	756.997
94.914	13.527	997.881	756.940
95.928	13.535	997.642	756.728
96.943	13.537	997.056	756.224
97.957	13.443	996.105	755.005
98.972	13.455	995.336	754.413
99.987	13.394	994.864	753.710
101.001	13.438	994.052	753.229
102.016	13.315	993.567	752.234
103.030	13.498	992.100	751.890
104.045	13.370	991.159	750.526
105.060	13.413	990.597	750.230
106.074	13.356	989.323	748.942
107.089	13.358	988.761	748.458
108.103	13.426	987.842	748.006
109.118	13.333	986.561	746.547
110.133	13.193	986.290	745.647
111.147	13.247	985.347	745.110
112.162	13.314	984.096	744.402
113.176	13.290	983.636	743.878
114.191	13.291	982.709	743.113
115.206	13.285	981.336	741.986
116.220	13.364	981.161	742.140
117.235	13.329	980.026	741.060
118.249	13.286	978.977	740.009
119.264	13.347	978.251	739.669
120.279	13.304	977.598	738.914
121.293	13.407	976.312	738.340
122.308	13.226	975.878	737.139
123.322	13.262	974.933	736.520
124.337	13.211	974.057	735.564
125.352	13.365	972.433	734.957
126.366	13.349	971.484	734.104
127.381	13.370	970.660	733.508
128.395	13.255	969.775	732.267
129.410	13.289	968.634	731.491
130.424	13.282	967.935	730.869
131.439	13.254	966.926	729.917
132.454	13.320	966.327	729.691
133.468	13.277	965.578	728.873
134.483	13.357	965.023	728.742
135.497	13.415	963.771	727.987
136.512	13.406	963.099	727.374
137.527	13.310	962.294	726.284
138.541	13.379	961.991	726.290
139.556	13.371	961.096	725.514
140.570	13.265	960.468	724.512
141.585	13.444	959.148	724.237
142.600	13.393	958.802	723.687
143.614	13.419	958.024	723.150
144.629	13.346	957.640	722.477
145.643	13.615	956.887	723.020
146.658	13.574	955.592	721.800
147.673	13.441	954.871	720.612
148.687	13.301	954.246	719.466
149.702	13.492	952.700	719.069
150.716	13.326	952.180	717.889
151.731	13.408	951.303	717.520
152.746	13.449	950.503	717.033
153.760	13.637	949.335	716.900
154.775	13.399	948.840	715.434
155.789	13.421	948.299	715.058
156.804	13.431	947.705	714.591
157.819	13.494	946.538	713.921
158.833	13.595	945.798	713.735
159.848	13.558	945.654	713.403
160.862	13.576	944.384	712.459
161.877	13.690	943.731	712.392
162.892	13.597	943.201	711.531
163.906	13.562	942.033	710.435
164.921	13.419	941.589	709.425
165.935	13.505	940.546	708.945
166.950	13.526	939.547	708.220
167.964	13.572	938.924	707.881
168.979	13.580	937.629	706.877
169.994	13.437	937.021	705.749
171.008	13.495	936.174	705.295
172.023	13.567	935.549	705.065
173.037	13.766	934.076	704.740
174.052	13.665	933.656	703.933
175.067	13.769	932.675	703.570
176.081	13.779	932.166	703.169
177.096	13.565	931.898	701.996
178.110	13.532	930.645	700.853
179.125	13.698	930.062	701.052
180.140	13.634	929.110	700.003
181.154	13.692	928.888	700.016
182.169	13.697	928.322	699.550
183.183	13.662	927.612	698.807
184.198	13.726	926.652	698.289
185.213	13.793	926.133	698.121
186.227	13.751	925.634	697.504
187.242	13.932	924.628	697.447
188.256	13.968	923.856	696.952
189.271	14.028	923.372	696.778
190.286	13.979	922.324	695.720
191.300	13.874	921.507	694.604
192.315	13.647	921.322	693.453
193.329	13.624	920.791	692.895
194.344	13.812	919.882	692.933
195.359	13.664	919.467	691.944
196.373	13.820	918.958	692.147
197.388	13.863	918.322	691.789
198.402	13.967	917.739	691.720
199.417	13.902	917.569	691.259
200.432	13.932	916.860	690.789
201.446	14.059	916.164	690.732
202.461	14.154	915.643	690.671
203.475	14.208	915.325	690.594
204.490	14.088	914.999	689.790
205.504	14.116	913.889	689.010
206.519	14.033	913.126	688.030
207.534	14.176	912.139	687.817
208.548	14.055	911.740	686.955
209.563	14.104	910.940	686.492
210.577	13.992	910.333	685.514
211.592	14.113	909.591	685.393
212.607	14.176	908.827	685.016
213.621	14.297	908.091	684.896
214.636	14.323	907.579	684.558
215.650	14.278	906.898	683.801
216.665	14.250	906.441	683.277
217.680	14.287	906.066	683.085
218.694	14.232	905.900	682.675
219.709	14.202	905.121	681.906
220.723	14.309	904.485	681.804
221.738	14.448	903.136	681.295
222.753	14.318	902.725	680.394
223.767	14.213	901.929	679.304
224.782	14.325	901.252	679.190
225.796	14.303	900.830	678.725
226.811	14.460	899.741	678.482
227.826	14.303	899.389	677.518
228.840	14.430	898.696	677.453
229.855	14.451	898.269	677.154
230.869	14.377	897.501	676.217
231.884	14.400	896.749	675.682
232.899	14.477	895.875	675.277
233.913	14.515	895.149	674.823
234.928	14.223	894.937	673.422
235.942	14.341	894.177	673.270
236.957	14.339	893.575	672.747
237.972	14.405	892.568	672.195
238.986	14.418	891.719	671.551
240.001	14.424	891.522	671.368
241.015	14.506	890.425	670.810
242.030	14.506	890.073	670.487
243.045	14.499	889.501	669.968
244.059	14.514	888.847	669.478
245.074	14.607	888.110	669.236
246.088	14.463	887.392	668.059
247.103	14.578	886.891	668.083
248.117	14.575	886.563	667.764
249.132	14.696	885.563	667.435
250.147	14.652	885.195	666.921
251.161	14.913	884.078	667.063
252.176	14.755	883.478	665.922
253.190	14.871	882.586	665.654
254.205	14.862	882.426	665.436
255.220	15.035	881.334	665.243
256.234	15.175	880.553	665.150
257.249	14.879	880.606	663.956
258.263	15.004	879.831	663.809
259.278	14.996	878.949	663.053
260.293	14.999	878.532	662.692
261.307	14.996	878.038	662.248
262.322	15.026	877.575	661.961
263.336	15.019	877.040	661.468
264.351	15.086	876.263	661.090
265.366	15.088	875.679	660.599
266.380	15.017	875.045	659.780
267.395	15.141	874.583	659.863
268.409	15.142	873.620	659.084
269.424	15.161	872.880	658.540
270.439	15.136	872.222	657.887
271.453	15.100	871.403	657.071
272.468	15.119	870.694	656.551
273.482	15.093	870.130	655.967
274.497	15.125	869.533	655.584
275.512	14.991	869.015	654.610
276.526	15.014	868.464	654.229
277.541	15.229	867.500	654.285
278.555	15.108	867.204	653.531
279.570	15.074	866.794	653.032
280.585	15.322	865.756	653.156
281.599	15.302	865.189	652.593
282.614	15.324	864.404	652.028
283.628	15.233	863.971	651.291
284.643	15.251	863.771	651.154
285.657	15.321	863.070	650.840
286.672	15.372	862.418	650.486
287.687	15.287	861.822	649.649
288.701	15.361	861.275	649.469
289.716	15.408	860.938	649.337
290.730	15.359	860.350	648.647
291.745	15.428	859.620	648.308
292.760	15.427	858.818	647.639
293.774	15.436	858.463	647.349
294.789	15.594	857.556	647.216
295.803	15.580	857.029	646.709
296.818	15.459	856.442	645.743
297.833	15.494	855.809	645.342
298.847	15.476	855.497	644.980
299.862	15.676	853.986	644.553
300.876	15.573	853.648	643.847
301.891	15.496	853.055	643.046
302.906	15.517	852.545	642.686
303.920	15.500	851.876	642.060
304.935	15.801	851.229	642.664
305.949	15.746	850.482	641.834
306.964	15.631	850.188	641.117
307.979	15.598	849.703	640.568
308.993	15.726	849.019	640.482
310.008	15.738	848.737	640.261
311.022	15.755	848.099	639.787
312.037	15.840	847.443	639.558
313.052	15.850	846.931	639.151
314.066	15.738	846.216	638.130
315.081	15.761	845.529	637.645
316.095	15.772	844.881	637.141
317.110	15.826	844.536	637.028
318.125	15.747	844.153	636.384
319.139	15.753	843.525	635.878
320.154	15.834	842.742	635.539
321.168	15.763	842.490	635.023
322.183	15.796	841.909	634.655
323.197	15.794	841.361	634.177
324.212	15.902	840.712	634.036
325.227	15.946	840.085	633.675
326.241	15.885	839.519	632.963
327.256	15.804	838.953	632.174
328.270	15.748	838.868	631.846
329.285	15.949	838.083	631.950
330.300	15.880	837.536	631.225
331.314	15.875	836.811	630.604
332.329	15.917	836.331	630.345
333.343	15.868	835.421	629.418
334.358	15.995	835.079	629.581
335.373	15.991	834.673	629.203
336.387	16.023	834.102	628.837
337.402	16.161	833.725	629.010
338.416	16.101	832.957	628.154
339.431	15.969	832.150	626.996
340.446	16.042	832.010	627.108
341.460	16.185	831.321	627.063
342.475	16.228	830.426	626.495
343.489	16.131	830.421	626.074
344.504	16.321	829.527	626.051
345.519	16.313	829.165	625.692
346.533	16.366	828.355	625.222
347.548	16.460	827.906	625.173
348.562	16.271	827.577	624.173
349.577	16.217	827.047	623.518
350.592	16.272	826.419	623.191
351.606	16.316	825.862	622.880
352.621	16.284	825.582	622.496
353.635	16.300	824.774	621.890
354.650	16.243	824.495	621.412
355.665	16.294	824.142	621.281
356.679	16.230	823.756	620.700
357.694	16.384	823.172	620.769
358.708	16.353	822.437	620.046
359.723	16.328	822.024	619.591
360.738	16.325	821.364	619.026
361.752	16.346	821.161	618.896
362.767	16.581	820.196	618.973
363.781	16.442	820.203	618.416
364.796	16.537	819.526	618.196
365.810	16.623	819.055	618.100
366.825	16.571	819.036	617.840
367.840	16.550	818.439	617.261
368.854	16.581	818.100	617.062
369.869	16.603	817.577	616.693
370.883	16.580	816.960	616.089
371.898	16.686	816.212	615.860
372.913	16.795	815.352	615.548
373.927	16.630	815.194	614.777
374.942	16.657	814.817	614.535
375.956	16.813	814.085	614.495
376.971	16.748	813.531	613.789
377.986	16.745	812.977	613.306
379.000	16.845	812.233	613.052
380.015	16.955	811.767	613.043
381.029	16.895	811.521	612.585
382.044	16.869	810.706	611.822
383.059	16.837	810.382	611.408
384.073	16.826	810.024	611.043
385.088	16.867	809.382	610.654
386.102	16.836	808.820	610.065
387.117	16.955	807.933	609.770
388.132	16.829	807.763	609.133
389.146	16.874	807.334	608.917
390.161	16.969	806.936	608.903
391.175	17.036	806.343	608.644
392.190	16.940	806.302	608.214
393.205	17.239	805.482	608.612
394.219	16.993	805.101	607.393
395.234	16.953	804.711	606.901
396.248	16.867	804.316	606.239
397.263	16.909	803.770	605.926
398.278	16.884	802.860	605.095
399.292	17.011	802.916	605.537
400.307	16.917	802.388	604.752
401.321	17.067	801.703	604.716
402.336	16.940	801.683	604.195
403.350	17.158	801.108	604.486
404.365	17.135	800.956	604.234
405.380	17.198	800.018	603.696
406.394	17.013	800.046	603.008
407.409	17.206	799.171	602.980
408.423	17.350	798.744	603.116
409.438	17.160	798.350	602.090
410.453	17.368	797.837	602.389
411.467	17.134	797.678	601.386
412.482	17.239	797.196	601.340
413.496	17.299	796.683	601.113
414.511	17.369	796.294	601.011
415.526	17.658	795.507	601.386
416.540	17.396	795.616	600.490
417.555	17.439	795.335	600.375
418.569	17.415	794.606	599.688
419.584	17.415	794.307	599.409
420.599	17.343	793.485	598.482
421.613	109.254	1292.831	1470.018
422.628	93.812	1365.598	1470.112
