DTS Sentinel unit serial number:	SN413079Multiplexer serial number:	ORYXHardware model number:	OX4-SRSoftware version number:	ORYX F/W v4.00 Oryx Data Collector v3.7.2.0data status	okinstallation	princeton_trtdifferential loss correction	single-endedforward channel	channel 3reverse channel	N/Adate	2019/09/19time	11:44:35forward acquisition time	60.00reverse acquisition time	0.00gamma	496.2192k internal	0.2341k external	0.2341temperature offset calibration	0.9988default loss term (dB/km)	0.3790temperature slope calibration	1.0000multiplexer offset coefficient	1.0000multiplexer slope coefficient	1.0000fibre end	0.00T internal ref (°C)	25.69T ext. ref 1 (°C)	0.81T ext. ref 2 (°C)	21.49length (m)	temperature (°C)	Stokes	anti-Stokes-747.200	-40.455	-0.157	0.082
-746.185	-200.000	-0.028	-0.193
-745.171	-70.532	0.086	0.033
-744.156	-200.000	-0.016	0.114
-743.142	172.310	-0.169	0.244
-742.127	26.127	-0.338	0.283
-741.112	-39.502	0.221	-0.116
-740.098	-200.000	-0.030	0.201
-739.083	216.325	0.137	0.218
-738.069	157.674	0.182	-0.253
-737.054	307.583	-0.087	-0.163
-736.039	152.910	-0.099	-0.135
-735.025	-92.758	-0.221	-0.062
-734.010	-3.605	-0.271	-0.188
-732.996	-89.625	-0.333	-0.098
-731.981	-24.594	-0.335	0.200
-730.966	164.425	-0.111	-0.157
-729.952	-125.898	-0.086	0.013
-728.937	-133.295	0.127	-0.016
-727.923	106.924	0.075	-0.090
-726.908	-10.008	-0.235	-0.156
-725.894	-149.469	0.136	0.011
-724.879	236.175	-0.142	0.235
-723.864	800.000	-0.041	0.147
-722.850	198.037	0.113	-0.173
-721.835	800.000	-0.054	-0.189
-720.821	-200.000	-0.022	-0.220
-719.806	-200.000	0.046	-0.279
-718.791	32.005	-0.222	-0.191
-717.777	-200.000	-0.026	-0.185
-716.762	39.277	-0.180	-0.161
-715.748	-130.359	0.221	-0.030
-714.733	289.762	0.046	0.084
-713.718	-81.905	-0.129	0.042
-712.704	109.672	-0.123	-0.147
-711.689	-113.940	0.322	0.063
-710.675	-84.252	-0.331	0.105
-709.660	-26.130	0.382	0.225
-708.645	95.627	-0.097	0.111
-707.631	-200.000	-0.001	0.352
-706.616	-87.713	-0.229	0.069
-705.602	89.505	0.030	0.033
-704.587	60.575	-0.156	0.154
-703.572	-62.374	0.227	0.095
-702.558	-200.000	0.402	0.000
-701.543	-82.516	-0.081	0.026
-700.529	-200.000	0.025	0.296
-699.514	800.000	-0.088	-0.267
-698.499	-105.601	-0.286	0.065
-697.485	-195.908	0.187	0.001
-696.470	-156.162	-0.360	0.023
-695.456	-117.747	-0.130	0.023
-694.441	-105.449	0.306	-0.070
-693.426	-200.000	-0.049	0.415
-692.412	-40.762	0.253	-0.131
-691.397	-121.008	0.189	0.032
-690.383	-200.000	0.055	0.283
-689.368	175.069	0.083	0.120
-688.354	275.441	0.127	-0.225
-687.339	-92.072	-0.131	-0.037
-686.324	-68.707	0.057	0.022
-685.310	-111.525	-0.175	0.036
-684.295	-20.321	-0.157	0.097
-683.281	-48.457	-0.302	-0.146
-682.266	-11.720	0.149	0.098
-681.251	-171.147	0.176	-0.006
-680.237	800.000	-0.125	-0.364
-679.222	146.260	0.146	-0.195
-678.208	-3.392	-0.248	-0.173
-677.193	800.000	0.030	0.109
-676.178	-89.179	0.078	-0.023
-675.164	-136.399	0.135	-0.016
-674.149	-114.001	-0.247	-0.048
-673.135	484.462	0.146	-0.332
-672.120	65.428	0.340	0.344
-671.105	44.073	0.246	0.226
-670.091	-160.132	-0.151	-0.008
-669.076	130.744	0.060	-0.076
-668.062	800.000	0.051	0.161
-667.047	-121.241	-0.304	0.051
-666.032	-107.902	-0.267	0.058
-665.018	711.892	-0.122	-0.322
-664.003	-60.537	-0.175	0.074
-662.989	199.487	-0.115	0.177
-661.974	800.000	-0.036	-0.121
-660.959	-44.826	0.232	0.116
-659.945	-18.464	-0.159	0.099
-658.930	266.015	0.036	0.063
-657.916	800.000	-0.027	-0.100
-656.901	-200.000	0.030	0.283
-655.886	-52.566	0.093	-0.043
-654.872	355.955	-0.105	-0.209
-653.857	191.224	-0.085	-0.127
-652.843	-2.983	0.270	-0.188
-651.828	-200.000	0.096	-0.429
-650.814	129.209	-0.082	-0.105
-649.799	-73.967	0.115	0.042
-648.784	716.639	0.163	0.432
-647.770	-83.203	-0.324	-0.104
-646.755	-89.201	0.317	-0.094
-645.741	800.000	-0.080	0.233
-644.726	734.844	-0.115	-0.308
-643.711	-92.385	0.024	-0.007
-642.697	-200.000	0.022	-0.195
-641.682	184.600	0.041	-0.061
-640.668	-200.000	0.025	0.135
-639.653	6.388	-0.209	-0.155
-638.638	183.228	0.129	-0.190
-637.624	-47.893	0.218	-0.105
-636.609	111.517	0.152	-0.183
-635.595	-120.286	0.164	-0.028
-634.580	27.839	-0.287	-0.242
-633.565	80.739	-0.105	0.113
-632.551	253.006	-0.166	0.282
-631.536	-135.947	0.163	0.019
-630.522	278.620	0.129	0.230
-629.507	-73.947	0.049	0.018
-628.492	-55.335	-0.207	-0.093
-627.478	-159.485	0.208	0.012
-626.463	800.000	0.043	0.163
-625.449	-26.769	-0.251	0.146
-624.434	28.991	-0.028	0.024
-623.419	123.270	-0.086	-0.108
-622.405	692.477	-0.024	-0.064
-621.390	-130.787	0.424	-0.057
-620.376	467.216	-0.132	-0.294
-619.361	-87.713	0.223	-0.067
-618.346	-14.350	-0.276	-0.178
-617.332	55.543	0.271	-0.261
-616.317	-69.410	0.142	-0.054
-615.303	-112.660	-0.109	-0.022
-614.288	-65.653	0.183	-0.073
-613.273	-93.426	-0.337	0.093
-612.259	-26.066	0.117	0.069
-611.244	748.300	-0.080	-0.215
-610.230	135.188	-0.234	0.304
-609.215	-17.353	-0.114	0.072
-608.201	800.000	-0.068	0.242
-607.186	-112.897	0.295	0.058
-606.171	755.226	-0.054	0.147
-605.157	-21.370	0.156	0.095
-604.142	-75.529	-0.062	0.022
-603.128	-91.271	-0.427	-0.122
-602.113	-2.173	0.205	-0.143
-601.098	-24.135	0.152	0.091
-600.084	-42.017	0.095	0.048
-599.069	140.104	0.035	0.046
-598.055	-23.684	-0.186	0.111
-597.040	85.785	-0.146	-0.160
-596.025	-5.432	-0.064	0.044
-595.011	-200.000	-0.049	0.217
-593.996	-101.031	-0.229	-0.056
-592.982	-200.000	0.009	-0.080
-591.967	-59.163	0.088	-0.038
-590.952	12.625	-0.135	-0.104
-589.938	-200.000	-0.038	0.299
-588.923	-122.578	0.217	-0.035
-587.909	521.308	0.012	-0.029
-586.894	180.023	0.166	-0.243
-585.879	-200.000	0.051	0.249
-584.865	-144.275	0.223	-0.021
-583.850	-88.933	0.269	-0.079
-582.836	-130.096	-0.191	-0.026
-581.821	800.000	-0.072	-0.302
-580.806	-200.000	-0.036	-0.174
-579.792	-128.765	0.166	-0.023
-578.777	-67.909	0.192	0.075
-577.763	800.000	0.020	0.063
-576.748	-0.995	-0.064	0.045
-575.733	184.042	-0.074	-0.109
-574.719	-200.000	0.037	-0.202
-573.704	-73.929	-0.369	-0.133
-572.690	-89.490	0.260	0.076
-571.675	-200.000	-0.083	0.425
-570.661	-78.915	0.073	0.025
-569.646	-77.340	-0.188	-0.065
-568.631	-88.626	0.468	0.139
-567.617	8.560	0.069	-0.052
-566.602	800.000	0.027	0.084
-565.588	105.158	0.151	0.178
-564.573	-4.378	-0.169	-0.117
-563.558	-81.999	-0.309	-0.101
-562.544	22.397	0.209	0.170
-561.529	-200.000	-0.008	0.249
-560.515	517.387	-0.118	-0.274
-559.500	32.911	0.083	0.071
-558.485	155.462	0.130	-0.178
-557.471	53.984	-0.331	-0.316
-556.456	495.933	0.208	0.476
-555.442	-200.000	-0.016	-0.071
-554.427	69.643	-0.216	-0.221
-553.412	-182.233	-0.272	-0.005
-552.398	198.069	-0.128	-0.195
-551.383	-200.000	-0.003	-0.098
-550.369	508.878	-0.116	-0.268
-549.354	237.839	-0.158	-0.260
-548.339	144.774	-0.165	0.220
-547.325	290.128	-0.165	0.298
-546.310	29.030	0.278	0.235
-545.296	-29.330	-0.206	0.117
-544.281	-77.206	-0.260	-0.090
-543.266	-161.374	-0.089	0.005
-542.252	800.000	0.072	-0.214
-541.237	400.141	-0.203	-0.423
-540.223	99.291	-0.265	0.305
-539.208	-200.000	-0.010	0.051
-538.193	-136.724	0.284	-0.033
-537.179	-200.000	0.035	0.335
-536.164	138.812	-0.198	0.259
-535.150	-43.849	0.300	0.150
-534.135	27.647	0.527	0.441
-533.121	800.000	-0.020	-0.059
-532.106	-200.000	-0.001	-0.027
-531.091	93.178	-0.096	0.108
-530.077	213.068	-0.135	-0.213
-529.062	-200.000	-0.013	0.072
-528.048	-200.000	-0.005	-0.231
-527.033	-200.000	0.010	0.055
-526.018	62.219	-0.048	-0.048
-525.004	-112.995	0.268	0.053
-523.989	-92.981	-0.350	-0.097
-522.975	-200.000	-0.020	0.163
-521.960	374.409	0.162	-0.329
-520.945	-106.709	-0.355	0.078
-519.931	495.798	0.106	-0.241
-518.916	-89.995	0.256	-0.074
-517.902	-200.000	-0.181	-0.000
-516.887	46.498	0.144	0.132
-515.872	-120.397	0.206	-0.035
-514.858	-69.878	0.344	0.131
-513.843	-4.410	0.216	0.148
-512.829	-69.936	-0.152	0.057
-511.814	-135.116	-0.300	0.036
-510.799	14.896	-0.142	0.110
-509.785	-200.000	0.003	-0.460
-508.770	170.385	-0.144	-0.204
-507.756	-115.936	-0.393	0.073
-506.741	204.158	-0.148	0.228
-505.726	172.794	0.178	0.255
-504.712	445.896	-0.078	-0.171
-503.697	110.234	0.109	0.130
-502.683	336.151	-0.142	0.274
-501.668	-116.274	-0.160	0.029
-500.653	163.722	0.227	-0.317
-499.639	-72.225	-0.104	-0.038
-498.624	22.036	0.172	0.139
-497.610	33.408	-0.488	0.421
-496.595	406.967	-0.143	0.299
-495.581	-75.051	-0.096	0.034
-494.566	351.640	0.289	-0.569
-493.551	-200.000	-0.090	-0.455
-492.537	304.173	0.077	-0.142
-491.522	-200.000	0.001	0.131
-490.508	428.042	-0.105	-0.225
-489.493	-98.292	0.301	-0.077
-488.478	19.437	0.142	-0.113
-487.464	114.835	-0.257	-0.311
-486.449	800.000	0.144	0.430
-485.435	-105.034	-0.510	-0.116
-484.420	-200.000	-0.011	-0.208
-483.405	427.570	-0.070	-0.149
-482.391	800.000	0.035	0.104
-481.376	5.300	0.154	0.113
-480.362	-200.000	0.015	0.122
-479.347	-146.328	0.165	-0.014
-478.332	169.367	0.122	0.172
-477.318	-11.010	-0.034	-0.022
-476.303	-53.889	-0.214	0.097
-475.289	-4.032	-0.120	0.082
-474.274	-200.000	-0.033	0.373
-473.259	-200.000	0.031	0.164
-472.245	-200.000	0.000	-0.079
-471.230	93.842	0.066	0.074
-470.216	50.574	0.158	0.148
-469.201	662.219	-0.015	-0.039
-468.186	51.522	-0.285	0.269
-467.172	392.226	0.020	-0.042
-466.157	283.063	0.080	0.143
-465.143	152.124	-0.048	0.064
-464.128	-200.000	0.005	-0.214
-463.113	189.993	-0.111	-0.165
-462.099	-189.029	-0.236	0.003
-461.084	-82.922	0.380	0.121
-460.070	552.633	0.141	-0.335
-459.055	497.283	0.135	0.309
-458.040	-90.649	-0.154	0.044
-457.026	-200.000	0.003	-0.043
-456.011	-110.369	-0.190	-0.039
-454.997	-61.971	0.203	0.084
-453.982	800.000	0.162	0.470
-452.968	487.863	0.060	-0.135
-451.953	800.000	-0.026	-0.084
-450.938	10.944	-0.059	-0.045
-449.924	36.753	0.109	-0.096
-448.909	46.305	-0.163	-0.150
-447.895	84.591	-0.220	-0.239
-446.880	23.905	0.148	-0.121
-445.865	-141.382	-0.231	-0.023
-444.851	-138.000	-0.255	0.028
-443.836	-85.412	-0.222	0.068
-442.822	-99.476	-0.243	-0.061
-441.807	327.474	0.156	0.297
-440.792	95.818	-0.035	-0.040
-439.778	-101.989	-0.360	-0.086
-438.763	-200.000	-0.007	-0.346
-437.749	-50.858	0.232	0.108
-436.734	264.930	0.009	-0.016
-435.719	800.000	0.048	-0.184
-434.705	-77.678	0.342	0.117
-433.690	-18.889	-0.146	0.090
-432.676	800.000	0.032	-0.128
-431.661	219.133	-0.091	-0.144
-430.646	-200.000	-0.002	-0.177
-429.632	800.000	-0.024	0.102
-428.617	-200.000	0.022	-0.134
-427.603	-189.638	0.300	-0.003
-426.588	-200.000	-0.025	-0.264
-425.573	-34.899	-0.271	-0.146
-424.559	92.558	0.046	-0.052
-423.544	-200.000	-0.009	-0.378
-422.530	145.339	-0.074	0.098
-421.515	-35.101	-0.181	0.098
-420.500	-200.000	0.025	0.198
-419.486	-200.000	0.005	-0.078
-418.471	-200.000	-0.022	-0.413
-417.457	-200.000	0.025	0.123
-416.442	-15.831	-0.396	-0.249
-415.428	-1.537	0.204	-0.142
-414.413	-134.811	0.008	-0.001
-413.398	10.767	0.189	0.143
-412.384	-156.935	0.044	0.003
-411.369	10.592	0.102	0.077
-410.355	-200.000	0.038	-0.218
-409.340	-62.472	0.159	-0.065
-408.325	-200.000	0.005	-0.093
-407.311	250.768	-0.093	-0.156
-406.296	-200.000	0.027	0.349
-405.282	3.073	0.134	-0.096
-404.267	74.538	-0.196	0.204
-403.252	21.445	-0.218	0.175
-402.238	85.477	0.105	0.114
-401.223	-200.000	0.008	0.194
-400.209	42.600	-0.184	-0.165
-399.194	-90.248	-0.140	-0.040
-398.179	-200.000	-0.065	-0.324
-397.165	-159.527	-0.254	-0.014
-396.150	88.802	0.173	-0.190
-395.136	-24.927	0.251	0.147
-394.121	-182.878	-0.090	0.002
-393.106	134.044	-0.064	-0.082
-392.092	125.001	0.106	0.132
-391.077	-200.000	-0.038	-0.173
-390.063	-200.000	0.026	0.318
-389.048	28.263	-0.193	0.161
-388.033	-200.000	0.000	0.003
-387.019	-36.378	-0.235	-0.125
-386.004	-200.000	-0.069	-0.352
-384.990	-176.168	-0.252	-0.007
-383.975	114.284	0.084	-0.101
-382.960	-102.207	0.113	-0.027
-381.946	-50.612	-0.126	-0.059
-380.931	90.715	0.353	0.390
-379.917	-45.249	-0.234	0.115
-378.902	-65.681	0.359	0.142
-377.888	434.743	-0.077	-0.165
-376.873	30.923	0.028	-0.024
-375.858	-37.914	0.188	0.099
-374.844	12.114	0.223	-0.170
-373.829	-44.423	-0.219	0.108
-372.815	-200.000	-0.003	-0.295
-371.800	-200.000	0.029	-0.168
-370.785	-170.778	0.319	-0.011
-369.771	800.000	0.060	-0.185
-368.756	70.053	0.062	0.064
-367.742	-14.355	0.312	-0.198
-366.727	-128.302	0.056	-0.008
-365.712	-50.245	-0.413	0.193
-364.698	-54.956	-0.257	0.114
-363.683	-73.115	0.467	0.169
-362.669	349.404	-0.039	0.076
-361.654	774.051	0.010	0.026
-360.639	7.687	0.175	-0.129
-359.625	-10.500	-0.067	-0.044
-358.610	106.384	0.193	0.226
-357.596	25.854	0.123	-0.101
-356.581	-59.685	-0.217	-0.092
-355.566	238.934	-0.059	-0.096
-354.552	-56.726	0.284	0.124
-353.537	477.829	0.085	-0.191
-352.523	93.394	-0.074	0.082
-351.508	-200.000	-0.048	0.269
-350.493	800.000	0.093	0.387
-349.479	-27.862	-0.162	0.092
-348.464	49.530	-0.191	0.177
-347.450	800.000	-0.072	0.297
-346.435	-45.503	-0.433	0.212
-345.420	800.000	-0.004	-0.017
-344.406	239.203	0.110	-0.180
-343.391	-70.174	0.155	0.058
-342.377	-101.558	0.330	-0.079
-341.362	263.073	0.104	0.179
-340.348	114.457	-0.127	-0.152
-339.333	117.932	-0.197	-0.240
-338.318	-93.006	0.286	0.079
-337.304	508.678	-0.082	0.187
-336.289	767.990	0.173	-0.465
-335.275	-73.070	0.096	0.035
-334.260	499.277	-0.089	-0.201
-333.245	130.165	-0.189	0.238
-332.231	231.369	0.098	0.159
-331.216	-200.000	0.030	0.137
-330.202	25.052	-0.167	-0.137
-329.187	-148.062	-0.129	-0.011
-328.172	-200.000	-0.035	0.355
-327.158	-200.000	0.063	0.301
-326.143	17.788	0.220	0.173
-325.129	780.747	-0.058	0.157
-324.114	262.128	0.075	-0.128
-323.099	-84.311	-0.057	0.018
-322.085	92.862	0.081	0.091
-321.070	6.282	0.002	-0.002
-320.056	-130.182	0.280	0.038
-319.041	94.587	0.106	0.119
-318.026	160.201	0.054	-0.074
-317.012	-200.000	0.119	0.754
-315.997	-100.560	-0.144	-0.035
-314.983	72.528	0.122	0.125
-313.968	111.714	0.350	-0.416
-312.953	5.734	-0.372	-0.271
-311.939	-71.231	-0.039	-0.015
-310.924	-151.859	-0.369	-0.027
-309.910	800.000	-0.074	-0.218
-308.895	-200.000	-0.030	-0.278
-307.880	57.862	-0.170	0.164
-306.866	-200.000	-0.033	0.239
-305.851	-181.354	-0.314	0.006
-304.837	209.184	-0.081	0.124
-303.822	-200.000	-0.000	0.072
-302.807	-21.098	0.187	0.113
-301.793	608.304	0.172	-0.423
-300.778	40.562	0.266	-0.236
-299.764	84.379	-0.160	-0.172
-298.749	-200.000	-0.057	-0.427
-297.735	-24.602	0.138	0.081
-296.720	800.000	0.026	-0.091
-295.705	800.000	0.033	-0.097
-294.691	-83.491	-0.198	-0.062
-293.676	177.315	0.105	-0.151
-292.662	800.000	-0.087	0.357
-291.647	-108.279	-0.327	-0.070
-290.632	-200.000	0.035	-0.313
-289.618	-132.102	0.164	0.021
-288.603	691.987	-0.043	-0.112
-287.589	152.991	-0.102	-0.138
-286.574	-118.062	0.449	-0.079
-285.559	8.627	0.198	-0.147
-284.545	473.052	0.095	0.211
-283.530	-7.826	-0.073	-0.048
-282.516	-200.000	-0.050	0.256
-281.501	-34.092	0.054	0.029
-280.486	9.739	0.020	-0.015
-279.472	-200.000	-0.002	0.349
-278.457	-182.182	0.296	0.005
-277.443	-96.078	-0.461	0.121
-276.428	-99.940	-0.374	-0.092
-275.413	447.460	0.111	-0.239
-274.399	800.000	-0.022	-0.074
-273.384	206.905	-0.088	-0.135
-272.370	97.916	0.111	0.126
-271.355	-135.101	-0.202	0.024
-270.340	-181.419	0.291	0.006
-269.326	800.000	0.041	-0.130
-268.311	-56.070	0.093	-0.041
-267.297	-38.807	0.263	0.136
-266.282	319.722	0.199	0.371
-265.267	-40.422	0.466	-0.238
-264.253	-153.672	0.090	-0.006
-263.238	-108.346	0.134	0.028
-262.224	-100.370	-0.253	-0.062
-261.209	57.130	-0.117	-0.112
-260.195	61.379	-0.137	-0.134
-259.180	-200.000	-0.030	0.303
-258.165	-200.000	-0.009	0.146
-257.151	152.222	0.166	0.223
-256.136	-111.848	0.065	-0.013
-255.122	800.000	0.105	-0.394
-254.107	-200.000	0.152	0.001
-253.092	15.503	0.152	-0.118
-252.078	370.087	-0.066	-0.131
-251.063	800.000	0.013	-0.042
-250.049	98.691	-0.109	-0.123
-249.034	-200.000	-0.011	0.106
-248.019	800.000	-0.029	0.103
-247.005	-121.999	0.266	-0.043
-245.990	-3.535	-0.357	0.244
-244.976	-13.446	0.304	-0.193
-243.961	800.000	-0.060	-0.167
-242.946	-24.717	0.391	-0.229
-241.932	-68.023	-0.215	0.082
-240.917	53.287	-0.163	0.154
-239.903	-45.052	0.070	0.034
-238.888	-200.000	0.011	0.151
-237.873	164.259	0.184	-0.254
-236.859	-62.612	-0.133	0.054
-235.844	218.438	-0.178	-0.279
-234.830	-126.600	0.130	-0.019
-233.815	800.000	-0.017	0.059
-232.800	23.702	-0.207	0.167
-231.786	-200.000	-0.030	0.138
-230.771	-94.749	0.366	0.098
-229.757	99.519	0.124	-0.141
-228.742	23.483	-0.151	-0.122
-227.727	-36.865	0.340	-0.179
-226.713	501.419	-0.028	-0.063
-225.698	365.203	-0.065	-0.129
-224.684	800.000	0.113	-0.327
-223.669	357.595	0.175	0.344
-222.655	117.163	-0.134	0.162
-221.640	-200.000	0.018	-0.523
-220.625	-41.416	-0.148	-0.075
-219.611	32.934	0.155	0.132
-218.596	-97.463	0.295	0.075
-217.582	-98.141	0.284	0.072
-216.567	322.559	0.052	-0.098
-215.552	-200.000	-0.079	0.518
-214.538	34.534	-0.142	-0.121
-213.523	468.065	0.107	-0.235
-212.509	-84.386	-0.345	0.107
-211.494	-190.578	0.390	0.004
-210.479	-49.638	-0.102	0.048
-209.465	439.225	0.195	0.418
-208.450	800.000	-0.096	0.280
-207.436	-44.705	0.378	0.185
-206.421	-67.788	-0.174	-0.067
-205.406	-62.061	-0.039	0.016
-204.392	-200.000	-0.021	-0.291
-203.377	-146.314	-0.335	0.029
-202.363	-98.330	0.260	0.065
-201.348	-200.000	-0.002	0.060
-200.333	9.580	-0.227	0.169
-199.319	71.898	-0.057	0.058
-198.304	5.751	0.367	0.266
-197.290	-200.000	0.019	-0.125
-196.275	-77.842	0.167	-0.057
-195.260	-115.765	-0.279	-0.051
-194.246	-200.000	0.016	-0.098
-193.231	-200.000	-0.012	0.332
-192.217	61.382	-0.048	0.047
-191.202	-200.000	-0.033	0.152
-190.187	-169.586	-0.354	0.013
-189.173	-200.000	-0.024	-0.134
-188.158	-77.436	-0.056	-0.019
-187.144	-34.704	0.036	0.019
-186.129	11.743	0.043	0.033
-185.114	-68.677	-0.357	0.135
-184.100	85.782	0.109	-0.117
-183.085	392.864	0.056	0.114
-182.071	-182.875	0.312	-0.005
-181.056	-39.542	-0.406	0.208
-180.042	-102.431	-0.103	0.024
-179.027	-157.900	0.322	0.019
-178.012	-200.000	-0.010	-0.094
-176.998	-0.383	-0.205	0.143
-175.983	800.000	-0.037	0.129
-174.969	-181.841	0.137	-0.003
-173.954	-200.000	0.018	-0.580
-172.939	-94.779	-0.196	0.052
-171.925	-200.000	-0.057	0.252
-170.910	-200.000	-0.037	-0.345
-169.896	313.872	0.037	-0.068
-168.881	-91.672	0.174	0.049
-167.866	137.322	-0.174	0.223
-166.852	119.270	0.360	0.436
-165.837	495.173	0.018	-0.040
-164.823	-151.873	-0.046	-0.003
-163.808	-200.000	0.006	-0.372
-162.793	-17.816	-0.103	-0.063
-161.779	-34.963	0.207	0.111
-160.764	-139.462	0.129	-0.014
-159.750	800.000	-0.057	0.242
-158.735	590.869	-0.045	-0.109
-157.720	-135.737	0.172	-0.020
-156.706	-57.143	0.219	-0.095
-155.691	55.445	-0.234	-0.222
-154.677	-56.038	-0.408	0.178
-153.662	-181.685	-0.079	-0.001
-152.647	329.496	-0.096	0.180
-151.633	-125.621	-0.070	0.010
-150.618	-165.222	-0.166	-0.007
-149.604	800.000	-0.131	-0.482
-148.589	-75.338	0.139	0.048
-147.574	65.981	-0.153	0.152
-146.560	-79.488	0.305	-0.101
-145.545	20.328	0.421	0.333
-144.531	191.563	-0.238	-0.350
-143.516	800.000	0.088	-0.255
-142.502	45.881	-0.201	-0.182
-141.487	442.897	-0.034	0.072
-140.472	-200.000	-0.000	-0.016
-139.458	141.570	0.086	-0.111
-138.443	81.087	0.410	-0.433
-137.429	-27.361	0.243	-0.138
-136.414	30.466	-0.137	-0.115
-135.399	-200.000	0.025	-0.288
-134.385	800.000	-0.070	-0.271
-133.370	-200.000	-0.010	0.317
-132.356	118.616	0.056	-0.067
-131.341	717.965	-0.015	0.038
-130.326	132.929	0.198	-0.250
-129.312	-200.000	0.034	-0.208
-128.297	-113.166	0.291	-0.056
-127.283	-78.863	0.059	0.020
-126.268	-95.034	-0.202	-0.053
-125.253	42.596	-0.180	-0.160
-124.239	722.053	0.036	0.093
-123.224	-200.000	-0.057	-0.000
-122.210	800.000	0.048	0.148
-121.195	-77.532	-0.266	-0.090
-120.180	15.270	0.234	0.179
-119.166	-161.832	0.069	-0.003
-118.151	-200.000	0.018	0.106
-117.137	-171.952	-0.187	-0.006
-116.122	355.583	-0.049	-0.095
-115.107	102.911	0.074	0.084
-114.093	-67.080	0.290	0.112
-113.078	-108.167	-0.020	0.004
-112.064	-121.642	0.124	0.020
-111.049	-62.975	-0.167	-0.068
-110.034	-86.038	0.127	-0.038
-109.020	-95.812	-0.260	0.068
-108.005	-116.576	0.247	-0.044
-106.991	-200.000	0.040	0.308
-105.976	222.260	0.049	-0.078
-104.962	68.751	0.099	-0.099
-103.947	-200.000	-0.039	-0.170
-102.932	800.000	0.068	0.192
-101.918	590.419	0.022	0.053
-100.903	-129.140	-0.197	-0.027
-99.889	-143.309	-0.136	0.013
-98.874	-59.750	0.231	0.097
-97.859	225.017	0.090	-0.142
-96.845	-200.000	0.047	-0.226
-95.830	27.809	-0.180	-0.148
-94.816	104.385	0.108	0.124
-93.801	-94.428	-0.164	0.044
-92.786	-47.927	-0.202	-0.095
-91.772	-116.250	0.032	0.006
-90.757	73.757	-0.248	0.253
-89.743	-71.792	-0.352	-0.128
-88.728	53.818	0.072	0.068
-87.713	742.897	0.080	0.211
-86.699	-93.479	0.149	0.040
-85.684	-32.729	-0.195	-0.106
-84.670	295.617	-0.119	0.212
-83.655	-200.000	-0.010	0.091
-82.640	-56.625	-0.177	0.077
-81.626	-176.413	0.166	-0.004
-80.611	800.000	-0.080	0.293
-79.597	-37.499	0.339	0.177
-78.582	-11.279	0.052	0.034
-77.567	-200.000	0.026	0.225
-76.553	24.457	-0.079	-0.064
-75.538	247.313	-0.129	0.213
-74.524	-110.952	-0.200	0.040
-73.509	20.117	0.127	-0.100
-72.494	115.609	0.089	0.106
-71.480	39.247	-0.158	-0.138
-70.465	-200.000	0.086	0.452
-69.451	547.521	0.063	-0.148
-68.436	-23.172	0.424	-0.249
-67.422	-200.000	-0.026	-0.323
-66.407	-34.997	-0.043	0.023
-65.392	162.228	0.244	0.333
-64.378	-200.000	-0.030	-0.209
-63.363	-108.301	0.214	-0.045
-62.349	-77.566	-0.243	0.082
-61.334	47.540	-0.879	-0.800
-60.319	-43.615	0.877	0.432
-59.305	113.223	-0.645	-0.763
-58.290	331.838	0.649	1.221
-57.276	254.766	0.817	1.364
-56.261	-200.000	117.499	615.656
-55.246	403.481	1559.352	3201.251
-54.232	140.191	2743.717	3530.379
-53.217	97.089	2211.679	2474.514
-52.203	36.482	1723.306	1483.132
-51.188	28.744	1536.997	1269.500
-50.173	26.684	1511.826	1234.641
-49.159	48.317	1574.448	1437.203
-48.144	47.037	1588.470	1441.026
-47.130	28.860	1542.924	1275.002
-46.115	25.902	1527.546	1241.891
-45.100	25.739	1524.016	1237.851
-44.086	25.704	1522.128	1236.031
-43.071	25.741	1519.901	1234.427
-42.057	25.598	1518.465	1232.232
-41.042	25.745	1517.017	1232.016
-40.027	25.725	1515.459	1230.560
-39.013	25.611	1514.499	1228.955
-37.998	25.657	1512.731	1227.787
-36.984	25.670	1511.880	1227.138
-35.969	25.680	1510.462	1226.007
-34.954	25.678	1508.799	1224.594
-33.940	25.663	1507.295	1223.218
-32.925	25.763	1505.777	1222.617
-31.911	25.754	1504.919	1221.813
-30.896	25.793	1503.245	1220.668
-29.881	25.677	1501.824	1218.682
-28.867	25.692	1501.276	1218.288
-27.852	25.722	1499.562	1217.054
-26.838	25.677	1498.296	1215.676
-25.823	25.796	1496.130	1214.670
-24.809	25.694	1494.634	1212.723
-23.794	25.612	1494.054	1211.651
-22.779	25.675	1492.906	1211.097
-21.765	25.706	1491.455	1210.081
-20.750	25.672	1490.385	1208.931
-19.736	25.731	1488.824	1208.013
-18.721	25.734	1487.650	1207.034
-17.706	25.704	1487.060	1206.309
-16.692	25.528	1486.234	1204.410
-15.677	25.726	1485.197	1204.847
-14.663	25.769	1484.309	1204.369
-13.648	25.682	1482.671	1202.410
-12.633	25.665	1482.091	1201.776
-11.619	25.663	1481.056	1200.876
-10.604	25.716	1480.406	1200.656
-9.590	25.730	1479.183	1199.712
-8.575	25.683	1478.247	1198.588
-7.560	25.682	1477.329	1197.788
-6.546	25.684	1476.610	1197.172
-5.531	25.706	1475.750	1196.578
-4.517	25.691	1474.433	1195.357
-3.502	25.657	1473.929	1194.677
-2.487	25.611	1473.163	1193.708
-1.473	25.669	1471.869	1192.994
-0.458	25.644	1470.508	1191.677
0.556	24.814	1460.857	1181.551
1.571	22.034	1436.237	1143.459
2.586	18.740	1373.066	1072.525
3.600	17.137	1287.529	996.229
4.615	15.970	1243.330	955.330
5.629	14.030	1185.959	900.665
6.644	7.124	1102.060	801.990
7.659	1.729	1063.745	747.603
8.673	0.891	1058.378	739.670
9.688	0.780	1055.243	736.876
10.702	0.817	1053.848	736.015
11.717	0.762	1051.677	734.169
12.731	2.938	1053.309	745.815
13.746	9.578	1062.424	784.634
14.761	15.506	1069.370	818.676
15.775	17.176	1071.384	828.292
16.790	17.112	1069.549	826.491
17.804	16.067	1067.920	820.076
18.819	15.280	1065.750	814.515
19.834	14.858	1064.670	811.573
20.848	14.494	1063.352	808.730
21.863	14.186	1063.208	807.054
22.877	14.031	1062.276	805.522
23.892	13.756	1061.160	803.275
24.907	13.684	1060.733	802.535
25.921	13.662	1059.660	801.544
26.936	13.676	1058.977	801.026
27.950	13.623	1058.299	800.185
28.965	13.679	1057.616	799.867
29.980	13.854	1056.154	799.535
30.994	13.836	1055.836	799.135
32.009	13.951	1054.636	798.711
33.023	13.949	1053.890	798.062
34.038	13.879	1053.812	797.600
35.053	13.901	1052.348	796.525
36.067	13.824	1051.759	795.640
37.082	13.842	1050.775	794.911
38.096	13.796	1049.972	794.011
39.111	13.848	1049.197	793.604
40.126	13.923	1048.198	793.141
41.140	13.956	1046.515	791.953
42.155	13.810	1045.836	790.671
43.169	13.821	1044.790	789.863
44.184	13.751	1044.212	789.025
45.199	13.699	1043.004	787.796
46.213	13.745	1041.662	786.931
47.228	13.708	1041.049	786.219
48.242	13.771	1039.874	785.561
49.257	13.896	1039.033	785.450
50.271	13.822	1037.994	784.244
51.286	13.743	1037.227	783.224
52.301	13.684	1036.388	782.243
53.315	13.820	1035.922	782.462
54.330	13.638	1035.242	781.023
55.344	13.706	1034.238	780.517
56.359	13.781	1032.905	779.794
57.374	13.718	1032.222	778.910
58.388	13.842	1031.177	778.636
59.403	13.695	1030.884	777.658
60.417	13.687	1029.926	776.830
61.432	13.702	1029.137	776.232
62.447	13.710	1028.057	775.388
63.461	13.717	1027.409	774.864
64.476	13.709	1026.742	774.254
65.490	13.620	1026.121	773.302
66.505	13.536	1024.891	771.916
67.520	13.708	1023.863	771.872
68.534	13.759	1022.832	771.264
69.549	13.760	1022.527	770.973
70.563	13.883	1021.628	770.797
71.578	13.719	1021.206	769.651
72.593	13.669	1020.445	768.777
73.607	13.651	1019.241	767.716
74.622	13.623	1018.360	766.855
75.636	13.769	1017.148	766.551
76.651	13.500	1017.068	765.179
77.666	13.593	1016.258	764.930
78.680	13.646	1015.346	764.423
79.695	13.714	1014.509	764.036
80.709	13.696	1014.157	763.624
81.724	13.789	1013.056	763.153
82.739	13.762	1012.458	762.513
83.753	13.813	1011.934	762.283
84.768	13.758	1010.923	761.203
85.782	13.792	1010.375	760.877
86.797	13.960	1009.316	760.780
87.812	13.845	1008.681	759.712
88.826	13.924	1007.220	758.906
89.841	13.731	1007.123	757.884
90.855	13.797	1005.956	757.236
91.870	13.827	1005.256	756.782
92.884	13.972	1004.583	756.867
93.899	13.885	1003.808	755.820
94.914	13.873	1002.718	754.878
95.928	13.805	1002.823	754.581
96.943	13.925	1001.756	754.256
97.957	13.855	1001.253	753.494
98.972	14.037	999.681	753.067
99.987	13.920	999.491	752.328
101.001	13.947	998.666	751.764
102.016	13.832	998.318	750.914
103.030	13.888	996.892	750.030
104.045	13.960	995.846	749.498
105.060	13.873	994.967	748.380
106.074	13.901	993.918	747.651
107.089	13.831	993.153	746.694
108.103	13.901	992.401	746.380
109.118	13.733	991.604	744.960
110.133	13.727	990.702	744.189
111.147	13.900	989.847	744.255
112.162	13.813	988.693	742.934
113.176	13.780	987.655	741.937
114.191	13.856	987.152	741.835
115.206	13.893	985.766	740.894
116.220	13.799	985.237	740.011
117.235	13.875	984.484	739.716
118.249	13.777	983.899	738.775
119.264	13.816	982.789	738.053
120.279	13.865	981.649	737.349
121.293	13.853	981.109	736.823
122.308	13.806	980.383	736.005
123.322	13.735	979.722	735.129
124.337	13.834	978.536	734.611
125.352	13.861	977.048	733.548
126.366	13.771	976.492	732.668
127.381	13.757	975.238	731.602
128.395	13.831	974.226	731.106
129.410	13.781	972.982	729.887
130.424	13.794	972.134	729.242
131.439	13.842	971.170	728.667
132.454	13.783	970.546	727.872
133.468	13.797	969.707	727.240
134.483	13.858	969.278	727.124
135.497	13.793	968.768	726.393
136.512	13.923	967.472	725.924
137.527	13.868	966.930	725.211
138.541	13.915	965.940	724.610
139.556	13.882	965.751	724.261
140.570	13.923	964.387	723.354
141.585	13.842	963.694	722.415
142.600	13.798	963.187	721.780
143.614	13.881	962.299	721.414
144.629	14.012	961.309	721.176
145.643	13.981	960.501	720.370
146.658	14.043	959.642	719.930
147.673	13.850	959.100	718.624
148.687	13.991	957.753	718.160
149.702	13.796	957.144	716.800
150.716	14.004	956.359	717.047
151.731	13.960	955.275	715.982
152.746	13.958	954.772	715.532
153.760	13.966	954.300	715.149
154.775	13.954	953.458	714.401
155.789	14.003	952.403	713.761
156.804	14.041	951.607	713.264
157.819	14.009	950.991	712.600
158.833	14.044	949.975	711.926
159.848	14.193	949.288	711.986
160.862	14.110	948.356	710.868
161.877	14.082	948.406	710.725
162.892	14.150	946.942	709.856
163.906	14.029	946.705	709.099
164.921	14.078	945.447	708.303
165.935	14.155	944.482	707.845
166.950	14.073	943.472	706.677
167.964	14.221	942.736	706.692
168.979	14.048	941.500	704.966
169.994	14.060	941.043	704.613
171.008	14.092	940.151	704.017
172.023	14.203	938.926	703.509
173.037	14.206	938.415	703.077
174.052	14.242	937.757	702.671
175.067	14.242	936.884	701.957
176.081	14.269	936.104	701.423
177.096	14.256	935.144	700.586
178.110	14.259	934.622	700.148
179.125	14.161	934.360	699.479
180.140	14.309	933.108	699.097
181.154	14.317	932.666	698.741
182.169	14.321	931.643	697.928
183.183	14.193	931.332	697.097
184.198	14.371	930.654	697.273
185.213	14.318	929.751	696.315
186.227	14.316	929.347	695.940
187.242	14.360	928.809	695.659
188.256	14.450	928.112	695.454
189.271	14.407	927.371	694.655
190.286	14.352	926.994	694.081
191.300	14.404	925.834	693.369
192.315	14.352	925.263	692.666
193.329	14.288	924.367	691.668
194.344	14.281	924.079	691.362
195.359	14.237	923.352	690.575
196.373	14.428	922.599	690.742
197.388	14.291	922.211	689.822
198.402	14.571	921.523	690.407
199.417	14.436	920.996	689.390
200.432	14.599	920.573	689.687
201.446	14.562	920.557	689.460
202.461	14.705	919.911	689.508
203.475	14.661	919.506	688.960
204.490	14.589	918.746	688.034
205.504	14.677	917.784	687.614
206.519	14.590	916.820	686.472
207.534	14.702	916.255	686.451
208.548	14.634	915.274	685.374
209.563	14.657	914.853	685.094
210.577	14.672	913.690	684.222
211.592	14.813	912.533	683.875
212.607	14.669	912.542	683.231
213.621	14.900	911.750	683.522
214.636	14.831	911.401	682.916
215.650	14.705	910.814	681.901
216.665	14.855	909.924	681.786
217.680	14.702	910.143	681.269
218.694	14.846	909.207	681.093
219.709	14.806	908.787	680.556
220.723	14.870	907.829	680.039
221.738	14.866	907.134	679.441
222.753	14.897	906.348	678.920
223.767	14.804	905.786	678.060
224.782	14.791	904.985	677.347
225.796	14.881	904.495	677.285
226.811	15.022	903.808	677.281
227.826	14.958	902.853	676.246
228.840	15.007	901.950	675.708
229.855	15.035	901.266	675.252
230.869	14.998	900.775	674.674
231.884	14.874	900.092	673.602
232.899	14.921	899.567	673.337
233.913	15.028	898.871	673.187
234.928	14.921	898.560	672.465
235.942	14.961	897.620	671.863
236.957	15.044	896.554	671.340
237.972	14.920	896.116	670.455
238.986	14.992	895.272	670.052
240.001	15.167	894.345	670.001
241.015	15.118	893.766	669.309
242.030	15.062	893.384	668.743
243.045	15.091	892.560	668.182
244.059	15.114	892.009	667.802
245.074	15.054	891.298	666.972
246.088	15.180	890.662	666.938
247.103	15.301	890.290	667.083
248.117	15.145	889.931	666.132
249.132	15.164	889.335	665.703
250.147	15.256	888.372	665.287
251.161	15.259	887.637	664.690
252.176	15.311	886.785	664.201
253.190	15.343	886.791	664.275
254.205	15.369	885.939	663.680
255.220	15.289	885.339	662.854
256.234	15.556	884.616	663.310
257.249	15.383	884.032	662.128
258.263	15.267	883.921	661.530
259.278	15.430	882.677	661.182
260.293	15.594	882.348	661.524
261.307	15.467	881.537	660.360
262.322	15.666	881.085	660.742
263.336	15.540	880.742	659.934
264.351	15.679	879.450	659.450
265.366	15.825	879.271	659.830
266.380	15.770	878.542	659.011
267.395	15.637	877.720	657.814
268.409	15.773	876.599	657.446
269.424	15.673	876.185	656.687
270.439	15.622	875.827	656.161
271.453	15.768	874.742	655.862
272.468	15.736	873.790	654.963
273.482	15.683	873.305	654.338
274.497	15.834	872.689	654.404
275.512	15.825	871.946	653.754
276.526	15.749	871.529	653.088
277.541	15.871	870.684	652.870
278.555	15.720	870.322	651.956
279.570	15.925	869.487	652.068
280.585	15.825	869.023	651.276
281.599	15.939	868.319	651.129
282.614	15.735	867.953	650.012
283.628	15.710	867.418	649.454
284.643	15.816	867.221	649.660
285.657	15.877	866.499	649.297
286.672	15.928	865.353	648.576
287.687	15.980	865.162	648.578
288.701	15.840	865.307	648.087
289.716	15.998	864.170	647.788
290.730	15.959	863.692	647.220
291.745	16.135	862.882	647.235
292.760	16.059	861.784	646.061
293.774	15.891	861.546	645.182
294.789	16.127	860.592	645.314
295.803	16.012	860.451	644.711
296.818	16.009	859.581	643.990
297.833	16.100	859.156	643.963
298.847	16.296	857.835	643.663
299.862	16.275	857.371	643.177
300.876	16.043	857.115	642.045
301.891	16.133	856.466	641.846
302.906	16.033	855.743	640.866
303.920	16.293	854.672	640.996
304.935	16.313	853.658	640.251
305.949	16.401	853.669	640.538
306.964	16.426	852.865	639.971
307.979	16.369	852.650	639.539
308.993	16.280	852.212	638.815
310.008	16.498	851.280	638.886
311.022	16.485	850.804	638.425
312.037	16.380	850.810	637.974
313.052	16.373	850.033	637.310
314.066	16.330	849.656	636.806
315.081	16.344	848.605	636.015
316.095	16.384	848.267	635.859
317.110	16.325	847.691	635.149
318.125	16.408	846.823	634.754
319.139	16.466	846.755	634.863
320.154	16.504	845.946	634.345
321.168	16.493	845.523	633.930
322.183	16.472	845.140	633.507
323.197	16.595	844.143	633.164
324.212	16.428	843.832	632.251
325.227	16.569	843.317	632.334
326.241	16.571	842.778	631.883
327.256	16.436	842.512	631.122
328.270	16.550	841.758	630.927
329.285	16.403	841.271	629.958
330.300	16.540	840.556	629.879
331.314	16.617	840.157	629.811
332.329	16.568	839.446	629.039
333.343	16.465	838.940	628.223
334.358	16.698	837.989	628.316
335.373	16.568	837.949	627.751
336.387	16.744	837.104	627.714
337.402	16.687	836.548	627.030
338.416	16.775	835.881	626.799
339.431	16.770	835.349	626.329
340.446	16.827	834.950	626.182
341.460	16.664	834.697	625.335
342.475	16.922	833.400	625.262
343.489	16.643	833.397	624.174
344.504	16.930	832.542	624.534
345.519	16.940	832.490	624.477
346.533	16.922	831.621	623.706
347.548	16.875	831.519	623.400
348.562	16.933	830.807	623.024
349.577	16.887	830.444	622.529
350.592	16.901	829.784	622.029
351.606	16.856	829.243	621.404
352.621	16.981	828.299	621.098
353.635	17.014	828.336	621.195
354.650	16.891	827.961	620.408
355.665	16.937	827.722	620.340
356.679	17.035	827.206	620.257
357.694	16.972	826.483	619.432
358.708	16.918	825.930	618.763
359.723	16.821	825.723	618.203
360.738	16.954	824.920	618.031
361.752	17.096	824.082	617.863
362.767	17.158	823.731	617.773
363.781	17.101	823.466	617.312
364.796	17.101	823.101	616.981
365.810	17.137	822.554	616.649
366.825	17.237	822.261	616.739
367.840	17.147	822.018	616.176
368.854	17.297	820.678	615.658
369.869	17.144	821.017	615.303
370.883	17.319	820.170	615.249
371.898	17.253	819.844	614.710
372.913	17.205	819.230	614.023
373.927	17.409	818.185	613.921
374.942	17.239	818.081	613.177
375.956	17.357	817.352	613.000
376.971	17.430	816.465	612.542
377.986	17.362	816.157	612.013
379.000	17.347	815.976	611.771
380.015	17.397	815.093	611.232
381.029	17.511	814.740	611.325
382.044	17.625	813.641	610.853
383.059	17.489	813.340	610.085
384.073	17.648	812.929	610.295
385.088	17.265	812.952	608.885
386.102	17.439	811.972	608.718
387.117	17.503	811.524	608.558
388.132	17.446	810.949	607.871
389.146	17.585	810.536	608.002
390.161	17.553	810.436	607.760
391.175	17.578	810.296	607.689
392.190	17.602	809.530	607.146
393.205	17.632	808.891	606.723
394.219	17.680	808.631	606.643
395.234	17.695	808.027	606.189
396.248	17.502	807.856	605.324
397.263	17.545	807.093	604.850
398.278	17.579	806.494	604.468
399.292	17.645	806.198	604.426
400.307	17.564	806.184	604.075
401.321	17.643	805.525	603.809
402.336	17.714	805.185	603.751
403.350	17.627	804.760	603.071
404.365	17.668	804.206	602.749
405.380	17.737	803.820	602.649
406.394	17.657	803.376	601.980
407.409	17.931	802.628	602.334
408.423	17.883	802.176	601.772
409.438	18.025	801.437	601.664
410.453	18.074	801.204	601.609
411.467	18.019	800.996	601.204
412.482	17.892	800.395	600.255
413.496	17.941	800.135	600.177
414.511	18.059	799.839	600.318
415.526	18.028	799.400	599.826
416.540	18.042	799.136	599.625
417.555	17.962	798.637	598.914
418.569	17.998	798.267	598.713
419.584	18.049	797.626	598.355
420.599	18.086	796.929	597.909
421.613	113.942	1296.274	1482.907
422.628	98.171	1369.017	1482.999
