DTS Sentinel unit serial number:	SN413079Multiplexer serial number:	ORYXHardware model number:	OX4-SRSoftware version number:	ORYX F/W v4.00 Oryx Data Collector v3.7.2.0data status	okinstallation	princeton_trtdifferential loss correction	single-endedforward channel	channel 3reverse channel	N/Adate	2019/09/12time	16:22:11forward acquisition time	60.00reverse acquisition time	0.00gamma	496.2192k internal	0.2303k external	0.2303temperature offset calibration	1.0061default loss term (dB/km)	0.3790temperature slope calibration	1.0000multiplexer offset coefficient	1.0000multiplexer slope coefficient	1.0000fibre end	0.00T internal ref (°C)	37.80T ext. ref 1 (°C)	2.49T ext. ref 2 (°C)	30.43length (m)	temperature (°C)	Stokes	anti-Stokes-747.200	-200.000	-0.059	-0.398
-746.185	-200.000	0.000	0.418
-745.171	-110.453	0.393	0.083
-744.156	137.091	-0.134	0.179
-743.142	55.706	-0.051	0.051
-742.127	-200.000	-0.040	0.419
-741.112	-13.760	0.441	-0.291
-740.098	800.000	0.044	-0.126
-739.083	-193.809	-0.283	-0.002
-738.069	-200.000	-0.011	0.262
-737.054	800.000	0.025	-0.077
-736.039	231.525	0.108	-0.180
-735.025	-200.000	0.002	-0.294
-734.010	800.000	-0.105	-0.306
-732.996	40.115	0.105	-0.096
-731.981	157.308	-0.019	0.027
-730.966	800.000	0.063	0.260
-729.952	652.124	-0.112	-0.292
-728.937	800.000	-0.060	0.253
-727.923	-9.338	0.278	0.189
-726.908	-40.331	-0.278	0.147
-725.894	-87.724	-0.285	0.088
-724.879	143.201	-0.254	0.344
-723.864	-200.000	-0.051	0.477
-722.850	-156.732	-0.488	-0.031
-721.835	-200.000	0.014	-0.224
-720.821	85.891	-0.279	0.312
-719.806	232.046	-0.117	0.195
-718.791	-200.000	0.019	0.134
-717.777	-45.366	-0.296	0.149
-716.762	-200.000	0.042	0.232
-715.748	90.897	-0.044	-0.050
-714.733	798.443	-0.102	0.287
-713.718	-83.116	0.324	0.106
-712.704	1.461	0.246	0.180
-711.689	49.344	0.243	-0.233
-710.675	-88.763	0.062	0.019
-709.660	-62.824	0.185	0.078
-708.645	101.210	-0.061	0.072
-707.631	800.000	0.007	0.029
-706.616	57.955	-0.233	0.232
-705.602	-200.000	0.016	0.236
-704.587	232.200	-0.099	-0.166
-703.572	36.170	-0.129	-0.116
-702.558	-97.040	0.355	0.095
-701.543	17.152	0.214	-0.172
-700.529	14.571	-0.182	0.145
-699.514	-91.907	0.171	0.049
-698.499	226.847	-0.123	-0.203
-697.485	-200.000	-0.004	0.161
-696.470	-146.536	-0.311	-0.028
-695.456	-110.911	-0.140	-0.029
-694.441	92.552	-0.080	0.092
-693.426	144.096	0.175	0.238
-692.412	-200.000	0.044	-0.228
-691.397	800.000	-0.098	0.278
-690.383	189.110	-0.030	0.045
-689.368	73.762	0.065	0.069
-688.354	79.357	0.094	0.102
-687.339	-33.469	-0.382	-0.215
-686.324	-74.626	0.287	-0.105
-685.310	336.649	-0.047	-0.092
-684.295	795.524	-0.169	-0.474
-683.281	47.430	0.069	-0.065
-682.266	197.957	-0.092	0.143
-681.251	-59.253	-0.332	-0.145
-680.237	182.051	0.051	-0.076
-679.222	-65.922	-0.280	0.114
-678.208	-93.906	0.344	0.096
-677.193	40.300	-0.223	-0.204
-676.178	186.916	0.232	-0.351
-675.164	-139.529	-0.153	0.017
-674.149	318.666	-0.146	-0.280
-673.135	-65.876	-0.218	0.088
-672.120	-27.775	0.174	0.103
-671.105	800.000	0.033	0.099
-670.091	-113.159	-0.155	0.031
-669.076	-100.330	0.102	-0.026
-668.062	800.000	-0.045	0.144
-667.047	-47.417	0.240	-0.119
-666.032	18.685	0.157	0.128
-665.018	-19.127	-0.053	0.033
-664.003	-59.046	0.171	0.075
-662.989	17.099	-0.055	-0.045
-661.974	-70.804	0.223	-0.085
-660.959	800.000	0.080	0.246
-659.945	-56.624	-0.310	0.140
-658.930	159.516	0.023	0.033
-657.916	800.000	-0.113	0.402
-656.901	-200.000	-0.056	-0.327
-655.886	-200.000	-0.020	0.277
-654.872	646.845	0.162	0.420
-653.857	143.747	0.147	0.199
-652.843	224.383	0.137	-0.225
-651.828	-200.000	0.029	0.169
-650.814	178.464	-0.113	-0.167
-649.799	-56.340	-0.223	-0.101
-648.784	153.066	-0.262	-0.363
-647.770	408.807	-0.050	0.107
-646.755	-200.000	0.018	0.102
-645.741	-200.000	0.023	-0.207
-644.726	-128.529	0.208	0.030
-643.711	403.342	-0.074	0.158
-642.697	-200.000	-0.002	-0.077
-641.682	67.994	-0.157	-0.163
-640.668	272.199	0.103	0.184
-639.653	116.361	-0.334	0.416
-638.638	-200.000	-0.010	-0.115
-637.624	-87.580	-0.026	-0.008
-636.609	-200.000	0.042	-0.238
-635.595	800.000	-0.040	0.123
-634.580	800.000	-0.020	0.067
-633.565	-148.377	-0.203	0.017
-632.551	-200.000	-0.001	-0.203
-631.536	779.031	-0.056	-0.154
-630.522	-98.399	0.136	0.035
-629.507	112.894	-0.162	0.199
-628.492	29.414	0.034	0.029
-627.478	423.144	0.099	-0.216
-626.463	-77.088	0.060	0.021
-625.449	386.418	0.117	0.244
-624.434	647.347	0.103	0.267
-623.419	-200.000	0.014	0.193
-622.405	-157.822	-0.185	0.011
-621.390	1.683	-0.203	-0.148
-620.376	97.532	0.206	0.240
-619.361	-106.911	0.200	0.045
-618.346	-200.000	0.001	0.216
-617.332	-28.688	0.273	0.159
-616.317	-77.249	0.297	0.105
-615.303	-42.900	-0.243	0.125
-614.288	-86.706	0.206	-0.064
-613.273	800.000	0.013	0.052
-612.259	-171.383	-0.267	-0.009
-611.244	-200.000	0.005	0.246
-610.230	296.413	0.212	0.394
-609.215	-90.275	-0.215	-0.063
-608.201	-101.742	0.221	-0.054
-607.186	15.617	0.267	-0.213
-606.171	424.314	0.022	-0.049
-605.157	-14.374	0.377	0.246
-604.142	-200.000	-0.016	-0.138
-603.128	-200.000	-0.008	-0.061
-602.113	-184.358	0.358	0.006
-601.098	654.850	-0.110	-0.287
-600.084	-200.000	-0.056	-0.301
-599.069	80.602	-0.206	-0.225
-598.055	-68.796	-0.435	-0.170
-597.040	693.172	0.158	-0.419
-596.025	-200.000	-0.002	0.051
-595.011	359.230	0.106	0.214
-593.996	-200.000	-0.024	0.110
-592.982	-197.825	0.374	-0.002
-591.967	-151.234	-0.104	0.008
-590.952	-173.343	-0.317	0.010
-589.938	-200.000	-0.003	0.251
-588.923	-69.558	-0.184	0.072
-587.909	-43.823	0.180	-0.092
-586.894	420.199	-0.208	-0.451
-585.879	-117.440	-0.235	-0.043
-584.865	30.823	-0.165	0.143
-583.850	37.097	-0.228	0.205
-582.836	10.003	-0.171	0.132
-581.821	-189.281	0.261	-0.003
-580.806	222.271	-0.050	-0.082
-579.792	-200.000	0.010	0.058
-578.777	68.647	0.044	-0.046
-577.763	-85.934	0.190	-0.060
-576.748	800.000	-0.060	-0.169
-575.733	406.070	0.130	0.278
-574.719	103.743	-0.137	-0.163
-573.704	-114.046	0.153	-0.030
-572.690	-115.482	-0.060	-0.011
-571.675	-18.796	0.117	0.074
-570.661	-200.000	0.030	-0.241
-569.646	-61.797	0.304	0.129
-568.631	800.000	0.129	0.480
-567.617	343.230	0.031	0.062
-566.602	194.268	-0.237	-0.363
-565.588	-8.669	-0.280	-0.190
-564.573	352.821	-0.177	0.355
-563.558	-163.649	0.224	0.011
-562.544	-57.629	-0.067	0.030
-561.529	-48.807	-0.160	-0.078
-560.515	132.072	-0.050	0.066
-559.500	-51.630	-0.331	-0.156
-558.485	-200.000	0.005	-0.302
-557.471	15.246	0.186	-0.148
-556.456	800.000	-0.025	-0.082
-555.442	26.634	-0.131	0.111
-554.427	183.781	0.132	0.198
-553.412	-41.860	-0.323	-0.168
-552.398	-200.000	0.018	-0.322
-551.383	355.023	0.058	-0.116
-550.369	-33.825	0.115	0.064
-549.354	-186.509	0.123	-0.002
-548.339	148.328	-0.111	0.151
-547.325	-37.140	0.093	0.050
-546.310	92.694	0.196	-0.224
-545.296	-133.863	-0.472	-0.059
-544.281	432.355	-0.032	0.070
-543.266	-200.000	0.029	0.273
-542.252	-200.000	-0.004	0.330
-541.237	-24.184	-0.368	0.222
-540.223	-183.768	-0.118	0.002
-539.208	668.187	0.012	-0.032
-538.193	147.967	0.078	-0.106
-537.179	-111.412	0.153	0.031
-536.164	800.000	-0.040	0.120
-535.150	-136.050	0.200	-0.024
-534.135	240.550	0.033	-0.056
-533.121	-200.000	0.018	-0.122
-532.106	800.000	-0.023	0.097
-531.091	649.857	0.055	-0.143
-530.077	-33.298	0.135	0.075
-529.062	-157.776	0.146	0.009
-528.048	-116.747	0.237	-0.044
-527.033	-160.148	0.141	-0.008
-526.018	-120.212	0.338	-0.058
-525.004	162.090	0.107	0.152
-523.989	16.001	0.205	0.163
-522.975	362.365	0.232	-0.470
-521.960	-158.118	-0.244	-0.014
-520.945	32.189	0.186	0.162
-519.931	218.981	-0.024	0.039
-518.916	215.949	0.090	0.144
-517.902	-18.772	0.106	-0.067
-516.887	10.212	0.256	0.197
-515.872	201.498	-0.073	0.113
-514.858	-105.571	-0.167	-0.038
-513.843	422.277	0.079	-0.170
-512.829	579.790	-0.049	-0.120
-511.814	472.524	-0.124	-0.283
-510.799	-62.514	-0.470	0.197
-509.785	-200.000	0.004	0.323
-508.770	-200.000	-0.106	0.542
-507.756	162.914	0.108	0.154
-506.741	-32.906	-0.052	-0.029
-505.726	-81.499	-0.277	0.092
-504.712	355.383	-0.216	-0.434
-503.697	800.000	0.072	-0.210
-502.683	298.177	-0.115	-0.214
-501.668	800.000	-0.024	-0.079
-500.653	-200.000	0.037	0.187
-499.639	-122.735	0.280	-0.046
-498.624	452.252	-0.067	-0.149
-497.610	76.553	0.044	-0.047
-496.595	-155.698	0.367	0.024
-495.581	-79.869	-0.250	0.085
-494.566	-87.257	-0.188	-0.058
-493.551	-121.907	-0.316	0.053
-492.537	-34.683	-0.368	-0.203
-491.522	-49.780	-0.053	0.025
-490.508	800.000	-0.072	-0.234
-489.493	-34.090	0.530	0.294
-488.478	-95.214	-0.157	-0.043
-487.464	-200.000	-0.059	0.356
-486.449	800.000	0.038	-0.156
-485.435	70.572	0.222	-0.231
-484.420	46.865	0.238	0.223
-483.405	100.098	-0.160	-0.187
-482.391	556.441	0.110	0.268
-481.376	87.077	0.051	-0.057
-480.362	-49.254	-0.108	-0.052
-479.347	571.916	-0.228	-0.560
-478.332	413.208	-0.018	0.039
-477.318	217.631	0.170	-0.273
-476.303	98.009	0.141	-0.164
-475.289	385.401	0.033	0.069
-474.274	92.795	0.176	-0.200
-473.259	327.524	0.075	-0.145
-472.245	-200.000	-0.042	-0.320
-471.230	-77.538	0.314	-0.110
-470.216	57.512	0.238	-0.234
-469.201	526.026	0.060	0.141
-468.186	664.474	0.019	-0.050
-467.172	-127.931	0.279	-0.040
-466.157	311.675	0.146	0.276
-465.143	39.410	0.098	-0.089
-464.128	-105.497	0.613	-0.140
-463.113	-200.000	-0.021	0.095
-462.099	-200.000	-0.031	0.136
-461.084	-56.455	-0.202	0.090
-460.070	87.119	-0.061	0.068
-459.055	188.715	0.176	-0.265
-458.040	-80.812	0.193	-0.065
-457.026	63.000	-0.297	-0.299
-456.011	-93.233	-0.030	-0.008
-454.997	365.084	0.145	0.295
-453.982	506.320	-0.076	0.178
-452.968	-200.000	-0.003	-0.206
-451.953	32.540	-0.229	-0.199
-450.938	-156.459	0.129	0.008
-449.924	669.316	-0.105	-0.274
-448.909	729.839	-0.169	0.454
-447.895	-200.000	-0.007	0.326
-446.880	32.705	0.418	-0.364
-445.865	-54.112	-0.569	-0.261
-444.851	-200.000	0.003	-0.120
-443.836	169.092	-0.154	-0.222
-442.822	800.000	-0.032	0.092
-441.807	-139.823	0.054	-0.006
-440.792	-148.901	-0.388	-0.032
-439.778	-28.039	0.283	-0.165
-438.763	-31.234	0.141	0.080
-437.749	212.407	-0.106	0.168
-436.734	-13.879	-0.252	-0.164
-435.719	-40.454	0.116	0.061
-434.705	800.000	0.038	0.160
-433.690	40.392	-0.344	-0.311
-432.676	800.000	-0.053	0.192
-431.661	-144.185	0.201	0.019
-430.646	245.013	0.128	0.216
-429.632	43.265	0.237	0.218
-428.617	-44.737	0.501	-0.252
-427.603	-75.757	0.104	-0.037
-426.588	282.481	0.158	-0.285
-425.573	-173.516	-0.373	-0.011
-424.559	19.254	-0.103	0.083
-423.544	-200.000	-0.027	0.181
-422.530	-31.325	-0.230	0.130
-421.515	-145.988	0.075	-0.007
-420.500	-113.077	0.023	-0.005
-419.486	-200.000	-0.031	0.249
-418.471	444.524	-0.048	-0.106
-417.457	145.268	-0.068	0.091
-416.442	18.203	0.294	0.236
-415.428	-137.023	-0.039	-0.004
-414.413	-200.000	-0.017	-0.216
-413.398	-129.911	-0.041	0.006
-412.384	-170.436	-0.307	0.011
-411.369	-200.000	-0.009	0.194
-410.355	800.000	0.097	0.313
-409.340	332.333	0.096	0.186
-408.325	-165.032	0.049	0.002
-407.311	62.769	-0.167	-0.168
-406.296	-200.000	-0.000	-0.365
-405.282	7.806	0.171	-0.128
-404.267	179.946	-0.203	0.300
-403.252	800.000	0.078	0.278
-402.238	111.003	0.247	-0.299
-401.223	-200.000	-0.033	-0.604
-400.209	124.996	-0.151	-0.191
-399.194	-68.752	-0.402	-0.156
-398.179	-81.107	0.163	0.054
-397.165	800.000	0.017	0.070
-396.150	-25.251	0.282	-0.168
-395.136	707.393	0.021	0.056
-394.121	-200.000	-0.006	0.278
-393.106	800.000	-0.069	-0.203
-392.092	-60.929	0.175	0.074
-391.077	70.428	0.367	-0.381
-390.063	354.238	0.049	0.098
-389.048	-54.767	0.110	-0.050
-388.033	-78.474	-0.152	-0.052
-387.019	-200.000	-0.042	-0.204
-386.004	261.936	0.026	0.045
-384.990	-200.000	-0.030	0.375
-383.975	9.848	-0.059	-0.045
-382.960	-74.387	0.067	0.024
-381.946	800.000	0.035	-0.152
-380.931	-95.714	-0.327	0.088
-379.917	-144.313	0.094	-0.009
-378.902	219.622	-0.192	0.309
-377.888	-200.000	0.002	-0.221
-376.873	-97.251	0.135	0.035
-375.858	-200.000	-0.091	0.476
-374.844	65.533	-0.129	0.131
-373.829	60.592	0.185	-0.184
-372.815	10.865	-0.167	0.128
-371.800	-21.500	-0.265	-0.163
-370.785	-200.000	-0.018	0.241
-369.771	-31.309	-0.092	-0.052
-368.756	-36.035	-0.126	-0.068
-367.742	-74.927	0.075	0.027
-366.727	273.458	-0.086	-0.153
-365.712	119.143	-0.099	0.123
-364.698	678.171	-0.166	0.433
-363.683	-160.162	0.402	-0.022
-362.669	231.656	0.115	0.190
-361.654	-200.000	0.032	0.426
-360.639	19.874	0.173	-0.140
-359.625	532.160	0.118	-0.281
-358.610	-5.370	0.309	0.213
-357.596	-79.969	-0.287	-0.097
-356.581	-200.000	0.010	-0.149
-355.566	-71.694	0.293	-0.110
-354.552	152.841	-0.176	-0.241
-353.537	-3.610	-0.144	0.100
-352.523	-120.764	0.480	-0.081
-351.508	-13.935	-0.193	0.125
-350.493	-144.343	-0.261	0.024
-349.479	-200.000	0.024	-0.252
-348.464	800.000	0.073	-0.257
-347.450	34.107	-0.033	-0.029
-346.435	6.549	0.193	-0.144
-345.420	279.307	-0.111	0.199
-344.406	694.188	-0.185	0.487
-343.391	-200.000	0.015	0.083
-342.377	257.325	0.055	-0.095
-341.362	-119.271	0.303	0.053
-340.348	-168.185	-0.348	0.014
-339.333	-28.322	0.076	0.044
-338.318	-5.361	-0.136	0.094
-337.304	-173.906	-0.353	-0.010
-336.289	-22.661	-0.300	0.181
-335.275	-149.008	-0.199	-0.016
-334.260	309.632	-0.003	0.005
-333.245	-167.937	0.160	-0.006
-332.231	-90.744	0.079	-0.023
-331.216	484.844	0.107	0.243
-330.202	-200.000	-0.016	0.168
-329.187	-133.316	-0.278	0.035
-328.172	800.000	0.052	0.212
-327.158	-200.000	-0.018	-0.111
-326.143	118.794	0.151	-0.187
-325.129	-200.000	0.014	0.354
-324.114	150.945	-0.080	0.109
-323.099	44.251	-0.105	-0.096
-322.085	-79.093	-0.254	-0.086
-321.070	800.000	-0.039	0.113
-320.056	148.715	-0.092	-0.124
-319.041	414.165	-0.026	-0.055
-318.026	63.810	0.123	0.124
-317.012	-200.000	-0.047	-0.342
-315.997	-200.000	-0.028	0.134
-314.983	49.141	-0.123	0.115
-313.968	-200.000	0.044	-0.267
-312.953	-3.417	0.399	-0.278
-311.939	434.461	0.107	-0.233
-310.924	-104.985	-0.398	0.091
-309.910	-104.431	0.261	-0.061
-308.895	-200.000	0.080	-0.430
-307.880	800.000	-0.077	-0.248
-306.866	-146.208	-0.249	0.022
-305.851	-200.000	-0.046	-0.261
-304.837	-135.674	-0.146	0.017
-303.822	800.000	0.050	0.152
-302.807	-118.061	0.283	-0.051
-301.793	-132.455	-0.461	0.059
-300.778	-200.000	-0.059	-0.365
-299.764	800.000	-0.084	0.251
-298.749	499.465	0.050	0.115
-297.735	-40.614	-0.399	0.207
-296.720	231.410	-0.162	0.266
-295.705	-145.635	-0.166	-0.015
-294.691	-117.765	0.065	0.012
-293.676	-200.000	0.063	0.335
-292.662	428.618	-0.119	0.258
-291.647	359.818	0.013	0.027
-290.632	209.618	0.154	-0.241
-289.618	-147.207	0.157	0.013
-288.603	800.000	0.058	-0.172
-287.589	65.539	-0.219	-0.222
-286.574	-200.000	0.019	0.205
-285.559	-89.673	-0.233	0.068
-284.545	-109.533	0.254	0.054
-283.530	109.909	0.149	0.179
-282.516	-146.416	-0.295	-0.026
-281.501	405.892	0.074	0.156
-280.486	93.005	0.241	-0.272
-279.472	162.302	-0.113	0.159
-278.457	-148.353	-0.129	-0.011
-277.443	-200.000	-0.002	-0.502
-276.428	800.000	-0.046	-0.174
-275.413	-103.548	0.182	-0.043
-274.399	424.286	-0.149	0.320
-273.384	-7.431	-0.433	-0.293
-272.370	31.388	0.267	-0.230
-271.355	114.910	-0.100	-0.122
-270.340	235.494	0.143	-0.236
-269.326	-124.494	-0.051	-0.008
-268.311	293.504	-0.101	0.184
-267.297	-120.500	-0.067	0.011
-266.282	-80.459	0.235	-0.078
-265.267	44.695	0.073	0.067
-264.253	-72.269	-0.268	-0.099
-263.238	-53.128	0.220	-0.101
-262.224	-155.212	0.159	0.010
-261.209	320.330	0.052	-0.099
-260.195	26.911	-0.218	-0.183
-259.180	-200.000	-0.021	0.233
-258.165	194.482	-0.062	0.094
-257.151	-3.365	0.112	0.078
-256.136	432.341	0.136	0.295
-255.122	-152.778	0.151	-0.011
-254.107	66.025	-0.081	0.082
-253.092	-188.547	0.203	0.003
-252.078	161.926	0.228	0.319
-251.063	800.000	0.052	-0.222
-250.049	-133.077	-0.032	0.004
-249.034	-124.077	0.336	0.053
-248.019	68.866	0.169	0.173
-247.005	217.299	-0.154	-0.245
-245.990	-112.104	0.184	-0.037
-244.976	43.972	-0.071	0.065
-243.961	-163.040	-0.319	0.015
-242.946	-77.648	0.256	-0.088
-241.932	298.267	-0.106	-0.195
-240.917	-200.000	-0.028	0.349
-239.903	-155.057	0.260	0.017
-238.888	14.540	-0.107	0.083
-237.873	-135.764	-0.177	0.021
-236.859	-156.324	-0.297	0.019
-235.844	169.506	-0.068	-0.097
-234.830	-32.822	0.241	-0.134
-233.815	-33.403	-0.260	0.144
-232.800	385.150	0.167	-0.343
-231.786	800.000	-0.087	0.258
-230.771	-52.734	-0.101	-0.046
-229.757	-76.457	0.129	-0.045
-228.742	-145.750	0.060	-0.005
-227.727	30.762	-0.282	-0.241
-226.713	-160.062	-0.093	0.005
-225.698	122.004	-0.073	0.091
-224.684	-175.028	0.064	0.002
-223.669	-200.000	0.019	-0.164
-222.655	-200.000	-0.036	0.165
-221.640	-94.579	-0.116	0.031
-220.625	253.430	0.085	-0.145
-219.611	-83.570	0.382	0.122
-218.596	169.499	-0.214	0.305
-217.582	17.161	-0.178	0.141
-216.567	-72.372	-0.130	0.048
-215.552	105.850	0.106	-0.125
-214.538	192.763	0.111	-0.168
-213.523	237.498	-0.079	0.131
-212.509	800.000	0.112	0.321
-211.494	-170.354	-0.215	0.008
-210.479	23.717	-0.128	-0.105
-209.465	-200.000	0.056	-0.424
-208.450	77.565	-0.085	0.090
-207.436	-120.311	-0.217	0.037
-206.421	235.336	-0.120	-0.198
-205.406	166.072	0.307	0.433
-204.392	548.170	0.112	0.268
-203.377	800.000	0.056	-0.229
-202.363	143.929	-0.106	0.141
-201.348	-75.720	-0.211	0.075
-200.333	-137.919	0.263	-0.029
-199.319	-118.221	0.321	0.057
-198.304	82.190	-0.256	-0.277
-197.290	61.104	-0.161	-0.159
-196.275	556.387	-0.036	0.088
-195.260	-7.808	0.209	0.141
-194.246	259.096	-0.095	-0.163
-193.231	-200.000	0.007	0.190
-192.217	-200.000	0.008	-0.046
-191.202	-131.392	-0.265	0.035
-190.187	-54.549	0.220	0.099
-189.173	-123.856	0.326	0.051
-188.158	-200.000	-0.007	0.361
-187.144	-25.649	-0.099	-0.058
-186.129	-200.000	0.072	0.418
-185.114	800.000	0.109	0.416
-184.100	-200.000	-0.004	0.023
-183.085	800.000	0.041	-0.156
-182.071	-64.427	0.104	-0.042
-181.056	-78.998	-0.378	-0.128
-180.042	-160.225	0.399	0.022
-179.027	1.302	-0.341	0.244
-178.012	-8.588	0.224	0.150
-176.998	9.458	-0.220	-0.166
-175.983	-200.000	0.048	0.405
-174.969	-78.335	0.442	-0.151
-173.954	5.288	-0.332	0.244
-172.939	-64.762	0.188	0.076
-171.925	800.000	0.025	0.106
-170.910	319.785	-0.091	0.173
-169.896	-42.926	0.177	0.090
-168.881	-161.461	-0.091	-0.005
-167.866	-26.149	0.043	-0.025
-166.852	118.841	0.087	0.107
-165.837	-200.000	0.076	-0.418
-164.823	-147.995	0.145	0.012
-163.808	800.000	0.142	-0.594
-162.793	-200.000	-0.001	0.093
-161.779	61.257	-0.219	-0.217
-160.764	-40.876	0.280	0.144
-159.750	-2.918	0.208	-0.145
-158.735	5.367	0.126	-0.092
-157.720	182.220	-0.027	-0.039
-156.706	94.633	-0.023	-0.026
-155.691	48.028	-0.183	-0.170
-154.677	-200.000	0.026	0.125
-153.662	114.880	-0.080	-0.097
-152.647	-114.281	-0.014	0.003
-151.633	29.039	-0.065	0.055
-150.618	91.247	-0.206	0.230
-149.604	-84.348	0.082	0.026
-148.589	799.604	-0.124	0.340
-147.574	800.000	0.045	-0.188
-146.560	-200.000	0.010	-0.062
-145.545	-11.624	0.197	-0.129
-144.531	118.881	0.114	-0.140
-143.516	120.014	-0.178	0.220
-142.502	14.961	-0.075	0.058
-141.487	-200.000	-0.030	0.265
-140.472	-54.919	0.165	-0.074
-139.458	32.250	0.212	-0.182
-138.443	-200.000	-0.005	0.048
-137.429	-114.340	0.104	0.020
-136.414	-71.745	0.255	-0.095
-135.399	800.000	0.047	-0.205
-134.385	800.000	-0.030	0.094
-133.370	-112.212	-0.394	0.079
-132.356	-111.271	0.230	0.047
-131.341	61.929	-0.162	-0.161
-130.326	800.000	0.015	0.049
-129.312	-200.000	-0.008	0.164
-128.297	119.653	-0.111	0.137
-127.283	190.707	-0.086	0.129
-126.268	-200.000	-0.001	0.307
-125.253	-100.237	0.056	0.014
-124.239	-88.036	0.026	0.008
-123.224	-86.125	0.019	0.006
-122.210	179.394	-0.134	-0.194
-121.195	-200.000	-0.025	-0.165
-120.180	800.000	-0.042	0.119
-119.166	94.009	0.170	0.191
-118.151	800.000	0.030	0.110
-117.137	-200.000	-0.004	-0.020
-116.122	613.348	-0.098	0.243
-115.107	260.356	0.098	0.168
-114.093	-27.630	0.372	-0.215
-113.078	556.001	-0.145	-0.346
-112.064	213.589	0.230	-0.362
-111.049	30.596	-0.219	0.186
-110.034	-14.464	-0.241	-0.154
-109.020	-5.123	0.387	0.264
-108.005	413.176	-0.081	0.171
-106.991	-88.271	0.457	-0.136
-105.976	-81.960	-0.281	0.091
-104.962	-200.000	-0.055	-0.306
-103.947	705.779	-0.009	-0.025
-102.932	-92.095	0.175	0.049
-101.918	800.000	0.048	0.159
-100.903	-137.072	-0.174	0.020
-99.889	-200.000	-0.004	0.186
-98.874	-114.320	0.229	0.044
-97.859	-200.000	-0.001	-0.039
-96.845	-158.744	0.151	-0.009
-95.830	626.616	-0.051	0.128
-94.816	327.033	0.072	-0.138
-93.801	719.682	0.118	-0.311
-92.786	113.368	-0.064	0.077
-91.772	-132.889	0.329	-0.042
-90.757	-56.447	0.143	0.063
-89.743	45.465	0.216	0.198
-88.728	65.853	-0.143	-0.144
-87.713	-171.844	0.209	0.007
-86.699	133.305	0.209	0.269
-85.684	25.848	-0.266	0.220
-84.670	-200.000	-0.084	0.389
-83.655	-200.000	0.004	0.037
-82.640	-161.274	0.225	0.012
-81.626	6.077	-0.286	-0.211
-80.611	-200.000	0.036	0.218
-79.597	-58.920	0.133	-0.057
-78.582	56.905	0.101	0.098
-77.567	-17.809	0.041	0.025
-76.553	-200.000	0.031	0.260
-75.538	-200.000	-0.011	-0.107
-74.524	800.000	0.053	-0.193
-73.509	93.058	0.134	0.150
-72.494	123.710	0.135	-0.168
-71.480	-185.359	-0.091	-0.001
-70.465	-66.169	0.272	0.108
-69.451	-169.998	-0.132	-0.005
-68.436	278.408	0.293	-0.518
-67.422	16.547	-0.159	-0.124
-66.407	16.080	0.181	-0.141
-65.392	470.142	-0.196	-0.437
-64.378	-200.000	-0.002	-0.315
-63.363	-200.000	-0.008	0.047
-62.349	656.687	-0.092	0.236
-61.334	112.656	-0.813	-0.977
-60.319	41.494	0.192	0.173
-59.305	-200.000	-0.012	-1.001
-58.290	800.000	0.297	0.888
-57.276	800.000	0.674	1.865
-56.261	-200.000	88.080	496.811
-55.246	475.088	1373.836	3075.601
-54.232	149.401	2583.432	3468.816
-53.217	112.740	2209.690	2653.662
-52.203	47.605	1742.833	1611.936
-51.188	40.903	1550.217	1387.164
-50.173	38.442	1522.579	1345.486
-49.159	54.793	1570.208	1502.185
-48.144	58.873	1589.456	1549.077
-47.130	41.240	1546.700	1386.148
-46.115	37.967	1531.126	1349.539
-45.100	37.941	1527.378	1345.999
-44.086	37.967	1525.126	1344.143
-43.071	37.735	1524.015	1341.512
-42.057	37.725	1521.818	1339.460
-41.042	37.769	1520.573	1338.608
-40.027	37.699	1519.365	1337.013
-39.013	37.719	1517.974	1335.874
-37.998	37.779	1516.254	1334.719
-36.984	37.724	1514.970	1333.159
-35.969	37.719	1513.898	1332.130
-34.954	37.914	1512.355	1332.050
-33.940	37.923	1510.853	1330.735
-32.925	37.772	1510.002	1328.904
-31.911	37.852	1508.324	1327.916
-30.896	37.830	1507.059	1326.602
-29.881	37.804	1506.149	1325.573
-28.867	37.851	1504.542	1324.426
-27.852	37.843	1502.397	1322.428
-26.838	37.821	1500.774	1320.797
-25.823	37.786	1499.624	1319.497
-24.809	37.904	1497.514	1318.385
-23.794	37.862	1496.614	1317.261
-22.779	37.861	1495.270	1316.016
-21.765	37.895	1494.043	1315.113
-20.750	37.935	1493.002	1314.416
-19.736	37.850	1492.085	1312.980
-18.721	37.768	1491.025	1311.446
-17.706	37.763	1490.027	1310.480
-16.692	37.804	1488.721	1309.558
-15.677	37.770	1487.621	1308.312
-14.663	37.724	1486.344	1306.825
-13.648	37.801	1485.100	1306.199
-12.633	37.738	1484.231	1304.957
-11.619	37.827	1483.326	1304.707
-10.604	37.717	1482.320	1303.031
-9.590	37.703	1481.240	1301.940
-8.575	37.783	1480.527	1301.792
-7.560	37.865	1479.985	1301.816
-6.546	37.742	1478.766	1299.871
-5.531	37.684	1478.187	1298.919
-4.517	37.715	1477.331	1298.326
-3.502	37.755	1476.142	1297.496
-2.487	37.797	1474.357	1296.154
-1.473	37.772	1473.778	1295.430
-0.458	37.658	1472.867	1293.815
0.556	37.960	1462.241	1280.597
1.571	34.117	1433.999	1230.944
2.586	29.362	1370.474	1146.829
3.600	26.977	1286.781	1062.752
4.615	25.125	1239.149	1012.871
5.629	21.160	1181.783	944.492
6.644	11.391	1094.529	825.485
7.659	3.855	1050.648	755.603
8.673	2.778	1045.168	746.361
9.688	2.527	1041.568	742.510
10.702	2.307	1040.413	740.555
11.717	2.348	1038.600	739.396
12.731	5.489	1042.097	757.035
13.746	14.999	1056.088	813.569
14.761	23.252	1066.428	861.812
15.775	25.569	1069.018	875.121
16.790	26.021	1068.842	877.097
17.804	25.898	1067.940	875.679
18.819	25.689	1066.955	873.782
19.834	25.719	1066.300	873.312
20.848	25.806	1066.222	873.593
21.863	25.875	1065.745	873.459
22.877	25.966	1065.568	873.679
23.892	25.931	1064.791	872.796
24.907	25.815	1063.877	871.408
25.921	25.875	1063.156	871.028
26.936	25.915	1062.380	870.512
27.950	25.798	1061.468	869.122
28.965	25.855	1060.114	868.213
29.980	25.773	1058.528	866.440
30.994	25.723	1057.689	865.435
32.009	25.924	1056.896	865.678
33.023	25.898	1056.402	865.068
34.038	25.692	1055.546	863.302
35.053	25.702	1054.472	862.399
36.067	25.858	1053.998	862.680
37.082	25.929	1052.851	862.006
38.096	25.868	1052.306	861.192
39.111	26.011	1051.992	861.541
40.126	26.258	1050.831	861.694
41.140	25.996	1050.021	859.706
42.155	25.819	1048.183	857.280
43.169	25.388	1047.330	854.458
44.184	25.473	1046.270	853.922
45.199	25.541	1045.001	853.134
46.213	25.421	1044.518	852.095
47.228	25.502	1043.476	851.554
48.242	25.645	1043.091	851.837
49.257	25.793	1042.376	851.877
50.271	25.779	1041.175	850.758
51.286	25.864	1040.713	850.707
52.301	26.097	1039.841	851.018
53.315	26.012	1039.506	850.264
54.330	25.907	1038.425	848.813
55.344	25.720	1037.703	847.265
56.359	25.841	1036.687	846.929
57.374	25.761	1036.348	846.205
58.388	25.728	1035.106	844.959
59.403	25.622	1034.418	843.828
60.417	25.609	1033.378	842.841
61.432	25.382	1032.977	841.378
62.447	25.562	1031.803	841.190
63.461	25.728	1031.541	841.674
64.476	25.618	1031.097	840.723
65.490	25.574	1030.155	839.678
66.505	25.476	1029.104	838.289
67.520	25.607	1028.278	838.155
68.534	25.511	1027.649	837.117
69.549	25.523	1026.351	836.042
70.563	25.112	1025.682	833.516
71.578	25.112	1025.087	832.955
72.593	25.128	1023.772	831.890
73.607	25.093	1022.372	830.516
74.622	24.976	1022.010	829.608
75.636	25.320	1021.208	830.472
76.651	25.380	1020.701	830.266
77.666	25.304	1019.339	828.732
78.680	25.216	1018.548	827.610
79.695	25.219	1017.954	827.069
80.709	25.277	1017.721	827.073
81.724	25.488	1016.520	826.996
82.739	25.410	1015.755	825.942
83.753	25.421	1014.905	825.228
84.768	25.676	1014.410	825.921
85.782	26.017	1014.021	827.095
86.797	26.153	1013.653	827.345
87.812	26.174	1012.539	826.461
88.826	26.045	1011.281	824.770
89.841	26.136	1010.372	824.371
90.855	26.039	1010.047	823.589
91.870	26.084	1009.105	822.957
92.884	26.076	1008.588	822.425
93.899	26.066	1007.300	821.254
94.914	25.986	1006.125	819.862
95.928	26.001	1005.680	819.495
96.943	26.002	1005.011	818.883
97.957	25.888	1003.796	817.302
98.972	25.477	1003.036	814.749
99.987	25.424	1001.673	813.330
101.001	25.506	1001.124	813.183
102.016	25.600	1001.110	813.525
103.030	25.810	999.638	813.203
104.045	25.809	998.662	812.334
105.060	25.641	997.392	810.473
106.074	25.577	995.969	808.957
107.089	25.502	995.778	808.394
108.103	25.782	995.375	809.253
109.118	25.921	994.277	808.912
110.133	25.522	993.076	806.073
111.147	25.629	991.916	805.543
112.162	25.379	990.830	803.471
113.176	25.253	989.563	801.809
114.191	25.372	989.224	801.993
115.206	25.461	988.440	801.685
116.220	25.207	986.898	799.232
117.235	24.974	986.392	797.712
118.249	25.205	985.881	798.256
119.264	25.236	984.454	797.170
120.279	25.130	983.797	796.096
121.293	25.070	983.462	795.486
122.308	25.184	982.955	795.512
123.322	25.205	981.927	794.704
124.337	25.197	980.743	793.640
125.352	25.014	979.740	791.949
126.366	24.617	978.137	788.832
127.381	24.347	977.005	786.659
128.395	24.926	976.543	788.768
129.410	25.509	976.534	791.257
130.424	25.663	975.461	790.994
131.439	25.768	974.561	790.655
132.454	25.721	973.695	789.678
133.468	25.644	973.120	788.805
134.483	25.687	972.002	788.016
135.497	25.742	971.601	787.864
136.512	25.903	970.802	787.850
137.527	25.958	970.473	787.752
138.541	25.947	969.784	787.074
139.556	26.036	968.730	786.538
140.570	26.041	967.844	785.772
141.585	26.085	967.086	785.279
142.600	26.229	966.040	784.986
143.614	26.150	965.135	783.836
144.629	26.146	964.575	783.297
145.643	26.369	964.293	783.966
146.658	26.100	962.883	781.583
147.673	25.935	961.532	779.704
148.687	25.839	960.631	778.490
149.702	25.882	959.374	777.587
150.716	25.762	958.719	776.470
151.731	25.622	957.601	774.893
152.746	25.804	957.081	775.186
153.760	25.900	956.695	775.220
154.775	25.931	955.703	774.482
155.789	26.130	954.725	774.473
156.804	26.149	954.013	773.907
157.819	26.186	952.599	772.851
158.833	26.182	952.244	772.479
159.848	26.108	951.877	771.797
160.862	26.242	950.825	771.448
161.877	26.061	949.771	769.749
162.892	26.088	949.080	769.237
163.906	26.044	948.376	768.413
164.921	26.067	947.484	767.719
165.935	26.027	946.135	766.386
166.950	26.183	945.107	766.151
167.964	26.028	944.555	764.977
168.979	26.045	943.423	764.066
169.994	26.009	941.904	762.613
171.008	25.860	941.471	761.566
172.023	25.981	940.562	761.276
173.037	26.155	940.184	761.637
174.052	26.021	938.806	759.889
175.067	25.796	937.852	758.102
176.081	25.851	937.244	757.775
177.096	25.881	936.532	757.256
178.110	25.850	935.691	756.382
179.125	25.613	934.794	754.594
180.140	25.445	933.348	752.657
181.154	25.423	932.818	752.071
182.169	25.668	932.162	752.501
183.183	25.701	932.496	752.839
184.198	25.981	932.073	753.601
185.213	26.056	931.121	753.079
186.227	25.916	930.362	751.816
187.242	26.010	930.067	751.903
188.256	25.941	929.615	751.183
189.271	26.031	928.859	750.880
190.286	26.240	927.696	750.744
191.300	26.151	926.776	749.563
192.315	25.525	925.428	745.811
193.329	24.589	923.764	740.525
194.344	24.088	923.097	737.847
195.359	24.933	923.273	741.426
196.373	25.785	923.575	745.129
197.388	26.135	923.045	746.080
198.402	25.973	922.503	744.907
199.417	25.961	921.685	744.133
200.432	25.972	921.726	744.147
201.446	25.874	920.490	742.676
202.461	25.628	919.936	741.151
203.475	25.789	919.211	741.165
204.490	25.140	918.187	737.606
205.504	24.118	915.903	731.507
206.519	24.239	916.363	732.309
207.534	25.477	915.725	736.816
208.548	25.577	915.500	736.979
209.563	25.882	915.668	738.298
210.577	25.798	914.654	737.070
211.592	25.664	913.630	735.634
212.607	26.100	913.602	737.327
213.621	26.177	913.364	737.383
214.636	26.142	912.468	736.453
215.650	26.077	912.009	735.752
216.665	26.146	911.378	735.459
217.680	26.077	911.128	734.910
218.694	26.302	910.502	735.256
219.709	25.956	909.697	733.135
220.723	25.621	908.642	730.858
221.738	25.870	908.064	731.337
222.753	26.029	907.209	731.230
223.767	25.887	906.838	730.292
224.782	25.981	906.041	729.967
225.796	26.128	905.734	730.248
226.811	26.131	905.360	729.893
227.826	25.885	904.117	727.833
228.840	25.174	902.794	723.837
229.855	24.926	901.743	721.930
230.869	25.232	901.375	722.804
231.884	24.943	900.690	721.030
232.899	24.823	900.487	720.318
233.913	25.614	900.415	723.382
234.928	25.918	899.962	724.172
235.942	25.826	899.090	723.038
236.957	26.013	898.607	723.335
237.972	25.598	897.460	720.686
238.986	25.464	896.820	719.572
240.001	25.479	896.435	719.259
241.015	25.537	895.803	718.920
242.030	25.694	895.169	718.975
243.045	25.747	894.435	718.532
244.059	25.844	894.229	718.692
245.074	26.151	893.627	719.368
246.088	25.964	893.395	718.371
247.103	25.619	892.077	715.878
248.117	25.678	891.480	715.570
249.132	26.298	891.407	717.910
250.147	26.614	891.629	719.280
251.161	26.756	890.742	719.065
252.176	26.886	890.318	719.175
253.190	26.866	889.648	718.490
254.205	26.952	889.272	718.463
255.220	27.104	888.980	718.767
256.234	27.088	888.044	717.883
257.249	26.882	887.553	716.607
258.263	26.722	886.982	715.452
259.278	26.688	886.670	715.005
260.293	26.770	886.430	715.069
261.307	26.958	885.222	714.774
262.322	26.845	884.255	713.482
263.336	26.731	883.753	712.568
264.351	26.315	882.752	710.064
265.366	25.284	880.533	704.174
266.380	24.650	879.748	700.999
267.395	25.541	880.275	704.851
268.409	26.335	880.230	707.864
269.424	26.347	879.463	707.231
270.439	26.526	879.210	707.665
271.453	26.645	878.580	707.559
272.468	26.675	877.739	706.935
273.482	26.780	877.390	707.002
274.497	26.949	876.965	707.257
275.512	26.729	876.048	705.597
276.526	26.155	874.558	702.101
277.541	26.315	874.629	702.719
278.555	26.690	874.001	703.608
279.570	26.403	873.658	702.156
280.585	26.447	872.507	701.339
281.599	26.497	872.095	701.142
282.614	26.665	872.182	701.802
283.628	26.018	870.911	698.213
284.643	25.704	869.987	696.195
285.657	26.024	869.871	697.277
286.672	26.183	868.676	696.871
287.687	25.642	868.097	694.259
288.701	25.947	867.973	695.274
289.716	26.386	867.905	696.851
290.730	25.987	867.002	694.529
291.745	25.815	866.038	693.033
292.760	25.643	865.262	691.690
293.774	25.477	864.763	690.591
294.789	26.520	865.343	695.002
295.803	27.106	865.295	697.151
296.818	27.185	864.845	697.029
297.833	27.318	863.856	696.681
298.847	27.055	863.241	695.115
299.862	26.594	862.372	692.590
300.876	26.768	861.971	692.873
301.891	27.097	861.622	693.786
302.906	27.292	860.898	693.889
303.920	26.823	859.928	691.258
304.935	26.636	859.520	690.157
305.949	27.082	859.043	691.410
306.964	27.201	858.535	691.393
307.979	27.072	857.639	690.121
308.993	26.850	857.282	688.929
310.008	27.155	857.317	690.054
311.022	27.357	856.977	690.486
312.037	27.130	856.314	689.028
313.052	26.953	855.339	687.513
314.066	26.858	854.489	686.409
315.081	26.263	852.972	682.882
316.095	25.352	852.064	678.655
317.110	25.983	851.972	680.905
318.125	26.744	852.590	684.211
319.139	26.327	851.457	681.671
320.154	25.063	849.942	675.635
321.168	24.795	848.786	673.648
322.183	25.358	848.816	675.729
323.197	26.393	849.083	679.775
324.212	26.512	849.283	680.325
325.227	26.972	848.580	681.428
326.241	26.927	848.383	681.039
327.256	26.813	847.855	680.127
328.270	26.780	847.045	679.295
329.285	26.649	846.410	678.233
330.300	26.488	845.560	676.890
331.314	26.087	844.902	674.804
332.329	26.144	844.372	674.535
333.343	26.715	844.059	676.357
334.358	27.153	843.428	677.426
335.373	27.081	843.000	676.755
336.387	27.121	842.596	676.517
337.402	27.400	842.208	677.186
338.416	27.479	841.909	677.179
339.431	27.488	841.377	676.725
340.446	27.403	840.955	676.007
341.460	27.650	840.583	676.566
342.475	27.703	839.690	675.984
343.489	27.438	839.073	674.445
344.504	27.404	838.388	673.709
345.519	27.649	837.927	674.188
346.533	27.988	837.514	675.047
347.548	27.754	838.180	674.659
348.562	27.902	837.276	674.418
349.577	27.887	836.147	673.392
350.592	27.697	835.909	672.442
351.606	27.777	835.309	672.194
352.621	27.738	834.787	671.570
353.635	27.706	834.336	671.033
354.650	27.423	833.863	669.551
355.665	27.233	832.728	667.884
356.679	26.360	831.119	663.331
357.694	26.094	830.664	661.935
358.708	26.808	830.644	664.478
359.723	26.685	829.990	663.444
360.738	26.974	829.537	664.080
361.752	27.254	829.792	665.252
362.767	27.437	829.409	665.556
363.781	27.789	829.126	666.555
364.796	27.798	829.711	667.000
365.810	28.090	828.781	667.256
366.825	28.208	828.421	667.339
367.840	28.383	827.998	667.578
368.854	28.055	827.368	665.816
369.869	27.699	826.247	663.557
370.883	27.411	825.695	662.011
371.898	27.688	824.800	662.241
372.913	27.580	824.127	661.251
373.927	27.395	823.996	660.414
374.942	27.551	823.599	660.602
375.956	27.702	823.137	660.721
376.971	27.756	822.585	660.415
377.986	27.879	822.066	660.385
379.000	27.928	821.920	660.387
380.015	28.154	821.324	660.665
381.029	27.984	820.384	659.237
382.044	27.882	820.108	658.590
383.059	28.196	819.321	659.031
384.073	28.066	819.083	658.313
385.088	28.282	818.046	658.198
386.102	28.183	817.641	657.459
387.117	27.935	817.031	656.018
388.132	27.804	816.568	655.120
389.146	27.575	816.076	653.845
390.161	27.087	814.924	651.114
391.175	27.056	814.780	650.833
392.190	27.722	814.945	653.292
393.205	27.897	814.038	653.131
394.219	26.867	812.193	647.918
395.234	25.124	810.081	639.960
396.248	24.216	809.038	635.840
397.263	25.287	810.081	640.429
398.278	27.108	811.332	647.862
399.292	27.726	810.995	649.736
400.307	27.396	810.596	648.185
401.321	27.263	810.239	647.367
402.336	27.336	809.695	647.134
403.350	27.691	809.651	648.306
404.365	28.137	809.294	649.545
405.380	28.511	809.410	650.910
406.394	28.740	809.302	651.578
407.409	28.965	808.618	651.766
408.423	28.757	808.437	650.827
409.438	28.662	807.833	649.945
410.453	28.920	807.236	650.322
411.467	28.909	806.769	649.850
412.482	28.790	806.388	649.063
413.496	28.856	805.642	648.640
414.511	28.880	805.412	648.482
415.526	28.850	805.127	648.089
416.540	28.760	804.875	647.512
417.555	28.708	804.221	646.743
418.569	28.577	803.111	645.332
419.584	28.475	802.740	644.619
420.599	28.651	802.351	644.869
421.613	103.319	1275.970	1420.805
422.628	88.896	1344.998	1420.931
