DTS Sentinel unit serial number:	SN413079Multiplexer serial number:	ORYXHardware model number:	OX4-SRSoftware version number:	ORYX F/W v4.00 Oryx Data Collector v3.7.2.0data status	okinstallation	princeton_trtdifferential loss correction	single-endedforward channel	channel 3reverse channel	N/Adate	2019/09/12time	11:30:10forward acquisition time	60.00reverse acquisition time	0.00gamma	496.2192k internal	0.2294k external	0.2294temperature offset calibration	1.0031default loss term (dB/km)	0.3790temperature slope calibration	1.0000multiplexer offset coefficient	1.0000multiplexer slope coefficient	1.0000fibre end	0.00T internal ref (°C)	39.37T ext. ref 1 (°C)	1.96T ext. ref 2 (°C)	36.53length (m)	temperature (°C)	Stokes	anti-Stokes-747.200	-102.876	-0.443	0.108
-746.185	800.000	-0.169	0.548
-745.171	234.405	0.149	0.251
-744.156	35.603	0.066	-0.059
-743.142	-149.827	-0.156	-0.012
-742.127	-75.627	-0.248	0.090
-741.112	152.803	0.221	0.308
-740.098	694.785	0.023	0.062
-739.083	124.183	0.133	-0.171
-738.069	-200.000	-0.019	0.220
-737.054	13.129	-0.102	-0.081
-736.039	-65.332	0.117	0.048
-735.025	443.542	-0.032	0.071
-734.010	-6.579	-0.309	-0.215
-732.996	-43.885	-0.276	-0.142
-731.981	37.649	-0.097	-0.088
-730.966	25.990	-0.146	-0.125
-729.952	-53.046	-0.406	-0.191
-728.937	497.363	0.138	-0.324
-727.923	205.134	-0.052	-0.082
-726.908	619.382	0.094	-0.242
-725.894	56.855	0.199	0.198
-724.879	145.575	0.026	-0.036
-723.864	60.950	0.115	0.117
-722.850	246.494	0.019	-0.033
-721.835	252.499	0.069	-0.120
-720.821	124.123	0.118	0.152
-719.806	-199.439	0.345	0.002
-718.791	-122.831	-0.295	-0.049
-717.777	-200.000	-0.031	-0.142
-716.762	-200.000	0.019	0.220
-715.748	489.423	0.012	0.027
-714.733	-200.000	-0.001	-0.038
-713.718	130.963	-0.171	-0.225
-712.704	-136.570	-0.252	-0.030
-711.689	-53.530	-0.147	-0.069
-710.675	-86.909	0.196	0.061
-709.660	-200.000	0.014	-0.157
-708.645	-200.000	-0.021	-0.417
-707.631	-200.000	0.048	-0.312
-706.616	-54.506	0.392	-0.181
-705.602	800.000	-0.030	0.132
-704.587	-7.961	0.158	-0.109
-703.572	50.161	0.058	-0.056
-702.558	-200.000	-0.003	0.035
-701.543	-54.190	-0.039	-0.018
-700.529	-139.553	0.336	0.037
-699.514	-19.427	0.202	0.128
-698.499	0.595	0.181	0.132
-697.485	800.000	-0.056	0.174
-696.470	-41.013	-0.183	0.097
-695.456	-27.139	-0.199	0.118
-694.441	-173.644	0.395	-0.012
-693.426	-102.190	-0.145	-0.036
-692.412	-20.981	0.358	0.224
-691.397	-74.282	-0.174	0.064
-690.383	-49.381	0.122	0.060
-689.368	-9.270	-0.236	0.161
-688.354	6.602	-0.275	0.208
-687.339	-2.108	0.116	0.083
-686.324	486.157	-0.083	-0.193
-685.310	-27.886	-0.249	-0.147
-684.295	69.974	0.144	-0.152
-683.281	-1.156	-0.099	-0.072
-682.266	212.350	0.122	-0.196
-681.251	12.445	0.067	-0.053
-680.237	-109.496	-0.161	0.035
-679.222	-200.000	0.003	-0.203
-678.208	26.250	-0.079	-0.067
-677.193	-124.334	-0.069	0.011
-676.178	-200.000	0.015	-0.249
-675.164	-12.879	0.357	-0.237
-674.149	-140.905	-0.234	0.025
-673.135	472.909	-0.017	-0.039
-672.120	51.181	-0.175	-0.169
-671.105	163.193	-0.142	-0.203
-670.091	117.211	0.104	-0.131
-669.076	109.381	0.037	0.045
-668.062	-200.000	0.016	0.436
-667.047	-200.000	0.025	0.281
-666.032	-200.000	-0.040	-0.231
-665.018	51.592	-0.062	0.060
-664.003	800.000	0.051	0.198
-662.989	-200.000	0.011	0.076
-661.974	66.633	-0.194	0.201
-660.959	532.503	0.072	0.174
-659.945	-200.000	-0.012	-0.151
-658.930	-38.791	0.374	-0.201
-657.916	509.150	0.021	-0.050
-656.901	-35.624	-0.105	0.058
-655.886	-43.266	0.129	-0.067
-654.872	-51.283	-0.166	0.079
-653.857	-58.187	0.075	-0.033
-652.843	-154.917	0.167	-0.011
-651.828	678.981	0.029	0.076
-650.814	-200.000	-0.031	-0.159
-649.799	800.000	-0.063	-0.199
-648.784	800.000	0.156	0.467
-647.770	-138.743	0.144	-0.016
-646.755	205.312	-0.069	0.108
-645.741	-2.323	-0.179	0.128
-644.726	-127.597	-0.273	-0.040
-643.711	-200.000	-0.061	-0.330
-642.697	-59.038	-0.273	-0.120
-641.682	154.731	-0.070	-0.097
-640.668	-61.649	-0.184	0.079
-639.653	-106.451	0.294	-0.067
-638.638	218.101	0.086	-0.140
-637.624	-42.127	0.190	0.099
-636.609	243.502	-0.104	-0.178
-635.595	-200.000	-0.003	0.097
-634.580	-200.000	-0.002	0.071
-633.565	-19.185	-0.075	0.047
-632.551	374.394	-0.067	0.138
-631.536	125.649	0.183	0.235
-630.522	-148.081	0.073	0.006
-629.507	-169.190	0.019	0.001
-628.492	-200.000	0.020	-0.133
-627.478	-69.924	-0.261	-0.101
-626.463	210.476	0.130	-0.207
-625.449	-32.880	-0.306	-0.173
-624.434	-57.969	0.037	0.017
-623.419	-200.000	0.054	0.000
-622.405	214.674	0.130	-0.210
-621.390	-200.000	0.052	0.466
-620.376	-119.234	0.286	-0.051
-619.361	613.574	-0.088	-0.225
-618.346	130.075	-0.096	-0.125
-617.332	355.154	0.079	-0.161
-616.317	-145.690	-0.213	-0.019
-615.303	-37.112	0.027	-0.015
-614.288	-200.000	-0.115	0.584
-613.273	115.855	0.096	0.119
-612.259	39.419	0.087	-0.079
-611.244	-55.054	-0.269	0.123
-610.230	-154.685	0.183	-0.012
-609.215	-72.367	-0.388	-0.146
-608.201	-200.000	0.052	0.314
-607.186	800.000	0.047	-0.154
-606.171	-41.690	0.170	0.089
-605.157	-96.753	-0.189	0.051
-604.142	114.092	-0.142	-0.175
-603.128	-45.807	-0.346	-0.174
-602.113	800.000	-0.071	-0.260
-601.098	9.213	-0.158	0.121
-600.084	-200.000	-0.001	0.100
-599.069	122.929	0.050	-0.064
-598.055	97.382	-0.084	-0.099
-597.040	47.969	-0.173	-0.165
-596.025	-122.456	-0.408	0.068
-595.011	-0.782	-0.270	0.195
-593.996	800.000	-0.043	-0.132
-592.982	-200.000	0.005	-0.162
-591.967	-5.633	-0.052	0.036
-590.952	60.653	-0.435	0.438
-589.938	-200.000	-0.010	0.219
-588.923	-155.122	0.140	0.009
-587.909	64.300	0.214	0.219
-586.894	16.530	-0.168	0.135
-585.879	199.475	0.169	0.263
-584.865	-200.000	0.055	0.477
-583.850	185.016	-0.104	-0.156
-582.836	800.000	0.140	0.423
-581.821	687.152	-0.080	0.212
-580.806	-200.000	0.001	0.227
-579.792	-14.815	-0.150	0.098
-578.777	-7.921	0.048	-0.033
-577.763	-200.000	-0.013	0.098
-576.748	-118.204	-0.135	-0.024
-575.733	-6.446	0.063	0.044
-574.719	-113.362	0.282	0.056
-573.704	-59.732	0.206	-0.090
-572.690	800.000	0.056	-0.179
-571.675	222.713	0.202	0.330
-570.661	2.445	0.220	-0.161
-569.646	800.000	0.027	-0.103
-568.631	-200.000	0.018	-0.128
-567.617	-200.000	-0.002	-0.117
-566.602	45.429	-0.068	0.064
-565.588	35.327	-0.092	0.082
-564.573	-70.747	-0.103	-0.039
-563.558	232.252	-0.247	0.411
-562.544	150.718	0.069	0.096
-561.529	-200.000	-0.010	-0.291
-560.515	118.384	0.141	0.177
-559.500	305.410	0.034	-0.064
-558.485	83.770	0.172	-0.191
-557.471	-30.262	0.295	0.170
-556.456	-200.000	0.007	-0.050
-555.442	176.825	-0.077	-0.114
-554.427	800.000	-0.070	0.210
-553.412	-64.085	-0.140	-0.058
-552.398	-77.541	-0.217	-0.076
-551.383	-97.000	-0.429	0.114
-550.369	83.845	0.185	-0.205
-549.354	355.650	0.053	0.107
-548.339	546.514	0.022	0.054
-547.325	-155.192	0.012	0.001
-546.310	-52.348	0.245	-0.115
-545.296	800.000	-0.087	-0.349
-544.281	800.000	-0.007	0.024
-543.266	800.000	-0.064	0.195
-542.252	136.293	0.133	0.176
-541.237	178.026	0.073	-0.108
-540.223	-123.383	-0.258	-0.042
-539.208	-200.000	-0.030	-0.335
-538.193	-52.835	-0.234	-0.109
-537.179	-163.973	0.055	-0.003
-536.164	-200.000	-0.009	0.141
-535.150	800.000	-0.032	0.128
-534.135	-200.000	0.003	0.130
-533.121	-123.303	-0.536	0.087
-532.106	603.519	-0.104	0.261
-531.091	70.463	0.141	-0.147
-530.077	-200.000	0.009	-0.049
-529.062	28.607	-0.301	0.258
-528.048	526.919	0.128	-0.306
-527.033	800.000	0.041	-0.150
-526.018	25.152	-0.162	-0.137
-525.004	15.969	-0.057	0.045
-523.989	181.249	-0.222	0.330
-522.975	609.150	-0.083	-0.210
-521.960	356.887	0.012	-0.025
-520.945	800.000	-0.088	0.275
-519.931	-151.491	0.084	0.006
-518.916	-112.375	0.522	-0.106
-517.902	-106.131	0.307	0.070
-516.887	-200.000	-0.155	-0.001
-515.872	-200.000	-0.002	0.213
-514.858	-124.057	0.147	0.023
-513.843	66.814	-0.191	-0.197
-512.829	27.083	0.076	0.064
-511.814	-130.639	0.144	0.020
-510.799	56.491	0.052	-0.051
-509.785	-54.090	-0.294	0.136
-508.770	-200.000	0.010	0.167
-507.756	-56.785	-0.217	0.097
-506.741	-200.000	-0.027	-0.125
-505.726	-124.611	-0.209	-0.033
-504.712	-200.000	0.042	-0.244
-503.697	-144.361	0.078	-0.007
-502.683	23.694	-0.261	-0.217
-501.668	800.000	0.008	-0.031
-500.653	7.588	0.222	0.169
-499.639	-200.000	-0.015	-0.072
-498.624	-200.000	0.019	-0.181
-497.610	133.105	0.200	0.262
-496.595	800.000	-0.121	-0.432
-495.581	371.203	0.107	0.220
-494.566	119.815	-0.229	0.288
-493.551	17.489	0.250	0.201
-492.537	103.239	-0.192	-0.228
-491.522	800.000	0.128	0.405
-490.508	-200.000	-0.018	-0.152
-489.493	-200.000	0.015	0.184
-488.478	197.872	0.165	-0.255
-487.464	-70.287	-0.288	-0.111
-486.449	-124.886	0.269	-0.042
-485.435	382.864	0.136	-0.283
-484.420	-200.000	-0.004	-0.169
-483.405	69.138	0.047	-0.049
-482.391	800.000	0.087	0.297
-481.376	45.512	-0.165	0.154
-480.362	-200.000	-0.010	0.125
-479.347	10.220	-0.297	0.229
-478.332	-200.000	0.005	0.031
-477.318	-144.138	0.181	-0.017
-476.303	-70.863	-0.193	-0.073
-475.289	-0.402	-0.105	-0.075
-474.274	229.928	0.121	-0.200
-473.259	800.000	0.150	-0.430
-472.245	-4.515	-0.145	0.101
-471.230	-129.206	0.197	-0.028
-470.216	-200.000	0.016	-0.307
-469.201	34.432	-0.023	-0.021
-468.186	800.000	0.026	-0.079
-467.172	-57.750	-0.334	0.148
-466.157	800.000	0.068	0.206
-465.143	-200.000	0.071	0.317
-464.128	800.000	-0.020	0.086
-463.113	41.963	0.314	0.288
-462.099	-200.000	0.051	0.252
-461.084	-198.474	-0.173	0.001
-460.070	-40.124	0.271	0.143
-459.055	-114.446	-0.116	0.023
-458.040	-122.157	0.150	-0.025
-457.026	478.063	0.088	0.201
-456.011	324.695	0.226	0.436
-454.997	782.416	-0.018	-0.051
-453.982	138.538	-0.107	-0.142
-452.968	-200.000	-0.019	0.170
-451.953	-200.000	-0.002	-0.085
-450.938	-189.228	0.239	-0.003
-449.924	-92.093	0.208	-0.059
-448.909	-200.000	0.035	-0.404
-447.895	-200.000	-0.010	-0.171
-446.880	471.849	0.076	-0.174
-445.865	142.769	0.218	-0.293
-444.851	-200.000	-0.027	0.271
-443.836	-200.000	-0.011	-0.065
-442.822	81.263	0.282	0.308
-441.807	207.543	0.148	-0.234
-440.792	320.497	-0.115	0.221
-439.778	-200.000	-0.040	-0.220
-438.763	733.294	0.080	-0.217
-437.749	-200.000	-0.095	-0.519
-436.734	484.235	-0.088	-0.203
-435.719	-200.000	-0.041	0.258
-434.705	-177.656	0.341	-0.008
-433.690	-106.842	-0.066	0.015
-432.676	-91.485	0.315	-0.091
-431.661	-71.417	-0.306	-0.116
-430.646	27.671	0.152	-0.129
-429.632	-5.212	-0.153	-0.106
-428.617	800.000	0.061	-0.204
-427.603	92.885	-0.248	-0.283
-426.588	33.473	-0.325	0.285
-425.573	-200.000	0.001	-0.208
-424.559	257.529	0.131	0.227
-423.544	103.593	0.294	-0.348
-422.530	800.000	-0.137	-0.558
-421.515	205.679	0.105	-0.164
-420.500	196.135	0.090	-0.139
-419.486	156.283	-0.068	0.095
-418.471	-200.000	0.053	-0.303
-417.457	-37.479	-0.124	0.067
-416.442	800.000	0.022	0.067
-415.428	47.350	-0.134	0.126
-414.413	-57.859	-0.350	0.154
-413.398	800.000	0.080	-0.320
-412.384	-35.879	0.138	0.075
-411.369	202.883	0.141	-0.220
-410.355	202.978	-0.181	-0.282
-409.340	-200.000	0.011	0.392
-408.325	66.989	0.224	0.231
-407.311	-31.421	0.255	-0.145
-406.296	656.749	0.171	0.444
-405.282	70.566	0.227	0.236
-404.267	-59.458	0.213	-0.092
-403.252	166.326	-0.110	-0.157
-402.238	-131.688	-0.173	-0.023
-401.223	-200.000	-0.027	-0.152
-400.209	438.641	-0.100	0.221
-399.194	109.520	0.158	-0.191
-398.179	-200.000	0.147	-0.000
-397.165	391.549	-0.103	-0.216
-396.150	-141.320	-0.033	0.003
-395.136	60.875	0.228	0.229
-394.121	800.000	-0.065	0.188
-393.106	-200.000	-0.002	0.149
-392.092	-200.000	0.040	-0.239
-391.077	-154.883	-0.280	-0.019
-390.063	-96.185	0.094	-0.025
-389.048	-200.000	-0.004	-0.107
-388.033	-200.000	-0.000	0.110
-387.019	169.307	0.076	0.110
-386.004	52.191	0.075	0.072
-384.990	800.000	0.039	0.117
-383.975	39.724	0.218	0.197
-382.960	179.487	-0.188	0.277
-381.946	244.240	0.048	-0.081
-380.931	609.496	-0.090	0.227
-379.917	410.768	-0.073	0.157
-378.902	-200.000	-0.007	-0.091
-377.888	128.698	-0.094	-0.120
-376.873	261.838	-0.020	-0.035
-375.858	-34.255	-0.220	-0.121
-374.844	-93.330	0.147	-0.041
-373.829	-200.000	-0.013	0.146
-372.815	596.587	-0.172	0.428
-371.800	141.610	-0.213	-0.284
-370.785	-63.755	0.212	0.087
-369.771	299.269	0.100	-0.185
-368.756	800.000	-0.055	0.186
-367.742	192.947	-0.083	0.127
-366.727	533.799	0.118	0.283
-365.712	-93.221	0.110	-0.031
-364.698	-176.576	-0.243	0.006
-363.683	800.000	-0.050	0.183
-362.669	321.827	0.030	0.058
-361.654	-100.929	-0.169	-0.042
-360.639	103.595	0.076	0.090
-359.625	22.703	-0.052	-0.043
-358.610	800.000	-0.057	-0.247
-357.596	208.080	-0.180	0.284
-356.581	34.484	-0.135	0.119
-355.566	-200.000	0.014	0.178
-354.552	186.781	0.042	-0.064
-353.537	192.389	0.014	-0.021
-352.523	800.000	0.017	-0.051
-351.508	-177.010	-0.215	0.005
-350.493	85.109	-0.040	-0.044
-349.479	-13.093	-0.306	0.200
-348.464	-200.000	-0.004	0.078
-347.450	-36.990	0.248	0.134
-346.435	53.093	-0.069	0.067
-345.420	-4.528	-0.200	-0.139
-344.406	75.787	0.055	-0.059
-343.391	-185.687	-0.027	0.000
-342.377	40.581	0.220	0.200
-341.362	76.884	-0.197	0.210
-340.348	43.312	-0.275	-0.253
-339.333	517.302	-0.151	-0.355
-338.318	44.796	0.118	-0.110
-337.304	79.710	-0.079	0.086
-336.289	-200.000	0.015	-0.092
-335.275	-70.213	-0.263	-0.101
-334.260	84.151	-0.239	0.262
-333.245	-200.000	0.476	-0.001
-332.231	800.000	0.022	0.069
-331.216	-200.000	0.025	0.177
-330.202	-166.663	0.311	-0.013
-329.187	35.774	0.091	-0.081
-328.172	-167.820	-0.237	0.009
-327.158	-113.972	-0.234	-0.046
-326.143	-22.317	0.154	0.094
-325.129	-200.000	-0.033	0.190
-324.114	-46.026	-0.292	0.145
-323.099	800.000	-0.058	-0.175
-322.085	72.193	0.256	0.268
-321.070	800.000	0.016	-0.054
-320.056	132.883	-0.074	-0.096
-319.041	-60.462	-0.185	-0.079
-318.026	-25.898	0.194	0.115
-317.012	-87.153	-0.341	-0.104
-315.997	542.597	-0.171	0.409
-314.983	253.467	0.103	-0.178
-313.968	11.045	-0.131	-0.100
-312.953	-200.000	0.038	-0.266
-311.939	800.000	0.074	-0.246
-310.924	393.684	-0.067	0.141
-309.910	800.000	0.087	0.322
-308.895	10.081	0.227	0.173
-307.880	-44.871	0.155	0.078
-306.866	-103.616	0.242	-0.057
-305.851	-200.000	0.010	-0.225
-304.837	-80.584	0.171	0.057
-303.822	-5.028	0.173	-0.120
-302.807	-200.000	-0.013	-0.129
-301.793	-200.000	0.033	-0.225
-300.778	15.631	0.062	0.049
-299.764	-121.621	0.267	0.044
-298.749	674.084	0.046	-0.121
-297.735	53.136	-0.140	-0.135
-296.720	-14.491	-0.096	0.062
-295.705	-27.215	0.363	-0.212
-294.691	-200.000	0.003	-0.376
-293.676	-101.691	-0.243	0.059
-292.662	292.978	-0.077	0.140
-291.647	174.110	0.259	-0.376
-290.632	-200.000	-0.008	-0.259
-289.618	120.274	-0.060	-0.075
-288.603	228.693	0.054	0.089
-287.589	-156.596	0.203	0.013
-286.574	800.000	0.055	-0.212
-285.559	-86.922	-0.174	-0.053
-284.545	439.227	0.026	0.058
-283.530	109.456	-0.208	-0.250
-282.516	800.000	0.177	-0.514
-281.501	-136.661	0.195	0.023
-280.486	-10.414	0.198	0.131
-279.472	800.000	-0.081	-0.225
-278.457	106.758	-0.017	-0.021
-277.443	800.000	0.166	-0.485
-276.428	800.000	0.083	-0.335
-275.413	800.000	-0.072	0.297
-274.399	-46.451	-0.395	-0.195
-273.384	-200.000	-0.028	-0.556
-272.370	-158.458	-0.104	0.006
-271.355	-52.317	0.189	-0.088
-270.340	-200.000	0.033	-0.368
-269.326	71.138	-0.143	-0.149
-268.311	-170.370	0.336	0.012
-267.297	44.360	-0.274	0.252
-266.282	-51.931	0.293	-0.137
-265.267	-200.000	0.060	-0.378
-264.253	-46.291	0.311	-0.154
-263.238	800.000	0.037	-0.149
-262.224	211.398	0.050	-0.080
-261.209	-24.540	0.103	0.061
-260.195	-51.359	0.229	-0.107
-259.180	-116.592	-0.092	-0.017
-258.165	-110.441	0.134	0.028
-257.151	800.000	0.033	-0.099
-256.136	99.939	-0.158	0.184
-255.122	-200.000	-0.005	0.306
-254.107	55.724	-0.398	0.387
-253.092	91.571	-0.097	0.109
-252.078	-200.000	-0.005	-0.098
-251.063	-114.023	-0.186	0.036
-250.049	145.734	0.170	0.228
-249.034	-200.000	-0.041	-0.209
-248.019	-158.838	-0.252	-0.014
-247.005	-200.000	-0.019	0.204
-245.990	-82.332	-0.158	-0.052
-244.976	-128.350	-0.241	0.034
-243.961	-3.233	0.271	0.189
-242.946	-200.000	-0.002	0.027
-241.932	-121.217	-0.196	0.033
-240.917	-23.427	-0.358	0.216
-239.903	14.827	0.203	-0.159
-238.888	-132.370	-0.251	-0.032
-237.873	-38.413	-0.070	-0.037
-236.859	-39.949	-0.135	-0.070
-235.844	-87.520	-0.288	0.087
-234.830	-95.996	0.244	-0.065
-233.815	171.061	-0.168	0.242
-232.800	-55.476	0.386	0.174
-231.786	-200.000	0.004	-0.154
-230.771	3.827	0.142	-0.104
-229.757	108.149	0.163	-0.194
-228.742	800.000	0.034	0.127
-227.727	-70.095	0.200	-0.076
-226.713	593.159	0.107	0.265
-225.698	-200.000	-0.026	0.214
-224.684	-94.600	-0.319	0.087
-223.669	-121.510	-0.123	-0.021
-222.655	429.559	-0.074	0.160
-221.640	800.000	-0.064	0.265
-220.625	-200.000	-0.069	0.398
-219.611	-9.815	-0.111	-0.074
-218.596	-21.183	-0.195	0.120
-217.582	67.417	-0.173	0.177
-216.567	-16.786	0.169	-0.107
-215.552	800.000	-0.032	0.098
-214.538	800.000	-0.150	0.524
-213.523	800.000	0.081	-0.231
-212.509	-164.321	0.134	0.006
-211.494	-94.466	0.053	0.014
-210.479	-44.523	-0.280	-0.140
-209.465	-200.000	0.044	0.206
-208.450	-28.000	-0.192	-0.111
-207.436	6.809	0.268	0.200
-206.421	-95.684	0.191	-0.051
-205.406	-200.000	-0.014	-0.335
-204.392	13.398	0.141	0.110
-203.377	-31.485	0.205	-0.115
-202.363	112.475	-0.040	0.049
-201.348	800.000	0.083	0.252
-200.333	-22.085	0.411	0.250
-199.319	82.996	-0.258	-0.281
-198.304	127.704	0.119	0.152
-197.290	-200.000	0.023	-0.313
-196.275	-24.377	-0.150	-0.090
-195.260	-0.993	-0.248	-0.176
-194.246	800.000	0.106	-0.322
-193.231	-172.832	-0.220	-0.007
-192.217	-115.948	0.193	0.036
-191.202	-137.647	0.259	-0.029
-190.187	800.000	-0.023	-0.076
-189.173	-200.000	0.031	-0.478
-188.158	-144.326	0.103	-0.010
-187.144	-45.189	-0.082	-0.041
-186.129	-24.611	0.215	0.128
-185.114	-167.192	-0.244	0.010
-184.100	-170.704	0.153	-0.005
-183.085	-200.000	-0.062	-0.360
-182.071	450.578	0.076	-0.167
-181.056	-141.205	0.261	-0.027
-180.042	-30.058	0.135	-0.077
-179.027	-101.280	0.445	-0.109
-178.012	-147.090	-0.391	0.033
-176.998	-101.675	0.092	0.022
-175.983	146.738	-0.162	0.218
-174.969	-200.000	0.028	0.149
-173.954	225.172	0.166	0.269
-172.939	355.781	0.175	-0.348
-171.925	-37.216	-0.045	-0.024
-170.910	-200.000	0.027	-0.311
-169.896	54.523	-0.150	0.145
-168.881	-135.192	0.284	0.034
-167.866	-200.000	-0.021	0.198
-166.852	219.910	-0.131	0.211
-165.837	-200.000	-0.014	-0.104
-164.823	-92.033	0.221	-0.062
-163.808	-17.786	-0.056	-0.035
-162.793	166.651	0.098	0.139
-161.779	-27.648	-0.120	0.069
-160.764	800.000	-0.020	0.068
-159.750	-101.878	0.359	-0.087
-158.735	-82.576	0.345	0.112
-157.720	-200.000	0.031	0.205
-156.706	-138.921	-0.512	-0.056
-155.691	-200.000	-0.039	0.191
-154.677	-17.947	0.171	-0.107
-153.662	57.826	-0.026	0.025
-152.647	740.661	0.139	0.372
-151.633	-15.702	0.258	-0.164
-150.618	34.331	-0.090	0.079
-149.604	-156.862	0.216	-0.013
-148.589	25.281	-0.126	0.105
-147.574	136.072	-0.140	-0.182
-146.560	291.661	-0.028	-0.051
-145.545	-165.387	0.289	0.013
-144.531	25.083	0.379	-0.314
-143.516	542.273	0.094	0.224
-142.502	800.000	-0.158	0.605
-141.487	32.330	0.242	0.209
-140.472	-200.000	0.035	0.229
-139.458	78.165	-0.360	-0.384
-138.443	-200.000	0.043	-0.303
-137.429	-59.746	-0.191	-0.082
-136.414	-164.171	-0.392	0.018
-135.399	-90.330	0.173	-0.050
-134.385	-72.865	-0.187	0.069
-133.370	124.022	0.235	-0.294
-132.356	800.000	-0.027	-0.113
-131.341	-41.941	-0.349	-0.178
-130.326	-10.813	0.184	-0.122
-129.312	-89.664	-0.044	-0.013
-128.297	206.875	-0.245	-0.381
-127.283	45.815	-0.088	-0.081
-126.268	115.227	0.117	0.142
-125.253	-19.248	-0.185	0.114
-124.239	-70.219	0.223	0.085
-123.224	254.286	0.079	-0.135
-122.210	800.000	-0.091	-0.323
-121.195	-75.675	-0.252	0.089
-120.180	-151.752	0.218	0.016
-119.166	541.763	0.091	-0.217
-118.151	13.098	0.322	0.249
-117.137	800.000	-0.128	-0.392
-116.122	-164.156	-0.114	-0.005
-115.107	360.292	0.051	0.102
-114.093	47.280	0.090	-0.084
-113.078	-200.000	0.024	-0.184
-112.064	-200.000	0.042	0.270
-111.049	-200.000	0.020	-0.090
-110.034	-12.161	-0.155	0.101
-109.020	276.056	-0.074	-0.132
-108.005	-200.000	0.028	-0.457
-106.991	-90.749	0.344	-0.099
-105.976	800.000	0.026	-0.086
-104.962	-53.619	0.374	0.170
-103.947	-157.313	-0.174	0.010
-102.932	127.856	0.110	0.139
-101.918	-41.715	-0.135	0.069
-100.903	-27.487	0.182	-0.106
-99.889	-2.677	0.141	-0.099
-98.874	-14.633	0.075	0.048
-97.859	-109.978	0.265	-0.055
-96.845	-22.454	0.227	-0.137
-95.830	-35.608	0.264	-0.143
-94.816	55.843	0.134	0.130
-93.801	204.286	0.037	0.058
-92.786	-175.066	-0.222	-0.006
-91.772	-33.614	0.111	0.061
-90.757	-41.719	-0.491	0.251
-89.743	-200.000	0.019	-0.147
-88.728	-114.844	0.202	-0.038
-87.713	-76.639	0.102	-0.036
-86.699	-29.865	-0.081	0.046
-85.684	714.051	0.071	-0.187
-84.670	792.309	0.052	-0.143
-83.655	266.315	0.049	-0.085
-82.640	-146.112	0.286	0.025
-81.626	800.000	0.037	-0.127
-80.611	14.763	0.144	-0.112
-79.597	-46.914	0.112	0.055
-78.582	19.585	-0.305	-0.244
-77.567	-200.000	-0.014	0.207
-76.553	-3.206	0.362	-0.251
-75.538	75.585	-0.056	-0.059
-74.524	279.743	0.096	0.171
-73.509	-106.222	-0.214	0.048
-72.494	-200.000	0.022	0.151
-71.480	-106.700	0.081	-0.018
-70.465	-200.000	0.020	-0.114
-69.451	-134.358	0.040	-0.005
-68.436	-200.000	0.032	0.174
-67.422	-93.567	0.381	0.105
-66.407	-66.645	0.169	-0.067
-65.392	-156.452	-0.119	0.007
-64.378	-24.332	-0.239	-0.142
-63.363	92.062	-0.025	-0.028
-62.349	800.000	-0.169	0.507
-61.334	-3.489	-0.966	-0.669
-60.319	-72.287	0.457	0.168
-59.305	297.351	-0.263	-0.480
-58.290	160.599	0.631	0.876
-57.276	311.918	0.846	1.579
-56.261	-200.000	78.102	507.233
-55.246	487.664	1363.748	3097.959
-54.232	143.887	2594.381	3442.397
-53.217	112.897	2261.872	2727.688
-52.203	49.555	1788.538	1675.848
-51.188	42.602	1591.281	1441.322
-50.173	40.048	1562.075	1396.797
-49.159	56.013	1600.527	1545.430
-48.144	61.081	1620.783	1601.112
-47.130	43.198	1583.542	1438.337
-46.115	39.689	1569.233	1400.428
-45.100	39.527	1565.984	1396.324
-44.086	39.398	1564.110	1393.684
-43.071	39.460	1561.629	1391.859
-42.057	39.375	1559.689	1389.474
-41.042	39.449	1557.860	1388.311
-40.027	39.360	1556.850	1386.726
-39.013	39.280	1555.247	1384.681
-37.998	39.360	1553.782	1383.883
-36.984	39.339	1552.854	1382.857
-35.969	39.357	1551.569	1381.781
-34.954	39.368	1550.708	1381.041
-33.940	39.347	1548.920	1379.243
-32.925	39.383	1547.685	1378.344
-31.911	39.516	1545.789	1377.530
-30.896	39.474	1544.694	1376.203
-29.881	39.501	1542.909	1374.750
-28.867	39.429	1541.914	1373.303
-27.852	39.468	1540.896	1372.616
-26.838	39.426	1539.057	1370.632
-25.823	39.477	1537.630	1369.660
-24.809	39.433	1535.504	1367.406
-23.794	39.430	1534.181	1366.154
-22.779	39.364	1533.166	1364.736
-21.765	39.497	1531.545	1364.164
-20.750	39.502	1530.695	1363.384
-19.736	39.378	1529.584	1361.481
-18.721	39.377	1528.565	1360.518
-17.706	39.390	1527.210	1359.342
-16.692	39.461	1525.882	1358.601
-15.677	39.387	1524.798	1357.070
-14.663	39.296	1524.133	1355.793
-13.648	39.277	1523.078	1354.670
-12.633	39.339	1521.581	1353.715
-11.619	39.320	1521.052	1353.059
-10.604	39.331	1520.261	1352.378
-9.590	39.283	1518.959	1350.834
-8.575	39.361	1518.131	1350.580
-7.560	39.294	1517.604	1349.602
-6.546	39.300	1516.482	1348.587
-5.531	39.258	1515.799	1347.641
-4.517	39.188	1515.169	1346.547
-3.502	39.224	1514.232	1345.904
-2.487	39.341	1512.166	1344.820
-1.473	39.333	1511.046	1343.711
-0.458	39.343	1509.724	1342.556
0.556	39.415	1501.109	1333.210
1.571	36.852	1473.418	1291.441
2.586	33.132	1409.597	1211.609
3.600	31.237	1323.539	1126.119
4.615	29.131	1274.078	1071.699
5.629	24.000	1212.820	991.568
6.644	12.226	1119.952	854.610
7.659	3.577	1072.505	775.042
8.673	2.339	1066.878	764.720
9.688	1.981	1064.062	760.849
10.702	1.772	1062.228	758.430
11.717	1.760	1060.440	757.028
12.731	5.057	1064.999	776.652
13.746	15.833	1080.663	842.197
14.761	23.975	1091.127	891.243
15.775	25.334	1091.430	898.217
16.790	25.455	1091.288	898.622
17.804	25.189	1090.506	896.569
18.819	25.016	1089.696	894.960
19.834	25.136	1089.046	894.947
20.848	25.196	1088.713	894.895
21.863	25.283	1088.147	894.782
22.877	25.307	1087.799	894.534
23.892	25.214	1087.643	893.865
24.907	25.116	1086.129	892.053
25.921	25.105	1085.916	891.747
26.936	25.130	1084.864	890.927
27.950	25.203	1083.773	890.315
28.965	25.214	1082.378	889.146
29.980	25.044	1080.784	886.917
30.994	24.928	1080.185	885.774
32.009	25.217	1078.905	886.073
33.023	25.299	1078.590	886.138
34.038	25.017	1077.731	883.963
35.053	25.022	1076.805	883.154
36.067	25.265	1075.644	883.315
37.082	25.177	1075.178	882.423
38.096	25.190	1074.500	881.852
39.111	25.273	1074.216	881.947
40.126	25.432	1072.944	881.608
41.140	25.307	1071.905	880.063
42.155	25.073	1070.260	877.491
43.169	24.788	1069.210	875.158
44.184	24.824	1068.014	874.278
45.199	24.923	1067.098	873.931
46.213	24.787	1066.571	872.760
47.228	24.715	1065.702	871.622
48.242	24.904	1065.060	871.937
49.257	25.162	1063.716	872.014
50.271	25.172	1063.218	871.579
51.286	25.090	1062.966	870.896
52.301	25.165	1062.448	870.758
53.315	25.213	1061.500	870.141
54.330	25.205	1060.261	869.008
55.344	25.074	1059.895	867.997
56.359	25.216	1059.001	867.875
57.374	25.131	1058.179	866.715
58.388	25.009	1057.304	865.329
59.403	24.829	1056.498	863.726
60.417	24.967	1055.783	863.731
61.432	24.669	1055.186	861.727
62.447	24.855	1054.266	861.797
63.461	24.811	1053.871	861.185
64.476	24.919	1053.332	861.189
65.490	24.957	1052.156	860.334
66.505	24.851	1050.862	858.689
67.520	24.866	1050.470	858.365
68.534	25.003	1049.440	858.103
69.549	24.843	1048.561	856.546
70.563	24.539	1047.424	854.084
71.578	24.262	1047.225	852.527
72.593	24.529	1045.979	852.711
73.607	24.314	1045.191	850.966
74.622	24.265	1043.999	849.689
75.636	24.537	1043.707	850.668
76.651	24.778	1042.348	850.633
77.666	24.600	1041.604	849.104
78.680	24.526	1040.697	847.940
79.695	24.571	1040.269	847.729
80.709	24.633	1039.780	847.547
81.724	24.798	1038.809	847.465
82.739	24.758	1038.210	846.709
83.753	24.737	1037.214	845.725
84.768	25.037	1036.784	846.718
85.782	25.390	1035.651	847.383
86.797	25.482	1035.564	847.669
87.812	25.528	1034.542	846.978
88.826	25.290	1033.806	845.177
89.841	25.213	1033.237	844.275
90.855	25.454	1032.336	844.597
91.870	25.394	1031.789	843.793
92.884	25.369	1030.645	842.665
93.899	25.325	1029.821	841.710
94.914	25.243	1028.720	840.356
95.928	25.304	1027.888	839.885
96.943	25.382	1027.053	839.493
97.957	25.065	1025.772	836.891
98.972	24.855	1024.604	834.883
99.987	24.678	1023.690	833.240
101.001	24.734	1023.390	833.185
102.016	25.033	1022.883	834.089
103.030	25.185	1021.688	833.747
104.045	25.116	1020.523	832.403
105.060	25.032	1019.515	831.116
106.074	24.722	1018.333	828.644
107.089	24.826	1017.462	828.342
108.103	25.059	1017.072	829.033
109.118	25.199	1016.235	828.922
110.133	25.020	1015.050	827.054
111.147	24.797	1014.400	825.425
112.162	24.712	1013.244	824.021
113.176	24.556	1011.835	822.081
114.191	24.747	1011.191	822.365
115.206	24.784	1010.814	822.158
116.220	24.554	1009.145	819.671
117.235	24.235	1008.658	817.740
118.249	24.437	1008.398	818.384
119.264	24.652	1007.477	818.547
120.279	24.504	1006.137	816.707
121.293	24.490	1005.122	815.750
122.308	24.563	1004.615	815.597
123.322	24.556	1003.949	814.956
124.337	24.608	1002.479	813.927
125.352	24.515	1001.036	812.261
126.366	24.088	999.847	809.280
127.381	23.753	998.104	806.277
128.395	24.157	998.598	808.440
129.410	24.751	998.184	810.726
130.424	25.078	997.324	811.440
131.439	25.191	996.465	811.176
132.454	25.069	995.421	809.705
133.468	25.120	994.526	809.137
134.483	24.991	993.881	807.957
135.497	24.991	993.436	807.526
136.512	25.261	992.932	808.259
137.527	25.370	992.136	808.029
138.541	25.333	991.045	806.903
139.556	25.315	990.692	806.466
140.570	25.194	989.757	805.088
141.585	25.285	988.613	804.494
142.600	25.434	988.498	804.999
143.614	25.326	987.268	803.440
144.629	25.381	986.594	803.070
145.643	25.662	985.982	803.754
146.658	25.475	985.041	802.082
147.673	25.328	983.377	800.001
148.687	25.328	982.570	799.275
149.702	25.153	981.660	797.683
150.716	25.131	980.253	796.375
151.731	25.005	979.400	795.050
152.746	25.041	978.719	794.588
153.760	25.124	978.384	794.613
154.775	25.462	977.232	795.104
155.789	25.467	976.407	794.385
156.804	25.516	975.289	793.620
157.819	25.295	974.728	792.119
158.833	25.439	973.819	791.943
159.848	25.609	972.756	791.757
160.862	25.595	972.462	791.384
161.877	25.469	971.639	790.094
162.892	25.380	970.252	788.504
163.906	25.361	969.974	788.125
164.921	25.311	968.863	786.932
165.935	25.464	967.470	786.403
166.950	25.566	966.351	785.869
167.964	25.501	965.957	785.195
168.979	25.357	964.980	783.705
169.994	25.225	964.081	782.329
171.008	25.121	962.767	780.739
172.023	25.430	962.199	781.556
173.037	25.491	961.580	781.248
174.052	25.385	960.418	779.775
175.067	25.276	959.083	778.150
176.081	25.185	958.570	777.271
177.096	25.180	957.850	776.594
178.110	25.228	956.805	775.888
179.125	25.153	955.804	774.684
180.140	24.769	954.706	772.067
181.154	24.764	954.279	771.631
182.169	24.922	953.850	771.896
183.183	25.218	953.343	772.693
184.198	25.388	953.321	773.343
185.213	25.258	952.389	771.958
186.227	25.172	952.134	771.312
187.242	25.255	951.235	770.870
188.256	25.525	950.229	771.146
189.271	25.464	949.063	769.870
190.286	25.551	948.864	770.016
191.300	25.384	947.736	768.316
192.315	24.898	946.085	764.833
193.329	24.063	944.737	760.113
194.344	23.704	943.492	757.513
195.359	24.240	943.909	760.070
196.373	25.004	944.759	763.945
197.388	25.372	944.038	764.863
198.402	25.298	943.403	763.966
199.417	25.302	942.987	763.575
200.432	25.378	943.004	763.848
201.446	25.197	942.252	762.402
202.461	24.869	941.194	760.085
203.475	25.003	940.524	760.044
204.490	24.511	939.347	756.942
205.504	23.369	937.078	750.212
206.519	23.835	936.448	751.612
207.534	24.656	937.292	755.698
208.548	24.795	936.874	755.882
209.563	25.238	936.487	757.372
210.577	25.184	935.857	756.569
211.592	24.921	934.800	754.537
212.607	25.282	934.833	756.019
213.621	25.510	934.622	756.739
214.636	25.533	933.309	755.708
215.650	25.398	933.211	754.993
216.665	25.396	932.602	754.426
217.680	25.422	932.001	753.980
218.694	25.635	931.448	754.362
219.709	25.409	930.089	752.247
220.723	24.935	929.178	749.461
221.738	25.110	929.164	750.118
222.753	25.241	928.512	750.072
223.767	25.171	927.644	749.010
224.782	25.291	927.312	749.176
225.796	25.511	926.971	749.752
226.811	25.676	926.080	749.654
227.826	25.202	925.132	746.847
228.840	24.471	923.054	742.067
229.855	24.187	923.239	740.969
230.869	24.562	922.483	741.854
231.884	24.261	921.720	739.924
232.899	24.253	920.813	739.098
233.913	25.001	921.247	742.484
234.928	25.331	920.434	743.127
235.942	24.962	920.496	741.587
236.957	25.170	919.030	741.199
237.972	24.890	917.990	739.138
238.986	24.831	917.796	738.674
240.001	24.848	917.085	738.103
241.015	24.913	916.442	737.788
242.030	24.960	915.738	737.352
243.045	25.223	915.225	737.954
244.059	25.154	914.823	737.281
245.074	25.512	914.641	738.543
246.088	25.463	913.680	737.500
247.103	25.093	912.636	735.074
248.117	25.135	911.814	734.519
249.132	25.473	912.344	736.266
250.147	25.812	912.368	737.610
251.161	26.070	911.081	737.557
252.176	26.206	911.016	737.995
253.190	26.227	910.367	737.491
254.205	26.174	910.273	737.132
255.220	26.235	909.853	736.974
256.234	26.325	908.890	736.498
257.249	26.176	908.276	735.328
258.263	26.140	907.480	734.471
259.278	25.976	907.264	733.564
260.293	26.119	906.966	733.841
261.307	26.339	906.226	734.070
262.322	26.171	905.452	732.699
263.336	26.037	904.962	731.691
264.351	25.643	903.131	728.554
265.366	24.504	901.592	722.640
266.380	24.111	900.358	719.999
267.395	24.839	900.953	723.352
268.409	25.813	900.656	726.983
269.424	25.750	900.192	726.291
270.439	25.768	899.736	725.933
271.453	25.981	899.101	726.212
272.468	25.942	898.350	725.386
273.482	26.175	897.888	725.883
274.497	26.117	897.848	725.554
275.512	25.994	896.903	724.232
276.526	25.521	895.141	720.852
277.541	25.708	894.589	721.092
278.555	26.024	894.495	722.217
279.570	25.898	893.618	720.941
280.585	25.690	893.050	719.588
281.599	25.738	892.749	719.472
282.614	25.960	891.966	719.664
283.628	25.505	890.735	716.795
284.643	25.077	890.090	714.505
285.657	25.562	889.975	716.284
286.672	25.490	889.026	715.169
287.687	24.924	888.431	712.378
288.701	25.124	888.414	713.097
289.716	25.674	888.075	714.943
290.730	25.370	887.081	712.875
291.745	25.171	886.342	711.428
292.760	25.127	885.061	710.164
293.774	24.972	884.722	709.215
294.789	25.852	885.314	713.113
295.803	26.450	885.708	715.735
296.818	26.591	884.684	715.399
297.833	26.664	884.539	715.505
298.847	26.454	883.140	713.485
299.862	25.993	882.319	710.940
300.876	26.087	881.962	710.962
301.891	26.487	881.273	711.918
302.906	26.503	880.845	711.569
303.920	26.169	879.959	709.478
304.935	26.031	879.322	708.362
305.949	26.465	878.658	709.464
306.964	26.312	878.705	708.841
307.979	26.342	877.545	707.959
308.993	26.096	877.405	706.820
310.008	26.525	876.907	708.036
311.022	26.642	876.141	707.812
312.037	26.459	875.950	706.879
313.052	26.276	875.388	705.648
314.066	26.207	874.263	704.411
315.081	25.563	872.784	700.649
316.095	24.743	871.858	696.650
317.110	25.336	871.617	698.705
318.125	26.114	872.258	702.185
319.139	25.747	870.983	699.671
320.154	24.517	869.207	693.410
321.168	24.116	868.296	691.066
322.183	24.671	868.454	693.283
323.197	25.631	868.778	697.204
324.212	25.909	868.678	698.138
325.227	26.127	868.583	698.845
326.241	26.359	867.831	699.075
327.256	26.190	866.945	697.648
328.270	26.045	866.210	696.434
329.285	25.878	866.077	695.619
330.300	25.798	865.300	694.624
331.314	25.631	864.517	693.294
332.329	25.693	863.847	692.931
333.343	26.028	863.613	693.973
334.358	26.223	863.481	694.553
335.373	26.274	862.666	694.035
336.387	26.465	862.118	694.266
337.402	26.637	861.594	694.440
338.416	26.738	861.339	694.561
339.431	26.771	860.853	694.235
340.446	26.673	860.533	693.538
341.460	26.965	859.893	694.078
342.475	26.999	859.129	693.532
343.489	26.683	858.370	691.649
344.504	26.671	857.905	691.168
345.519	26.897	857.725	691.825
346.533	27.328	856.681	692.561
347.548	27.215	856.730	692.109
348.562	27.274	856.498	692.086
349.577	27.292	855.752	691.489
350.592	27.073	854.956	689.957
351.606	26.925	854.952	689.329
352.621	27.178	854.245	689.659
353.635	27.118	853.240	688.559
354.650	27.105	852.871	688.150
355.665	26.596	851.980	685.442
356.679	25.667	850.186	680.427
357.694	25.350	849.834	678.888
358.708	26.144	849.662	681.690
359.723	26.070	849.115	680.911
360.738	26.378	848.974	681.899
361.752	26.810	848.839	683.360
362.767	26.849	848.418	683.108
363.781	27.039	848.216	683.600
364.796	27.369	848.387	684.918
365.810	27.468	847.857	684.805
366.825	27.571	847.541	684.874
367.840	27.429	847.412	684.176
368.854	27.411	846.541	683.343
369.869	26.970	845.354	680.672
370.883	26.849	844.627	679.573
371.898	26.895	844.358	679.468
372.913	26.841	843.527	678.538
373.927	26.956	842.666	678.215
374.942	26.970	842.146	677.790
375.956	26.951	841.599	677.217
376.971	27.177	841.131	677.625
377.986	27.348	840.463	677.662
379.000	27.426	840.662	678.053
380.015	27.447	839.894	677.453
381.029	27.399	839.369	676.790
382.044	27.276	838.973	675.955
383.059	27.398	838.092	675.639
384.073	27.411	837.521	675.167
385.088	27.510	837.015	675.065
386.102	27.577	836.427	674.780
387.117	27.456	835.524	673.543
388.132	27.071	835.271	671.856
389.146	27.043	834.400	670.991
390.161	26.517	833.367	668.162
391.175	26.644	833.128	668.380
392.190	27.198	832.825	670.120
393.205	27.265	832.431	669.992
394.219	26.135	831.173	664.759
395.234	24.650	828.283	656.937
396.248	23.719	827.426	652.778
397.263	24.694	828.443	657.108
398.278	26.425	830.137	664.762
399.292	27.148	829.291	666.681
400.307	26.801	828.474	664.691
401.321	26.875	828.090	664.596
402.336	26.764	828.131	664.162
403.350	27.078	827.973	665.127
404.365	27.421	828.317	666.601
405.380	27.897	827.737	667.818
406.394	28.166	827.747	668.748
407.409	28.191	827.556	668.627
408.423	28.229	826.427	667.795
409.438	28.125	825.956	666.973
410.453	28.110	825.568	666.548
411.467	28.184	825.570	666.760
412.482	28.113	824.598	665.660
413.496	28.126	824.028	665.185
414.511	28.267	823.845	665.493
415.526	28.437	823.256	665.574
416.540	28.089	823.131	664.152
417.555	28.093	822.794	663.835
418.569	27.898	821.924	662.369
419.584	27.790	820.969	661.148
420.599	27.908	820.631	661.247
421.613	97.427	1270.328	1394.371
422.628	84.052	1335.870	1394.480
