DTS Sentinel unit serial number:	SN413079Multiplexer serial number:	ORYXHardware model number:	OX4-SRSoftware version number:	ORYX F/W v4.00 Oryx Data Collector v3.7.2.0data status	okinstallation	princeton_trtdifferential loss correction	single-endedforward channel	channel 3reverse channel	N/Adate	2019/09/18time	12:16:35forward acquisition time	60.00reverse acquisition time	0.00gamma	496.2192k internal	0.2323k external	0.2323temperature offset calibration	0.9956default loss term (dB/km)	0.3790temperature slope calibration	1.0000multiplexer offset coefficient	1.0000multiplexer slope coefficient	1.0000fibre end	0.00T internal ref (°C)	31.80T ext. ref 1 (°C)	0.51T ext. ref 2 (°C)	28.10length (m)	temperature (°C)	Stokes	anti-Stokes-747.200	-200.000	-0.024	-0.434
-746.185	800.000	-0.081	0.264
-745.171	-141.766	-0.155	-0.016
-744.156	-200.000	0.020	0.411
-743.142	550.189	-0.150	-0.364
-742.127	382.478	-0.259	0.537
-741.112	-200.000	-0.009	-0.107
-740.098	800.000	-0.065	0.221
-739.083	800.000	-0.074	0.244
-738.069	71.904	-0.155	0.163
-737.054	-200.000	0.156	0.000
-736.039	-89.555	-0.157	-0.046
-735.025	129.861	-0.058	0.075
-734.010	-9.922	0.148	-0.099
-732.996	-200.000	-0.027	0.160
-731.981	38.533	-0.204	0.184
-730.966	-76.546	0.189	-0.067
-729.952	326.270	-0.151	-0.292
-728.937	-200.000	0.005	-0.076
-727.923	-200.000	0.000	-0.058
-726.908	-21.421	-0.064	0.040
-725.894	800.000	-0.045	-0.191
-724.879	-71.601	-0.096	0.036
-723.864	-27.368	-0.171	0.101
-722.850	516.219	0.192	-0.452
-721.835	-97.454	-0.312	0.082
-720.821	-14.381	-0.146	-0.095
-719.806	85.865	-0.074	-0.082
-718.791	800.000	-0.066	-0.225
-717.777	-84.970	0.315	0.100
-716.762	-77.519	0.089	0.031
-715.748	-200.000	-0.014	-0.066
-714.733	73.579	0.037	0.039
-713.718	-94.048	0.234	0.065
-712.704	-200.000	-0.020	-0.120
-711.689	90.825	0.157	-0.177
-710.675	-157.887	-0.366	0.022
-709.660	-60.559	0.263	-0.113
-708.645	574.600	0.060	-0.147
-707.631	149.499	0.046	0.062
-706.616	-57.411	0.084	-0.037
-705.602	17.499	-0.213	-0.171
-704.587	-200.000	0.018	-0.535
-703.572	300.836	-0.124	0.231
-702.558	100.796	-0.281	-0.329
-701.543	-200.000	0.039	0.208
-700.529	-90.967	-0.547	-0.159
-699.514	318.015	0.063	0.120
-698.499	-4.739	-0.146	-0.101
-697.485	-200.000	-0.005	-0.328
-696.470	-0.311	-0.257	-0.184
-695.456	5.659	-0.182	-0.136
-694.441	291.215	-0.066	0.122
-693.426	418.921	-0.062	-0.134
-692.412	298.727	0.134	-0.249
-691.397	45.310	0.019	-0.017
-690.383	-200.000	-0.042	0.290
-689.368	-200.000	-0.004	-0.071
-688.354	285.128	0.032	0.058
-687.339	-200.000	0.005	-0.122
-686.324	-61.236	0.265	-0.112
-685.310	220.773	0.228	0.368
-684.295	-138.803	-0.117	-0.013
-683.281	3.365	0.324	-0.238
-682.266	96.091	-0.153	-0.177
-681.251	-5.516	0.092	-0.063
-680.237	-181.946	0.346	-0.007
-679.222	13.010	0.082	0.064
-678.208	43.469	-0.241	0.222
-677.193	-200.000	0.015	0.094
-676.178	474.808	0.068	0.156
-675.164	322.309	0.120	-0.230
-674.149	-10.431	0.094	0.063
-673.135	305.399	-0.022	0.041
-672.120	-200.000	-0.002	0.087
-671.105	-144.834	-0.125	0.012
-670.091	0.166	-0.162	-0.117
-669.076	199.891	-0.271	-0.419
-668.062	133.400	0.108	-0.140
-667.047	66.979	0.175	0.179
-666.032	643.786	-0.085	0.218
-665.018	118.521	0.148	0.184
-664.003	-61.617	0.477	0.202
-662.989	-157.222	0.206	0.013
-661.974	-200.000	-0.012	-0.400
-660.959	-200.000	-0.004	-0.087
-659.945	-200.000	-0.033	0.226
-658.930	-106.297	0.141	0.032
-657.916	-99.339	-0.284	-0.072
-656.901	-55.794	-0.240	-0.108
-655.886	-133.025	0.466	0.060
-654.872	-200.000	0.006	-0.175
-653.857	95.728	-0.188	0.216
-652.843	-29.180	-0.263	-0.152
-651.828	100.391	0.091	-0.107
-650.814	-143.910	0.093	-0.009
-649.799	-200.000	0.006	-0.365
-648.784	265.556	-0.111	-0.194
-647.770	55.691	-0.310	-0.303
-646.755	800.000	-0.057	0.189
-645.741	169.717	-0.046	0.065
-644.726	-53.832	-0.215	-0.099
-643.711	-38.921	-0.053	-0.028
-642.697	710.148	-0.027	0.071
-641.682	-139.758	0.219	-0.023
-640.668	-200.000	0.007	0.198
-639.653	-200.000	0.088	0.415
-638.638	-111.507	-0.136	0.028
-637.624	-200.000	0.042	-0.236
-636.609	-200.000	0.035	0.159
-635.595	-47.956	-0.196	0.095
-634.580	-200.000	0.003	0.177
-633.565	-93.011	0.136	0.038
-632.551	-200.000	0.030	0.239
-631.536	800.000	0.097	0.296
-630.522	456.020	0.039	-0.087
-629.507	-2.495	-0.038	-0.027
-628.492	-45.305	-0.174	-0.087
-627.478	15.393	0.136	0.107
-626.463	167.464	-0.103	0.147
-625.449	-95.656	0.116	-0.031
-624.434	29.574	-0.203	-0.174
-623.419	417.794	0.057	0.123
-622.405	31.347	-0.111	-0.096
-621.390	4.440	0.233	-0.172
-620.376	800.000	-0.037	-0.128
-619.361	-200.000	-0.070	0.372
-618.346	28.265	-0.296	-0.251
-617.332	-200.000	-0.029	0.418
-616.317	7.888	-0.253	-0.191
-615.303	715.595	-0.033	0.087
-614.288	-21.363	0.215	-0.132
-613.273	-34.671	-0.246	-0.135
-612.259	214.302	-0.071	0.113
-611.244	-200.000	0.021	-0.210
-610.230	519.613	0.194	0.457
-609.215	350.567	0.123	0.245
-608.201	-34.541	-0.276	-0.152
-607.186	-91.696	-0.352	-0.101
-606.171	88.104	-0.081	-0.090
-605.157	-60.415	0.260	0.111
-604.142	-10.788	0.042	-0.028
-603.128	-200.000	0.013	0.360
-602.113	-37.956	0.089	-0.048
-601.098	749.153	0.134	0.364
-600.084	-10.881	0.054	0.036
-599.069	-94.700	-0.096	0.026
-598.055	-200.000	-0.004	0.021
-597.040	-98.400	-0.316	0.081
-596.025	-135.167	0.095	0.012
-595.011	407.523	-0.055	0.117
-593.996	82.076	0.283	0.308
-592.982	46.111	0.185	-0.172
-591.967	-200.000	-0.005	0.143
-590.952	-200.000	-0.004	-0.164
-589.938	151.130	-0.243	-0.333
-588.923	116.505	0.123	-0.151
-587.909	15.930	-0.218	-0.173
-586.894	-200.000	-0.005	-0.242
-585.879	-200.000	-0.001	-0.074
-584.865	-23.474	-0.372	0.224
-583.850	-28.229	0.166	0.096
-582.836	800.000	-0.033	0.102
-581.821	-95.617	0.076	-0.020
-580.806	-9.346	0.104	0.070
-579.792	800.000	0.070	-0.276
-578.777	-170.746	-0.413	0.014
-577.763	79.952	-0.324	-0.349
-576.748	-11.128	0.081	-0.054
-575.733	800.000	-0.072	0.241
-574.719	-200.000	-0.017	-0.135
-573.704	-200.000	-0.008	0.232
-572.690	-138.074	0.128	0.014
-571.675	49.792	0.158	-0.149
-570.661	14.627	0.193	0.152
-569.646	-200.000	0.033	-0.207
-568.631	305.128	0.167	-0.311
-567.617	-3.719	0.437	-0.305
-566.602	430.714	0.083	-0.181
-565.588	521.972	0.050	0.118
-564.573	331.432	0.118	-0.229
-563.558	120.840	0.179	-0.223
-562.544	65.117	-0.173	-0.175
-561.529	800.000	0.037	-0.126
-560.515	2.605	0.225	0.163
-559.500	171.014	0.058	-0.083
-558.485	-14.011	-0.149	0.097
-557.471	81.734	0.222	0.240
-556.456	-15.107	0.114	0.073
-555.442	-200.000	-0.021	0.348
-554.427	-200.000	-0.007	0.323
-553.412	-129.923	-0.201	0.028
-552.398	-76.719	-0.433	-0.152
-551.383	462.552	0.081	0.182
-550.369	261.354	-0.111	0.193
-549.354	42.158	0.016	-0.015
-548.339	303.873	0.054	-0.100
-547.325	800.000	-0.033	-0.101
-546.310	143.309	-0.024	-0.032
-545.296	-32.260	-0.056	-0.031
-544.281	-30.148	-0.208	0.118
-543.266	-200.000	-0.004	-0.062
-542.252	95.650	-0.163	0.186
-541.237	-200.000	0.023	0.210
-540.223	53.178	0.161	0.155
-539.208	73.442	-0.223	-0.234
-538.193	800.000	-0.096	-0.273
-537.179	-109.127	0.137	-0.029
-536.164	-200.000	-0.012	0.084
-535.150	-38.959	-0.230	0.121
-534.135	-46.753	-0.499	-0.244
-533.121	-129.779	0.242	-0.033
-532.106	557.380	0.141	-0.342
-531.091	-86.952	-0.099	0.030
-530.077	549.304	0.066	-0.158
-529.062	-75.702	0.169	-0.060
-528.048	28.669	-0.311	-0.264
-527.033	-45.418	-0.100	0.050
-526.018	420.089	0.096	-0.205
-525.004	39.141	0.153	-0.137
-523.989	-200.000	0.000	0.171
-522.975	-42.247	-0.140	-0.072
-521.960	800.000	0.016	0.061
-520.945	108.774	-0.060	0.072
-519.931	-28.459	0.069	-0.040
-518.916	-200.000	-0.024	0.278
-517.902	800.000	-0.046	0.199
-516.887	80.960	0.163	0.177
-515.872	122.873	0.284	0.356
-514.858	196.997	-0.079	-0.120
-513.843	-200.000	-0.003	0.357
-512.829	-126.440	-0.241	-0.036
-511.814	-200.000	0.004	0.246
-510.799	-84.665	-0.123	0.039
-509.785	93.419	0.192	-0.217
-508.770	410.027	0.060	0.128
-507.756	696.598	-0.074	0.194
-506.741	83.785	-0.284	0.310
-505.726	-102.283	-0.182	0.044
-504.712	-200.000	0.033	0.185
-503.697	-83.054	-0.152	-0.049
-502.683	113.599	0.181	0.220
-501.668	-11.516	-0.136	0.089
-500.653	43.153	0.187	0.171
-499.639	-200.000	-0.034	0.344
-498.624	-88.898	0.142	0.042
-497.610	-200.000	0.013	-0.130
-496.595	-12.159	-0.120	0.078
-495.581	-12.007	-0.224	-0.147
-494.566	-45.435	-0.200	-0.099
-493.551	-121.987	-0.113	0.019
-492.537	-104.245	0.312	0.072
-491.522	-29.670	-0.383	0.219
-490.508	408.900	-0.063	0.134
-489.493	-108.864	-0.064	-0.014
-488.478	-200.000	0.012	0.293
-487.464	-4.671	-0.114	-0.079
-486.449	17.275	-0.062	-0.049
-485.435	-32.980	0.227	0.126
-484.420	-75.138	0.317	0.113
-483.405	-98.572	-0.103	-0.026
-482.391	-24.412	0.111	0.066
-481.376	55.344	-0.057	0.055
-480.362	-200.000	0.011	-0.073
-479.347	3.251	0.332	-0.241
-478.332	800.000	0.039	0.133
-477.318	-150.576	0.496	-0.038
-476.303	475.604	0.129	-0.290
-475.289	364.673	-0.239	-0.482
-474.274	800.000	-0.053	-0.214
-473.259	-200.000	-0.029	0.192
-472.245	800.000	-0.074	0.286
-471.230	-200.000	0.088	0.436
-470.216	-92.277	-0.225	-0.063
-469.201	-200.000	0.043	-0.196
-468.186	622.084	0.104	0.262
-467.172	147.965	-0.175	0.236
-466.157	-41.320	-0.262	0.135
-465.143	-43.995	-0.050	-0.025
-464.128	497.855	0.043	-0.099
-463.113	4.535	0.269	0.198
-462.099	-112.216	0.162	-0.032
-461.084	-170.366	0.257	-0.009
-460.070	453.069	0.100	-0.220
-459.055	297.064	-0.075	0.138
-458.040	-64.324	-0.262	-0.107
-457.026	-84.039	0.177	-0.056
-456.011	-113.067	0.191	0.038
-454.997	800.000	0.044	-0.147
-453.982	-154.405	-0.209	0.014
-452.968	-8.727	-0.078	-0.052
-451.953	100.516	-0.025	0.029
-450.938	-200.000	0.029	-0.379
-449.924	96.974	-0.124	0.142
-448.909	282.463	0.100	0.179
-447.895	-200.000	0.006	-0.042
-446.880	-200.000	0.014	0.314
-445.865	170.771	0.019	0.028
-444.851	-200.000	0.054	0.314
-443.836	-14.193	0.084	-0.054
-442.822	-146.697	-0.347	0.030
-441.807	268.065	0.067	-0.117
-440.792	-98.598	0.174	-0.044
-439.778	477.491	-0.129	0.291
-438.763	-11.493	0.040	0.026
-437.749	153.379	-0.190	0.259
-436.734	-20.169	0.119	0.073
-435.719	-84.415	-0.207	0.065
-434.705	-20.633	-0.208	0.128
-433.690	-19.575	0.178	0.110
-432.676	125.430	0.210	0.264
-431.661	264.096	0.143	0.248
-430.646	13.773	0.097	-0.075
-429.632	800.000	-0.033	-0.100
-428.617	296.195	0.261	-0.477
-427.603	-35.649	-0.089	0.048
-426.588	-32.395	0.111	0.062
-425.573	-200.000	0.004	0.383
-424.559	-171.663	0.265	-0.009
-423.544	81.748	0.160	-0.173
-422.530	-87.221	0.057	-0.017
-421.515	-114.449	0.183	-0.035
-420.500	130.660	-0.149	0.190
-419.486	-200.000	0.040	0.368
-418.471	-200.000	-0.010	0.055
-417.457	-200.000	-0.030	0.304
-416.442	169.882	0.093	-0.132
-415.428	-84.521	0.163	0.051
-414.413	223.590	0.062	-0.100
-413.398	800.000	0.038	-0.140
-412.384	-91.204	-0.144	-0.041
-411.369	736.459	-0.030	-0.080
-410.355	65.837	0.157	0.159
-409.340	80.047	-0.092	0.099
-408.325	-200.000	0.005	0.132
-407.311	-30.195	0.192	-0.109
-406.296	126.269	-0.351	-0.443
-405.282	480.140	-0.145	-0.327
-404.267	54.996	0.007	0.007
-403.252	-92.087	0.085	-0.024
-402.238	-25.350	0.039	-0.023
-401.223	-200.000	0.020	0.096
-400.209	-144.326	-0.276	-0.026
-399.194	39.718	0.062	0.056
-398.179	-16.587	-0.177	0.112
-397.165	-35.001	-0.528	0.287
-396.150	-153.044	-0.285	-0.020
-395.136	-115.005	0.155	-0.029
-394.121	-131.186	0.387	-0.051
-393.106	140.180	-0.142	-0.187
-392.092	102.888	-0.154	-0.179
-391.077	-53.831	0.114	-0.052
-390.063	-200.000	0.013	-0.144
-389.048	-97.115	-0.180	-0.047
-388.033	14.095	-0.444	0.344
-387.019	-200.000	0.035	-0.185
-386.004	37.892	0.347	0.308
-384.990	-78.796	0.146	0.049
-383.975	115.002	0.165	-0.201
-382.960	160.648	0.200	-0.279
-381.946	-48.611	0.027	-0.013
-380.931	-114.408	0.302	-0.058
-379.917	-199.076	-0.230	0.001
-378.902	21.682	-0.132	-0.107
-377.888	-200.000	0.038	-0.192
-376.873	-107.206	-0.120	0.026
-375.858	-88.495	-0.095	0.028
-374.844	-200.000	-0.020	0.177
-373.829	-140.126	0.236	-0.025
-372.815	-200.000	0.007	0.139
-371.800	618.146	-0.062	-0.156
-370.785	-1.937	-0.243	-0.170
-369.771	-168.726	-0.137	-0.005
-368.756	279.975	0.062	0.110
-367.742	-55.056	0.219	-0.098
-366.727	14.039	0.286	0.221
-365.712	121.365	0.224	0.277
-364.698	-49.053	-0.099	0.047
-363.683	124.186	-0.290	0.363
-362.669	93.556	0.193	-0.218
-361.654	-200.000	-0.038	0.177
-360.639	-10.936	-0.092	0.060
-359.625	-123.667	0.160	-0.025
-358.610	-141.944	0.424	0.042
-357.596	800.000	-0.055	-0.173
-356.581	47.435	-0.203	-0.188
-355.566	-71.370	0.234	-0.087
-354.552	213.824	0.124	0.195
-353.537	-53.091	-0.160	-0.073
-352.523	-155.019	-0.369	-0.024
-351.508	61.253	-0.084	0.083
-350.493	-83.446	-0.124	-0.039
-349.479	-200.000	0.006	0.058
-348.464	800.000	-0.060	-0.178
-347.450	130.272	0.034	0.044
-346.435	-165.078	-0.190	0.008
-345.420	-112.992	-0.198	-0.039
-344.406	-200.000	-0.036	-0.303
-343.391	186.834	-0.082	-0.121
-342.377	-115.289	-0.243	0.046
-341.362	290.140	-0.121	-0.219
-340.348	-89.948	-0.444	0.129
-339.333	10.025	-0.254	-0.192
-338.318	-200.000	-0.071	0.321
-337.304	-42.204	-0.153	0.078
-336.289	-200.000	0.057	0.250
-335.275	-200.000	0.015	-0.295
-334.260	311.702	-0.080	-0.150
-333.245	26.647	0.147	-0.122
-332.231	445.406	-0.078	0.170
-331.216	-200.000	0.030	0.290
-330.202	20.288	-0.163	0.131
-329.187	-200.000	0.018	-0.100
-328.172	323.440	-0.059	-0.111
-327.158	492.599	-0.130	0.296
-326.143	535.502	0.225	0.531
-325.129	-125.648	0.103	-0.016
-324.114	-22.924	0.096	0.058
-323.099	-200.000	0.018	0.320
-322.085	-31.464	-0.442	0.247
-321.070	340.845	0.024	0.047
-320.056	-200.000	0.009	0.180
-319.041	-138.055	-0.327	0.036
-318.026	378.251	0.278	-0.566
-317.012	169.741	-0.162	0.231
-315.997	-188.887	-0.128	-0.002
-314.983	122.891	-0.084	0.105
-313.968	289.496	0.030	0.054
-312.953	-200.000	0.018	0.089
-311.939	-200.000	0.018	-0.113
-310.924	-131.211	-0.181	-0.024
-309.910	-200.000	0.010	-0.080
-308.895	156.146	0.077	-0.106
-307.880	280.289	-0.059	-0.105
-306.866	25.340	0.044	-0.036
-305.851	-168.223	0.195	0.008
-304.837	65.492	0.078	-0.078
-303.822	127.415	-0.051	-0.064
-302.807	-101.318	-0.099	0.024
-301.793	-95.799	-0.167	0.044
-300.778	243.157	0.089	0.149
-299.764	148.845	-0.021	-0.029
-298.749	-23.994	0.244	0.145
-297.735	-100.662	-0.068	0.017
-296.720	-34.323	0.165	-0.090
-295.705	-200.000	-0.029	-0.133
-294.691	178.991	0.112	0.162
-293.676	-151.072	-0.315	0.024
-292.662	120.653	-0.062	-0.077
-291.647	800.000	0.131	0.379
-290.632	-66.933	0.298	0.117
-289.618	-177.814	-0.203	0.005
-288.603	78.558	-0.159	-0.168
-287.589	800.000	0.012	-0.046
-286.574	43.886	0.108	-0.098
-285.559	-83.302	0.363	-0.115
-284.545	-80.325	-0.080	-0.027
-283.530	-44.034	0.135	0.067
-282.516	110.168	0.167	-0.198
-281.501	279.450	0.115	-0.204
-280.486	-112.130	0.134	-0.027
-279.472	800.000	0.021	-0.065
-278.457	-200.000	-0.029	-0.197
-277.443	800.000	0.037	-0.135
-276.428	12.389	0.236	-0.180
-275.413	-53.395	0.105	-0.048
-274.399	-200.000	-0.005	-0.036
-273.384	-80.610	0.281	-0.093
-272.370	-29.232	0.117	0.067
-271.355	214.078	-0.063	0.099
-270.340	774.734	-0.079	-0.214
-269.326	800.000	0.081	-0.262
-268.311	120.258	0.079	0.097
-267.297	-7.609	-0.242	0.162
-266.282	-116.800	-0.102	-0.018
-265.267	-67.747	0.120	0.047
-264.253	-54.947	-0.155	0.069
-263.238	155.954	0.167	0.229
-262.224	153.158	-0.022	0.030
-261.209	-200.000	0.012	-0.192
-260.195	-200.000	-0.030	0.134
-259.180	-200.000	0.005	-0.173
-258.165	-143.071	0.323	-0.031
-257.151	-55.612	-0.188	0.083
-256.136	-160.702	0.097	0.005
-255.122	800.000	-0.083	-0.352
-254.107	194.920	-0.121	-0.182
-253.092	-200.000	-0.004	-0.135
-252.078	-81.949	0.143	0.046
-251.063	664.781	-0.024	-0.061
-250.049	-193.522	0.318	0.003
-249.034	-200.000	-0.053	-0.338
-248.019	-16.794	0.026	-0.016
-247.005	84.419	0.128	-0.139
-245.990	-27.970	0.095	-0.055
-244.976	-92.228	-0.157	-0.044
-243.961	-62.998	-0.126	-0.052
-242.946	148.034	0.229	-0.306
-241.932	173.677	0.086	0.123
-240.917	-143.408	-0.103	0.010
-239.903	-87.090	0.090	-0.027
-238.888	-200.000	-0.055	0.252
-237.873	297.101	-0.147	-0.268
-236.859	333.332	-0.071	0.136
-235.844	597.194	-0.115	-0.282
-234.830	-200.000	-0.015	0.385
-233.815	674.235	-0.066	-0.169
-232.800	74.360	0.116	0.120
-231.786	-68.510	0.159	0.061
-230.771	-200.000	0.032	-0.148
-229.757	-132.520	0.294	0.037
-228.742	175.633	0.117	-0.168
-227.727	83.386	0.268	-0.289
-226.713	30.801	0.205	-0.174
-225.698	47.505	0.246	0.227
-224.684	444.032	-0.188	0.408
-223.669	114.450	-0.087	0.105
-222.655	-139.411	0.184	-0.019
-221.640	248.098	0.032	0.054
-220.625	139.372	-0.164	-0.214
-219.611	800.000	-0.027	-0.095
-218.596	451.629	-0.079	0.172
-217.582	-103.623	0.168	0.039
-216.567	-96.905	0.249	0.065
-215.552	-200.000	0.001	-0.321
-214.538	133.505	-0.042	0.054
-213.523	-63.813	0.207	-0.084
-212.509	-130.324	0.309	-0.041
-211.494	-166.768	-0.329	-0.013
-210.479	653.642	-0.066	-0.169
-209.465	274.134	0.068	0.118
-208.450	-82.601	-0.297	-0.095
-207.436	497.291	-0.098	-0.223
-206.421	-82.713	0.128	0.041
-205.406	-115.727	-0.270	-0.050
-204.392	38.387	-0.177	-0.156
-203.377	-44.867	0.078	0.038
-202.363	157.400	-0.092	-0.126
-201.348	3.117	0.298	0.214
-200.333	-55.233	-0.092	-0.041
-199.319	-58.301	-0.180	-0.078
-198.304	-5.455	0.250	-0.169
-197.290	10.601	-0.144	0.108
-196.275	582.803	-0.084	-0.203
-195.260	-50.597	-0.203	0.095
-194.246	615.089	0.176	-0.436
-193.231	-84.872	0.061	0.019
-192.217	571.704	-0.024	-0.057
-191.202	303.498	0.158	-0.290
-190.187	540.978	0.103	0.242
-189.173	-200.000	0.085	-0.368
-188.158	-44.587	0.269	0.133
-187.144	-181.862	0.100	-0.002
-186.129	-200.000	-0.031	0.201
-185.114	36.508	-0.120	0.105
-184.100	-200.000	0.001	-0.139
-183.085	102.420	0.152	0.176
-182.071	-14.703	0.320	0.203
-181.056	-26.502	0.229	0.132
-180.042	-183.058	-0.174	0.003
-179.027	56.281	-0.232	0.222
-178.012	-165.351	0.115	0.005
-176.998	-90.551	-0.570	-0.163
-175.983	25.338	-0.074	-0.061
-174.969	499.227	-0.065	0.148
-173.954	-200.000	0.024	0.108
-172.939	81.198	-0.241	-0.257
-171.925	-39.639	0.075	0.039
-170.910	-92.913	-0.342	-0.094
-169.896	-51.997	-0.439	-0.202
-168.881	46.937	0.240	-0.221
-167.866	228.550	-0.026	-0.042
-166.852	-200.000	-0.003	-0.149
-165.837	577.160	0.051	-0.123
-164.823	26.857	-0.196	-0.163
-163.808	48.373	-0.083	-0.077
-162.793	-200.000	-0.013	-0.123
-161.779	-109.800	0.331	-0.069
-160.764	-22.826	0.287	0.171
-159.750	800.000	-0.071	0.297
-158.735	37.967	-0.135	0.119
-157.720	-13.065	0.415	-0.266
-156.706	-79.553	0.054	-0.018
-155.691	800.000	0.076	-0.248
-154.677	12.452	0.240	-0.183
-153.662	33.628	0.365	-0.314
-152.647	436.749	0.108	-0.231
-151.633	-200.000	0.033	-0.197
-150.618	177.611	0.266	-0.383
-149.604	-200.000	-0.065	-0.325
-148.589	-168.807	0.392	0.015
-147.574	800.000	0.107	0.406
-146.560	659.080	-0.125	0.318
-145.545	800.000	-0.067	0.204
-144.531	800.000	-0.077	0.248
-143.516	171.846	-0.147	0.208
-142.502	-62.540	-0.197	0.081
-141.487	7.057	-0.181	0.133
-140.472	230.246	-0.199	0.321
-139.458	-36.027	-0.101	0.054
-138.443	-64.187	0.157	0.063
-137.429	800.000	-0.036	0.139
-136.414	-90.867	-0.072	0.021
-135.399	800.000	-0.078	0.255
-134.385	800.000	-0.077	0.252
-133.370	-130.791	0.306	-0.041
-132.356	67.549	0.131	0.132
-131.341	619.441	0.077	0.191
-130.326	-18.149	-0.249	-0.154
-129.312	33.779	0.248	0.213
-128.297	-133.540	-0.227	-0.028
-127.283	-200.000	0.013	-0.080
-126.268	-90.010	0.035	0.010
-125.253	-77.283	0.199	0.068
-124.239	306.169	0.111	-0.204
-123.224	800.000	-0.065	0.241
-122.210	226.165	-0.161	0.258
-121.195	35.986	0.062	-0.054
-120.180	231.236	0.202	0.326
-119.166	-91.099	-0.330	-0.093
-118.151	-200.000	-0.005	-0.046
-117.137	-97.873	0.035	-0.009
-116.122	-133.322	0.220	0.027
-115.107	325.244	-0.046	0.087
-114.093	111.394	0.080	0.095
-113.078	-50.278	-0.057	-0.026
-112.064	-200.000	0.026	0.195
-111.049	-200.000	-0.015	-0.132
-110.034	77.253	-0.236	-0.247
-109.020	155.018	0.164	-0.223
-108.005	160.816	0.094	-0.129
-106.991	102.233	0.138	0.159
-105.976	82.643	0.098	0.105
-104.962	-164.214	0.313	0.014
-103.947	-200.000	0.019	-0.151
-102.932	-200.000	-0.081	0.387
-101.918	693.666	-0.060	0.154
-100.903	-74.796	-0.340	0.120
-99.889	25.840	-0.192	-0.157
-98.874	-200.000	-0.019	0.141
-97.859	-200.000	-0.012	-0.169
-96.845	800.000	0.067	0.216
-95.830	233.487	-0.006	0.010
-94.816	-17.785	0.290	0.179
-93.801	-137.832	0.075	-0.008
-92.786	168.746	-0.115	-0.162
-91.772	-38.739	0.158	0.082
-90.757	-115.531	-0.369	-0.068
-89.743	624.038	0.099	-0.246
-88.728	-197.887	-0.210	-0.001
-87.713	123.329	0.265	-0.327
-86.699	-54.153	-0.197	0.088
-85.684	-103.709	-0.177	-0.041
-84.670	154.800	-0.127	-0.172
-83.655	-151.039	0.147	-0.011
-82.640	-119.851	0.198	-0.034
-81.626	30.612	0.160	-0.135
-80.611	-200.000	0.021	-0.112
-79.597	21.020	0.114	-0.091
-78.582	197.915	-0.217	-0.326
-77.567	-15.609	0.148	0.093
-76.553	-71.240	-0.192	-0.071
-75.538	-200.000	0.055	0.427
-74.524	634.684	0.056	-0.140
-73.509	13.745	-0.038	-0.029
-72.494	-165.810	-0.362	-0.015
-71.480	140.672	-0.168	0.218
-70.465	160.625	0.070	-0.096
-69.451	-29.150	0.134	-0.075
-68.436	-57.787	0.446	-0.192
-67.422	-27.370	-0.069	-0.040
-66.407	67.980	-0.042	0.042
-65.392	38.485	-0.139	-0.122
-64.378	-78.131	-0.023	-0.008
-63.363	800.000	0.050	-0.184
-62.349	396.109	0.043	0.088
-61.334	169.673	-0.938	-1.319
-60.319	-106.830	0.591	-0.129
-59.305	402.184	-0.383	-0.791
-58.290	286.238	0.482	0.856
-57.276	109.790	0.975	1.150
-56.261	-200.000	94.488	574.644
-55.246	522.707	1404.070	3242.622
-54.232	154.774	2598.168	3510.232
-53.217	111.023	2208.370	2614.385
-52.203	42.843	1739.803	1558.638
-51.188	35.043	1548.538	1333.181
-50.173	32.608	1521.284	1292.979
-49.159	51.872	1569.134	1468.249
-48.144	53.424	1587.065	1495.784
-47.130	35.245	1547.701	1333.655
-46.115	32.029	1533.719	1299.337
-45.100	31.863	1529.785	1294.809
-44.086	31.951	1527.543	1293.466
-43.071	31.898	1525.490	1291.311
-42.057	31.815	1524.417	1289.779
-41.042	31.842	1522.466	1288.266
-40.027	31.805	1521.349	1287.015
-39.013	31.763	1519.727	1285.304
-37.998	31.762	1518.434	1284.150
-36.984	31.795	1517.270	1283.344
-35.969	31.800	1515.849	1282.122
-34.954	31.856	1514.688	1281.470
-33.940	31.814	1513.183	1279.860
-32.925	31.845	1511.325	1278.448
-31.911	31.956	1509.746	1277.818
-30.896	31.946	1508.678	1276.796
-29.881	31.836	1507.468	1274.973
-28.867	31.888	1506.133	1274.147
-27.852	31.837	1504.710	1272.548
-26.838	31.924	1503.143	1271.764
-25.823	31.837	1501.614	1269.830
-24.809	31.808	1500.459	1268.603
-23.794	31.890	1498.395	1267.361
-22.779	31.750	1497.718	1265.798
-21.765	31.825	1496.026	1264.821
-20.750	31.800	1495.306	1263.990
-19.736	31.857	1494.052	1263.269
-18.721	31.749	1492.832	1261.457
-17.706	31.766	1491.839	1260.685
-16.692	31.742	1490.784	1259.583
-15.677	31.672	1489.856	1258.279
-14.663	31.740	1488.709	1257.715
-13.648	31.722	1487.452	1256.483
-12.633	31.776	1486.491	1255.980
-11.619	31.767	1486.139	1255.571
-10.604	31.772	1485.314	1254.859
-9.590	31.711	1484.756	1253.931
-8.575	31.798	1483.178	1253.130
-7.560	31.754	1482.313	1252.057
-6.546	31.840	1481.188	1251.627
-5.531	31.726	1480.828	1250.515
-4.517	31.701	1479.318	1249.026
-3.502	31.717	1478.414	1248.318
-2.487	31.776	1477.182	1247.624
-1.473	31.632	1476.622	1246.139
-0.458	31.748	1475.184	1245.646
0.556	30.314	1465.308	1235.054
1.571	27.593	1439.882	1195.698
2.586	24.034	1378.132	1121.927
3.600	22.215	1294.360	1042.859
4.615	20.529	1248.677	996.304
5.629	17.528	1191.286	933.992
6.644	8.885	1103.532	821.021
7.659	1.751	1061.271	754.272
8.673	0.647	1055.061	744.355
9.688	0.499	1052.511	741.762
10.702	0.417	1051.071	740.278
11.717	0.468	1049.235	739.169
12.731	3.010	1052.468	753.863
13.746	11.330	1063.049	802.454
14.761	16.896	1069.910	835.054
15.775	17.305	1069.506	836.677
16.790	16.560	1068.067	831.814
17.804	15.709	1065.464	825.535
18.819	14.814	1063.890	819.854
19.834	14.334	1062.468	816.338
20.848	13.983	1061.804	814.032
21.863	13.738	1060.760	811.961
22.877	13.350	1060.336	809.665
23.892	13.240	1059.305	808.270
24.907	13.280	1058.351	807.668
25.921	13.104	1057.864	806.363
26.936	13.171	1057.004	805.964
27.950	13.319	1056.056	805.894
28.965	13.470	1055.083	805.811
29.980	13.428	1054.584	805.154
30.994	13.390	1053.677	804.205
32.009	13.465	1052.733	803.780
33.023	13.454	1052.324	803.342
34.038	13.478	1051.407	802.688
35.053	13.598	1050.298	802.350
36.067	13.456	1049.933	801.317
37.082	13.404	1048.783	800.112
38.096	13.376	1048.179	799.446
39.111	13.564	1047.303	799.615
40.126	13.518	1046.630	798.809
41.140	13.281	1045.715	796.897
42.155	13.245	1044.265	795.551
43.169	13.290	1043.427	795.059
44.184	13.306	1042.491	794.350
45.199	13.224	1041.284	792.968
46.213	13.214	1040.732	792.431
47.228	13.370	1039.645	792.281
48.242	13.310	1038.631	791.149
49.257	13.433	1037.662	790.927
50.271	13.294	1036.827	789.560
51.286	13.386	1035.903	789.224
52.301	13.278	1035.246	788.138
53.315	13.277	1034.688	787.637
54.330	13.420	1033.658	787.465
55.344	13.392	1032.391	786.297
56.359	13.265	1031.590	785.016
57.374	13.298	1030.940	784.608
58.388	13.286	1030.289	783.984
59.403	13.302	1029.422	783.331
60.417	13.180	1028.958	782.332
61.432	13.314	1027.606	781.870
62.447	13.219	1026.998	780.887
63.461	13.159	1026.278	779.989
64.476	13.258	1024.918	779.351
65.490	13.166	1024.132	778.251
66.505	13.152	1023.467	777.614
67.520	13.247	1022.761	777.456
68.534	13.273	1022.118	777.017
69.549	13.278	1021.174	776.255
70.563	13.211	1020.804	775.593
71.578	13.172	1020.124	774.825
72.593	13.251	1019.304	774.501
73.607	13.158	1017.921	772.950
74.622	13.170	1016.921	772.176
75.636	13.127	1016.188	771.351
76.651	13.053	1015.637	770.517
77.666	13.185	1014.873	770.486
78.680	13.088	1014.096	769.374
79.695	13.151	1013.252	768.961
80.709	13.266	1012.653	768.974
81.724	13.190	1012.138	768.159
82.739	13.189	1011.220	767.392
83.753	13.302	1010.648	767.412
84.768	13.231	1010.142	766.634
85.782	13.412	1008.923	766.480
86.797	13.367	1008.526	765.899
87.812	13.337	1007.665	765.039
88.826	13.234	1006.768	763.816
89.841	13.269	1005.810	763.183
90.855	13.358	1004.902	762.836
91.870	13.222	1004.713	761.997
92.884	13.322	1003.850	761.738
93.899	13.370	1003.130	761.343
94.914	13.461	1002.367	761.116
95.928	13.432	1001.299	760.104
96.943	13.429	1001.269	760.001
97.957	13.454	1000.081	759.148
98.972	13.362	999.060	757.881
99.987	13.482	998.392	757.857
101.001	13.613	997.501	757.714
102.016	13.548	996.647	756.700
103.030	13.302	995.717	754.804
104.045	13.436	994.857	754.696
105.060	13.431	993.959	753.929
106.074	13.386	992.613	752.637
107.089	13.318	992.209	751.953
108.103	13.401	990.920	751.285
109.118	13.372	990.039	750.419
110.133	13.291	989.236	749.376
111.147	13.333	988.697	749.094
112.162	13.357	987.502	748.231
113.176	13.221	986.895	747.092
114.191	13.457	985.355	746.921
115.206	13.353	985.001	746.121
116.220	13.255	984.334	745.106
117.235	13.302	983.504	744.626
118.249	13.396	982.921	744.540
119.264	13.388	981.627	743.458
120.279	13.228	981.051	742.236
121.293	13.383	980.000	742.071
122.308	13.378	979.048	741.264
123.322	13.293	978.781	740.613
124.337	13.440	977.446	740.197
125.352	13.152	976.483	738.113
126.366	13.224	975.449	737.587
127.381	13.369	974.313	737.310
128.395	13.331	973.653	736.575
129.410	13.424	972.025	735.694
130.424	13.305	971.532	734.725
131.439	13.408	970.488	734.331
132.454	13.306	969.515	733.074
133.468	13.409	968.950	733.040
134.483	13.349	968.564	732.417
135.497	13.478	967.365	732.018
136.512	13.312	967.105	731.021
137.527	13.369	966.049	730.412
138.541	13.291	965.573	729.641
139.556	13.314	965.217	729.409
140.570	13.405	963.522	728.465
141.585	13.392	963.252	728.140
142.600	13.401	962.512	727.556
143.614	13.508	961.322	727.061
144.629	13.509	960.970	726.732
145.643	13.571	959.872	726.112
146.658	13.512	959.225	725.298
147.673	13.496	958.051	724.278
148.687	13.551	957.046	723.695
149.702	13.470	956.362	722.758
150.716	13.627	955.168	722.477
151.731	13.548	954.914	721.877
152.746	13.400	954.408	720.784
153.760	13.446	953.338	720.114
154.775	13.480	952.597	719.638
155.789	13.422	952.015	718.884
156.804	13.517	951.090	718.531
157.819	13.597	950.400	718.294
158.833	13.509	949.944	717.505
159.848	13.702	948.846	717.449
160.862	13.679	948.069	716.699
161.877	13.735	947.306	716.300
162.892	13.548	947.013	715.206
163.906	13.436	946.336	714.151
164.921	13.575	944.792	713.518
165.935	13.566	943.980	712.804
166.950	13.533	943.386	712.151
167.964	13.616	941.848	711.282
168.979	13.645	940.876	710.613
169.994	13.691	939.972	710.062
171.008	13.640	939.495	709.420
172.023	13.767	938.445	709.110
173.037	13.709	937.474	708.066
174.052	13.685	937.130	707.640
175.067	13.799	936.266	707.409
176.081	13.691	935.772	706.513
177.096	13.648	934.886	705.602
178.110	13.630	933.954	704.756
179.125	13.704	933.304	704.519
180.140	13.649	932.511	703.624
181.154	13.627	932.091	703.153
182.169	13.624	931.491	702.624
183.183	13.820	930.477	702.627
184.198	13.814	929.713	701.964
185.213	13.794	929.343	701.536
186.227	13.945	928.318	701.339
187.242	13.804	928.134	700.542
188.256	13.882	927.603	700.410
189.271	13.922	926.456	699.651
190.286	13.810	925.764	698.592
191.300	13.904	924.870	698.252
192.315	13.772	924.074	697.033
193.329	13.776	923.285	696.393
194.344	13.749	923.038	696.033
195.359	13.813	922.184	695.598
196.373	13.879	921.790	695.516
197.388	13.793	921.168	694.622
198.402	13.907	920.629	694.630
199.417	13.899	920.525	694.458
200.432	13.969	920.041	694.325
201.446	14.029	919.303	693.959
202.461	14.070	918.905	693.768
203.475	14.102	918.524	693.553
204.490	14.086	917.415	692.587
205.504	14.103	916.858	692.176
206.519	14.074	915.743	691.151
207.534	14.105	915.245	690.842
208.548	14.075	914.394	690.013
209.563	14.070	913.547	689.294
210.577	14.067	912.750	688.619
211.592	14.174	912.402	688.736
212.607	14.159	911.949	688.275
213.621	14.189	911.537	688.027
214.636	14.151	910.938	687.357
215.650	14.232	910.204	687.076
216.665	14.315	909.214	686.609
217.680	14.294	909.238	686.478
218.694	14.255	908.619	685.790
219.709	14.423	907.795	685.801
220.723	14.367	907.053	684.948
221.738	14.364	906.364	684.355
222.753	14.339	905.229	683.337
223.767	14.354	904.961	683.135
224.782	14.295	904.159	682.228
225.796	14.523	903.296	682.448
226.811	14.435	903.096	681.878
227.826	14.486	902.085	681.262
228.840	14.441	901.686	680.714
229.855	14.401	901.125	680.068
230.869	14.329	900.459	679.210
231.884	14.327	900.058	678.843
232.899	14.367	898.987	678.135
233.913	14.393	897.802	677.288
234.928	14.344	897.390	676.717
235.942	14.419	896.811	676.526
236.957	14.375	896.033	675.703
237.972	14.463	895.243	675.403
238.986	14.463	894.711	674.943
240.001	14.481	894.043	674.450
241.015	14.412	893.717	673.866
242.030	14.448	892.830	673.284
243.045	14.592	891.793	673.022
244.059	14.560	891.797	672.835
245.074	14.482	891.000	671.862
246.088	14.609	890.187	671.700
247.103	14.656	889.585	671.374
248.117	14.724	888.921	671.088
249.132	14.735	888.362	670.651
250.147	14.888	887.787	670.773
251.161	14.885	886.793	669.951
252.176	14.832	886.131	669.179
253.190	14.855	885.645	668.844
254.205	14.839	885.168	668.359
255.220	14.844	884.908	668.125
256.234	14.922	884.140	667.797
257.249	14.941	883.218	667.119
258.263	14.942	883.098	666.973
259.278	15.044	882.034	666.514
260.293	14.957	881.703	665.858
261.307	15.040	881.187	665.740
262.322	15.035	880.464	665.117
263.336	14.970	879.824	664.315
264.351	15.146	878.943	664.289
265.366	15.023	878.716	663.573
266.380	15.099	877.661	663.019
267.395	15.158	877.080	662.753
268.409	14.977	876.421	661.480
269.424	15.028	876.159	661.428
270.439	15.102	875.154	660.900
271.453	15.157	874.491	660.559
272.468	15.102	873.912	659.848
273.482	15.187	873.146	659.544
274.497	15.197	872.523	659.057
275.512	15.110	872.240	658.441
276.526	15.101	871.053	657.450
277.541	15.103	870.719	657.148
278.555	15.106	870.150	656.673
279.570	15.315	869.309	656.800
280.585	15.270	868.958	656.299
281.599	15.364	868.337	656.139
282.614	15.414	867.144	655.378
283.628	15.435	866.906	655.218
284.643	15.275	866.254	654.046
285.657	15.380	866.006	654.211
286.672	15.499	865.160	653.978
287.687	15.421	864.806	653.346
288.701	15.465	864.295	653.074
289.716	15.367	863.820	652.278
290.730	15.530	862.861	652.127
291.745	15.434	862.751	651.615
292.760	15.294	861.918	650.385
293.774	15.538	861.425	650.902
294.789	15.522	860.826	650.328
295.803	15.586	859.954	649.859
296.818	15.576	859.368	649.321
297.833	15.608	858.545	648.765
298.847	15.475	858.046	647.817
299.862	15.396	857.551	647.083
300.876	15.495	856.824	646.855
301.891	15.515	856.176	646.386
302.906	15.609	855.578	646.240
303.920	15.711	854.724	645.930
304.935	15.647	854.202	645.233
305.949	15.743	853.566	645.064
306.964	15.678	853.132	644.431
307.979	15.814	852.140	644.143
308.993	15.770	852.203	643.965
310.008	15.747	851.569	643.342
311.022	15.698	851.021	642.683
312.037	15.835	850.033	642.403
313.052	15.784	849.945	642.086
314.066	15.691	849.369	641.238
315.081	15.903	848.215	641.117
316.095	15.826	847.967	640.582
317.110	15.752	847.317	639.754
318.125	15.907	846.662	639.789
319.139	15.766	846.471	639.052
320.154	15.719	845.999	638.461
321.168	15.806	845.357	638.250
322.183	15.898	844.556	637.938
323.197	15.872	844.250	637.554
324.212	16.037	843.468	637.529
325.227	15.857	843.256	636.632
326.241	15.820	842.762	636.064
327.256	15.715	842.262	635.232
328.270	16.002	841.269	635.510
329.285	15.854	841.136	634.794
330.300	15.988	840.303	634.615
331.314	16.058	839.716	634.380
332.329	15.903	839.220	633.365
333.343	16.111	838.217	633.335
334.358	16.038	837.838	632.718
335.373	16.090	837.244	632.409
336.387	16.169	836.604	632.166
337.402	16.172	835.977	631.647
338.416	16.004	836.027	630.999
339.431	16.203	835.165	631.037
340.446	16.220	834.441	630.496
341.460	16.136	834.380	630.082
342.475	16.274	833.445	629.834
343.489	16.125	833.108	628.968
344.504	16.339	832.384	629.162
345.519	16.221	832.225	628.547
346.533	16.355	831.549	628.481
347.548	16.337	830.970	627.923
348.562	16.269	830.464	627.229
349.577	16.244	829.943	626.687
350.592	16.229	829.360	626.136
351.606	16.351	828.806	626.115
352.621	16.273	828.174	625.295
353.635	16.360	828.003	625.432
354.650	16.443	827.629	625.401
355.665	16.415	826.920	624.707
356.679	16.240	826.733	623.863
357.694	16.383	826.287	623.998
358.708	16.417	825.554	623.515
359.723	16.396	824.902	622.889
360.738	16.428	824.576	622.709
361.752	16.421	824.054	622.234
362.767	16.505	823.696	622.217
363.781	16.533	823.146	621.850
364.796	16.513	822.737	621.409
365.810	16.584	822.229	621.233
366.825	16.595	822.050	621.083
367.840	16.617	821.918	621.010
368.854	16.590	821.464	620.512
369.869	16.659	820.519	619.996
370.883	16.686	820.163	619.771
371.898	16.725	819.161	619.103
372.913	16.697	818.802	618.673
373.927	16.918	817.954	618.784
374.942	16.853	817.528	618.169
375.956	16.922	816.633	617.690
376.971	16.828	816.379	617.103
377.986	16.859	815.860	616.768
379.000	16.984	815.209	616.674
380.015	16.893	814.776	615.961
381.029	16.848	814.542	615.569
382.044	16.867	813.666	614.918
383.059	16.975	813.178	614.887
384.073	17.148	812.754	615.142
385.088	16.875	812.169	613.653
386.102	16.976	811.297	613.309
387.117	16.837	811.149	612.638
388.132	16.886	810.697	612.421
389.146	16.962	810.293	612.334
390.161	16.841	810.006	611.628
391.175	17.015	809.446	611.777
392.190	17.049	808.996	611.507
393.205	17.039	808.599	611.114
394.219	17.063	808.162	610.817
395.234	17.045	807.686	610.337
396.248	16.854	807.214	609.243
397.263	16.978	806.899	609.396
398.278	17.014	806.517	609.183
399.292	16.813	806.257	608.212
400.307	17.042	805.354	608.298
401.321	17.063	805.137	608.155
402.336	17.004	804.715	607.570
403.350	17.173	804.339	607.838
404.365	17.093	803.842	607.122
405.380	17.099	803.467	606.806
406.394	17.323	802.704	606.977
407.409	17.181	802.130	605.982
408.423	17.231	801.863	605.907
409.438	17.333	801.451	605.903
410.453	17.230	801.015	605.155
411.467	17.323	800.820	605.284
412.482	17.337	800.129	604.756
413.496	17.393	799.698	604.579
414.511	17.339	799.555	604.225
415.526	17.475	799.019	604.247
416.540	17.542	798.401	603.967
417.555	17.723	797.660	603.993
418.569	17.707	797.412	603.694
419.584	17.495	797.150	602.693
420.599	17.524	796.591	602.320
421.613	108.083	1289.268	1462.210
422.628	92.893	1361.039	1462.310
