DTS Sentinel unit serial number:	SN413079Multiplexer serial number:	ORYXHardware model number:	OX4-SRSoftware version number:	ORYX F/W v4.00 Oryx Data Collector v3.7.2.0data status	okinstallation	princeton_trtdifferential loss correction	single-endedforward channel	channel 3reverse channel	N/Adate	2019/09/11time	03:22:11forward acquisition time	60.00reverse acquisition time	0.00gamma	496.2192k internal	0.2331k external	0.2331temperature offset calibration	0.9911default loss term (dB/km)	0.3790temperature slope calibration	1.0000multiplexer offset coefficient	1.0000multiplexer slope coefficient	1.0000fibre end	0.00T internal ref (°C)	29.41T ext. ref 1 (°C)	-0.31T ext. ref 2 (°C)	24.20length (m)	temperature (°C)	Stokes	anti-Stokes-747.200	-117.953	-0.044	0.008
-746.185	-200.000	0.098	0.503
-745.171	-200.000	0.050	0.342
-744.156	127.466	-0.139	0.178
-743.142	-200.000	-0.013	-0.491
-742.127	242.497	-0.250	0.421
-741.112	4.492	0.205	-0.152
-740.098	-31.601	-0.235	0.133
-739.083	7.854	0.050	0.038
-738.069	-70.151	0.295	-0.113
-737.054	-147.514	0.252	0.021
-736.039	32.210	-0.207	-0.180
-735.025	635.685	-0.096	-0.245
-734.010	-47.566	0.192	0.094
-732.996	-200.000	0.055	-0.274
-731.981	-130.711	-0.287	-0.039
-730.966	-200.000	-0.072	-0.561
-729.952	-99.647	0.040	-0.010
-728.937	-90.817	0.137	-0.040
-727.923	-43.526	-0.270	-0.137
-726.908	-149.405	-0.306	-0.024
-725.894	-126.567	-0.168	-0.025
-724.879	32.415	0.222	0.192
-723.864	-144.466	-0.338	0.031
-722.850	28.437	0.168	-0.143
-721.835	679.707	-0.092	0.240
-720.821	-32.844	0.083	0.046
-719.806	-45.870	-0.075	-0.037
-718.791	800.000	-0.016	0.049
-717.777	-200.000	0.000	-0.181
-716.762	60.218	-0.180	0.179
-715.748	-200.000	-0.059	-0.300
-714.733	-15.602	-0.082	-0.053
-713.718	108.444	0.107	0.128
-712.704	715.706	0.072	-0.192
-711.689	800.000	0.024	0.066
-710.675	288.533	0.033	0.059
-709.660	-200.000	0.060	0.426
-708.645	-1.769	0.055	0.039
-707.631	-4.736	-0.274	-0.190
-706.616	-71.035	-0.162	0.061
-705.602	-200.000	-0.011	-0.279
-704.587	-110.141	-0.139	-0.029
-703.572	154.831	0.159	0.219
-702.558	-200.000	-0.013	0.210
-701.543	224.485	-0.102	-0.165
-700.529	-200.000	-0.001	-0.134
-699.514	82.836	-0.094	-0.103
-698.499	-145.595	0.481	-0.043
-697.485	-70.227	-0.163	-0.062
-696.470	267.279	0.093	0.164
-695.456	9.639	0.110	-0.083
-694.441	-99.200	0.066	0.017
-693.426	-48.837	-0.235	-0.113
-692.412	-91.394	0.113	0.032
-691.397	800.000	-0.072	0.248
-690.383	-200.000	0.046	-0.236
-689.368	160.815	-0.165	0.231
-688.354	-91.282	-0.157	-0.045
-687.339	-150.881	-0.206	-0.016
-686.324	420.126	0.066	0.143
-685.310	23.333	0.191	-0.158
-684.295	-33.675	-0.184	-0.102
-683.281	96.883	-0.066	-0.075
-682.266	800.000	0.036	0.108
-681.251	-51.524	-0.232	0.109
-680.237	-77.797	-0.244	-0.085
-679.222	79.345	0.207	-0.223
-678.208	-32.707	-0.138	0.077
-677.193	-200.000	0.015	-0.273
-676.178	1.911	-0.123	-0.089
-675.164	-165.897	-0.264	-0.011
-674.149	-74.228	0.116	-0.042
-673.135	17.402	-0.122	-0.097
-672.120	800.000	-0.087	-0.245
-671.105	366.631	-0.133	0.270
-670.091	86.783	-0.050	0.055
-669.076	-179.078	-0.143	-0.003
-668.062	306.657	-0.144	0.269
-667.047	-77.186	-0.214	0.075
-666.032	-46.963	0.054	0.026
-665.018	-136.176	0.401	0.047
-664.003	-41.705	-0.172	0.089
-662.989	-71.757	-0.161	-0.060
-661.974	-200.000	-0.014	0.064
-660.959	-200.000	-0.004	-0.216
-659.945	-78.967	0.110	0.038
-658.930	-200.000	-0.020	0.228
-657.916	800.000	-0.073	0.313
-656.901	-97.600	0.060	-0.016
-655.886	-200.000	-0.036	-0.211
-654.872	-200.000	0.014	0.191
-653.857	554.408	0.091	-0.220
-652.843	-81.644	-0.270	-0.089
-651.828	91.174	0.054	0.061
-650.814	-200.000	0.045	-0.226
-649.799	136.947	0.182	-0.239
-648.784	-141.924	-0.134	0.013
-647.770	1.434	0.024	-0.017
-646.755	-144.721	-0.200	-0.018
-645.741	11.195	0.177	-0.136
-644.726	-95.472	0.110	-0.030
-643.711	115.552	-0.104	-0.127
-642.697	-15.567	-0.079	0.051
-641.682	-143.496	0.158	0.015
-640.668	800.000	-0.073	0.256
-639.653	-36.880	-0.101	0.054
-638.638	106.240	0.288	0.342
-637.624	-115.839	0.199	-0.037
-636.609	39.539	0.234	-0.210
-635.595	-200.000	0.016	-0.260
-634.580	-200.000	-0.003	-0.259
-633.565	448.150	-0.110	-0.244
-632.551	-106.717	0.202	-0.045
-631.536	543.806	0.108	0.259
-630.522	800.000	-0.081	-0.352
-629.507	146.734	-0.279	0.376
-628.492	-127.198	-0.134	0.020
-627.478	8.388	0.040	0.030
-626.463	-200.000	-0.024	-0.159
-625.449	800.000	-0.043	0.129
-624.434	-200.000	0.044	0.379
-623.419	800.000	0.024	-0.087
-622.405	61.372	-0.082	-0.082
-621.390	-115.694	0.429	-0.081
-620.376	-104.754	0.132	-0.030
-619.361	2.669	-0.234	-0.170
-618.346	115.800	-0.018	-0.022
-617.332	111.162	0.050	0.061
-616.317	132.895	-0.099	0.128
-615.303	-200.000	0.007	0.136
-614.288	278.466	-0.128	-0.228
-613.273	-16.414	-0.143	0.091
-612.259	-90.018	-0.378	0.111
-611.244	-165.859	0.172	-0.007
-610.230	57.879	0.217	-0.213
-609.215	-35.579	-0.310	-0.168
-608.201	800.000	0.036	-0.142
-607.186	57.263	0.014	-0.014
-606.171	-149.313	0.244	0.019
-605.157	-200.000	0.019	0.287
-604.142	9.613	-0.078	-0.059
-603.128	-200.000	-0.016	0.210
-602.113	137.974	-0.092	-0.120
-601.098	60.465	0.217	0.215
-600.084	-200.000	0.042	-0.209
-599.069	-47.417	0.248	-0.121
-598.055	-200.000	0.028	-0.307
-597.040	-0.854	0.328	-0.232
-596.025	-200.000	-0.014	0.298
-595.011	-200.000	0.036	0.232
-593.996	-70.232	0.168	-0.064
-592.982	-58.404	-0.332	-0.145
-591.967	260.283	-0.139	-0.240
-590.952	-95.011	0.144	-0.039
-589.938	-86.380	0.146	0.045
-588.923	62.093	0.400	0.400
-587.909	800.000	-0.080	0.311
-586.894	289.926	-0.100	-0.181
-585.879	-142.344	0.162	-0.016
-584.865	800.000	0.113	0.314
-583.850	-3.691	-0.209	0.146
-582.836	-49.173	-0.053	0.026
-581.821	199.468	0.076	0.116
-580.806	-200.000	-0.003	0.178
-579.792	272.716	0.212	-0.375
-578.777	-200.000	-0.004	0.024
-577.763	16.570	0.368	-0.291
-576.748	-22.242	0.141	-0.085
-575.733	26.528	0.357	0.299
-574.719	-192.289	-0.093	-0.001
-573.704	587.745	-0.200	0.494
-572.690	800.000	0.071	-0.231
-571.675	266.839	0.105	-0.184
-570.661	526.907	-0.157	-0.370
-569.646	-74.064	0.137	-0.049
-568.631	-128.603	-0.138	-0.020
-567.617	281.685	-0.052	0.093
-566.602	57.790	-0.133	-0.130
-565.588	287.618	-0.087	-0.157
-564.573	800.000	-0.095	-0.272
-563.558	-200.000	-0.027	-0.234
-562.544	8.016	0.213	0.160
-561.529	208.995	0.130	-0.203
-560.515	-142.587	0.252	0.025
-559.500	521.336	-0.045	-0.105
-558.485	-16.084	0.168	-0.107
-557.471	-200.000	-0.030	0.131
-556.456	300.159	0.085	0.157
-555.442	600.641	0.082	-0.203
-554.427	-118.245	0.149	-0.027
-553.412	87.810	-0.344	-0.381
-552.398	-63.367	0.185	-0.076
-551.383	-200.000	-0.068	0.566
-550.369	152.057	-0.182	-0.247
-549.354	800.000	-0.029	-0.094
-548.339	-200.000	-0.080	-0.382
-547.325	-8.763	-0.077	0.051
-546.310	100.260	-0.160	-0.185
-545.296	192.619	-0.026	0.038
-544.281	-200.000	-0.000	-0.348
-543.266	-200.000	-0.077	0.381
-542.252	-73.526	-0.122	0.044
-541.237	800.000	0.038	-0.113
-540.223	800.000	-0.036	-0.141
-539.208	-15.889	-0.030	-0.019
-538.193	-177.306	-0.211	0.005
-537.179	-34.182	-0.276	-0.151
-536.164	-200.000	0.021	-0.145
-535.150	22.162	0.240	0.195
-534.135	50.116	0.191	-0.180
-533.121	-137.996	-0.203	0.023
-532.106	-200.000	-0.050	-0.229
-531.091	282.240	0.046	0.083
-530.077	800.000	-0.075	0.230
-529.062	-115.979	-0.182	-0.034
-528.048	800.000	-0.085	-0.353
-527.033	-200.000	0.080	0.539
-526.018	548.687	0.094	0.224
-525.004	-16.409	0.027	0.017
-523.989	-4.360	0.092	0.063
-522.975	-69.033	-0.081	0.031
-521.960	691.630	-0.051	0.134
-520.945	-200.000	0.035	-0.191
-519.931	-200.000	-0.071	-0.000
-518.916	-107.567	0.102	-0.022
-517.902	-92.102	-0.098	-0.028
-516.887	-84.812	0.123	-0.039
-515.872	170.406	-0.110	-0.157
-514.858	3.007	-0.089	-0.064
-513.843	594.578	0.045	-0.112
-512.829	800.000	-0.065	0.225
-511.814	256.593	0.127	-0.218
-510.799	-112.034	0.558	0.112
-509.785	-200.000	-0.013	-0.113
-508.770	-99.109	-0.303	0.077
-507.756	119.379	-0.089	-0.109
-506.741	415.095	0.011	0.023
-505.726	87.165	0.259	0.286
-504.712	-136.524	0.145	0.017
-503.697	73.658	-0.196	-0.205
-502.683	120.982	-0.193	0.240
-501.668	-116.074	0.128	-0.024
-500.653	154.980	0.075	0.103
-499.639	-115.880	-0.155	-0.029
-498.624	-200.000	-0.026	-0.186
-497.610	-81.914	-0.254	-0.083
-496.595	-78.645	0.250	-0.085
-495.581	800.000	0.083	-0.324
-494.566	-200.000	0.001	-0.014
-493.551	443.870	0.086	-0.187
-492.537	-9.477	-0.313	-0.208
-491.522	800.000	0.024	0.069
-490.508	800.000	0.046	0.146
-489.493	-200.000	-0.022	-0.173
-488.478	-82.840	-0.251	0.081
-487.464	-55.989	0.264	-0.117
-486.449	-76.278	0.272	-0.096
-485.435	193.828	-0.091	0.137
-484.420	49.974	-0.170	0.159
-483.405	800.000	0.068	0.237
-482.391	-200.000	0.022	-0.424
-481.376	-28.329	0.118	0.068
-480.362	232.535	-0.143	0.233
-479.347	31.424	-0.142	-0.121
-478.332	-165.529	0.132	-0.006
-477.318	-200.000	0.046	0.336
-476.303	417.330	0.073	0.154
-475.289	516.792	0.152	-0.354
-474.274	4.120	-0.090	-0.065
-473.259	67.386	0.081	0.082
-472.245	-34.342	-0.230	-0.125
-471.230	0.319	-0.136	0.097
-470.216	369.905	-0.073	0.148
-469.201	92.729	-0.248	0.278
-468.186	-85.275	0.097	0.030
-467.172	-94.096	-0.278	0.076
-466.157	284.514	0.149	0.268
-465.143	800.000	0.017	0.067
-464.128	-200.000	-0.062	0.317
-463.113	-34.388	0.132	-0.072
-462.099	251.086	0.066	-0.111
-461.084	-200.000	-0.044	0.312
-460.070	-63.165	0.164	-0.067
-459.055	644.415	-0.097	-0.246
-458.040	-133.180	-0.219	-0.028
-457.026	297.546	-0.153	0.280
-456.011	-200.000	0.013	-0.237
-454.997	-75.840	0.097	0.034
-453.982	800.000	0.053	-0.200
-452.968	-51.200	0.191	-0.089
-451.953	-22.293	-0.044	0.027
-450.938	-101.759	0.058	0.014
-449.924	-200.000	0.031	0.172
-448.909	-200.000	-0.002	-0.062
-447.895	319.668	0.010	0.019
-446.880	100.456	0.389	-0.449
-445.865	80.938	0.227	0.243
-444.851	680.211	0.132	0.341
-443.836	-200.000	0.013	-0.339
-442.822	144.305	-0.120	-0.159
-441.807	-138.154	-0.671	0.074
-440.792	714.897	-0.131	-0.345
-439.778	-200.000	-0.024	0.255
-438.763	5.580	-0.341	-0.251
-437.749	-200.000	0.018	0.084
-436.734	-11.446	0.065	0.042
-435.719	160.168	0.081	-0.112
-434.705	209.057	-0.183	0.284
-433.690	304.143	0.135	-0.249
-432.676	51.437	0.051	-0.049
-431.661	-144.007	-0.088	-0.008
-430.646	680.624	0.059	0.153
-429.632	-200.000	-0.031	-0.165
-428.617	-74.255	0.206	-0.074
-427.603	-200.000	0.029	0.308
-426.588	-53.808	0.174	-0.079
-425.573	385.398	-0.067	-0.137
-424.559	-200.000	-0.039	0.295
-423.544	800.000	-0.131	0.415
-422.530	68.718	0.051	0.052
-421.515	47.013	0.170	0.157
-420.500	800.000	0.055	0.155
-419.486	505.232	0.021	-0.048
-418.471	-200.000	0.004	0.318
-417.457	-97.429	-0.145	0.037
-416.442	215.206	-0.159	0.251
-415.428	390.102	-0.077	0.159
-414.413	-10.435	0.173	-0.114
-413.398	-41.585	-0.203	-0.103
-412.384	46.262	0.212	-0.195
-411.369	127.586	0.008	-0.010
-410.355	-84.932	-0.190	-0.059
-409.340	290.413	-0.176	-0.318
-408.325	-94.087	0.365	0.100
-407.311	-109.718	-0.075	0.016
-406.296	-200.000	-0.028	0.295
-405.282	122.309	0.140	0.174
-404.267	800.000	0.053	0.157
-403.252	-200.000	0.013	0.124
-402.238	160.657	-0.106	0.147
-401.223	190.132	0.039	-0.059
-400.209	28.802	-0.141	0.118
-399.194	800.000	-0.029	-0.101
-398.179	63.087	-0.274	-0.273
-397.165	-92.057	-0.270	-0.076
-396.150	-83.950	-0.232	-0.073
-395.136	-31.756	0.299	-0.166
-394.121	40.511	-0.204	0.183
-393.106	-200.000	0.020	-0.310
-392.092	-107.566	-0.307	-0.067
-391.077	-31.647	-0.221	0.123
-390.063	63.723	0.212	0.211
-389.048	219.917	-0.178	-0.282
-388.033	-20.598	0.094	0.057
-387.019	-91.996	-0.260	-0.073
-386.004	145.330	-0.058	-0.077
-384.990	-68.215	0.352	-0.136
-383.975	-200.000	0.019	-0.136
-382.960	-141.382	-0.074	0.007
-381.946	141.008	0.014	-0.018
-380.931	-45.097	0.062	0.031
-379.917	-42.342	-0.194	-0.098
-378.902	-14.574	-0.176	0.112
-377.888	-200.000	0.003	0.110
-376.873	-200.000	0.002	-0.213
-375.858	-200.000	-0.004	-0.089
-374.844	-36.418	0.014	0.008
-373.829	-21.528	-0.193	-0.117
-372.815	178.463	0.206	-0.299
-371.800	-200.000	0.036	0.266
-370.785	-140.263	-0.122	-0.013
-369.771	476.497	0.039	0.088
-368.756	54.317	-0.292	0.279
-367.742	403.766	-0.112	0.234
-366.727	263.174	-0.082	-0.141
-365.712	-200.000	-0.020	-0.304
-364.698	61.942	-0.059	0.058
-363.683	-200.000	-0.051	-0.257
-362.669	99.948	0.132	-0.152
-361.654	-73.717	-0.192	-0.069
-360.639	32.508	0.040	-0.034
-359.625	-200.000	-0.055	-0.322
-358.610	336.700	-0.178	-0.342
-357.596	-21.195	-0.377	-0.229
-356.581	6.021	0.213	-0.156
-355.566	236.407	-0.155	-0.254
-354.552	-141.600	0.152	0.015
-353.537	83.593	0.093	-0.101
-352.523	-200.000	0.015	0.072
-351.508	43.643	-0.294	0.267
-350.493	35.382	0.400	-0.347
-349.479	71.519	0.227	-0.234
-348.464	173.642	0.073	0.104
-347.450	-142.459	0.341	0.033
-346.435	-5.230	-0.408	0.278
-345.420	-172.128	-0.162	-0.005
-344.406	50.759	0.192	0.180
-343.391	-147.038	-0.269	0.023
-342.377	-79.059	0.043	-0.014
-341.362	-115.072	-0.243	0.046
-340.348	800.000	-0.031	-0.110
-339.333	800.000	0.111	0.442
-338.318	-200.000	0.012	0.181
-337.304	279.827	-0.097	-0.172
-336.289	208.722	-0.152	0.236
-335.275	-26.637	-0.300	-0.174
-334.260	259.921	-0.204	-0.350
-333.245	-200.000	-0.020	0.172
-332.231	800.000	-0.082	-0.256
-331.216	800.000	0.062	0.188
-330.202	57.672	0.177	0.171
-329.187	-146.815	0.262	0.022
-328.172	58.936	0.070	-0.068
-327.158	800.000	-0.130	-0.496
-326.143	141.787	0.164	0.216
-325.129	73.581	-0.153	0.158
-324.114	-63.628	0.211	0.086
-323.099	-200.000	-0.029	-0.141
-322.085	-200.000	-0.021	0.222
-321.070	57.491	0.136	0.132
-320.056	-190.984	-0.383	-0.004
-319.041	-88.630	-0.315	-0.093
-318.026	420.116	0.204	-0.433
-317.012	-38.393	0.192	-0.100
-315.997	-66.798	-0.168	-0.066
-314.983	-35.366	0.154	0.083
-313.968	800.000	0.123	0.346
-312.953	-41.465	-0.279	-0.142
-311.939	800.000	-0.057	0.206
-310.924	-48.127	0.135	0.065
-309.910	800.000	-0.129	0.378
-308.895	-93.586	0.215	0.059
-307.880	-200.000	0.020	0.120
-306.866	-3.621	-0.237	0.163
-305.851	690.355	-0.154	0.399
-304.837	-172.422	0.146	-0.005
-303.822	48.202	0.069	0.064
-302.807	-55.671	-0.145	-0.064
-301.793	-126.458	0.099	0.015
-300.778	-200.000	-0.019	0.099
-299.764	-131.854	0.310	0.040
-298.749	334.087	-0.114	0.217
-297.735	13.732	-0.132	0.102
-296.720	-200.000	-0.048	0.281
-295.705	-109.441	-0.086	-0.018
-294.691	-200.000	-0.019	0.133
-293.676	-77.382	-0.150	-0.052
-292.662	65.236	0.158	0.158
-291.647	30.924	-0.120	0.102
-290.632	12.537	-0.261	-0.199
-289.618	191.456	0.200	0.298
-288.603	48.970	-0.157	0.146
-287.589	202.964	0.078	-0.119
-286.574	-200.000	0.008	0.079
-285.559	-63.368	-0.211	-0.086
-284.545	-34.044	-0.050	0.027
-283.530	-33.900	0.272	0.148
-282.516	-39.351	-0.108	0.056
-281.501	-21.632	-0.214	-0.129
-280.486	-55.409	0.311	0.138
-279.472	-200.000	-0.009	-0.082
-278.457	32.092	-0.373	0.318
-277.443	-23.873	-0.103	0.061
-276.428	800.000	0.079	0.318
-275.413	151.540	0.092	-0.124
-274.399	-46.544	0.277	0.134
-273.384	341.012	0.096	-0.186
-272.370	800.000	0.082	0.275
-271.355	-200.000	-0.037	0.282
-270.340	-200.000	0.065	-0.295
-269.326	686.437	0.097	-0.250
-268.311	-144.619	0.312	0.028
-267.297	392.782	0.060	0.124
-266.282	464.066	-0.049	-0.109
-265.267	-200.000	-0.064	0.299
-264.253	-46.774	0.342	-0.165
-263.238	112.769	0.016	-0.019
-262.224	-88.973	-0.179	0.052
-261.209	99.784	-0.154	-0.176
-260.195	147.884	-0.136	-0.182
-259.180	57.583	0.326	-0.315
-258.165	107.952	-0.105	0.124
-257.151	-127.681	0.144	-0.021
-256.136	77.372	-0.174	0.183
-255.122	58.499	0.066	0.064
-254.107	-134.745	-0.196	-0.024
-253.092	-200.000	-0.006	-0.032
-252.078	160.368	0.203	-0.279
-251.063	41.832	-0.267	0.239
-250.049	47.099	0.141	0.129
-249.034	800.000	-0.055	-0.227
-248.019	-105.110	0.118	-0.027
-247.005	-200.000	-0.053	-0.322
-245.990	-123.356	0.220	-0.035
-244.976	-110.245	0.077	0.016
-243.961	-37.111	0.094	0.050
-242.946	137.929	0.121	0.157
-241.932	-200.000	-0.050	-0.320
-240.917	288.345	-0.012	-0.021
-239.903	-101.246	0.167	0.040
-238.888	-75.569	0.110	0.038
-237.873	-14.509	-0.125	0.079
-236.859	-67.345	0.085	-0.033
-235.844	40.866	0.046	0.041
-234.830	-200.000	0.051	-0.284
-233.815	-15.741	0.484	0.304
-232.800	-200.000	-0.013	-0.155
-231.786	-31.617	0.123	-0.068
-230.771	800.000	-0.097	0.295
-229.757	-126.427	0.160	-0.024
-228.742	52.958	0.059	-0.056
-227.727	-64.258	0.168	-0.067
-226.713	465.177	0.073	0.160
-225.698	119.196	-0.215	-0.262
-224.684	19.569	0.171	0.135
-223.669	-4.357	-0.094	0.064
-222.655	698.420	0.077	-0.201
-221.640	94.529	0.056	0.063
-220.625	-127.220	-0.111	-0.016
-219.611	-49.652	0.176	0.082
-218.596	-114.796	0.231	-0.043
-217.582	519.151	-0.107	0.248
-216.567	139.944	0.102	0.132
-215.552	-133.287	-0.296	-0.037
-214.538	111.723	0.071	-0.084
-213.523	-42.468	0.161	-0.081
-212.509	-29.154	-0.181	-0.102
-211.494	103.850	0.116	-0.134
-210.479	-27.424	0.225	0.129
-209.465	-200.000	-0.013	-0.142
-208.450	-158.832	0.346	0.019
-207.436	800.000	0.083	0.272
-206.421	118.944	-0.085	0.103
-205.406	264.169	0.293	0.503
-204.392	77.347	-0.082	-0.086
-203.377	614.601	-0.046	0.113
-202.363	-26.795	0.293	-0.169
-201.348	-44.105	0.114	0.056
-200.333	-103.703	0.228	-0.053
-199.319	-200.000	0.013	-0.167
-198.304	-79.888	0.118	0.039
-197.290	74.461	-0.092	0.096
-196.275	361.786	-0.102	0.202
-195.260	169.048	-0.038	-0.054
-194.246	-48.522	0.067	-0.032
-193.231	304.170	0.251	-0.459
-192.217	3.055	0.278	-0.199
-191.202	800.000	0.059	0.184
-190.187	-60.179	-0.407	-0.171
-189.173	-75.574	-0.089	0.031
-188.158	-59.126	-0.210	-0.089
-187.144	-161.649	-0.141	0.007
-186.129	-49.640	0.211	0.099
-185.114	800.000	-0.088	0.243
-184.100	-16.531	-0.301	-0.188
-183.085	-200.000	0.024	-0.161
-182.071	-85.005	0.030	-0.009
-181.056	-64.179	0.109	-0.044
-180.042	644.836	0.008	0.021
-179.027	13.262	-0.188	-0.144
-178.012	139.012	0.210	0.272
-176.998	22.363	0.122	-0.098
-175.983	93.697	-0.101	-0.113
-174.969	34.242	0.163	0.140
-173.954	-7.903	-0.039	-0.026
-172.939	-1.929	0.213	0.147
-171.925	800.000	0.097	-0.308
-170.910	-130.416	-0.432	-0.058
-169.896	-123.519	0.124	-0.019
-168.881	-120.886	-0.186	-0.031
-167.866	-200.000	-0.000	0.014
-166.852	19.372	0.134	0.106
-165.837	-20.000	-0.309	-0.188
-164.823	-179.534	-0.104	0.002
-163.808	-200.000	-0.014	0.202
-162.793	2.975	-0.215	-0.154
-161.779	-62.113	0.304	0.125
-160.764	30.080	-0.095	-0.080
-159.750	-125.199	-0.111	-0.017
-158.735	298.319	0.083	-0.151
-157.720	-161.958	-0.410	0.020
-156.706	465.254	0.139	0.306
-155.691	114.984	-0.139	0.167
-154.677	800.000	-0.041	0.121
-153.662	547.479	-0.072	0.169
-152.647	98.027	-0.210	0.238
-151.633	41.499	-0.137	0.122
-150.618	-193.473	-0.452	-0.004
-149.604	-200.000	0.003	-0.292
-148.589	800.000	0.004	-0.012
-147.574	519.764	0.048	0.111
-146.560	-111.159	0.133	0.027
-145.545	-7.899	-0.155	-0.103
-144.531	-200.000	0.003	-0.053
-143.516	20.215	-0.148	0.117
-142.502	203.333	0.077	-0.118
-141.487	-200.000	0.013	0.107
-140.472	138.300	-0.114	0.147
-139.458	6.637	0.373	-0.273
-138.443	128.612	-0.323	0.405
-137.429	-200.000	-0.020	0.093
-136.414	-28.381	-0.386	-0.219
-135.399	197.411	0.157	0.236
-134.385	-200.000	-0.023	0.120
-133.370	-16.769	0.246	0.153
-132.356	-119.745	-0.297	0.050
-131.341	-65.803	-0.054	0.021
-130.326	376.768	-0.099	0.198
-129.312	-118.946	-0.259	0.045
-128.297	-83.041	-0.312	-0.099
-127.283	-27.407	0.108	-0.062
-126.268	-19.869	-0.035	-0.021
-125.253	-103.966	-0.531	-0.122
-124.239	670.395	-0.091	0.230
-123.224	-156.906	-0.021	-0.001
-122.210	209.507	0.070	0.108
-121.195	-130.550	-0.240	0.032
-120.180	177.490	0.127	-0.181
-119.166	390.357	-0.125	0.254
-118.151	-77.700	0.114	0.039
-117.137	-137.325	-0.357	0.040
-116.122	179.333	0.167	0.240
-115.107	21.934	-0.075	0.060
-114.093	-17.353	-0.431	0.266
-113.078	-200.000	-0.007	-0.099
-112.064	546.761	0.034	0.081
-111.049	-38.697	-0.238	0.124
-110.034	0.075	0.253	-0.177
-109.020	-200.000	-0.019	0.375
-108.005	-200.000	-0.103	0.477
-106.991	72.125	-0.257	0.263
-105.976	-200.000	0.048	-0.413
-104.962	-200.000	-0.036	0.337
-103.947	436.942	0.083	-0.178
-102.932	11.866	0.366	0.276
-101.918	-145.909	-0.283	-0.025
-100.903	800.000	-0.022	-0.083
-99.889	54.344	-0.181	-0.171
-98.874	555.697	0.231	0.545
-97.859	399.465	-0.167	0.343
-96.845	-200.000	-0.014	0.112
-95.830	-99.220	0.165	0.041
-94.816	-62.242	0.147	-0.060
-93.801	-200.000	0.015	0.100
-92.786	320.608	0.065	-0.121
-91.772	172.183	0.114	-0.160
-90.757	800.000	0.160	-0.462
-89.743	156.026	0.111	0.149
-88.728	-200.000	-0.037	-0.464
-87.713	62.484	-0.258	0.253
-86.699	-26.487	0.064	-0.037
-85.684	-151.603	0.301	-0.022
-84.670	-200.000	0.046	0.220
-83.655	112.693	-0.333	0.396
-82.640	463.775	-0.094	0.206
-81.626	184.140	-0.151	-0.219
-80.611	-37.577	0.080	0.042
-79.597	-87.614	0.237	0.070
-78.582	172.484	0.125	-0.176
-77.567	185.667	0.170	0.247
-76.553	-86.775	-0.122	0.037
-75.538	-200.000	0.020	0.100
-74.524	11.602	-0.242	-0.182
-73.509	-112.315	0.161	-0.032
-72.494	800.000	-0.016	0.058
-71.480	530.283	0.088	0.204
-70.465	54.440	0.228	-0.215
-69.451	-200.000	-0.028	0.209
-68.436	19.380	0.085	0.067
-67.422	-171.223	0.409	0.014
-66.407	-200.000	-0.427	0.002
-65.392	148.237	0.194	-0.256
-64.378	800.000	-0.059	0.175
-63.363	-5.917	-0.156	0.105
-62.349	-200.000	-0.025	0.381
-61.334	45.493	-1.196	-1.082
-60.319	-45.249	0.654	0.318
-59.305	391.974	-0.381	-0.777
-58.290	360.991	0.609	1.196
-57.276	291.191	0.900	1.604
-56.261	-200.000	106.271	613.075
-55.246	503.561	1509.178	3420.243
-54.232	176.325	2701.406	3844.926
-53.217	110.098	2185.827	2570.654
-52.203	40.095	1704.602	1500.966
-51.188	32.508	1514.533	1282.132
-50.173	30.200	1487.896	1244.071
-49.159	51.395	1543.775	1436.262
-48.144	51.604	1560.330	1453.031
-47.130	32.725	1516.295	1284.896
-46.115	29.666	1501.650	1251.750
-45.100	29.595	1497.713	1247.941
-44.086	29.497	1495.527	1245.407
-43.071	29.415	1493.433	1243.067
-42.057	29.429	1491.697	1241.665
-41.042	29.445	1490.465	1240.697
-40.027	29.414	1489.438	1239.583
-39.013	29.376	1487.549	1237.707
-37.998	29.341	1486.092	1236.208
-36.984	29.370	1485.298	1235.696
-35.969	29.420	1483.782	1234.720
-34.954	29.337	1482.715	1233.228
-33.940	29.333	1481.240	1231.928
-32.925	29.429	1479.495	1231.070
-31.911	29.495	1478.420	1230.561
-30.896	29.527	1476.778	1229.360
-29.881	29.429	1475.948	1227.966
-28.867	29.574	1474.417	1227.613
-27.852	29.460	1473.415	1225.967
-26.838	29.484	1471.844	1224.776
-25.823	29.486	1469.889	1223.112
-24.809	29.386	1468.760	1221.459
-23.794	29.458	1467.082	1220.493
-22.779	29.466	1465.786	1219.419
-21.765	29.437	1464.987	1218.517
-20.750	29.408	1464.124	1217.555
-19.736	29.482	1462.589	1216.721
-18.721	29.439	1461.613	1215.578
-17.706	29.397	1460.750	1214.532
-16.692	29.395	1459.287	1213.258
-15.677	29.421	1458.364	1212.613
-14.663	29.391	1457.192	1211.390
-13.648	29.312	1456.317	1210.095
-12.633	29.477	1455.556	1210.498
-11.619	29.424	1454.616	1209.321
-10.604	29.305	1453.876	1207.882
-9.590	29.212	1453.509	1206.916
-8.575	29.421	1451.735	1206.761
-7.560	29.396	1451.309	1206.202
-6.546	29.383	1450.376	1205.287
-5.531	29.375	1449.350	1204.339
-4.517	29.205	1449.185	1203.040
-3.502	29.417	1447.622	1203.078
-2.487	29.347	1446.603	1201.727
-1.473	29.295	1445.732	1200.619
-0.458	29.337	1444.627	1199.930
0.556	27.038	1435.154	1189.569
1.571	24.389	1410.231	1151.733
2.586	21.179	1351.339	1083.645
3.600	19.790	1270.490	1010.611
4.615	18.659	1226.683	969.293
5.629	16.381	1171.496	913.303
6.644	8.270	1086.993	806.512
7.659	1.060	1046.931	741.526
8.673	-0.164	1041.171	731.421
9.688	-0.308	1038.249	728.606
10.702	-0.391	1036.594	726.980
11.717	-0.387	1034.753	725.644
12.731	2.912	1038.060	743.895
13.746	11.804	1050.835	796.427
14.761	18.591	1059.526	836.139
15.775	20.240	1061.165	845.399
16.790	20.641	1060.416	846.682
17.804	20.500	1059.644	845.302
18.819	20.269	1058.898	843.509
19.834	20.245	1058.605	843.086
20.848	20.321	1058.020	842.914
21.863	20.528	1057.347	843.310
22.877	20.538	1056.874	842.903
23.892	20.530	1056.069	842.149
24.907	20.270	1055.689	840.514
25.921	20.491	1054.825	840.819
26.936	20.503	1053.932	840.091
27.950	20.423	1052.848	838.769
28.965	20.309	1051.612	837.159
29.980	20.369	1050.223	836.267
30.994	20.284	1048.688	834.561
32.009	20.570	1047.388	834.827
33.023	20.518	1047.052	834.235
34.038	20.403	1045.227	832.156
35.053	20.333	1045.090	831.641
36.067	20.506	1044.501	831.927
37.082	20.446	1043.692	830.920
38.096	20.531	1042.247	830.101
39.111	20.691	1041.970	830.573
40.126	20.737	1040.884	829.855
41.140	20.604	1039.569	828.097
42.155	20.335	1038.122	825.590
43.169	20.207	1036.767	823.834
44.184	20.001	1035.672	821.912
45.199	20.233	1034.644	822.125
46.213	20.097	1033.458	820.466
47.228	19.969	1032.860	819.315
48.242	20.175	1031.959	819.499
49.257	20.195	1031.495	819.152
50.271	20.338	1030.351	818.846
51.286	20.369	1029.550	818.282
52.301	20.581	1028.510	818.383
53.315	20.515	1027.656	817.323
54.330	20.448	1027.524	816.827
55.344	20.328	1026.556	815.425
56.359	20.403	1025.258	814.673
57.374	20.477	1024.304	814.188
58.388	20.228	1023.680	812.455
59.403	20.233	1022.627	811.571
60.417	20.302	1022.043	811.355
61.432	20.020	1021.770	809.751
62.447	20.077	1020.976	809.314
63.461	20.329	1020.013	809.656
64.476	20.327	1019.262	808.979
65.490	20.288	1018.574	808.182
66.505	20.232	1017.154	806.722
67.520	20.202	1016.266	805.806
68.534	20.202	1015.621	805.223
69.549	20.209	1014.826	804.552
70.563	19.901	1013.145	801.725
71.578	19.718	1012.758	800.501
72.593	19.690	1011.891	799.613
73.607	19.692	1010.323	798.316
74.622	19.676	1009.630	797.622
75.636	20.007	1009.022	798.599
76.651	20.260	1008.058	798.930
77.666	19.955	1007.485	796.999
78.680	19.911	1006.138	795.663
79.695	19.935	1005.932	795.537
80.709	20.039	1005.192	795.360
81.724	20.183	1004.074	795.066
82.739	20.105	1003.107	793.871
83.753	20.023	1002.724	793.122
84.768	20.385	1001.947	794.093
85.782	20.686	1001.230	794.830
86.797	20.747	1000.378	794.364
87.812	20.706	999.723	793.584
88.826	20.631	998.380	792.107
89.841	20.595	997.287	791.008
90.855	20.720	996.834	791.145
91.870	20.706	995.920	790.286
92.884	20.722	995.094	789.632
93.899	20.482	994.351	787.884
94.914	20.521	993.095	786.998
95.928	20.609	992.439	786.809
96.943	20.512	991.740	785.747
97.957	20.437	990.292	784.190
98.972	20.174	989.311	782.158
99.987	19.872	988.086	779.760
101.001	19.981	987.873	780.010
102.016	20.339	986.486	780.459
103.030	20.299	986.272	780.039
104.045	20.381	984.684	779.081
105.060	20.300	983.394	777.630
106.074	20.044	982.494	775.704
107.089	20.023	981.608	774.841
108.103	20.410	981.198	776.180
109.118	20.400	980.112	775.209
110.133	20.267	979.137	773.776
111.147	20.276	978.086	772.915
112.162	20.104	976.687	770.977
113.176	19.904	975.729	769.265
114.191	19.975	974.588	768.610
115.206	20.177	974.158	769.098
116.220	19.801	972.546	766.093
117.235	19.690	971.935	765.051
118.249	19.993	970.773	765.409
119.264	19.880	970.354	764.512
120.279	19.784	969.604	763.430
121.293	19.779	968.622	762.570
122.308	20.025	967.094	762.379
123.322	20.083	966.535	762.126
124.337	19.946	965.649	760.761
125.352	20.028	964.250	759.951
126.366	19.495	962.754	756.369
127.381	19.151	961.685	753.957
128.395	19.601	961.507	755.718
129.410	20.243	960.983	758.047
130.424	20.300	960.685	757.993
131.439	20.215	959.391	756.535
132.454	20.349	958.153	756.077
133.468	20.314	957.134	755.053
134.483	20.305	956.423	754.383
135.497	20.262	956.139	753.908
136.512	20.445	955.143	753.850
137.527	20.751	953.933	754.156
138.541	20.586	953.252	752.835
139.556	20.529	952.999	752.320
140.570	20.563	951.875	751.516
141.585	20.603	950.823	750.790
142.600	20.520	950.311	749.962
143.614	20.646	948.863	749.294
144.629	20.585	949.063	749.126
145.643	20.773	948.359	749.311
146.658	20.720	947.125	748.040
147.673	20.633	945.840	746.586
148.687	20.458	944.715	744.884
149.702	20.505	943.537	744.088
150.716	20.375	942.733	742.835
151.731	20.441	941.594	742.151
152.746	20.408	941.019	741.492
153.760	20.665	940.354	742.001
154.775	20.722	939.619	741.599
155.789	20.810	938.735	741.208
156.804	20.689	937.765	739.864
157.819	20.675	936.758	738.943
158.833	20.671	935.981	738.248
159.848	20.797	935.284	738.166
160.862	20.860	934.227	737.535
161.877	20.656	933.580	736.094
162.892	20.572	933.004	735.219
163.906	20.666	932.319	735.012
164.921	20.825	931.006	734.583
165.935	20.778	930.121	733.620
166.950	20.698	928.921	732.273
167.964	20.943	927.677	732.259
168.979	20.708	926.593	730.353
169.994	20.682	925.359	729.205
171.008	20.652	924.406	728.263
172.023	20.703	923.924	728.034
173.037	20.888	923.189	728.164
174.052	20.607	922.081	726.054
175.067	20.444	921.017	724.469
176.081	20.522	920.081	723.996
177.096	20.516	919.497	723.446
178.110	20.547	918.809	722.971
179.125	20.335	917.664	721.124
180.140	20.069	916.356	718.928
181.154	20.239	916.003	719.294
182.169	20.182	915.852	718.874
183.183	20.460	915.116	719.385
184.198	20.753	914.608	720.135
185.213	20.616	914.233	719.209
186.227	20.657	913.347	718.616
187.242	20.692	912.987	718.414
188.256	20.750	912.229	717.996
189.271	20.704	911.298	717.011
190.286	20.928	910.401	717.162
191.300	20.597	909.770	715.240
192.315	20.179	908.250	712.267
193.329	19.518	906.870	708.407
194.344	19.081	905.704	705.643
195.359	19.699	906.045	708.380
196.373	20.457	906.436	711.730
197.388	20.644	905.869	711.988
198.402	20.674	904.942	711.316
199.417	20.426	904.487	709.883
200.432	20.447	904.342	709.792
201.446	20.396	903.249	708.665
202.461	20.065	902.392	706.578
203.475	20.164	901.906	706.541
204.490	19.875	899.837	703.680
205.504	18.732	898.239	697.728
206.519	19.170	898.411	699.580
207.534	20.125	898.576	703.523
208.548	20.081	898.393	703.139
209.563	20.493	898.196	704.595
210.577	20.605	897.301	704.281
211.592	20.464	896.213	702.795
212.607	20.743	896.385	703.997
213.621	20.608	895.986	703.077
214.636	20.798	894.618	702.707
215.650	20.752	894.529	702.391
216.665	20.895	893.679	702.236
217.680	20.782	893.050	701.226
218.694	20.906	892.552	701.272
219.709	20.516	891.773	699.030
220.723	20.274	890.205	696.766
221.738	20.537	889.866	697.496
222.753	20.709	889.290	697.671
223.767	20.483	888.999	696.474
224.782	20.568	888.345	696.240
225.796	20.789	887.827	696.660
226.811	20.967	886.801	696.503
227.826	20.455	885.751	693.572
228.840	19.846	884.425	690.047
229.855	19.766	883.848	689.216
230.869	19.970	883.102	689.387
231.884	19.637	882.283	687.360
232.899	19.688	881.939	687.232
233.913	20.523	881.957	690.506
234.928	20.570	882.091	690.734
235.942	20.532	881.083	689.735
236.957	20.658	879.963	689.296
237.972	20.273	878.954	686.920
238.986	20.145	878.587	686.066
240.001	20.290	877.853	686.005
241.015	20.458	877.274	686.155
242.030	20.443	876.698	685.586
243.045	20.540	876.462	685.722
244.059	20.546	876.138	685.432
245.074	20.544	875.444	684.823
246.088	20.774	874.202	684.693
247.103	20.453	873.221	682.605
248.117	20.309	873.039	681.836
249.132	20.812	872.932	683.666
250.147	21.361	871.915	684.961
251.161	21.319	871.678	684.551
252.176	21.342	871.256	684.251
253.190	21.432	870.587	684.014
254.205	21.358	870.040	683.237
255.220	21.583	869.673	683.766
256.234	21.454	869.155	682.795
257.249	21.471	868.081	681.959
258.263	21.316	867.568	680.888
259.278	21.400	867.194	680.863
260.293	21.529	866.373	680.659
261.307	21.543	865.845	680.240
262.322	21.258	865.786	679.024
263.336	21.484	864.261	678.644
264.351	20.781	863.187	675.016
265.366	19.770	861.058	669.381
266.380	19.319	860.488	667.135
267.395	20.235	861.010	671.024
268.409	21.129	860.854	674.300
269.424	21.027	860.341	673.444
270.439	21.199	859.718	673.561
271.453	21.237	859.191	673.234
272.468	21.199	858.606	672.571
273.482	21.283	858.143	672.471
274.497	21.508	857.728	672.951
275.512	21.280	856.720	671.228
276.526	20.834	855.114	668.200
277.541	20.831	854.912	667.969
278.555	21.331	854.608	669.591
279.570	21.157	853.266	667.815
280.585	20.926	852.909	666.592
281.599	21.017	852.323	666.420
282.614	20.994	852.058	666.069
283.628	20.881	850.861	664.642
284.643	20.454	850.059	662.330
285.657	20.819	849.781	663.445
286.672	20.887	849.345	663.305
287.687	20.205	848.304	659.837
288.701	20.521	848.232	660.928
289.716	21.059	847.886	662.643
290.730	20.560	847.139	660.104
291.745	20.605	845.965	659.302
292.760	20.435	844.996	657.846
293.774	20.172	844.646	656.519
294.789	21.162	845.159	660.609
295.803	21.727	845.219	662.735
296.818	21.908	844.701	662.953
297.833	21.816	844.387	662.301
298.847	21.673	842.780	660.444
299.862	21.439	841.905	658.817
300.876	21.508	841.496	658.699
301.891	21.657	841.531	659.230
302.906	21.996	840.594	659.710
303.920	21.421	839.707	656.795
304.935	21.372	838.975	655.982
305.949	21.469	838.918	656.243
306.964	21.742	838.516	656.896
307.979	21.548	837.509	655.321
308.993	21.539	836.938	654.782
310.008	21.915	836.970	656.155
311.022	21.859	836.643	655.632
312.037	21.748	835.992	654.651
313.052	21.551	835.093	653.154
314.066	21.516	834.295	652.341
315.081	20.959	832.291	648.644
316.095	20.074	831.863	644.963
317.110	20.751	831.829	647.397
318.125	21.612	832.254	650.870
319.139	21.132	831.294	648.280
320.154	20.107	829.296	642.867
321.168	19.762	828.190	640.673
322.183	20.329	828.747	643.150
323.197	21.117	829.223	646.382
324.212	21.367	828.639	646.795
325.227	21.436	828.771	647.094
326.241	21.679	828.109	647.418
327.256	21.452	827.707	646.209
328.270	21.479	827.066	645.750
329.285	21.460	826.154	644.912
330.300	21.359	825.307	643.822
331.314	21.186	824.324	642.361
332.329	21.062	824.187	641.742
333.343	21.380	823.636	642.424
334.358	21.742	823.405	643.516
335.373	21.637	823.005	642.761
336.387	21.717	822.715	642.771
337.402	21.890	821.880	642.696
338.416	22.208	821.169	643.248
339.431	22.237	820.446	642.729
340.446	22.070	820.410	642.034
341.460	22.161	819.972	641.969
342.475	22.273	819.030	641.580
343.489	22.158	818.239	640.485
344.504	22.133	817.831	640.018
345.519	22.241	817.678	640.238
346.533	22.441	817.352	640.651
347.548	22.495	816.630	640.225
348.562	22.527	816.516	640.196
349.577	22.570	815.995	639.887
350.592	22.591	815.237	639.313
351.606	22.337	814.948	638.109
352.621	22.446	814.461	638.065
353.635	22.270	814.071	637.067
354.650	22.345	812.793	636.279
355.665	22.071	811.941	634.568
356.679	20.935	810.590	629.358
357.694	20.687	810.142	628.056
358.708	21.465	809.806	630.547
359.723	21.341	809.343	629.683
360.738	21.658	809.460	630.861
361.752	22.086	809.328	632.243
362.767	22.084	808.961	631.894
363.781	22.338	808.784	632.611
364.796	22.745	808.345	633.676
365.810	22.832	808.053	633.702
366.825	22.706	807.607	632.844
367.840	22.859	807.006	632.866
368.854	22.673	806.378	631.653
369.869	22.401	805.484	629.922
370.883	22.037	805.109	628.272
371.898	22.196	804.776	628.523
372.913	22.128	804.037	627.648
373.927	22.068	803.124	626.667
374.942	22.123	802.918	626.645
375.956	22.411	802.288	627.125
376.971	22.441	801.465	626.532
377.986	22.672	801.354	627.212
379.000	22.765	800.823	627.073
380.015	22.752	800.201	626.483
381.029	22.498	799.781	625.198
382.044	22.483	798.981	624.466
383.059	22.720	798.637	624.979
384.073	22.819	798.306	625.014
385.088	22.836	797.540	624.422
386.102	22.755	797.328	623.912
387.117	22.588	796.365	622.515
388.132	22.585	795.931	622.111
389.146	22.367	795.083	620.623
390.161	21.837	794.506	618.249
391.175	21.783	793.889	617.525
392.190	22.370	793.901	619.547
393.205	22.449	793.202	619.225
394.219	21.499	791.776	614.722
395.234	19.884	789.930	607.568
396.248	19.370	788.350	604.495
397.263	20.278	789.594	608.585
398.278	22.267	790.657	616.327
399.292	22.436	790.853	617.016
400.307	22.139	789.951	615.221
401.321	22.075	789.400	614.512
402.336	22.288	789.188	615.039
403.350	22.462	789.143	615.555
404.365	22.813	789.078	616.678
405.380	23.228	788.618	617.711
406.394	23.267	788.744	617.892
407.409	23.463	787.824	617.799
408.423	23.482	787.062	617.211
409.438	23.365	786.574	616.370
410.453	23.364	786.631	616.356
411.467	23.488	786.074	616.297
412.482	23.427	785.648	615.694
413.496	23.239	785.269	614.692
414.511	23.494	784.595	614.993
415.526	23.433	784.113	614.349
416.540	23.434	783.971	614.187
417.555	23.351	783.663	613.604
418.569	23.107	782.740	611.983
419.584	23.021	782.109	611.137
420.599	23.120	781.646	611.065
421.613	157.453	1364.635	1798.774
422.628	136.065	1449.563	1798.877
