DTS Sentinel unit serial number:	SN413079Multiplexer serial number:	ORYXHardware model number:	OX4-SRSoftware version number:	ORYX F/W v4.00 Oryx Data Collector v3.7.2.0data status	okinstallation	princeton_trtdifferential loss correction	single-endedforward channel	channel 3reverse channel	N/Adate	2019/09/14time	09:00:35forward acquisition time	60.00reverse acquisition time	0.00gamma	496.2192k internal	0.2324k external	0.2324temperature offset calibration	1.0057default loss term (dB/km)	0.3790temperature slope calibration	1.0000multiplexer offset coefficient	1.0000multiplexer slope coefficient	1.0000fibre end	0.00T internal ref (°C)	29.91T ext. ref 1 (°C)	3.73T ext. ref 2 (°C)	28.26length (m)	temperature (°C)	Stokes	anti-Stokes-747.200	65.910	0.089	-0.091
-746.185	328.378	-0.046	-0.089
-745.171	-40.991	0.051	-0.027
-744.156	581.561	0.175	0.432
-743.142	194.215	-0.157	0.241
-742.127	-46.466	-0.302	-0.149
-741.112	13.242	-0.087	0.068
-740.098	468.409	-0.097	0.219
-739.083	-73.303	-0.158	0.058
-738.069	49.856	-0.082	-0.078
-737.054	56.941	-0.154	-0.152
-736.039	56.667	-0.217	0.213
-735.025	-66.327	0.280	-0.112
-734.010	203.204	-0.132	-0.207
-732.996	-24.336	-0.224	-0.135
-731.981	123.083	0.073	-0.092
-730.966	-77.763	-0.396	0.138
-729.952	-200.000	0.037	-0.194
-728.937	483.434	-0.112	0.257
-727.923	342.347	0.083	0.165
-726.908	-200.000	0.005	-0.025
-725.894	456.644	-0.225	-0.503
-724.879	800.000	0.090	0.252
-723.864	320.323	-0.162	0.309
-722.850	485.084	-0.072	-0.165
-721.835	-92.223	0.355	-0.101
-720.821	4.698	0.107	-0.079
-719.806	800.000	-0.083	-0.245
-718.791	800.000	0.061	-0.195
-717.777	-200.000	0.026	0.197
-716.762	-11.836	-0.208	-0.138
-715.748	-200.000	0.011	-0.062
-714.733	474.308	0.177	0.403
-713.718	-200.000	0.024	-0.268
-712.704	4.652	0.208	-0.154
-711.689	-28.420	-0.220	0.128
-710.675	11.659	0.037	0.029
-709.660	328.720	0.093	0.180
-708.645	-84.432	0.194	0.062
-707.631	-70.884	0.104	0.039
-706.616	-200.000	-0.034	-0.192
-705.602	92.521	-0.147	0.167
-704.587	76.583	0.204	0.218
-703.572	-131.730	-0.208	-0.027
-702.558	-90.196	0.142	-0.041
-701.543	12.544	0.242	-0.188
-700.529	134.741	0.026	0.034
-699.514	-164.234	0.125	-0.006
-698.499	-45.698	0.043	-0.021
-697.485	535.556	-0.085	-0.203
-696.470	93.272	-0.064	-0.073
-695.456	800.000	0.022	0.069
-694.441	-142.393	0.257	0.026
-693.426	-94.329	0.264	0.073
-692.412	17.955	-0.141	-0.113
-691.397	800.000	-0.029	0.115
-690.383	626.836	0.070	-0.177
-689.368	-200.000	-0.013	-0.364
-688.354	800.000	-0.086	-0.278
-687.339	-200.000	-0.012	-0.056
-686.324	800.000	0.138	-0.438
-685.310	-41.189	-0.092	-0.048
-684.295	-17.150	0.203	0.129
-683.281	-200.000	0.013	0.100
-682.266	800.000	0.045	-0.155
-681.251	11.837	-0.137	-0.106
-680.237	17.615	-0.161	-0.129
-679.222	-200.000	-0.055	0.300
-678.208	800.000	0.129	-0.373
-677.193	-200.000	-0.046	0.321
-676.178	800.000	0.059	0.191
-675.164	-56.205	0.069	-0.031
-674.149	-200.000	-0.023	-0.178
-673.135	-0.370	0.141	-0.101
-672.120	-15.330	-0.088	-0.056
-671.105	800.000	-0.137	-0.554
-670.091	-181.392	-0.074	-0.001
-669.076	-200.000	-0.076	-0.390
-668.062	133.547	0.139	0.181
-667.047	-200.000	0.011	0.145
-666.032	800.000	-0.010	0.037
-665.018	800.000	0.102	0.316
-664.003	324.611	0.239	0.459
-662.989	-155.476	-0.260	0.017
-661.974	169.689	0.141	0.203
-660.959	231.243	0.101	-0.166
-659.945	-32.595	-0.110	0.061
-658.930	-96.859	-0.032	0.008
-657.916	365.808	0.149	-0.301
-656.901	-200.000	-0.029	0.215
-655.886	-200.000	-0.006	0.311
-654.872	238.092	0.240	0.402
-653.857	-29.918	-0.123	-0.071
-652.843	-15.889	0.321	-0.206
-651.828	-56.823	0.101	0.045
-650.814	-141.838	0.131	-0.013
-649.799	132.563	-0.196	-0.254
-648.784	-180.161	-0.397	0.008
-647.770	800.000	-0.084	-0.279
-646.755	800.000	0.067	-0.235
-645.741	91.259	-0.233	-0.263
-644.726	243.277	-0.130	-0.218
-643.711	-200.000	-0.034	-0.214
-642.697	-108.770	0.422	-0.091
-641.682	-105.650	0.178	0.041
-640.668	647.607	0.072	0.185
-639.653	-50.059	0.144	-0.069
-638.638	-123.845	-0.133	0.021
-637.624	57.255	0.159	0.156
-636.609	-97.940	-0.217	-0.056
-635.595	-200.000	-0.002	0.061
-634.580	150.606	-0.125	-0.171
-633.565	118.808	0.124	-0.154
-632.551	-108.358	0.212	-0.046
-631.536	-200.000	-0.010	0.084
-630.522	19.281	-0.184	0.149
-629.507	-200.000	0.007	-0.214
-628.492	201.008	-0.177	-0.274
-627.478	-131.945	-0.079	0.010
-626.463	-3.235	0.338	0.237
-625.449	-149.690	0.138	-0.011
-624.434	-200.000	-0.031	0.183
-623.419	-200.000	0.032	-0.158
-622.405	60.413	-0.165	0.164
-621.390	800.000	-0.085	0.247
-620.376	-160.205	-0.028	-0.002
-619.361	-41.748	-0.294	-0.151
-618.346	-77.446	0.290	-0.101
-617.332	403.190	0.148	-0.312
-616.317	-37.660	0.065	-0.035
-615.303	-96.474	-0.180	-0.048
-614.288	-126.778	-0.008	-0.001
-613.273	651.257	0.045	-0.116
-612.259	-200.000	-0.021	0.206
-611.244	800.000	-0.075	-0.265
-610.230	-89.590	0.167	-0.049
-609.215	-123.061	0.062	-0.010
-608.201	800.000	0.046	-0.186
-607.186	-136.317	0.382	-0.045
-606.171	-62.006	-0.032	0.013
-605.157	800.000	0.068	-0.260
-604.142	-178.687	0.310	-0.007
-603.128	28.075	-0.078	0.066
-602.113	-12.682	-0.104	0.068
-601.098	800.000	-0.063	0.244
-600.084	-79.429	-0.262	-0.089
-599.069	85.865	0.104	-0.115
-598.055	-175.106	0.478	0.013
-597.040	81.725	-0.025	-0.027
-596.025	-200.000	0.052	-0.371
-595.011	246.865	0.076	0.129
-593.996	68.638	-0.076	-0.078
-592.982	275.602	-0.115	0.205
-591.967	-75.261	-0.146	0.052
-590.952	-28.106	0.109	0.063
-589.938	-115.132	-0.340	-0.065
-588.923	800.000	0.044	0.123
-587.909	800.000	-0.025	0.090
-586.894	187.494	0.112	0.168
-585.879	-42.944	-0.142	0.072
-584.865	98.922	-0.083	-0.096
-583.850	-92.433	0.150	-0.042
-582.836	172.611	-0.126	0.181
-581.821	-37.305	-0.098	0.052
-580.806	30.496	-0.152	0.130
-579.792	26.831	0.172	-0.144
-578.777	-10.868	0.213	-0.141
-577.763	21.358	-0.103	0.084
-576.748	126.944	-0.160	-0.203
-575.733	-200.000	0.020	0.281
-574.719	-200.000	-0.050	0.415
-573.704	-167.815	-0.194	0.008
-572.690	258.529	0.169	0.292
-571.675	44.613	-0.248	-0.228
-570.661	-200.000	-0.085	0.435
-569.646	-200.000	-0.093	0.511
-568.631	-17.412	-0.425	-0.268
-567.617	-200.000	0.009	-0.170
-566.602	-200.000	0.004	-0.095
-565.588	730.480	-0.055	0.148
-564.573	-142.533	0.270	-0.027
-563.558	693.381	0.078	-0.206
-562.544	29.011	-0.285	0.242
-561.529	-112.119	0.183	0.037
-560.515	-132.194	-0.240	-0.031
-559.500	145.680	-0.105	-0.141
-558.485	-65.333	0.128	-0.052
-557.471	47.106	-0.063	-0.059
-556.456	-15.470	-0.327	0.210
-555.442	28.043	0.094	-0.079
-554.427	-12.965	0.301	0.196
-553.412	-200.000	-0.022	-0.110
-552.398	800.000	-0.074	-0.236
-551.383	211.347	0.175	0.275
-550.369	-200.000	0.015	-0.117
-549.354	-146.910	0.124	-0.011
-548.339	-200.000	0.002	0.339
-547.325	-145.120	-0.399	0.036
-546.310	-151.676	-0.185	0.014
-545.296	55.196	0.129	-0.125
-544.281	95.122	-0.179	-0.204
-543.266	-98.087	0.133	-0.034
-542.252	-65.055	0.202	-0.082
-541.237	31.912	0.032	-0.028
-540.223	113.424	0.149	0.181
-539.208	800.000	-0.036	-0.106
-538.193	-25.399	0.124	0.073
-537.179	-133.969	0.006	0.001
-536.164	-87.201	0.075	0.023
-535.150	374.662	0.152	0.310
-534.135	286.832	-0.018	-0.032
-533.121	-115.187	0.139	-0.026
-532.106	-200.000	-0.011	0.166
-531.091	72.362	0.067	-0.069
-530.077	-151.812	-0.021	0.002
-529.062	-47.070	-0.131	0.064
-528.048	-195.341	-0.063	0.000
-527.033	-153.814	0.164	0.011
-526.018	6.724	-0.231	-0.172
-525.004	-81.463	-0.369	-0.121
-523.989	185.939	-0.105	0.156
-522.975	436.142	0.152	0.330
-521.960	-65.749	0.314	0.126
-520.945	-47.879	0.254	-0.123
-519.931	800.000	0.048	0.135
-518.916	-71.867	-0.294	-0.110
-517.902	-38.069	-0.276	-0.147
-516.887	34.996	-0.140	0.123
-515.872	-159.577	-0.293	-0.016
-514.858	169.170	0.077	-0.110
-513.843	45.322	0.055	-0.051
-512.829	-200.000	-0.063	0.388
-511.814	-65.869	-0.365	-0.146
-510.799	7.415	0.172	-0.128
-509.785	498.948	-0.048	-0.111
-508.770	-128.749	0.317	-0.045
-507.756	-46.575	0.149	0.073
-506.741	126.115	-0.319	0.403
-505.726	-63.493	-0.201	-0.083
-504.712	161.162	-0.377	-0.526
-503.697	800.000	0.167	-0.521
-502.683	737.116	-0.086	-0.231
-501.668	800.000	0.062	-0.237
-500.653	-41.688	-0.333	-0.171
-499.639	800.000	0.047	0.159
-498.624	-55.235	-0.257	0.115
-497.610	-6.183	0.200	0.137
-496.595	44.528	-0.184	0.169
-495.581	-200.000	-0.010	-0.150
-494.566	196.108	0.074	0.113
-493.551	800.000	-0.093	0.263
-492.537	-0.780	-0.139	0.099
-491.522	-135.107	-0.291	0.035
-490.508	18.990	0.103	0.082
-489.493	569.599	0.095	0.230
-488.478	32.292	-0.165	0.143
-487.464	-81.682	0.230	0.076
-486.449	1.717	-0.010	-0.007
-485.435	-169.171	0.135	-0.005
-484.420	273.898	0.077	-0.136
-483.405	415.752	-0.169	0.361
-482.391	29.243	-0.048	0.041
-481.376	154.874	0.082	-0.112
-480.362	99.288	0.224	-0.259
-479.347	800.000	-0.042	-0.147
-478.332	504.862	-0.042	0.098
-477.318	-123.020	-0.220	-0.035
-476.303	-200.000	-0.002	0.019
-475.289	4.424	-0.250	0.183
-474.274	625.633	0.040	0.100
-473.259	-200.000	0.005	0.132
-472.245	432.878	-0.063	-0.137
-471.230	200.074	0.048	-0.073
-470.216	58.859	0.029	-0.029
-469.201	454.505	0.094	0.208
-468.186	314.939	0.112	-0.211
-467.172	-15.878	0.041	-0.026
-466.157	26.946	-0.265	0.222
-465.143	800.000	-0.077	-0.239
-464.128	-200.000	-0.036	-0.240
-463.113	319.193	-0.083	0.158
-462.099	-101.613	-0.029	0.007
-461.084	-44.268	-0.085	-0.043
-460.070	27.598	0.089	-0.074
-459.055	745.729	0.035	-0.095
-458.040	-59.326	0.300	-0.129
-457.026	163.154	-0.274	-0.384
-456.011	-35.341	0.288	0.156
-454.997	127.871	-0.101	-0.129
-453.982	800.000	-0.126	0.366
-452.968	800.000	-0.020	-0.062
-451.953	45.302	-0.064	0.059
-450.938	345.171	0.129	0.253
-449.924	-92.808	-0.159	-0.044
-448.909	-200.000	0.018	-0.319
-447.895	57.546	0.093	-0.090
-446.880	-97.925	0.292	0.075
-445.865	800.000	-0.058	-0.249
-444.851	-160.626	0.143	0.008
-443.836	438.718	-0.109	0.238
-442.822	-200.000	0.013	0.317
-441.807	-119.263	-0.193	0.033
-440.792	-200.000	0.067	0.365
-439.778	6.833	0.122	0.091
-438.763	-186.251	-0.268	0.004
-437.749	19.082	-0.095	0.076
-436.734	141.282	0.185	0.244
-435.719	-6.363	-0.059	0.040
-434.705	74.790	0.234	-0.245
-433.690	-19.136	-0.187	-0.116
-432.676	-69.401	-0.106	-0.040
-431.661	153.221	-0.037	0.050
-430.646	541.876	-0.097	0.231
-429.632	474.752	-0.031	0.070
-428.617	-200.000	-0.039	0.333
-427.603	99.657	-0.149	0.172
-426.588	-80.718	0.338	-0.112
-425.573	-160.313	-0.143	0.008
-424.559	-97.294	0.187	0.049
-423.544	337.664	-0.157	0.304
-422.530	52.681	-0.088	-0.084
-421.515	22.365	-0.046	0.037
-420.500	-93.457	0.125	-0.035
-419.486	102.124	-0.105	0.122
-418.471	221.601	0.170	0.273
-417.457	-19.346	-0.205	0.127
-416.442	-200.000	-0.029	0.184
-415.428	305.313	0.213	-0.395
-414.413	87.771	0.069	-0.076
-413.398	-11.493	-0.160	0.105
-412.384	-33.552	0.215	-0.118
-411.369	88.890	0.173	0.192
-410.355	-39.564	-0.223	0.116
-409.340	-95.918	0.287	-0.076
-408.325	645.204	-0.023	0.057
-407.311	-26.473	-0.405	0.236
-406.296	-110.893	-0.231	-0.047
-405.282	-102.835	0.080	-0.019
-404.267	800.000	0.094	0.263
-403.252	-71.207	0.213	-0.080
-402.238	377.452	0.079	0.160
-401.223	272.147	-0.082	0.145
-400.209	122.132	-0.203	-0.252
-399.194	800.000	-0.074	-0.306
-398.179	192.446	0.210	0.315
-397.165	-200.000	-0.001	0.032
-396.150	-200.000	-0.035	0.186
-395.136	191.481	0.138	-0.207
-394.121	-66.298	0.257	-0.102
-393.106	-35.980	0.131	-0.070
-392.092	-10.239	-0.280	-0.185
-391.077	-122.279	0.128	-0.021
-390.063	97.896	0.049	0.057
-389.048	-200.000	-0.043	-0.245
-388.033	596.555	0.097	-0.240
-387.019	-200.000	-0.016	0.144
-386.004	-41.384	-0.101	0.052
-384.990	331.130	0.047	0.090
-383.975	-137.558	-0.278	0.031
-382.960	223.849	0.041	-0.066
-381.946	-200.000	0.023	0.115
-380.931	800.000	-0.077	-0.278
-379.917	49.151	0.047	0.044
-378.902	23.423	0.383	-0.313
-377.888	-200.000	0.030	0.176
-376.873	-30.999	0.201	-0.113
-375.858	128.711	-0.084	-0.107
-374.844	-58.810	0.225	0.097
-373.829	-89.868	-0.383	-0.111
-372.815	91.107	-0.121	0.135
-371.800	230.182	0.072	0.118
-370.785	-144.861	-0.215	0.020
-369.771	-54.346	-0.386	0.174
-368.756	-58.135	0.297	0.129
-367.742	110.637	0.180	-0.215
-366.727	-176.665	-0.182	-0.005
-365.712	-200.000	-0.017	-0.172
-364.698	-125.605	-0.299	-0.045
-363.683	-113.184	0.299	-0.059
-362.669	-120.116	0.253	0.043
-361.654	-66.282	-0.204	-0.081
-360.639	335.439	-0.149	0.286
-359.625	-34.991	-0.357	-0.193
-358.610	36.509	0.085	0.074
-357.596	299.276	-0.110	-0.201
-356.581	144.498	0.146	-0.194
-355.566	150.018	0.184	-0.247
-354.552	9.491	0.358	-0.270
-353.537	-138.540	0.161	-0.018
-352.523	26.762	0.182	0.151
-351.508	-21.111	0.087	0.053
-350.493	115.398	0.060	-0.073
-349.479	580.314	0.053	-0.130
-348.464	119.815	0.093	0.115
-347.450	15.622	0.208	0.162
-346.435	-200.000	0.033	-0.426
-345.420	-161.112	0.086	0.004
-344.406	378.150	0.044	-0.089
-343.391	-75.098	0.103	-0.036
-342.377	66.589	0.118	-0.120
-341.362	60.048	-0.107	0.105
-340.348	800.000	-0.060	-0.260
-339.333	-4.297	0.136	-0.094
-338.318	-100.295	-0.316	0.078
-337.304	235.154	-0.106	-0.174
-336.289	-200.000	0.034	-0.199
-335.275	-57.461	-0.289	0.126
-334.260	-92.479	-0.243	-0.068
-333.245	161.734	-0.171	-0.238
-332.231	800.000	-0.034	0.124
-331.216	800.000	0.042	-0.153
-330.202	134.003	-0.174	0.224
-329.187	-165.716	-0.229	0.010
-328.172	800.000	-0.013	-0.040
-327.158	-123.243	0.220	-0.035
-326.143	-88.509	0.186	0.055
-325.129	-200.000	-0.007	0.229
-324.114	-59.590	0.105	0.045
-323.099	-200.000	-0.023	0.177
-322.085	800.000	0.053	-0.149
-321.070	335.092	0.089	-0.171
-320.056	142.449	-0.213	0.281
-319.041	-158.406	-0.126	-0.007
-318.026	800.000	-0.057	0.194
-317.012	-70.837	-0.180	-0.067
-315.997	-164.057	0.347	0.016
-314.983	800.000	-0.064	-0.224
-313.968	-70.684	-0.254	-0.095
-312.953	-200.000	-0.022	0.146
-311.939	800.000	0.072	-0.300
-310.924	-200.000	-0.006	-0.469
-309.910	743.538	0.135	-0.361
-308.895	-146.295	-0.237	-0.021
-307.880	-200.000	0.011	0.230
-306.866	-126.614	-0.073	-0.011
-305.851	120.926	0.151	0.187
-304.837	154.758	-0.151	-0.206
-303.822	-41.510	0.407	-0.207
-302.807	-59.229	0.070	0.030
-301.793	-156.943	-0.188	-0.011
-300.778	-155.918	0.125	0.008
-299.764	73.226	-0.191	-0.198
-298.749	-90.394	0.288	0.083
-297.735	-200.000	0.033	0.219
-296.720	371.690	-0.030	0.060
-295.705	-71.929	0.533	0.197
-294.691	-102.273	0.010	-0.002
-293.676	-200.000	-0.010	-0.077
-292.662	-200.000	-0.030	0.129
-291.647	-116.146	-0.032	0.006
-290.632	800.000	-0.039	0.121
-289.618	-17.582	-0.242	-0.151
-288.603	230.245	-0.111	0.179
-287.589	-129.494	0.081	0.011
-286.574	127.702	0.233	0.294
-285.559	-125.248	-0.206	-0.031
-284.545	139.474	0.168	0.219
-283.530	-112.793	0.299	0.059
-282.516	-82.525	0.401	0.129
-281.501	-23.433	0.248	-0.148
-280.486	18.263	0.056	-0.044
-279.472	-50.372	-0.076	-0.036
-278.457	-46.854	0.087	-0.042
-277.443	78.315	-0.203	0.215
-276.428	7.263	0.017	0.012
-275.413	800.000	-0.070	-0.212
-274.399	-44.775	0.071	0.035
-273.384	181.494	-0.212	-0.309
-272.370	-200.000	-0.045	0.207
-271.355	-62.807	-0.253	-0.104
-270.340	-80.349	0.325	0.108
-269.326	-200.000	-0.026	-0.114
-268.311	-150.918	0.275	-0.021
-267.297	-123.666	0.158	-0.025
-266.282	-67.289	0.193	-0.075
-265.267	193.398	-0.168	0.252
-264.253	800.000	0.087	-0.342
-263.238	800.000	0.054	-0.183
-262.224	-68.574	0.350	0.134
-261.209	-92.459	0.257	0.072
-260.195	-200.000	-0.007	0.126
-259.180	11.735	-0.211	-0.160
-258.165	-154.456	0.152	-0.010
-257.151	-41.883	0.397	0.202
-256.136	3.405	-0.207	-0.149
-255.122	-91.063	0.015	0.004
-254.107	-19.158	-0.224	0.138
-253.092	395.406	-0.174	0.359
-252.078	74.256	-0.152	0.158
-251.063	94.663	-0.107	0.121
-250.049	11.187	-0.134	0.101
-249.034	-180.507	-0.209	0.004
-248.019	-20.453	0.106	-0.064
-247.005	-39.239	0.160	0.083
-245.990	122.490	0.273	0.337
-244.976	51.143	0.228	0.214
-243.961	370.340	-0.095	0.191
-242.946	93.937	-0.111	0.125
-241.932	154.115	-0.064	0.087
-240.917	459.145	0.071	0.155
-239.903	-200.000	-0.028	0.399
-238.888	-80.670	-0.533	0.175
-237.873	55.474	0.295	-0.282
-236.859	-128.683	-0.315	0.044
-235.844	-200.000	0.014	-0.375
-234.830	800.000	-0.029	-0.111
-233.815	705.151	0.091	-0.237
-232.800	-77.435	-0.149	-0.051
-231.786	-64.054	0.176	0.071
-230.771	800.000	-0.120	-0.336
-229.757	800.000	-0.091	-0.390
-228.742	286.449	-0.156	-0.278
-227.727	-42.378	-0.054	-0.027
-226.713	-200.000	-0.064	-0.304
-225.698	0.442	-0.243	-0.172
-224.684	15.926	0.221	0.172
-223.669	22.214	-0.230	0.186
-222.655	0.588	0.283	-0.200
-221.640	-200.000	0.034	-0.207
-220.625	-75.252	0.110	0.039
-219.611	800.000	-0.033	-0.104
-218.596	-85.272	0.281	0.087
-217.582	29.593	0.112	0.094
-216.567	800.000	0.109	-0.366
-215.552	-200.000	0.038	0.298
-214.538	22.404	-0.030	-0.024
-213.523	-200.000	0.071	-0.310
-212.509	6.264	-0.085	0.063
-211.494	-129.031	0.086	-0.012
-210.479	-121.883	0.268	0.044
-209.465	-77.542	0.025	-0.009
-208.450	-12.335	0.267	0.172
-207.436	137.227	-0.047	0.060
-206.421	470.982	-0.170	-0.378
-205.406	-166.308	0.085	-0.004
-204.392	121.145	-0.140	0.173
-203.377	-132.777	-0.289	-0.036
-202.363	-200.000	0.012	-0.107
-201.348	544.120	0.081	0.192
-200.333	-24.379	0.369	0.217
-199.319	-43.762	-0.175	-0.087
-198.304	800.000	0.118	0.387
-197.290	-67.199	-0.147	-0.057
-196.275	-11.410	-0.095	0.062
-195.260	43.481	-0.137	-0.123
-194.246	-94.293	0.377	-0.102
-193.231	47.218	-0.193	-0.177
-192.217	378.596	0.203	0.411
-191.202	800.000	0.077	0.304
-190.187	73.968	-0.188	0.194
-189.173	-180.851	-0.199	-0.004
-188.158	-4.133	0.195	-0.133
-187.144	-200.000	-0.054	0.350
-186.129	800.000	0.053	0.174
-185.114	-87.554	-0.074	0.022
-184.100	-37.508	-0.239	-0.126
-183.085	97.480	0.323	-0.366
-182.071	342.952	0.010	-0.019
-181.056	30.293	-0.277	-0.234
-180.042	26.352	0.076	0.063
-179.027	-127.752	0.229	0.033
-178.012	440.180	-0.082	0.178
-176.998	38.326	-0.073	-0.064
-175.983	-105.041	0.100	0.023
-174.969	303.540	0.075	0.137
-173.954	53.917	-0.085	0.080
-172.939	800.000	-0.069	-0.192
-171.925	100.889	-0.194	-0.223
-170.910	243.514	0.064	-0.106
-169.896	-63.975	-0.214	0.086
-168.881	460.452	0.198	0.435
-167.866	112.156	0.054	-0.065
-166.852	-200.000	0.006	0.180
-165.837	800.000	-0.128	0.378
-164.823	-20.871	0.243	-0.147
-163.808	112.780	0.133	-0.159
-162.793	-19.452	-0.289	0.177
-161.779	160.119	-0.085	0.117
-160.764	132.934	-0.082	-0.104
-159.750	138.721	-0.207	0.269
-158.735	-200.000	0.002	-0.089
-157.720	29.782	0.140	-0.117
-156.706	82.970	0.181	-0.195
-155.691	168.948	0.183	0.257
-154.677	33.381	0.198	-0.169
-153.662	800.000	0.052	-0.184
-152.647	-1.823	0.147	-0.102
-151.633	106.121	0.173	-0.203
-150.618	800.000	0.066	-0.196
-149.604	-14.584	-0.280	0.177
-148.589	91.423	0.230	-0.255
-147.574	355.610	0.051	0.099
-146.560	-200.000	0.019	0.106
-145.545	39.419	0.118	-0.104
-144.531	67.119	-0.178	0.179
-143.516	6.123	0.162	0.119
-142.502	84.471	-0.203	-0.219
-141.487	3.187	-0.153	0.110
-140.472	12.901	-0.296	-0.225
-139.458	104.738	-0.204	-0.237
-138.443	54.668	-0.163	-0.155
-137.429	432.940	0.113	-0.241
-136.414	18.560	-0.166	-0.131
-135.399	800.000	-0.053	-0.203
-134.385	289.151	0.096	-0.172
-133.370	800.000	-0.031	-0.099
-132.356	-68.806	0.368	0.140
-131.341	-200.000	0.015	-0.370
-130.326	-97.927	0.137	0.035
-129.312	800.000	-0.028	-0.118
-128.297	27.092	-0.108	0.089
-127.283	109.253	-0.260	0.307
-126.268	54.375	-0.056	-0.053
-125.253	246.799	-0.079	-0.131
-124.239	800.000	-0.030	-0.087
-123.224	-98.048	0.124	0.031
-122.210	-3.087	-0.120	0.082
-121.195	19.025	-0.094	-0.075
-120.180	-200.000	-0.006	-0.080
-119.166	800.000	0.019	-0.061
-118.151	658.426	-0.072	-0.183
-117.137	800.000	0.024	-0.069
-116.122	800.000	-0.082	0.244
-115.107	-6.378	-0.072	-0.048
-114.093	72.113	0.132	0.136
-113.078	3.135	-0.282	0.202
-112.064	-87.587	0.107	0.032
-111.049	243.588	0.255	-0.420
-110.034	800.000	-0.031	-0.105
-109.020	606.381	0.089	0.219
-108.005	800.000	-0.043	0.150
-106.991	-18.002	-0.126	0.078
-105.976	-84.996	-0.254	-0.078
-104.962	-45.239	0.251	-0.123
-103.947	74.950	0.146	-0.151
-102.932	206.157	-0.033	-0.050
-101.918	3.567	-0.085	0.061
-100.903	195.518	-0.074	-0.110
-99.889	-200.000	0.027	-0.247
-98.874	800.000	-0.092	0.264
-97.859	-81.205	-0.260	-0.085
-96.845	-200.000	0.029	0.233
-95.830	-200.000	0.123	-0.553
-94.816	-30.300	-0.169	-0.095
-93.801	-129.692	0.175	0.024
-92.786	-111.482	0.243	-0.049
-91.772	270.425	0.146	-0.253
-90.757	71.421	-0.040	0.040
-89.743	176.637	0.096	-0.138
-88.728	-124.870	0.068	-0.010
-87.713	18.145	0.211	0.166
-86.699	800.000	-0.042	0.140
-85.684	-200.000	0.098	-0.435
-84.670	691.232	0.150	-0.386
-83.655	66.549	0.230	-0.230
-82.640	326.447	-0.103	-0.195
-81.626	-200.000	-0.011	-0.166
-80.611	-97.654	0.368	-0.094
-79.597	-27.636	-0.347	0.198
-78.582	159.224	-0.227	0.310
-77.567	-31.770	0.166	0.092
-76.553	-165.939	0.311	-0.013
-75.538	-96.544	0.153	0.040
-74.524	800.000	0.047	0.197
-73.509	118.963	0.153	0.185
-72.494	-57.585	0.208	0.090
-71.480	-11.436	0.130	0.084
-70.465	-71.750	-0.075	-0.027
-69.451	800.000	0.071	-0.216
-68.436	-134.766	-0.344	-0.041
-67.422	-1.842	0.210	0.145
-66.407	-29.825	0.076	0.043
-65.392	162.760	-0.081	-0.111
-64.378	237.069	-0.151	0.246
-63.363	-200.000	0.053	0.265
-62.349	229.775	0.106	-0.170
-61.334	55.774	-0.954	-0.908
-60.319	88.529	0.132	0.144
-59.305	800.000	-0.238	-0.848
-58.290	98.160	0.668	0.756
-57.276	575.491	0.635	1.523
-56.261	-200.000	101.206	583.322
-55.246	527.612	1448.362	3355.062
-54.232	181.661	2656.929	3841.282
-53.217	113.931	2194.252	2620.931
-52.203	40.692	1714.508	1518.341
-51.188	32.897	1521.221	1293.943
-50.173	30.650	1493.842	1255.453
-49.159	51.034	1547.396	1441.068
-48.144	51.670	1564.585	1461.389
-47.130	33.319	1522.519	1297.731
-46.115	30.266	1507.319	1263.963
-45.100	29.951	1503.780	1258.809
-44.086	30.001	1501.333	1257.051
-43.071	29.857	1499.507	1254.492
-42.057	29.900	1497.826	1253.330
-41.042	29.880	1496.410	1251.960
-40.027	29.924	1494.905	1250.943
-39.013	29.898	1493.235	1249.323
-37.998	29.868	1491.978	1248.018
-36.984	29.878	1490.761	1247.022
-35.969	29.956	1489.606	1246.527
-34.954	29.877	1488.227	1244.798
-33.940	29.819	1487.268	1243.556
-32.925	29.907	1485.377	1242.513
-31.911	29.883	1484.091	1241.229
-30.896	29.927	1482.685	1240.298
-29.881	29.915	1481.531	1239.199
-28.867	30.025	1480.242	1238.808
-27.852	29.936	1479.412	1237.469
-26.838	29.964	1477.437	1235.957
-25.823	29.922	1475.694	1234.171
-24.809	29.990	1474.250	1233.366
-23.794	29.970	1472.592	1231.797
-22.779	29.953	1472.108	1231.228
-21.765	29.965	1470.580	1229.981
-20.750	29.954	1469.762	1229.180
-19.736	29.931	1468.015	1227.518
-18.721	29.854	1467.379	1226.427
-17.706	29.926	1466.348	1225.989
-16.692	29.951	1465.689	1225.555
-15.677	29.991	1464.450	1224.734
-14.663	29.887	1463.339	1223.075
-13.648	29.895	1462.328	1222.230
-12.633	29.928	1461.493	1221.701
-11.619	29.932	1460.613	1220.942
-10.604	29.898	1459.716	1219.921
-9.590	29.851	1458.365	1218.433
-8.575	29.870	1457.612	1217.884
-7.560	29.857	1456.976	1217.217
-6.546	29.835	1456.258	1216.428
-5.531	29.836	1455.272	1215.560
-4.517	29.843	1454.476	1214.895
-3.502	29.908	1453.014	1214.051
-2.487	29.865	1452.514	1213.302
-1.473	29.826	1451.007	1211.736
-0.458	29.910	1449.878	1211.298
0.556	30.560	1440.926	1203.054
1.571	28.532	1416.544	1169.678
2.586	25.770	1357.075	1103.571
3.600	24.473	1274.964	1029.236
4.615	22.896	1228.837	983.141
5.629	19.078	1172.003	917.275
6.644	10.753	1087.590	809.794
7.659	4.735	1048.251	751.443
8.673	3.843	1042.551	743.004
9.688	3.742	1039.586	740.343
10.702	3.620	1038.615	739.001
11.717	3.726	1036.643	738.040
12.731	6.138	1038.827	751.066
13.746	14.087	1049.250	796.764
14.761	19.609	1055.926	828.314
15.775	19.878	1055.583	829.263
16.790	19.123	1054.028	824.355
17.804	18.065	1051.689	817.396
18.819	17.197	1050.249	812.058
19.834	16.708	1049.108	808.765
20.848	16.553	1047.504	806.718
21.863	16.484	1046.869	805.833
22.877	16.184	1046.225	803.836
23.892	16.006	1045.350	802.241
24.907	15.829	1044.886	800.976
25.921	15.852	1044.000	800.335
26.936	15.903	1043.586	800.189
27.950	16.036	1041.936	799.482
28.965	15.767	1041.584	797.865
29.980	16.106	1039.950	798.147
30.994	16.211	1038.923	797.786
32.009	16.245	1037.924	797.109
33.023	16.262	1037.279	796.622
34.038	16.148	1036.631	795.521
35.053	16.190	1035.558	794.821
36.067	16.000	1034.642	793.156
37.082	15.941	1033.919	792.251
38.096	16.043	1032.949	791.919
39.111	16.212	1032.258	792.110
40.126	16.180	1031.305	791.162
41.140	15.998	1030.654	789.739
42.155	15.868	1029.112	787.880
43.169	15.756	1028.426	786.760
44.184	15.621	1027.136	785.073
45.199	15.706	1025.872	784.434
46.213	15.693	1024.972	783.614
47.228	15.710	1024.034	782.909
48.242	15.951	1023.344	783.433
49.257	15.991	1022.110	782.606
50.271	16.019	1021.146	781.927
51.286	16.043	1020.677	781.609
52.301	15.988	1020.057	780.811
53.315	16.084	1018.998	780.374
54.330	15.927	1018.186	778.959
55.344	15.990	1017.627	778.753
56.359	15.877	1016.156	777.035
57.374	15.740	1015.664	775.958
58.388	15.868	1014.445	775.549
59.403	15.598	1014.239	774.080
60.417	15.790	1013.177	774.086
61.432	15.688	1012.630	773.128
62.447	15.722	1011.530	772.375
63.461	15.534	1010.817	770.903
64.476	15.611	1009.908	770.495
65.490	15.654	1008.652	769.663
66.505	15.531	1007.804	768.383
67.520	15.615	1007.086	768.156
68.534	15.647	1006.230	767.580
69.549	15.522	1005.968	766.741
70.563	15.528	1005.174	766.096
71.578	15.524	1004.453	765.458
72.593	15.567	1003.665	764.987
73.607	15.415	1002.389	763.254
74.622	15.413	1001.400	762.425
75.636	15.443	1000.485	761.798
76.651	15.503	999.802	761.483
77.666	15.545	999.094	761.068
78.680	15.567	998.352	760.535
79.695	15.500	997.816	759.755
80.709	15.562	996.908	759.276
81.724	15.554	996.193	758.627
82.739	15.667	995.577	758.604
83.753	15.773	995.251	758.765
84.768	15.884	994.597	758.701
85.782	16.079	993.586	758.738
86.797	16.244	992.570	758.637
87.812	16.226	991.949	758.017
88.826	15.976	991.216	756.266
89.841	16.031	990.037	755.546
90.855	16.044	989.545	755.160
91.870	16.074	988.942	754.768
92.884	16.129	987.931	754.179
93.899	16.102	987.067	753.328
94.914	15.952	987.059	752.586
95.928	16.216	985.338	752.384
96.943	16.376	984.771	752.601
97.957	16.089	984.369	750.947
98.972	16.163	983.678	750.683
99.987	16.084	982.785	749.584
101.001	16.088	981.909	748.869
102.016	16.134	980.942	748.269
103.030	16.048	980.476	747.463
104.045	16.103	979.411	746.831
105.060	16.177	978.348	746.280
106.074	16.060	977.142	744.776
107.089	15.844	976.704	743.425
108.103	15.783	975.719	742.337
109.118	15.712	974.635	741.134
110.133	15.700	973.679	740.290
111.147	15.704	972.731	739.523
112.162	15.679	972.438	739.122
113.176	15.694	971.288	738.250
114.191	15.766	970.415	737.839
115.206	15.860	969.911	737.800
116.220	15.820	969.159	736.986
117.235	15.762	968.112	735.873
118.249	15.768	967.567	735.418
119.264	15.784	966.485	734.605
120.279	15.715	965.486	733.477
121.293	15.584	965.095	732.545
122.308	15.601	964.178	731.858
123.322	15.678	962.888	731.147
124.337	15.532	962.286	729.990
125.352	15.568	960.730	728.901
126.366	15.612	959.648	728.207
127.381	15.555	959.092	727.474
128.395	15.631	958.018	726.927
129.410	15.706	957.165	726.538
130.424	15.668	956.340	725.681
131.439	15.572	955.571	724.620
132.454	15.820	954.829	725.061
133.468	15.866	954.232	724.743
134.483	15.756	953.810	723.887
135.497	15.821	952.889	723.402
136.512	15.769	952.389	722.735
137.527	15.824	951.408	722.164
138.541	15.737	950.854	721.306
139.556	15.812	949.947	720.877
140.570	15.795	949.258	720.216
141.585	15.904	948.570	720.095
142.600	15.955	948.308	720.052
143.614	16.049	947.583	719.838
144.629	15.973	947.027	719.027
145.643	16.216	945.964	719.193
146.658	16.130	945.237	718.209
147.673	16.031	944.140	716.892
148.687	15.988	943.037	715.807
149.702	15.914	942.310	714.881
150.716	15.898	941.284	713.968
151.731	15.981	940.416	713.602
152.746	15.944	939.708	712.842
153.760	15.955	939.012	712.297
154.775	15.892	938.759	711.777
155.789	16.020	937.998	711.679
156.804	16.096	937.448	711.520
157.819	16.051	936.527	710.567
158.833	16.130	935.568	710.108
159.848	16.369	935.348	710.886
160.862	16.330	934.551	710.053
161.877	16.265	933.850	709.184
162.892	16.037	932.934	707.469
163.906	15.870	931.784	705.834
164.921	15.886	930.774	705.074
165.935	15.846	929.853	704.145
166.950	15.995	928.874	703.965
167.964	16.134	927.901	703.747
168.979	16.163	926.878	703.028
169.994	16.080	925.968	701.928
171.008	16.041	924.873	700.876
172.023	16.095	924.371	700.658
173.037	16.074	923.965	700.201
174.052	16.151	923.491	700.101
175.067	16.268	922.487	699.759
176.081	16.179	921.402	698.508
177.096	16.000	920.849	697.285
178.110	15.927	920.086	696.345
179.125	16.007	919.018	695.807
180.140	16.097	918.592	695.793
181.154	16.249	917.739	695.710
182.169	16.222	917.398	695.279
183.183	16.160	916.745	694.467
184.198	16.237	916.171	694.288
185.213	16.250	915.835	694.028
186.227	16.412	915.055	694.039
187.242	16.278	914.103	692.707
188.256	16.412	913.540	692.769
189.271	16.381	913.258	692.366
190.286	16.543	912.227	692.185
191.300	16.421	911.054	690.737
192.315	16.082	910.644	688.978
193.329	15.931	909.813	687.671
194.344	16.093	908.941	687.614
195.359	16.061	908.765	687.290
196.373	16.185	908.125	687.250
197.388	16.185	907.828	686.964
198.402	16.396	907.426	687.457
199.417	16.514	906.871	687.454
200.432	16.689	906.105	687.524
201.446	16.664	905.866	687.182
202.461	16.742	905.170	686.908
203.475	16.869	905.149	687.348
204.490	16.777	904.174	686.174
205.504	16.658	903.866	685.396
206.519	16.574	902.504	683.962
207.534	16.370	901.870	682.598
208.548	16.487	901.339	682.611
209.563	16.546	900.245	681.956
210.577	16.583	899.669	681.610
211.592	16.610	899.172	681.283
212.607	16.678	898.511	680.993
213.621	16.743	898.255	681.002
214.636	16.744	897.654	680.491
215.650	16.607	896.845	679.267
216.665	16.706	896.184	679.104
217.680	16.775	895.560	678.845
218.694	16.761	895.505	678.690
219.709	16.822	894.853	678.379
220.723	16.816	894.265	677.848
221.738	16.836	893.710	677.449
222.753	16.754	892.777	676.353
223.767	16.766	892.202	675.904
224.782	16.810	891.597	675.563
225.796	16.959	890.379	675.173
226.811	17.017	889.724	674.849
227.826	17.076	889.160	674.594
228.840	16.894	888.509	673.317
229.855	16.890	887.832	672.729
230.869	16.858	887.299	672.140
231.884	16.984	886.451	671.938
232.899	16.779	885.807	670.578
233.913	16.897	884.803	670.224
234.928	16.810	884.304	669.445
235.942	16.735	883.544	668.513
236.957	16.740	882.982	668.047
237.972	16.590	882.551	667.072
238.986	16.660	882.023	666.888
240.001	16.737	881.092	666.428
241.015	16.767	880.595	666.111
242.030	16.820	879.580	665.495
243.045	16.877	879.367	665.500
244.059	16.987	878.480	665.198
245.074	17.002	877.692	664.603
246.088	16.959	877.272	664.057
247.103	16.955	876.758	663.592
248.117	17.048	876.299	663.550
249.132	17.140	875.873	663.530
250.147	17.317	875.395	663.802
251.161	17.380	875.059	663.731
252.176	17.516	874.428	663.726
253.190	17.548	873.512	663.097
254.205	17.589	872.916	662.745
255.220	17.614	872.368	662.366
256.234	17.534	871.815	661.579
257.249	17.608	871.234	661.366
258.263	17.680	870.385	660.941
259.278	17.503	870.459	660.253
260.293	17.493	869.641	659.534
261.307	17.686	868.549	659.393
262.322	17.763	868.545	659.630
263.336	17.831	867.650	659.155
264.351	17.771	866.945	658.330
265.366	17.805	866.368	657.965
266.380	17.782	865.618	657.251
267.395	17.805	865.273	657.018
268.409	17.801	864.167	656.105
269.424	17.610	863.858	655.079
270.439	17.602	863.206	654.495
271.453	17.557	862.467	653.704
272.468	17.718	861.115	653.238
273.482	17.606	860.694	652.433
274.497	17.661	860.121	652.150
275.512	17.730	859.621	651.977
276.526	17.666	858.720	650.991
277.541	17.593	858.436	650.439
278.555	17.577	857.850	649.876
279.570	17.750	857.121	649.928
280.585	17.954	856.700	650.325
281.599	17.961	856.032	649.789
282.614	17.931	855.560	649.258
283.628	17.900	854.895	648.580
284.643	17.696	854.394	647.368
285.657	17.753	853.865	647.127
286.672	17.659	853.181	646.193
287.687	17.745	852.870	646.228
288.701	17.883	852.075	646.091
289.716	17.792	851.354	645.142
290.730	17.766	851.322	644.962
291.745	17.972	850.278	644.892
292.760	17.884	849.549	643.950
293.774	17.913	848.983	643.573
294.789	18.097	848.453	643.808
295.803	18.053	848.209	643.401
296.818	17.919	847.216	642.084
297.833	17.755	847.059	641.293
298.847	17.877	846.126	640.987
299.862	17.897	845.838	640.789
300.876	17.999	844.814	640.338
301.891	18.056	844.174	640.011
302.906	18.008	843.540	639.291
303.920	18.139	843.086	639.383
304.935	18.253	842.336	639.182
305.949	18.408	841.726	639.240
306.964	18.341	841.060	638.430
307.979	18.101	840.655	637.170
308.993	18.052	840.186	636.578
310.008	18.208	839.902	636.888
311.022	18.176	839.429	636.353
312.037	18.252	838.713	636.037
313.052	18.097	838.209	635.021
314.066	18.166	837.216	634.469
315.081	18.019	836.652	633.440
316.095	18.141	835.813	633.202
317.110	18.039	835.634	632.631
318.125	18.143	834.854	632.369
319.139	18.175	834.511	632.174
320.154	18.141	834.200	631.757
321.168	18.144	833.550	631.218
322.183	18.115	833.032	630.663
323.197	18.280	832.311	630.670
324.212	18.132	831.979	629.818
325.227	18.276	831.525	629.947
326.241	18.294	830.671	629.311
327.256	18.159	830.004	628.254
328.270	18.177	829.715	628.047
329.285	18.185	829.038	627.505
330.300	18.233	828.003	626.844
331.314	18.162	827.996	626.524
332.329	18.093	827.650	625.954
333.343	18.396	827.041	626.545
334.358	18.369	826.275	625.813
335.373	18.464	825.792	625.739
336.387	18.331	825.586	625.041
337.402	18.360	825.130	624.745
338.416	18.646	823.990	624.871
339.431	18.679	823.680	624.698
340.446	18.653	823.419	624.351
341.460	18.827	822.556	624.275
342.475	18.738	822.065	623.521
343.489	18.830	821.330	623.242
344.504	18.786	820.918	622.715
345.519	18.908	820.785	623.001
346.533	18.957	820.074	622.586
347.548	18.900	819.639	621.993
348.562	18.848	818.978	621.249
349.577	18.755	818.302	620.344
350.592	18.586	817.718	619.237
351.606	18.593	817.203	618.818
352.621	18.580	816.895	618.483
353.635	18.727	816.139	618.384
354.650	18.709	815.856	618.051
355.665	18.566	815.942	617.547
356.679	18.776	815.049	617.572
357.694	18.812	814.567	617.279
358.708	18.903	813.676	616.877
359.723	18.744	813.837	616.374
360.738	18.892	812.915	616.153
361.752	18.878	812.735	615.913
362.767	18.717	812.611	615.186
363.781	18.832	811.653	614.817
364.796	18.955	811.620	615.180
365.810	19.111	810.972	615.189
366.825	19.120	810.757	615.005
367.840	19.195	810.425	614.966
368.854	19.225	810.130	614.794
369.869	19.134	809.314	613.799
370.883	19.076	808.610	613.002
371.898	19.156	808.077	612.827
372.913	19.102	807.609	612.229
373.927	19.267	806.957	612.267
374.942	19.192	806.546	611.633
375.956	19.352	805.522	611.370
376.971	19.391	805.114	611.145
377.986	19.291	804.686	610.411
379.000	19.380	804.165	610.278
380.015	19.487	803.880	610.383
381.029	19.308	803.214	609.194
382.044	19.333	802.717	608.851
383.059	19.457	801.876	608.595
384.073	19.387	801.486	607.998
385.088	19.361	801.166	607.610
386.102	19.274	800.359	606.638
387.117	19.192	799.588	605.712
388.132	19.151	799.411	605.381
389.146	19.279	798.609	605.170
390.161	19.232	798.693	605.015
391.175	19.418	798.407	605.396
392.190	19.415	797.912	604.956
393.205	19.468	797.277	604.609
394.219	19.291	797.179	603.861
395.234	19.475	796.310	603.793
396.248	19.279	796.107	602.900
397.263	19.216	795.315	602.027
398.278	19.027	795.030	601.096
399.292	19.174	794.698	601.305
400.307	19.094	793.951	600.408
401.321	19.245	793.853	600.809
402.336	19.239	793.535	600.495
403.350	19.309	792.862	600.176
404.365	19.314	792.646	599.975
405.380	19.404	792.072	599.801
406.394	19.602	791.414	599.938
407.409	19.645	790.836	599.595
408.423	19.515	791.011	599.224
409.438	19.795	790.357	599.648
410.453	19.947	789.642	599.576
411.467	19.773	789.993	599.188
412.482	19.769	789.589	598.814
413.496	19.823	788.820	598.364
414.511	19.854	788.552	598.217
415.526	19.951	788.086	598.146
416.540	19.857	787.859	597.594
417.555	19.850	787.215	597.029
418.569	19.925	786.551	596.730
419.584	19.843	786.712	596.517
420.599	19.991	785.777	596.265
421.613	159.834	1368.780	1794.212
422.628	138.276	1453.709	1794.317
