DTS Sentinel unit serial number:	SN413079Multiplexer serial number:	ORYXHardware model number:	OX4-SRSoftware version number:	ORYX F/W v4.00 Oryx Data Collector v3.7.2.0data status	okinstallation	princeton_trtdifferential loss correction	single-endedforward channel	channel 3reverse channel	N/Adate	2019/09/14time	22:56:35forward acquisition time	60.00reverse acquisition time	0.00gamma	496.2192k internal	0.2319k external	0.2319temperature offset calibration	0.9984default loss term (dB/km)	0.3790temperature slope calibration	1.0000multiplexer offset coefficient	1.0000multiplexer slope coefficient	1.0000fibre end	0.00T internal ref (°C)	32.44T ext. ref 1 (°C)	4.66T ext. ref 2 (°C)	27.47length (m)	temperature (°C)	Stokes	anti-Stokes-747.200	800.000	-0.052	-0.217
-746.185	-200.000	-0.017	0.488
-745.171	800.000	-0.120	0.400
-744.156	102.862	0.169	0.200
-743.142	-8.654	-0.027	0.018
-742.127	482.369	0.101	-0.231
-741.112	-200.000	0.002	-0.017
-740.098	-200.000	0.038	0.457
-739.083	-26.855	0.251	0.149
-738.069	118.409	0.201	0.251
-737.054	-10.410	-0.107	-0.072
-736.039	-200.000	-0.009	0.103
-735.025	-171.598	0.374	0.013
-734.010	55.208	-0.362	-0.354
-732.996	-200.000	0.046	0.236
-731.981	-171.916	-0.146	-0.005
-730.966	29.406	0.167	-0.143
-729.952	92.762	-0.080	-0.092
-728.937	-200.000	0.040	-0.458
-727.923	60.451	0.149	0.149
-726.908	-34.112	0.111	-0.062
-725.894	-200.000	0.034	0.409
-724.879	800.000	-0.099	0.377
-723.864	-97.490	-0.181	-0.048
-722.850	-200.000	-0.030	0.159
-721.835	-181.744	-0.233	0.005
-720.821	-131.724	0.522	-0.069
-719.806	469.329	0.064	-0.145
-718.791	-104.570	-0.373	0.087
-717.777	-138.933	0.079	-0.009
-716.762	-39.668	-0.143	0.076
-715.748	141.859	0.140	0.188
-714.733	-92.986	0.315	0.089
-713.718	-69.516	-0.115	-0.045
-712.704	489.741	-0.210	0.485
-711.689	41.690	-0.279	0.256
-710.675	-165.928	-0.193	0.008
-709.660	800.000	0.056	0.165
-708.645	334.713	-0.073	0.143
-707.631	-200.000	0.037	0.241
-706.616	800.000	-0.033	-0.100
-705.602	-200.000	0.005	-0.365
-704.587	-80.975	0.123	0.041
-703.572	-121.780	-0.404	-0.067
-702.558	-19.920	0.136	-0.085
-701.543	-87.024	-0.158	0.049
-700.529	156.193	-0.191	-0.266
-699.514	-108.094	0.094	-0.021
-698.499	163.128	-0.088	-0.124
-697.485	-3.251	-0.121	-0.085
-696.470	-200.000	0.005	-0.135
-695.456	-117.835	-0.136	0.025
-694.441	-36.538	-0.084	-0.045
-693.426	800.000	0.032	0.103
-692.412	-82.740	-0.121	-0.040
-691.397	41.287	0.065	-0.059
-690.383	-80.655	-0.217	-0.073
-689.368	-1.976	-0.110	-0.078
-688.354	-34.433	-0.258	-0.143
-687.339	231.367	0.107	-0.178
-686.324	-23.229	0.075	-0.045
-685.310	-200.000	-0.037	-0.294
-684.295	-119.728	-0.115	0.020
-683.281	335.485	-0.082	-0.161
-682.266	800.000	-0.119	0.336
-681.251	130.831	-0.083	-0.108
-680.237	138.141	-0.110	-0.146
-679.222	-123.146	-0.136	-0.022
-678.208	-68.813	-0.281	-0.110
-677.193	800.000	-0.086	-0.311
-676.178	-129.927	-0.241	0.033
-675.164	-157.915	0.267	0.016
-674.149	-20.005	-0.161	-0.100
-673.135	-183.266	-0.113	0.002
-672.120	-4.358	0.308	0.215
-671.105	37.634	0.123	-0.111
-670.091	117.812	0.076	-0.094
-669.076	-200.000	0.012	-0.213
-668.062	454.203	-0.121	-0.270
-667.047	-200.000	-0.046	-0.282
-666.032	-200.000	-0.035	0.268
-665.018	-118.043	0.238	-0.043
-664.003	2.870	0.195	0.143
-662.989	128.530	-0.049	-0.063
-661.974	94.246	-0.142	0.163
-660.959	62.809	0.035	0.035
-659.945	449.707	-0.112	0.248
-658.930	-88.934	-0.284	-0.085
-657.916	-200.000	-0.007	0.048
-656.901	367.126	0.045	0.091
-655.886	589.822	-0.029	0.071
-654.872	-200.000	0.026	0.182
-653.857	-63.602	0.184	-0.076
-652.843	800.000	0.057	0.161
-651.828	173.212	-0.025	-0.036
-650.814	147.844	-0.182	-0.247
-649.799	243.176	0.013	-0.022
-648.784	800.000	0.109	-0.328
-647.770	82.648	-0.150	0.164
-646.755	118.617	0.110	-0.137
-645.741	144.926	-0.037	-0.050
-644.726	800.000	0.068	-0.236
-643.711	72.974	-0.068	0.071
-642.697	-169.823	0.113	0.004
-641.682	-32.884	0.406	-0.227
-640.668	784.109	-0.059	-0.164
-639.653	-57.712	-0.074	-0.033
-638.638	-15.265	-0.328	0.212
-637.624	83.858	-0.158	-0.174
-636.609	800.000	-0.070	-0.228
-635.595	-128.810	-0.243	0.034
-634.580	-200.000	0.021	-0.156
-633.565	800.000	-0.032	0.115
-632.551	-111.806	0.072	0.015
-631.536	-86.407	0.037	0.011
-630.522	363.748	-0.156	0.315
-629.507	-200.000	-0.055	0.330
-628.492	-200.000	0.002	0.238
-627.478	-110.873	-0.152	0.031
-626.463	310.972	0.138	0.261
-625.449	691.781	0.013	-0.034
-624.434	38.484	-0.087	0.078
-623.419	639.097	-0.054	-0.139
-622.405	97.537	0.161	-0.186
-621.390	386.946	0.178	0.371
-620.376	86.297	0.118	-0.131
-619.361	-145.056	-0.216	0.020
-618.346	-50.320	0.348	0.166
-617.332	-38.209	-0.303	-0.162
-616.317	197.521	-0.098	-0.151
-615.303	800.000	-0.023	-0.098
-614.288	189.945	0.108	-0.164
-613.273	800.000	-0.074	-0.208
-612.259	-141.994	-0.282	-0.028
-611.244	704.300	-0.070	-0.187
-610.230	262.557	-0.133	-0.232
-609.215	327.706	-0.103	-0.199
-608.201	181.162	-0.046	-0.068
-607.186	48.859	-0.119	-0.112
-606.171	-200.000	-0.073	-0.484
-605.157	-56.177	0.334	0.150
-604.142	46.019	0.121	0.113
-603.128	-35.842	0.305	-0.166
-602.113	54.589	0.079	-0.077
-601.098	-2.179	0.210	-0.148
-600.084	-33.773	-0.234	-0.130
-599.069	286.107	-0.033	-0.060
-598.055	-200.000	-0.001	0.134
-597.040	86.580	0.081	-0.090
-596.025	479.615	0.180	0.411
-595.011	-200.000	-0.003	0.371
-593.996	437.004	-0.101	-0.221
-592.982	800.000	-0.092	0.271
-591.967	71.383	0.024	-0.025
-590.952	3.005	-0.270	-0.197
-589.938	-200.000	-0.093	-0.000
-588.923	-85.458	0.174	0.054
-587.909	-19.700	0.286	0.178
-586.894	122.115	0.089	-0.112
-585.879	0.462	-0.293	-0.211
-584.865	-30.238	0.325	-0.186
-583.850	-156.123	0.347	-0.022
-582.836	-200.000	-0.557	0.001
-581.821	594.089	-0.089	0.221
-580.806	28.644	0.327	0.278
-579.792	-37.793	-0.162	0.087
-578.777	-200.000	0.019	0.144
-577.763	152.899	-0.118	0.163
-576.748	-116.969	-0.102	-0.019
-575.733	390.460	0.121	-0.253
-574.719	233.332	0.058	0.096
-573.704	-8.054	0.372	0.252
-572.690	67.179	-0.092	-0.094
-571.675	766.270	-0.067	0.182
-570.661	91.069	-0.314	0.354
-569.646	-58.787	0.280	0.122
-568.631	31.492	0.130	0.112
-567.617	175.129	0.100	0.146
-566.602	78.196	0.073	-0.079
-565.588	800.000	0.106	-0.309
-564.573	-200.000	0.063	-0.437
-563.558	-194.735	0.067	0.001
-562.544	120.059	-0.172	0.215
-561.529	-134.380	-0.123	-0.015
-560.515	-200.000	-0.013	-0.251
-559.500	-200.000	-0.051	-0.251
-558.485	-129.847	-0.136	0.019
-557.471	127.544	0.100	0.127
-556.456	-13.668	-0.160	0.104
-555.442	67.438	0.153	-0.157
-554.427	-130.837	0.183	0.025
-553.412	-200.000	-0.028	0.437
-552.398	-132.013	-0.111	-0.014
-551.383	-109.641	-0.236	0.050
-550.369	702.243	-0.019	-0.050
-549.354	-90.962	-0.108	0.031
-548.339	8.009	0.184	-0.139
-547.325	-200.000	-0.006	0.043
-546.310	247.320	-0.071	-0.121
-545.296	-200.000	-0.012	0.385
-544.281	-45.380	-0.271	0.135
-543.266	-124.610	-0.236	-0.037
-542.252	56.911	0.118	0.115
-541.237	256.173	0.117	0.202
-540.223	-200.000	0.012	0.135
-539.208	98.035	0.214	0.247
-538.193	-139.693	-0.006	0.001
-537.179	-72.470	-0.210	0.078
-536.164	800.000	0.043	0.172
-535.150	-185.219	0.109	-0.002
-534.135	800.000	-0.034	0.119
-533.121	-162.527	0.145	0.007
-532.106	32.059	-0.218	-0.189
-531.091	195.893	-0.172	-0.262
-530.077	204.006	-0.095	0.147
-529.062	-200.000	-0.035	0.236
-528.048	31.163	-0.051	-0.044
-527.033	31.253	-0.164	0.141
-526.018	789.715	-0.099	0.272
-525.004	-113.978	0.207	0.040
-523.989	-10.962	-0.116	0.077
-522.975	-200.000	-0.004	0.369
-521.960	-1.897	-0.195	-0.138
-520.945	-63.520	0.231	0.095
-519.931	77.213	-0.151	-0.161
-518.916	41.044	0.160	0.145
-517.902	-123.168	-0.144	0.023
-516.887	-200.000	0.018	-0.135
-515.872	800.000	0.067	0.262
-514.858	-200.000	0.029	0.272
-513.843	-72.058	-0.134	-0.050
-512.829	-59.752	0.360	0.155
-511.814	-200.000	-0.026	-0.417
-510.799	-5.972	-0.151	-0.103
-509.785	3.361	-0.272	0.199
-508.770	-200.000	-0.001	0.172
-507.756	-141.232	0.268	0.027
-506.741	-96.919	-0.351	0.092
-505.726	-46.146	0.191	-0.094
-504.712	-140.856	-0.258	0.027
-503.697	-140.495	0.196	-0.020
-502.683	1.466	-0.269	-0.194
-501.668	27.530	0.128	-0.108
-500.653	-56.931	-0.182	0.081
-499.639	-200.000	0.011	-0.122
-498.624	-58.680	-0.253	0.110
-497.610	-200.000	0.045	0.354
-496.595	211.927	0.104	0.164
-495.581	-182.917	0.235	0.004
-494.566	800.000	0.093	-0.329
-493.551	-42.139	-0.287	-0.147
-492.537	-200.000	-0.007	0.071
-491.522	2.112	0.397	0.287
-490.508	30.630	0.108	-0.092
-489.493	-200.000	-0.011	-0.160
-488.478	211.086	-0.073	0.115
-487.464	-140.644	-0.335	0.035
-486.449	-200.000	-0.005	-0.239
-485.435	-101.744	-0.135	0.033
-484.420	-107.990	0.223	-0.049
-483.405	71.237	0.098	0.102
-482.391	56.316	0.149	-0.145
-481.376	800.000	-0.074	0.252
-480.362	-136.049	0.152	-0.018
-479.347	679.202	-0.160	0.417
-478.332	-17.869	-0.154	-0.096
-477.318	286.268	0.055	-0.099
-476.303	-59.129	-0.139	0.060
-475.289	-200.000	-0.033	-0.146
-474.274	-30.656	-0.120	-0.068
-473.259	696.091	0.105	0.276
-472.245	415.010	-0.055	0.118
-471.230	178.996	-0.125	0.183
-470.216	-24.765	-0.176	0.105
-469.201	24.242	0.200	0.165
-468.186	133.451	0.318	-0.412
-467.172	-200.000	-0.064	-0.319
-466.157	1.854	-0.379	-0.274
-465.143	800.000	0.116	-0.474
-464.128	510.320	-0.120	-0.278
-463.113	17.265	0.285	-0.227
-462.099	371.233	-0.169	0.344
-461.084	542.642	0.102	0.243
-460.070	-141.216	0.277	0.028
-459.055	766.869	-0.018	0.048
-458.040	800.000	0.098	0.348
-457.026	-200.000	-0.002	0.062
-456.011	800.000	-0.047	-0.174
-454.997	-78.063	-0.310	0.107
-453.982	-131.153	0.278	-0.037
-452.968	-13.300	0.076	-0.049
-451.953	-200.000	0.008	-0.229
-450.938	-200.000	0.004	-0.095
-449.924	48.091	-0.213	0.199
-448.909	-149.803	-0.094	-0.007
-447.895	46.500	-0.153	-0.142
-446.880	-200.000	0.033	-0.316
-445.865	-200.000	0.006	-0.282
-444.851	560.989	-0.109	-0.264
-443.836	800.000	-0.077	0.216
-442.822	-33.037	-0.242	0.134
-441.807	-161.411	0.271	-0.014
-440.792	-200.000	0.005	0.262
-439.778	-4.841	0.115	0.080
-438.763	167.202	-0.237	-0.336
-437.749	-200.000	-0.004	-0.120
-436.734	27.480	0.221	0.186
-435.719	-8.187	-0.221	0.149
-434.705	-157.565	0.231	0.014
-433.690	108.870	0.088	0.105
-432.676	566.946	-0.143	-0.346
-431.661	-35.664	-0.100	0.054
-430.646	41.918	0.045	0.041
-429.632	155.910	0.092	-0.127
-428.617	-37.167	-0.180	0.096
-427.603	-200.000	0.093	-0.407
-426.588	-144.569	-0.097	0.009
-425.573	-121.665	0.087	0.014
-424.559	800.000	0.072	-0.271
-423.544	-149.256	0.146	0.012
-422.530	-85.715	-0.190	0.059
-421.515	-0.243	-0.069	0.049
-420.500	-47.720	-0.102	0.050
-419.486	-144.197	0.114	0.011
-418.471	47.346	0.257	-0.239
-417.457	-37.486	-0.205	-0.109
-416.442	22.534	0.191	0.156
-415.428	-25.878	-0.255	0.150
-414.413	47.249	-0.053	0.049
-413.398	35.896	0.160	0.141
-412.384	2.075	0.080	-0.058
-411.369	681.143	-0.132	-0.343
-410.355	182.225	0.104	0.153
-409.340	450.209	-0.082	-0.180
-408.325	-86.146	0.084	-0.026
-407.311	558.509	0.077	-0.186
-406.296	-200.000	-0.255	0.001
-405.282	12.809	-0.035	0.027
-404.267	-200.000	0.043	-0.219
-403.252	-106.507	0.066	0.015
-402.238	180.003	0.125	0.182
-401.223	-35.752	-0.162	-0.088
-400.209	252.940	0.184	0.314
-399.194	37.211	0.331	0.293
-398.179	201.173	-0.074	-0.114
-397.165	-84.151	0.021	-0.007
-396.150	391.637	0.137	0.285
-395.136	247.151	0.023	0.038
-394.121	316.784	0.239	-0.450
-393.106	86.557	-0.084	0.092
-392.092	-200.000	0.004	-0.306
-391.077	31.013	-0.323	0.277
-390.063	-24.553	0.257	0.153
-389.048	-38.031	-0.205	-0.108
-388.033	-135.400	-0.268	0.032
-387.019	-65.359	0.333	-0.134
-386.004	-145.637	0.164	-0.015
-384.990	-59.892	0.040	0.017
-383.975	279.232	0.211	-0.375
-382.960	54.216	-0.320	-0.307
-381.946	800.000	0.072	-0.228
-380.931	-44.308	-0.288	0.144
-379.917	141.850	0.010	-0.013
-378.902	-200.000	0.007	0.079
-377.888	-200.000	-0.027	0.355
-376.873	522.454	-0.020	0.046
-375.858	-48.375	-0.112	0.054
-374.844	-162.209	-0.269	-0.013
-373.829	-92.629	-0.124	-0.035
-372.815	-154.223	0.182	-0.012
-371.800	335.037	-0.066	0.127
-370.785	-200.000	-0.028	-0.203
-369.771	-187.769	0.163	0.002
-368.756	800.000	0.033	0.106
-367.742	26.802	0.117	-0.098
-366.727	582.271	-0.097	-0.237
-365.712	-200.000	-0.022	-0.123
-364.698	87.347	0.359	-0.396
-363.683	-137.908	-0.391	0.044
-362.669	-149.741	0.149	0.012
-361.654	800.000	-0.038	-0.119
-360.639	69.686	-0.196	-0.201
-359.625	-49.242	0.364	0.173
-358.610	335.535	-0.094	0.181
-357.596	-134.338	0.074	0.009
-356.581	79.018	0.108	-0.116
-355.566	-142.949	0.186	0.018
-354.552	8.500	-0.151	0.113
-353.537	-200.000	0.041	0.214
-352.523	-56.011	0.232	0.103
-351.508	437.132	0.048	0.103
-350.493	-160.955	0.115	-0.006
-349.479	25.251	0.275	-0.227
-348.464	-60.359	0.086	-0.037
-347.450	-200.000	0.038	-0.256
-346.435	237.420	-0.063	0.104
-345.420	386.693	-0.134	-0.276
-344.406	465.330	-0.144	0.321
-343.391	16.362	0.276	0.217
-342.377	-46.890	-0.235	0.115
-341.362	-72.103	-0.084	0.031
-340.348	-58.906	-0.017	-0.007
-339.333	-10.739	0.106	0.070
-338.318	105.555	-0.098	0.115
-337.304	-200.000	0.025	-0.139
-336.289	-24.234	-0.170	-0.101
-335.275	534.745	0.021	0.050
-334.260	-37.782	-0.016	0.009
-333.245	188.141	-0.085	0.127
-332.231	-0.844	0.329	0.232
-331.216	31.001	0.120	0.102
-330.202	800.000	0.085	0.361
-329.187	-20.749	-0.342	0.209
-328.172	800.000	-0.057	0.159
-327.158	-200.000	-0.003	0.082
-326.143	13.155	0.138	-0.107
-325.129	3.346	0.166	-0.120
-324.114	-117.148	0.193	-0.035
-323.099	75.279	-0.028	-0.029
-322.085	-200.000	0.016	0.238
-321.070	30.782	-0.077	-0.065
-320.056	-62.057	-0.298	0.124
-319.041	261.656	0.017	-0.030
-318.026	-119.932	-0.066	0.011
-317.012	-200.000	0.000	0.006
-315.997	-200.000	-0.048	-0.385
-314.983	-89.831	-0.296	-0.086
-313.968	800.000	-0.008	0.023
-312.953	-200.000	0.004	0.143
-311.939	-104.856	-0.068	-0.016
-310.924	746.802	0.168	-0.451
-309.910	91.098	-0.246	-0.275
-308.895	-77.148	0.082	-0.028
-307.880	-200.000	0.052	0.339
-306.866	-200.000	0.010	0.237
-305.851	-87.216	0.082	0.025
-304.837	-74.109	-0.302	0.109
-303.822	800.000	0.054	-0.228
-302.807	745.422	-0.157	0.421
-301.793	-200.000	0.044	0.364
-300.778	160.800	0.077	0.107
-299.764	-200.000	0.251	-0.001
-298.749	-200.000	-0.016	0.147
-297.735	56.149	-0.112	-0.108
-296.720	-131.826	0.206	0.027
-295.705	267.399	0.025	-0.044
-294.691	-8.639	0.291	-0.194
-293.676	800.000	-0.081	0.254
-292.662	630.205	-0.120	-0.301
-291.647	-200.000	0.038	0.202
-290.632	-156.251	0.215	-0.013
-289.618	800.000	0.091	-0.258
-288.603	-139.241	-0.362	-0.039
-287.589	-200.000	0.016	-0.209
-286.574	269.070	0.061	-0.106
-285.559	-200.000	-0.012	-0.220
-284.545	-197.921	-0.259	0.002
-283.530	155.459	-0.145	0.199
-282.516	-29.266	0.255	-0.145
-281.501	-58.061	-0.095	0.041
-280.486	-47.124	0.162	-0.079
-279.472	-129.269	0.393	-0.054
-278.457	219.948	-0.211	0.336
-277.443	232.061	-0.116	0.189
-276.428	-90.654	0.301	-0.086
-275.413	245.734	0.058	-0.097
-274.399	-200.000	0.132	0.000
-273.384	-200.000	-0.004	-0.096
-272.370	697.385	0.095	0.249
-271.355	156.916	0.089	0.122
-270.340	-200.000	0.111	0.000
-269.326	474.770	0.122	-0.273
-268.311	-150.474	0.443	-0.034
-267.297	-137.952	-0.161	0.018
-266.282	-129.323	-0.154	0.021
-265.267	-145.929	-0.257	0.023
-264.253	-117.381	0.158	0.028
-263.238	-200.000	-0.006	0.168
-262.224	-132.846	-0.113	0.014
-261.209	54.615	-0.139	0.133
-260.195	-100.661	0.180	-0.044
-259.180	-200.000	0.021	-0.120
-258.165	377.801	0.150	-0.305
-257.151	-200.000	-0.004	0.037
-256.136	800.000	-0.026	-0.081
-255.122	182.839	-0.120	-0.176
-254.107	124.274	0.181	-0.226
-253.092	-129.664	-0.157	0.021
-252.078	-108.011	-0.205	0.044
-251.063	-124.194	-0.127	-0.020
-250.049	-133.467	0.260	0.032
-249.034	800.000	0.062	-0.224
-248.019	-118.857	0.124	-0.022
-247.005	-200.000	0.011	-0.175
-245.990	800.000	0.030	-0.097
-244.976	-200.000	0.024	-0.188
-243.961	7.238	0.255	-0.189
-242.946	285.921	0.184	-0.330
-241.932	-91.145	0.086	0.024
-240.917	64.211	-0.119	-0.119
-239.903	-200.000	0.076	-0.379
-238.888	-178.056	0.293	-0.007
-237.873	252.304	-0.134	-0.227
-236.859	31.742	-0.158	0.135
-235.844	-124.282	0.305	-0.047
-234.830	-200.000	0.000	0.127
-233.815	82.367	-0.228	0.245
-232.800	-200.000	-0.002	0.126
-231.786	-75.537	-0.346	0.122
-230.771	-67.610	0.076	0.030
-229.757	106.993	0.077	0.091
-228.742	800.000	-0.090	-0.313
-227.727	35.539	0.214	0.186
-226.713	-192.848	0.238	-0.002
-225.698	-200.000	-0.013	0.188
-224.684	-80.169	0.070	0.023
-223.669	-153.500	-0.083	0.006
-222.655	-129.676	-0.075	0.010
-221.640	248.093	0.099	-0.167
-220.625	-5.262	-0.216	0.147
-219.611	-200.000	-0.095	0.425
-218.596	-174.210	-0.018	0.001
-217.582	800.000	0.098	0.301
-216.567	800.000	0.042	0.174
-215.552	297.869	-0.137	0.249
-214.538	-200.000	0.050	-0.308
-213.523	-200.000	-0.015	-0.140
-212.509	321.753	-0.031	0.058
-211.494	-84.715	0.214	0.067
-210.479	89.780	-0.131	0.145
-209.465	-16.792	0.072	0.045
-208.450	-200.000	-0.039	-0.207
-207.436	187.068	0.026	-0.038
-206.421	234.500	0.081	0.132
-205.406	207.602	0.176	-0.271
-204.392	-103.539	0.177	0.041
-203.377	-128.286	-0.312	-0.044
-202.363	718.400	0.020	-0.052
-201.348	-200.000	0.046	0.213
-200.333	-39.671	-0.112	0.058
-199.319	-48.831	0.059	0.028
-198.304	-36.129	0.242	0.129
-197.290	-87.483	-0.268	-0.080
-196.275	-75.388	0.340	-0.120
-195.260	-120.516	-0.164	-0.028
-194.246	-200.000	-0.000	0.290
-193.231	-200.000	0.062	0.276
-192.217	126.980	0.122	-0.153
-191.202	369.720	-0.174	0.349
-190.187	-39.499	0.191	-0.099
-189.173	392.749	-0.111	-0.228
-188.158	-147.459	-0.068	-0.006
-187.144	-87.635	0.191	0.057
-186.129	14.420	0.362	0.279
-185.114	-200.000	0.033	0.221
-184.100	-200.000	0.008	-0.040
-183.085	-35.356	-0.279	0.150
-182.071	-200.000	0.005	-0.048
-181.056	800.000	0.026	0.112
-180.042	-83.710	0.332	-0.105
-179.027	319.990	-0.044	-0.082
-178.012	301.632	-0.046	0.083
-176.998	52.537	-0.148	0.140
-175.983	631.199	0.060	0.149
-174.969	-90.853	0.149	0.042
-173.954	-90.696	0.155	0.044
-172.939	800.000	-0.052	0.146
-171.925	331.657	0.093	-0.178
-170.910	-200.000	-0.048	-0.278
-169.896	67.810	0.040	-0.040
-168.881	-51.878	-0.130	0.060
-167.866	-188.805	-0.105	0.001
-166.852	-175.962	0.138	0.004
-165.837	-200.000	0.026	0.293
-164.823	760.757	-0.135	-0.362
-163.808	-113.619	-0.651	-0.126
-162.793	-96.896	-0.278	0.072
-161.779	-144.410	-0.169	0.016
-160.764	-133.524	-0.111	0.014
-159.750	800.000	-0.063	-0.179
-158.735	-79.861	0.506	-0.168
-157.720	-200.000	-0.010	0.061
-156.706	140.676	-0.137	-0.179
-155.691	-49.445	-0.110	0.052
-154.677	-0.601	-0.379	-0.266
-153.662	221.062	-0.043	-0.068
-152.647	-136.830	-0.305	-0.035
-151.633	-200.000	0.054	-0.242
-150.618	43.981	0.256	0.232
-149.604	80.380	-0.122	0.130
-148.589	800.000	-0.047	-0.161
-147.574	405.000	-0.075	0.157
-146.560	259.190	0.074	-0.127
-145.545	-152.350	-0.307	0.022
-144.531	-33.789	-0.259	0.141
-143.516	-9.865	0.425	0.279
-142.502	-113.012	-0.459	0.090
-141.487	130.697	0.223	-0.282
-140.472	-75.109	0.146	0.052
-139.458	-89.428	-0.123	-0.036
-138.443	49.882	-0.124	0.115
-137.429	-92.637	-0.050	0.014
-136.414	476.950	0.097	0.216
-135.399	-200.000	0.022	0.104
-134.385	-85.155	-0.406	-0.126
-133.370	144.063	0.149	0.197
-132.356	-49.777	-0.498	0.234
-131.341	-99.665	0.124	0.031
-130.326	106.912	0.204	0.239
-129.312	800.000	0.018	-0.067
-128.297	652.014	-0.170	0.430
-127.283	178.345	0.143	0.207
-126.268	-34.317	0.087	-0.047
-125.253	-173.187	-0.125	-0.004
-124.239	-60.540	0.217	-0.091
-123.224	-58.777	-0.048	-0.020
-122.210	398.040	-0.099	0.204
-121.195	148.733	0.353	0.472
-120.180	356.893	-0.094	0.185
-119.166	176.468	-0.099	-0.142
-118.151	800.000	0.045	-0.189
-117.137	-118.968	-0.242	-0.042
-116.122	27.304	-0.158	-0.131
-115.107	471.473	0.081	0.181
-114.093	-132.337	0.227	-0.029
-113.078	17.714	0.155	-0.122
-112.064	-18.202	-0.420	-0.259
-111.049	-75.579	0.219	-0.077
-110.034	-71.881	-0.177	-0.065
-109.020	28.814	-0.246	-0.206
-108.005	800.000	0.078	-0.262
-106.991	35.689	-0.134	-0.116
-105.976	-200.000	-0.048	-0.367
-104.962	638.035	-0.037	0.094
-103.947	800.000	-0.086	0.320
-102.932	-200.000	-0.008	-0.075
-101.918	-200.000	0.001	-0.147
-100.903	-85.963	-0.037	-0.011
-99.889	190.962	0.156	0.232
-98.874	132.038	0.119	0.151
-97.859	-115.466	-0.149	-0.028
-96.845	6.898	0.079	0.058
-95.830	800.000	0.168	0.485
-94.816	535.413	-0.103	0.241
-93.801	-153.856	0.318	-0.021
-92.786	-129.125	0.353	0.049
-91.772	-200.000	-0.044	0.297
-90.757	148.267	-0.141	-0.187
-89.743	50.568	-0.081	-0.076
-88.728	402.338	0.009	-0.019
-87.713	-52.477	0.311	-0.142
-86.699	-141.828	-0.200	-0.020
-85.684	-30.818	-0.063	0.035
-84.670	-87.694	-0.206	0.061
-83.655	-15.631	-0.046	0.029
-82.640	110.276	0.243	0.288
-81.626	-200.000	-0.018	-0.232
-80.611	-112.237	0.144	0.029
-79.597	228.065	0.058	-0.093
-78.582	27.410	-0.178	-0.148
-77.567	159.348	0.112	0.154
-76.553	579.114	0.105	0.253
-75.538	-83.665	0.226	0.071
-74.524	715.130	0.144	-0.375
-73.509	-5.492	-0.286	-0.194
-72.494	46.220	0.096	-0.087
-71.480	461.019	-0.133	-0.292
-70.465	86.650	-0.226	-0.245
-69.451	-200.000	0.002	0.167
-68.436	262.204	-0.180	-0.307
-67.422	-85.435	0.305	-0.094
-66.407	16.538	0.098	0.077
-65.392	67.055	-0.153	0.153
-64.378	304.392	0.063	-0.116
-63.363	64.007	0.038	0.038
-62.349	470.817	-0.198	0.439
-61.334	114.153	-0.752	-0.901
-60.319	-7.637	0.533	0.355
-59.305	800.000	-0.223	-0.957
-58.290	72.011	0.783	0.803
-57.276	410.277	0.623	1.300
-56.261	-200.000	95.114	586.518
-55.246	665.308	1370.426	3485.448
-54.232	199.850	2541.487	3841.468
-53.217	119.748	2159.985	2636.061
-52.203	43.063	1707.525	1534.040
-51.188	35.628	1520.448	1315.264
-50.173	33.254	1493.277	1275.728
-49.159	52.308	1542.076	1448.377
-48.144	54.079	1559.572	1476.893
-47.130	35.865	1519.505	1315.860
-46.115	32.858	1504.497	1282.418
-45.100	32.485	1501.538	1277.314
-44.086	32.548	1499.667	1276.097
-43.071	32.499	1497.882	1274.200
-42.057	32.449	1496.397	1272.545
-41.042	32.451	1494.936	1271.267
-40.027	32.398	1493.662	1269.774
-39.013	32.483	1491.930	1268.825
-37.998	32.278	1490.966	1266.576
-36.984	32.468	1489.428	1266.493
-35.969	32.470	1488.235	1265.446
-34.954	32.464	1486.888	1264.212
-33.940	32.491	1485.476	1263.139
-32.925	32.495	1484.091	1261.941
-31.911	32.440	1482.621	1260.272
-30.896	32.504	1481.342	1259.557
-29.881	32.548	1479.932	1258.603
-28.867	32.545	1478.078	1256.959
-27.852	32.488	1477.203	1255.788
-26.838	32.461	1475.615	1254.205
-25.823	32.512	1474.316	1253.392
-24.809	32.554	1472.059	1251.700
-23.794	32.449	1470.936	1249.997
-22.779	32.540	1469.619	1249.435
-21.765	32.390	1468.989	1247.853
-20.750	32.444	1467.686	1247.054
-19.736	32.511	1466.372	1246.334
-18.721	32.355	1465.439	1244.457
-17.706	32.375	1464.678	1243.896
-16.692	32.373	1463.611	1242.928
-15.677	32.522	1462.411	1242.840
-14.663	32.460	1461.112	1241.279
-13.648	32.337	1460.509	1239.910
-12.633	32.408	1459.994	1239.888
-11.619	32.484	1458.437	1239.015
-10.604	32.377	1458.179	1238.043
-9.590	32.318	1457.146	1236.733
-8.575	32.417	1455.637	1236.054
-7.560	32.367	1455.119	1235.237
-6.546	32.396	1453.960	1234.390
-5.531	32.376	1453.127	1233.507
-4.517	32.365	1452.158	1232.558
-3.502	32.443	1450.950	1231.995
-2.487	32.394	1450.419	1231.178
-1.473	32.347	1449.307	1229.879
-0.458	32.433	1447.857	1229.159
0.556	31.334	1438.279	1217.689
1.571	28.441	1412.599	1177.295
2.586	24.993	1352.108	1105.542
3.600	23.344	1269.888	1028.655
4.615	21.956	1224.126	983.724
5.629	19.013	1167.362	922.274
6.644	11.349	1084.550	818.451
7.659	5.461	1045.213	760.157
8.673	4.764	1039.940	752.882
9.688	4.710	1037.027	750.446
10.702	4.580	1035.530	748.672
11.717	4.567	1033.408	747.007
12.731	6.625	1035.545	758.391
13.746	13.537	1045.387	798.978
14.761	18.793	1050.743	828.413
15.775	18.636	1049.894	826.915
16.790	17.572	1047.948	820.188
17.804	16.564	1046.107	813.828
18.819	15.647	1044.129	807.814
19.834	15.204	1042.524	804.372
20.848	14.977	1041.425	802.365
21.863	14.756	1040.847	800.792
22.877	14.493	1040.012	798.819
23.892	14.358	1039.200	797.474
24.907	14.208	1038.512	796.160
25.921	14.302	1037.894	796.066
26.936	14.256	1036.798	794.933
27.950	14.352	1036.058	794.755
28.965	14.335	1035.061	793.837
29.980	14.338	1033.690	792.730
30.994	14.459	1032.392	792.241
32.009	14.529	1031.769	792.026
33.023	14.607	1031.024	791.752
34.038	14.641	1030.212	791.219
35.053	14.550	1028.804	789.639
36.067	14.470	1028.174	788.707
37.082	14.323	1027.571	787.477
38.096	14.384	1026.633	786.980
39.111	14.556	1025.498	786.850
40.126	14.441	1025.411	786.174
41.140	14.458	1023.827	784.968
42.155	14.203	1023.126	783.159
43.169	14.149	1022.007	781.982
44.184	14.223	1020.556	781.152
45.199	14.125	1019.516	779.824
46.213	14.081	1018.588	778.840
47.228	14.233	1017.540	778.683
48.242	14.265	1016.837	778.222
49.257	14.451	1015.770	778.209
50.271	14.400	1014.879	777.216
51.286	14.235	1014.300	775.935
52.301	14.406	1013.412	775.984
53.315	14.484	1012.671	775.711
54.330	14.333	1011.721	774.213
55.344	14.243	1010.953	773.140
56.359	14.196	1009.872	772.025
57.374	14.236	1009.002	771.477
58.388	14.376	1007.913	771.222
59.403	14.118	1007.569	769.698
60.417	14.163	1006.677	769.160
61.432	14.203	1005.750	768.566
62.447	14.178	1004.961	767.781
63.461	14.031	1004.421	766.622
64.476	14.020	1003.445	765.759
65.490	14.029	1002.558	765.054
66.505	13.930	1002.073	764.162
67.520	14.031	1001.055	763.782
68.534	14.124	1000.283	763.551
69.549	14.053	999.577	762.619
70.563	14.140	998.444	762.085
71.578	14.118	997.635	761.302
72.593	14.067	996.930	760.462
73.607	13.804	996.384	758.776
74.622	13.880	994.792	757.842
75.636	13.968	994.043	757.607
76.651	14.040	993.383	757.367
77.666	13.992	992.870	756.689
78.680	13.982	992.260	756.110
79.695	14.123	991.070	755.780
80.709	14.072	990.806	755.279
81.724	14.130	990.132	754.962
82.739	13.989	989.864	754.049
83.753	14.187	988.852	754.111
84.768	14.414	987.902	754.346
85.782	14.356	987.551	753.749
86.797	14.605	986.107	753.706
87.812	14.543	985.597	752.969
88.826	14.429	984.847	751.816
89.841	14.334	984.328	750.925
90.855	14.371	983.359	750.288
91.870	14.418	982.556	749.819
92.884	14.433	981.826	749.261
93.899	14.572	980.758	749.003
94.914	14.505	980.277	748.270
95.928	14.570	979.584	747.968
96.943	14.719	978.416	747.678
97.957	14.517	977.947	746.350
98.972	14.454	977.224	745.449
99.987	14.484	976.689	745.109
101.001	14.540	975.707	744.543
102.016	14.531	975.055	743.938
103.030	14.272	974.307	742.147
104.045	14.488	972.803	741.898
105.060	14.528	972.203	741.552
106.074	14.365	971.540	740.255
107.089	14.322	970.249	739.017
108.103	14.282	969.338	738.080
109.118	14.156	968.759	737.015
110.133	14.181	967.663	736.227
111.147	14.108	966.913	735.269
112.162	14.059	966.040	734.324
113.176	14.150	965.465	734.222
114.191	14.171	964.668	733.645
115.206	14.181	963.963	733.088
116.220	14.245	963.048	732.608
117.235	14.197	961.991	731.530
118.249	14.269	961.270	731.233
119.264	14.209	960.299	730.167
120.279	14.177	959.569	729.405
121.293	14.100	958.862	728.468
122.308	14.086	958.187	727.826
123.322	14.018	957.293	726.787
124.337	14.086	956.187	726.183
125.352	14.146	954.419	725.035
126.366	14.005	954.082	724.103
127.381	14.167	952.631	723.640
128.395	14.013	951.598	722.122
129.410	14.136	950.644	721.868
130.424	14.130	949.957	721.257
131.439	14.144	949.546	720.942
132.454	14.156	948.302	719.985
133.468	14.244	947.763	719.893
134.483	14.361	946.845	719.636
135.497	14.216	946.357	718.579
136.512	14.435	945.157	718.546
137.527	14.301	945.001	717.785
138.541	14.258	943.949	716.740
139.556	14.290	943.492	716.466
140.570	14.259	942.897	715.818
141.585	14.216	942.289	715.107
142.600	14.351	941.713	715.187
143.614	14.446	940.789	714.829
144.629	14.532	940.006	714.542
145.643	14.350	939.758	713.510
146.658	14.505	938.562	713.199
147.673	14.462	937.722	712.316
148.687	14.466	936.501	711.341
149.702	14.424	935.628	710.436
150.716	14.313	934.952	709.388
151.731	14.360	933.752	708.617
152.746	14.217	933.572	707.808
153.760	14.392	932.683	707.815
154.775	14.558	931.773	707.764
155.789	14.495	931.400	707.150
156.804	14.398	930.923	706.315
157.819	14.475	929.851	705.767
158.833	14.463	929.399	705.310
159.848	14.573	928.327	704.897
160.862	14.580	928.084	704.682
161.877	14.546	927.376	703.937
162.892	14.553	926.123	702.955
163.906	14.451	925.178	701.746
164.921	14.429	924.122	700.788
165.935	14.423	923.418	700.170
166.950	14.428	922.573	699.487
167.964	14.538	921.778	699.285
168.979	14.418	921.028	698.149
169.994	14.502	919.570	697.333
171.008	14.468	918.661	696.441
172.023	14.505	918.103	696.111
173.037	14.436	917.871	695.584
174.052	14.573	917.200	695.587
175.067	14.630	916.324	695.100
176.081	14.704	915.024	694.360
177.096	14.538	914.605	693.289
178.110	14.470	913.951	692.448
179.125	14.525	912.967	691.870
180.140	14.411	912.352	690.872
181.154	14.497	911.572	690.576
182.169	14.475	911.172	690.123
183.183	14.665	910.669	690.462
184.198	14.781	909.869	690.277
185.213	14.784	908.979	689.554
186.227	14.748	908.517	688.992
187.242	14.859	908.230	689.171
188.256	14.945	907.169	688.659
189.271	14.789	907.077	687.885
190.286	15.079	905.885	688.114
191.300	14.699	905.360	686.094
192.315	14.566	904.300	684.683
193.329	14.432	903.796	683.692
194.344	14.453	902.996	683.112
195.359	14.600	902.545	683.313
196.373	14.727	901.979	683.343
197.388	14.743	901.609	683.066
198.402	14.931	900.708	683.091
199.417	14.909	900.540	682.815
200.432	14.952	900.496	682.898
201.446	14.983	899.864	682.484
202.461	15.082	899.484	682.538
203.475	15.147	898.983	682.362
204.490	15.083	898.188	681.438
205.504	15.021	897.586	680.670
206.519	14.968	896.535	679.596
207.534	14.975	895.677	678.913
208.548	14.897	895.266	678.227
209.563	14.944	894.257	677.593
210.577	14.970	893.660	677.184
211.592	14.940	893.145	676.614
212.607	15.121	892.724	676.965
213.621	15.202	892.255	676.877
214.636	15.079	891.482	675.737
215.650	15.143	890.582	675.251
216.665	15.174	890.076	674.933
217.680	15.034	889.910	674.184
218.694	15.163	889.151	674.069
219.709	15.453	888.198	674.450
220.723	15.140	888.181	673.120
221.738	15.159	887.081	672.305
222.753	15.193	886.486	671.931
223.767	15.182	885.662	671.204
224.782	15.223	884.787	670.645
225.796	15.242	884.660	670.562
226.811	15.512	883.764	670.903
227.826	15.296	883.647	669.892
228.840	15.413	882.540	669.461
229.855	15.124	882.040	667.869
230.869	15.304	881.398	668.044
231.884	15.314	880.234	667.140
232.899	15.212	879.806	666.351
233.913	15.181	879.060	665.606
234.928	15.217	878.698	665.413
235.942	15.193	877.594	664.424
236.957	15.175	876.971	663.824
237.972	15.313	876.046	663.611
238.986	15.243	875.564	662.909
240.001	15.267	874.782	662.355
241.015	15.259	874.391	661.966
242.030	15.292	874.004	661.747
243.045	15.463	872.983	661.589
244.059	15.420	872.565	661.045
245.074	15.295	872.065	660.115
246.088	15.344	871.569	659.875
247.103	15.472	870.573	659.564
248.117	15.460	870.439	659.356
249.132	15.520	870.185	659.342
250.147	15.699	869.690	659.610
251.161	15.837	868.591	659.260
252.176	15.902	868.017	659.019
253.190	15.878	867.351	658.361
254.205	15.913	866.529	657.818
255.220	16.013	866.222	657.915
256.234	16.007	865.362	657.181
257.249	15.969	864.903	656.625
258.263	16.035	864.342	656.400
259.278	15.969	864.203	655.977
260.293	15.819	863.533	654.827
261.307	15.891	863.230	654.821
262.322	16.168	862.083	654.969
263.336	16.046	861.885	654.288
264.351	16.135	861.245	654.086
265.366	16.176	860.147	653.355
266.380	16.210	859.922	653.258
267.395	16.188	859.084	652.480
268.409	16.036	858.527	651.410
269.424	16.035	857.839	650.825
270.439	15.996	857.466	650.337
271.453	15.990	856.647	649.635
272.468	16.006	855.667	648.896
273.482	15.914	855.197	648.127
274.497	15.977	854.668	647.910
275.512	16.063	853.868	647.576
276.526	15.991	852.936	646.538
277.541	15.950	852.506	645.997
278.555	15.944	851.810	645.390
279.570	16.261	851.008	645.936
280.585	16.180	850.980	645.550
281.599	16.376	849.982	645.485
282.614	16.117	850.284	644.667
283.628	16.125	849.448	644.008
284.643	16.249	848.526	643.723
285.657	16.216	848.241	643.322
286.672	16.193	847.502	642.620
287.687	16.221	847.041	642.318
288.701	16.277	846.518	642.079
289.716	16.183	845.787	641.111
290.730	16.241	845.449	641.016
291.745	16.201	844.916	640.404
292.760	16.311	843.952	640.035
293.774	16.424	843.668	640.191
294.789	16.444	843.211	639.863
295.803	16.638	842.197	639.770
296.818	16.356	841.892	638.415
297.833	16.268	841.221	637.519
298.847	16.401	840.556	637.461
299.862	16.310	839.729	636.434
300.876	16.497	838.989	636.520
301.891	16.433	838.310	635.707
302.906	16.442	838.110	635.536
303.920	16.672	837.069	635.552
304.935	16.705	836.687	635.329
305.949	16.691	836.507	635.085
306.964	16.725	835.788	634.608
307.979	16.521	835.190	633.337
308.993	16.724	834.257	633.332
310.008	16.554	834.041	632.476
311.022	16.700	833.663	632.678
312.037	16.738	832.981	632.249
313.052	16.681	832.451	631.577
314.066	16.547	832.103	630.758
315.081	16.478	831.130	629.706
316.095	16.431	830.464	628.971
317.110	16.573	829.782	628.928
318.125	16.604	829.427	628.716
319.139	16.652	829.178	628.651
320.154	16.677	828.339	628.051
321.168	16.660	827.820	627.540
322.183	16.458	827.847	626.757
323.197	16.628	827.279	626.902
324.212	16.644	826.440	626.268
325.227	16.588	826.041	625.704
326.241	16.747	825.686	625.968
327.256	16.725	824.952	625.272
328.270	16.618	824.113	624.189
329.285	16.730	823.526	624.102
330.300	16.727	822.937	623.587
331.314	16.719	822.272	623.000
332.329	16.603	821.962	622.283
333.343	16.735	821.508	622.371
334.358	17.013	820.698	622.722
335.373	16.894	820.179	621.837
336.387	16.804	819.822	621.179
337.402	16.819	819.435	620.888
338.416	16.927	818.581	620.579
339.431	16.867	818.050	619.903
340.446	17.097	817.487	620.262
341.460	17.152	817.150	620.154
342.475	17.146	816.710	619.741
343.489	17.227	815.983	619.430
344.504	17.195	815.601	618.971
345.519	17.204	815.348	618.756
346.533	17.272	814.638	618.407
347.548	17.359	814.050	618.224
348.562	17.253	813.277	617.198
349.577	17.132	813.107	616.574
350.592	17.084	812.371	615.789
351.606	17.120	811.644	615.313
352.621	17.055	811.609	614.996
353.635	16.966	811.415	614.471
354.650	16.989	810.765	614.010
355.665	16.999	810.437	613.744
356.679	17.052	810.074	613.605
357.694	17.274	809.348	613.801
358.708	17.181	808.980	613.135
359.723	17.155	808.210	612.403
360.738	17.145	807.914	612.087
361.752	17.250	807.217	611.882
362.767	17.276	806.767	611.581
363.781	17.355	806.230	611.404
364.796	17.337	805.746	610.919
365.810	17.335	805.502	610.672
366.825	17.527	805.148	611.040
367.840	17.554	805.135	611.073
368.854	17.483	804.702	610.435
369.869	17.525	803.744	609.804
370.883	17.435	803.347	609.125
371.898	17.382	802.802	608.469
372.913	17.510	802.139	608.372
373.927	17.574	801.560	608.106
374.942	17.597	800.573	607.388
375.956	17.660	800.160	607.244
376.971	17.548	799.850	606.554
377.986	17.657	799.273	606.452
379.000	17.883	798.625	606.711
380.015	17.715	798.438	605.917
381.029	17.859	797.948	606.003
382.044	17.648	797.725	605.033
383.059	17.804	796.805	604.834
384.073	17.932	795.940	604.578
385.088	17.695	795.764	603.552
386.102	17.645	795.179	602.875
387.117	17.665	794.393	602.298
388.132	17.584	794.359	601.933
389.146	17.613	793.875	601.615
390.161	17.674	793.453	601.458
391.175	17.863	792.892	601.643
392.190	17.707	792.989	601.114
393.205	17.632	792.769	600.631
394.219	17.789	791.757	600.364
395.234	17.662	791.412	599.601
396.248	17.837	790.814	599.713
397.263	17.598	790.227	598.374
398.278	17.741	789.386	598.186
399.292	17.776	788.926	597.905
400.307	17.602	788.885	597.213
401.321	17.767	788.662	597.569
402.336	17.665	788.069	596.710
403.350	17.805	787.621	596.807
404.365	17.871	787.170	596.644
405.380	17.893	786.711	596.321
406.394	18.016	786.614	596.624
407.409	18.156	785.887	596.506
408.423	18.069	785.600	595.935
409.438	18.179	785.112	595.894
410.453	18.072	785.051	595.422
411.467	18.238	784.320	595.394
412.482	18.217	783.791	594.865
413.496	18.335	783.202	594.775
414.511	18.348	783.161	594.736
415.526	18.336	782.664	594.267
416.540	18.329	782.555	594.107
417.555	18.411	781.601	593.613
418.569	18.278	781.359	592.917
419.584	18.214	781.019	592.383
420.599	18.178	780.664	591.938
421.613	155.968	1369.652	1794.372
422.628	134.590	1455.473	1794.475
