DTS Sentinel unit serial number:	SN413079Multiplexer serial number:	ORYXHardware model number:	OX4-SRSoftware version number:	ORYX F/W v4.00 Oryx Data Collector v3.7.2.0data status	okinstallation	princeton_trtdifferential loss correction	single-endedforward channel	channel 3reverse channel	N/Adate	2019/09/10time	19:10:11forward acquisition time	60.00reverse acquisition time	0.00gamma	496.2192k internal	0.2315k external	0.2315temperature offset calibration	0.9913default loss term (dB/km)	0.3790temperature slope calibration	1.0000multiplexer offset coefficient	1.0000multiplexer slope coefficient	1.0000fibre end	0.00T internal ref (°C)	34.16T ext. ref 1 (°C)	-0.43T ext. ref 2 (°C)	26.53length (m)	temperature (°C)	Stokes	anti-Stokes-747.200	232.851	0.022	0.036
-746.185	-46.740	-0.082	-0.041
-745.171	-29.274	0.210	0.122
-744.156	800.000	0.172	0.647
-743.142	180.954	-0.117	0.175
-742.127	64.842	-0.225	0.230
-741.112	-9.174	-0.162	0.110
-740.098	800.000	0.091	0.255
-739.083	800.000	-0.033	-0.093
-738.069	-136.146	0.162	-0.019
-737.054	76.597	-0.165	-0.177
-736.039	-91.069	-0.180	-0.052
-735.025	-97.687	0.211	-0.055
-734.010	123.395	0.056	0.072
-732.996	-200.000	-0.073	-0.338
-731.981	86.328	-0.153	0.170
-730.966	800.000	0.034	0.141
-729.952	800.000	0.065	-0.212
-728.937	652.708	-0.094	-0.245
-727.923	-200.000	0.029	-0.273
-726.908	-200.000	0.003	-0.112
-725.894	-60.907	-0.225	-0.096
-724.879	-200.000	-0.000	-0.096
-723.864	-51.804	-0.343	-0.162
-722.850	-200.000	-0.003	0.165
-721.835	-200.000	0.002	-0.098
-720.821	-93.755	-0.132	-0.037
-719.806	-154.694	-0.363	-0.024
-718.791	-44.871	-0.087	0.044
-717.777	-106.688	-0.202	0.045
-716.762	61.671	0.210	-0.212
-715.748	-200.000	0.020	-0.265
-714.733	58.388	-0.137	-0.136
-713.718	-200.000	-0.009	0.043
-712.704	68.673	-0.113	-0.117
-711.689	386.477	0.119	0.248
-710.675	800.000	0.004	0.014
-709.660	-200.000	-0.317	0.001
-708.645	-61.862	-0.170	-0.072
-707.631	800.000	0.237	0.686
-706.616	-116.027	-0.299	0.056
-705.602	800.000	-0.094	-0.307
-704.587	9.623	-0.232	-0.178
-703.572	-200.000	0.023	-0.490
-702.558	49.228	0.186	-0.176
-701.543	-44.395	-0.156	-0.079
-700.529	164.851	-0.038	0.054
-699.514	-138.205	-0.128	-0.014
-698.499	-85.973	-0.220	0.069
-697.485	800.000	-0.021	0.085
-696.470	228.613	0.061	0.101
-695.456	-200.000	0.013	-0.380
-694.441	132.277	-0.179	0.234
-693.426	234.885	-0.150	-0.251
-692.412	556.120	0.178	-0.434
-691.397	-127.577	-0.124	0.018
-690.383	800.000	0.077	-0.331
-689.368	1.282	-0.070	-0.051
-688.354	28.753	-0.141	0.121
-687.339	800.000	0.050	-0.197
-686.324	-93.798	-0.253	0.070
-685.310	-117.928	-0.209	-0.038
-684.295	-200.000	-0.005	0.104
-683.281	-3.422	0.233	-0.164
-682.266	800.000	0.117	-0.405
-681.251	-17.369	-0.252	-0.160
-680.237	-7.717	-0.129	-0.088
-679.222	-140.701	-0.368	-0.038
-678.208	-169.991	-0.127	0.005
-677.193	110.041	-0.163	-0.198
-676.178	-34.899	0.342	-0.189
-675.164	800.000	0.097	-0.293
-674.149	1.804	-0.077	0.056
-673.135	-200.000	-0.020	0.118
-672.120	789.283	-0.084	0.234
-671.105	-81.567	-0.098	0.033
-670.091	-200.000	0.020	0.151
-669.076	369.016	-0.176	0.359
-668.062	-61.775	-0.248	0.105
-667.047	-200.000	-0.017	0.191
-666.032	-138.141	0.298	0.033
-665.018	415.040	0.111	-0.239
-664.003	562.802	0.194	-0.473
-662.989	-45.107	-0.376	-0.189
-661.974	-5.142	-0.059	0.041
-660.959	279.528	-0.135	0.244
-659.945	46.695	-0.152	-0.143
-658.930	-108.180	-0.115	-0.025
-657.916	-40.879	-0.225	-0.118
-656.901	175.031	0.235	-0.344
-655.886	-78.769	-0.161	-0.055
-654.872	-168.289	-0.192	-0.007
-653.857	114.295	-0.172	-0.211
-652.843	-107.484	0.152	0.034
-651.828	676.782	0.043	-0.114
-650.814	-16.836	0.171	-0.109
-649.799	217.363	-0.047	-0.076
-648.784	180.511	0.207	-0.307
-647.770	800.000	0.038	-0.131
-646.755	-86.364	0.131	-0.041
-645.741	-133.294	0.183	-0.023
-644.726	-96.152	0.188	0.051
-643.711	-92.751	-0.241	0.068
-642.697	-92.204	-0.210	-0.060
-641.682	-8.946	-0.311	0.210
-640.668	-110.629	0.316	0.066
-639.653	-91.077	0.177	0.051
-638.638	-200.000	0.007	0.166
-637.624	73.516	0.018	0.019
-636.609	800.000	-0.050	-0.209
-635.595	-18.256	-0.321	-0.203
-634.580	-112.793	-0.226	-0.045
-633.565	-143.218	-0.407	0.039
-632.551	362.930	-0.051	-0.104
-631.536	-116.854	0.148	0.027
-630.522	1.391	-0.093	0.068
-629.507	-43.589	-0.044	-0.022
-628.492	800.000	0.109	-0.416
-627.478	142.474	-0.151	-0.203
-626.463	-200.000	-0.001	0.163
-625.449	0.520	-0.200	0.144
-624.434	-200.000	0.048	-0.218
-623.419	-38.423	0.282	-0.150
-622.405	29.044	0.265	0.227
-621.390	-200.000	-0.003	0.114
-620.376	140.861	-0.235	0.313
-619.361	35.410	0.121	0.107
-618.346	-200.000	0.005	-0.110
-617.332	800.000	0.015	-0.067
-616.317	-102.474	-0.097	0.024
-615.303	-31.807	-0.212	-0.120
-614.288	-138.540	-0.085	0.009
-613.273	-109.904	0.221	-0.047
-612.259	-43.842	0.202	-0.102
-611.244	-114.858	0.153	-0.029
-610.230	-85.680	-0.188	0.059
-609.215	36.928	0.056	0.050
-608.201	-43.560	-0.240	0.122
-607.186	-200.000	0.051	-0.265
-606.171	-200.000	0.021	0.128
-605.157	194.682	0.052	-0.079
-604.142	-23.226	-0.303	-0.184
-603.128	-200.000	0.028	0.289
-602.113	-133.296	0.429	0.055
-601.098	109.385	0.130	0.157
-600.084	-178.074	0.226	-0.005
-599.069	-7.315	-0.338	0.231
-598.055	-37.895	-0.197	-0.106
-597.040	8.084	-0.158	0.119
-596.025	92.901	0.201	0.228
-595.011	178.191	-0.157	-0.230
-593.996	800.000	-0.091	0.274
-592.982	94.150	-0.151	-0.172
-591.967	252.515	0.119	-0.204
-590.952	800.000	-0.061	-0.185
-589.938	197.606	-0.153	-0.235
-588.923	-69.864	0.555	0.213
-587.909	-104.766	-0.265	0.061
-586.894	404.321	-0.097	-0.207
-585.879	-200.000	-0.001	0.124
-584.865	214.590	0.157	0.251
-583.850	800.000	0.061	0.210
-582.836	108.952	0.119	-0.143
-581.821	800.000	0.116	-0.406
-580.806	82.632	0.129	-0.141
-579.792	-107.121	0.118	-0.026
-578.777	11.391	0.063	0.049
-577.763	-57.149	-0.145	-0.064
-576.748	-200.000	0.022	0.189
-575.733	98.137	-0.160	-0.185
-574.719	-142.875	0.516	0.050
-573.704	80.996	-0.241	-0.262
-572.690	210.569	-0.054	-0.085
-571.675	101.657	0.328	-0.385
-570.661	800.000	0.101	-0.282
-569.646	-117.655	-0.238	-0.043
-568.631	377.652	0.019	0.039
-567.617	102.788	0.067	0.079
-566.602	-200.000	-0.005	-0.083
-565.588	-70.630	0.031	-0.012
-564.573	-157.522	-0.211	0.013
-563.558	5.643	-0.246	-0.183
-562.544	-6.187	-0.323	0.222
-561.529	96.129	-0.109	0.126
-560.515	408.720	0.124	-0.265
-559.500	-21.754	-0.206	-0.126
-558.485	-200.000	-0.004	-0.437
-557.471	-88.030	0.097	0.029
-556.456	340.448	0.071	-0.140
-555.442	-130.093	0.332	-0.046
-554.427	300.120	-0.047	-0.088
-553.412	-127.864	-0.160	0.023
-552.398	-62.245	0.217	-0.091
-551.383	-33.742	0.130	0.072
-550.369	-80.151	-0.242	-0.081
-549.354	-124.086	0.167	-0.026
-548.339	351.992	-0.138	0.275
-547.325	-200.000	0.034	0.198
-546.310	227.169	-0.096	-0.157
-545.296	-87.155	0.288	0.088
-544.281	35.086	-0.085	-0.075
-543.266	-35.289	-0.193	0.105
-542.252	605.086	-0.117	-0.293
-541.237	301.606	-0.069	-0.128
-540.223	-67.504	-0.193	0.076
-539.208	370.969	0.046	0.094
-538.193	316.121	-0.057	-0.108
-537.179	61.764	0.102	-0.102
-536.164	-96.059	-0.042	0.011
-535.150	12.367	-0.093	-0.072
-534.135	-132.675	0.093	0.012
-533.121	-200.000	0.016	-0.202
-532.106	-98.223	0.113	0.029
-531.091	-200.000	-0.008	0.086
-530.077	800.000	-0.161	0.559
-529.062	265.528	0.075	-0.131
-528.048	800.000	0.051	0.146
-527.033	-197.021	0.238	-0.002
-526.018	-54.620	0.245	0.111
-525.004	173.376	-0.130	-0.188
-523.989	-200.000	-0.008	0.164
-522.975	-195.961	0.280	-0.002
-521.960	-200.000	0.009	0.127
-520.945	800.000	-0.107	0.305
-519.931	-167.848	0.090	0.004
-518.916	-62.705	0.315	0.131
-517.902	55.555	-0.263	-0.256
-516.887	117.072	0.092	-0.114
-515.872	-55.240	-0.060	0.027
-514.858	-129.545	0.371	0.052
-513.843	13.048	-0.277	-0.215
-512.829	68.764	0.162	-0.167
-511.814	-116.799	0.256	0.047
-510.799	-160.588	-0.117	-0.006
-509.785	-200.000	0.004	0.222
-508.770	-85.026	0.237	-0.075
-507.756	191.377	0.206	0.311
-506.741	-137.500	-0.351	0.040
-505.726	-76.047	0.502	0.178
-504.712	-200.000	-0.003	-0.052
-503.697	-51.599	0.209	-0.098
-502.683	800.000	0.105	-0.403
-501.668	342.059	0.115	0.226
-500.653	800.000	0.015	-0.062
-499.639	216.337	-0.071	0.114
-498.624	-21.337	-0.196	0.120
-497.610	-88.745	-0.074	0.022
-496.595	-200.000	0.031	-0.228
-495.581	454.606	-0.073	-0.162
-494.566	-46.597	-0.138	0.068
-493.551	17.137	-0.134	0.107
-492.537	-35.400	0.374	0.204
-491.522	-32.833	0.360	0.201
-490.508	650.506	0.072	-0.185
-489.493	18.156	0.068	-0.054
-488.478	-80.935	0.285	-0.095
-487.464	-78.084	-0.348	0.120
-486.449	-127.890	0.344	0.050
-485.435	-189.565	0.102	0.001
-484.420	-36.818	-0.458	0.247
-483.405	135.029	0.110	-0.143
-482.391	-200.000	0.002	0.414
-481.376	-200.000	-0.033	0.178
-480.362	-200.000	-0.020	-0.215
-479.347	212.398	0.074	0.117
-478.332	295.859	0.125	-0.229
-477.318	-143.594	0.274	-0.026
-476.303	115.780	0.209	0.257
-475.289	-119.730	0.197	0.034
-474.274	-129.839	0.247	-0.034
-473.259	-183.635	0.181	0.003
-472.245	93.465	-0.104	-0.118
-471.230	800.000	-0.082	0.316
-470.216	-200.000	0.024	-0.259
-469.201	-73.610	0.642	-0.235
-468.186	-13.620	-0.016	0.010
-467.172	-200.000	-0.036	0.278
-466.157	-200.000	-0.103	0.487
-465.143	-115.998	-0.244	-0.046
-464.128	103.476	0.113	-0.133
-463.113	139.791	-0.045	-0.059
-462.099	-200.000	-0.008	-0.066
-461.084	800.000	-0.032	0.118
-460.070	10.288	-0.209	-0.159
-459.055	-16.862	-0.139	-0.088
-458.040	91.516	0.152	0.171
-457.026	-200.000	-0.005	0.044
-456.011	-110.106	0.214	0.045
-454.997	800.000	-0.060	0.181
-453.982	30.458	-0.102	0.087
-452.968	58.620	0.148	0.146
-451.953	786.261	0.022	-0.060
-450.938	426.125	0.063	-0.136
-449.924	104.052	0.198	0.234
-448.909	-200.000	0.008	-0.198
-447.895	-37.193	-0.072	0.039
-446.880	135.528	-0.009	-0.012
-445.865	-51.896	-0.238	-0.111
-444.851	17.880	-0.107	0.086
-443.836	124.715	-0.039	0.050
-442.822	585.306	0.080	0.197
-441.807	77.195	0.112	-0.119
-440.792	-113.600	-0.134	0.026
-439.778	-23.177	-0.040	-0.024
-438.763	456.453	-0.048	-0.108
-437.749	800.000	0.081	0.308
-436.734	-200.000	-0.030	-0.268
-435.719	16.093	0.146	0.115
-434.705	16.356	0.294	-0.232
-433.690	-74.738	0.170	-0.061
-432.676	-73.941	-0.349	0.127
-431.661	-61.745	-0.131	-0.055
-430.646	-39.669	-0.192	-0.101
-429.632	-82.790	-0.327	-0.106
-428.617	-25.444	-0.071	-0.042
-427.603	-91.793	0.124	-0.035
-426.588	121.945	-0.110	0.138
-425.573	-159.438	-0.286	0.016
-424.559	204.867	0.120	0.186
-423.544	-200.000	-0.024	0.289
-422.530	-95.146	0.143	0.039
-421.515	45.560	0.225	0.208
-420.500	-200.000	0.002	0.034
-419.486	133.295	-0.079	0.102
-418.471	21.157	-0.210	-0.170
-417.457	168.927	-0.190	0.270
-416.442	149.313	-0.136	0.184
-415.428	-46.159	-0.299	-0.147
-414.413	448.883	-0.091	0.201
-413.398	131.829	-0.022	-0.028
-412.384	352.905	0.152	-0.303
-411.369	23.898	0.041	-0.034
-410.355	-150.464	0.220	0.017
-409.340	-200.000	-0.019	0.345
-408.325	-200.000	-0.067	-0.322
-407.311	680.271	-0.116	-0.301
-406.296	-67.057	-0.193	0.076
-405.282	-129.554	-0.340	-0.047
-404.267	-121.126	0.492	-0.082
-403.252	-0.908	0.472	0.334
-402.238	25.595	0.112	0.094
-401.223	-200.000	-0.027	0.177
-400.209	-63.247	0.329	-0.135
-399.194	-200.000	-0.032	-0.240
-398.179	-200.000	-0.011	0.483
-397.165	800.000	0.053	-0.163
-396.150	-6.472	-0.387	-0.264
-395.136	-159.853	-0.328	-0.018
-394.121	91.251	0.145	-0.163
-393.106	-87.478	0.096	0.029
-392.092	10.229	-0.069	-0.052
-391.077	-123.191	-0.552	-0.088
-390.063	22.125	0.064	-0.052
-389.048	-200.000	-0.018	-0.103
-388.033	109.386	-0.036	-0.044
-387.019	-198.817	0.230	0.001
-386.004	143.781	-0.050	0.067
-384.990	116.083	-0.107	0.131
-383.975	-10.670	0.050	-0.033
-382.960	36.370	0.064	-0.056
-381.946	115.185	0.262	-0.319
-380.931	267.207	-0.055	0.096
-379.917	263.652	0.178	0.310
-378.902	294.649	-0.060	0.109
-377.888	116.937	-0.086	0.105
-376.873	-200.000	0.004	0.053
-375.858	725.362	-0.111	-0.296
-374.844	269.425	0.053	-0.093
-373.829	30.545	0.066	0.057
-372.815	26.692	0.190	0.159
-371.800	-200.000	-0.030	0.174
-370.785	158.636	-0.130	-0.180
-369.771	74.798	-0.111	-0.117
-368.756	-107.299	0.209	0.046
-367.742	-200.000	-0.020	-0.225
-366.727	-200.000	-0.053	0.331
-365.712	64.530	-0.241	-0.243
-364.698	-130.962	0.452	-0.060
-363.683	-88.446	-0.333	-0.099
-362.669	-53.547	-0.055	0.025
-361.654	-145.707	-0.153	0.014
-360.639	292.720	-0.179	0.326
-359.625	-111.555	-0.251	-0.051
-358.610	39.642	-0.186	-0.167
-357.596	-70.537	0.327	-0.124
-356.581	-200.000	-0.011	-0.130
-355.566	-149.931	0.299	0.023
-354.552	-153.665	0.344	0.024
-353.537	-61.887	-0.683	-0.285
-352.523	-13.216	-0.402	-0.260
-351.508	377.165	0.248	-0.506
-350.493	237.459	0.114	0.188
-349.479	800.000	-0.048	0.151
-348.464	-151.903	-0.094	-0.007
-347.450	52.603	-0.109	0.104
-346.435	-174.270	-0.330	-0.010
-345.420	-64.633	-0.183	0.074
-344.406	-123.596	0.236	0.037
-343.391	-129.700	-0.061	0.008
-342.377	-99.456	-0.345	0.087
-341.362	-200.000	-0.032	0.187
-340.348	796.625	-0.057	0.155
-339.333	60.800	-0.090	-0.089
-338.318	-200.000	0.007	0.308
-337.304	-110.683	0.547	0.113
-336.289	-14.628	-0.126	0.081
-335.275	-43.003	-0.042	-0.021
-334.260	-13.709	-0.238	-0.154
-333.245	-37.850	-0.086	-0.046
-332.231	-200.000	0.066	-0.313
-331.216	-200.000	-0.012	0.373
-330.202	-200.000	0.037	0.321
-329.187	-200.000	0.043	-0.210
-328.172	53.771	0.064	-0.061
-327.158	33.361	-0.140	0.121
-326.143	-200.000	0.001	-0.173
-325.129	-125.892	-0.204	-0.031
-324.114	-78.960	0.058	0.020
-323.099	800.000	-0.056	0.218
-322.085	120.091	0.103	0.128
-321.070	-3.585	0.363	0.252
-320.056	-100.400	0.124	-0.031
-319.041	-200.000	-0.013	-0.186
-318.026	168.693	-0.163	-0.232
-317.012	-158.816	-0.203	0.012
-315.997	653.568	0.049	-0.125
-314.983	189.877	-0.135	-0.202
-313.968	800.000	-0.032	0.114
-312.953	-67.686	-0.339	0.132
-311.939	-200.000	0.010	0.399
-310.924	122.051	0.010	-0.012
-309.910	-14.909	0.216	0.138
-308.895	-84.878	-0.214	0.067
-307.880	-75.710	0.054	0.019
-306.866	-200.000	-0.048	-0.228
-305.851	390.051	-0.152	-0.315
-304.837	-123.881	-0.301	0.047
-303.822	90.867	0.314	0.351
-302.807	-131.362	0.250	0.033
-301.793	-107.192	-0.054	0.012
-300.778	-124.282	-0.080	0.012
-299.764	5.629	-0.026	-0.019
-298.749	44.419	-0.185	0.169
-297.735	-1.010	0.230	0.162
-296.720	160.854	0.014	-0.019
-295.705	137.229	-0.159	0.207
-294.691	-170.643	-0.297	-0.010
-293.676	266.102	0.036	0.062
-292.662	-166.692	-0.424	-0.017
-291.647	-50.729	-0.465	-0.218
-290.632	-200.000	-0.021	-0.213
-289.618	-85.542	0.245	0.076
-288.603	228.361	-0.157	0.254
-287.589	48.646	-0.221	-0.206
-286.574	-200.000	0.029	-0.125
-285.559	-200.000	0.011	-0.372
-284.545	-200.000	0.029	0.143
-283.530	800.000	-0.033	0.112
-282.516	83.433	0.059	-0.064
-281.501	164.183	0.124	0.173
-280.486	-200.000	-0.001	0.136
-279.472	46.737	0.077	-0.071
-278.457	-51.999	0.166	-0.077
-277.443	272.071	0.186	-0.327
-276.428	-122.962	0.372	0.060
-275.413	-159.718	-0.037	0.002
-274.399	42.901	0.077	0.070
-273.384	46.706	-0.079	-0.073
-272.370	35.656	-0.064	0.056
-271.355	-96.348	0.172	0.045
-270.340	-178.676	0.280	0.006
-269.326	-200.000	0.072	-0.328
-268.311	94.989	0.058	0.066
-267.297	173.818	0.124	-0.179
-266.282	518.136	0.053	0.123
-265.267	800.000	0.072	0.238
-264.253	-27.026	-0.143	0.083
-263.238	-59.413	0.146	0.062
-262.224	-200.000	0.008	-0.100
-261.209	-64.140	0.107	0.044
-260.195	-47.839	0.154	-0.074
-259.180	130.256	-0.166	-0.211
-258.165	-97.530	0.445	0.115
-257.151	105.682	-0.208	-0.245
-256.136	800.000	0.085	0.275
-255.122	256.165	-0.184	-0.314
-254.107	356.138	-0.090	0.178
-253.092	-94.696	0.210	0.057
-252.078	221.207	0.243	-0.388
-251.063	-93.910	-0.040	0.011
-250.049	274.274	-0.107	0.188
-249.034	54.459	-0.107	0.102
-248.019	-200.000	-0.014	-0.133
-247.005	-33.152	0.052	0.028
-245.990	-102.159	0.161	0.038
-244.976	-141.157	0.061	0.006
-243.961	-151.440	0.119	0.009
-242.946	298.405	-0.164	-0.299
-241.932	800.000	-0.060	-0.182
-240.917	-64.735	-0.115	-0.046
-239.903	-200.000	-0.139	-0.618
-238.888	412.045	-0.099	0.208
-237.873	228.980	0.074	0.120
-236.859	684.022	0.061	0.157
-235.844	-25.033	-0.147	-0.086
-234.830	130.416	-0.356	0.453
-233.815	-82.970	-0.154	-0.049
-232.800	7.862	0.044	-0.033
-231.786	800.000	0.024	0.097
-230.771	-106.210	-0.291	-0.065
-229.757	-51.052	0.027	0.012
-228.742	800.000	-0.173	0.476
-227.727	800.000	0.043	-0.138
-226.713	-118.193	-0.467	0.083
-225.698	71.670	-0.184	0.190
-224.684	-200.000	-0.011	0.105
-223.669	715.175	-0.029	-0.076
-222.655	-24.045	0.106	-0.063
-221.640	114.747	0.069	-0.083
-220.625	-117.615	0.154	-0.027
-219.611	800.000	0.066	0.284
-218.596	-71.267	-0.414	0.154
-217.582	93.133	0.131	-0.147
-216.567	0.254	-0.415	-0.294
-215.552	-70.172	0.204	0.077
-214.538	94.553	0.147	0.166
-213.523	800.000	-0.019	-0.065
-212.509	351.763	0.104	-0.205
-211.494	22.056	0.362	-0.293
-210.479	153.622	0.137	-0.186
-209.465	22.402	0.294	0.238
-208.450	-151.078	-0.331	0.025
-207.436	-47.750	0.107	-0.051
-206.421	-102.833	-0.148	0.035
-205.406	-200.000	-0.008	-0.056
-204.392	77.782	-0.131	0.138
-203.377	-84.568	-0.147	-0.046
-202.363	2.284	0.213	-0.153
-201.348	-50.844	-0.220	0.102
-200.333	-0.561	0.158	0.111
-199.319	87.586	0.359	0.394
-198.304	79.906	-0.242	-0.258
-197.290	-117.842	0.067	-0.012
-196.275	774.560	0.041	-0.111
-195.260	135.589	0.152	-0.196
-194.246	223.300	0.197	0.315
-193.231	247.003	0.233	0.391
-192.217	-200.000	0.055	0.388
-191.202	-75.568	-0.332	0.117
-190.187	-143.773	-0.268	-0.025
-189.173	66.974	-0.049	0.050
-188.158	-4.215	0.147	-0.101
-187.144	-200.000	-0.014	0.105
-186.129	415.568	0.127	-0.268
-185.114	143.005	-0.052	-0.068
-184.100	-95.842	0.063	0.017
-183.085	280.089	-0.066	-0.118
-182.071	-77.138	0.155	0.053
-181.056	-41.259	-0.109	-0.056
-180.042	115.471	0.179	0.217
-179.027	-200.000	0.009	-0.109
-178.012	42.418	-0.021	-0.019
-176.998	94.974	-0.068	0.076
-175.983	201.984	0.149	-0.228
-174.969	-127.750	-0.141	0.020
-173.954	800.000	-0.070	-0.280
-172.939	-116.144	0.245	0.045
-171.925	-200.000	-0.047	0.383
-170.910	-200.000	0.056	0.340
-169.896	342.489	-0.029	-0.056
-168.881	-200.000	0.009	-0.418
-167.866	-200.000	0.444	-0.001
-166.852	336.111	0.196	-0.377
-165.837	-85.053	-0.038	-0.012
-164.823	10.493	-0.151	-0.114
-163.808	-126.324	-0.136	-0.020
-162.793	150.790	-0.172	-0.232
-161.779	-160.390	-0.135	0.007
-160.764	21.291	-0.173	0.139
-159.750	-116.026	0.093	-0.017
-158.735	3.824	-0.142	0.103
-157.720	-178.047	0.300	0.007
-156.706	800.000	0.026	-0.075
-155.691	186.304	-0.074	-0.110
-154.677	90.600	-0.378	0.419
-153.662	569.808	0.055	0.132
-152.647	14.021	0.045	-0.035
-151.633	55.429	0.047	-0.045
-150.618	457.126	0.058	0.127
-149.604	-200.000	0.007	-0.034
-148.589	-188.105	0.128	-0.002
-147.574	-155.260	0.139	0.009
-146.560	66.961	0.173	-0.175
-145.545	-34.601	-0.085	-0.046
-144.531	-200.000	0.043	-0.333
-143.516	-200.000	0.002	-0.264
-142.502	-200.000	0.014	0.121
-141.487	519.693	0.083	0.193
-140.472	-114.025	0.142	0.027
-139.458	67.275	0.123	0.124
-138.443	66.120	0.093	0.093
-137.429	60.424	-0.049	-0.048
-136.414	-115.168	-0.226	0.042
-135.399	97.577	0.052	-0.059
-134.385	234.817	-0.125	-0.204
-133.370	-27.612	0.273	0.157
-132.356	-13.806	-0.236	-0.151
-131.341	-200.000	0.052	-0.231
-130.326	92.343	0.157	-0.175
-129.312	280.365	0.114	0.202
-128.297	64.411	-0.199	-0.199
-127.283	149.789	0.224	0.300
-126.268	-147.966	0.065	-0.005
-125.253	800.000	0.006	0.019
-124.239	-42.426	-0.207	0.105
-123.224	710.638	0.073	0.191
-122.210	-200.000	0.006	-0.070
-121.195	-4.505	-0.102	0.070
-120.180	63.863	0.055	0.055
-119.166	48.595	-0.206	-0.191
-118.151	117.020	0.043	0.053
-117.137	-141.804	0.050	0.005
-116.122	20.849	-0.310	0.248
-115.107	800.000	0.036	-0.138
-114.093	-82.355	0.206	-0.066
-113.078	52.393	-0.096	-0.091
-112.064	-154.056	-0.104	-0.007
-111.049	612.463	0.100	0.246
-110.034	388.889	0.007	-0.015
-109.020	426.018	-0.090	-0.192
-108.005	-88.521	-0.264	-0.078
-106.991	-69.979	0.192	0.072
-105.976	486.439	0.071	0.160
-104.962	-70.810	-0.233	-0.087
-103.947	800.000	0.062	0.237
-102.932	800.000	-0.066	0.264
-101.918	800.000	-0.041	0.118
-100.903	115.860	-0.156	0.189
-99.889	-200.000	0.039	0.243
-98.874	-139.086	-0.421	0.045
-97.859	300.181	-0.125	0.228
-96.845	-200.000	0.003	0.116
-95.830	103.819	-0.254	-0.295
-94.816	2.529	0.139	-0.100
-93.801	367.482	0.163	0.325
-92.786	-200.000	0.062	0.411
-91.772	121.019	-0.177	0.218
-90.757	800.000	-0.030	-0.109
-89.743	-99.686	0.307	0.076
-88.728	185.659	0.101	0.147
-87.713	-21.987	0.086	0.051
-86.699	-200.000	-0.020	-0.100
-85.684	-152.336	0.181	0.013
-84.670	-200.000	-0.026	-0.131
-83.655	-200.000	-0.075	-0.587
-82.640	-19.925	-0.199	-0.121
-81.626	-187.387	0.290	0.004
-80.611	245.612	-0.057	0.094
-79.597	334.176	-0.042	-0.081
-78.582	-21.101	0.255	0.154
-77.567	800.000	0.143	0.432
-76.553	742.314	-0.071	-0.189
-75.538	-90.820	0.338	-0.096
-74.524	161.070	0.062	0.085
-73.509	12.250	0.265	0.201
-72.494	-200.000	0.065	0.287
-71.480	800.000	-0.186	0.559
-70.465	-200.000	0.023	-0.103
-69.451	-134.858	-0.329	0.039
-68.436	-59.713	0.083	0.035
-67.422	-200.000	-0.044	0.284
-66.407	-52.320	-0.212	0.097
-65.392	27.551	0.036	-0.030
-64.378	800.000	0.057	0.198
-63.363	74.419	0.360	0.373
-62.349	-157.064	0.321	-0.019
-61.334	44.936	-1.053	-0.956
-60.319	131.317	0.608	0.771
-59.305	757.896	-0.277	-0.740
-58.290	240.792	0.652	1.072
-57.276	-200.000	0.341	1.784
-56.261	-200.000	102.700	616.384
-55.246	611.856	1433.671	3536.703
-54.232	181.800	2644.942	3840.301
-53.217	119.150	2200.831	2684.541
-52.203	44.689	1730.190	1569.158
-51.188	37.458	1540.693	1347.365
-50.173	34.873	1513.160	1305.615
-49.159	54.519	1567.394	1489.497
-48.144	57.180	1585.657	1525.288
-47.130	37.561	1539.141	1346.508
-46.115	34.384	1523.085	1310.607
-45.100	34.263	1519.878	1306.969
-44.086	34.163	1518.396	1304.955
-43.071	34.096	1516.657	1302.951
-42.057	34.153	1514.670	1301.579
-41.042	34.158	1513.408	1300.480
-40.027	34.132	1512.173	1299.189
-39.013	34.177	1510.223	1297.765
-37.998	34.143	1509.323	1296.708
-36.984	34.080	1508.674	1295.675
-35.969	34.131	1507.046	1294.568
-34.954	34.169	1504.959	1292.985
-33.940	34.163	1503.933	1292.008
-32.925	34.202	1502.556	1291.041
-31.911	34.258	1501.328	1290.313
-30.896	34.297	1500.287	1289.631
-29.881	34.306	1498.713	1288.285
-28.867	34.276	1497.459	1286.954
-27.852	34.242	1496.036	1285.453
-26.838	34.220	1494.266	1283.735
-25.823	34.101	1493.751	1282.437
-24.809	34.122	1491.643	1280.720
-23.794	34.137	1490.221	1279.547
-22.779	34.207	1488.826	1278.770
-21.765	34.127	1487.741	1277.250
-20.750	34.100	1486.854	1276.254
-19.736	34.132	1485.638	1275.374
-18.721	34.127	1484.521	1274.332
-17.706	34.143	1483.211	1273.265
-16.692	34.128	1482.717	1272.690
-15.677	34.165	1481.297	1271.670
-14.663	34.274	1479.919	1271.163
-13.648	34.141	1479.249	1269.652
-12.633	34.106	1478.657	1268.858
-11.619	34.118	1477.694	1268.063
-10.604	34.181	1476.394	1267.314
-9.590	34.121	1476.086	1266.600
-8.575	34.143	1475.094	1265.847
-7.560	34.148	1474.231	1265.087
-6.546	34.124	1473.488	1264.238
-5.531	34.043	1472.615	1262.904
-4.517	34.029	1471.904	1262.152
-3.502	34.106	1470.604	1261.493
-2.487	34.086	1469.577	1260.433
-1.473	34.043	1468.369	1259.059
-0.458	34.092	1466.942	1258.108
0.556	31.501	1457.302	1245.447
1.571	28.062	1429.687	1199.230
2.586	23.935	1366.455	1120.159
3.600	22.010	1283.265	1040.473
4.615	20.777	1238.177	996.773
5.629	17.871	1182.746	936.148
6.644	8.691	1096.650	821.038
7.659	1.007	1054.084	751.105
8.673	-0.232	1048.560	740.990
9.688	-0.337	1045.298	738.100
10.702	-0.577	1044.254	736.120
11.717	-0.554	1042.346	734.822
12.731	2.615	1045.536	752.587
13.746	11.739	1058.725	807.217
14.761	17.742	1066.573	842.887
15.775	17.976	1065.219	842.894
16.790	17.864	1063.966	841.279
17.804	17.722	1063.040	839.773
18.819	17.333	1062.400	837.278
19.834	17.346	1061.963	836.921
20.848	17.514	1061.502	837.313
21.863	17.403	1060.918	836.231
22.877	17.347	1060.608	835.640
23.892	17.172	1060.200	834.383
24.907	17.259	1059.166	833.922
25.921	17.423	1058.305	833.974
26.936	17.382	1057.518	833.079
27.950	17.361	1056.352	831.987
28.965	17.382	1055.139	831.056
29.980	17.336	1053.333	829.340
30.994	17.283	1051.790	827.793
32.009	17.442	1050.869	827.765
33.023	17.411	1050.223	827.034
34.038	17.204	1049.117	825.083
35.053	17.281	1048.008	824.515
36.067	17.384	1047.687	824.690
37.082	17.497	1046.505	824.230
38.096	17.451	1045.472	823.124
39.111	17.636	1044.535	823.205
40.126	17.656	1043.642	822.525
41.140	17.616	1042.480	821.343
42.155	17.459	1040.942	819.306
43.169	17.157	1039.697	816.799
44.184	17.219	1038.376	815.988
45.199	17.262	1037.342	815.310
46.213	17.212	1036.211	814.107
47.228	17.126	1035.093	812.748
48.242	17.192	1034.311	812.374
49.257	17.224	1033.563	811.870
50.271	17.330	1032.515	811.480
51.286	17.359	1031.105	810.438
52.301	17.298	1030.671	809.736
53.315	17.401	1029.849	809.509
54.330	17.487	1028.787	809.010
55.344	17.368	1028.052	807.796
56.359	17.472	1026.956	807.359
57.374	17.500	1025.757	806.476
58.388	17.265	1024.894	804.613
59.403	17.136	1024.646	803.734
60.417	17.329	1023.625	803.777
61.432	17.306	1022.532	802.737
62.447	17.092	1022.177	801.381
63.461	17.293	1021.420	801.661
64.476	17.391	1020.418	801.265
65.490	17.207	1019.564	799.659
66.505	17.258	1018.436	798.945
67.520	17.278	1017.896	798.543
68.534	17.367	1016.654	797.916
69.549	17.242	1015.732	796.537
70.563	16.926	1014.724	794.194
71.578	16.929	1014.150	793.689
72.593	16.977	1013.155	793.063
73.607	16.872	1011.914	791.535
74.622	16.955	1010.962	791.107
75.636	17.168	1010.360	791.559
76.651	17.289	1009.414	791.312
77.666	17.179	1008.468	789.986
78.680	17.085	1007.871	789.012
79.695	17.015	1007.565	788.380
80.709	17.190	1006.766	788.495
81.724	17.290	1005.746	788.090
82.739	17.131	1005.003	786.703
83.753	17.120	1004.015	785.810
84.768	17.424	1003.298	786.584
85.782	17.511	1002.277	786.112
86.797	17.608	1002.067	786.327
87.812	17.694	1000.329	785.291
88.826	17.466	999.508	783.525
89.841	17.523	998.691	783.081
90.855	17.469	998.132	782.323
91.870	17.629	997.229	782.283
92.884	17.576	995.994	780.998
93.899	17.360	995.342	779.429
94.914	17.496	993.943	778.888
95.928	17.588	993.371	778.792
96.943	17.585	992.841	778.295
97.957	17.367	991.782	776.398
98.972	17.148	990.944	774.675
99.987	16.994	989.190	772.533
101.001	17.064	988.388	772.159
102.016	17.324	988.294	773.200
103.030	17.444	987.418	772.991
104.045	17.386	986.033	771.576
105.060	17.064	984.936	769.188
106.074	16.881	983.659	767.297
107.089	17.117	982.621	767.486
108.103	17.407	982.357	768.522
109.118	17.561	981.835	768.740
110.133	17.391	980.312	766.711
111.147	17.419	979.225	765.922
112.162	17.376	977.847	764.582
113.176	17.185	977.237	763.181
114.191	17.269	976.101	762.602
115.206	17.343	975.426	762.339
116.220	17.045	974.144	759.937
117.235	16.965	972.910	758.550
118.249	17.068	972.581	758.687
119.264	17.215	971.632	758.536
120.279	17.177	970.543	757.448
121.293	17.179	969.339	756.451
122.308	17.159	969.291	756.254
123.322	17.286	968.125	755.844
124.337	17.274	967.103	754.927
125.352	17.206	965.509	753.313
126.366	16.808	963.876	750.212
127.381	16.492	962.644	747.790
128.395	17.005	962.020	749.506
129.410	17.472	961.737	751.279
130.424	17.551	961.098	751.063
131.439	17.547	959.678	749.869
132.454	17.647	958.676	749.456
133.468	17.528	957.644	748.062
134.483	17.452	957.234	747.344
135.497	17.480	956.599	746.903
136.512	17.553	955.765	746.507
137.527	17.755	954.948	746.687
138.541	17.724	954.013	745.754
139.556	17.716	953.011	744.872
140.570	17.646	952.550	744.140
141.585	17.631	951.601	743.265
142.600	17.717	950.460	742.684
143.614	17.623	949.344	741.336
144.629	17.644	948.957	741.060
145.643	17.917	947.909	741.359
146.658	17.746	947.246	740.036
147.673	17.579	946.257	738.474
148.687	17.617	944.861	737.483
149.702	17.659	943.908	736.855
150.716	17.609	942.941	735.819
151.731	17.613	941.646	734.760
152.746	17.664	940.977	734.394
153.760	17.768	940.691	734.552
154.775	17.778	940.032	734.015
155.789	17.811	939.420	733.615
156.804	17.846	938.279	732.810
157.819	17.722	937.349	731.488
158.833	17.746	936.560	730.908
159.848	17.800	935.889	730.553
160.862	17.858	934.988	730.031
161.877	17.694	933.869	728.392
162.892	17.771	932.941	727.932
163.906	17.854	932.571	727.936
164.921	17.855	931.534	727.065
165.935	17.925	930.373	726.392
166.950	17.757	929.405	724.858
167.964	17.910	928.350	724.623
168.979	17.815	927.317	723.349
169.994	17.708	926.388	722.106
171.008	17.654	925.317	720.978
172.023	17.758	924.690	720.866
173.037	17.934	923.571	720.674
174.052	17.668	922.371	718.552
175.067	17.420	921.576	716.825
176.081	17.562	921.080	716.974
177.096	17.747	919.969	716.824
178.110	17.761	919.024	716.083
179.125	17.513	918.167	714.309
180.140	17.380	917.066	712.832
181.154	17.417	916.178	712.237
182.169	17.410	915.907	711.931
183.183	17.530	915.249	711.858
184.198	17.889	914.481	712.696
185.213	17.801	913.971	711.872
186.227	17.843	912.978	711.209
187.242	17.882	912.794	711.165
188.256	17.872	911.858	710.330
189.271	17.814	910.744	709.160
190.286	18.003	909.915	709.237
191.300	17.788	909.101	707.645
192.315	17.427	908.223	705.406
193.329	16.870	906.834	701.959
194.344	16.599	905.570	699.796
195.359	17.103	905.593	701.837
196.373	17.872	905.670	705.013
197.388	17.838	905.352	704.559
198.402	17.656	904.959	703.441
199.417	17.453	904.292	702.024
200.432	17.618	903.249	701.832
201.446	17.510	902.201	700.511
202.461	17.110	901.588	698.327
203.475	17.229	900.823	698.163
204.490	16.889	899.639	695.789
205.504	16.024	897.573	690.587
206.519	16.381	898.020	692.333
207.534	17.321	898.056	696.149
208.548	17.270	897.832	695.706
209.563	17.766	897.434	697.365
210.577	17.754	896.328	696.395
211.592	17.526	895.469	694.734
212.607	17.682	895.586	695.401
213.621	17.745	894.818	694.999
214.636	17.967	894.000	695.207
215.650	17.856	893.596	694.376
216.665	17.846	892.590	693.495
217.680	17.925	892.293	693.525
218.694	18.006	891.732	693.354
219.709	17.433	890.896	690.318
220.723	17.244	889.968	688.775
221.738	17.572	889.315	689.536
222.753	17.770	888.905	689.958
223.767	17.676	887.851	688.699
224.782	17.829	886.933	688.545
225.796	17.949	886.409	688.560
226.811	18.002	886.153	688.513
227.826	17.588	884.506	685.507
228.840	17.020	883.209	682.156
229.855	16.984	882.776	681.618
230.869	17.154	882.408	681.955
231.884	16.968	881.141	680.172
232.899	17.011	880.683	679.930
233.913	17.814	880.528	682.967
234.928	18.001	880.239	683.431
235.942	17.861	879.907	682.552
236.957	17.929	879.128	682.156
237.972	17.588	878.227	680.036
238.986	17.649	877.297	679.499
240.001	17.652	876.930	679.169
241.015	17.741	875.847	678.625
242.030	17.836	875.565	678.722
243.045	17.974	874.514	678.396
244.059	17.915	873.962	677.674
245.074	18.066	873.566	677.905
246.088	17.822	873.229	676.617
247.103	17.559	871.917	674.501
248.117	17.512	871.154	673.664
249.132	17.992	870.985	675.371
250.147	18.278	870.258	675.878
251.161	18.177	869.707	674.989
252.176	18.336	868.916	674.945
253.190	18.358	868.058	674.306
254.205	18.513	867.640	674.530
255.220	18.681	867.081	674.697
256.234	18.550	866.976	674.039
257.249	18.608	865.416	672.996
258.263	18.379	865.022	671.732
259.278	18.504	864.381	671.664
260.293	18.676	863.768	671.801
261.307	18.442	863.618	670.709
262.322	18.554	862.288	670.056
263.336	18.375	861.647	668.797
264.351	17.888	860.472	665.928
265.366	16.797	858.361	659.986
266.380	16.409	857.712	657.919
267.395	17.355	857.765	661.584
268.409	17.996	858.182	664.341
269.424	18.073	857.366	663.949
270.439	18.228	856.840	664.083
271.453	18.456	855.879	664.163
272.468	18.367	855.326	663.334
273.482	18.491	855.028	663.522
274.497	18.708	854.367	663.792
275.512	18.325	852.794	661.031
276.526	18.040	851.694	659.020
277.541	18.108	851.400	658.996
278.555	18.530	850.724	660.039
279.570	18.360	850.050	658.805
280.585	17.937	849.487	656.685
281.599	18.195	848.585	656.921
282.614	18.209	848.589	656.918
283.628	17.972	847.453	655.071
284.643	17.736	846.363	653.267
285.657	18.058	846.213	654.329
286.672	18.031	845.505	653.619
287.687	17.537	844.526	650.915
288.701	17.685	844.712	651.566
289.716	18.105	844.376	652.857
290.730	17.854	843.003	650.779
291.745	17.667	842.434	649.568
292.760	17.577	841.282	648.283
293.774	17.588	840.805	647.900
294.789	18.417	840.962	651.114
295.803	18.895	840.750	652.707
296.818	18.878	840.625	652.487
297.833	18.891	840.528	652.404
298.847	18.863	838.619	650.760
299.862	18.541	837.840	648.880
300.876	18.770	837.373	649.326
301.891	18.864	836.762	649.149
302.906	18.852	836.496	648.841
303.920	18.487	834.689	646.005
304.935	18.269	834.364	644.876
305.949	18.614	834.133	645.940
306.964	18.739	833.784	646.082
307.979	18.806	832.536	645.310
308.993	18.647	832.516	644.638
310.008	18.959	832.214	645.519
311.022	19.004	831.865	645.363
312.037	18.906	831.017	644.280
313.052	18.853	830.526	643.644
314.066	18.616	829.786	642.127
315.081	18.098	828.346	639.017
316.095	17.579	827.272	636.196
317.110	18.017	827.672	638.083
318.125	18.612	827.800	640.348
319.139	18.496	826.323	638.714
320.154	17.666	824.790	634.386
321.168	17.072	824.514	631.907
322.183	17.687	823.881	633.655
323.197	18.429	824.519	636.848
324.212	18.611	823.743	636.868
325.227	18.670	823.618	636.931
326.241	19.026	822.714	637.496
327.256	18.868	822.545	636.722
328.270	18.744	822.025	635.806
329.285	18.880	820.908	635.390
330.300	18.617	820.772	634.256
331.314	18.399	820.008	632.802
332.329	18.448	819.161	632.276
333.343	18.845	818.564	633.221
334.358	18.836	818.099	632.772
335.373	18.886	817.922	632.764
336.387	19.070	817.251	632.864
337.402	19.044	816.910	632.449
338.416	19.347	815.641	632.521
339.431	19.120	815.445	631.484
340.446	19.184	814.709	631.090
341.460	19.325	814.555	631.433
342.475	19.216	814.282	630.764
343.489	19.049	813.128	629.206
344.504	19.035	812.793	628.841
345.519	19.048	812.485	628.592
346.533	19.419	811.664	629.257
347.548	19.548	811.210	629.319
348.562	19.392	811.237	628.713
349.577	19.464	810.522	628.366
350.592	19.719	809.729	628.623
351.606	19.559	809.256	627.620
352.621	19.669	809.078	627.824
353.635	19.522	808.458	626.756
354.650	19.500	807.779	626.095
355.665	19.182	806.837	624.157
356.679	18.247	805.408	619.612
357.694	18.047	805.103	618.599
358.708	18.707	804.652	620.582
359.723	18.684	804.217	620.110
360.738	18.987	803.848	620.866
361.752	19.231	803.762	621.623
362.767	19.274	803.407	621.448
363.781	19.491	803.258	622.062
364.796	19.771	802.759	622.629
365.810	19.720	802.427	622.132
366.825	19.851	801.867	622.115
367.840	19.801	801.150	621.324
368.854	19.768	800.766	620.853
369.869	19.421	800.089	619.028
370.883	19.344	799.531	618.265
371.898	19.420	799.095	618.144
372.913	19.249	798.112	616.717
373.927	19.190	797.571	616.035
374.942	19.327	796.908	615.959
375.956	19.377	796.844	616.033
376.971	19.429	796.547	615.933
377.986	19.692	795.525	616.027
379.000	19.855	795.539	616.565
380.015	19.920	794.725	616.109
381.029	19.771	794.013	614.972
382.044	19.633	793.721	614.200
383.059	19.837	793.142	614.426
384.073	19.859	792.458	613.916
385.088	19.827	792.012	613.406
386.102	19.935	791.920	613.660
387.117	19.912	790.964	612.785
388.132	19.867	789.880	611.733
389.146	19.701	789.573	610.855
390.161	19.143	788.745	608.189
391.175	19.145	788.444	607.910
392.190	19.565	788.471	609.358
393.205	19.547	787.969	608.854
394.219	18.814	786.673	605.218
395.234	17.614	784.753	599.466
396.248	17.091	784.002	597.001
397.263	18.025	784.427	600.555
398.278	19.445	785.501	606.320
399.292	19.803	785.485	607.512
400.307	19.503	784.615	605.733
401.321	19.584	784.015	605.498
402.336	19.575	784.034	605.430
403.350	19.772	783.696	605.805
404.365	20.013	783.793	606.670
405.380	20.145	783.323	606.715
406.394	20.347	782.778	606.945
407.409	20.495	782.277	607.021
408.423	20.336	782.064	606.244
409.438	20.189	781.563	605.291
410.453	20.323	781.251	605.462
411.467	20.420	780.525	605.184
412.482	20.571	780.004	605.251
413.496	20.381	779.511	604.154
414.511	20.515	779.024	604.193
415.526	20.438	778.879	603.757
416.540	20.411	778.361	603.209
417.555	20.397	777.922	602.768
418.569	20.030	777.313	600.969
419.584	20.192	776.437	600.799
420.599	20.262	775.730	600.439
421.613	155.565	1358.614	1793.166
422.628	134.274	1443.548	1793.278
