DTS Sentinel unit serial number:	SN413079Multiplexer serial number:	ORYXHardware model number:	OX4-SRSoftware version number:	ORYX F/W v4.00 Oryx Data Collector v3.7.2.0data status	okinstallation	princeton_trtdifferential loss correction	single-endedforward channel	channel 3reverse channel	N/Adate	2019/09/15time	17:00:34forward acquisition time	60.00reverse acquisition time	0.00gamma	496.2192k internal	0.2287k external	0.2287temperature offset calibration	0.9926default loss term (dB/km)	0.3790temperature slope calibration	1.0000multiplexer offset coefficient	1.0000multiplexer slope coefficient	1.0000fibre end	0.00T internal ref (°C)	44.48T ext. ref 1 (°C)	5.86T ext. ref 2 (°C)	40.60length (m)	temperature (°C)	Stokes	anti-Stokes-747.200	767.378	-0.068	-0.191
-746.185	340.422	-0.204	0.409
-745.171	-185.040	-0.301	0.005
-744.156	800.000	-0.120	0.408
-743.142	-169.271	-0.069	0.003
-742.127	396.013	-0.174	0.372
-741.112	800.000	-0.098	-0.365
-740.098	800.000	-0.106	0.315
-739.083	-200.000	0.012	0.160
-738.069	-200.000	-0.067	0.313
-737.054	45.187	0.164	-0.155
-736.039	1.675	-0.075	0.055
-735.025	-137.845	-0.324	0.037
-734.010	-163.346	0.149	-0.007
-732.996	125.399	-0.167	-0.216
-731.981	-69.012	0.328	-0.130
-730.966	-103.461	0.269	-0.065
-729.952	79.899	-0.230	0.253
-728.937	99.997	-0.087	-0.104
-727.923	-200.000	-0.018	-0.092
-726.908	-90.512	0.051	0.015
-725.894	800.000	-0.024	0.104
-724.879	-144.962	0.029	-0.003
-723.864	425.827	-0.128	-0.284
-722.850	-127.077	0.192	-0.029
-721.835	-98.205	-0.132	-0.035
-720.821	-200.000	0.060	-0.333
-719.806	23.122	0.251	0.211
-718.791	-165.245	0.126	-0.006
-717.777	-200.000	0.011	0.331
-716.762	800.000	0.105	0.312
-715.748	250.086	-0.250	-0.436
-714.733	-182.552	0.153	-0.003
-713.718	392.810	0.057	-0.121
-712.704	-45.234	-0.184	0.094
-711.689	8.305	0.227	0.175
-710.675	-127.479	-0.282	-0.042
-709.660	-37.134	-0.145	0.079
-708.645	-93.373	-0.061	0.017
-707.631	409.689	-0.120	0.261
-706.616	-54.932	0.379	0.175
-705.602	-14.335	-0.130	-0.086
-704.587	-79.011	0.236	0.082
-703.572	-114.187	-0.279	0.055
-702.558	800.000	0.021	0.071
-701.543	-72.413	-0.338	0.128
-700.529	29.310	0.137	-0.119
-699.514	-200.000	-0.005	-0.035
-698.499	270.463	-0.074	-0.133
-697.485	-36.290	-0.071	0.039
-696.470	740.974	0.024	-0.065
-695.456	-200.000	-0.013	-0.125
-694.441	68.907	0.112	0.118
-693.426	-188.129	0.066	0.001
-692.412	-200.000	-0.003	-0.081
-691.397	530.082	-0.070	0.170
-690.383	-108.896	0.264	0.058
-689.368	201.153	0.100	0.158
-688.354	57.823	0.274	-0.275
-687.339	124.585	0.065	-0.084
-686.324	215.293	-0.103	0.168
-685.310	-70.988	-0.296	-0.114
-684.295	93.886	-0.082	0.095
-683.281	120.219	-0.250	0.318
-682.266	-200.000	-0.016	-0.094
-681.251	-27.896	-0.088	-0.052
-680.237	67.849	0.039	0.040
-679.222	-200.000	-0.016	-0.148
-678.208	44.285	-0.196	0.184
-677.193	800.000	0.081	0.254
-676.178	359.677	0.109	-0.222
-675.164	255.111	0.163	-0.286
-674.149	313.794	-0.074	-0.142
-673.135	-143.579	-0.152	0.015
-672.120	-90.652	-0.076	-0.023
-671.105	-200.000	-0.022	-0.298
-670.091	-37.471	0.060	-0.033
-669.076	-137.613	-0.092	0.011
-668.062	445.171	0.082	0.183
-667.047	-122.697	-0.354	0.059
-666.032	139.772	0.150	0.202
-665.018	-107.037	0.091	-0.020
-664.003	502.160	0.037	0.086
-662.989	282.632	0.058	0.106
-661.974	-200.000	-0.027	-0.315
-660.959	20.059	0.069	0.057
-659.945	123.878	0.052	0.067
-658.930	-68.462	-0.130	0.052
-657.916	-67.865	0.096	0.038
-656.901	-192.711	0.209	-0.002
-655.886	800.000	-0.134	-0.402
-654.872	-143.494	0.183	-0.018
-653.857	800.000	-0.014	-0.045
-652.843	-200.000	0.079	-0.385
-651.828	139.178	0.052	-0.069
-650.814	-84.681	-0.138	0.044
-649.799	-200.000	0.042	-0.325
-648.784	-95.878	0.060	0.016
-647.770	-200.000	0.003	-0.109
-646.755	-200.000	0.014	-0.361
-645.741	-136.694	-0.297	-0.035
-644.726	-160.977	-0.158	-0.008
-643.711	-38.372	0.122	-0.066
-642.697	417.050	-0.152	-0.332
-641.682	9.961	0.190	-0.147
-640.668	800.000	0.040	-0.120
-639.653	429.835	0.059	-0.130
-638.638	45.062	-0.280	-0.264
-637.624	-200.000	0.069	-0.386
-636.609	-200.000	-0.015	-0.321
-635.595	-131.046	0.214	0.029
-634.580	-81.333	0.287	-0.097
-633.565	134.163	0.099	-0.131
-632.551	-200.000	-0.019	-0.292
-631.536	-200.000	-0.004	-0.030
-630.522	286.440	0.105	-0.194
-629.507	-126.180	-0.252	0.039
-628.492	-200.000	-0.058	0.309
-627.478	130.355	0.034	-0.045
-626.463	-112.227	-0.186	0.038
-625.449	-200.000	-0.007	-0.099
-624.434	-121.514	-0.107	-0.018
-623.419	-50.528	-0.236	-0.113
-622.405	-200.000	-0.056	-0.265
-621.390	181.166	-0.162	0.243
-620.376	-13.492	-0.241	0.159
-619.361	40.596	-0.099	0.091
-618.346	-200.000	-0.008	0.118
-617.332	-84.928	-0.263	0.084
-616.317	56.523	0.118	0.117
-615.303	-200.000	-0.013	-0.240
-614.288	-29.898	0.420	-0.244
-613.273	-73.280	0.137	0.051
-612.259	800.000	0.032	0.091
-611.244	-200.000	0.013	-0.221
-610.230	-200.000	0.042	-0.211
-609.215	-113.270	-0.268	0.054
-608.201	104.104	-0.121	-0.146
-607.186	53.321	0.167	0.163
-606.171	800.000	0.043	-0.126
-605.157	-170.943	-0.178	0.006
-604.142	154.307	-0.042	-0.059
-603.128	-148.030	0.307	-0.026
-602.113	29.162	-0.144	-0.125
-601.098	504.817	-0.077	-0.182
-600.084	672.409	-0.026	-0.068
-599.069	800.000	-0.047	-0.186
-598.055	-134.070	0.337	-0.042
-597.040	-1.219	-0.241	0.174
-596.025	800.000	0.090	0.306
-595.011	-123.563	0.172	0.028
-593.996	-42.518	0.093	-0.049
-592.982	128.479	-0.186	-0.241
-591.967	140.645	0.118	-0.159
-590.952	388.867	-0.172	-0.364
-589.938	149.217	-0.084	-0.116
-588.923	266.954	0.091	-0.162
-587.909	800.000	0.039	-0.130
-586.894	-127.297	-0.279	-0.042
-585.879	-83.855	-0.115	0.037
-584.865	800.000	0.020	-0.064
-583.850	144.573	-0.143	-0.195
-582.836	56.925	-0.103	0.102
-581.821	512.971	0.074	0.175
-580.806	389.280	-0.074	-0.156
-579.792	337.353	0.196	-0.389
-578.777	800.000	0.096	-0.310
-577.763	23.602	-0.186	-0.156
-576.748	-170.727	0.221	-0.008
-575.733	-200.000	0.017	-0.086
-574.719	291.142	-0.069	0.127
-573.704	376.309	-0.067	0.139
-572.690	277.204	0.113	0.205
-571.675	800.000	-0.110	-0.339
-570.661	-57.579	-0.296	-0.132
-569.646	-200.000	-0.002	-0.283
-568.631	-147.219	-0.277	-0.024
-567.617	381.058	-0.128	0.267
-566.602	-41.763	-0.072	0.037
-565.588	-38.737	0.174	0.094
-564.573	-105.634	-0.295	-0.068
-563.558	-200.000	-0.068	0.389
-562.544	30.678	0.108	0.095
-561.529	800.000	-0.016	0.046
-560.515	-176.225	-0.080	-0.002
-559.500	217.380	-0.165	0.267
-558.485	-98.251	0.373	0.098
-557.471	253.562	0.050	-0.087
-556.456	45.984	-0.159	0.150
-555.442	611.586	0.020	-0.050
-554.427	110.201	-0.152	0.186
-553.412	57.704	-0.122	0.121
-552.398	535.352	0.040	-0.096
-551.383	-200.000	0.099	0.509
-550.369	347.574	-0.107	0.214
-549.354	-12.965	0.263	0.174
-548.339	98.451	-0.164	0.193
-547.325	697.980	0.096	0.257
-546.310	-200.000	0.001	0.072
-545.296	-128.839	-0.075	0.011
-544.281	-53.439	0.177	-0.082
-543.266	230.940	-0.070	-0.117
-542.252	-200.000	0.023	-0.224
-541.237	-200.000	-0.022	-0.223
-540.223	-200.000	-0.073	0.368
-539.208	52.644	0.068	0.066
-538.193	37.360	-0.169	-0.153
-537.179	-200.000	-0.058	0.385
-536.164	336.220	0.086	0.169
-535.150	-14.481	-0.190	-0.125
-534.135	-10.615	0.160	0.108
-533.121	461.629	0.121	0.275
-532.106	800.000	0.106	-0.449
-531.091	-135.075	0.151	-0.019
-530.077	741.650	0.047	0.130
-529.062	-13.130	0.192	0.127
-528.048	-200.000	-0.114	0.540
-527.033	229.919	0.249	0.414
-526.018	-143.849	-0.072	-0.007
-525.004	-80.253	0.106	0.036
-523.989	-61.196	0.228	0.098
-522.975	-200.000	-0.008	0.100
-521.960	189.768	-0.150	0.228
-520.945	237.210	0.124	-0.210
-519.931	580.224	-0.126	0.313
-518.916	-27.646	-0.184	-0.109
-517.902	52.225	0.040	-0.039
-516.887	-108.792	-0.279	0.061
-515.872	-80.285	-0.056	-0.019
-514.858	-109.235	-0.189	0.041
-513.843	49.622	-0.432	-0.414
-512.829	-200.000	0.037	-0.267
-511.814	590.373	0.157	0.393
-510.799	-21.257	-0.060	0.037
-509.785	800.000	-0.009	0.038
-508.770	316.571	-0.153	-0.293
-507.756	-66.867	-0.047	-0.019
-506.741	-138.377	0.134	-0.015
-505.726	60.321	0.339	-0.341
-504.712	-114.230	-0.372	0.073
-503.697	523.157	-0.106	0.253
-502.683	228.737	-0.164	0.272
-501.668	482.345	0.041	0.094
-500.653	-200.000	0.025	-0.137
-499.639	-23.834	0.190	0.116
-498.624	-66.967	0.199	-0.080
-497.610	581.922	-0.143	-0.356
-496.595	-88.601	-0.135	0.041
-495.581	-108.128	-0.195	0.043
-494.566	-200.000	0.034	0.167
-493.551	-200.000	0.028	0.299
-492.537	-68.522	0.464	0.183
-491.522	107.289	-0.172	0.207
-490.508	-12.651	-0.120	0.079
-489.493	-200.000	-0.005	-0.233
-488.478	-128.524	0.135	0.019
-487.464	42.759	-0.021	0.020
-486.449	-200.000	-0.021	-0.187
-485.435	519.833	0.033	0.077
-484.420	134.622	-0.245	-0.323
-483.405	-200.000	0.043	0.205
-482.391	-28.267	0.260	-0.152
-481.376	221.411	0.198	-0.323
-480.362	4.620	0.072	-0.054
-479.347	800.000	-0.050	0.189
-478.332	406.554	-0.121	0.259
-477.318	-200.000	0.030	0.307
-476.303	-200.000	0.022	-0.167
-475.289	-200.000	0.020	-0.109
-474.274	-187.140	0.169	0.002
-473.259	796.161	0.118	-0.331
-472.245	800.000	0.058	0.173
-471.230	-200.000	-0.084	0.382
-470.216	-34.801	-0.418	-0.232
-469.201	800.000	-0.054	-0.176
-468.186	426.469	-0.071	-0.155
-467.172	-142.211	-0.591	-0.059
-466.157	0.554	-0.039	0.028
-465.143	127.780	0.083	0.107
-464.128	215.459	-0.127	0.205
-463.113	-103.175	0.327	0.078
-462.099	-200.000	0.015	-0.125
-461.084	-150.187	0.279	0.022
-460.070	39.264	0.061	0.055
-459.055	131.403	-0.087	-0.114
-458.040	-92.834	0.178	-0.050
-457.026	126.967	-0.093	-0.120
-456.011	-85.064	0.260	0.083
-454.997	194.655	0.032	-0.049
-453.982	-103.007	-0.270	0.065
-452.968	48.072	-0.059	0.056
-451.953	-200.000	0.003	0.031
-450.938	-143.548	0.232	-0.022
-449.924	-198.412	-0.132	-0.001
-448.909	-119.016	-0.197	-0.035
-447.895	800.000	-0.051	0.195
-446.880	162.851	0.065	0.093
-445.865	800.000	-0.074	0.331
-444.851	123.567	-0.060	0.076
-443.836	-200.000	0.048	0.396
-442.822	-200.000	0.053	0.420
-441.807	54.704	-0.175	-0.171
-440.792	-200.000	0.073	0.394
-439.778	278.565	-0.176	0.318
-438.763	273.160	0.168	0.300
-437.749	173.356	-0.196	0.287
-436.734	-200.000	-0.025	0.115
-435.719	79.611	-0.142	-0.154
-434.705	-171.535	-0.323	-0.011
-433.690	-145.511	0.077	-0.007
-432.676	502.104	0.028	-0.066
-431.661	41.202	-0.042	0.038
-430.646	-94.104	-0.226	-0.063
-429.632	64.401	0.123	0.126
-428.617	-200.000	0.036	0.168
-427.603	-115.106	0.154	-0.030
-426.588	112.863	0.081	-0.099
-425.573	4.432	0.118	0.087
-424.559	121.262	0.172	-0.217
-423.544	-146.190	0.131	0.012
-422.530	13.047	0.329	-0.258
-421.515	424.160	-0.085	0.185
-420.500	800.000	0.067	-0.197
-419.486	71.148	0.150	-0.157
-418.471	194.767	0.164	0.253
-417.457	-14.069	0.204	-0.133
-416.442	-200.000	-0.000	-0.074
-415.428	-58.951	0.223	-0.098
-414.413	-17.699	-0.385	0.245
-413.398	-155.653	0.272	-0.018
-412.384	436.161	0.118	0.260
-411.369	293.767	-0.092	-0.170
-410.355	16.795	-0.050	-0.040
-409.340	-83.736	-0.215	-0.070
-408.325	324.480	0.186	-0.359
-407.311	-48.534	0.354	0.172
-406.296	-200.000	-0.054	-0.300
-405.282	77.298	-0.396	0.427
-404.267	184.461	0.110	0.165
-403.252	-75.173	-0.263	-0.095
-402.238	93.701	0.222	-0.255
-401.223	29.545	0.286	-0.246
-400.209	-200.000	0.004	-0.082
-399.194	-106.016	-0.351	0.080
-398.179	800.000	-0.077	-0.250
-397.165	-200.000	-0.055	0.407
-396.150	-88.043	0.314	-0.095
-395.136	-149.304	0.464	-0.037
-394.121	-33.369	-0.031	-0.018
-393.106	518.649	0.046	0.109
-392.092	-157.740	0.314	-0.019
-391.077	-24.413	0.021	-0.013
-390.063	6.690	0.111	0.083
-389.048	0.747	0.179	0.130
-388.033	-150.460	-0.402	-0.031
-387.019	-64.121	-0.105	-0.043
-386.004	-184.889	0.164	0.003
-384.990	-11.446	-0.091	-0.061
-383.975	-161.830	0.128	-0.007
-382.960	-200.000	0.054	-0.254
-381.946	-200.000	0.086	-0.514
-380.931	-150.923	-0.238	0.018
-379.917	-200.000	-0.023	0.450
-378.902	106.092	0.293	-0.350
-377.888	37.847	0.158	0.142
-376.873	-200.000	0.021	-0.123
-375.858	-200.000	0.025	0.212
-374.844	-46.886	-0.217	0.107
-373.829	-92.189	-0.068	0.020
-372.815	22.964	-0.309	-0.256
-371.800	-10.507	-0.122	0.082
-370.785	182.871	-0.212	-0.316
-369.771	493.878	-0.091	-0.211
-368.756	-151.314	0.427	-0.032
-367.742	-4.712	-0.192	-0.134
-366.727	-59.532	-0.324	0.141
-365.712	800.000	-0.022	0.086
-364.698	-109.701	-0.139	0.030
-363.683	123.154	-0.039	0.050
-362.669	-200.000	0.044	0.231
-361.654	350.859	0.100	0.201
-360.639	576.197	-0.164	-0.406
-359.625	4.561	-0.158	-0.117
-358.610	-200.000	0.026	0.273
-357.596	626.983	0.111	0.282
-356.581	-34.202	-0.222	0.123
-355.566	-67.004	0.301	-0.120
-354.552	800.000	-0.054	0.221
-353.537	-200.000	0.051	0.243
-352.523	-67.543	0.281	0.111
-351.508	800.000	-0.025	0.077
-350.493	-108.224	0.213	0.047
-349.479	-24.478	0.080	0.048
-348.464	-200.000	0.006	-0.041
-347.450	-123.056	-0.221	-0.036
-346.435	-200.000	-0.017	-0.081
-345.420	-72.702	-0.184	0.068
-344.406	800.000	0.069	0.243
-343.391	-39.086	0.405	-0.215
-342.377	-143.710	0.161	0.015
-341.362	209.436	-0.175	0.277
-340.348	100.241	0.042	-0.049
-339.333	190.177	-0.145	0.220
-338.318	78.652	0.133	0.143
-337.304	-66.914	-0.242	-0.097
-336.289	-200.000	0.007	0.059
-335.275	60.097	-0.073	-0.073
-334.260	266.599	0.162	-0.286
-333.245	-200.000	0.007	0.069
-332.231	-33.478	0.123	0.069
-331.216	111.065	-0.250	0.304
-330.202	-38.896	-0.124	0.066
-329.187	800.000	0.056	-0.197
-328.172	41.589	0.056	-0.051
-327.158	-56.622	-0.212	-0.095
-326.143	-200.000	-0.014	-0.125
-325.129	-200.000	0.012	0.127
-324.114	104.921	0.269	0.320
-323.099	24.316	0.150	0.125
-322.085	62.197	-0.076	0.076
-321.070	44.855	0.133	0.123
-320.056	-94.989	0.155	0.042
-319.041	227.282	0.086	-0.140
-318.026	-44.582	0.194	0.098
-317.012	293.194	0.198	-0.364
-315.997	-25.694	-0.305	0.182
-314.983	10.368	0.324	-0.249
-313.968	145.459	-0.212	0.287
-312.953	27.246	-0.113	0.096
-311.939	-102.745	0.104	0.025
-310.924	131.518	-0.148	-0.192
-309.910	800.000	0.034	0.122
-308.895	60.607	0.155	0.155
-307.880	-5.768	-0.209	0.144
-306.866	-168.987	0.229	-0.009
-305.851	-135.851	-0.350	-0.042
-304.837	-39.099	-0.280	0.148
-303.822	201.853	-0.112	-0.175
-302.807	236.070	0.080	0.133
-301.793	-10.591	0.358	-0.239
-300.778	-200.000	0.035	0.323
-299.764	-32.872	-0.132	0.074
-298.749	86.434	0.048	-0.053
-297.735	-24.543	-0.341	-0.205
-296.720	625.250	0.039	0.099
-295.705	-20.152	0.186	0.115
-294.691	0.347	0.233	0.168
-293.676	210.114	0.071	0.112
-292.662	800.000	-0.054	-0.189
-291.647	131.822	-0.180	-0.233
-290.632	-25.245	0.248	0.148
-289.618	-163.574	0.323	0.015
-288.603	302.117	-0.183	0.340
-287.589	47.431	0.087	0.082
-286.574	-200.000	0.019	0.107
-285.559	-81.036	-0.280	-0.093
-284.545	256.634	0.106	-0.183
-283.530	281.120	-0.149	0.269
-282.516	214.616	-0.129	0.206
-281.501	55.852	0.054	-0.053
-280.486	59.210	-0.199	-0.197
-279.472	-98.522	0.078	0.020
-278.457	325.776	-0.133	0.256
-277.443	-119.382	-0.272	-0.048
-276.428	800.000	0.110	0.425
-275.413	-200.000	0.053	0.351
-274.399	55.151	0.431	-0.419
-273.384	36.578	-0.145	0.129
-272.370	7.360	0.337	-0.253
-271.355	-84.152	0.175	-0.056
-270.340	-31.029	-0.259	-0.147
-269.326	-200.000	0.025	-0.344
-268.311	-200.000	-0.024	-0.419
-267.297	232.769	-0.227	0.375
-266.282	-79.822	-0.199	0.067
-265.267	-13.345	0.161	0.105
-264.253	-200.000	-0.006	0.027
-263.238	800.000	0.007	0.023
-262.224	130.018	-0.065	0.084
-261.209	-92.302	-0.169	0.048
-260.195	-200.000	0.004	0.247
-259.180	800.000	0.014	0.044
-258.165	318.365	-0.095	-0.182
-257.151	27.930	-0.123	-0.104
-256.136	88.410	0.068	-0.076
-255.122	-151.113	0.404	-0.031
-254.107	70.149	-0.115	0.120
-253.092	-63.992	-0.165	-0.068
-252.078	-109.371	0.256	-0.055
-251.063	282.125	0.088	-0.158
-250.049	800.000	-0.124	0.351
-249.034	51.990	-0.123	0.118
-248.019	46.823	-0.087	-0.081
-247.005	207.867	-0.064	0.100
-245.990	-128.363	-0.105	0.015
-244.976	-77.889	0.257	-0.089
-243.961	39.220	0.192	-0.173
-242.946	77.070	0.051	-0.054
-241.932	479.031	-0.050	0.114
-240.917	-200.000	-0.044	0.265
-239.903	457.619	0.157	-0.350
-238.888	271.609	0.060	0.107
-237.873	13.581	0.125	-0.097
-236.859	-200.000	0.050	-0.352
-235.844	-32.855	0.168	-0.094
-234.830	-41.116	0.212	-0.110
-233.815	144.549	0.221	-0.296
-232.800	-118.360	0.096	0.017
-231.786	-7.838	0.097	-0.066
-230.771	-200.000	0.089	0.408
-229.757	34.737	-0.321	-0.282
-228.742	122.413	0.198	0.249
-227.727	-12.509	-0.194	0.127
-226.713	279.314	-0.152	-0.272
-225.698	19.145	0.196	-0.158
-224.684	253.389	0.033	-0.057
-223.669	-150.400	0.130	0.010
-222.655	-200.000	-0.008	-0.329
-221.640	-200.000	-0.025	0.441
-220.625	190.223	-0.060	0.091
-219.611	-69.549	-0.232	0.089
-218.596	-113.524	0.165	-0.032
-217.582	100.635	0.169	0.198
-216.567	-200.000	0.054	-0.282
-215.552	64.563	0.024	0.024
-214.538	226.179	-0.183	0.298
-213.523	-200.000	0.007	0.155
-212.509	41.729	0.219	-0.200
-211.494	800.000	0.035	-0.099
-210.479	364.835	0.067	-0.135
-209.465	11.705	-0.155	-0.120
-208.450	-158.803	-0.139	0.008
-207.436	-16.980	0.132	0.084
-206.421	59.117	0.178	0.176
-205.406	11.796	0.253	0.196
-204.392	4.797	-0.148	0.109
-203.377	-200.000	0.017	0.076
-202.363	503.546	-0.087	0.202
-201.348	595.945	-0.043	-0.108
-200.333	-65.186	0.142	-0.057
-199.319	-200.000	0.006	0.122
-198.304	-53.158	0.031	-0.014
-197.290	761.240	-0.102	-0.277
-196.275	18.634	0.071	0.057
-195.260	-73.386	-0.144	-0.053
-194.246	95.870	-0.044	0.050
-193.231	267.613	-0.009	-0.015
-192.217	134.341	-0.142	-0.184
-191.202	191.796	-0.107	-0.162
-190.187	-90.549	-0.083	-0.024
-189.173	118.728	-0.183	-0.227
-188.158	-13.386	0.249	-0.162
-187.144	115.005	-0.135	0.165
-186.129	-200.000	-0.010	-0.065
-185.114	-111.792	-0.137	-0.028
-184.100	-40.940	-0.125	-0.065
-183.085	-39.306	0.161	-0.085
-182.071	-121.152	-0.119	0.020
-181.056	-15.295	-0.162	-0.104
-180.042	-126.989	-0.211	-0.031
-179.027	85.304	0.259	0.286
-178.012	-158.270	0.185	0.011
-176.998	-39.473	0.126	0.066
-175.983	-1.470	0.174	-0.123
-174.969	244.204	-0.095	0.160
-173.954	32.525	-0.235	-0.204
-172.939	-110.789	0.108	-0.022
-171.925	-104.724	-0.184	-0.042
-170.910	-169.220	0.145	-0.005
-169.896	-114.357	0.472	-0.091
-168.881	261.489	-0.076	-0.132
-167.866	-98.367	-0.272	-0.070
-166.852	-200.000	0.021	-0.151
-165.837	-35.472	0.313	-0.171
-164.823	-200.000	-0.014	-0.067
-163.808	-87.445	-0.321	0.098
-162.793	418.197	0.064	-0.137
-161.779	-82.120	-0.102	-0.033
-160.764	-34.884	-0.072	0.039
-159.750	116.344	-0.034	-0.041
-158.735	-66.803	-0.238	-0.094
-157.720	-200.000	0.050	-0.328
-156.706	-77.523	0.122	-0.042
-155.691	-57.006	0.147	-0.065
-154.677	800.000	0.136	-0.433
-153.662	314.664	-0.057	0.108
-152.647	800.000	0.059	0.225
-151.633	406.405	-0.054	0.114
-150.618	-137.691	0.347	-0.039
-149.604	18.316	0.074	-0.059
-148.589	-34.806	0.128	-0.070
-147.574	-162.751	-0.242	-0.012
-146.560	385.273	-0.097	-0.201
-145.545	117.219	0.040	0.049
-144.531	-4.299	0.083	-0.057
-143.516	14.991	-0.119	0.094
-142.502	800.000	0.079	0.289
-141.487	19.262	-0.097	-0.078
-140.472	98.867	-0.062	-0.072
-139.458	100.559	-0.162	0.188
-138.443	798.245	0.164	-0.454
-137.429	448.193	-0.046	-0.102
-136.414	-133.100	-0.231	0.029
-135.399	136.374	-0.238	-0.311
-134.385	-71.464	0.140	0.052
-133.370	-129.775	0.146	0.020
-132.356	49.720	-0.095	-0.090
-131.341	42.501	0.251	0.229
-130.326	-200.000	0.016	-0.083
-129.312	-200.000	-0.014	-0.109
-128.297	495.289	0.068	-0.157
-127.283	-200.000	-0.000	0.138
-126.268	-154.600	0.246	0.016
-125.253	163.253	-0.054	-0.076
-124.239	56.924	-0.225	-0.219
-123.224	-37.743	-0.079	0.042
-122.210	-200.000	0.018	0.230
-121.195	-200.000	0.009	0.119
-120.180	-56.934	0.151	-0.067
-119.166	-76.881	0.169	0.059
-118.151	-41.207	-0.210	-0.108
-117.137	-59.714	0.057	0.025
-116.122	-124.356	0.188	0.029
-115.107	-35.522	0.232	0.126
-114.093	-200.000	0.031	0.163
-113.078	52.227	-0.196	0.187
-112.064	-200.000	0.024	0.540
-111.049	719.050	-0.083	-0.220
-110.034	-121.578	-0.131	-0.022
-109.020	-200.000	-0.017	-0.128
-108.005	-85.117	0.136	0.043
-106.991	-61.576	-0.498	0.209
-105.976	581.725	-0.082	0.201
-104.962	-57.348	-0.182	-0.080
-103.947	-21.968	-0.252	-0.153
-102.932	-200.000	-0.011	-0.318
-101.918	-200.000	0.017	0.260
-100.903	-59.425	-0.189	0.081
-99.889	-30.764	-0.222	-0.126
-98.874	-44.990	0.145	0.072
-97.859	-84.238	0.092	0.029
-96.845	118.203	-0.218	0.268
-95.830	268.842	0.115	-0.201
-94.816	-67.725	-0.281	0.110
-93.801	-95.166	0.292	0.079
-92.786	800.000	0.138	-0.410
-91.772	-184.902	-0.166	0.003
-90.757	-145.140	-0.286	-0.026
-89.743	103.513	-0.139	0.163
-88.728	216.665	-0.035	0.056
-87.713	800.000	-0.080	-0.331
-86.699	87.840	0.060	-0.066
-85.684	-60.989	0.148	0.063
-84.670	64.248	-0.079	0.080
-83.655	800.000	-0.072	0.266
-82.640	291.549	-0.172	-0.314
-81.626	-51.707	0.172	0.080
-80.611	-93.276	-0.262	0.073
-79.597	-121.833	-0.411	-0.068
-78.582	800.000	0.186	0.547
-77.567	-200.000	0.042	-0.299
-76.553	290.301	-0.038	0.070
-75.538	-200.000	-0.017	0.097
-74.524	-98.481	-0.222	-0.057
-73.509	-200.000	0.005	-0.082
-72.494	-157.750	-0.073	-0.004
-71.480	-140.979	0.179	0.018
-70.465	244.991	-0.201	0.337
-69.451	25.776	-0.222	-0.185
-68.436	-171.120	-0.211	-0.007
-67.422	800.000	0.067	0.190
-66.407	25.012	0.165	-0.137
-65.392	92.376	0.128	0.144
-64.378	-165.709	0.049	-0.002
-63.363	-73.357	0.142	0.052
-62.349	-21.527	-0.354	0.215
-61.334	76.006	-0.942	-0.995
-60.319	-200.000	0.030	-0.145
-59.305	-200.000	0.051	-0.618
-58.290	72.586	0.367	0.383
-57.276	302.211	0.816	1.506
-56.261	-200.000	70.007	517.502
-55.246	577.192	1264.025	3085.400
-54.232	139.156	2521.156	3310.461
-53.217	119.202	2266.022	2798.685
-52.203	56.130	1787.416	1732.562
-51.188	48.124	1578.759	1473.846
-50.173	45.224	1547.785	1424.689
-49.159	59.745	1580.665	1557.254
-48.144	67.679	1600.648	1632.552
-47.130	48.552	1565.393	1464.143
-46.115	44.712	1551.666	1424.454
-45.100	44.644	1547.890	1420.458
-44.086	44.674	1545.894	1418.775
-43.071	44.455	1544.095	1415.546
-42.057	44.431	1541.896	1413.311
-41.042	44.375	1540.943	1411.990
-40.027	44.433	1539.186	1410.725
-39.013	44.462	1537.360	1409.198
-37.998	44.381	1536.670	1407.946
-36.984	44.491	1535.326	1407.419
-35.969	44.505	1534.063	1406.305
-34.954	44.476	1532.827	1404.913
-33.940	44.531	1530.812	1403.395
-32.925	44.546	1529.267	1402.026
-31.911	44.570	1527.785	1400.772
-30.896	44.681	1526.478	1400.285
-29.881	44.630	1525.124	1398.638
-28.867	44.589	1523.687	1396.977
-27.852	44.568	1521.930	1395.167
-26.838	44.552	1520.415	1393.618
-25.823	44.552	1518.524	1391.829
-24.809	44.620	1516.738	1390.602
-23.794	44.460	1515.731	1388.530
-22.779	44.418	1514.918	1387.446
-21.765	44.499	1513.483	1386.627
-20.750	44.552	1512.672	1386.187
-19.736	44.504	1511.198	1384.457
-18.721	44.514	1510.070	1383.436
-17.706	44.505	1508.963	1382.309
-16.692	44.426	1508.112	1380.931
-15.677	44.460	1506.894	1379.997
-14.663	44.385	1505.988	1378.605
-13.648	44.419	1504.735	1377.633
-12.633	44.407	1504.060	1376.880
-11.619	44.411	1503.044	1375.918
-10.604	44.401	1502.197	1375.025
-9.590	44.376	1501.692	1374.337
-8.575	44.400	1500.218	1373.098
-7.560	44.483	1499.450	1372.900
-6.546	44.471	1498.397	1371.799
-5.531	44.478	1497.487	1370.957
-4.517	44.411	1496.459	1369.514
-3.502	44.457	1495.786	1369.152
-2.487	44.399	1494.378	1367.417
-1.473	44.485	1493.220	1366.883
-0.458	44.482	1492.170	1365.844
0.556	42.670	1482.932	1357.333
1.571	39.979	1455.860	1314.561
2.586	35.636	1390.054	1227.367
3.600	32.681	1304.556	1134.031
4.615	29.973	1255.048	1075.199
5.629	25.462	1196.736	1000.107
6.644	15.530	1107.084	873.700
7.659	7.501	1060.050	796.367
8.673	6.070	1053.709	784.393
9.688	5.826	1051.225	781.259
10.702	5.755	1049.218	779.342
11.717	5.799	1047.857	778.484
12.731	8.848	1051.703	796.442
13.746	16.816	1062.664	844.539
14.761	20.313	1066.250	864.767
15.775	18.406	1062.286	852.002
16.790	16.787	1059.219	841.430
17.804	15.641	1057.316	834.159
18.819	14.713	1055.318	827.912
19.834	14.219	1053.734	824.153
20.848	13.950	1052.612	821.870
21.863	13.649	1051.783	819.659
22.877	13.414	1051.123	817.914
23.892	13.251	1050.339	816.428
24.907	13.043	1049.689	814.820
25.921	13.135	1048.813	814.524
26.936	13.192	1047.833	813.973
27.950	13.314	1046.910	813.780
28.965	13.235	1045.712	812.388
29.980	13.272	1044.616	811.648
30.994	13.446	1043.275	811.387
32.009	13.480	1042.413	810.810
33.023	13.544	1041.485	810.332
34.038	13.582	1041.231	810.247
35.053	13.238	1040.562	807.975
36.067	13.292	1039.543	807.375
37.082	13.414	1038.245	806.893
38.096	13.203	1037.602	805.293
39.111	13.260	1037.101	805.112
40.126	13.321	1036.239	804.668
41.140	13.367	1034.665	803.595
42.155	13.263	1033.685	802.258
43.169	13.048	1033.235	800.797
44.184	13.133	1031.971	800.159
45.199	13.177	1030.539	799.188
46.213	13.101	1029.806	798.182
47.228	13.138	1028.603	797.357
48.242	13.210	1027.903	797.092
49.257	13.279	1026.972	796.633
50.271	13.293	1025.582	795.553
51.286	13.288	1025.022	795.024
52.301	13.322	1024.450	794.669
53.315	13.312	1023.387	793.727
54.330	13.098	1022.809	792.182
55.344	13.242	1021.723	791.963
56.359	13.137	1020.833	790.701
57.374	13.096	1020.300	790.020
58.388	13.225	1018.943	789.518
59.403	13.235	1018.064	788.814
60.417	13.093	1017.399	787.552
61.432	13.092	1016.742	786.967
62.447	12.976	1016.001	785.774
63.461	13.125	1015.419	785.961
64.476	12.986	1014.375	784.423
65.490	12.997	1013.386	783.641
66.505	12.935	1012.566	782.642
67.520	12.944	1012.022	782.195
68.534	13.074	1011.065	782.002
69.549	13.095	1010.114	781.299
70.563	13.042	1009.734	780.687
71.578	13.003	1008.960	779.834
72.593	13.020	1007.986	779.091
73.607	12.915	1006.836	777.639
74.622	12.899	1005.934	776.798
75.636	13.007	1004.820	776.378
76.651	12.967	1004.285	775.707
77.666	12.958	1003.469	774.966
78.680	12.913	1003.142	774.431
79.695	12.925	1002.771	774.136
80.709	13.093	1001.607	773.954
81.724	13.079	1000.942	773.305
82.739	13.080	1000.440	772.857
83.753	13.165	999.526	772.479
84.768	13.140	998.944	771.844
85.782	13.264	998.120	771.716
86.797	13.477	997.008	771.783
87.812	13.374	996.878	771.134
88.826	13.304	995.729	769.849
89.841	13.264	994.835	768.906
90.855	13.338	994.095	768.609
91.870	13.332	993.322	767.914
92.884	13.350	992.505	767.298
93.899	13.324	991.975	766.703
94.914	13.187	991.412	765.564
95.928	13.415	990.466	765.823
96.943	13.501	989.670	765.536
97.957	13.415	988.854	764.439
98.972	13.398	987.664	763.373
99.987	13.305	987.101	762.442
101.001	13.347	986.513	762.111
102.016	13.394	985.667	761.609
103.030	13.291	985.052	760.594
104.045	13.253	984.264	759.743
105.060	13.425	983.006	759.496
106.074	13.368	981.792	758.225
107.089	13.340	981.098	757.495
108.103	13.126	980.336	755.859
109.118	12.963	979.623	754.498
110.133	13.064	978.759	754.229
111.147	13.082	977.729	753.448
112.162	13.073	977.131	752.882
113.176	13.161	976.049	752.384
114.191	13.077	975.532	751.535
115.206	13.286	974.089	751.307
116.220	13.111	973.751	750.183
117.235	13.181	972.610	749.555
118.249	13.125	972.168	748.893
119.264	13.209	971.024	748.326
120.279	13.197	970.279	747.635
121.293	13.196	969.536	746.992
122.308	13.110	968.626	745.837
123.322	13.033	967.828	744.805
124.337	13.159	966.597	744.361
125.352	13.126	965.460	743.272
126.366	13.077	964.366	742.144
127.381	13.137	963.251	741.487
128.395	12.999	962.834	740.482
129.410	13.053	961.702	739.791
130.424	13.331	960.400	739.965
131.439	13.209	959.808	738.899
132.454	13.220	959.213	738.424
133.468	13.236	958.341	737.759
134.483	13.207	957.849	737.186
135.497	13.425	956.915	737.374
136.512	13.310	956.483	736.463
137.527	13.397	955.515	736.041
138.541	13.331	954.681	735.037
139.556	13.255	954.489	734.489
140.570	13.331	953.528	734.020
141.585	13.360	952.827	733.547
142.600	13.481	952.035	733.408
143.614	13.497	951.381	732.907
144.629	13.528	950.343	732.180
145.643	13.527	949.814	731.704
146.658	13.604	948.690	731.113
147.673	13.395	947.967	729.570
148.687	13.430	947.140	729.022
149.702	13.389	946.195	728.051
150.716	13.383	945.012	727.051
151.731	13.268	944.566	726.138
152.746	13.250	943.802	725.406
153.760	13.208	943.183	724.681
154.775	13.310	942.297	724.386
155.789	13.393	941.509	724.079
156.804	13.465	940.815	723.793
157.819	13.398	939.858	722.700
158.833	13.384	939.680	722.441
159.848	13.539	938.674	722.280
160.862	13.350	938.497	721.256
161.877	13.522	937.569	721.226
162.892	13.538	936.631	720.512
163.906	13.365	935.555	718.868
164.921	13.334	934.969	718.222
165.935	13.241	933.715	716.790
166.950	13.360	932.881	716.601
167.964	13.412	932.261	716.289
168.979	13.407	930.996	715.232
169.994	13.400	930.148	714.484
171.008	13.422	929.321	713.880
172.023	13.317	928.604	712.815
173.037	13.364	927.973	712.472
174.052	13.729	926.808	713.081
175.067	13.581	926.327	712.014
176.081	13.440	925.620	710.800
177.096	13.434	924.587	709.920
178.110	13.409	923.985	709.286
179.125	13.335	923.785	708.755
180.140	13.494	922.578	708.444
181.154	13.384	921.926	707.412
182.169	13.486	921.399	707.380
183.183	13.606	920.597	707.213
184.198	13.670	919.666	706.707
185.213	13.681	919.197	706.332
186.227	13.678	918.919	706.045
187.242	13.747	918.143	705.681
188.256	13.804	917.552	705.403
189.271	13.747	917.041	704.706
190.286	13.786	916.015	704.022
191.300	13.756	915.060	703.100
192.315	13.601	914.053	701.606
193.329	13.478	913.180	700.356
194.344	13.425	912.996	699.927
195.359	13.411	912.514	699.436
196.373	13.612	911.998	699.828
197.388	13.626	911.513	699.454
198.402	13.809	911.087	699.834
199.417	13.815	910.608	699.432
200.432	13.867	910.308	699.358
201.446	13.924	909.579	698.977
202.461	13.912	909.249	698.611
203.475	14.042	908.510	698.526
204.490	14.053	907.886	698.033
205.504	14.018	907.169	697.269
206.519	13.880	906.501	696.117
207.534	13.862	905.847	695.478
208.548	13.769	905.032	694.403
209.563	13.894	904.131	694.172
210.577	13.943	903.605	693.912
211.592	13.868	903.013	693.083
212.607	14.106	901.877	693.141
213.621	13.971	901.895	692.531
214.636	14.071	901.008	692.203
215.650	13.994	900.204	691.204
216.665	14.146	899.676	691.370
217.680	13.982	899.762	690.695
218.694	14.179	898.865	690.763
219.709	14.281	898.291	690.683
220.723	14.280	897.473	689.988
221.738	14.236	896.868	689.280
222.753	14.245	896.088	688.659
223.767	14.255	895.493	688.181
224.782	14.087	895.015	687.060
225.796	14.273	894.243	687.174
226.811	14.305	893.270	686.496
227.826	14.267	892.891	685.985
228.840	14.203	892.000	684.978
229.855	14.082	891.734	684.217
230.869	14.193	890.682	683.803
231.884	14.400	889.519	683.703
232.899	14.320	889.009	682.919
233.913	14.242	888.305	681.999
234.928	14.104	887.841	681.016
235.942	14.245	886.956	680.854
236.957	14.281	886.441	680.547
237.972	14.182	885.813	679.600
238.986	14.159	885.143	678.933
240.001	14.288	884.501	678.905
241.015	14.201	884.052	678.145
242.030	14.199	883.347	677.537
243.045	14.208	882.891	677.165
244.059	14.332	882.215	677.092
245.074	14.328	881.411	676.397
246.088	14.355	881.043	676.165
247.103	14.341	880.424	675.574
248.117	14.454	879.587	675.331
249.132	14.523	879.364	675.377
250.147	14.546	878.881	675.037
251.161	14.618	878.159	674.716
252.176	14.699	877.532	674.503
253.190	14.787	876.850	674.275
254.205	14.842	876.122	673.874
255.220	14.873	875.595	673.537
256.234	14.841	874.838	672.764
257.249	14.807	874.461	672.279
258.263	14.894	873.858	672.105
259.278	14.794	873.320	671.231
260.293	14.926	872.435	671.021
261.307	14.912	871.936	670.520
262.322	14.954	871.503	670.299
263.336	14.902	871.031	669.667
264.351	14.966	870.446	669.412
265.366	14.976	869.674	668.799
266.380	15.122	869.149	668.923
267.395	15.114	868.543	668.362
268.409	15.017	867.478	667.100
269.424	15.082	866.863	666.825
270.439	14.908	866.448	665.755
271.453	14.964	865.622	665.285
272.468	14.918	864.732	664.357
273.482	14.850	864.023	663.485
274.497	14.964	863.388	663.392
275.512	14.892	863.100	662.824
276.526	15.010	861.904	662.315
277.541	15.058	861.426	662.078
278.555	15.015	860.891	661.441
279.570	15.020	860.541	661.131
280.585	15.245	859.842	661.422
281.599	15.329	859.112	661.134
282.614	15.152	858.269	659.731
283.628	15.259	857.550	659.542
284.643	15.181	857.334	659.010
285.657	15.065	857.251	658.430
286.672	15.152	856.539	658.167
287.687	15.104	856.263	657.707
288.701	15.295	855.084	657.493
289.716	15.258	854.316	656.701
290.730	15.248	854.244	656.548
291.745	15.264	853.820	656.226
292.760	15.399	852.463	655.653
293.774	15.322	852.262	655.138
294.789	15.493	851.546	655.200
295.803	15.362	851.528	654.615
296.818	15.326	850.727	653.802
297.833	15.093	850.376	652.567
298.847	15.367	849.638	653.008
299.862	15.379	848.778	652.338
300.876	15.346	848.186	651.696
301.891	15.466	847.509	651.584
302.906	15.550	846.693	651.226
303.920	15.533	846.197	650.720
304.935	15.460	845.626	649.938
305.949	15.694	844.797	650.149
306.964	15.657	844.199	649.488
307.979	15.452	843.815	648.344
308.993	15.472	843.384	648.033
310.008	15.714	842.340	648.108
311.022	15.600	842.046	647.385
312.037	15.731	841.689	647.558
313.052	15.751	840.713	646.825
314.066	15.494	840.340	645.492
315.081	15.598	839.846	645.455
316.095	15.403	839.478	644.367
317.110	15.502	838.875	644.229
318.125	15.590	838.071	643.889
319.139	15.489	838.131	643.494
320.154	15.479	837.446	642.871
321.168	15.461	836.668	642.149
322.183	15.752	835.791	642.529
323.197	15.660	835.828	642.151
324.212	15.751	835.025	641.825
325.227	15.632	834.629	641.008
326.241	15.678	834.139	640.750
327.256	15.551	833.779	639.932
328.270	15.671	832.994	639.732
329.285	15.721	832.122	639.195
330.300	15.661	831.735	638.613
331.314	15.584	831.494	638.081
332.329	15.667	830.588	637.644
333.343	15.853	829.910	637.771
334.358	15.791	829.530	637.185
335.373	15.939	828.934	637.231
336.387	15.879	828.746	636.805
337.402	15.814	828.390	636.231
338.416	15.955	827.775	636.232
339.431	15.872	827.133	635.370
340.446	15.946	826.521	635.122
341.460	15.922	825.976	634.559
342.475	16.078	825.320	634.586
343.489	16.145	824.820	634.397
344.504	16.140	824.204	633.849
345.519	16.114	823.936	633.486
346.533	16.251	823.212	633.388
347.548	16.267	822.652	632.961
348.562	16.094	822.424	632.083
349.577	16.165	821.535	631.610
350.592	16.138	821.028	631.061
351.606	15.987	820.551	630.074
352.621	16.089	820.058	630.022
353.635	16.024	819.838	629.556
354.650	16.197	819.495	629.881
355.665	16.112	818.930	629.073
356.679	16.152	818.504	628.839
357.694	16.255	817.799	628.626
358.708	16.248	817.329	628.183
359.723	16.197	816.706	627.460
360.738	16.179	816.359	627.070
361.752	16.517	815.500	627.611
362.767	16.307	815.174	626.525
363.781	16.167	814.974	625.796
364.796	16.176	814.884	625.706
365.810	16.441	814.136	626.056
366.825	16.487	813.576	625.741
367.840	16.525	813.300	625.613
368.854	16.591	813.000	625.573
369.869	16.520	812.083	624.549
370.883	16.484	811.444	623.868
371.898	16.558	810.865	623.643
372.913	16.513	810.529	623.162
373.927	16.597	809.764	622.827
374.942	16.650	809.267	622.585
375.956	16.541	808.962	621.895
376.971	16.493	808.268	621.129
377.986	16.512	807.619	620.646
379.000	16.765	807.189	621.190
380.015	16.808	806.777	620.974
381.029	16.812	806.274	620.548
382.044	16.662	805.792	619.575
383.059	16.650	805.097	618.941
384.073	16.771	804.638	618.973
385.088	16.648	804.161	618.102
386.102	16.687	803.456	617.649
387.117	16.609	802.731	616.751
388.132	16.705	802.323	616.735
389.146	16.705	802.190	616.577
390.161	16.620	801.746	615.872
391.175	16.714	801.165	615.712
392.190	16.773	801.204	615.904
393.205	16.942	800.623	616.016
394.219	16.671	800.449	614.844
395.234	16.795	800.053	614.935
396.248	16.743	799.028	613.905
397.263	16.707	798.677	613.450
398.278	16.817	798.127	613.370
399.292	16.749	797.563	612.636
400.307	16.719	797.137	612.147
401.321	16.783	796.765	612.039
402.336	16.782	796.488	611.768
403.350	16.810	796.131	611.541
404.365	16.833	795.806	611.320
405.380	16.819	795.477	610.964
406.394	17.033	794.815	611.171
407.409	17.077	794.442	610.989
408.423	16.973	793.832	610.093
409.438	16.981	793.925	610.139
410.453	17.034	793.139	609.670
411.467	17.144	792.352	609.406
412.482	17.238	791.695	609.185
413.496	17.300	791.415	609.137
414.511	17.224	791.633	608.978
415.526	17.157	791.013	608.206
416.540	17.152	790.766	607.947
417.555	17.391	789.929	608.102
418.569	17.317	789.411	607.387
419.584	17.214	789.339	606.908
420.599	17.327	788.929	606.944
421.613	75.589	1233.561	1262.344
422.628	63.518	1298.376	1262.478
