DTS Sentinel unit serial number:	SN413079Multiplexer serial number:	ORYXHardware model number:	OX4-SRSoftware version number:	ORYX F/W v4.00 Oryx Data Collector v3.7.2.0data status	okinstallation	princeton_trtdifferential loss correction	single-endedforward channel	channel 3reverse channel	N/Adate	2019/09/15time	17:24:35forward acquisition time	60.00reverse acquisition time	0.00gamma	496.2192k internal	0.2286k external	0.2286temperature offset calibration	0.9929default loss term (dB/km)	0.3790temperature slope calibration	1.0000multiplexer offset coefficient	1.0000multiplexer slope coefficient	1.0000fibre end	0.00T internal ref (°C)	44.78T ext. ref 1 (°C)	6.10T ext. ref 2 (°C)	40.07length (m)	temperature (°C)	Stokes	anti-Stokes-747.200	-139.245	-0.233	-0.026
-746.185	-200.000	-0.012	0.088
-745.171	-25.331	0.206	-0.125
-744.156	800.000	0.044	0.133
-743.142	-167.605	0.165	0.007
-742.127	702.242	-0.173	0.467
-741.112	251.099	0.047	0.082
-740.098	-121.608	-0.260	-0.044
-739.083	-200.000	-0.002	-0.196
-738.069	191.625	0.283	0.438
-737.054	-117.181	0.016	-0.003
-736.039	-50.596	-0.169	0.082
-735.025	128.514	0.148	-0.193
-734.010	184.664	-0.104	-0.158
-732.996	2.365	-0.094	0.070
-731.981	-200.000	-0.013	0.315
-730.966	-200.000	-0.007	-0.150
-729.952	281.614	-0.068	-0.125
-728.937	-97.316	0.591	0.158
-727.923	-105.214	0.205	-0.048
-726.908	11.548	-0.204	0.161
-725.894	-200.000	-0.010	-0.327
-724.879	-126.179	-0.139	0.021
-723.864	-200.000	-0.013	-0.223
-722.850	-200.000	0.022	-0.239
-721.835	800.000	0.084	-0.341
-720.821	800.000	0.072	-0.273
-719.806	-95.859	-0.481	-0.131
-718.791	-33.795	-0.343	0.194
-717.777	-113.551	-0.121	0.024
-716.762	-200.000	0.005	-0.218
-715.748	2.130	0.171	-0.127
-714.733	800.000	0.071	0.216
-713.718	-135.580	0.195	0.024
-712.704	-36.243	0.034	0.019
-711.689	-88.300	0.195	-0.060
-710.675	3.663	0.033	-0.025
-709.660	-78.229	-0.325	0.114
-708.645	-76.781	0.300	0.107
-707.631	-74.492	-0.252	-0.093
-706.616	84.193	-0.114	-0.128
-705.602	-68.153	-0.242	0.097
-704.587	-200.000	-0.072	0.347
-703.572	10.349	-0.047	0.037
-702.558	-177.912	0.219	-0.005
-701.543	-44.642	-0.141	0.072
-700.529	87.817	0.072	0.081
-699.514	84.383	0.119	-0.133
-698.499	51.078	-0.041	0.040
-697.485	-200.000	-0.025	0.531
-696.470	763.066	0.088	-0.246
-695.456	-60.164	-0.238	-0.104
-694.441	800.000	0.021	-0.089
-693.426	-200.000	0.012	-0.123
-692.412	-200.000	0.002	-0.124
-691.397	81.277	-0.276	-0.306
-690.383	800.000	0.071	-0.265
-689.368	299.189	-0.033	-0.062
-688.354	-141.262	0.265	-0.028
-687.339	121.481	0.086	0.109
-686.324	-88.118	-0.196	-0.060
-685.310	-120.093	-0.334	0.059
-684.295	13.670	0.094	0.075
-683.281	128.133	0.231	-0.300
-682.266	-141.875	-0.313	0.032
-681.251	-83.127	-0.122	-0.040
-680.237	-114.142	0.078	-0.015
-679.222	-200.000	-0.010	0.224
-678.208	-200.000	-0.042	-0.220
-677.193	800.000	-0.051	-0.208
-676.178	88.330	0.077	0.088
-675.164	-49.475	-0.071	0.035
-674.149	147.248	-0.072	0.100
-673.135	-82.006	-0.231	0.077
-672.120	-123.304	-0.333	-0.054
-671.105	46.338	-0.130	0.124
-670.091	195.934	-0.061	-0.096
-669.076	28.162	0.238	-0.205
-668.062	196.485	0.064	0.099
-667.047	800.000	-0.108	0.345
-666.032	321.096	-0.058	0.114
-665.018	-103.132	-0.155	-0.038
-664.003	-200.000	-0.029	-0.347
-662.989	800.000	0.082	0.275
-661.974	64.340	-0.128	0.132
-660.959	-200.000	-0.001	-0.239
-659.945	-200.000	-0.016	0.119
-658.930	-34.330	-0.106	0.059
-657.916	-71.506	0.338	-0.129
-656.901	-88.674	0.385	0.117
-655.886	-24.827	0.180	-0.110
-654.872	23.885	0.382	0.322
-653.857	492.410	0.033	-0.078
-652.843	-27.351	0.118	-0.070
-651.828	-86.802	-0.047	0.015
-650.814	247.929	0.006	-0.011
-649.799	-13.167	0.177	0.117
-648.784	800.000	-0.009	0.032
-647.770	-18.928	-0.203	0.129
-646.755	-33.361	0.217	0.123
-645.741	77.536	0.190	0.207
-644.726	420.879	0.046	-0.100
-643.711	237.391	0.192	0.325
-642.697	-200.000	0.022	-0.372
-641.682	800.000	0.103	-0.343
-640.668	-38.614	-0.293	0.158
-639.653	403.716	-0.231	-0.497
-638.638	171.946	-0.095	-0.140
-637.624	98.507	0.136	0.161
-636.609	52.365	-0.137	0.133
-635.595	267.613	0.072	-0.128
-634.580	-200.000	0.023	0.113
-633.565	200.468	-0.043	-0.068
-632.551	142.360	0.212	-0.287
-631.536	5.451	-0.129	-0.097
-630.522	-200.000	-0.018	-0.128
-629.507	99.152	-0.265	0.313
-628.492	-56.196	0.497	0.226
-627.478	342.374	-0.056	-0.113
-626.463	-18.040	0.068	0.043
-625.449	800.000	-0.033	-0.126
-624.434	-200.000	-0.365	0.001
-623.419	28.676	0.187	0.161
-622.405	-107.975	0.205	0.046
-621.390	-148.935	0.163	-0.013
-620.376	481.687	-0.091	-0.212
-619.361	-24.930	-0.183	0.111
-618.346	-85.878	-0.135	-0.043
-617.332	303.391	-0.117	-0.222
-616.317	-36.690	0.084	0.046
-615.303	-200.000	0.018	0.198
-614.288	13.744	-0.097	-0.077
-613.273	33.473	0.077	-0.069
-612.259	171.732	-0.033	0.048
-611.244	-44.740	-0.275	0.140
-610.230	-200.000	-0.023	0.130
-609.215	-58.609	-0.362	-0.160
-608.201	-200.000	0.011	-0.070
-607.186	82.764	-0.141	0.157
-606.171	-20.610	-0.199	0.125
-605.157	479.558	0.128	0.296
-604.142	-104.585	-0.204	0.048
-603.128	320.047	0.010	-0.019
-602.113	-200.000	-0.041	0.185
-601.098	361.124	-0.046	0.093
-600.084	639.927	-0.075	0.196
-599.069	-54.382	-0.152	-0.070
-598.055	7.852	0.356	0.273
-597.040	-200.000	0.043	-0.308
-596.025	111.555	0.112	0.138
-595.011	387.709	-0.120	-0.254
-593.996	-200.000	0.019	-0.167
-592.982	-200.000	-0.060	-0.518
-591.967	-22.920	0.166	0.102
-590.952	-113.478	-0.228	-0.045
-589.938	40.711	0.205	-0.188
-588.923	-75.726	0.211	-0.076
-587.909	-63.107	-0.056	0.024
-586.894	2.982	0.113	-0.084
-585.879	-4.091	-0.328	0.231
-584.865	-200.000	-0.056	0.286
-583.850	70.859	-0.054	-0.057
-582.836	20.472	-0.033	0.027
-581.821	-139.082	-0.255	-0.028
-580.806	299.326	0.149	0.279
-579.792	-95.170	-0.128	-0.035
-578.777	-3.865	-0.098	-0.069
-577.763	217.708	0.210	-0.341
-576.748	305.450	0.146	0.278
-575.733	338.150	-0.144	-0.287
-574.719	89.405	0.054	0.061
-573.704	107.652	-0.202	-0.245
-572.690	-68.602	-0.060	-0.024
-571.675	-121.407	0.082	-0.014
-570.661	-67.228	0.070	-0.028
-569.646	245.174	0.124	-0.212
-568.631	-200.000	-0.012	-0.069
-567.617	256.220	-0.101	0.176
-566.602	-200.000	-0.049	0.349
-565.588	-71.011	0.132	0.051
-564.573	38.170	0.231	0.209
-563.558	-62.943	0.166	-0.070
-562.544	-115.603	0.040	-0.008
-561.529	-137.535	0.101	-0.012
-560.515	-12.035	0.218	0.146
-559.500	235.952	0.107	0.181
-558.485	-200.000	0.028	-0.159
-557.471	-102.467	-0.145	-0.035
-556.456	-9.126	0.215	-0.146
-555.442	-54.778	-0.207	0.095
-554.427	754.472	-0.036	-0.099
-553.412	-200.000	0.025	0.150
-552.398	135.040	-0.057	0.075
-551.383	-13.452	0.171	0.113
-550.369	-122.205	-0.173	-0.029
-549.354	27.793	0.151	0.130
-548.339	66.116	0.013	-0.014
-547.325	234.251	-0.253	0.424
-546.310	-64.585	-0.243	-0.101
-545.296	-161.988	0.308	-0.016
-544.281	19.277	0.138	0.113
-543.266	-155.053	-0.245	0.016
-542.252	-200.000	-0.039	0.182
-541.237	380.832	0.110	-0.230
-540.223	-200.000	0.033	-0.226
-539.208	-200.000	-0.030	0.139
-538.193	800.000	-0.087	0.337
-537.179	-200.000	-0.021	0.167
-536.164	-115.911	0.177	-0.034
-535.150	800.000	0.113	0.415
-534.135	146.441	0.089	0.121
-533.121	-200.000	0.014	-0.096
-532.106	-200.000	0.023	-0.165
-531.091	-53.311	-0.190	-0.088
-530.077	-16.807	0.084	0.054
-529.062	-20.208	-0.153	0.096
-528.048	93.863	-0.025	0.029
-527.033	800.000	0.095	-0.330
-526.018	-200.000	-0.009	0.074
-525.004	-200.000	0.025	0.145
-523.989	-128.243	-0.421	-0.061
-522.975	-113.164	0.094	-0.019
-521.960	-174.659	0.144	-0.004
-520.945	-54.182	-0.306	0.141
-519.931	-200.000	-0.005	-0.244
-518.916	-87.555	0.130	-0.040
-517.902	143.188	0.174	0.235
-516.887	253.574	-0.024	0.041
-515.872	-195.226	-0.114	0.001
-514.858	-149.181	0.105	0.009
-513.843	-200.000	0.030	-0.209
-512.829	-3.315	0.174	-0.123
-511.814	800.000	-0.032	0.129
-510.799	-200.000	-0.004	-0.360
-509.785	-200.000	0.055	0.276
-508.770	114.677	0.124	-0.153
-507.756	141.929	-0.144	-0.194
-506.741	-98.032	-0.265	0.069
-505.726	-117.899	-0.397	-0.072
-504.712	214.455	0.172	-0.277
-503.697	-46.014	0.232	0.116
-502.683	645.377	0.111	-0.288
-501.668	-56.900	-0.061	0.027
-500.653	-76.713	0.138	-0.049
-499.639	115.025	0.131	-0.162
-498.624	-200.000	0.007	-0.072
-497.610	86.074	0.067	-0.075
-496.595	-100.098	0.265	0.067
-495.581	-59.610	-0.140	0.061
-494.566	-83.742	0.204	0.066
-493.551	800.000	0.029	0.110
-492.537	-4.561	-0.219	0.154
-491.522	131.731	-0.160	-0.210
-490.508	-200.000	0.035	-0.225
-489.493	-15.351	0.053	-0.035
-488.478	64.490	-0.170	0.174
-487.464	800.000	-0.130	0.366
-486.449	-71.841	-0.312	-0.118
-485.435	-54.650	-0.280	-0.129
-484.420	50.541	0.304	-0.292
-483.405	-107.561	0.246	-0.055
-482.391	202.418	-0.086	-0.135
-481.376	-103.234	0.131	0.032
-480.362	-149.208	-0.271	-0.022
-479.347	-200.000	0.015	-0.096
-478.332	-200.000	-0.068	-0.330
-477.318	-169.166	0.350	0.013
-476.303	-15.228	-0.141	0.092
-475.289	800.000	-0.161	0.500
-474.274	51.134	-0.170	0.163
-473.259	-133.562	-0.448	-0.057
-472.245	41.136	0.214	0.196
-471.230	-174.594	-0.088	-0.003
-470.216	676.941	-0.075	0.198
-469.201	-5.660	0.344	0.239
-468.186	-148.611	-0.116	0.010
-467.172	93.925	0.108	0.125
-466.157	28.163	-0.182	-0.156
-465.143	192.535	-0.080	-0.123
-464.128	-41.399	0.124	-0.065
-463.113	-171.508	0.103	0.003
-462.099	-107.173	0.016	-0.003
-461.084	-69.246	0.296	-0.116
-460.070	-72.543	-0.296	-0.111
-459.055	-200.000	0.073	-0.326
-458.040	279.947	-0.149	-0.269
-457.026	27.768	0.145	0.124
-456.011	23.587	-0.085	-0.071
-454.997	225.491	-0.088	0.145
-453.982	435.937	0.096	0.213
-452.968	800.000	-0.079	-0.242
-451.953	208.002	-0.070	-0.112
-450.938	800.000	0.029	-0.083
-449.924	-47.834	0.242	-0.119
-448.909	-72.467	-0.147	0.055
-447.895	-200.000	0.024	0.218
-446.880	-146.076	-0.120	-0.011
-445.865	-70.543	-0.069	0.026
-444.851	50.028	0.159	-0.152
-443.836	-145.998	0.338	0.030
-442.822	639.696	0.050	0.129
-441.807	5.866	-0.138	-0.103
-440.792	-200.000	-0.002	-0.035
-439.778	253.523	-0.104	0.180
-438.763	-24.271	0.293	-0.177
-437.749	164.234	-0.158	0.225
-436.734	3.933	-0.207	-0.153
-435.719	-200.000	0.024	-0.209
-434.705	-200.000	-0.012	-0.187
-433.690	-56.852	-0.160	-0.072
-432.676	105.606	0.137	-0.164
-431.661	665.865	0.078	0.203
-430.646	-13.473	0.144	-0.095
-429.632	-200.000	0.051	0.273
-428.617	800.000	-0.059	-0.232
-427.603	103.804	0.024	-0.029
-426.588	-88.239	0.225	0.068
-425.573	-200.000	-0.010	-0.209
-424.559	-84.954	0.148	0.047
-423.544	-61.824	-0.035	-0.015
-422.530	-65.463	-0.155	0.063
-421.515	-99.378	-0.329	-0.084
-420.500	-200.000	0.030	0.238
-419.486	7.446	-0.237	0.180
-418.471	39.464	-0.236	0.214
-417.457	-8.329	0.362	-0.246
-416.442	-200.000	0.042	-0.350
-415.428	-44.715	0.333	0.169
-414.413	33.910	0.121	0.107
-413.398	199.149	-0.101	0.157
-412.384	105.223	-0.063	0.076
-411.369	37.316	-0.089	0.080
-410.355	9.155	-0.163	0.125
-409.340	-33.829	-0.146	0.082
-408.325	179.420	0.060	-0.089
-407.311	-200.000	-0.018	-0.179
-406.296	-157.093	-0.362	-0.022
-405.282	47.765	0.187	-0.176
-404.267	800.000	0.082	0.244
-403.252	-200.000	-0.007	-0.100
-402.238	-66.487	-0.173	0.069
-401.223	800.000	0.024	0.090
-400.209	-200.000	0.000	-0.013
-399.194	-9.382	0.336	0.227
-398.179	9.781	0.152	-0.117
-397.165	118.326	-0.198	0.247
-396.150	-130.969	-0.121	-0.016
-395.136	-69.590	0.240	0.093
-394.121	-96.039	-0.160	-0.043
-393.106	-200.000	-0.014	0.239
-392.092	-200.000	0.025	0.363
-391.077	-200.000	0.016	0.198
-390.063	58.667	-0.139	-0.138
-389.048	-13.689	-0.111	-0.073
-388.033	-200.000	0.010	-0.064
-387.019	-104.346	0.109	0.026
-386.004	-200.000	0.017	0.248
-384.990	-200.000	-0.029	0.145
-383.975	497.125	0.081	0.189
-382.960	20.122	-0.201	-0.164
-381.946	-28.383	0.272	0.159
-380.931	-136.364	-0.374	-0.044
-379.917	-99.624	-0.374	-0.095
-378.902	-179.755	-0.245	-0.005
-377.888	-69.845	0.363	0.140
-376.873	168.962	0.054	0.077
-375.858	-51.718	-0.134	-0.063
-374.844	632.329	0.139	0.355
-373.829	800.000	0.085	0.337
-372.815	364.250	-0.114	-0.233
-371.800	-187.831	-0.091	-0.001
-370.785	-98.177	-0.430	0.112
-369.771	-171.400	-0.104	-0.004
-368.756	-200.000	-0.006	-0.105
-367.742	2.079	-0.228	-0.167
-366.727	-26.734	-0.055	0.033
-365.712	-200.000	-0.015	-0.174
-364.698	110.654	-0.175	0.213
-363.683	468.620	0.027	0.061
-362.669	-200.000	-0.003	0.037
-361.654	-126.837	-0.130	0.019
-360.639	-164.060	0.189	-0.009
-359.625	-184.505	-0.137	-0.002
-358.610	-108.089	0.168	0.037
-357.596	800.000	-0.008	0.028
-356.581	-110.295	-0.199	0.042
-355.566	-200.000	0.033	0.201
-354.552	-149.002	0.084	0.007
-353.537	-165.989	0.139	0.006
-352.523	-110.442	-0.071	-0.015
-351.508	-114.953	-0.067	0.013
-350.493	-173.015	0.466	0.015
-349.479	-111.249	-0.167	-0.034
-348.464	800.000	-0.122	-0.401
-347.450	86.005	-0.159	-0.177
-346.435	-200.000	-0.014	-0.200
-345.420	11.731	0.218	-0.169
-344.406	-99.503	-0.134	-0.034
-343.391	-46.839	-0.163	0.081
-342.377	-200.000	-0.023	-0.335
-341.362	-153.727	0.147	0.010
-340.348	147.368	0.217	-0.295
-339.333	-34.560	0.359	0.199
-338.318	20.117	-0.397	-0.324
-337.304	-30.842	0.099	0.057
-336.289	-153.043	0.191	0.014
-335.275	83.274	0.113	-0.124
-334.260	18.395	-0.124	-0.100
-333.245	800.000	0.051	0.188
-332.231	31.464	-0.135	-0.117
-331.216	136.786	-0.118	0.156
-330.202	-153.790	0.042	0.003
-329.187	7.668	-0.078	-0.059
-328.172	-77.014	-0.177	-0.062
-327.158	-100.892	-0.324	-0.080
-326.143	-111.846	0.334	-0.068
-325.129	732.054	-0.174	-0.469
-324.114	-24.920	-0.124	0.075
-323.099	176.390	0.095	0.139
-322.085	-200.000	-0.052	0.337
-321.070	-81.294	-0.185	-0.062
-320.056	46.278	0.164	-0.153
-319.041	-200.000	0.031	0.147
-318.026	-3.195	0.234	0.165
-317.012	-200.000	0.015	0.197
-315.997	-25.637	0.327	0.195
-314.983	154.722	0.056	-0.077
-313.968	-119.395	0.268	-0.047
-312.953	211.202	-0.132	-0.210
-311.939	173.788	0.051	-0.075
-310.924	65.001	0.183	-0.187
-309.910	16.466	0.119	-0.095
-308.895	-200.000	-0.030	-0.180
-307.880	582.663	-0.059	-0.145
-306.866	295.032	0.089	-0.164
-305.851	277.911	0.186	0.334
-304.837	800.000	-0.033	-0.132
-303.822	175.307	0.120	-0.175
-302.807	555.964	0.054	-0.131
-301.793	-4.880	0.218	0.151
-300.778	216.786	0.038	-0.061
-299.764	-126.405	-0.138	-0.021
-298.749	183.827	-0.113	0.169
-297.735	-83.936	-0.370	0.119
-296.720	-105.011	0.110	0.026
-295.705	301.589	0.113	0.211
-294.691	224.543	-0.094	-0.153
-293.676	-82.889	0.177	0.058
-292.662	91.191	0.237	0.268
-291.647	89.604	-0.138	0.156
-290.632	-81.472	-0.069	0.023
-289.618	800.000	0.077	-0.300
-288.603	725.072	0.089	-0.240
-287.589	37.499	-0.174	-0.156
-286.574	-133.372	-0.273	-0.035
-285.559	10.489	0.183	-0.141
-284.545	-149.994	0.242	0.019
-283.530	45.426	0.112	-0.104
-282.516	142.428	0.205	0.274
-281.501	-200.000	0.004	0.170
-280.486	-90.171	-0.120	0.035
-279.472	-200.000	0.010	-0.179
-278.457	-88.059	-0.186	0.056
-277.443	-32.188	0.074	-0.042
-276.428	-30.373	0.117	0.067
-275.413	-63.315	-0.052	0.022
-274.399	800.000	0.029	-0.100
-273.384	-200.000	0.041	0.387
-272.370	44.557	-0.036	0.033
-271.355	-124.393	0.167	-0.026
-270.340	-78.020	0.209	0.073
-269.326	26.194	-0.289	-0.243
-268.311	54.374	-0.141	0.136
-267.297	-26.549	-0.160	-0.095
-266.282	-200.000	-0.024	-0.204
-265.267	89.673	0.247	0.277
-264.253	-96.779	0.230	0.061
-263.238	-24.191	0.099	-0.060
-262.224	274.207	-0.098	-0.175
-261.209	343.706	-0.065	-0.128
-260.195	800.000	0.042	0.148
-259.180	116.808	0.187	0.231
-258.165	-14.006	-0.397	0.258
-257.151	-147.599	0.225	-0.019
-256.136	333.671	-0.033	0.064
-255.122	12.966	-0.317	-0.247
-254.107	-174.529	-0.166	-0.005
-253.092	221.200	-0.035	0.056
-252.078	177.522	-0.136	-0.199
-251.063	38.082	0.187	0.168
-250.049	800.000	-0.076	-0.283
-249.034	-9.797	-0.206	0.138
-248.019	53.561	0.234	0.226
-247.005	-3.353	0.072	0.051
-245.990	-7.997	-0.159	0.108
-244.976	76.007	0.159	-0.169
-243.961	-108.396	-0.308	-0.067
-242.946	800.000	0.067	0.255
-241.932	128.944	-0.170	-0.218
-240.917	-200.000	-0.015	0.163
-239.903	165.994	0.157	-0.223
-238.888	0.967	-0.064	0.047
-237.873	-200.000	-0.010	-0.075
-236.859	-3.961	0.056	0.039
-235.844	97.532	0.262	0.303
-234.830	154.926	-0.099	-0.137
-233.815	-58.158	0.065	0.029
-232.800	-200.000	-0.001	0.235
-231.786	146.781	-0.164	-0.222
-230.771	800.000	-0.029	0.111
-229.757	-110.977	-0.158	-0.033
-228.742	-108.971	-0.163	-0.035
-227.727	-54.059	-0.063	0.029
-226.713	-106.595	0.315	-0.070
-225.698	-53.561	-0.048	0.022
-224.684	-200.000	-0.055	-0.423
-223.669	660.076	-0.087	-0.226
-222.655	198.912	0.124	0.191
-221.640	2.982	0.211	0.154
-220.625	10.517	-0.195	0.149
-219.611	171.075	0.097	-0.139
-218.596	783.004	-0.091	-0.252
-217.582	-146.771	0.270	-0.023
-216.567	588.473	0.044	0.110
-215.552	242.426	-0.052	-0.088
-214.538	160.499	-0.105	-0.147
-213.523	-119.847	-0.191	-0.033
-212.509	-200.000	-0.005	-0.035
-211.494	-110.850	0.346	-0.072
-210.479	-181.745	0.281	-0.005
-209.465	-101.980	0.246	-0.060
-208.450	800.000	-0.052	-0.156
-207.436	232.499	0.156	-0.257
-206.421	800.000	0.043	0.139
-205.406	702.532	-0.050	0.132
-204.392	119.417	-0.073	-0.091
-203.377	507.564	0.046	-0.108
-202.363	18.785	0.157	0.126
-201.348	107.988	0.035	0.042
-200.333	653.731	-0.024	-0.061
-199.319	-200.000	0.007	0.164
-198.304	2.437	-0.092	0.067
-197.290	-120.375	0.210	-0.036
-196.275	-101.842	0.143	-0.035
-195.260	800.000	0.055	0.171
-194.246	-200.000	-0.011	-0.263
-193.231	-60.382	0.222	-0.095
-192.217	-200.000	-0.031	-0.192
-191.202	800.000	0.042	-0.144
-190.187	-40.305	-0.114	0.060
-189.173	-200.000	-0.063	0.279
-188.158	178.932	-0.081	0.118
-187.144	-200.000	0.010	0.085
-186.129	-86.560	0.190	0.058
-185.114	-22.244	0.186	-0.113
-184.100	58.854	0.133	-0.131
-183.085	83.387	-0.121	0.133
-182.071	-38.925	-0.245	-0.129
-181.056	-200.000	0.022	0.172
-180.042	-200.000	0.032	0.272
-179.027	800.000	0.097	-0.284
-178.012	170.226	-0.076	0.110
-176.998	-71.913	-0.143	0.053
-175.983	800.000	0.023	0.100
-174.969	-52.341	-0.087	-0.041
-173.954	106.164	-0.130	0.154
-172.939	-200.000	-0.180	0.000
-171.925	-129.440	0.223	-0.031
-170.910	175.839	0.075	0.110
-169.896	427.792	0.124	-0.268
-168.881	198.129	0.125	0.192
-167.866	-112.706	0.056	-0.011
-166.852	-28.579	0.159	-0.092
-165.837	-55.879	0.249	-0.112
-164.823	-200.000	0.008	0.131
-163.808	-18.734	-0.207	0.129
-162.793	-166.837	0.088	0.004
-161.779	-140.968	-0.077	-0.008
-160.764	17.816	0.070	-0.056
-159.750	352.998	0.133	0.264
-158.735	-74.702	0.286	0.103
-157.720	-200.000	0.014	0.106
-156.706	-82.608	-0.260	-0.084
-155.691	105.373	-0.040	-0.047
-154.677	138.478	-0.164	-0.216
-153.662	509.528	-0.091	-0.213
-152.647	800.000	0.035	-0.104
-151.633	-77.186	-0.349	0.122
-150.618	-16.439	0.066	0.042
-149.604	800.000	-0.036	0.111
-148.589	800.000	-0.007	-0.023
-147.574	187.126	-0.280	0.418
-146.560	64.000	0.114	0.115
-145.545	292.256	-0.012	-0.023
-144.531	38.466	0.088	0.079
-143.516	43.724	0.150	0.138
-142.502	372.981	-0.028	-0.056
-141.487	208.867	0.253	-0.397
-140.472	50.881	-0.075	-0.072
-139.458	-79.430	0.375	-0.127
-138.443	-39.113	0.071	0.037
-137.429	-92.443	-0.159	0.045
-136.414	-52.532	0.323	0.149
-135.399	569.947	0.085	0.208
-134.385	29.653	0.099	0.084
-133.370	414.821	-0.045	-0.097
-132.356	35.392	-0.160	0.141
-131.341	631.847	0.087	-0.220
-130.326	-123.482	0.427	-0.068
-129.312	-200.000	0.056	0.275
-128.297	-125.525	-0.145	0.022
-127.283	-113.018	0.273	0.054
-126.268	-131.223	0.201	-0.027
-125.253	-200.000	0.052	0.476
-124.239	25.825	-0.206	-0.172
-123.224	149.126	0.050	-0.068
-122.210	-73.533	0.275	-0.100
-121.195	374.571	-0.095	0.194
-120.180	-47.142	0.181	0.088
-119.166	800.000	0.073	0.303
-118.151	-180.429	0.356	0.007
-117.137	-200.000	0.005	0.080
-116.122	-137.608	0.188	-0.021
-115.107	-100.974	-0.025	0.006
-114.093	-90.971	0.375	-0.108
-113.078	15.347	0.143	-0.113
-112.064	106.568	0.260	-0.308
-111.049	800.000	0.059	0.190
-110.034	-148.835	0.397	0.032
-109.020	356.171	0.078	0.156
-108.005	334.933	0.073	0.142
-106.991	-103.141	0.079	-0.019
-105.976	80.860	0.282	0.305
-104.962	-85.637	0.310	-0.096
-103.947	19.230	0.122	0.098
-102.932	-17.605	-0.195	0.122
-101.918	-119.689	-0.246	0.043
-100.903	-200.000	-0.110	-0.584
-99.889	-78.186	-0.126	-0.043
-98.874	800.000	0.069	0.294
-97.859	149.069	0.142	-0.192
-96.845	-200.000	-0.032	-0.249
-95.830	-200.000	0.026	-0.392
-94.816	-87.692	0.071	0.021
-93.801	106.717	0.069	0.082
-92.786	-200.000	0.005	-0.124
-91.772	-110.257	0.230	0.048
-90.757	-74.823	0.385	-0.138
-89.743	38.655	0.082	0.073
-88.728	-200.000	0.005	-0.043
-87.713	138.670	0.158	-0.207
-86.699	46.417	-0.205	0.190
-85.684	164.486	-0.142	0.200
-84.670	-87.049	0.363	0.111
-83.655	8.905	0.180	-0.136
-82.640	46.882	-0.126	-0.117
-81.626	-200.000	-0.003	-0.028
-80.611	-200.000	-0.009	0.216
-79.597	-200.000	0.005	0.024
-78.582	417.286	0.013	-0.029
-77.567	73.699	-0.109	0.115
-76.553	-94.801	0.157	0.042
-75.538	-200.000	-0.027	0.482
-74.524	-135.267	-0.096	-0.012
-73.509	800.000	0.125	-0.377
-72.494	800.000	-0.116	0.328
-71.480	-38.602	0.178	-0.094
-70.465	589.246	-0.082	-0.202
-69.451	-200.000	-0.048	0.321
-68.436	-51.974	-0.177	0.082
-67.422	-43.761	-0.554	0.279
-66.407	313.947	-0.093	0.174
-65.392	113.006	-0.069	-0.084
-64.378	-108.290	0.232	0.050
-63.363	-133.255	-0.416	0.053
-62.349	800.000	0.114	0.315
-61.334	213.513	-0.452	-0.714
-60.319	-110.193	0.307	0.064
-59.305	310.472	0.258	-0.482
-58.290	66.610	0.505	0.514
-57.276	205.748	0.925	1.436
-56.261	-200.000	69.945	521.041
-55.246	575.460	1255.927	3062.946
-54.232	135.658	2512.821	3266.742
-53.217	118.302	2264.532	2789.599
-52.203	56.570	1788.161	1737.320
-51.188	48.377	1579.518	1476.814
-50.173	45.423	1548.304	1427.004
-49.159	60.364	1580.970	1562.360
-48.144	68.362	1601.248	1638.444
-47.130	48.819	1565.883	1466.936
-46.115	45.101	1551.382	1427.365
-45.100	44.812	1548.109	1422.279
-44.086	44.835	1546.358	1420.771
-43.071	44.663	1544.573	1417.880
-42.057	44.722	1542.122	1415.983
-41.042	44.793	1540.392	1414.834
-40.027	44.732	1539.508	1413.538
-39.013	44.678	1538.433	1412.124
-37.998	44.682	1537.261	1411.016
-36.984	44.758	1535.631	1409.991
-35.969	44.840	1534.029	1409.035
-34.954	44.805	1532.798	1407.600
-33.940	44.738	1531.569	1405.959
-32.925	44.740	1529.708	1404.210
-31.911	44.798	1528.514	1403.457
-30.896	44.836	1527.069	1402.334
-29.881	44.844	1525.255	1400.667
-28.867	44.791	1524.011	1399.103
-27.852	44.879	1522.663	1398.412
-26.838	44.801	1521.189	1396.474
-25.823	44.802	1519.138	1394.543
-24.809	44.829	1517.358	1393.039
-23.794	44.740	1516.482	1391.571
-22.779	44.772	1515.149	1390.510
-21.765	44.915	1513.455	1389.876
-20.750	44.870	1512.496	1388.631
-19.736	44.796	1511.711	1387.351
-18.721	44.862	1510.359	1386.506
-17.706	44.928	1508.966	1385.621
-16.692	44.807	1507.651	1383.537
-15.677	44.759	1507.135	1382.683
-14.663	44.749	1506.426	1381.904
-13.648	44.841	1505.180	1381.335
-12.633	44.752	1504.206	1379.782
-11.619	44.823	1503.228	1379.309
-10.604	44.743	1502.265	1377.829
-9.590	44.708	1501.257	1376.615
-8.575	44.711	1501.132	1376.469
-7.560	44.713	1499.758	1375.162
-6.546	44.817	1498.761	1374.901
-5.531	44.691	1498.255	1373.531
-4.517	44.650	1497.102	1372.140
-3.502	44.715	1495.691	1371.231
-2.487	44.613	1494.924	1369.784
-1.473	44.637	1493.466	1368.557
-0.458	44.722	1492.794	1368.459
0.556	42.937	1483.433	1359.667
1.571	40.174	1454.103	1314.343
2.586	35.330	1388.475	1224.085
3.600	32.112	1302.128	1128.564
4.615	29.569	1251.799	1070.132
5.629	25.448	1195.038	998.667
6.644	15.924	1105.262	874.356
7.659	7.759	1058.373	796.443
8.673	6.283	1052.181	784.357
9.688	6.087	1049.205	781.097
10.702	6.081	1047.287	779.572
11.717	5.939	1046.128	777.936
12.731	9.073	1050.086	796.377
13.746	16.959	1060.808	843.819
14.761	20.258	1064.065	862.771
15.775	18.272	1060.610	850.039
16.790	16.792	1057.267	839.952
17.804	15.616	1054.821	832.116
18.819	14.599	1053.823	826.219
19.834	14.306	1051.572	822.934
20.848	13.801	1051.069	819.975
21.863	13.611	1050.006	818.132
22.877	13.496	1049.146	816.826
23.892	13.097	1048.719	814.453
24.907	13.134	1047.497	813.610
25.921	13.050	1046.900	812.662
26.936	13.197	1045.883	812.527
27.950	13.271	1044.729	811.922
28.965	13.276	1043.645	811.033
29.980	13.352	1042.293	810.281
30.994	13.359	1041.333	809.496
32.009	13.529	1039.830	809.089
33.023	13.521	1039.468	808.694
34.038	13.371	1038.851	807.411
35.053	13.409	1037.494	806.472
36.067	13.277	1036.877	805.277
37.082	13.281	1035.894	804.462
38.096	13.384	1035.042	804.228
39.111	13.305	1034.408	803.282
40.126	13.510	1033.398	803.420
41.140	13.276	1032.551	801.556
42.155	13.185	1031.665	800.359
43.169	13.127	1030.427	799.044
44.184	13.033	1029.334	797.671
45.199	13.122	1028.334	797.256
46.213	13.074	1027.533	796.334
47.228	13.108	1026.632	795.730
48.242	13.153	1025.498	794.996
49.257	13.347	1024.564	795.136
50.271	13.291	1023.616	794.059
51.286	13.243	1022.773	793.107
52.301	13.248	1022.082	792.522
53.315	13.228	1021.691	792.055
54.330	13.184	1020.354	790.739
55.344	13.159	1019.392	789.800
56.359	13.205	1018.178	789.009
57.374	13.135	1017.811	788.324
58.388	13.160	1017.022	787.762
59.403	13.117	1015.899	786.618
60.417	12.989	1015.314	785.484
61.432	13.065	1014.687	785.292
62.447	13.128	1013.688	784.748
63.461	13.025	1012.937	783.609
64.476	12.948	1012.176	782.585
65.490	12.932	1011.561	781.965
66.505	13.018	1010.692	781.631
67.520	12.975	1009.935	780.774
68.534	13.110	1009.045	780.655
69.549	13.034	1007.984	779.406
70.563	13.012	1007.406	778.788
71.578	13.041	1006.595	778.227
72.593	13.098	1005.532	777.605
73.607	12.976	1004.580	776.226
74.622	12.798	1003.813	774.727
75.636	12.966	1003.177	774.956
76.651	12.962	1002.146	774.075
77.666	12.983	1001.386	773.515
78.680	12.897	1000.788	772.583
79.695	12.962	1000.165	772.340
80.709	12.961	999.755	771.948
81.724	12.988	998.672	771.171
82.739	13.062	998.174	771.065
83.753	13.183	997.126	770.751
84.768	13.119	996.676	770.037
85.782	13.351	995.873	770.430
86.797	13.163	995.429	769.139
87.812	13.301	994.379	768.902
88.826	13.306	993.059	767.839
89.841	13.208	992.517	766.895
90.855	13.301	991.726	766.647
91.870	13.313	990.701	765.844
92.884	13.282	990.627	765.576
93.899	13.454	989.473	765.412
94.914	13.276	989.064	764.205
95.928	13.325	988.202	763.697
96.943	13.455	987.365	763.581
97.957	13.413	986.726	762.826
98.972	13.242	986.042	761.445
99.987	13.428	984.952	761.389
101.001	13.306	984.528	760.433
102.016	13.280	983.736	759.636
103.030	13.310	982.716	758.918
104.045	13.274	981.943	758.089
105.060	13.391	980.648	757.557
106.074	13.246	980.095	756.398
107.089	13.123	978.903	754.849
108.103	13.164	978.047	754.310
109.118	13.110	976.920	753.130
110.133	13.091	976.554	752.693
111.147	13.112	975.172	751.659
112.162	12.957	974.875	750.655
113.176	13.093	973.638	750.257
114.191	13.148	972.597	749.639
115.206	13.219	972.140	749.541
116.220	13.220	971.266	748.806
117.235	13.156	970.374	747.761
118.249	13.071	969.822	746.884
119.264	13.044	968.811	745.919
120.279	13.196	967.870	745.815
121.293	13.165	967.112	745.023
122.308	12.890	966.509	743.253
123.322	12.978	965.746	742.997
124.337	13.013	964.165	741.875
125.352	12.896	963.852	741.040
126.366	13.039	962.541	740.608
127.381	13.053	961.226	739.597
128.395	13.016	960.273	738.630
129.410	13.045	959.172	737.846
130.424	13.130	958.396	737.566
131.439	13.067	957.830	736.784
132.454	13.080	957.226	736.312
133.468	13.269	956.234	736.324
134.483	13.200	955.886	735.685
135.497	13.139	955.162	734.792
136.512	13.324	953.585	734.335
137.527	13.288	953.695	734.193
138.541	13.178	953.033	733.132
139.556	13.346	951.759	732.830
140.570	13.256	951.348	732.052
141.585	13.390	950.492	731.920
142.600	13.541	949.921	732.082
143.614	13.546	948.814	731.187
144.629	13.496	948.210	730.437
145.643	13.420	947.900	729.799
146.658	13.376	947.059	728.892
147.673	13.374	946.089	728.075
148.687	13.424	944.968	727.367
149.702	13.242	944.437	726.094
150.716	13.366	943.099	725.544
151.731	13.305	942.417	724.687
152.746	13.326	941.827	724.262
153.760	13.495	940.558	723.960
154.775	13.373	939.926	722.876
155.789	13.288	939.759	722.312
156.804	13.299	939.056	721.759
157.819	13.410	938.167	721.492
158.833	13.494	937.313	721.138
159.848	13.397	936.750	720.221
160.862	13.458	936.491	720.223
161.877	13.459	935.869	719.685
162.892	13.304	934.871	718.179
163.906	13.343	933.665	717.359
164.921	13.371	933.021	716.921
165.935	13.341	931.844	715.825
166.950	13.370	930.973	715.216
167.964	13.290	930.229	714.236
168.979	13.426	929.019	713.832
169.994	13.336	928.157	712.720
171.008	13.388	927.603	712.454
172.023	13.481	926.749	712.135
173.037	13.457	925.781	711.227
174.052	13.497	925.216	710.899
175.067	13.581	924.795	710.875
176.081	13.451	924.038	709.671
177.096	13.427	922.841	708.586
178.110	13.370	922.256	707.833
179.125	13.420	921.456	707.370
180.140	13.531	920.361	706.942
181.154	13.435	919.952	706.152
182.169	13.627	918.998	706.177
183.183	13.598	918.709	705.770
184.198	13.588	917.874	705.024
185.213	13.733	917.340	705.166
186.227	13.638	916.654	704.175
187.242	13.769	916.098	704.241
188.256	13.777	915.333	703.625
189.271	13.734	914.997	703.121
190.286	13.812	914.262	702.822
191.300	13.737	913.758	702.055
192.315	13.522	912.439	700.071
193.329	13.334	912.312	699.116
194.344	13.448	911.555	698.957
195.359	13.395	911.073	698.304
196.373	13.563	910.431	698.457
197.388	13.544	910.055	698.028
198.402	13.750	909.106	698.104
199.417	13.886	908.690	698.297
200.432	13.863	908.063	697.655
201.446	13.963	907.712	697.743
202.461	14.001	907.558	697.721
203.475	14.119	906.776	697.554
204.490	14.095	905.958	696.764
205.504	14.006	905.062	695.640
206.519	13.958	904.131	694.662
207.534	13.934	903.858	694.289
208.548	13.914	903.027	693.508
209.563	13.873	902.236	692.669
210.577	13.847	901.773	692.140
211.592	13.870	900.907	691.511
212.607	13.950	900.622	691.564
213.621	14.151	899.767	691.682
214.636	14.088	899.229	690.948
215.650	14.158	898.670	690.749
216.665	14.046	898.373	689.991
217.680	13.985	897.687	689.151
218.694	14.266	896.883	689.637
219.709	14.210	896.745	689.240
220.723	14.286	895.953	688.885
221.738	14.219	895.577	688.256
222.753	14.029	894.788	686.805
223.767	14.076	894.205	686.491
224.782	14.206	893.006	686.043
225.796	14.328	891.928	685.657
226.811	14.236	891.762	685.091
227.826	14.218	891.320	684.617
228.840	14.162	890.335	683.569
229.855	14.157	889.764	683.051
230.869	14.171	888.782	682.293
231.884	14.137	888.673	682.012
232.899	14.222	887.560	681.444
233.913	14.175	887.059	680.807
234.928	14.211	886.142	680.190
235.942	14.227	885.601	679.778
236.957	14.002	885.066	678.388
237.972	14.257	884.090	678.621
238.986	14.308	883.238	678.114
240.001	14.277	882.875	677.652
241.015	14.302	882.184	677.160
242.030	14.304	881.480	676.570
243.045	14.432	880.992	676.656
244.059	14.333	880.573	675.871
245.074	14.407	879.768	675.493
246.088	14.427	879.125	675.021
247.103	14.305	879.066	674.421
248.117	14.480	878.047	674.290
249.132	14.468	877.748	673.950
250.147	14.545	877.458	673.980
251.161	14.611	876.519	673.466
252.176	14.822	875.726	673.647
253.190	14.730	875.040	672.688
254.205	14.783	874.224	672.213
255.220	14.888	874.306	672.641
256.234	14.860	873.105	671.546
257.249	14.815	872.804	671.074
258.263	14.768	872.599	670.669
259.278	14.858	871.373	670.028
260.293	14.870	870.719	669.515
261.307	14.921	870.365	669.386
262.322	14.855	870.013	668.791
263.336	14.928	869.303	668.480
264.351	14.950	868.636	667.995
265.366	15.021	868.193	667.880
266.380	14.820	867.920	666.807
267.395	14.993	866.660	666.469
268.409	14.989	865.949	665.848
269.424	14.935	865.409	665.160
270.439	14.900	864.671	664.394
271.453	14.897	863.821	663.668
272.468	15.039	862.965	663.515
273.482	14.814	862.749	662.398
274.497	14.784	862.383	661.942
275.512	14.795	861.553	661.288
276.526	14.939	860.547	661.026
277.541	14.933	859.974	660.507
278.555	15.088	859.028	660.332
279.570	15.120	858.627	660.089
280.585	15.149	858.046	659.699
281.599	15.135	857.961	659.521
282.614	15.183	856.943	658.868
283.628	15.172	856.055	658.085
284.643	15.181	855.661	657.757
285.657	15.193	855.296	657.467
286.672	15.139	854.645	656.695
287.687	15.184	854.163	656.444
288.701	15.256	853.633	656.260
289.716	15.141	853.648	655.764
290.730	15.100	853.082	655.110
291.745	15.105	852.207	654.402
292.760	15.269	851.377	654.344
293.774	15.239	851.075	653.937
294.789	15.291	850.321	653.503
295.803	15.285	849.895	653.098
296.818	15.236	849.376	652.447
297.833	15.388	848.577	652.368
298.847	15.252	847.775	651.164
299.862	15.251	846.993	650.502
300.876	15.408	846.289	650.514
301.891	15.365	846.242	650.252
302.906	15.429	845.581	649.935
303.920	15.452	844.633	649.237
304.935	15.468	844.221	648.925
305.949	15.609	843.620	648.950
306.964	15.481	843.308	648.160
307.979	15.543	841.988	647.327
308.993	15.649	841.807	647.541
310.008	15.621	841.304	646.989
311.022	15.569	840.886	646.408
312.037	15.640	840.557	646.371
313.052	15.589	839.953	645.652
314.066	15.575	839.062	644.857
315.081	15.360	838.520	643.560
316.095	15.411	837.869	643.197
317.110	15.502	837.273	643.032
318.125	15.504	836.557	642.433
319.139	15.415	836.315	641.849
320.154	15.396	836.113	641.567
321.168	15.516	835.381	641.407
322.183	15.463	835.116	640.944
323.197	15.509	834.466	640.564
324.212	15.598	833.642	640.213
325.227	15.723	833.012	640.147
326.241	15.752	832.523	639.827
327.256	15.684	831.839	638.984
328.270	15.552	831.640	638.273
329.285	15.628	831.146	638.129
330.300	15.666	830.322	637.583
331.314	15.737	829.820	637.408
332.329	15.668	829.056	636.507
333.343	15.796	828.769	636.712
334.358	15.845	827.916	636.186
335.373	15.800	827.510	635.650
336.387	15.769	827.202	635.239
337.402	15.942	826.572	635.350
338.416	15.887	825.946	634.609
339.431	15.945	825.419	634.362
340.446	15.970	824.708	633.854
341.460	16.098	823.925	633.680
342.475	16.023	823.647	633.128
343.489	16.061	823.362	632.995
344.504	16.116	822.651	632.597
345.519	16.323	821.712	632.594
346.533	16.278	821.171	631.956
347.548	16.195	821.286	631.677
348.562	16.283	820.197	631.113
349.577	16.018	819.869	629.814
350.592	16.034	819.253	629.343
351.606	16.011	818.957	628.976
352.621	16.057	818.572	628.795
353.635	15.955	818.212	628.083
354.650	16.080	817.887	628.245
355.665	16.067	817.481	627.827
356.679	16.076	817.062	627.484
357.694	16.216	816.265	627.337
358.708	16.271	815.826	627.148
359.723	16.169	815.191	626.226
360.738	16.115	815.047	625.858
361.752	16.241	814.438	625.806
362.767	16.316	813.959	625.658
363.781	16.370	813.474	625.431
364.796	16.343	812.967	624.884
365.810	16.420	812.598	624.831
366.825	16.480	812.341	624.800
367.840	16.493	811.828	624.399
368.854	16.556	811.347	624.207
369.869	16.445	810.997	623.470
370.883	16.564	810.153	623.206
371.898	16.423	809.866	622.412
372.913	16.542	809.029	622.152
373.927	16.528	808.743	621.823
374.942	16.659	808.014	621.691
375.956	16.578	807.480	620.926
376.971	16.578	806.554	620.160
377.986	16.598	806.297	619.979
379.000	16.588	805.791	619.499
380.015	16.698	805.676	619.760
381.029	16.782	804.995	619.488
382.044	16.602	804.601	618.473
383.059	16.844	803.754	618.650
384.073	16.832	803.180	618.108
385.088	16.678	802.925	617.295
386.102	16.617	802.222	616.481
387.117	16.576	801.916	616.038
388.132	16.599	801.373	615.651
389.146	16.643	800.657	615.207
390.161	16.690	800.214	614.985
391.175	16.838	800.073	615.357
392.190	16.892	799.252	614.867
393.205	16.823	799.335	614.629
394.219	16.911	798.320	614.113
395.234	16.582	798.360	612.895
396.248	16.798	797.595	613.035
397.263	16.709	796.857	612.092
398.278	16.495	796.809	611.228
399.292	16.651	796.421	611.439
400.307	16.681	795.674	610.919
401.321	16.772	795.303	610.911
402.336	16.598	795.124	610.091
403.350	16.671	795.078	610.266
404.365	16.691	794.329	609.709
405.380	16.743	794.068	609.642
406.394	16.957	793.411	609.852
407.409	17.024	792.724	609.512
408.423	16.984	792.512	609.151
409.438	17.030	792.222	609.040
410.453	17.155	791.352	608.764
411.467	17.067	791.228	608.301
412.482	17.047	791.009	608.005
413.496	17.185	790.492	608.049
414.511	17.174	790.130	607.675
415.526	17.292	789.669	607.690
416.540	17.044	789.473	606.597
417.555	17.193	788.633	606.434
418.569	17.268	788.256	606.355
419.584	17.232	787.646	605.705
420.599	17.214	787.405	605.402
421.613	69.410	1221.704	1218.597
422.628	57.913	1285.003	1218.747
