DTS Sentinel unit serial number:	SN413079Multiplexer serial number:	ORYXHardware model number:	OX4-SRSoftware version number:	ORYX F/W v4.00 Oryx Data Collector v3.7.2.0data status	okinstallation	princeton_trtdifferential loss correction	single-endedforward channel	channel 3reverse channel	N/Adate	2019/09/13time	15:52:35forward acquisition time	60.00reverse acquisition time	0.00gamma	496.2192k internal	0.2307k external	0.2307temperature offset calibration	1.0140default loss term (dB/km)	0.3790temperature slope calibration	1.0000multiplexer offset coefficient	1.0000multiplexer slope coefficient	1.0000fibre end	0.00T internal ref (°C)	34.62T ext. ref 1 (°C)	4.79T ext. ref 2 (°C)	30.19length (m)	temperature (°C)	Stokes	anti-Stokes-747.200	800.000	-0.037	0.160
-746.185	800.000	-0.052	0.220
-745.171	199.560	0.225	-0.350
-744.156	-12.227	0.184	0.122
-743.142	77.975	-0.176	0.191
-742.127	120.471	0.083	-0.105
-741.112	235.499	0.081	0.136
-740.098	-60.555	0.260	0.112
-739.083	272.589	-0.255	0.457
-738.069	-200.000	-0.002	0.217
-737.054	800.000	-0.109	0.440
-736.039	217.540	-0.127	0.205
-735.025	-45.182	0.341	-0.172
-734.010	800.000	0.067	-0.237
-732.996	-179.606	-0.337	-0.007
-731.981	-114.719	-0.180	-0.035
-730.966	751.219	0.127	-0.347
-729.952	-200.000	-0.025	-0.197
-728.937	-146.574	0.054	-0.005
-727.923	341.894	0.211	-0.419
-726.908	-73.235	0.071	-0.026
-725.894	40.195	0.101	-0.092
-724.879	-58.486	0.245	0.108
-723.864	-115.013	-0.338	-0.065
-722.850	-200.000	-0.023	0.212
-721.835	69.518	-0.161	-0.169
-720.821	-200.000	-0.038	-0.263
-719.806	-55.155	-0.351	-0.160
-718.791	342.135	-0.040	-0.080
-717.777	-145.601	-0.238	0.022
-716.762	-86.044	0.491	-0.154
-715.748	-167.547	-0.056	-0.002
-714.733	193.435	0.080	-0.123
-713.718	-37.046	-0.217	-0.118
-712.704	-35.943	-0.148	-0.081
-711.689	-65.444	0.230	0.094
-710.675	-174.427	-0.024	0.001
-709.660	248.493	-0.074	-0.127
-708.645	547.220	0.087	-0.211
-707.631	14.977	0.087	-0.069
-706.616	-135.407	0.183	0.022
-705.602	800.000	0.071	-0.233
-704.587	8.155	-0.286	-0.218
-703.572	800.000	0.069	-0.213
-702.558	-11.671	-0.240	0.160
-701.543	-72.136	-0.169	-0.064
-700.529	-64.004	0.091	-0.038
-699.514	11.840	0.107	0.083
-698.499	-47.524	-0.208	0.103
-697.485	-15.714	-0.172	0.111
-696.470	-102.667	0.169	-0.041
-695.456	-200.000	-0.005	-0.086
-694.441	-200.000	-0.006	-0.077
-693.426	-15.018	-0.116	-0.076
-692.412	-200.000	-0.028	0.181
-691.397	-114.428	0.219	0.043
-690.383	-12.895	-0.443	-0.293
-689.368	1.313	-0.201	0.146
-688.354	-200.000	-0.021	-0.374
-687.339	126.486	0.198	0.254
-686.324	800.000	0.041	-0.129
-685.310	-81.663	0.149	-0.050
-684.295	800.000	0.070	-0.223
-683.281	33.616	0.191	-0.169
-682.266	-61.062	0.435	-0.186
-681.251	800.000	0.070	-0.225
-680.237	-200.000	-0.026	-0.257
-679.222	-200.000	0.010	-0.127
-678.208	14.977	-0.090	-0.071
-677.193	48.761	-0.209	-0.199
-676.178	207.275	-0.114	0.181
-675.164	149.921	-0.164	-0.226
-674.149	-200.000	0.003	-0.514
-673.135	-200.000	-0.009	-0.153
-672.120	-82.785	-0.317	0.104
-671.105	74.432	-0.123	0.132
-670.091	30.742	-0.213	0.185
-669.076	295.589	0.151	0.280
-668.062	23.136	-0.297	-0.247
-667.047	-109.082	-0.174	0.037
-666.032	-200.000	-0.074	-0.379
-665.018	82.726	-0.205	-0.226
-664.003	-103.786	0.324	-0.077
-662.989	-71.989	-0.169	-0.064
-661.974	-200.000	-0.025	-0.176
-660.959	-200.000	-0.051	-0.245
-659.945	103.964	-0.183	0.218
-658.930	254.185	-0.277	-0.480
-657.916	-200.000	0.035	-0.229
-656.901	617.130	-0.062	0.158
-655.886	-19.237	0.077	0.049
-654.872	-132.642	-0.296	-0.038
-653.857	-87.561	-0.323	0.099
-652.843	-110.815	0.207	-0.043
-651.828	19.221	-0.221	0.180
-650.814	-88.733	0.211	0.064
-649.799	296.973	0.191	0.355
-648.784	382.065	-0.182	0.378
-647.770	-168.488	0.114	0.004
-646.755	1.103	-0.306	-0.222
-645.741	-23.709	-0.086	-0.052
-644.726	800.000	-0.044	-0.175
-643.711	-94.342	-0.196	-0.054
-642.697	549.551	0.094	-0.229
-641.682	-41.374	-0.160	-0.084
-640.668	69.530	-0.094	-0.098
-639.653	-200.000	0.056	-0.310
-638.638	-200.000	-0.023	-0.218
-637.624	-200.000	0.011	-0.066
-636.609	-89.075	-0.219	-0.066
-635.595	253.651	0.105	-0.181
-634.580	-92.855	0.082	0.023
-633.565	-93.215	-0.240	-0.068
-632.551	150.016	-0.164	-0.225
-631.536	-115.466	-0.256	-0.049
-630.522	800.000	0.062	0.178
-629.507	58.029	0.134	-0.132
-628.492	-129.469	0.197	-0.028
-627.478	-24.931	0.162	-0.097
-626.463	52.565	0.131	-0.127
-625.449	-29.017	0.177	-0.103
-624.434	70.514	-0.061	-0.064
-623.419	-85.184	-0.072	0.023
-622.405	-110.688	0.280	-0.058
-621.390	15.014	0.206	-0.164
-620.376	463.298	0.088	0.198
-619.361	-138.272	-0.267	-0.030
-618.346	43.366	0.163	0.151
-617.332	-6.768	0.249	0.171
-616.317	42.952	-0.173	0.159
-615.303	-0.595	0.157	0.113
-614.288	-15.248	-0.151	-0.098
-613.273	-200.000	0.060	0.425
-612.259	-165.961	0.277	0.012
-611.244	3.420	0.204	0.151
-610.230	-200.000	-0.000	-0.047
-609.215	-111.252	-0.189	0.039
-608.201	-25.611	-0.146	-0.087
-607.186	287.630	0.045	-0.083
-606.171	-98.572	-0.124	0.032
-605.157	344.474	-0.192	-0.381
-604.142	393.241	-0.095	0.199
-603.128	-139.006	-0.280	0.031
-602.113	-200.000	0.033	-0.248
-601.098	-200.000	-0.042	0.277
-600.084	-133.287	-0.192	-0.025
-599.069	347.492	0.043	0.085
-598.055	-200.000	0.053	-0.238
-597.040	-5.890	0.192	-0.133
-596.025	398.096	-0.150	-0.317
-595.011	259.179	0.171	-0.299
-593.996	-68.982	0.200	0.078
-592.982	311.928	-0.091	-0.173
-591.967	800.000	-0.066	0.232
-590.952	800.000	-0.109	-0.341
-589.938	48.659	-0.114	0.108
-588.923	-33.368	-0.168	-0.094
-587.909	-86.832	-0.384	-0.119
-586.894	-167.412	0.541	0.022
-585.879	-54.361	0.031	-0.014
-584.865	-200.000	-0.007	0.210
-583.850	-45.325	-0.121	0.060
-582.836	-60.503	0.163	0.070
-581.821	-170.173	-0.225	-0.008
-580.806	-106.175	0.139	0.031
-579.792	-200.000	0.051	0.367
-578.777	-200.000	-0.001	0.142
-577.763	14.655	-0.091	0.072
-576.748	-68.156	0.089	-0.035
-575.733	-200.000	0.009	-0.050
-574.719	-99.475	-0.152	-0.039
-573.704	-111.564	-0.296	-0.061
-572.690	-13.890	0.120	0.078
-571.675	-188.507	-0.050	-0.001
-570.661	-200.000	-0.011	0.294
-569.646	-42.334	0.238	-0.123
-568.631	-200.000	0.008	-0.082
-567.617	-102.413	0.161	0.039
-566.602	-200.000	0.015	0.095
-565.588	-174.647	0.337	-0.010
-564.573	34.473	-0.214	-0.188
-563.558	57.609	-0.032	-0.031
-562.544	-87.407	-0.184	-0.056
-561.529	23.228	-0.064	-0.053
-560.515	244.792	0.141	-0.239
-559.500	-54.873	0.161	0.073
-558.485	313.878	0.032	0.060
-557.471	107.266	0.209	-0.251
-556.456	-200.000	0.002	-0.042
-555.442	-67.851	0.139	0.055
-554.427	-55.902	0.336	-0.152
-553.412	123.828	-0.250	0.317
-552.398	53.962	-0.167	-0.162
-551.383	-114.097	0.217	-0.042
-550.369	800.000	0.079	-0.277
-549.354	-83.373	-0.214	-0.069
-548.339	-40.593	-0.072	0.038
-547.325	-57.516	-0.188	-0.083
-546.310	376.222	-0.139	0.285
-545.296	-104.370	-0.205	-0.048
-544.281	115.650	-0.139	0.171
-543.266	-85.544	0.540	0.170
-542.252	-200.000	0.051	-0.424
-541.237	-60.755	-0.039	0.017
-540.223	-22.609	0.210	-0.128
-539.208	-200.000	-0.034	-0.206
-538.193	-70.522	-0.195	0.075
-537.179	-137.412	-0.194	-0.022
-536.164	663.714	-0.041	-0.106
-535.150	800.000	0.030	-0.111
-534.135	800.000	0.034	0.109
-533.121	444.930	0.121	0.269
-532.106	-58.020	-0.210	0.092
-531.091	-200.000	-0.059	-0.335
-530.077	587.925	0.100	-0.247
-529.062	9.525	-0.306	0.233
-528.048	-72.976	-0.237	0.088
-527.033	119.724	0.200	-0.249
-526.018	-156.156	-0.081	0.005
-525.004	151.815	0.145	0.199
-523.989	-106.928	-0.025	-0.006
-522.975	580.400	-0.047	0.115
-521.960	-200.000	0.010	-0.167
-520.945	-49.588	0.215	0.103
-519.931	-117.930	-0.081	0.015
-518.916	2.930	0.146	-0.107
-517.902	800.000	-0.014	0.042
-516.887	-200.000	-0.009	0.069
-515.872	-37.464	0.233	0.125
-514.858	-200.000	0.031	-0.185
-513.843	-200.000	-0.002	0.220
-512.829	800.000	0.050	-0.184
-511.814	674.044	-0.135	0.354
-510.799	-45.187	-0.050	-0.025
-509.785	800.000	0.006	0.021
-508.770	156.971	0.147	0.204
-507.756	173.269	-0.089	0.129
-506.741	203.090	0.066	0.103
-505.726	-50.411	-0.114	-0.054
-504.712	-51.736	-0.164	0.077
-503.697	-49.513	0.316	0.151
-502.683	-200.000	-0.021	0.163
-501.668	377.607	0.042	0.086
-500.653	-52.830	0.391	-0.181
-499.639	0.502	-0.201	0.144
-498.624	-61.447	-0.144	0.061
-497.610	-37.987	0.080	0.043
-496.595	-133.036	-0.113	-0.014
-495.581	72.678	0.084	0.088
-494.566	-155.234	0.466	-0.031
-493.551	-119.989	-0.232	-0.040
-492.537	-100.423	-0.204	0.051
-491.522	227.545	-0.153	-0.251
-490.508	-37.957	-0.371	0.198
-489.493	547.442	0.101	-0.243
-488.478	163.199	0.141	-0.199
-487.464	409.000	-0.059	0.125
-486.449	31.992	0.218	-0.189
-485.435	-59.374	-0.175	0.076
-484.420	250.068	-0.111	-0.189
-483.405	99.804	-0.072	-0.084
-482.391	-150.388	0.122	0.009
-481.376	-68.723	0.113	-0.044
-480.362	-200.000	-0.006	-0.036
-479.347	-85.889	0.161	0.050
-478.332	-25.629	0.252	0.150
-477.318	-83.293	-0.061	0.020
-476.303	-47.401	0.192	0.094
-475.289	141.890	-0.172	-0.229
-474.274	637.900	0.084	-0.214
-473.259	-16.858	-0.195	-0.124
-472.245	-40.935	0.270	0.140
-471.230	-161.322	-0.196	0.010
-470.216	-130.831	-0.357	-0.048
-469.201	800.000	-0.049	-0.140
-468.186	-145.881	-0.185	-0.017
-467.172	-200.000	0.017	-0.310
-466.157	-200.000	0.034	-0.275
-465.143	385.389	0.142	-0.294
-464.128	-41.376	-0.175	-0.091
-463.113	261.846	-0.058	0.102
-462.099	-200.000	0.044	0.401
-461.084	230.649	-0.066	0.108
-460.070	-71.542	-0.129	0.048
-459.055	29.626	0.312	0.267
-458.040	-23.804	-0.220	-0.133
-457.026	83.034	0.179	-0.196
-456.011	164.278	0.041	-0.058
-454.997	-200.000	-0.011	-0.252
-453.982	-58.323	-0.364	0.159
-452.968	800.000	0.069	-0.273
-451.953	-48.690	-0.180	0.087
-450.938	-200.000	-0.004	0.031
-449.924	35.972	-0.216	0.191
-448.909	-65.546	-0.095	0.038
-447.895	-70.601	-0.278	-0.106
-446.880	-69.334	0.267	-0.103
-445.865	135.619	0.162	0.212
-444.851	49.867	0.097	0.092
-443.836	280.908	0.051	0.091
-442.822	-171.225	0.317	-0.011
-441.807	-77.190	0.180	0.063
-440.792	800.000	-0.066	0.196
-439.778	800.000	-0.030	0.099
-438.763	-200.000	0.039	-0.245
-437.749	179.606	-0.213	0.314
-436.734	49.912	0.199	0.188
-435.719	-200.000	0.037	0.325
-434.705	-32.433	0.209	-0.117
-433.690	-200.000	0.019	0.130
-432.676	110.191	0.253	0.305
-431.661	-19.650	-0.260	-0.161
-430.646	-86.161	0.131	-0.041
-429.632	172.158	-0.147	0.212
-428.617	-94.155	-0.201	0.055
-427.603	-200.000	-0.010	0.077
-426.588	800.000	-0.069	-0.260
-425.573	304.320	0.111	0.206
-424.559	-152.244	-0.166	-0.012
-423.544	-69.168	0.226	-0.087
-422.530	-135.047	-0.041	0.005
-421.515	-155.470	0.158	-0.010
-420.500	726.278	-0.044	-0.118
-419.486	-200.000	0.008	-0.271
-418.471	99.959	-0.096	0.112
-417.457	38.998	-0.141	-0.127
-416.442	754.814	-0.067	-0.182
-415.428	-73.267	0.186	-0.068
-414.413	189.965	0.237	0.357
-413.398	-200.000	0.035	0.185
-412.384	-40.382	-0.314	0.164
-411.369	-125.530	0.200	-0.030
-410.355	-48.997	-0.097	-0.047
-409.340	-200.000	0.032	0.275
-408.325	-82.768	-0.216	0.070
-407.311	192.715	-0.054	-0.082
-406.296	-200.000	-0.035	0.396
-405.282	-160.340	-0.285	0.015
-404.267	-60.912	0.347	-0.147
-403.252	237.601	0.094	0.156
-402.238	800.000	-0.078	-0.237
-401.223	-200.000	-0.013	-0.142
-400.209	388.829	0.225	-0.468
-399.194	-200.000	0.254	-0.001
-398.179	-40.872	0.446	-0.231
-397.165	209.566	0.219	0.344
-396.150	-65.553	0.018	0.007
-395.136	654.427	-0.034	0.087
-394.121	167.115	0.158	-0.225
-393.106	21.067	-0.124	0.101
-392.092	291.917	0.167	-0.305
-391.077	45.833	0.165	-0.153
-390.063	-200.000	0.049	-0.268
-389.048	-68.151	0.194	-0.076
-388.033	232.025	-0.065	0.107
-387.019	-153.883	0.233	0.016
-386.004	-69.617	-0.127	0.049
-384.990	-130.749	-0.346	-0.047
-383.975	-44.542	-0.214	-0.107
-382.960	18.635	0.090	-0.072
-381.946	750.008	-0.058	-0.158
-380.931	-200.000	-0.018	0.123
-379.917	-54.499	-0.201	0.091
-378.902	-200.000	-0.005	0.059
-377.888	-90.281	-0.180	0.052
-376.873	43.851	-0.021	-0.020
-375.858	143.583	-0.219	-0.292
-374.844	-115.868	0.147	0.028
-373.829	356.273	0.113	-0.225
-372.815	-49.389	-0.336	-0.161
-371.800	12.901	-0.092	-0.071
-370.785	-23.215	-0.274	-0.165
-369.771	254.756	-0.047	0.080
-368.756	-200.000	0.028	-0.189
-367.742	800.000	-0.107	0.324
-366.727	76.840	-0.058	0.061
-365.712	-172.276	0.288	-0.009
-364.698	-92.557	-0.163	-0.046
-363.683	132.883	0.157	-0.203
-362.669	-73.909	0.112	-0.041
-361.654	-134.645	-0.087	-0.011
-360.639	-109.417	-0.273	0.058
-359.625	800.000	-0.092	0.312
-358.610	-73.207	-0.150	-0.055
-357.596	-156.399	-0.258	0.016
-356.581	-200.000	-0.017	-0.125
-355.566	601.377	0.043	-0.107
-354.552	-112.245	0.196	0.039
-353.537	234.204	-0.222	0.366
-352.523	800.000	-0.036	0.125
-351.508	236.464	0.197	-0.327
-350.493	56.866	0.142	-0.138
-349.479	-200.000	0.013	0.063
-348.464	156.070	-0.158	-0.218
-347.450	-45.561	0.131	0.065
-346.435	-200.000	0.013	-0.098
-345.420	-127.711	0.203	0.029
-344.406	24.412	-0.226	0.187
-343.391	-200.000	-0.018	0.082
-342.377	-200.000	-0.010	0.060
-341.362	-114.393	-0.385	-0.074
-340.348	-57.381	-0.081	0.036
-339.333	119.704	0.131	0.163
-338.318	-77.010	0.282	0.099
-337.304	-82.902	-0.244	-0.079
-336.289	-49.469	0.288	-0.137
-335.275	-36.773	-0.121	0.065
-334.260	360.116	-0.061	-0.123
-333.245	-105.022	0.157	0.036
-332.231	800.000	-0.122	-0.344
-331.216	651.915	0.093	0.239
-330.202	800.000	-0.079	0.222
-329.187	800.000	0.020	-0.065
-328.172	107.309	0.196	0.234
-327.158	-200.000	-0.021	0.206
-326.143	800.000	-0.034	-0.112
-325.129	84.107	0.091	-0.100
-324.114	-46.865	0.287	-0.140
-323.099	61.605	-0.254	0.253
-322.085	-200.000	0.067	0.440
-321.070	59.128	-0.189	0.186
-320.056	-147.288	-0.167	0.014
-319.041	154.046	-0.046	-0.063
-318.026	37.118	0.306	-0.271
-317.012	-184.853	-0.124	-0.002
-315.997	11.204	0.136	0.104
-314.983	63.501	0.233	-0.234
-313.968	-200.000	-0.038	0.178
-312.953	-129.365	0.265	-0.037
-311.939	179.957	0.273	0.400
-310.924	800.000	-0.085	0.315
-309.910	371.337	-0.021	-0.043
-308.895	-73.958	0.089	0.032
-307.880	97.960	-0.278	-0.320
-306.866	-86.772	0.460	0.140
-305.851	-46.028	0.226	-0.111
-304.837	649.608	0.057	0.145
-303.822	-51.368	-0.281	-0.131
-302.807	69.007	0.202	0.208
-301.793	-73.372	0.327	-0.119
-300.778	-13.154	0.151	0.098
-299.764	-83.937	-0.216	-0.069
-298.749	139.128	-0.178	-0.234
-297.735	-60.884	0.164	-0.069
-296.720	800.000	-0.153	-0.452
-295.705	800.000	0.079	0.271
-294.691	-160.793	0.109	0.006
-293.676	800.000	-0.021	0.079
-292.662	-200.000	0.041	0.188
-291.647	173.666	0.088	-0.127
-290.632	150.368	-0.140	0.190
-289.618	522.657	0.073	-0.171
-288.603	-200.000	-0.009	-0.117
-287.589	-200.000	-0.004	0.047
-286.574	-200.000	-0.018	-0.235
-285.559	-105.620	-0.163	-0.037
-284.545	-23.169	-0.268	0.161
-283.530	-200.000	0.012	-0.075
-282.516	-200.000	-0.046	0.226
-281.501	42.976	0.332	0.302
-280.486	99.238	0.190	0.220
-279.472	800.000	-0.017	0.063
-278.457	139.846	0.100	-0.131
-277.443	277.049	0.074	-0.131
-276.428	800.000	-0.051	0.179
-275.413	301.411	0.116	-0.213
-274.399	0.867	0.114	0.082
-273.384	246.674	-0.158	0.266
-272.370	-110.415	0.281	-0.058
-271.355	209.460	-0.216	-0.339
-270.340	-30.490	-0.121	-0.069
-269.326	340.438	0.053	-0.103
-268.311	-98.211	0.191	0.049
-267.297	158.700	0.178	-0.247
-266.282	42.466	0.111	0.101
-265.267	-18.466	0.074	0.046
-264.253	-200.000	-0.035	0.206
-263.238	-90.940	-0.156	0.045
-262.224	-70.645	0.207	-0.078
-261.209	-126.943	0.379	0.056
-260.195	84.722	-0.204	-0.223
-259.180	-200.000	-0.005	0.040
-258.165	-31.643	0.084	0.047
-257.151	315.250	0.169	-0.317
-256.136	-157.413	0.270	-0.016
-255.122	37.834	-0.028	0.025
-254.107	140.096	0.238	-0.313
-253.092	-193.577	-0.307	0.003
-252.078	18.621	-0.232	-0.185
-251.063	81.906	-0.206	0.223
-250.049	226.867	-0.092	-0.148
-249.034	-72.179	0.254	-0.094
-248.019	-2.334	-0.038	-0.026
-247.005	206.820	0.077	0.119
-245.990	800.000	0.057	0.207
-244.976	-200.000	-0.043	0.339
-243.961	-129.724	-0.308	-0.042
-242.946	14.564	0.027	-0.021
-241.932	729.061	0.019	0.051
-240.917	800.000	-0.045	0.140
-239.903	-200.000	-0.007	-0.213
-238.888	7.392	0.057	0.042
-237.873	-120.264	-0.091	-0.015
-236.859	800.000	0.020	-0.059
-235.844	-4.671	0.290	-0.199
-234.830	15.435	-0.149	-0.116
-233.815	-91.307	0.109	0.031
-232.800	-92.944	0.168	-0.047
-231.786	-28.260	0.247	0.142
-230.771	-127.957	-0.191	-0.027
-229.757	27.058	-0.233	0.195
-228.742	79.908	0.184	0.197
-227.727	-200.000	-0.006	0.027
-226.713	53.039	0.036	0.034
-225.698	40.742	0.212	0.191
-224.684	-104.413	0.155	0.036
-223.669	800.000	0.055	-0.154
-222.655	-68.625	-0.212	-0.082
-221.640	-167.487	-0.306	-0.012
-220.625	800.000	-0.069	-0.282
-219.611	-71.218	-0.241	0.090
-218.596	-200.000	0.062	-0.317
-217.582	570.282	0.116	-0.281
-216.567	176.859	-0.126	0.182
-215.552	288.623	0.187	0.338
-214.538	800.000	-0.109	-0.330
-213.523	-36.022	-0.144	-0.078
-212.509	-161.657	-0.205	-0.010
-211.494	-123.061	-0.046	-0.007
-210.479	-76.281	0.169	-0.059
-209.465	-200.000	-0.023	0.226
-208.450	-200.000	-0.004	-0.086
-207.436	-59.562	0.215	-0.092
-206.421	-142.162	0.267	0.026
-205.406	343.335	-0.147	0.286
-204.392	-200.000	0.013	0.120
-203.377	52.260	-0.183	-0.174
-202.363	-200.000	0.036	0.209
-201.348	-200.000	-0.016	0.350
-200.333	547.850	-0.098	-0.233
-199.319	303.646	-0.147	-0.271
-198.304	144.026	0.156	-0.207
-197.290	-200.000	0.028	-0.329
-196.275	-43.515	-0.223	0.112
-195.260	-200.000	-0.055	0.318
-194.246	-200.000	-0.017	0.327
-193.231	-58.866	0.266	0.114
-192.217	-13.920	-0.190	-0.122
-191.202	-36.922	-0.023	-0.012
-190.187	-174.587	0.242	-0.007
-189.173	32.846	-0.324	-0.279
-188.158	-16.277	0.165	-0.104
-187.144	-200.000	0.013	0.133
-186.129	-200.000	0.004	-0.164
-185.114	218.558	-0.160	0.255
-184.100	-200.000	0.061	0.458
-183.085	-2.305	-0.290	0.202
-182.071	800.000	-0.073	0.248
-181.056	326.232	0.101	-0.192
-180.042	37.708	0.064	-0.057
-179.027	-27.343	0.095	0.055
-178.012	-117.266	0.188	-0.034
-176.998	260.498	-0.095	-0.163
-175.983	-114.190	-0.205	-0.039
-174.969	33.902	0.134	0.116
-173.954	-21.367	-0.252	0.153
-172.939	46.405	-0.177	0.163
-171.925	-200.000	-0.100	-0.000
-170.910	-200.000	0.064	0.280
-169.896	-91.581	0.292	-0.083
-168.881	-62.861	-0.182	0.075
-167.866	-86.158	0.167	-0.051
-166.852	161.880	-0.067	-0.094
-165.837	-200.000	-0.043	0.403
-164.823	800.000	-0.127	0.421
-163.808	172.044	-0.288	0.411
-162.793	-48.721	0.162	-0.077
-161.779	-200.000	-0.023	-0.291
-160.764	70.761	-0.392	0.403
-159.750	-200.000	0.023	-0.307
-158.735	-60.099	-0.191	-0.081
-157.720	-66.117	-0.188	-0.075
-156.706	30.887	-0.166	0.141
-155.691	359.121	-0.080	0.160
-154.677	-125.323	0.332	-0.050
-153.662	16.257	-0.104	-0.082
-152.647	800.000	0.044	0.140
-151.633	-200.000	-0.010	-0.152
-150.618	-114.205	0.107	0.020
-149.604	45.126	-0.291	-0.267
-148.589	282.860	0.221	-0.394
-147.574	-200.000	-0.061	0.413
-146.560	52.979	0.267	0.254
-145.545	-92.437	0.489	-0.137
-144.531	25.405	-0.172	0.142
-143.516	23.462	-0.266	0.217
-142.502	100.350	0.131	-0.152
-141.487	387.761	0.106	-0.218
-140.472	-200.000	0.073	0.377
-139.458	0.442	0.401	0.284
-138.443	249.599	0.163	0.275
-137.429	800.000	-0.128	0.379
-136.414	-57.017	0.068	0.030
-135.399	-49.989	0.146	0.069
-134.385	21.503	-0.240	0.194
-133.370	170.163	0.131	0.186
-132.356	296.473	-0.052	-0.094
-131.341	-103.993	0.253	-0.059
-130.326	-200.000	0.032	-0.171
-129.312	-53.926	-0.085	-0.038
-128.297	-23.695	0.218	-0.130
-127.283	155.584	-0.056	0.076
-126.268	143.805	-0.042	-0.055
-125.253	-200.000	-0.006	-0.472
-124.239	-200.000	0.014	-0.063
-123.224	-54.488	0.081	-0.037
-122.210	89.303	-0.158	0.175
-121.195	6.883	-0.235	-0.174
-120.180	304.513	-0.098	0.181
-119.166	13.378	-0.192	-0.147
-118.151	-200.000	-0.007	0.054
-117.137	-74.859	0.280	-0.100
-116.122	433.343	-0.105	0.227
-115.107	0.786	0.158	0.112
-114.093	800.000	0.039	0.112
-113.078	-200.000	0.007	0.309
-112.064	-113.449	0.169	-0.033
-111.049	-47.299	-0.112	0.054
-110.034	800.000	0.024	-0.072
-109.020	-200.000	-0.053	0.296
-108.005	-9.179	-0.072	-0.048
-106.991	-156.541	0.211	0.013
-105.976	59.997	0.072	-0.071
-104.962	4.564	0.298	-0.217
-103.947	606.195	-0.149	-0.368
-102.932	-200.000	-0.038	-0.407
-101.918	29.727	-0.073	0.062
-100.903	-200.000	-0.010	-0.183
-99.889	-169.414	-0.209	-0.008
-98.874	-196.291	0.115	-0.001
-97.859	123.690	0.170	0.212
-96.845	-200.000	0.024	0.163
-95.830	-105.618	0.181	0.041
-94.816	-23.173	-0.148	0.089
-93.801	-60.496	0.065	0.028
-92.786	-111.990	-0.214	0.043
-91.772	112.565	0.037	-0.044
-90.757	800.000	0.009	0.032
-89.743	503.197	-0.147	0.337
-88.728	402.231	-0.024	0.050
-87.713	-101.152	-0.039	0.009
-86.699	-3.902	-0.133	0.091
-85.684	-200.000	-0.006	0.083
-84.670	800.000	-0.024	-0.086
-83.655	-19.867	-0.025	0.015
-82.640	-114.469	-0.404	0.077
-81.626	800.000	-0.026	0.094
-80.611	-200.000	0.050	-0.396
-79.597	68.331	-0.073	-0.074
-78.582	800.000	0.039	0.114
-77.567	-145.573	0.313	-0.028
-76.553	-65.593	0.266	-0.106
-75.538	191.606	0.092	0.137
-74.524	-200.000	-0.016	0.399
-73.509	74.268	-0.162	0.168
-72.494	-46.075	0.416	0.203
-71.480	322.612	-0.125	-0.236
-70.465	-43.809	0.486	-0.242
-69.451	26.856	0.044	0.036
-68.436	800.000	-0.081	-0.230
-67.422	-83.631	-0.106	-0.033
-66.407	53.260	0.112	-0.106
-65.392	-89.359	-0.157	0.046
-64.378	49.831	0.293	-0.274
-63.363	-101.198	-0.460	-0.111
-62.349	75.881	0.034	0.036
-61.334	92.501	-0.847	-0.946
-60.319	20.385	0.538	0.430
-59.305	-200.000	-0.073	-0.765
-58.290	15.502	0.654	0.509
-57.276	558.013	0.609	1.455
-56.261	-200.000	97.894	577.410
-55.246	635.875	1396.522	3508.506
-54.232	185.849	2608.795	3837.587
-53.217	120.868	2201.889	2709.974
-52.203	45.157	1733.834	1581.494
-51.188	37.782	1544.373	1357.487
-50.173	35.342	1516.816	1316.488
-49.159	54.109	1567.787	1492.159
-48.144	58.062	1586.889	1537.861
-47.130	38.141	1542.015	1357.695
-46.115	34.888	1526.228	1321.309
-45.100	34.686	1523.071	1317.131
-44.086	34.687	1521.203	1315.471
-43.071	34.622	1519.508	1313.505
-42.057	34.491	1517.808	1311.086
-41.042	34.471	1516.623	1309.872
-40.027	34.469	1514.925	1308.340
-39.013	34.671	1513.037	1308.044
-37.998	34.645	1512.176	1307.066
-36.984	34.575	1511.169	1305.665
-35.969	34.546	1510.208	1304.589
-34.954	34.627	1508.435	1303.554
-33.940	34.600	1507.004	1302.082
-32.925	34.654	1505.498	1301.101
-31.911	34.581	1504.688	1299.850
-30.896	34.687	1502.852	1298.932
-29.881	34.708	1501.602	1297.943
-28.867	34.680	1499.970	1296.294
-27.852	34.653	1498.694	1294.955
-26.838	34.741	1497.337	1294.328
-25.823	34.647	1496.287	1292.733
-24.809	34.608	1494.440	1290.822
-23.794	34.632	1493.036	1289.722
-22.779	34.639	1491.867	1288.706
-21.765	34.736	1490.510	1288.138
-20.750	34.643	1489.938	1286.966
-19.736	34.664	1488.414	1285.741
-18.721	34.680	1487.553	1285.050
-17.706	34.635	1486.466	1283.755
-16.692	34.606	1485.390	1282.581
-15.677	34.529	1484.622	1281.355
-14.663	34.639	1483.605	1281.161
-13.648	34.641	1482.404	1280.086
-12.633	34.594	1481.315	1278.779
-11.619	34.590	1480.756	1278.219
-10.604	34.644	1479.513	1277.457
-9.590	34.659	1478.416	1276.558
-8.575	34.596	1477.859	1275.606
-7.560	34.668	1476.818	1275.138
-6.546	34.588	1476.409	1274.202
-5.531	34.493	1475.318	1272.574
-4.517	34.502	1474.347	1271.745
-3.502	34.551	1472.988	1270.851
-2.487	34.739	1471.700	1270.938
-1.473	34.574	1471.642	1269.741
-0.458	34.596	1469.945	1268.376
0.556	36.571	1460.666	1257.681
1.571	33.359	1433.515	1213.645
2.586	29.223	1370.797	1135.025
3.600	27.061	1287.124	1053.129
4.615	24.777	1239.863	1001.597
5.629	21.281	1182.500	936.469
6.644	12.855	1097.716	827.143
7.659	6.052	1055.311	762.209
8.673	5.073	1049.845	753.463
9.688	4.696	1046.801	749.400
10.702	4.620	1045.625	748.125
11.717	4.772	1044.275	747.824
12.731	7.991	1047.661	765.677
13.746	16.303	1058.937	814.080
14.761	21.825	1065.538	845.797
15.775	22.011	1065.060	846.239
16.790	21.300	1062.708	840.876
17.804	20.279	1060.600	834.228
18.819	19.411	1059.030	828.747
19.834	18.913	1057.862	825.373
20.848	18.809	1057.020	824.144
21.863	18.657	1056.474	822.914
22.877	18.346	1055.732	820.774
23.892	18.172	1054.631	819.013
24.907	18.140	1054.177	818.432
25.921	18.160	1053.223	817.719
26.936	18.090	1052.649	816.864
27.950	18.335	1050.810	816.534
28.965	18.198	1050.459	815.533
29.980	18.146	1049.423	814.410
30.994	18.373	1048.088	814.381
32.009	18.593	1047.080	814.574
33.023	18.624	1046.691	814.345
34.038	18.537	1045.945	813.282
35.053	18.455	1045.010	812.093
36.067	18.347	1043.780	810.554
37.082	18.275	1043.302	809.770
38.096	18.417	1042.471	809.724
39.111	18.346	1041.218	808.343
40.126	18.497	1040.535	808.453
41.140	18.292	1039.746	806.803
42.155	18.160	1038.122	804.852
43.169	18.053	1036.597	803.093
44.184	17.890	1035.941	801.748
45.199	17.920	1034.783	800.925
46.213	17.914	1034.133	800.319
47.228	18.036	1032.893	799.863
48.242	18.274	1032.350	800.485
49.257	18.269	1031.830	799.989
50.271	18.294	1030.470	798.980
51.286	18.333	1029.431	798.282
52.301	18.323	1028.761	797.645
53.315	18.260	1028.314	796.936
54.330	18.333	1027.072	796.242
55.344	18.160	1026.056	794.582
56.359	17.934	1025.302	792.879
57.374	18.106	1024.193	792.748
58.388	18.113	1023.090	791.856
59.403	17.887	1022.515	790.296
60.417	17.920	1021.678	789.730
61.432	17.887	1021.181	789.123
62.447	17.822	1020.609	788.314
63.461	17.707	1019.633	786.958
64.476	17.714	1018.833	786.302
65.490	17.645	1017.740	785.073
66.505	17.692	1016.794	784.491
67.520	17.678	1016.089	783.810
68.534	17.864	1015.005	783.761
69.549	17.804	1014.617	783.114
70.563	17.794	1013.884	782.433
71.578	17.743	1013.286	781.671
72.593	17.640	1011.963	780.110
73.607	17.455	1011.021	778.467
74.622	17.361	1010.195	777.334
75.636	17.554	1009.238	777.409
76.651	17.649	1008.245	777.007
77.666	17.781	1007.246	776.771
78.680	17.560	1007.375	775.796
79.695	17.532	1006.801	775.156
80.709	17.669	1005.832	774.964
81.724	17.728	1005.320	774.771
82.739	17.793	1004.737	774.547
83.753	17.984	1003.894	774.695
84.768	18.003	1003.374	774.313
85.782	18.345	1002.796	775.344
86.797	18.574	1001.713	775.476
87.812	18.625	1001.081	775.147
88.826	18.298	1000.278	772.982
89.841	18.200	999.652	771.988
90.855	18.451	998.581	772.222
91.870	18.418	997.817	771.417
92.884	18.438	997.123	770.901
93.899	18.585	996.737	771.195
94.914	18.390	995.787	769.516
95.928	18.553	994.911	769.502
96.943	18.647	994.070	769.207
97.957	18.368	993.648	767.558
98.972	18.467	992.430	766.995
99.987	18.460	991.648	766.291
101.001	18.324	991.240	765.298
102.016	18.309	990.431	764.540
103.030	18.279	989.537	763.648
104.045	18.331	988.634	763.118
105.060	18.490	987.446	762.838
106.074	18.357	986.380	761.359
107.089	18.002	985.854	759.306
108.103	17.841	984.512	757.491
109.118	17.824	983.553	756.609
110.133	17.912	982.661	756.249
111.147	17.766	981.914	754.960
112.162	17.696	981.046	753.913
113.176	17.817	979.964	753.550
114.191	17.904	979.454	753.479
115.206	18.125	978.663	753.775
116.220	18.055	978.086	752.955
117.235	17.920	977.115	751.551
118.249	17.847	976.265	750.508
119.264	17.858	975.268	749.723
120.279	17.733	974.697	748.668
121.293	17.760	973.719	747.969
122.308	17.714	973.258	747.346
123.322	17.617	972.296	746.119
124.337	17.556	971.009	744.800
125.352	17.593	969.848	744.002
126.366	17.517	969.091	743.024
127.381	17.564	968.084	742.392
128.395	17.587	966.634	741.315
129.410	17.564	966.073	740.718
130.424	17.766	965.238	740.889
131.439	17.701	964.396	739.895
132.454	17.919	963.662	740.215
133.468	18.017	962.729	739.856
134.483	17.992	962.419	739.446
135.497	18.100	961.564	739.190
136.512	17.965	960.967	738.081
137.527	17.974	960.113	737.400
138.541	18.039	959.699	737.295
139.556	18.177	958.332	736.775
140.570	17.933	958.076	735.460
141.585	18.160	957.296	735.775
142.600	18.213	956.987	735.701
143.614	18.306	956.298	735.503
144.629	18.380	955.477	735.126
145.643	18.501	954.118	734.532
146.658	18.464	953.408	733.762
147.673	18.283	952.442	732.180
148.687	18.229	951.423	731.101
149.702	18.075	950.262	729.487
150.716	17.915	949.701	728.311
151.731	17.992	948.703	727.807
152.746	18.008	947.920	727.214
153.760	18.120	947.058	726.962
154.775	18.166	946.481	726.651
155.789	18.216	946.073	726.484
156.804	18.272	945.540	726.249
157.819	18.235	944.435	725.179
158.833	18.291	943.929	724.964
159.848	18.217	943.948	724.601
160.862	18.518	942.989	725.074
161.877	18.544	941.666	724.102
162.892	18.384	940.854	722.739
163.906	17.977	940.150	720.416
164.921	18.008	938.735	719.399
165.935	17.976	938.174	718.774
166.950	18.060	937.003	718.165
167.964	18.179	936.216	717.999
168.979	18.179	935.541	717.414
169.994	18.048	934.430	715.951
171.008	17.911	933.837	714.861
172.023	17.998	932.952	714.486
173.037	18.151	932.346	714.595
174.052	18.508	931.224	715.162
175.067	18.334	930.870	714.100
176.081	18.279	929.892	713.061
177.096	18.032	928.767	711.107
178.110	17.985	927.885	710.173
179.125	18.045	927.427	710.007
180.140	18.144	926.303	709.494
181.154	18.128	925.797	708.978
182.169	18.174	925.718	709.045
183.183	18.336	925.105	709.184
184.198	18.501	924.228	709.132
185.213	18.467	923.491	708.364
186.227	18.316	923.280	707.517
187.242	18.491	922.579	707.638
188.256	18.538	922.102	707.405
189.271	18.507	921.472	706.729
190.286	18.753	920.360	706.829
191.300	18.464	919.718	705.081
192.315	18.237	918.224	702.941
193.329	17.931	917.383	700.981
194.344	17.982	917.065	700.885
195.359	18.127	916.714	701.148
196.373	18.292	916.058	701.263
197.388	18.344	915.982	701.356
198.402	18.496	915.536	701.572
199.417	18.617	915.105	701.677
200.432	18.766	914.951	702.104
201.446	18.811	914.598	701.956
202.461	18.982	913.901	702.055
203.475	19.034	913.259	701.715
204.490	19.057	912.467	701.137
205.504	18.788	911.552	699.278
206.519	18.662	910.817	698.139
207.534	18.499	910.456	697.135
208.548	18.590	909.214	696.494
209.563	18.555	908.988	696.117
210.577	18.704	907.454	695.486
211.592	18.629	907.175	694.904
212.607	18.826	906.919	695.446
213.621	18.927	906.770	695.679
214.636	18.862	905.794	694.604
215.650	18.868	905.123	694.053
216.665	18.811	905.027	693.687
217.680	18.774	904.738	693.254
218.694	18.876	903.948	693.000
219.709	19.041	903.081	692.938
220.723	19.024	902.395	692.283
221.738	18.959	901.549	691.310
222.753	19.055	900.830	691.085
223.767	18.922	900.274	690.061
224.782	18.950	899.407	689.449
225.796	19.173	898.728	689.763
226.811	19.145	898.362	689.307
227.826	19.209	897.125	688.553
228.840	19.021	896.759	687.459
229.855	18.836	896.324	686.326
230.869	18.910	895.282	685.762
231.884	18.881	894.986	685.361
232.899	18.970	893.742	684.699
233.913	18.809	893.534	683.839
234.928	18.850	892.081	682.831
235.942	18.644	892.248	682.079
236.957	18.660	891.657	681.632
237.972	18.640	890.836	680.863
238.986	18.663	890.251	680.447
240.001	18.632	889.758	679.889
241.015	18.667	888.848	679.270
242.030	18.906	888.295	679.732
243.045	18.857	887.759	679.070
244.059	18.919	887.551	679.095
245.074	18.959	886.840	678.647
246.088	19.106	886.002	678.526
247.103	19.136	885.537	678.228
248.117	19.276	884.819	678.171
249.132	19.389	884.316	678.169
250.147	19.531	883.974	678.405
251.161	19.785	883.626	679.074
252.176	19.755	883.175	678.550
253.190	19.804	882.335	678.035
254.205	19.876	882.038	678.032
255.220	19.894	881.346	677.512
256.234	19.747	880.727	676.400
257.249	19.947	880.063	676.610
258.263	19.796	879.312	675.385
259.278	19.751	879.096	674.984
260.293	19.814	878.291	674.551
261.307	19.968	877.841	674.745
262.322	19.828	877.535	673.904
263.336	19.816	877.342	673.651
264.351	19.972	876.330	673.421
265.366	19.933	875.485	672.560
266.380	19.953	875.027	672.226
267.395	20.069	874.000	671.828
268.409	19.818	873.681	670.552
269.424	19.762	872.533	669.393
270.439	19.829	871.795	669.026
271.453	19.782	871.340	668.439
272.468	19.767	870.331	667.545
273.482	19.761	869.596	666.899
274.497	19.584	869.602	666.162
275.512	19.855	868.276	666.131
276.526	19.701	867.910	665.198
277.541	19.845	867.079	665.058
278.555	19.741	866.778	664.366
279.570	19.866	866.470	664.552
280.585	19.988	865.682	664.357
281.599	20.089	865.472	664.526
282.614	19.960	864.663	663.352
283.628	20.008	863.448	662.545
284.643	19.725	863.329	661.310
285.657	19.772	862.419	660.734
286.672	19.775	862.434	660.702
287.687	19.834	861.914	660.468
288.701	19.907	861.089	660.055
289.716	19.930	860.441	659.587
290.730	19.892	860.318	659.292
291.745	19.962	859.401	658.797
292.760	19.985	858.614	658.223
293.774	20.091	857.937	658.048
294.789	20.153	857.885	658.183
295.803	20.075	857.321	657.397
296.818	19.910	856.530	656.110
297.833	20.085	855.544	655.957
298.847	19.996	855.242	655.333
299.862	19.899	854.668	654.467
300.876	19.891	853.327	653.350
301.891	20.205	853.209	654.387
302.906	20.197	852.607	653.839
303.920	20.364	851.930	653.890
304.935	20.473	851.508	653.920
305.949	20.469	851.056	653.497
306.964	20.629	850.255	653.426
307.979	20.408	849.849	652.228
308.993	20.268	849.718	651.542
310.008	20.406	848.910	651.385
311.022	20.440	848.471	651.118
312.037	20.334	848.035	650.329
313.052	20.262	847.342	649.468
314.066	20.237	846.043	648.321
315.081	20.026	845.813	647.299
316.095	20.083	845.035	646.859
317.110	19.959	844.766	646.134
318.125	20.040	843.890	645.708
319.139	19.916	843.644	645.002
320.154	19.955	843.287	644.819
321.168	20.217	842.308	644.985
322.183	20.207	842.182	644.794
323.197	20.313	841.659	644.732
324.212	20.201	840.808	643.607
325.227	20.320	840.695	643.906
326.241	20.121	840.304	642.811
327.256	20.122	839.158	641.880
328.270	20.131	838.893	641.656
329.285	20.223	838.209	641.416
330.300	20.165	837.528	640.624
331.314	20.220	836.876	640.272
332.329	20.388	836.051	640.203
333.343	20.244	835.780	639.406
334.358	20.433	835.613	639.921
335.373	20.429	834.712	639.158
336.387	20.475	834.250	638.918
337.402	20.445	833.652	638.292
338.416	20.680	833.188	638.744
339.431	20.774	832.799	638.734
340.446	20.899	832.099	638.599
341.460	20.887	832.165	638.549
342.475	20.838	831.459	637.769
343.489	20.888	831.112	637.631
344.504	21.090	829.952	637.424
345.519	20.929	830.101	636.893
346.533	21.187	829.488	637.308
347.548	21.110	828.883	636.506
348.562	20.929	827.890	635.027
349.577	20.808	827.253	634.041
350.592	20.618	826.921	633.041
351.606	20.684	826.261	632.718
352.621	20.505	825.514	631.441
353.635	20.661	825.218	631.724
354.650	20.643	825.049	631.474
355.665	20.630	824.720	631.117
356.679	20.621	824.480	630.848
357.694	20.925	823.897	631.448
358.708	20.953	823.317	631.048
359.723	20.830	822.552	629.959
360.738	20.982	821.916	629.966
361.752	20.845	821.729	629.272
362.767	20.838	821.238	628.815
363.781	20.950	821.076	629.040
364.796	21.061	820.827	629.195
365.810	21.205	820.213	629.186
366.825	21.413	819.775	629.544
367.840	21.443	819.130	629.100
368.854	21.317	819.070	628.548
369.869	21.219	818.566	627.753
370.883	21.192	817.848	627.047
371.898	21.190	817.246	626.524
372.913	21.421	816.472	626.703
373.927	21.376	816.313	626.366
374.942	21.269	815.358	625.194
375.956	21.156	815.115	624.547
376.971	21.296	814.482	624.510
377.986	21.442	813.710	624.383
379.000	21.607	813.263	624.573
380.015	21.554	812.778	623.956
381.029	21.639	812.125	623.702
382.044	21.566	811.651	623.023
383.059	21.417	811.318	622.181
384.073	21.554	810.685	622.127
385.088	21.645	809.855	621.760
386.102	21.330	809.350	620.199
387.117	21.196	808.998	619.401
388.132	21.254	808.340	619.047
389.146	21.200	808.182	618.680
390.161	21.261	807.745	618.507
391.175	21.407	807.394	618.698
392.190	21.425	807.078	618.466
393.205	21.516	806.393	618.208
394.219	21.403	806.102	617.532
395.234	21.373	805.398	616.831
396.248	21.249	804.576	615.708
397.263	21.306	804.192	615.562
398.278	21.204	803.570	614.673
399.292	21.155	803.113	614.096
400.307	21.200	802.428	613.676
401.321	21.202	802.420	613.622
402.336	21.096	802.359	613.149
403.350	21.187	801.844	613.022
404.365	21.436	801.139	613.301
405.380	21.486	801.187	613.458
406.394	21.510	800.812	613.203
407.409	21.715	800.129	613.341
408.423	21.765	799.930	613.310
409.438	21.937	799.219	613.312
410.453	21.883	798.934	612.851
411.467	21.727	798.454	611.884
412.482	21.796	798.095	611.795
413.496	21.909	797.848	611.945
414.511	22.146	797.098	612.142
415.526	22.109	797.042	611.917
416.540	22.066	796.427	611.240
417.555	21.972	796.053	610.571
418.569	21.921	795.585	609.982
419.584	21.935	794.684	609.284
420.599	21.920	794.375	608.943
421.613	159.418	1368.354	1790.047
422.628	138.192	1452.016	1790.156
