DTS Sentinel unit serial number:	SN413079Multiplexer serial number:	ORYXHardware model number:	OX4-SRSoftware version number:	ORYX F/W v4.00 Oryx Data Collector v3.7.2.0data status	okinstallation	princeton_trtdifferential loss correction	single-endedforward channel	channel 3reverse channel	N/Adate	2019/09/15time	02:44:34forward acquisition time	60.00reverse acquisition time	0.00gamma	496.2192k internal	0.2322k external	0.2322temperature offset calibration	0.9969default loss term (dB/km)	0.3790temperature slope calibration	1.0000multiplexer offset coefficient	1.0000multiplexer slope coefficient	1.0000fibre end	0.00T internal ref (°C)	31.37T ext. ref 1 (°C)	4.57T ext. ref 2 (°C)	25.80length (m)	temperature (°C)	Stokes	anti-Stokes-747.200	21.594	-0.074	-0.061
-746.185	-107.525	-0.159	-0.035
-745.171	800.000	-0.050	0.204
-744.156	800.000	-0.058	-0.181
-743.142	193.921	-0.119	0.183
-742.127	800.000	0.045	0.166
-741.112	-130.215	0.388	0.053
-740.098	-200.000	-0.038	0.295
-739.083	-60.757	0.006	-0.002
-738.069	-200.000	-0.010	0.053
-737.054	800.000	-0.048	-0.199
-736.039	-84.838	0.141	-0.045
-735.025	-131.716	0.418	0.055
-734.010	127.470	0.261	-0.335
-732.996	-200.000	-0.037	-0.609
-731.981	-73.860	0.243	0.089
-730.966	800.000	-0.100	-0.336
-729.952	-30.954	-0.232	-0.132
-728.937	-77.225	-0.213	-0.075
-727.923	146.577	-0.076	-0.103
-726.908	800.000	0.149	-0.419
-725.894	267.567	-0.109	0.193
-724.879	78.710	-0.049	-0.053
-723.864	137.020	0.046	-0.060
-722.850	-29.728	-0.381	0.219
-721.835	800.000	-0.062	-0.176
-720.821	81.012	0.140	0.153
-719.806	-21.374	-0.405	-0.250
-718.791	800.000	0.105	-0.365
-717.777	414.230	0.072	-0.154
-716.762	600.035	0.198	-0.495
-715.748	743.984	0.172	-0.468
-714.733	-200.000	-0.009	0.069
-713.718	-138.885	0.287	-0.032
-712.704	-7.539	-0.191	-0.130
-711.689	-200.000	-0.063	0.366
-710.675	800.000	-0.052	-0.224
-709.660	-182.318	-0.226	-0.004
-708.645	-75.008	-0.119	-0.043
-707.631	-200.000	-0.009	0.189
-706.616	-98.941	0.078	0.020
-705.602	359.618	-0.121	-0.245
-704.587	-200.000	-0.026	-0.363
-703.572	706.735	0.058	-0.153
-702.558	-46.977	0.084	0.041
-701.543	800.000	0.026	0.079
-700.529	-83.660	0.041	0.013
-699.514	-143.556	0.228	0.022
-698.499	152.797	0.095	-0.131
-697.485	80.888	-0.177	0.193
-696.470	57.394	-0.036	-0.035
-695.456	134.558	-0.092	0.121
-694.441	34.256	0.137	-0.120
-693.426	-177.624	-0.046	-0.001
-692.412	-200.000	-0.036	-0.357
-691.397	299.798	0.062	-0.115
-690.383	-200.000	-0.006	-0.300
-689.368	-105.858	0.311	0.071
-688.354	34.595	0.119	0.104
-687.339	79.594	0.114	-0.124
-686.324	-162.561	0.194	-0.010
-685.310	66.591	-0.308	-0.315
-684.295	-4.447	0.163	-0.114
-683.281	800.000	0.131	0.383
-682.266	192.723	0.027	0.041
-681.251	161.193	-0.231	0.325
-680.237	221.267	-0.294	0.475
-679.222	-18.660	0.014	0.009
-678.208	800.000	0.077	0.236
-677.193	-200.000	-0.028	-0.147
-676.178	-74.259	0.190	-0.069
-675.164	-200.000	-0.015	-0.577
-674.149	697.540	0.015	-0.040
-673.135	-44.354	0.201	0.101
-672.120	-98.338	-0.172	-0.044
-671.105	127.518	0.283	-0.361
-670.091	263.035	0.031	-0.054
-669.076	254.081	0.104	0.179
-668.062	-200.000	-0.024	0.151
-667.047	87.962	0.078	-0.087
-666.032	70.856	-0.205	0.214
-665.018	-72.874	-0.179	-0.066
-664.003	287.022	-0.145	0.264
-662.989	372.785	0.062	0.127
-661.974	-47.503	0.232	-0.114
-660.959	-71.398	-0.016	0.006
-659.945	-82.644	0.099	-0.032
-658.930	768.095	-0.116	-0.317
-657.916	-14.407	0.235	-0.152
-656.901	-200.000	0.031	0.284
-655.886	143.081	-0.123	-0.164
-654.872	182.238	0.109	-0.162
-653.857	-200.000	-0.035	-0.183
-652.843	475.640	-0.167	-0.379
-651.828	-19.012	-0.322	0.201
-650.814	800.000	0.046	-0.135
-649.799	1.957	-0.222	0.161
-648.784	-59.771	0.380	-0.164
-647.770	298.039	-0.034	-0.063
-646.755	-33.540	0.262	0.146
-645.741	-200.000	0.004	0.186
-644.726	365.174	-0.052	-0.106
-643.711	800.000	0.065	-0.225
-642.697	-200.000	-0.011	0.170
-641.682	600.052	0.116	0.289
-640.668	-179.788	-0.202	-0.004
-639.653	-83.992	0.071	-0.023
-638.638	-167.820	0.178	-0.007
-637.624	-81.318	-0.306	0.101
-636.609	800.000	-0.108	-0.341
-635.595	105.631	0.077	0.092
-634.580	800.000	0.093	-0.298
-633.565	52.206	-0.223	-0.214
-632.551	-9.818	-0.071	0.048
-631.536	-29.294	-0.113	-0.065
-630.522	58.749	0.150	0.148
-629.507	130.808	-0.234	-0.302
-628.492	304.470	0.179	0.334
-627.478	70.710	-0.041	-0.043
-626.463	-56.072	0.125	0.056
-625.449	137.543	-0.163	-0.215
-624.434	-200.000	0.014	-0.158
-623.419	26.448	-0.121	-0.102
-622.405	-111.332	-0.172	-0.035
-621.390	-200.000	-0.026	0.136
-620.376	800.000	-0.038	0.127
-619.361	-124.154	-0.337	0.053
-618.346	-200.000	-0.006	-0.141
-617.332	-165.264	0.198	0.009
-616.317	7.152	-0.121	0.090
-615.303	13.934	0.029	-0.023
-614.288	18.862	-0.104	0.083
-613.273	-200.000	-0.013	-0.120
-612.259	-67.829	-0.041	0.016
-611.244	-200.000	-0.040	0.248
-610.230	-200.000	-0.025	0.259
-609.215	-133.157	0.161	0.020
-608.201	-200.000	-0.059	-0.402
-607.186	800.000	0.068	-0.225
-606.171	85.023	-0.155	-0.170
-605.157	195.259	0.192	-0.293
-604.142	304.487	0.097	0.181
-603.128	4.358	-0.177	-0.130
-602.113	-200.000	0.009	-0.213
-601.098	-53.360	-0.142	-0.065
-600.084	56.544	-0.130	-0.127
-599.069	800.000	-0.065	0.257
-598.055	33.290	0.239	0.208
-597.040	80.715	-0.233	0.253
-596.025	664.764	0.069	-0.180
-595.011	107.328	0.241	0.288
-593.996	92.278	-0.028	0.032
-592.982	800.000	0.027	-0.087
-591.967	-129.266	-0.153	-0.021
-590.952	-64.684	0.256	-0.104
-589.938	-200.000	0.056	-0.262
-588.923	-200.000	-0.024	0.151
-587.909	-121.286	-0.182	0.030
-586.894	775.873	0.072	-0.198
-585.879	-200.000	0.068	-0.409
-584.865	51.531	-0.125	0.119
-583.850	375.921	0.061	0.124
-582.836	-27.116	-0.158	0.092
-581.821	-83.265	-0.519	-0.167
-580.806	-200.000	0.029	0.285
-579.792	719.141	0.059	0.157
-578.777	-200.000	0.016	0.317
-577.763	-200.000	-0.013	-0.106
-576.748	60.325	0.222	-0.221
-575.733	800.000	-0.087	-0.300
-574.719	800.000	-0.101	0.298
-573.704	540.723	-0.106	-0.254
-572.690	800.000	0.034	0.145
-571.675	-44.938	0.127	-0.063
-570.661	-200.000	-0.011	-0.070
-569.646	-200.000	-0.009	-0.081
-568.631	20.395	0.201	-0.163
-567.617	-110.250	0.087	-0.018
-566.602	-200.000	0.000	-0.222
-565.588	38.207	-0.194	0.174
-564.573	-200.000	-0.024	-0.263
-563.558	-105.528	-0.256	0.058
-562.544	-113.299	-0.235	0.046
-561.529	-77.611	-0.343	0.119
-560.515	-200.000	-0.004	-0.450
-559.500	800.000	0.045	-0.129
-558.485	456.570	-0.039	-0.087
-557.471	800.000	0.115	-0.320
-556.456	29.421	0.161	-0.137
-555.442	72.364	0.293	-0.307
-554.427	325.542	-0.051	0.098
-553.412	237.812	-0.108	0.180
-552.398	625.768	-0.072	-0.181
-551.383	-25.243	0.153	0.091
-550.369	632.756	-0.066	0.167
-549.354	587.563	-0.138	0.340
-548.339	800.000	-0.050	-0.202
-547.325	-30.540	0.185	-0.105
-546.310	124.631	-0.187	-0.235
-545.296	-200.000	-0.018	0.245
-544.281	282.195	-0.063	0.113
-543.266	-91.252	0.214	-0.061
-542.252	278.430	-0.083	0.149
-541.237	800.000	0.056	0.199
-540.223	-100.762	0.195	-0.048
-539.208	176.469	0.039	-0.057
-538.193	-200.000	0.009	-0.156
-537.179	-118.298	-0.090	0.016
-536.164	-200.000	0.043	0.369
-535.150	50.937	-0.035	-0.034
-534.135	-180.798	-0.051	-0.001
-533.121	-200.000	-0.014	-0.171
-532.106	380.141	-0.018	-0.038
-531.091	800.000	-0.050	-0.152
-530.077	-27.065	0.211	0.123
-529.062	2.307	-0.073	0.053
-528.048	-81.455	0.363	0.120
-527.033	-200.000	0.012	0.206
-526.018	657.150	0.051	-0.131
-525.004	-57.841	-0.262	-0.115
-523.989	-200.000	0.020	-0.606
-522.975	-200.000	0.011	-0.251
-521.960	-99.764	0.393	0.098
-520.945	750.577	0.108	-0.292
-519.931	-73.831	-0.259	-0.094
-518.916	-200.000	-0.064	0.281
-517.902	535.113	-0.014	0.033
-516.887	169.807	0.266	-0.381
-515.872	-27.674	-0.179	-0.104
-514.858	-36.513	-0.211	-0.114
-513.843	-134.771	-0.048	-0.006
-512.829	-4.859	-0.028	0.019
-511.814	-79.690	-0.076	-0.026
-510.799	-200.000	-0.054	-0.248
-509.785	21.531	-0.100	-0.082
-508.770	-161.254	-0.201	-0.010
-507.756	349.042	0.047	-0.092
-506.741	93.889	0.160	0.181
-505.726	-200.000	-0.032	0.352
-504.712	800.000	-0.121	-0.350
-503.697	-143.091	-0.017	-0.002
-502.683	368.255	0.069	0.139
-501.668	-200.000	-0.016	-0.123
-500.653	-200.000	0.028	0.134
-499.639	-2.703	-0.215	-0.150
-498.624	800.000	0.182	-0.542
-497.610	406.371	-0.096	-0.203
-496.595	55.915	0.130	0.126
-495.581	-200.000	0.051	0.295
-494.566	295.575	0.108	-0.198
-493.551	800.000	-0.058	-0.191
-492.537	800.000	0.074	-0.207
-491.522	1.475	-0.067	-0.048
-490.508	-168.786	0.198	0.007
-489.493	87.348	0.033	0.036
-488.478	144.939	0.080	0.107
-487.464	-200.000	-0.040	-0.185
-486.449	-9.928	-0.051	-0.034
-485.435	60.139	-0.114	-0.113
-484.420	-1.539	-0.341	0.241
-483.405	388.747	-0.189	0.391
-482.391	265.180	-0.176	0.307
-481.376	12.869	0.325	-0.251
-480.362	-116.629	-0.167	0.031
-479.347	800.000	-0.090	0.271
-478.332	598.442	0.136	0.337
-477.318	-4.450	-0.168	0.116
-476.303	212.106	-0.276	0.435
-475.289	88.927	0.156	-0.174
-474.274	-125.361	-0.361	0.055
-473.259	245.936	-0.097	0.164
-472.245	-200.000	-0.002	-0.187
-471.230	-200.000	0.031	0.391
-470.216	15.110	-0.103	-0.080
-469.201	637.281	0.038	-0.097
-468.186	500.014	-0.077	-0.178
-467.172	800.000	-0.041	-0.152
-466.157	-58.383	-0.262	-0.114
-465.143	-200.000	0.005	-0.021
-464.128	416.570	0.089	0.190
-463.113	-200.000	0.000	-0.280
-462.099	20.802	-0.202	0.164
-461.084	22.374	0.208	0.170
-460.070	-200.000	0.063	0.371
-459.055	-55.657	-0.104	0.047
-458.040	105.337	-0.125	-0.147
-457.026	-81.632	0.144	-0.047
-456.011	14.785	0.320	0.250
-454.997	-101.119	0.091	0.022
-453.982	58.267	0.321	0.314
-452.968	-200.000	-0.001	0.161
-451.953	61.754	0.244	0.242
-450.938	-200.000	0.027	-0.128
-449.924	-200.000	0.009	-0.190
-448.909	-107.907	-0.313	0.068
-447.895	-78.542	0.255	-0.087
-446.880	-67.794	-0.166	-0.065
-445.865	-49.583	0.013	-0.006
-444.851	-33.045	0.305	0.169
-443.836	91.601	-0.167	-0.188
-442.822	368.863	-0.035	-0.071
-441.807	-200.000	0.011	0.290
-440.792	-40.350	0.322	-0.167
-439.778	800.000	-0.025	-0.102
-438.763	69.007	-0.261	0.268
-437.749	-104.312	-0.184	0.042
-436.734	5.247	-0.337	-0.248
-435.719	-67.408	-0.157	0.062
-434.705	-16.322	-0.225	-0.143
-433.690	-200.000	-0.005	0.457
-432.676	-80.009	-0.043	0.014
-431.661	-98.899	-0.118	0.030
-430.646	226.479	0.212	-0.343
-429.632	-29.931	0.315	-0.179
-428.617	309.949	0.172	-0.322
-427.603	-200.000	0.016	-0.127
-426.588	-152.671	-0.065	-0.005
-425.573	800.000	0.042	0.132
-424.559	114.950	0.095	-0.115
-423.544	800.000	0.059	0.177
-422.530	-127.021	-0.247	0.036
-421.515	-200.000	-0.035	0.189
-420.500	-20.024	0.269	0.166
-419.486	351.646	-0.064	0.127
-418.471	-121.131	0.214	-0.036
-417.457	-167.663	-0.152	-0.006
-416.442	64.993	0.194	-0.196
-415.428	-19.915	-0.250	0.154
-414.413	-128.293	-0.324	-0.046
-413.398	-200.000	0.100	0.441
-412.384	31.432	0.208	-0.178
-411.369	-136.755	-0.322	-0.037
-410.355	-108.245	-0.241	-0.052
-409.340	299.415	0.101	0.186
-408.325	13.009	-0.227	0.175
-407.311	-0.544	-0.223	-0.158
-406.296	219.699	-0.146	0.233
-405.282	-121.929	0.431	-0.071
-404.267	-100.457	0.166	0.041
-403.252	61.040	0.196	-0.194
-402.238	88.160	-0.144	-0.160
-401.223	-64.191	-0.355	0.144
-400.209	31.197	0.306	-0.262
-399.194	69.415	-0.096	0.099
-398.179	106.289	-0.244	-0.289
-397.165	-172.194	0.063	-0.002
-396.150	371.090	0.120	0.243
-395.136	-52.685	0.015	-0.007
-394.121	21.313	0.206	-0.167
-393.106	13.776	-0.201	0.156
-392.092	180.634	-0.127	0.186
-391.077	190.196	-0.092	0.138
-390.063	54.367	0.170	0.163
-389.048	547.215	-0.084	0.200
-388.033	800.000	0.066	-0.188
-387.019	211.475	-0.218	-0.341
-386.004	800.000	0.139	-0.399
-384.990	-5.011	-0.198	0.136
-383.975	-200.000	0.075	-0.436
-382.960	-32.319	0.352	-0.196
-381.946	71.349	0.091	0.094
-380.931	-55.342	0.075	-0.033
-379.917	-110.800	0.221	0.045
-378.902	-124.249	0.175	0.027
-377.888	-30.643	-0.097	0.055
-376.873	121.970	-0.032	0.039
-375.858	-194.898	-0.347	-0.003
-374.844	85.230	-0.090	-0.098
-373.829	206.535	0.138	-0.213
-372.815	-93.018	0.164	-0.045
-371.800	126.591	-0.186	0.234
-370.785	-104.760	-0.318	0.073
-369.771	-145.566	0.321	-0.029
-368.756	-200.000	0.014	-0.201
-367.742	-137.592	-0.116	0.013
-366.727	-53.073	0.149	-0.068
-365.712	-99.157	-0.380	0.096
-364.698	-200.000	-0.043	0.220
-363.683	473.993	-0.140	-0.315
-362.669	45.758	-0.203	0.186
-361.654	69.972	0.097	-0.100
-360.639	-60.201	-0.182	0.077
-359.625	223.633	0.120	-0.193
-358.610	-44.234	0.096	-0.048
-357.596	501.483	0.105	-0.241
-356.581	-200.000	0.010	0.054
-355.566	-151.245	-0.245	-0.018
-354.552	-71.540	-0.235	0.087
-353.537	-113.614	0.033	0.006
-352.523	-84.448	0.462	-0.145
-351.508	800.000	-0.054	0.163
-350.493	139.045	-0.070	0.091
-349.479	737.777	-0.068	0.181
-348.464	800.000	0.096	-0.380
-347.450	-138.715	-0.157	-0.017
-346.435	321.495	0.054	-0.102
-345.420	25.146	0.073	0.061
-344.406	-144.387	0.086	0.008
-343.391	-142.124	-0.123	0.012
-342.377	390.823	0.078	0.161
-341.362	170.067	0.305	0.434
-340.348	623.425	0.029	-0.072
-339.333	-116.976	0.222	0.040
-338.318	54.931	-0.093	-0.089
-337.304	244.126	-0.031	-0.052
-336.289	-66.961	0.417	-0.164
-335.275	60.946	0.223	0.220
-334.260	18.170	0.086	-0.068
-333.245	84.998	0.062	0.068
-332.231	-102.079	0.055	0.013
-331.216	-80.800	-0.255	0.084
-330.202	138.261	-0.172	-0.224
-329.187	-144.617	-0.163	0.015
-328.172	107.678	0.056	0.066
-327.158	-119.767	-0.059	-0.010
-326.143	-140.462	0.111	0.011
-325.129	-87.056	-0.135	-0.041
-324.114	800.000	0.117	-0.348
-323.099	800.000	-0.010	0.042
-322.085	-5.163	-0.262	0.179
-321.070	-200.000	-0.034	0.219
-320.056	-200.000	-0.004	-0.080
-319.041	-55.657	-0.215	-0.096
-318.026	-172.039	-0.228	-0.007
-317.012	-4.959	-0.139	0.095
-315.997	-65.892	0.359	-0.143
-314.983	-105.846	-0.368	-0.082
-313.968	362.860	-0.046	-0.092
-312.953	-15.668	0.249	0.157
-311.939	78.392	-0.082	0.087
-310.924	-25.167	-0.269	-0.158
-309.910	-200.000	0.019	0.099
-308.895	95.169	-0.081	0.091
-307.880	-107.540	0.380	-0.083
-306.866	-100.957	0.206	0.050
-305.851	-57.327	0.187	0.081
-304.837	23.411	-0.194	-0.158
-303.822	-9.813	-0.077	0.051
-302.807	479.198	0.023	-0.052
-301.793	-133.231	0.094	0.012
-300.778	-142.601	0.227	-0.022
-299.764	796.473	-0.008	-0.022
-298.749	70.136	0.016	-0.016
-297.735	192.465	-0.184	0.275
-296.720	57.265	0.278	-0.269
-295.705	693.025	-0.067	0.173
-294.691	800.000	0.015	-0.049
-293.676	-96.420	0.383	0.100
-292.662	-200.000	-0.001	-0.110
-291.647	140.609	-0.184	0.241
-290.632	-120.148	-0.361	-0.061
-289.618	-82.179	-0.197	0.064
-288.603	42.285	0.333	0.300
-287.589	-22.854	0.409	0.245
-286.574	205.817	-0.226	0.349
-285.559	760.250	0.116	-0.311
-284.545	-200.000	0.043	-0.233
-283.530	182.540	-0.058	0.085
-282.516	-4.340	-0.231	-0.158
-281.501	-135.992	0.102	0.012
-280.486	73.057	-0.106	0.110
-279.472	157.768	-0.118	0.163
-278.457	-200.000	0.036	0.356
-277.443	-59.944	0.412	0.175
-276.428	217.852	-0.058	0.092
-275.413	-22.962	-0.220	0.131
-274.399	797.060	0.033	-0.091
-273.384	42.884	0.080	0.073
-272.370	800.000	-0.010	0.037
-271.355	-123.186	0.338	-0.054
-270.340	-200.000	0.019	0.109
-269.326	-68.974	-0.381	0.146
-268.311	-38.941	0.102	-0.053
-267.297	58.124	-0.079	0.076
-266.282	210.907	0.185	0.288
-265.267	214.251	-0.164	-0.257
-264.253	229.482	0.078	-0.126
-263.238	-200.000	0.017	0.240
-262.224	122.602	-0.203	0.252
-261.209	-32.339	-0.166	0.092
-260.195	-200.000	0.028	0.146
-259.180	-52.068	-0.150	-0.069
-258.165	-33.167	-0.103	0.057
-257.151	77.788	0.222	0.235
-256.136	53.772	0.090	0.086
-255.122	58.727	-0.080	0.077
-254.107	75.636	0.122	-0.128
-253.092	-134.209	-0.274	0.033
-252.078	200.890	0.055	0.083
-251.063	-200.000	-0.005	-0.287
-250.049	-96.906	0.033	0.008
-249.034	190.154	-0.238	-0.354
-248.019	-116.627	-0.217	0.040
-247.005	46.780	-0.034	-0.031
-245.990	-20.769	0.096	0.058
-244.976	800.000	-0.078	0.265
-243.961	-200.000	-0.063	0.353
-242.946	89.658	0.083	0.092
-241.932	353.650	0.118	0.233
-240.917	-200.000	0.041	-0.198
-239.903	39.346	0.074	-0.066
-238.888	800.000	0.049	0.150
-237.873	-13.521	0.397	0.255
-236.859	-117.553	-0.114	0.020
-235.844	131.284	-0.055	0.070
-234.830	297.873	-0.040	-0.073
-233.815	233.084	-0.045	0.074
-232.800	-81.252	0.237	0.078
-231.786	-200.000	-0.015	-0.114
-230.771	-71.869	0.235	0.087
-229.757	739.317	-0.033	0.089
-228.742	-164.020	0.218	-0.010
-227.727	-33.249	-0.339	0.186
-226.713	-200.000	0.048	0.319
-225.698	-115.506	-0.330	0.062
-224.684	-10.879	0.111	0.073
-223.669	266.081	-0.152	-0.262
-222.655	434.496	-0.111	0.239
-221.640	-4.536	0.070	0.048
-220.625	43.893	-0.168	-0.153
-219.611	800.000	-0.084	0.260
-218.596	-200.000	-0.012	-0.186
-217.582	62.595	-0.268	-0.265
-216.567	-200.000	0.027	-0.125
-215.552	-0.580	-0.168	0.118
-214.538	108.133	0.209	-0.247
-213.523	637.942	-0.089	0.223
-212.509	-1.642	-0.239	0.167
-211.494	229.157	0.079	-0.128
-210.479	-179.313	-0.166	-0.004
-209.465	13.162	0.055	0.042
-208.450	-20.657	0.213	0.129
-207.436	-200.000	0.005	0.075
-206.421	800.000	-0.054	-0.150
-205.406	-200.000	0.014	0.114
-204.392	-57.847	-0.278	-0.120
-203.377	-70.521	0.282	-0.106
-202.363	-179.067	-0.298	-0.007
-201.348	-179.270	-0.068	0.001
-200.333	-75.736	-0.175	-0.061
-199.319	800.000	-0.015	0.057
-198.304	-200.000	0.062	-0.366
-197.290	-92.993	0.396	-0.109
-196.275	-158.451	0.123	0.007
-195.260	-122.533	0.108	0.017
-194.246	-58.910	0.181	0.077
-193.231	-160.838	0.173	0.009
-192.217	-50.143	0.428	-0.200
-191.202	-200.000	0.011	-0.065
-190.187	104.750	0.283	0.330
-189.173	-200.000	-0.002	0.177
-188.158	-200.000	0.018	-0.195
-187.144	-124.846	0.272	0.042
-186.129	269.969	-0.099	-0.172
-185.114	5.691	-0.224	0.164
-184.100	330.007	0.146	-0.278
-183.085	800.000	0.037	-0.137
-182.071	-111.704	-0.123	-0.025
-181.056	-170.006	0.202	0.007
-180.042	58.191	-0.184	0.178
-179.027	179.979	0.088	0.127
-178.012	-154.916	0.224	-0.015
-176.998	180.542	0.131	0.190
-175.983	132.848	0.026	0.033
-174.969	-134.317	-0.084	0.010
-173.954	800.000	0.026	0.077
-172.939	255.737	0.029	-0.050
-171.925	340.077	-0.085	0.164
-170.910	4.970	0.359	0.261
-169.896	581.434	0.057	-0.138
-168.881	243.469	0.084	0.140
-167.866	508.023	0.114	-0.262
-166.852	-79.174	0.100	0.034
-165.837	342.660	-0.117	0.226
-164.823	151.630	0.282	-0.380
-163.808	409.208	-0.096	0.202
-162.793	68.631	0.098	0.100
-161.779	-200.000	-0.014	-0.349
-160.764	800.000	0.067	-0.281
-159.750	800.000	-0.068	-0.228
-158.735	338.095	0.231	-0.443
-157.720	-87.435	0.250	-0.075
-156.706	316.039	0.095	-0.178
-155.691	-147.016	0.180	0.015
-154.677	800.000	0.126	0.352
-153.662	43.519	0.146	0.132
-152.647	-56.779	0.250	0.109
-151.633	18.286	-0.113	-0.089
-150.618	-42.356	0.150	-0.076
-149.604	-200.000	-0.047	-0.318
-148.589	800.000	0.044	-0.180
-147.574	219.748	-0.103	-0.163
-146.560	-35.767	0.149	-0.080
-145.545	116.893	-0.072	-0.087
-144.531	42.432	-0.156	-0.140
-143.516	-129.670	0.249	0.034
-142.502	-200.000	0.066	0.425
-141.487	-200.000	0.006	0.224
-140.472	196.532	0.192	-0.289
-139.458	-11.986	-0.230	-0.149
-138.443	685.834	-0.102	-0.264
-137.429	-53.190	-0.245	-0.111
-136.414	564.536	0.019	0.045
-135.399	-54.436	0.302	-0.135
-134.385	-29.613	0.299	-0.168
-133.370	30.396	0.129	0.109
-132.356	104.970	0.072	-0.084
-131.341	547.160	-0.150	-0.355
-130.326	90.019	-0.258	0.284
-129.312	800.000	-0.034	0.104
-128.297	-200.000	-0.071	0.346
-127.283	-71.937	-0.122	0.045
-126.268	-113.997	0.295	-0.056
-125.253	-111.833	0.260	-0.052
-124.239	-14.659	0.101	-0.064
-123.224	5.499	0.318	-0.232
-122.210	0.715	0.109	0.077
-121.195	-200.000	-0.031	0.240
-120.180	-53.495	0.215	0.097
-119.166	215.266	-0.181	0.283
-118.151	210.516	-0.216	0.335
-117.137	173.833	-0.043	-0.061
-116.122	13.380	0.137	0.105
-115.107	-118.601	-0.149	0.026
-114.093	-15.441	0.056	-0.035
-113.078	800.000	-0.030	-0.094
-112.064	235.048	-0.243	-0.396
-111.049	-151.292	-0.158	-0.012
-110.034	-103.961	0.220	0.051
-109.020	389.752	0.006	0.011
-108.005	800.000	0.045	-0.146
-106.991	-200.000	-0.039	0.341
-105.976	144.016	-0.063	-0.083
-104.962	281.455	0.163	0.287
-103.947	-200.000	0.003	0.190
-102.932	18.235	-0.089	0.070
-101.918	800.000	0.028	0.077
-100.903	-200.000	-0.014	0.208
-99.889	-34.359	0.185	0.100
-98.874	-28.419	-0.247	-0.141
-97.859	70.460	0.037	-0.038
-96.845	-130.347	-0.291	-0.039
-95.830	16.851	-0.287	0.224
-94.816	-200.000	-0.001	-0.141
-93.801	-200.000	-0.018	0.345
-92.786	-200.000	-0.026	-0.185
-91.772	-61.276	0.408	0.169
-90.757	194.647	-0.067	-0.100
-89.743	800.000	-0.037	0.127
-88.728	109.879	0.276	-0.326
-87.713	-200.000	0.022	0.098
-86.699	7.833	0.040	-0.029
-85.684	-104.991	0.358	-0.081
-84.670	211.211	0.059	0.091
-83.655	-200.000	-0.058	0.298
-82.640	238.385	0.149	-0.244
-81.626	213.213	0.202	0.315
-80.611	732.621	-0.012	-0.031
-79.597	18.090	-0.098	-0.077
-78.582	800.000	-0.051	-0.201
-77.567	59.017	0.123	-0.119
-76.553	-94.423	-0.152	-0.041
-75.538	541.674	0.060	0.140
-74.524	-179.609	-0.392	-0.008
-73.509	-53.083	-0.074	-0.034
-72.494	800.000	-0.098	-0.279
-71.480	116.321	0.105	-0.126
-70.465	67.662	-0.252	-0.253
-69.451	-20.169	0.181	-0.110
-68.436	4.655	-0.129	0.093
-67.422	-145.124	0.090	0.008
-66.407	-12.855	0.048	-0.031
-65.392	-73.055	-0.009	-0.003
-64.378	-7.226	-0.084	-0.056
-63.363	-138.528	0.428	0.046
-62.349	23.271	0.343	0.277
-61.334	49.356	-1.074	-0.994
-60.319	800.000	0.195	0.678
-59.305	-200.000	-0.039	-1.143
-58.290	574.554	0.440	1.056
-57.276	406.581	0.733	1.521
-56.261	-200.000	98.941	604.471
-55.246	606.644	1395.870	3421.798
-54.232	194.239	2578.721	3842.935
-53.217	117.895	2161.961	2618.611
-52.203	42.249	1699.609	1518.374
-51.188	34.621	1510.528	1297.796
-50.173	32.083	1483.587	1257.626
-49.159	51.971	1534.336	1436.580
-48.144	53.491	1552.727	1464.102
-47.130	34.760	1511.108	1299.028
-46.115	31.746	1495.572	1265.307
-45.100	31.557	1492.495	1261.375
-44.086	31.400	1491.221	1259.192
-43.071	31.435	1488.752	1257.293
-42.057	31.369	1487.003	1255.321
-41.042	31.291	1485.961	1253.874
-40.027	31.333	1484.331	1252.727
-39.013	31.300	1482.918	1251.267
-37.998	31.264	1481.616	1249.873
-36.984	31.303	1480.206	1248.894
-35.969	31.401	1478.783	1248.303
-34.954	31.274	1477.874	1246.640
-33.940	31.356	1475.881	1245.450
-32.925	31.314	1475.013	1244.388
-31.911	31.350	1473.773	1243.536
-30.896	31.428	1472.538	1242.963
-29.881	31.534	1470.843	1242.185
-28.867	31.494	1469.292	1240.561
-27.852	31.468	1468.080	1239.315
-26.838	31.482	1466.728	1238.221
-25.823	31.433	1465.873	1237.126
-24.809	31.455	1463.569	1235.279
-23.794	31.471	1461.923	1233.942
-22.779	31.476	1461.009	1233.156
-21.765	31.422	1460.131	1232.008
-20.750	31.426	1458.904	1230.951
-19.736	31.360	1457.967	1229.676
-18.721	31.346	1457.158	1228.853
-17.706	31.359	1455.523	1227.515
-16.692	31.400	1454.422	1226.806
-15.677	31.487	1452.947	1226.079
-14.663	31.344	1452.278	1224.534
-13.648	31.445	1451.089	1224.145
-12.633	31.393	1450.595	1223.338
-11.619	31.347	1449.554	1222.107
-10.604	31.245	1449.097	1221.009
-9.590	31.230	1448.219	1220.121
-8.575	31.348	1446.879	1219.714
-7.560	31.279	1446.502	1218.900
-6.546	31.396	1445.522	1218.784
-5.531	31.366	1444.377	1217.577
-4.517	31.261	1443.763	1216.330
-3.502	31.246	1442.580	1215.183
-2.487	31.230	1441.958	1214.510
-1.473	31.273	1440.717	1213.697
-0.458	31.288	1439.397	1212.633
0.556	29.902	1429.879	1201.183
1.571	26.951	1404.811	1161.173
2.586	23.452	1346.036	1091.005
3.600	21.714	1266.225	1016.150
4.615	20.259	1221.340	971.901
5.629	17.663	1165.759	913.691
6.644	10.779	1083.821	814.972
7.659	5.333	1045.575	759.727
8.673	4.583	1040.302	752.201
9.688	4.694	1036.994	750.279
10.702	4.520	1035.740	748.467
11.717	4.494	1033.949	746.980
12.731	6.513	1034.924	757.330
13.746	13.109	1044.227	795.955
14.761	18.013	1050.842	824.658
15.775	18.284	1050.003	825.231
16.790	17.436	1047.590	819.183
17.804	16.254	1045.675	811.931
18.819	15.341	1043.450	805.746
19.834	14.966	1042.272	802.966
20.848	14.635	1041.044	800.359
21.863	14.410	1040.321	798.657
22.877	14.275	1039.597	797.383
23.892	14.037	1038.851	795.598
24.907	13.967	1038.200	794.696
25.921	14.039	1037.227	794.225
26.936	14.028	1036.537	793.575
27.950	14.123	1035.274	792.989
28.965	14.016	1034.411	791.752
29.980	14.121	1033.498	791.482
30.994	14.237	1032.161	790.936
32.009	14.285	1031.361	790.484
33.023	14.399	1030.678	790.431
34.038	14.273	1030.184	789.384
35.053	14.310	1029.302	788.816
36.067	14.130	1028.010	786.904
37.082	14.147	1026.983	786.129
38.096	14.196	1026.352	785.805
39.111	14.185	1025.811	785.269
40.126	14.301	1024.815	784.986
41.140	14.197	1023.565	783.467
42.155	14.030	1022.733	781.976
43.169	13.955	1021.669	780.741
44.184	13.877	1020.970	779.774
45.199	13.884	1019.373	778.518
46.213	13.912	1018.477	777.892
47.228	13.935	1017.920	777.508
48.242	14.086	1016.880	777.350
49.257	14.122	1015.713	776.558
50.271	14.094	1014.848	775.695
51.286	14.108	1014.171	775.175
52.301	14.028	1013.675	774.354
53.315	14.094	1012.465	773.668
54.330	14.075	1011.906	773.087
55.344	13.978	1010.871	771.775
56.359	14.080	1009.583	771.199
57.374	13.854	1009.461	769.989
58.388	13.962	1008.151	769.421
59.403	13.920	1007.576	768.721
60.417	13.842	1007.033	767.877
61.432	13.940	1006.165	767.598
62.447	13.834	1005.475	766.515
63.461	13.745	1004.614	765.381
64.476	13.823	1003.374	764.728
65.490	13.845	1002.661	764.219
66.505	13.849	1001.873	763.566
67.520	13.793	1001.338	762.838
68.534	13.871	1000.177	762.242
69.549	13.873	999.219	761.454
70.563	13.959	998.793	761.455
71.578	13.760	998.646	760.363
72.593	13.789	997.162	759.302
73.607	13.672	996.465	758.165
74.622	13.769	995.491	757.801
75.636	13.724	994.533	756.802
76.651	13.666	994.323	756.309
77.666	13.839	993.174	756.154
78.680	13.754	992.233	754.984
79.695	13.655	992.135	754.395
80.709	13.780	991.548	754.451
81.724	13.781	990.735	753.767
82.739	13.994	989.602	753.809
83.753	13.912	989.066	752.959
84.768	14.053	988.292	752.942
85.782	14.081	987.940	752.733
86.797	14.249	987.236	752.889
87.812	14.205	986.152	751.799
88.826	14.094	985.643	750.843
89.841	14.055	984.699	749.882
90.855	14.211	983.939	749.939
91.870	14.194	983.246	749.271
92.884	14.163	982.810	748.732
93.899	14.235	981.345	747.870
94.914	14.338	980.482	747.608
95.928	14.182	980.276	746.690
96.943	14.328	979.203	746.457
97.957	14.380	978.315	745.946
98.972	14.261	977.653	744.843
99.987	14.279	977.023	744.378
101.001	14.307	976.356	743.930
102.016	14.177	975.810	742.871
103.030	14.204	975.073	742.360
104.045	14.205	974.414	741.798
105.060	14.293	972.905	740.977
106.074	14.149	972.101	739.660
107.089	14.030	970.871	738.127
108.103	13.871	970.359	736.969
109.118	13.909	969.552	736.458
110.133	13.928	968.272	735.505
111.147	13.891	967.752	734.880
112.162	13.934	966.734	734.234
113.176	13.947	966.320	733.914
114.191	14.020	964.637	732.891
115.206	13.962	964.366	732.362
116.220	14.131	963.540	732.418
117.235	13.966	962.854	731.106
118.249	14.019	961.881	730.532
119.264	14.090	960.880	730.018
120.279	13.928	960.064	728.625
121.293	14.110	959.038	728.578
122.308	13.796	959.253	727.302
123.322	14.007	957.888	727.126
124.337	13.826	957.326	725.843
125.352	13.823	955.981	724.745
126.366	13.843	954.617	723.736
127.381	13.696	953.902	722.488
128.395	13.781	952.715	721.896
129.410	14.034	951.692	722.156
130.424	13.819	951.344	720.895
131.439	13.974	949.938	720.438
132.454	13.924	949.651	719.941
133.468	14.069	948.682	719.772
134.483	14.075	948.207	719.369
135.497	14.072	947.207	718.534
136.512	13.917	946.636	717.369
137.527	13.936	946.219	717.073
138.541	14.040	944.935	716.486
139.556	14.201	944.113	716.489
140.570	14.169	943.545	715.859
141.585	14.075	943.040	715.006
142.600	14.180	942.483	714.972
143.614	14.286	941.203	714.396
144.629	14.249	940.635	713.741
145.643	14.320	939.860	713.392
146.658	14.182	939.298	712.312
147.673	14.219	938.067	711.474
148.687	14.087	937.636	710.519
149.702	14.153	936.231	709.677
150.716	14.106	935.561	708.903
151.731	14.112	934.764	708.263
152.746	14.089	933.953	707.487
153.760	14.018	933.301	706.631
154.775	14.035	932.810	706.267
155.789	14.196	932.067	706.326
156.804	14.296	930.967	705.855
157.819	14.273	930.259	705.156
158.833	14.360	929.988	705.258
159.848	14.319	929.362	704.548
160.862	14.312	928.889	704.098
161.877	14.351	927.832	703.397
162.892	14.221	926.896	702.078
163.906	14.062	926.379	700.952
164.921	14.083	925.212	700.098
165.935	14.143	924.359	699.642
166.950	14.083	923.397	698.602
167.964	14.237	922.410	698.437
168.979	14.279	921.100	697.561
169.994	14.307	920.586	697.228
171.008	14.174	919.745	695.972
172.023	14.315	918.719	695.724
173.037	14.311	918.097	695.176
174.052	14.476	917.319	695.212
175.067	14.267	916.984	694.025
176.081	14.268	915.942	693.180
177.096	14.143	915.314	692.122
178.110	14.217	913.949	691.335
179.125	14.262	913.108	690.826
180.140	14.325	912.982	690.929
181.154	14.145	912.403	689.684
182.169	14.320	911.672	689.795
183.183	14.402	910.937	689.517
184.198	14.527	910.138	689.368
185.213	14.530	909.617	688.924
186.227	14.510	908.624	688.029
187.242	14.434	908.717	687.725
188.256	14.538	907.839	687.431
189.271	14.740	906.950	687.529
190.286	14.677	906.268	686.690
191.300	14.635	905.206	685.654
192.315	14.261	904.515	683.534
193.329	14.088	904.101	682.449
194.344	14.201	903.577	682.456
195.359	14.194	902.990	681.924
196.373	14.352	902.762	682.339
197.388	14.431	902.200	682.176
198.402	14.601	901.563	682.330
199.417	14.559	901.505	682.053
200.432	14.677	900.682	681.852
201.446	14.818	900.335	682.107
202.461	15.037	899.648	682.419
203.475	14.823	899.384	681.285
204.490	14.847	898.797	680.876
205.504	14.788	897.677	679.729
206.519	14.744	896.866	678.878
207.534	14.705	896.259	678.197
208.548	14.708	895.492	677.569
209.563	14.814	894.695	677.338
210.577	14.649	894.502	676.464
211.592	14.813	893.443	676.266
212.607	14.993	893.002	676.599
213.621	14.883	892.284	675.550
214.636	14.926	891.757	675.265
215.650	14.894	890.922	674.444
216.665	14.988	890.497	674.444
217.680	15.056	889.962	674.251
218.694	14.985	889.230	673.353
219.709	15.072	889.033	673.491
220.723	14.998	888.670	672.859
221.738	15.088	887.700	672.427
222.753	14.996	887.009	671.475
223.767	14.933	886.204	670.556
224.782	15.059	885.309	670.323
225.796	15.179	884.370	670.031
226.811	15.149	884.078	669.634
227.826	15.181	883.090	668.950
228.840	14.969	882.613	667.687
229.855	14.859	882.520	667.119
230.869	14.897	881.564	666.487
231.884	14.949	880.741	666.015
232.899	15.064	879.955	665.817
233.913	15.021	879.433	665.193
234.928	14.950	878.600	664.222
235.942	14.995	877.938	663.842
236.957	14.882	877.177	662.757
237.972	14.902	876.579	662.329
238.986	15.103	875.734	662.424
240.001	15.024	875.235	661.677
241.015	14.868	875.115	660.913
242.030	15.047	874.152	660.834
243.045	15.075	873.801	660.618
244.059	14.972	873.155	659.665
245.074	15.302	872.107	660.116
246.088	15.209	871.850	659.495
247.103	15.333	870.860	659.175
248.117	15.365	870.391	658.890
249.132	15.296	870.201	658.416
250.147	15.498	869.757	658.812
251.161	15.571	868.717	658.252
252.176	15.639	867.858	657.810
253.190	15.604	867.318	657.207
254.205	15.610	867.151	657.047
255.220	15.647	866.452	656.601
256.234	15.630	865.498	655.754
257.249	15.739	864.892	655.663
258.263	15.720	864.226	655.028
259.278	15.735	863.655	654.593
260.293	15.713	863.454	654.297
261.307	15.700	862.918	653.784
262.322	15.833	862.376	653.832
263.336	15.865	861.871	653.515
264.351	15.798	861.198	652.687
265.366	15.948	860.420	652.619
266.380	15.814	859.889	651.640
267.395	15.860	859.256	651.282
268.409	15.764	858.573	650.337
269.424	15.823	857.436	649.643
270.439	15.762	856.939	648.977
271.453	15.790	856.320	648.556
272.468	15.724	855.783	647.839
273.482	15.766	854.978	647.332
274.497	15.734	854.645	646.903
275.512	15.588	854.093	645.864
276.526	15.830	852.848	645.797
277.541	15.861	852.279	645.425
278.555	15.802	851.937	644.884
279.570	15.778	851.596	644.477
280.585	15.907	851.166	644.588
281.599	15.925	850.656	644.212
282.614	15.965	849.784	643.647
283.628	15.881	849.311	642.914
284.643	15.921	848.666	642.521
285.657	15.991	848.342	642.484
286.672	15.912	847.686	641.632
287.687	15.953	847.241	641.392
288.701	15.924	846.825	640.909
289.716	16.005	846.084	640.600
290.730	15.956	845.234	639.715
291.745	16.054	844.959	639.821
292.760	16.083	844.151	639.263
293.774	16.136	843.307	638.769
294.789	16.157	842.952	638.523
295.803	16.139	842.321	637.922
296.818	16.023	841.785	637.019
297.833	16.070	841.097	636.620
298.847	15.986	840.801	636.025
299.862	16.099	839.560	635.453
300.876	16.206	838.831	635.248
301.891	16.191	838.566	634.936
302.906	16.404	837.847	635.134
303.920	16.356	837.014	634.268
304.935	16.373	836.231	633.683
305.949	16.452	835.886	633.659
306.964	16.321	835.770	633.026
307.979	16.394	834.924	632.604
308.993	16.320	834.246	631.754
310.008	16.347	833.784	631.450
311.022	16.638	832.908	631.819
312.037	16.460	833.021	631.185
313.052	16.392	832.297	630.324
314.066	16.379	831.242	629.422
315.081	16.272	831.114	628.872
316.095	16.341	830.513	628.617
317.110	16.214	830.298	627.924
318.125	16.271	829.438	627.432
319.139	16.350	828.728	627.132
320.154	16.377	828.819	627.245
321.168	16.306	827.911	626.241
322.183	16.331	827.677	626.100
323.197	16.455	826.795	625.838
324.212	16.381	826.194	625.053
325.227	16.479	825.412	624.770
326.241	16.431	825.179	624.359
327.256	16.595	824.851	624.661
328.270	16.409	824.340	623.533
329.285	16.406	823.620	622.924
330.300	16.352	822.931	622.148
331.314	16.385	822.354	621.777
332.329	16.322	821.998	621.223
333.343	16.689	821.371	622.040
334.358	16.495	820.952	620.957
335.373	16.375	820.703	620.274
336.387	16.523	820.046	620.265
337.402	16.771	818.550	619.987
338.416	16.711	818.481	619.657
339.431	16.807	817.770	619.416
340.446	16.918	817.557	619.606
341.460	16.783	817.041	618.666
342.475	16.978	816.421	618.853
343.489	16.905	815.806	618.068
344.504	16.971	815.179	617.779
345.519	17.034	814.782	617.650
346.533	16.970	814.713	617.313
347.548	16.940	814.016	616.619
348.562	16.921	813.367	616.005
349.577	16.860	813.215	615.616
350.592	16.796	812.290	614.628
351.606	16.781	811.828	614.168
352.621	16.806	811.618	614.045
353.635	16.755	811.058	613.385
354.650	16.755	810.709	613.066
355.665	16.915	810.052	613.094
356.679	16.891	809.808	612.766
357.694	16.967	808.984	612.365
358.708	16.971	808.563	612.007
359.723	16.981	808.073	611.618
360.738	16.907	807.262	610.681
361.752	16.968	807.623	611.120
362.767	16.969	806.850	610.486
363.781	16.955	806.563	610.164
364.796	17.137	805.967	610.313
365.810	17.287	805.391	610.359
366.825	17.368	805.042	610.334
367.840	17.413	804.824	610.277
368.854	17.208	804.362	609.138
369.869	17.248	803.630	608.671
370.883	17.224	803.436	608.384
371.898	17.382	802.265	608.007
372.913	17.320	802.022	607.549
373.927	17.305	801.444	607.004
374.942	17.377	800.913	606.806
375.956	17.376	800.192	606.202
376.971	17.278	799.750	605.463
377.986	17.436	799.640	605.891
379.000	17.316	798.912	604.857
380.015	17.592	798.090	605.162
381.029	17.654	797.315	604.742
382.044	17.443	797.608	604.162
383.059	17.574	796.544	603.765
384.073	17.478	796.089	603.030
385.088	17.494	795.797	602.809
386.102	17.451	794.980	601.985
387.117	17.532	794.018	601.491
388.132	17.387	793.889	600.827
389.146	17.297	793.621	600.255
390.161	17.460	793.076	600.361
391.175	17.493	792.867	600.270
392.190	17.574	792.698	600.373
393.205	17.510	791.802	599.417
394.219	17.413	791.790	599.011
395.234	17.522	791.328	598.991
396.248	17.429	790.602	598.063
397.263	17.399	790.311	597.684
398.278	17.357	789.695	597.017
399.292	17.532	789.088	597.121
400.307	17.282	788.968	596.099
401.321	17.432	788.218	596.008
402.336	17.383	788.168	595.743
403.350	17.591	787.714	596.077
404.365	17.554	787.415	595.667
405.380	17.708	786.425	595.405
406.394	17.809	785.977	595.366
407.409	17.684	786.059	594.937
408.423	17.725	785.409	594.535
409.438	17.885	785.012	594.742
410.453	17.851	784.610	594.267
411.467	17.823	784.209	593.811
412.482	17.957	783.650	593.802
413.496	17.805	783.163	592.852
414.511	18.004	782.850	593.253
415.526	18.052	782.597	593.177
416.540	17.895	782.130	592.225
417.555	18.071	781.799	592.531
418.569	18.033	781.599	592.196
419.584	17.872	781.247	591.319
420.599	18.043	780.096	590.987
421.613	156.439	1369.120	1795.792
422.628	135.000	1454.949	1795.863
