DTS Sentinel unit serial number:	SN413079Multiplexer serial number:	ORYXHardware model number:	OX4-SRSoftware version number:	ORYX F/W v4.00 Oryx Data Collector v3.7.2.0data status	okinstallation	princeton_trtdifferential loss correction	single-endedforward channel	channel 3reverse channel	N/Adate	2019/09/12time	20:24:35forward acquisition time	60.00reverse acquisition time	0.00gamma	496.2192k internal	0.2323k external	0.2323temperature offset calibration	1.0122default loss term (dB/km)	0.3790temperature slope calibration	1.0000multiplexer offset coefficient	1.0000multiplexer slope coefficient	1.0000fibre end	0.00T internal ref (°C)	31.37T ext. ref 1 (°C)	3.49T ext. ref 2 (°C)	25.96length (m)	temperature (°C)	Stokes	anti-Stokes-747.200	-200.000	-0.014	0.105
-746.185	-128.110	-0.165	0.024
-745.171	-70.621	0.105	0.040
-744.156	-200.000	0.033	0.151
-743.142	-200.000	-0.011	-0.209
-742.127	-99.760	0.143	0.036
-741.112	59.107	0.048	0.048
-740.098	-58.490	-0.192	0.084
-739.083	800.000	-0.102	-0.391
-738.069	11.849	0.173	0.134
-737.054	800.000	-0.047	0.169
-736.039	-119.932	-0.213	0.037
-735.025	-103.149	-0.160	0.038
-734.010	-70.071	-0.167	0.064
-732.996	4.422	-0.222	0.164
-731.981	-67.221	-0.358	0.142
-730.966	-139.206	-0.454	0.049
-729.952	800.000	0.086	-0.271
-728.937	-108.836	0.256	-0.055
-727.923	-200.000	-0.003	-0.074
-726.908	-73.342	-0.088	0.033
-725.894	166.153	-0.162	-0.232
-724.879	-200.000	-0.013	-0.221
-723.864	234.148	-0.153	-0.254
-722.850	800.000	0.165	-0.468
-721.835	22.696	0.154	0.127
-720.821	199.129	0.053	0.082
-719.806	-200.000	0.024	-0.135
-718.791	-200.000	0.050	-0.393
-717.777	17.365	0.095	0.076
-716.762	258.920	-0.059	0.102
-715.748	-123.191	-0.029	0.005
-714.733	800.000	0.076	-0.215
-713.718	-17.082	0.207	0.132
-712.704	800.000	-0.057	-0.160
-711.689	-200.000	-0.009	0.243
-710.675	-179.278	0.298	0.007
-709.660	800.000	-0.029	0.126
-708.645	178.938	-0.196	0.290
-707.631	236.582	0.017	0.028
-706.616	422.114	-0.190	0.411
-705.602	-65.009	0.330	-0.135
-704.587	-150.793	-0.188	-0.014
-703.572	-145.568	-0.140	-0.013
-702.558	442.518	-0.117	-0.259
-701.543	187.914	-0.149	0.225
-700.529	589.633	0.120	-0.297
-699.514	-54.097	-0.348	-0.160
-698.499	41.310	0.030	0.028
-697.485	-59.135	0.297	0.129
-696.470	-133.246	-0.177	0.023
-695.456	-132.656	-0.403	-0.052
-694.441	55.873	0.159	0.155
-693.426	225.412	-0.010	-0.017
-692.412	800.000	0.023	-0.088
-691.397	-82.752	0.185	-0.060
-690.383	800.000	-0.093	0.284
-689.368	-33.967	-0.235	-0.131
-688.354	-200.000	-0.055	-0.250
-687.339	-79.606	0.301	0.102
-686.324	-151.357	-0.359	-0.027
-685.310	-51.219	-0.231	-0.109
-684.295	32.044	-0.178	-0.155
-683.281	-81.403	-0.304	0.101
-682.266	-52.204	-0.381	-0.178
-681.251	-51.383	-0.335	-0.158
-680.237	10.378	0.535	-0.411
-679.222	-200.000	0.002	0.017
-678.208	-200.000	-0.028	-0.292
-677.193	304.196	0.138	-0.258
-676.178	-200.000	0.032	-0.399
-675.164	164.067	-0.088	0.125
-674.149	56.581	-0.193	-0.189
-673.135	-17.370	-0.252	-0.160
-672.120	632.217	-0.088	0.225
-671.105	-10.081	-0.237	0.159
-670.091	153.734	0.232	-0.320
-669.076	228.116	-0.177	-0.290
-668.062	-124.506	0.283	-0.044
-667.047	-200.000	-0.015	0.156
-666.032	-55.493	-0.358	-0.162
-665.018	28.153	-0.131	-0.112
-664.003	-50.856	0.081	-0.038
-662.989	-3.084	0.234	-0.165
-661.974	-67.749	-0.151	-0.059
-660.959	-151.480	0.457	-0.034
-659.945	423.946	-0.031	0.066
-658.930	800.000	0.022	-0.096
-657.916	57.872	-0.070	0.069
-656.901	102.317	-0.142	-0.167
-655.886	-41.316	0.103	-0.054
-654.872	119.458	0.129	0.161
-653.857	302.232	0.168	-0.313
-652.843	-200.000	0.012	-0.095
-651.828	-17.966	-0.203	0.128
-650.814	-200.000	-0.027	-0.174
-649.799	471.969	0.055	0.125
-648.784	-117.137	-0.316	0.058
-647.770	-200.000	0.056	-0.343
-646.755	224.798	0.077	0.126
-645.741	800.000	0.059	-0.194
-644.726	138.507	-0.302	0.399
-643.711	-103.186	0.113	-0.027
-642.697	143.807	-0.151	-0.202
-641.682	-9.182	0.204	-0.137
-640.668	-200.000	-0.020	0.129
-639.653	-200.000	-0.041	-0.375
-638.638	-33.534	0.179	0.099
-637.624	91.431	0.245	0.277
-636.609	-177.966	-0.251	0.006
-635.595	-92.369	-0.075	-0.021
-634.580	-150.405	-0.080	0.006
-633.565	91.822	0.089	0.101
-632.551	800.000	-0.094	0.413
-631.536	-7.034	0.341	0.233
-630.522	228.134	-0.068	-0.111
-629.507	-122.933	-0.336	-0.054
-628.492	-50.344	0.268	-0.127
-627.478	89.433	0.071	0.080
-626.463	-200.000	0.047	-0.286
-625.449	-106.065	-0.073	0.016
-624.434	790.655	-0.101	0.279
-623.419	-55.276	-0.034	0.015
-622.405	188.485	-0.024	-0.036
-621.390	800.000	0.102	-0.345
-620.376	-200.000	-0.016	-0.242
-619.361	-29.442	-0.037	-0.021
-618.346	-79.688	0.187	-0.063
-617.332	159.815	-0.054	0.076
-616.317	121.554	-0.237	0.297
-615.303	-0.446	0.310	-0.221
-614.288	22.788	-0.185	0.153
-613.273	288.024	0.203	-0.369
-612.259	800.000	0.054	0.220
-611.244	-106.649	-0.450	0.101
-610.230	40.528	-0.140	-0.127
-609.215	79.619	-0.185	-0.200
-608.201	683.043	0.126	0.331
-607.186	-174.293	0.061	-0.002
-606.171	66.455	-0.121	0.124
-605.157	800.000	0.090	0.330
-604.142	-200.000	-0.015	0.222
-603.128	-33.583	-0.111	-0.062
-602.113	-200.000	0.017	0.509
-601.098	-50.944	0.160	-0.075
-600.084	73.356	0.174	-0.182
-599.069	800.000	0.072	0.245
-598.055	-200.000	0.010	0.055
-597.040	115.093	0.154	-0.189
-596.025	205.182	0.147	-0.229
-595.011	800.000	0.031	-0.111
-593.996	-99.659	0.144	0.036
-592.982	402.058	-0.098	0.208
-591.967	-128.545	0.247	0.035
-590.952	-9.987	0.229	-0.153
-589.938	-87.915	-0.315	-0.095
-588.923	-155.975	0.163	-0.010
-587.909	800.000	0.008	0.025
-586.894	-114.075	0.142	0.028
-585.879	-25.656	0.036	0.022
-584.865	-200.000	-0.063	-0.277
-583.850	-102.658	0.225	-0.054
-582.836	-96.475	-0.137	0.036
-581.821	-200.000	-0.024	-0.529
-580.806	303.931	-0.073	0.135
-579.792	-105.206	-0.174	0.040
-578.777	-200.000	-0.004	0.034
-577.763	28.598	0.218	-0.185
-576.748	481.290	0.042	0.095
-575.733	-200.000	-0.013	-0.153
-574.719	-44.616	0.114	-0.057
-573.704	800.000	-0.100	-0.423
-572.690	-48.182	0.269	-0.131
-571.675	659.040	-0.047	-0.121
-570.661	-75.670	-0.095	-0.034
-569.646	-95.470	0.249	-0.067
-568.631	-200.000	0.008	0.048
-567.617	-99.490	-0.250	0.063
-566.602	153.646	0.041	0.057
-565.588	800.000	-0.134	-0.376
-564.573	-93.759	-0.108	0.030
-563.558	23.972	-0.111	-0.092
-562.544	143.247	-0.075	-0.101
-561.529	23.551	-0.105	-0.087
-560.515	-200.000	0.035	-0.154
-559.500	800.000	-0.057	-0.171
-558.485	344.090	0.097	-0.191
-557.471	69.694	0.128	0.133
-556.456	467.245	0.014	0.031
-555.442	6.671	0.310	0.231
-554.427	211.399	-0.162	0.256
-553.412	-42.763	0.055	-0.028
-552.398	-200.000	-0.040	-0.283
-551.383	534.652	-0.082	-0.195
-550.369	-35.389	0.307	0.167
-549.354	800.000	-0.032	-0.128
-548.339	181.128	0.108	-0.159
-547.325	-113.832	-0.227	0.044
-546.310	91.934	-0.101	0.114
-545.296	55.834	0.133	-0.129
-544.281	-200.000	-0.024	-0.316
-543.266	66.444	0.039	0.039
-542.252	38.688	-0.115	0.103
-541.237	2.922	-0.271	-0.197
-540.223	-92.375	0.199	-0.056
-539.208	-89.655	0.176	0.052
-538.193	-200.000	0.011	-0.235
-537.179	151.592	0.098	0.134
-536.164	-200.000	-0.001	0.153
-535.150	91.480	-0.056	0.063
-534.135	-193.990	-0.285	-0.002
-533.121	-200.000	-0.046	0.244
-532.106	-91.944	-0.287	0.081
-531.091	-146.597	0.141	-0.012
-530.077	800.000	-0.007	0.021
-529.062	539.570	0.042	-0.100
-528.048	-3.599	0.250	-0.174
-527.033	-119.839	0.088	0.015
-526.018	64.478	0.305	0.308
-525.004	8.878	-0.208	-0.157
-523.989	-94.273	-0.218	0.060
-522.975	16.972	0.276	-0.219
-521.960	-71.731	-0.233	-0.087
-520.945	-91.557	0.172	0.049
-519.931	37.550	-0.094	0.084
-518.916	-121.450	0.460	-0.077
-517.902	-92.918	-0.113	-0.032
-516.887	-200.000	0.090	0.543
-515.872	-200.000	0.006	-0.342
-514.858	96.339	0.163	-0.187
-513.843	70.731	0.210	0.217
-512.829	-17.751	0.058	0.036
-511.814	-200.000	0.001	0.167
-510.799	141.678	-0.051	-0.068
-509.785	450.310	-0.123	-0.272
-508.770	115.377	-0.179	-0.218
-507.756	-63.867	-0.103	-0.042
-506.741	-4.222	-0.104	-0.072
-505.726	-200.000	0.022	0.309
-504.712	325.459	-0.091	-0.175
-503.697	28.243	0.091	0.077
-502.683	-24.240	-0.173	-0.103
-501.668	536.284	0.067	0.159
-500.653	470.466	0.043	-0.098
-499.639	-112.300	0.321	-0.064
-498.624	116.364	0.104	-0.128
-497.610	301.040	-0.122	-0.226
-496.595	-133.714	0.394	-0.049
-495.581	-97.523	-0.053	0.014
-494.566	-200.000	-0.003	0.342
-493.551	-42.106	0.369	-0.189
-492.537	154.385	-0.103	0.142
-491.522	-134.894	0.149	-0.018
-490.508	15.732	-0.123	0.097
-489.493	-51.553	-0.425	0.198
-488.478	-132.283	0.293	-0.038
-487.464	-172.035	-0.211	0.007
-486.449	-200.000	0.072	-0.321
-485.435	168.034	0.264	-0.375
-484.420	-200.000	-0.012	-0.181
-483.405	-157.650	0.127	-0.008
-482.391	-38.776	-0.135	0.071
-481.376	-200.000	0.001	0.055
-480.362	148.214	-0.158	0.213
-479.347	-200.000	-0.002	0.254
-478.332	-200.000	-0.020	0.104
-477.318	3.108	0.170	0.124
-476.303	-200.000	-0.009	0.138
-475.289	18.596	-0.095	-0.076
-474.274	-200.000	0.020	-0.232
-473.259	800.000	0.081	-0.264
-472.245	-93.728	-0.077	0.021
-471.230	-117.787	0.073	0.013
-470.216	-200.000	-0.002	-0.368
-469.201	611.780	0.075	-0.187
-468.186	-125.398	0.332	-0.051
-467.172	800.000	-0.063	0.264
-466.157	800.000	0.100	-0.346
-465.143	-200.000	-0.030	-0.231
-464.128	-96.779	-0.175	-0.046
-463.113	720.434	-0.010	-0.028
-462.099	800.000	-0.019	-0.060
-461.084	-200.000	0.035	0.000
-460.070	-6.674	-0.202	0.138
-459.055	800.000	-0.177	0.533
-458.040	-200.000	0.014	0.204
-457.026	-46.812	-0.098	0.048
-456.011	-158.089	0.151	0.009
-454.997	-97.111	-0.097	-0.025
-453.982	-67.303	0.159	0.062
-452.968	-157.737	-0.260	-0.015
-451.953	-22.556	-0.125	0.076
-450.938	-200.000	0.013	-0.231
-449.924	563.679	0.063	-0.153
-448.909	800.000	0.073	-0.299
-447.895	-132.716	0.273	0.035
-446.880	-46.937	-0.250	-0.122
-445.865	-200.000	0.011	0.059
-444.851	-132.917	-0.335	0.043
-443.836	-200.000	0.035	-0.378
-442.822	-200.000	-0.003	-0.187
-441.807	1.042	-0.099	-0.071
-440.792	575.927	0.125	-0.305
-439.778	-32.006	0.177	0.099
-438.763	174.631	0.046	-0.067
-437.749	-47.019	0.261	-0.127
-436.734	-18.123	0.072	-0.045
-435.719	-33.469	-0.234	-0.129
-434.705	28.399	0.100	-0.085
-433.690	-42.837	0.192	-0.097
-432.676	0.067	0.171	-0.122
-431.661	-7.249	-0.351	0.237
-430.646	-200.000	-0.114	0.513
-429.632	250.395	0.114	0.193
-428.617	-200.000	-0.001	0.383
-427.603	9.602	-0.053	0.040
-426.588	12.821	0.186	-0.144
-425.573	129.511	0.394	-0.502
-424.559	-47.081	-0.352	-0.171
-423.544	-110.654	0.048	0.010
-422.530	570.371	0.007	-0.017
-421.515	303.170	-0.095	0.176
-420.500	-143.052	-0.131	-0.013
-419.486	-200.000	-0.017	-0.144
-418.471	32.948	-0.076	-0.066
-417.457	800.000	0.009	0.034
-416.442	40.739	-0.449	0.404
-415.428	-200.000	-0.101	-0.564
-414.413	16.267	0.226	-0.178
-413.398	37.883	-0.103	0.091
-412.384	288.941	0.014	-0.025
-411.369	58.249	0.283	0.276
-410.355	-21.185	0.264	-0.161
-409.340	31.298	0.164	-0.140
-408.325	35.348	0.190	0.166
-407.311	129.979	0.207	0.264
-406.296	186.490	-0.175	-0.259
-405.282	-200.000	-0.011	0.145
-404.267	-200.000	-0.006	0.186
-403.252	-20.563	0.290	-0.178
-402.238	157.225	-0.219	0.302
-401.223	248.322	0.164	-0.276
-400.209	125.630	0.078	0.098
-399.194	-87.941	0.214	0.064
-398.179	-113.240	-0.084	0.016
-397.165	-200.000	-0.001	-0.041
-396.150	800.000	-0.078	0.238
-395.136	0.315	-0.319	-0.227
-394.121	-99.417	-0.233	-0.058
-393.106	-91.406	-0.148	0.042
-392.092	323.736	0.058	-0.111
-391.077	-145.825	-0.125	-0.011
-390.063	-147.062	-0.177	0.015
-389.048	-200.000	0.001	-0.011
-388.033	655.128	0.051	0.129
-387.019	-123.516	0.388	-0.061
-386.004	-72.736	-0.074	-0.027
-384.990	800.000	0.048	-0.171
-383.975	314.365	0.233	0.437
-382.960	42.084	0.177	-0.160
-381.946	167.528	-0.135	0.191
-380.931	-200.000	-0.044	0.192
-379.917	52.148	0.259	-0.246
-378.902	-56.101	0.103	-0.046
-377.888	126.712	-0.032	0.041
-376.873	111.466	-0.027	-0.033
-375.858	62.197	0.155	-0.154
-374.844	-90.206	-0.201	0.058
-373.829	-11.369	0.362	0.237
-372.815	800.000	-0.030	-0.119
-371.800	743.240	-0.067	-0.179
-370.785	-170.369	0.257	-0.009
-369.771	31.716	-0.070	-0.060
-368.756	-18.329	0.313	-0.195
-367.742	-200.000	-0.025	0.286
-366.727	-134.127	0.185	0.023
-365.712	-144.912	-0.161	-0.015
-364.698	-50.560	-0.157	0.074
-363.683	66.788	0.081	-0.082
-362.669	438.238	0.083	-0.181
-361.654	59.356	-0.098	0.096
-360.639	-200.000	0.037	-0.303
-359.625	-118.389	-0.366	0.065
-358.610	-182.789	-0.112	0.002
-357.596	272.896	-0.186	0.327
-356.581	427.732	-0.092	0.197
-355.566	332.959	0.160	-0.308
-354.552	3.014	-0.093	0.068
-353.537	-128.704	0.148	0.021
-352.523	-48.466	0.304	-0.146
-351.508	-75.280	-0.224	-0.079
-350.493	-171.515	-0.226	-0.007
-349.479	800.000	-0.042	0.180
-348.464	466.343	-0.100	0.222
-347.450	-162.271	-0.093	-0.005
-346.435	800.000	0.085	0.268
-345.420	-200.000	0.077	0.382
-344.406	-101.066	-0.130	0.032
-343.391	166.019	0.087	0.122
-342.377	46.126	0.049	0.045
-341.362	48.236	0.142	-0.132
-340.348	-200.000	-0.018	-0.131
-339.333	-200.000	-0.028	0.176
-338.318	185.390	0.081	0.119
-337.304	416.488	0.018	0.039
-336.289	53.472	0.220	-0.210
-335.275	-26.921	-0.154	-0.089
-334.260	-200.000	0.012	0.290
-333.245	800.000	0.090	0.305
-332.231	332.768	-0.139	0.267
-331.216	-200.000	0.029	0.451
-330.202	-10.862	-0.211	0.139
-329.187	-28.199	-0.162	-0.093
-328.172	-148.323	0.211	0.017
-327.158	66.149	0.137	-0.138
-326.143	-91.232	0.122	-0.035
-325.129	159.638	-0.233	0.323
-324.114	-200.000	0.035	-0.190
-323.099	338.707	0.034	-0.066
-322.085	-193.728	-0.202	-0.002
-321.070	800.000	-0.025	0.083
-320.056	-135.230	0.135	0.016
-319.041	-200.000	0.005	-0.031
-318.026	97.255	-0.193	0.220
-317.012	-200.000	-0.049	-0.285
-315.997	-77.238	-0.113	0.039
-314.983	402.824	0.040	-0.084
-313.968	172.263	0.056	0.080
-312.953	202.771	0.076	-0.117
-311.939	-130.822	0.352	-0.047
-310.924	67.536	-0.031	0.032
-309.910	241.612	-0.212	-0.351
-308.895	-131.600	0.302	-0.039
-307.880	71.651	-0.385	0.397
-306.866	133.897	-0.087	0.112
-305.851	106.880	-0.102	0.121
-304.837	290.962	-0.122	-0.220
-303.822	800.000	-0.105	-0.362
-302.807	383.188	0.102	-0.207
-301.793	-23.152	-0.114	0.068
-300.778	-187.184	0.241	0.003
-299.764	800.000	0.089	-0.348
-298.749	4.935	0.193	-0.141
-297.735	-138.481	-0.275	-0.030
-296.720	6.023	-0.317	-0.233
-295.705	-187.845	0.098	0.001
-294.691	-54.151	0.300	0.136
-293.676	-14.211	0.205	-0.131
-292.662	11.724	0.258	0.197
-291.647	10.570	-0.201	0.152
-290.632	800.000	0.097	-0.362
-289.618	657.039	-0.041	-0.104
-288.603	627.024	-0.055	0.138
-287.589	757.214	0.180	0.484
-286.574	-200.000	0.009	0.079
-285.559	-35.922	-0.157	0.084
-284.545	-141.156	0.360	0.036
-283.530	386.682	0.127	0.261
-282.516	42.402	-0.112	-0.101
-281.501	141.884	-0.068	0.089
-280.486	-14.009	0.306	0.196
-279.472	17.701	0.101	0.080
-278.457	-44.878	-0.261	-0.129
-277.443	-19.120	-0.237	-0.146
-276.428	800.000	-0.048	-0.142
-275.413	7.299	-0.326	0.242
-274.399	238.350	0.022	-0.037
-273.384	-42.067	0.041	-0.021
-272.370	215.982	-0.111	0.175
-271.355	-115.501	0.035	0.007
-270.340	-159.174	-0.234	0.013
-269.326	-64.057	-0.232	-0.094
-268.311	-68.039	-0.053	-0.020
-267.297	150.811	-0.082	0.110
-266.282	-154.812	0.120	0.008
-265.267	21.249	-0.106	-0.086
-264.253	-32.906	0.138	-0.076
-263.238	800.000	-0.082	-0.229
-262.224	100.034	-0.069	-0.079
-261.209	-95.069	0.158	0.042
-260.195	114.783	-0.227	-0.274
-259.180	-200.000	-0.002	-0.077
-258.165	-200.000	0.052	0.256
-257.151	-52.197	0.249	-0.115
-256.136	477.171	-0.098	0.219
-255.122	-200.000	0.041	0.361
-254.107	-46.029	0.115	-0.056
-253.092	11.793	0.136	0.103
-252.078	-105.404	-0.266	-0.060
-251.063	-13.918	0.302	0.193
-250.049	-65.506	0.403	0.160
-249.034	800.000	0.079	0.340
-248.019	-69.940	-0.057	-0.022
-247.005	184.190	-0.055	-0.081
-245.990	767.809	0.013	0.034
-244.976	-3.996	-0.302	-0.207
-243.961	-189.726	0.196	-0.002
-242.946	-66.440	0.106	-0.042
-241.932	-18.950	-0.061	-0.037
-240.917	349.788	0.096	-0.187
-239.903	-148.904	-0.063	0.005
-238.888	800.000	0.037	-0.103
-237.873	-98.629	0.224	-0.057
-236.859	-76.009	0.305	-0.107
-235.844	-138.877	-0.103	0.011
-234.830	57.087	0.302	0.291
-233.815	800.000	0.064	0.268
-232.800	22.267	-0.143	-0.116
-231.786	-102.869	-0.142	0.033
-230.771	-118.890	-0.293	-0.051
-229.757	-200.000	0.004	0.077
-228.742	-137.193	-0.358	0.040
-227.727	-200.000	-0.034	-0.183
-226.713	-200.000	0.002	-0.103
-225.698	-200.000	-0.019	-0.188
-224.684	800.000	-0.034	-0.132
-223.669	77.813	-0.149	0.157
-222.655	-103.370	0.197	-0.046
-221.640	-200.000	0.027	0.135
-220.625	-200.000	-0.027	0.211
-219.611	-135.349	0.023	0.003
-218.596	-153.279	0.394	0.027
-217.582	45.111	0.091	-0.083
-216.567	-136.331	-0.292	-0.034
-215.552	-5.641	0.017	0.012
-214.538	191.557	-0.134	0.199
-213.523	91.226	-0.268	0.298
-212.509	570.213	-0.065	0.155
-211.494	-200.000	-0.014	0.143
-210.479	75.663	-0.239	0.249
-209.465	-113.360	-0.220	0.043
-208.450	182.845	-0.085	-0.123
-207.436	-20.177	-0.043	0.026
-206.421	-124.452	-0.244	0.038
-205.406	-200.000	-0.011	0.133
-204.392	146.097	-0.258	0.342
-203.377	800.000	0.122	-0.462
-202.363	-168.106	0.325	-0.013
-201.348	-118.111	-0.188	0.033
-200.333	733.755	-0.081	0.214
-199.319	-200.000	-0.050	-0.215
-198.304	-200.000	0.052	-0.373
-197.290	-200.000	-0.020	-0.222
-196.275	62.544	-0.107	0.105
-195.260	-200.000	0.009	-0.105
-194.246	-132.081	0.177	0.023
-193.231	25.954	0.046	-0.038
-192.217	800.000	0.031	-0.088
-191.202	-107.830	0.062	0.013
-190.187	308.323	-0.262	-0.483
-189.173	537.370	-0.037	-0.087
-188.158	155.957	0.079	0.108
-187.144	800.000	0.137	0.442
-186.129	333.988	0.142	0.271
-185.114	594.538	-0.077	0.188
-184.100	-200.000	-0.011	-0.268
-183.085	90.168	0.078	-0.086
-182.071	800.000	-0.064	0.212
-181.056	39.608	-0.208	-0.184
-180.042	-49.259	0.242	0.114
-179.027	62.770	0.238	-0.236
-178.012	139.396	-0.121	0.158
-176.998	-142.538	-0.087	0.008
-175.983	800.000	-0.059	0.244
-174.969	260.284	-0.193	0.330
-173.954	-200.000	-0.007	-0.127
-172.939	-20.558	-0.116	0.070
-171.925	-72.033	0.254	0.093
-170.910	-2.913	-0.270	0.186
-169.896	-130.793	-0.416	-0.055
-168.881	410.184	0.059	-0.123
-167.866	500.011	-0.060	0.138
-166.852	56.803	-0.078	0.075
-165.837	260.777	0.174	0.297
-164.823	462.064	0.118	0.261
-163.808	-10.165	-0.369	-0.242
-162.793	-38.717	0.191	-0.099
-161.779	-25.724	-0.172	0.100
-160.764	-39.370	-0.070	-0.036
-159.750	455.595	0.043	0.094
-158.735	800.000	0.037	-0.108
-157.720	-98.367	-0.301	0.076
-156.706	-151.664	-0.187	-0.014
-155.691	164.406	-0.101	0.140
-154.677	800.000	-0.018	0.070
-153.662	335.871	-0.028	0.053
-152.647	127.049	-0.021	0.026
-151.633	-176.464	-0.189	0.005
-150.618	-19.087	0.261	0.160
-149.604	-44.728	-0.222	-0.109
-148.589	54.111	-0.260	-0.247
-147.574	-81.577	0.232	-0.075
-146.560	-200.000	0.020	0.340
-145.545	800.000	0.104	0.297
-144.531	-39.778	0.152	0.078
-143.516	-115.957	0.171	0.031
-142.502	-92.132	0.244	-0.068
-141.487	53.057	0.081	-0.076
-140.472	99.840	0.184	0.210
-139.458	-108.320	0.360	0.077
-138.443	134.340	-0.032	0.041
-137.429	-79.791	-0.097	0.032
-136.414	-64.905	0.179	0.071
-135.399	118.106	0.071	-0.087
-134.385	141.495	-0.151	0.198
-133.370	60.232	0.273	-0.266
-132.356	51.667	-0.181	0.170
-131.341	525.015	0.067	0.156
-130.326	-200.000	0.018	-0.292
-129.312	-97.449	0.225	-0.058
-128.297	180.702	0.116	0.168
-127.283	800.000	-0.023	-0.079
-126.268	-49.495	0.091	0.043
-125.253	-26.309	0.174	-0.100
-124.239	22.841	0.314	0.254
-123.224	-200.000	0.012	0.419
-122.210	800.000	0.019	0.058
-121.195	-86.102	0.206	0.063
-120.180	-200.000	-0.092	-0.398
-119.166	-200.000	-0.031	0.529
-118.151	-22.644	0.237	-0.141
-117.137	-105.068	-0.062	0.014
-116.122	517.033	-0.083	0.191
-115.107	-18.380	0.368	0.227
-114.093	-39.307	-0.249	0.129
-113.078	592.214	-0.067	-0.164
-112.064	-141.625	-0.117	-0.012
-111.049	-200.000	-0.031	0.239
-110.034	800.000	0.093	0.327
-109.020	-200.000	-0.009	0.286
-108.005	-200.000	-0.026	0.179
-106.991	232.064	0.150	0.243
-105.976	354.698	-0.086	0.168
-104.962	800.000	-0.054	0.207
-103.947	306.982	0.004	-0.008
-102.932	207.116	-0.029	-0.045
-101.918	139.185	-0.067	0.086
-100.903	-33.408	-0.151	0.082
-99.889	-37.868	0.150	0.079
-98.874	-130.139	-0.052	-0.007
-97.859	-54.618	0.386	0.172
-96.845	-46.922	0.166	-0.080
-95.830	6.003	0.216	-0.157
-94.816	-144.199	0.152	-0.014
-93.801	479.881	-0.099	0.221
-92.786	473.665	0.132	0.292
-91.772	-75.743	-0.059	0.020
-90.757	470.941	-0.079	-0.174
-89.743	-60.212	0.106	0.044
-88.728	-200.000	0.015	0.153
-87.713	-74.283	-0.141	0.050
-86.699	158.615	-0.104	0.143
-85.684	-200.000	-0.009	-0.052
-84.670	-87.513	0.257	0.077
-83.655	110.380	-0.120	0.142
-82.640	-200.000	-0.025	-0.208
-81.626	32.702	-0.290	-0.247
-80.611	66.225	0.259	0.259
-79.597	-127.660	-0.318	0.045
-78.582	11.198	0.132	-0.099
-77.567	-200.000	-0.009	-0.154
-76.553	-200.000	-0.012	0.150
-75.538	-169.185	0.069	0.003
-74.524	80.335	0.152	-0.161
-73.509	-116.955	0.150	0.027
-72.494	-16.687	-0.103	-0.064
-71.480	-200.000	-0.065	0.328
-70.465	70.212	0.182	-0.185
-69.451	-0.829	0.103	-0.072
-68.436	50.248	0.082	0.076
-67.422	41.466	0.330	0.293
-66.407	-200.000	0.035	0.438
-65.392	49.775	0.073	-0.068
-64.378	-71.919	-0.271	-0.099
-63.363	51.758	0.268	0.250
-62.349	-200.000	-0.005	0.024
-61.334	98.665	-0.994	-1.128
-60.319	29.527	0.437	0.365
-59.305	660.645	-0.434	-1.100
-58.290	485.201	0.430	0.962
-57.276	386.295	0.616	1.251
-56.261	-200.000	99.842	608.663
-55.246	605.666	1393.572	3413.404
-54.232	196.158	2568.523	3843.691
-53.217	117.815	2147.685	2600.178
-52.203	41.951	1689.305	1506.651
-51.188	34.555	1501.454	1289.317
-50.173	32.097	1475.392	1250.543
-49.159	52.977	1527.205	1436.394
-48.144	54.063	1545.223	1460.634
-47.130	34.753	1503.483	1292.194
-46.115	31.688	1488.337	1258.568
-45.100	31.410	1485.212	1254.011
-44.086	31.376	1482.920	1251.799
-43.071	31.313	1481.245	1249.913
-42.057	31.281	1479.801	1248.427
-41.042	31.311	1478.191	1247.225
-40.027	31.452	1476.298	1246.516
-39.013	31.323	1475.303	1244.768
-37.998	31.385	1473.772	1243.836
-36.984	31.368	1472.546	1242.641
-35.969	31.377	1471.248	1241.555
-34.954	31.296	1470.646	1240.460
-33.940	31.384	1468.909	1239.529
-32.925	31.436	1467.621	1238.736
-31.911	31.383	1466.237	1237.170
-30.896	31.442	1464.607	1236.134
-29.881	31.505	1463.213	1235.327
-28.867	31.491	1462.119	1234.264
-27.852	31.446	1460.939	1232.920
-26.838	31.374	1459.815	1231.445
-25.823	31.394	1457.911	1229.925
-24.809	31.460	1456.262	1228.920
-23.794	31.516	1454.880	1228.070
-22.779	31.375	1453.901	1226.271
-21.765	31.365	1452.630	1225.085
-20.750	31.403	1451.673	1224.476
-19.736	31.381	1450.648	1223.420
-18.721	31.491	1449.232	1222.898
-17.706	31.359	1448.686	1221.525
-16.692	31.337	1447.106	1219.999
-15.677	31.301	1446.046	1218.825
-14.663	31.427	1444.676	1218.443
-13.648	31.285	1444.188	1217.058
-12.633	31.428	1443.023	1216.959
-11.619	31.368	1442.457	1216.043
-10.604	31.338	1441.626	1215.097
-9.590	31.218	1441.525	1214.184
-8.575	31.322	1440.331	1213.809
-7.560	31.322	1439.208	1212.811
-6.546	31.364	1438.056	1212.062
-5.531	31.331	1437.202	1211.082
-4.517	31.279	1436.515	1210.121
-3.502	31.179	1435.404	1208.490
-2.487	31.253	1434.664	1208.294
-1.473	31.247	1433.655	1207.357
-0.458	31.282	1432.018	1206.159
0.556	32.742	1422.264	1194.490
1.571	29.597	1397.588	1154.052
2.586	25.997	1340.081	1084.857
3.600	24.331	1259.802	1010.348
4.615	22.793	1214.430	965.468
5.629	19.583	1158.473	904.122
6.644	11.186	1075.347	798.199
7.659	4.582	1035.473	737.293
8.673	3.816	1029.881	729.633
9.688	3.437	1026.773	725.585
10.702	3.403	1025.283	724.304
11.717	3.325	1023.733	722.781
12.731	6.571	1025.825	739.435
13.746	15.090	1038.008	788.425
14.761	22.363	1047.157	829.723
15.775	24.168	1048.742	839.418
16.790	23.868	1047.888	837.250
17.804	23.283	1046.418	833.248
18.819	22.903	1045.273	830.476
19.834	22.837	1044.092	829.153
20.848	22.860	1043.393	828.633
21.863	22.944	1043.488	829.029
22.877	22.889	1042.916	828.245
23.892	22.784	1042.227	827.132
24.907	22.627	1041.383	825.654
25.921	22.644	1040.256	824.767
26.936	22.580	1039.333	823.662
27.950	22.561	1038.038	822.475
28.965	22.320	1037.786	821.076
29.980	22.421	1036.386	820.369
30.994	22.558	1035.137	819.944
32.009	22.603	1035.403	820.290
33.023	22.703	1034.175	819.711
34.038	22.677	1033.614	819.075
35.053	22.602	1032.723	817.945
36.067	22.649	1031.250	816.926
37.082	22.498	1030.175	815.304
38.096	22.592	1029.376	815.032
39.111	22.528	1029.080	814.432
40.126	22.787	1028.012	814.708
41.140	22.727	1026.640	813.271
42.155	22.137	1026.025	809.996
43.169	21.951	1024.695	808.017
44.184	21.875	1023.325	806.515
45.199	21.878	1022.259	805.621
46.213	21.754	1021.969	804.747
47.228	21.870	1020.941	804.401
48.242	22.212	1020.656	805.671
49.257	22.658	1020.223	807.301
50.271	22.663	1019.014	806.297
51.286	22.558	1019.035	805.764
52.301	22.828	1018.180	806.247
53.315	22.734	1017.326	805.070
54.330	22.706	1016.479	804.201
55.344	22.505	1015.264	802.254
56.359	22.375	1014.878	801.288
57.374	22.290	1013.659	799.867
58.388	22.275	1012.969	799.183
59.403	22.102	1011.939	797.514
60.417	21.827	1011.316	795.705
61.432	22.035	1010.331	795.805
62.447	22.110	1009.996	795.807
63.461	22.038	1009.251	794.824
64.476	21.993	1008.412	793.890
65.490	21.842	1007.310	792.273
66.505	21.771	1006.415	791.177
67.520	21.875	1005.778	791.075
68.534	21.908	1005.191	790.694
69.549	21.723	1004.479	789.227
70.563	21.622	1003.582	788.000
71.578	21.571	1002.701	787.009
72.593	21.276	1001.609	784.757
73.607	21.157	1000.085	782.959
74.622	21.184	999.362	782.445
75.636	21.327	998.911	782.662
76.651	21.405	997.889	782.143
77.666	21.384	997.399	781.593
78.680	21.449	996.705	781.274
79.695	21.396	996.622	780.900
80.709	21.604	995.146	780.602
81.724	21.504	995.343	780.242
82.739	21.738	994.427	780.499
83.753	21.802	993.496	779.984
84.768	22.312	993.408	782.115
85.782	22.830	992.845	783.902
86.797	23.151	992.561	785.033
87.812	23.127	992.199	784.572
88.826	22.993	990.891	782.874
89.841	22.816	990.015	781.329
90.855	23.033	988.865	781.309
91.870	23.095	988.301	781.067
92.884	22.986	987.481	779.871
93.899	22.952	986.851	779.154
94.914	22.882	986.091	778.175
95.928	22.847	985.380	777.395
96.943	22.948	984.441	777.030
97.957	22.914	983.153	775.796
98.972	22.635	982.482	773.973
99.987	22.603	982.111	773.471
101.001	22.809	981.384	773.730
102.016	22.806	980.456	772.920
103.030	22.592	979.586	771.230
104.045	22.789	978.836	771.429
105.060	22.820	977.892	770.755
106.074	22.766	977.327	770.004
107.089	22.462	975.793	767.402
108.103	22.343	974.869	766.092
109.118	22.202	973.748	764.528
110.133	21.926	972.704	762.445
111.147	21.639	971.363	760.079
112.162	21.745	970.081	759.466
113.176	21.582	969.462	758.209
114.191	21.731	968.670	758.167
115.206	21.916	968.401	758.692
116.220	21.951	967.556	758.112
117.235	21.768	966.601	756.506
118.249	21.855	965.433	755.900
119.264	21.680	964.964	754.712
120.279	21.485	963.781	752.883
121.293	21.582	962.703	752.391
122.308	21.468	962.434	751.625
123.322	21.505	961.130	750.696
124.337	21.255	960.321	748.927
125.352	21.094	959.268	747.351
126.366	21.293	957.992	747.143
127.381	21.208	957.111	746.024
128.395	21.291	956.607	745.921
129.410	21.541	955.434	746.005
130.424	21.646	954.884	745.957
131.439	21.698	954.178	745.562
132.454	21.888	953.510	745.782
133.468	21.970	953.121	745.762
134.483	21.960	952.476	745.145
135.497	21.988	951.565	744.487
136.512	21.968	951.247	744.090
137.527	22.061	950.377	743.733
138.541	22.116	949.523	743.232
139.556	22.005	949.139	742.399
140.570	22.044	948.460	741.968
141.585	22.156	947.624	741.718
142.600	22.614	947.225	743.273
143.614	22.689	946.447	742.913
144.629	22.748	946.342	743.013
145.643	22.999	945.429	743.287
146.658	22.938	944.462	742.203
147.673	22.579	943.027	739.504
148.687	22.386	941.939	737.778
149.702	22.214	941.004	736.257
150.716	22.022	939.987	734.593
151.731	22.115	938.591	733.827
152.746	22.038	938.225	733.154
153.760	22.151	937.939	733.337
154.775	22.120	937.468	732.774
155.789	22.501	936.178	733.291
156.804	22.401	935.838	732.543
157.819	22.369	934.789	731.521
158.833	22.548	933.900	731.506
159.848	22.603	933.598	731.431
160.862	22.743	933.530	731.894
161.877	22.803	931.965	730.852
162.892	22.422	930.965	728.425
163.906	22.010	929.869	725.801
164.921	22.032	928.766	724.966
165.935	21.751	927.823	723.009
166.950	21.872	926.857	722.689
167.964	22.246	925.817	723.354
168.979	22.235	925.360	722.887
169.994	22.100	923.855	721.094
171.008	22.086	922.769	720.127
172.023	22.065	922.658	719.891
173.037	22.522	921.630	720.892
174.052	22.694	921.567	721.485
175.067	22.531	920.661	720.046
176.081	22.320	919.198	717.975
177.096	21.841	918.193	715.174
178.110	21.794	917.348	714.261
179.125	21.774	916.632	713.560
180.140	21.790	915.535	712.705
181.154	21.823	915.496	712.749
182.169	22.310	914.838	714.150
183.183	22.380	914.819	714.355
184.198	22.707	913.771	714.800
185.213	22.508	913.355	713.605
186.227	22.425	912.983	712.915
187.242	22.421	912.575	712.519
188.256	22.713	911.347	712.675
189.271	22.733	910.926	712.364
190.286	22.927	910.169	712.490
191.300	22.729	909.451	711.069
192.315	21.968	908.376	707.101
193.329	21.535	907.318	704.470
194.344	21.617	906.525	704.123
195.359	21.883	906.270	704.934
196.373	21.971	906.306	705.253
197.388	22.259	905.885	706.017
198.402	22.566	905.135	706.603
199.417	22.782	905.226	707.475
200.432	23.016	904.587	707.853
201.446	23.152	904.734	708.448
202.461	23.171	904.142	707.999
203.475	23.185	903.693	707.638
204.490	23.140	902.810	706.705
205.504	22.632	901.285	703.424
206.519	22.522	900.583	702.375
207.534	22.514	900.161	701.953
208.548	22.457	899.349	701.028
209.563	22.520	898.800	700.792
210.577	22.468	897.966	699.872
211.592	22.521	897.545	699.693
212.607	22.774	897.647	700.713
213.621	23.093	897.018	701.426
214.636	23.069	896.170	700.607
215.650	22.857	895.701	699.337
216.665	22.828	895.040	698.645
217.680	22.800	894.812	698.296
218.694	22.968	894.186	698.410
219.709	22.990	893.700	698.056
220.723	22.894	892.851	696.951
221.738	22.706	892.343	695.749
222.753	22.636	891.139	694.477
223.767	22.712	890.621	694.309
224.782	22.727	890.082	693.885
225.796	22.806	889.818	693.931
226.811	22.974	888.790	693.726
227.826	23.062	888.112	693.480
228.840	22.530	887.273	690.681
229.855	22.437	886.611	689.737
230.869	22.427	886.253	689.361
231.884	22.483	885.152	688.663
232.899	22.415	884.391	687.743
233.913	22.342	883.942	687.047
234.928	22.296	883.402	686.389
235.942	22.177	882.546	685.197
236.957	22.167	881.396	684.206
237.972	21.778	880.878	682.229
238.986	22.039	879.886	682.415
240.001	22.125	879.390	682.303
241.015	21.960	879.100	681.377
242.030	21.932	878.781	680.961
243.045	22.274	878.206	681.783
244.059	22.433	877.698	681.943
245.074	22.397	877.074	681.258
246.088	22.582	876.206	681.239
247.103	22.766	876.178	681.868
248.117	22.843	876.073	682.023
249.132	23.045	876.024	682.706
250.147	23.506	875.827	684.272
251.161	23.864	875.442	685.291
252.176	24.076	874.727	685.487
253.190	24.012	874.126	684.709
254.205	24.056	873.806	684.567
255.220	24.142	873.219	684.376
256.234	23.861	872.480	682.657
257.249	23.785	871.704	681.697
258.263	23.721	871.112	680.931
259.278	23.676	870.539	680.251
260.293	23.592	869.990	679.438
261.307	23.694	869.381	679.291
262.322	23.705	869.353	679.252
263.336	24.004	868.732	679.852
264.351	23.898	868.374	679.106
265.366	23.634	867.385	677.263
266.380	23.631	866.741	676.689
267.395	23.823	866.548	677.211
268.409	23.798	865.563	676.286
269.424	23.595	864.831	674.883
270.439	23.568	864.198	674.227
271.453	23.561	863.317	673.451
272.468	23.401	862.271	671.970
273.482	23.403	861.742	671.506
274.497	23.537	861.356	671.652
275.512	23.589	860.408	671.051
276.526	23.378	859.871	669.776
277.541	23.404	859.681	669.668
278.555	23.669	858.631	669.790
279.570	23.647	858.673	669.681
280.585	24.097	858.391	671.096
281.599	24.014	857.865	670.312
282.614	23.880	857.008	669.081
283.628	23.410	856.358	666.748
284.643	23.183	855.479	665.152
285.657	23.483	854.948	665.804
286.672	23.421	854.491	665.159
287.687	23.403	854.408	664.966
288.701	23.490	853.882	664.823
289.716	23.650	853.190	664.827
290.730	23.501	852.032	663.309
291.745	23.567	851.868	663.367
292.760	23.540	851.614	663.010
293.774	23.709	850.583	662.782
294.789	24.141	850.489	664.260
295.803	24.199	850.170	664.167
296.818	23.714	849.461	661.748
297.833	23.582	848.519	660.464
298.847	23.506	847.864	659.616
299.862	23.666	846.718	659.257
300.876	23.576	846.528	658.717
301.891	23.940	846.055	659.641
302.906	24.041	846.042	659.947
303.920	24.103	845.529	659.719
304.935	24.411	844.975	660.369
305.949	24.549	844.234	660.241
306.964	24.374	843.888	659.266
307.979	23.965	843.144	657.117
308.993	23.790	842.366	655.804
310.008	23.976	841.776	655.973
311.022	24.142	841.610	656.397
312.037	24.076	840.968	655.595
313.052	23.951	840.412	654.644
314.066	23.583	839.669	652.655
315.081	23.089	838.981	650.247
316.095	23.216	837.962	649.866
317.110	23.351	837.588	650.015
318.125	23.328	836.953	649.377
319.139	23.274	836.583	648.835
320.154	23.137	835.829	647.694
321.168	23.070	835.088	646.816
322.183	23.238	834.627	647.015
323.197	23.338	834.176	646.976
324.212	23.531	833.639	647.206
325.227	23.392	833.113	646.232
326.241	23.410	832.547	645.800
327.256	23.313	832.067	645.020
328.270	23.235	831.483	644.225
329.285	23.199	831.151	643.782
330.300	23.129	830.255	642.774
331.314	23.105	829.684	642.188
332.329	23.141	829.114	641.820
333.343	23.339	829.127	642.494
334.358	23.755	828.241	643.257
335.373	23.695	827.979	642.780
336.387	23.892	827.229	642.850
337.402	23.862	827.221	642.681
338.416	24.060	826.714	642.946
339.431	24.270	826.411	643.411
340.446	24.472	825.841	643.638
341.460	24.675	825.397	643.966
342.475	24.583	824.957	643.236
343.489	24.635	824.620	643.101
344.504	24.686	824.489	643.128
345.519	24.775	823.783	642.838
346.533	24.865	823.199	642.651
347.548	24.822	822.594	641.965
348.562	24.434	822.051	640.095
349.577	24.189	821.171	638.473
350.592	24.115	820.294	637.473
351.606	24.023	819.700	636.624
352.621	23.820	819.382	635.596
353.635	23.782	819.059	635.154
354.650	23.880	818.362	634.904
355.665	23.980	817.995	634.922
356.679	24.065	817.324	634.648
357.694	24.050	817.302	634.520
358.708	24.122	816.797	634.329
359.723	24.078	815.771	633.320
360.738	24.036	815.196	632.667
361.752	24.027	814.827	632.292
362.767	24.115	814.503	632.300
363.781	24.449	814.082	633.101
364.796	24.702	814.341	634.143
365.810	24.858	813.978	634.359
366.825	24.861	813.552	633.981
367.840	24.997	813.503	634.366
368.854	24.998	812.774	633.746
369.869	24.730	811.835	632.011
370.883	24.636	811.065	631.024
371.898	24.472	810.599	630.026
372.913	24.582	809.994	629.888
373.927	24.838	810.114	630.830
374.942	24.706	809.403	629.755
375.956	24.540	808.319	628.273
376.971	24.694	807.909	628.438
377.986	24.869	807.323	628.541
379.000	24.994	806.877	628.578
380.015	25.157	806.348	628.681
381.029	25.056	806.066	628.054
382.044	25.143	805.344	627.738
383.059	24.988	804.843	626.751
384.073	25.230	803.921	626.821
385.088	25.057	803.408	625.763
386.102	24.658	802.831	623.867
387.117	24.388	802.036	622.252
388.132	24.401	801.333	621.697
389.146	24.283	800.903	620.897
390.161	24.518	800.404	621.273
391.175	24.624	800.456	621.627
392.190	24.943	800.648	622.830
393.205	24.907	799.736	621.943
394.219	24.427	799.230	619.827
395.234	24.255	798.234	618.402
396.248	23.931	797.561	616.703
397.263	23.969	797.393	616.649
398.278	24.067	796.997	616.627
399.292	23.951	796.489	615.777
400.307	23.921	795.523	614.873
401.321	23.889	795.410	614.623
402.336	23.862	794.956	614.122
403.350	24.188	794.722	615.015
404.365	24.464	794.654	615.858
405.380	24.647	794.685	616.461
406.394	25.043	794.302	617.472
407.409	25.411	793.859	618.340
408.423	25.401	793.279	617.799
409.438	25.289	793.023	617.162
410.453	25.360	792.953	617.296
411.467	25.510	792.135	617.121
412.482	25.280	791.441	615.734
413.496	25.239	791.139	615.307
414.511	25.432	790.999	615.805
415.526	25.437	790.660	615.502
416.540	25.344	790.379	614.910
417.555	25.300	789.824	614.273
418.569	25.230	788.918	613.274
419.584	25.188	788.574	612.810
420.599	25.223	788.552	612.858
421.613	162.327	1369.450	1796.528
422.628	140.605	1454.102	1796.652
