DTS Sentinel unit serial number:	SN413079Multiplexer serial number:	ORYXHardware model number:	OX4-SRSoftware version number:	ORYX F/W v4.00 Oryx Data Collector v3.7.2.0data status	okinstallation	princeton_trtdifferential loss correction	single-endedforward channel	channel 3reverse channel	N/Adate	2019/09/17time	21:32:35forward acquisition time	60.00reverse acquisition time	0.00gamma	496.2192k internal	0.2343k external	0.2343temperature offset calibration	0.9948default loss term (dB/km)	0.3790temperature slope calibration	1.0000multiplexer offset coefficient	1.0000multiplexer slope coefficient	1.0000fibre end	0.00T internal ref (°C)	27.06T ext. ref 1 (°C)	0.19T ext. ref 2 (°C)	19.27length (m)	temperature (°C)	Stokes	anti-Stokes-747.200	800.000	0.051	0.142
-746.185	375.988	0.074	-0.152
-745.171	-105.755	-0.018	-0.004
-744.156	14.446	-0.381	0.298
-743.142	-200.000	-0.026	-0.192
-742.127	-24.621	0.162	-0.097
-741.112	45.793	-0.267	-0.247
-740.098	-124.701	0.295	-0.046
-739.083	-84.560	0.232	0.073
-738.069	88.248	-0.157	0.175
-737.054	800.000	0.045	-0.146
-736.039	-114.725	-0.178	0.034
-735.025	125.935	0.207	0.262
-734.010	458.425	-0.189	0.421
-732.996	-200.000	-0.044	0.247
-731.981	379.519	-0.148	-0.303
-730.966	800.000	0.075	0.268
-729.952	298.898	-0.137	0.252
-728.937	-92.658	-0.204	0.057
-727.923	-175.323	-0.397	0.011
-726.908	-58.496	0.238	0.103
-725.894	-39.035	-0.040	-0.021
-724.879	46.584	0.241	-0.224
-723.864	476.546	0.095	0.215
-722.850	237.827	-0.136	0.225
-721.835	-200.000	0.008	0.100
-720.821	221.016	0.176	-0.283
-719.806	-127.164	-0.256	0.037
-718.791	277.806	-0.079	0.141
-717.777	-167.887	-0.062	0.002
-716.762	-200.000	-0.074	0.332
-715.748	-85.151	0.049	-0.015
-714.733	-200.000	0.034	-0.302
-713.718	259.984	0.151	-0.261
-712.704	435.187	-0.116	-0.252
-711.689	-67.384	0.057	-0.022
-710.675	-71.675	-0.077	0.029
-709.660	97.907	-0.229	-0.264
-708.645	800.000	0.013	-0.047
-707.631	-80.162	-0.063	0.021
-706.616	30.925	-0.146	-0.125
-705.602	198.664	-0.064	0.098
-704.587	170.497	-0.124	-0.178
-703.572	228.952	0.105	-0.172
-702.558	-33.452	-0.229	0.127
-701.543	-200.000	0.000	-0.438
-700.529	-61.903	-0.227	0.095
-699.514	13.668	-0.150	-0.116
-698.499	-17.366	0.229	0.144
-697.485	-200.000	-0.006	0.050
-696.470	125.149	-0.256	0.322
-695.456	-27.215	-0.336	0.195
-694.441	-55.386	-0.281	0.126
-693.426	800.000	0.079	0.256
-692.412	-44.269	0.238	-0.119
-691.397	-109.567	-0.268	0.057
-690.383	-39.932	0.207	-0.108
-689.368	-41.783	0.055	-0.028
-688.354	-200.000	-0.047	0.298
-687.339	800.000	-0.069	-0.300
-686.324	800.000	-0.040	-0.128
-685.310	-168.873	-0.259	-0.010
-684.295	-149.508	-0.090	-0.007
-683.281	276.273	0.082	0.145
-682.266	-101.689	0.110	0.027
-681.251	-79.567	0.189	-0.064
-680.237	800.000	-0.073	0.256
-679.222	-75.695	0.065	-0.023
-678.208	9.627	0.151	0.115
-677.193	449.599	0.096	-0.212
-676.178	330.506	-0.185	-0.355
-675.164	-15.788	0.074	-0.047
-674.149	537.468	-0.105	0.249
-673.135	-200.000	-0.055	0.252
-672.120	-162.032	-0.415	-0.021
-671.105	284.221	-0.078	-0.139
-670.091	14.501	-0.126	-0.098
-669.076	437.287	-0.140	-0.305
-668.062	80.035	0.077	-0.083
-667.047	-86.540	0.254	-0.078
-666.032	-200.000	0.015	-0.231
-665.018	-124.273	-0.254	-0.040
-664.003	-48.992	0.304	-0.145
-662.989	-200.000	-0.023	0.301
-661.974	-96.010	0.035	-0.009
-660.959	67.323	0.203	-0.206
-659.945	-41.953	-0.163	0.083
-658.930	-200.000	-0.003	-0.073
-657.916	161.663	-0.165	-0.231
-656.901	800.000	0.018	0.060
-655.886	800.000	0.090	0.285
-654.872	-51.391	-0.134	0.063
-653.857	-200.000	0.061	0.334
-652.843	-97.753	-0.155	0.040
-651.828	157.717	0.113	-0.156
-650.814	-200.000	-0.051	0.335
-649.799	556.367	0.191	-0.458
-648.784	546.624	-0.064	0.152
-647.770	-168.983	-0.394	0.015
-646.755	-200.000	-0.029	0.289
-645.741	-200.000	-0.045	-0.333
-644.726	42.619	-0.260	0.236
-643.711	-84.048	-0.367	0.116
-642.697	148.472	0.218	-0.294
-641.682	40.407	0.185	-0.167
-640.668	659.714	-0.192	-0.492
-639.653	-175.129	-0.353	-0.010
-638.638	-25.899	-0.266	0.156
-637.624	-200.000	-0.011	0.143
-636.609	740.659	0.047	0.127
-635.595	-200.000	0.001	0.019
-634.580	-112.496	0.285	-0.057
-633.565	-200.000	-0.069	0.324
-632.551	-200.000	0.035	0.213
-631.536	-98.186	-0.183	-0.047
-630.522	-131.016	-0.200	-0.027
-629.507	-7.455	0.021	0.014
-628.492	-55.457	-0.197	-0.088
-627.478	-200.000	0.060	0.270
-626.463	133.616	-0.227	0.293
-625.449	180.744	-0.034	-0.050
-624.434	81.041	-0.137	0.147
-623.419	42.464	0.134	0.121
-622.405	-42.269	-0.215	-0.110
-621.390	-4.485	0.131	0.090
-620.376	492.552	-0.011	-0.024
-619.361	-21.739	-0.251	0.152
-618.346	-19.016	0.015	-0.009
-617.332	-23.017	-0.423	-0.254
-616.317	-134.136	-0.095	0.012
-615.303	-56.505	-0.327	0.144
-614.288	-96.979	-0.131	-0.034
-613.273	-41.416	-0.047	-0.024
-612.259	-200.000	0.003	-0.341
-611.244	-130.478	-0.173	0.023
-610.230	-64.255	0.060	0.024
-609.215	800.000	0.092	-0.263
-608.201	-200.000	0.015	-0.357
-607.186	-64.882	-0.104	-0.042
-606.171	-200.000	-0.040	-0.178
-605.157	-121.705	-0.151	-0.025
-604.142	-29.782	0.112	0.064
-603.128	-118.328	-0.356	0.063
-602.113	-32.335	-0.177	0.099
-601.098	-200.000	-0.012	0.094
-600.084	-200.000	-0.036	-0.293
-599.069	800.000	0.040	-0.126
-598.055	321.893	0.050	0.095
-597.040	-45.238	0.256	-0.126
-596.025	296.206	0.005	0.008
-595.011	7.526	-0.145	-0.108
-593.996	279.158	-0.114	0.203
-592.982	-160.664	-0.317	0.017
-591.967	-28.690	-0.188	0.107
-590.952	-96.498	0.175	-0.046
-589.938	-28.462	-0.075	-0.043
-588.923	800.000	-0.088	-0.249
-587.909	95.581	0.151	-0.172
-586.894	800.000	0.076	0.213
-585.879	75.089	-0.103	-0.108
-584.865	-93.099	-0.215	-0.059
-583.850	57.108	0.120	-0.117
-582.836	-105.078	0.108	0.024
-581.821	-129.396	-0.231	-0.032
-580.806	89.551	0.080	0.089
-579.792	588.354	0.020	-0.049
-578.777	154.153	0.256	-0.349
-577.763	800.000	-0.134	-0.385
-576.748	-6.867	-0.354	0.239
-575.733	-4.839	-0.311	0.213
-574.719	800.000	0.049	0.164
-573.704	-200.000	0.039	0.299
-572.690	132.125	0.059	-0.076
-571.675	531.634	0.129	-0.304
-570.661	800.000	0.108	0.355
-569.646	651.387	-0.122	0.312
-568.631	-3.489	-0.077	0.053
-567.617	800.000	-0.111	0.318
-566.602	124.514	0.133	0.166
-565.588	-104.680	-0.182	-0.042
-564.573	-76.308	-0.567	0.198
-563.558	9.907	0.105	-0.079
-562.544	-66.081	-0.063	0.025
-561.529	-34.015	-0.119	0.065
-560.515	397.943	0.099	0.206
-559.500	0.627	-0.211	0.150
-558.485	-33.978	-0.223	0.122
-557.471	800.000	-0.030	-0.093
-556.456	67.551	0.169	-0.172
-555.442	-200.000	-0.034	0.161
-554.427	120.987	-0.037	-0.045
-553.412	-96.030	0.184	-0.049
-552.398	-166.275	-0.399	-0.017
-551.383	-88.320	-0.118	0.035
-550.369	66.302	0.067	-0.068
-549.354	-91.269	0.316	0.090
-548.339	-62.094	0.156	0.065
-547.325	219.545	-0.118	-0.188
-546.310	-150.487	-0.355	0.027
-545.296	36.144	-0.157	-0.137
-544.281	-126.675	0.194	0.028
-543.266	340.911	0.036	0.069
-542.252	73.543	0.148	-0.154
-541.237	-170.182	-0.023	-0.001
-540.223	800.000	-0.060	0.187
-539.208	523.401	-0.134	0.312
-538.193	-200.000	0.012	0.274
-537.179	-122.366	-0.221	-0.036
-536.164	-61.640	0.407	-0.169
-535.150	-35.670	-0.451	-0.243
-534.135	32.095	-0.091	-0.078
-533.121	395.859	0.048	0.100
-532.106	-59.581	0.316	-0.135
-531.091	270.997	0.184	0.322
-530.077	-75.426	-0.480	-0.170
-529.062	-76.748	0.225	-0.078
-528.048	-200.000	-0.046	0.208
-527.033	60.226	0.288	0.283
-526.018	-66.813	-0.458	-0.180
-525.004	6.065	-0.028	-0.021
-523.989	-139.123	0.121	-0.013
-522.975	364.887	0.152	-0.304
-521.960	800.000	-0.124	0.350
-520.945	800.000	-0.024	0.093
-519.931	-200.000	-0.005	-0.022
-518.916	-50.865	-0.121	0.056
-517.902	-189.688	-0.245	-0.003
-516.887	800.000	-0.024	0.089
-515.872	800.000	-0.098	0.347
-514.858	-81.650	0.184	0.060
-513.843	134.399	0.072	-0.093
-512.829	24.178	0.235	0.192
-511.814	800.000	0.052	-0.214
-510.799	-200.000	0.010	-0.212
-509.785	178.844	-0.026	0.037
-508.770	-174.848	0.077	0.002
-507.756	-52.012	-0.112	-0.052
-506.741	-46.945	0.157	0.076
-505.726	-88.571	0.183	0.054
-504.712	800.000	-0.045	0.175
-503.697	326.487	-0.069	0.132
-502.683	-200.000	0.009	-0.276
-501.668	132.800	0.135	0.173
-500.653	80.751	0.295	-0.315
-499.639	-200.000	-0.066	-0.327
-498.624	-200.000	0.016	-0.257
-497.610	-96.770	0.247	-0.064
-496.595	-200.000	-0.046	0.207
-495.581	533.762	0.132	0.310
-494.566	472.190	0.139	0.309
-493.551	28.707	0.120	0.101
-492.537	736.330	0.005	0.012
-491.522	86.346	-0.077	-0.085
-490.508	271.323	0.073	-0.128
-489.493	-200.000	-0.034	-0.393
-488.478	428.736	0.151	-0.323
-487.464	800.000	-0.050	-0.196
-486.449	142.444	0.078	0.103
-485.435	263.750	0.201	-0.346
-484.420	79.385	0.181	-0.193
-483.405	530.023	-0.066	-0.155
-482.391	271.012	-0.147	-0.256
-481.376	-43.078	-0.116	0.058
-480.362	171.982	0.138	-0.196
-479.347	-200.000	0.008	-0.188
-478.332	-83.744	-0.112	0.036
-477.318	-200.000	0.027	-0.240
-476.303	-180.243	-0.217	-0.005
-475.289	-23.313	0.210	0.125
-474.274	-150.804	-0.109	-0.008
-473.259	72.935	-0.103	-0.107
-472.245	173.983	-0.165	-0.237
-471.230	-200.000	0.010	-0.207
-470.216	-18.059	-0.226	-0.140
-469.201	46.825	-0.128	0.117
-468.186	-117.273	-0.136	0.024
-467.172	-58.139	-0.201	-0.087
-466.157	273.294	0.067	-0.118
-465.143	-200.000	0.020	-0.135
-464.128	800.000	0.062	-0.233
-463.113	-69.727	0.210	0.080
-462.099	-14.630	0.053	0.034
-461.084	132.423	0.186	0.238
-460.070	-90.663	-0.179	-0.051
-459.055	284.822	-0.138	-0.245
-458.040	-200.000	-0.020	-0.171
-457.026	-119.009	0.183	0.032
-456.011	-28.937	0.260	0.148
-454.997	85.345	0.242	0.263
-453.982	164.126	-0.133	-0.185
-452.968	453.665	-0.071	0.155
-451.953	-101.431	-0.150	-0.036
-450.938	221.730	-0.160	0.255
-449.924	226.191	0.259	0.416
-448.909	282.115	0.143	0.253
-447.895	-102.821	0.221	-0.052
-446.880	182.477	-0.009	-0.013
-445.865	800.000	0.074	-0.277
-444.851	111.004	0.176	-0.210
-443.836	76.203	0.013	-0.013
-442.822	168.269	-0.041	0.058
-441.807	-200.000	-0.001	0.239
-440.792	34.532	-0.161	-0.140
-439.778	56.572	-0.084	-0.081
-438.763	-200.000	-0.046	-0.269
-437.749	-85.514	0.133	-0.041
-436.734	-122.224	-0.126	0.020
-435.719	-200.000	-0.218	-0.001
-434.705	-101.608	0.184	-0.044
-433.690	-158.493	0.250	-0.014
-432.676	-200.000	-0.004	-0.061
-431.661	-102.166	0.273	0.065
-430.646	-200.000	0.018	-0.133
-429.632	-130.838	0.370	0.049
-428.617	67.236	0.164	0.166
-427.603	-131.799	-0.207	-0.027
-426.588	800.000	0.139	0.544
-425.573	796.276	-0.071	0.193
-424.559	0.006	-0.031	0.022
-423.544	238.146	-0.046	0.076
-422.530	61.333	-0.193	0.190
-421.515	-98.315	0.375	-0.095
-420.500	167.325	-0.212	-0.298
-419.486	108.199	0.251	0.296
-418.471	197.066	-0.091	0.138
-417.457	444.243	-0.124	0.269
-416.442	-200.000	0.022	-0.281
-415.428	-130.206	0.149	-0.020
-414.413	7.205	0.355	-0.262
-413.398	114.939	-0.283	-0.341
-412.384	-104.181	0.183	-0.042
-411.369	-158.365	0.484	0.028
-410.355	-57.086	-0.144	-0.063
-409.340	-100.926	-0.095	0.023
-408.325	-117.275	0.190	0.034
-407.311	800.000	-0.041	0.152
-406.296	-200.000	-0.003	-0.235
-405.282	77.653	-0.113	-0.119
-404.267	226.021	0.086	0.138
-403.252	78.375	-0.099	0.104
-402.238	-68.260	-0.304	0.117
-401.223	-200.000	0.011	0.189
-400.209	800.000	-0.097	0.348
-399.194	800.000	-0.122	0.470
-398.179	139.339	-0.163	0.213
-397.165	346.826	0.118	0.229
-396.150	-62.618	0.179	-0.074
-395.136	598.623	-0.153	0.375
-394.121	-133.216	-0.088	-0.011
-393.106	800.000	-0.160	0.489
-392.092	25.175	-0.162	0.133
-391.077	800.000	0.045	0.143
-390.063	-124.238	0.119	0.018
-389.048	-23.840	-0.216	-0.128
-388.033	8.904	-0.198	0.147
-387.019	-116.923	0.176	-0.032
-386.004	45.188	0.249	-0.227
-384.990	798.321	0.084	-0.230
-383.975	-17.867	0.145	-0.090
-382.960	739.267	0.104	0.275
-381.946	-200.000	0.008	-0.073
-380.931	-119.629	0.099	-0.017
-379.917	800.000	0.104	0.404
-378.902	-200.000	0.015	0.125
-377.888	-164.517	0.093	0.004
-376.873	68.077	-0.086	0.087
-375.858	57.144	0.336	0.324
-374.844	89.555	0.186	0.205
-373.829	-63.531	0.147	0.060
-372.815	354.410	-0.068	-0.133
-371.800	72.763	-0.038	0.039
-370.785	634.647	0.043	0.107
-369.771	91.212	0.217	0.240
-368.756	-200.000	-0.023	0.178
-367.742	-77.567	0.440	-0.150
-366.727	199.105	-0.033	-0.049
-365.712	61.720	-0.162	0.160
-364.698	94.639	-0.127	0.142
-363.683	88.687	-0.240	0.263
-362.669	322.772	-0.005	-0.009
-361.654	800.000	0.055	-0.194
-360.639	-8.699	0.118	0.078
-359.625	515.362	0.083	-0.192
-358.610	-200.000	-0.070	-0.309
-357.596	-200.000	-0.019	0.150
-356.581	-200.000	-0.010	0.081
-355.566	730.117	0.096	-0.253
-354.552	92.160	0.071	0.079
-353.537	356.620	0.146	-0.287
-352.523	800.000	0.092	-0.303
-351.508	211.994	-0.092	0.143
-350.493	-96.834	0.267	0.069
-349.479	-91.553	-0.154	0.043
-348.464	-52.878	-0.158	0.072
-347.450	-85.678	0.096	0.030
-346.435	-95.729	0.081	0.021
-345.420	-200.000	0.025	0.225
-344.406	584.614	-0.082	-0.198
-343.391	-131.250	0.470	-0.062
-342.377	-118.021	-0.468	-0.083
-341.362	374.986	0.088	0.177
-340.348	-200.000	0.039	-0.181
-339.333	607.493	-0.103	-0.254
-338.318	55.052	-0.177	0.169
-337.304	114.004	-0.225	0.270
-336.289	800.000	0.041	0.168
-335.275	178.557	-0.097	-0.139
-334.260	51.607	0.221	-0.207
-333.245	-13.500	0.072	0.046
-332.231	-3.978	-0.449	-0.307
-331.216	88.851	0.203	0.222
-330.202	-200.000	0.016	0.163
-329.187	53.253	0.190	-0.179
-328.172	626.339	-0.099	-0.246
-327.158	455.859	0.083	-0.181
-326.143	40.738	-0.164	-0.145
-325.129	69.950	-0.170	0.173
-324.114	-123.864	-0.186	-0.029
-323.099	-137.239	-0.347	0.039
-322.085	343.981	0.189	-0.365
-321.070	47.251	-0.235	0.216
-320.056	-200.000	-0.002	0.339
-319.041	-110.307	0.375	-0.077
-318.026	-200.000	-0.010	-0.128
-317.012	800.000	-0.053	0.150
-315.997	800.000	-0.033	0.126
-314.983	800.000	0.011	0.038
-313.968	114.798	-0.092	0.110
-312.953	-53.338	-0.099	-0.045
-311.939	-15.832	0.203	0.127
-310.924	230.738	0.135	-0.218
-309.910	-199.760	0.459	-0.002
-308.895	111.546	-0.112	-0.133
-307.880	-135.132	0.206	0.024
-306.866	-200.000	0.032	0.210
-305.851	-94.872	0.222	0.059
-304.837	312.867	0.074	-0.137
-303.822	800.000	-0.071	0.299
-302.807	-120.502	0.311	-0.052
-301.793	-67.710	0.178	-0.069
-300.778	800.000	0.102	-0.369
-299.764	761.712	0.134	0.358
-298.749	800.000	-0.207	-0.588
-297.735	-108.151	-0.206	-0.044
-296.720	538.160	-0.001	0.002
-295.705	-83.190	0.474	0.150
-294.691	-180.382	0.324	-0.007
-293.676	-70.814	0.222	-0.083
-292.662	-159.107	0.133	-0.007
-291.647	15.133	-0.135	0.104
-290.632	589.779	0.116	0.281
-289.618	43.093	0.130	-0.117
-288.603	8.273	-0.110	-0.081
-287.589	-126.495	-0.287	-0.042
-286.574	-24.427	0.124	0.073
-285.559	63.394	0.230	0.227
-284.545	-12.320	0.200	0.128
-283.530	334.641	0.102	0.194
-282.516	-44.800	0.179	-0.088
-281.501	-200.000	-0.012	0.143
-280.486	-200.000	0.037	-0.180
-279.472	50.142	-0.174	-0.162
-278.457	-32.264	-0.248	-0.136
-277.443	-77.158	-0.298	-0.102
-276.428	-23.695	0.407	0.240
-275.413	182.426	-0.148	0.215
-274.399	-200.000	0.004	0.061
-273.384	46.836	-0.036	0.033
-272.370	-140.175	-0.125	-0.013
-271.355	54.813	0.245	-0.233
-270.340	800.000	-0.081	-0.282
-269.326	800.000	-0.159	0.451
-268.311	463.388	-0.190	0.418
-267.297	-142.512	-0.399	0.038
-266.282	-10.159	-0.178	0.116
-265.267	209.720	-0.228	-0.351
-264.253	306.838	0.087	0.160
-263.238	-27.728	0.254	-0.145
-262.224	-200.000	-0.022	-0.117
-261.209	-95.047	0.174	0.046
-260.195	800.000	0.051	-0.217
-259.180	-105.207	0.178	-0.040
-258.165	239.507	0.044	-0.073
-257.151	-107.378	0.246	-0.053
-256.136	-200.000	0.001	0.111
-255.122	-21.380	-0.176	-0.105
-254.107	-6.495	0.079	0.053
-253.092	-66.958	-0.039	-0.015
-252.078	-197.261	0.171	0.001
-251.063	-130.430	0.271	-0.036
-250.049	-94.515	0.308	0.082
-249.034	-28.785	-0.237	0.134
-248.019	195.739	0.045	-0.067
-247.005	-73.370	0.567	0.203
-245.990	-134.668	-0.219	0.026
-244.976	-200.000	-0.035	0.340
-243.961	800.000	-0.069	0.278
-242.946	9.420	0.132	-0.098
-241.932	-200.000	-0.013	-0.094
-240.917	-95.385	-0.316	-0.083
-239.903	-142.479	-0.151	0.015
-238.888	565.906	0.131	0.313
-237.873	-125.035	0.349	-0.053
-236.859	190.951	0.109	-0.161
-235.844	320.598	-0.141	0.264
-234.830	-7.613	0.144	-0.096
-233.815	-11.943	-0.466	-0.300
-232.800	-69.905	0.206	-0.077
-231.786	75.948	0.092	0.096
-230.771	-9.908	-0.280	-0.183
-229.757	-178.323	0.277	-0.006
-228.742	48.455	-0.202	0.186
-227.727	8.664	-0.212	0.157
-226.713	-140.403	-0.134	-0.014
-225.698	-200.000	-0.038	0.170
-224.684	126.729	0.243	-0.302
-223.669	500.703	-0.123	0.279
-222.655	42.816	0.048	-0.042
-221.640	-200.000	-0.068	-0.300
-220.625	118.784	0.199	-0.242
-219.611	92.220	-0.226	-0.249
-218.596	-77.363	0.145	0.049
-217.582	14.935	0.134	0.103
-216.567	143.674	0.184	0.241
-215.552	147.427	-0.216	-0.286
-214.538	98.454	0.034	0.039
-213.523	-122.261	-0.306	-0.049
-212.509	-135.523	-0.201	0.024
-211.494	225.969	-0.180	-0.285
-210.479	-200.000	0.006	-0.167
-209.465	-98.796	-0.178	-0.044
-208.450	91.466	0.079	0.087
-207.436	283.827	-0.125	0.220
-206.421	-200.000	0.021	-0.147
-205.406	-66.942	0.151	-0.059
-204.392	-200.000	0.011	-0.084
-203.377	114.904	0.146	-0.175
-202.363	55.722	0.199	-0.189
-201.348	-91.384	-0.371	-0.104
-200.333	256.851	0.181	0.306
-199.319	-56.257	0.235	-0.102
-198.304	113.888	-0.072	-0.086
-197.290	313.089	0.125	-0.231
-196.275	23.953	-0.047	-0.038
-195.260	-200.000	-0.009	0.187
-194.246	-59.769	0.452	-0.190
-193.231	701.659	-0.120	0.311
-192.217	86.328	-0.093	-0.100
-191.202	-161.621	0.240	0.012
-190.187	800.000	-0.008	-0.030
-189.173	-200.000	0.022	-0.142
-188.158	-20.201	0.160	-0.096
-187.144	139.200	-0.045	-0.058
-186.129	-99.875	-0.252	0.062
-185.114	12.420	0.170	0.128
-184.100	469.684	-0.031	-0.069
-183.085	12.186	0.231	-0.174
-182.071	-74.939	-0.308	-0.108
-181.056	800.000	0.057	-0.193
-180.042	-200.000	0.046	-0.297
-179.027	63.589	-0.050	-0.049
-178.012	37.611	-0.226	0.196
-176.998	-39.478	0.358	-0.184
-175.983	-17.121	-0.156	-0.096
-174.969	800.000	-0.120	0.328
-173.954	-200.000	0.008	0.138
-172.939	-58.843	0.195	-0.083
-171.925	3.490	0.052	0.037
-170.910	37.195	0.135	0.117
-169.896	376.674	-0.126	-0.252
-168.881	-32.653	-0.114	-0.062
-167.866	-200.000	0.000	-0.092
-166.852	257.789	0.043	-0.073
-165.837	-200.000	0.003	0.070
-164.823	800.000	0.062	-0.232
-163.808	-132.182	0.145	-0.018
-162.793	-75.480	0.101	0.035
-161.779	-168.164	-0.322	0.012
-160.764	396.374	0.193	0.394
-159.750	-146.027	-0.260	0.022
-158.735	-82.010	0.266	-0.085
-157.720	782.283	-0.053	0.142
-156.706	-169.207	0.275	0.010
-155.691	255.917	0.181	-0.303
-154.677	-80.758	-0.266	0.086
-153.662	800.000	-0.085	-0.232
-152.647	-111.410	-0.225	-0.045
-151.633	-200.000	0.010	-0.240
-150.618	461.156	0.007	0.016
-149.604	130.056	-0.022	0.027
-148.589	-112.662	-0.137	0.027
-147.574	147.802	0.014	0.018
-146.560	800.000	-0.029	-0.116
-145.545	-200.000	-0.007	-0.047
-144.531	-43.183	-0.324	0.161
-143.516	582.258	0.212	-0.508
-142.502	32.809	0.135	-0.114
-141.487	-200.000	0.045	0.289
-140.472	-200.000	-0.006	-0.030
-139.458	82.509	0.118	0.125
-138.443	-65.755	0.155	-0.061
-137.429	800.000	-0.062	-0.254
-136.414	-200.000	0.006	-0.076
-135.399	-200.000	0.004	0.094
-134.385	-76.872	-0.276	0.094
-133.370	-70.483	0.285	-0.106
-132.356	-149.603	-0.315	-0.024
-131.341	2.504	-0.328	0.232
-130.326	-115.037	-0.076	0.014
-129.312	-106.068	0.203	0.045
-128.297	123.843	0.013	0.016
-127.283	-62.228	0.255	0.104
-126.268	26.552	0.341	0.279
-125.253	125.754	-0.088	-0.109
-124.239	-200.000	0.060	0.414
-123.224	-42.681	0.258	0.129
-122.210	800.000	0.014	0.054
-121.195	270.186	0.215	-0.369
-120.180	800.000	0.092	0.260
-119.166	-200.000	0.006	0.103
-118.151	-200.000	0.004	-0.076
-117.137	33.975	0.202	0.172
-116.122	800.000	-0.160	0.539
-115.107	-200.000	-0.021	0.116
-114.093	-200.000	0.006	-0.199
-113.078	800.000	0.046	0.145
-112.064	138.922	-0.077	-0.099
-111.049	466.835	0.055	0.120
-110.034	-128.070	-0.270	-0.038
-109.020	-7.039	-0.234	0.155
-108.005	570.292	0.033	0.079
-106.991	-200.000	-0.008	-0.199
-105.976	-12.383	0.161	0.103
-104.962	-5.685	0.139	-0.093
-103.947	241.334	0.029	0.048
-102.932	20.524	-0.101	0.080
-101.918	598.218	-0.072	0.173
-100.903	-7.372	0.174	-0.115
-99.889	273.587	-0.156	-0.269
-98.874	-149.360	-0.198	0.015
-97.859	-11.662	0.203	-0.130
-96.845	-200.000	-0.010	-0.203
-95.830	-76.354	-0.076	-0.026
-94.816	-134.357	-0.108	0.013
-93.801	70.709	0.319	-0.323
-92.786	-157.197	0.096	0.006
-91.772	-122.142	0.113	-0.018
-90.757	-84.273	-0.139	-0.043
-89.743	-81.937	0.049	-0.016
-88.728	162.343	0.040	-0.055
-87.713	241.763	-0.101	0.165
-86.699	528.785	-0.088	-0.203
-85.684	-42.477	-0.145	-0.072
-84.670	-24.733	-0.149	0.087
-83.655	-65.067	-0.077	-0.030
-82.640	20.181	-0.084	-0.066
-81.626	-200.000	-0.041	0.399
-80.611	-200.000	0.016	-0.277
-79.597	-4.644	-0.264	0.178
-78.582	-20.045	-0.079	0.048
-77.567	201.381	0.056	0.085
-76.553	-72.051	0.241	0.087
-75.538	-85.141	-0.257	-0.078
-74.524	800.000	0.060	-0.235
-73.509	26.978	0.131	0.107
-72.494	119.387	0.206	0.249
-71.480	25.806	-0.372	0.302
-70.465	353.469	-0.201	-0.388
-69.451	541.264	-0.076	0.177
-68.436	-0.594	0.095	-0.066
-67.422	529.024	0.082	0.189
-66.407	-43.660	0.209	-0.103
-65.392	117.910	-0.145	-0.175
-64.378	-12.520	-0.267	0.170
-63.363	-200.000	0.048	0.223
-62.349	-122.630	0.260	0.041
-61.334	54.873	-1.123	-1.057
-60.319	78.131	0.302	0.314
-59.305	800.000	-0.347	-1.052
-58.290	196.298	0.939	1.394
-57.276	800.000	0.402	1.571
-56.261	-200.000	113.013	626.773
-55.246	463.255	1481.309	3225.129
-54.232	154.114	2637.708	3526.721
-53.217	98.382	2142.763	2406.805
-52.203	36.886	1674.219	1442.812
-51.188	30.237	1491.821	1241.258
-50.173	27.984	1466.747	1205.506
-49.159	49.117	1527.832	1398.950
-48.144	48.340	1543.286	1407.793
-47.130	30.317	1497.640	1246.439
-46.115	27.337	1482.377	1213.843
-45.100	27.141	1479.184	1209.880
-44.086	26.999	1477.759	1207.717
-43.071	27.020	1475.281	1205.785
-42.057	26.979	1474.209	1204.590
-41.042	27.031	1472.494	1203.488
-40.027	27.000	1471.459	1202.383
-39.013	26.973	1469.672	1200.700
-37.998	26.975	1468.515	1199.719
-36.984	27.033	1467.548	1199.267
-35.969	27.033	1466.254	1198.164
-34.954	27.110	1464.082	1196.843
-33.940	27.046	1463.389	1195.807
-32.925	27.015	1461.977	1194.404
-31.911	27.098	1460.764	1193.909
-30.896	27.051	1459.640	1192.636
-29.881	27.145	1458.179	1192.010
-28.867	27.083	1457.387	1190.913
-27.852	27.019	1455.901	1189.231
-26.838	27.127	1454.178	1188.485
-25.823	27.060	1452.580	1186.691
-24.809	27.107	1450.727	1185.438
-23.794	27.121	1449.714	1184.653
-22.779	27.169	1448.511	1183.937
-21.765	27.159	1447.520	1183.015
-20.750	27.105	1446.612	1181.873
-19.736	27.150	1445.475	1181.190
-18.721	27.087	1444.042	1179.564
-17.706	27.055	1443.451	1178.827
-16.692	27.118	1442.700	1178.577
-15.677	27.151	1441.131	1177.459
-14.663	27.045	1440.656	1176.337
-13.648	26.977	1439.515	1174.918
-12.633	27.021	1438.578	1174.397
-11.619	27.026	1437.984	1173.895
-10.604	27.036	1437.185	1173.259
-9.590	27.005	1436.077	1172.106
-8.575	27.041	1435.352	1171.704
-7.560	27.099	1433.807	1170.771
-6.546	27.011	1433.855	1170.197
-5.531	27.097	1432.658	1169.726
-4.517	27.051	1431.460	1168.407
-3.502	26.969	1430.945	1167.412
-2.487	27.022	1429.640	1166.642
-1.473	27.023	1428.859	1165.961
-0.458	26.985	1427.494	1164.561
0.556	25.023	1416.885	1151.063
1.571	21.356	1391.357	1107.046
2.586	17.179	1329.802	1032.639
3.600	15.416	1247.373	958.482
4.615	14.253	1204.427	918.983
5.629	12.372	1149.857	867.345
6.644	6.346	1069.267	776.822
7.659	1.049	1032.609	724.834
8.673	0.216	1026.932	716.825
9.688	0.234	1024.044	714.827
10.702	0.063	1023.098	713.292
11.717	0.237	1020.445	712.206
12.731	2.065	1022.154	721.988
13.746	8.847	1030.767	760.268
14.761	15.003	1038.580	795.303
15.775	16.828	1040.036	805.026
16.790	16.443	1038.559	801.987
17.804	15.470	1036.461	795.683
18.819	14.624	1034.497	790.104
19.834	14.190	1033.064	786.889
20.848	13.846	1032.672	784.893
21.863	13.659	1031.509	783.054
22.877	13.433	1030.872	781.438
23.892	13.195	1029.987	779.572
24.907	13.141	1029.420	778.820
25.921	13.142	1028.265	777.881
26.936	13.131	1027.977	777.545
27.950	13.239	1027.104	777.325
28.965	13.234	1026.661	776.898
29.980	13.358	1025.673	776.663
30.994	13.322	1024.948	775.874
32.009	13.384	1024.068	775.429
33.023	13.330	1023.468	774.656
34.038	13.335	1022.423	773.819
35.053	13.342	1021.729	773.260
36.067	13.222	1020.861	771.972
37.082	13.263	1019.839	771.322
38.096	13.330	1019.213	771.090
39.111	13.282	1018.457	770.230
40.126	13.178	1017.842	769.212
41.140	13.224	1016.540	768.376
42.155	13.285	1015.376	767.710
43.169	13.131	1014.603	766.344
44.184	13.246	1013.167	765.720
45.199	13.095	1012.585	764.514
46.213	13.180	1011.302	763.874
47.228	13.132	1010.461	762.948
48.242	13.316	1009.255	762.821
49.257	13.263	1008.502	761.937
50.271	13.139	1007.852	760.809
51.286	13.215	1006.915	760.382
52.301	13.351	1005.912	760.186
53.315	13.196	1005.149	758.827
54.330	13.189	1004.609	758.320
55.344	13.319	1003.160	757.755
56.359	13.158	1002.420	756.391
57.374	13.162	1001.902	755.955
58.388	13.242	1000.751	755.384
59.403	13.169	1000.335	754.671
60.417	13.156	999.546	753.948
61.432	13.220	998.390	753.303
62.447	13.213	997.876	752.816
63.461	13.062	997.301	751.626
64.476	13.028	996.611	750.886
65.490	13.112	995.632	750.463
66.505	13.199	994.638	750.041
67.520	13.146	993.883	749.166
68.534	13.153	992.947	748.428
69.549	13.142	992.400	747.901
70.563	13.251	991.096	747.340
71.578	13.126	990.995	746.633
72.593	13.230	989.970	746.266
73.607	13.061	989.260	744.903
74.622	12.998	987.992	743.598
75.636	12.965	987.374	742.918
76.651	12.993	986.714	742.482
77.666	13.089	986.101	742.387
78.680	12.991	985.334	741.302
79.695	13.097	984.672	741.216
80.709	13.126	983.819	740.637
81.724	13.160	983.249	740.296
82.739	13.099	982.414	739.328
83.753	13.183	981.376	738.858
84.768	13.230	980.806	738.571
85.782	13.305	980.276	738.442
86.797	13.334	979.722	738.092
87.812	13.350	978.342	737.055
88.826	13.178	977.892	735.888
89.841	13.232	977.085	735.456
90.855	13.341	975.659	734.800
91.870	13.249	974.956	733.795
92.884	13.342	974.720	733.969
93.899	13.365	974.060	733.507
94.914	13.434	972.941	732.904
95.928	13.458	972.547	732.652
96.943	13.439	971.916	732.026
97.957	13.438	970.633	730.990
98.972	13.333	970.205	730.141
99.987	13.195	969.632	729.035
101.001	13.456	968.621	729.361
102.016	13.394	968.162	728.677
103.030	13.344	966.858	727.409
104.045	13.445	966.154	727.260
105.060	13.419	965.127	726.311
106.074	13.477	964.083	725.713
107.089	13.332	963.377	724.482
108.103	13.187	962.977	723.482
109.118	13.250	961.499	722.585
110.133	13.128	961.039	721.643
111.147	13.181	960.090	721.098
112.162	13.103	959.590	720.318
113.176	13.390	958.392	720.606
114.191	13.263	957.719	719.484
115.206	13.347	956.637	718.972
116.220	13.145	956.284	717.762
117.235	13.258	954.794	717.071
118.249	13.325	954.111	716.786
119.264	13.324	953.519	716.274
120.279	13.219	952.764	715.188
121.293	13.176	951.890	714.284
122.308	13.233	950.960	713.769
123.322	13.363	950.282	713.757
124.337	13.180	949.248	712.128
125.352	13.171	948.360	711.361
126.366	13.151	947.294	710.414
127.381	13.173	945.890	709.393
128.395	13.176	945.226	708.842
129.410	13.167	944.025	707.840
130.424	13.348	943.041	707.816
131.439	13.228	942.205	706.614
132.454	13.229	941.644	706.133
133.468	13.262	940.835	705.605
134.483	13.233	940.359	705.064
135.497	13.323	939.260	704.561
136.512	13.393	938.337	704.104
137.527	13.275	937.762	703.109
138.541	13.218	937.541	702.638
139.556	13.364	936.344	702.296
140.570	13.361	935.628	701.686
141.585	13.398	934.764	701.131
142.600	13.318	934.357	700.426
143.614	13.371	933.390	699.862
144.629	13.336	933.038	699.389
145.643	13.489	931.524	698.840
146.658	13.452	931.075	698.286
147.673	13.447	930.570	697.823
148.687	13.385	929.700	696.847
149.702	13.307	928.904	695.863
150.716	13.396	927.967	695.471
151.731	13.376	926.791	694.445
152.746	13.395	925.908	693.803
153.760	13.349	925.454	693.208
154.775	13.444	924.792	693.048
155.789	13.500	923.908	692.557
156.804	13.484	923.250	691.938
157.819	13.614	922.626	691.952
158.833	13.653	921.921	691.524
159.848	13.628	921.306	690.897
160.862	13.423	920.938	689.705
161.877	13.595	919.857	689.549
162.892	13.578	919.242	688.957
163.906	13.505	918.374	687.942
164.921	13.533	917.254	687.158
165.935	13.545	916.704	686.735
166.950	13.518	915.868	685.936
167.964	13.576	914.981	685.450
168.979	13.558	913.852	684.473
169.994	13.516	912.966	683.575
171.008	13.570	912.106	683.091
172.023	13.580	911.854	682.885
173.037	13.642	910.955	682.406
174.052	13.621	909.620	681.261
175.067	13.510	909.739	680.831
176.081	13.641	908.615	680.469
177.096	13.484	907.786	679.143
178.110	13.577	906.722	678.666
179.125	13.651	906.068	678.423
180.140	13.716	905.411	678.134
181.154	13.702	904.526	677.355
182.169	13.716	904.027	676.980
183.183	13.814	903.399	676.849
184.198	13.732	902.728	675.951
185.213	13.752	902.248	675.616
186.227	13.915	901.220	675.446
187.242	13.903	901.306	675.403
188.256	13.787	900.571	674.320
189.271	13.974	899.747	674.403
190.286	13.823	898.966	673.146
191.300	13.811	898.254	672.506
192.315	13.744	897.138	671.338
193.329	13.636	897.075	670.797
194.344	13.753	896.096	670.478
195.359	13.763	895.795	670.234
196.373	13.818	895.143	669.906
197.388	13.904	894.484	669.703
198.402	13.940	893.882	669.335
199.417	13.976	893.728	669.306
200.432	14.115	893.002	669.265
201.446	14.107	892.914	669.108
202.461	14.001	892.878	668.593
203.475	14.146	892.149	668.572
204.490	14.123	891.422	667.875
205.504	14.124	890.667	667.255
206.519	14.062	889.379	665.981
207.534	14.117	889.055	665.901
208.548	14.047	888.228	664.944
209.563	14.101	887.599	664.627
210.577	14.066	886.834	663.857
211.592	14.133	886.255	663.631
212.607	14.290	886.019	664.023
213.621	14.319	885.251	663.506
214.636	14.302	884.391	662.733
215.650	14.206	884.127	662.096
216.665	14.207	883.439	661.527
217.680	14.254	882.788	661.165
218.694	14.226	882.671	660.910
219.709	14.326	882.225	660.913
220.723	14.319	881.483	660.272
221.738	14.261	880.623	659.338
222.753	14.342	879.839	659.014
223.767	14.305	879.448	658.518
224.782	14.502	878.090	658.220
225.796	14.448	877.507	657.509
226.811	14.396	877.313	657.100
227.826	14.465	876.597	656.779
228.840	14.358	875.904	655.779
229.855	14.459	875.441	655.774
230.869	14.410	874.471	654.796
231.884	14.306	874.065	654.025
232.899	14.434	873.005	653.676
233.913	14.442	872.446	653.230
234.928	14.483	871.909	652.931
235.942	14.466	871.390	652.420
236.957	14.436	870.325	651.448
237.972	14.524	869.440	651.071
238.986	14.481	869.412	650.825
240.001	14.542	868.375	650.228
241.015	14.422	868.312	649.655
242.030	14.513	867.448	649.306
243.045	14.581	866.556	648.846
244.059	14.489	866.361	648.284
245.074	14.649	865.513	648.215
246.088	14.699	865.023	647.984
247.103	14.602	864.306	647.012
248.117	14.620	863.899	646.723
249.132	14.594	863.477	646.247
250.147	14.651	862.725	645.847
251.161	14.786	862.143	645.877
252.176	14.773	861.415	645.223
253.190	14.750	861.087	644.831
254.205	14.813	860.378	644.489
255.220	14.993	859.226	644.260
256.234	15.006	858.475	643.691
257.249	14.895	858.242	643.032
258.263	14.909	857.675	642.605
259.278	14.935	857.049	642.177
260.293	14.883	857.029	641.908
261.307	15.040	856.357	641.947
262.322	14.982	855.105	640.732
263.336	15.056	854.850	640.767
264.351	14.999	854.393	640.148
265.366	15.056	853.663	639.766
266.380	15.179	853.054	639.720
267.395	15.285	852.111	639.363
268.409	15.273	851.619	638.889
269.424	15.072	851.066	637.654
270.439	15.241	850.409	637.746
271.453	15.307	849.411	637.194
272.468	15.192	848.696	636.163
273.482	15.164	848.400	635.778
274.497	15.103	847.839	635.072
275.512	15.004	847.144	634.120
276.526	15.310	846.000	634.364
277.541	15.325	845.623	634.084
278.555	15.118	845.008	632.783
279.570	15.209	844.419	632.632
280.585	15.280	844.005	632.530
281.599	15.444	843.262	632.538
282.614	15.232	843.075	631.542
283.628	15.319	842.481	631.367
284.643	15.322	841.736	630.765
285.657	15.369	841.412	630.644
286.672	15.388	840.763	630.173
287.687	15.470	839.805	629.706
288.701	15.384	839.831	629.347
289.716	15.426	839.574	629.257
290.730	15.511	838.500	628.714
291.745	15.468	837.903	628.051
292.760	15.535	837.174	627.698
293.774	15.444	836.745	626.983
294.789	15.587	836.195	627.047
295.803	15.560	835.635	626.472
296.818	15.532	835.074	625.893
297.833	15.560	834.189	625.278
298.847	15.598	833.428	624.792
299.862	15.552	833.025	624.264
300.876	15.532	832.645	623.851
301.891	15.543	831.871	623.257
302.906	15.610	831.322	623.036
303.920	15.622	830.395	622.333
304.935	15.599	830.159	622.014
305.949	15.822	829.311	622.148
306.964	15.817	828.671	621.595
307.979	15.794	828.175	621.084
308.993	15.740	827.980	620.683
310.008	15.790	827.165	620.203
311.022	15.807	826.802	619.938
312.037	15.830	826.271	619.570
313.052	15.767	825.844	618.964
314.066	15.750	824.999	618.210
315.081	15.771	824.515	617.871
316.095	15.652	823.957	616.963
317.110	15.743	823.421	616.838
318.125	15.706	822.746	616.143
319.139	15.787	822.283	616.040
320.154	15.763	821.995	615.680
321.168	15.824	821.304	615.332
322.183	15.866	820.864	615.101
323.197	15.809	820.164	614.314
324.212	16.053	819.637	614.756
325.227	15.845	819.338	613.720
326.241	15.968	818.644	613.593
327.256	15.882	818.175	612.872
328.270	15.885	817.732	612.498
329.285	15.974	816.915	612.155
330.300	15.938	816.336	611.536
331.314	15.965	815.524	610.972
332.329	15.934	815.241	610.595
333.343	16.042	814.937	610.704
334.358	16.133	814.245	610.459
335.373	15.955	813.968	609.555
336.387	16.228	812.864	609.659
337.402	16.023	812.724	608.759
338.416	16.351	811.876	609.256
339.431	16.059	811.395	607.789
340.446	16.197	810.718	607.724
341.460	16.244	810.489	607.666
342.475	16.283	810.016	607.400
343.489	16.292	809.460	606.960
344.504	16.269	808.551	606.144
345.519	16.361	808.262	606.202
346.533	16.440	808.050	606.273
347.548	16.393	807.580	605.699
348.562	16.310	807.077	604.971
349.577	16.620	806.102	605.294
350.592	16.282	805.959	603.926
351.606	16.361	805.416	603.748
352.621	16.358	804.706	603.153
353.635	16.328	804.196	602.608
354.650	16.448	804.046	602.871
355.665	16.310	803.491	601.908
356.679	16.446	803.181	602.110
357.694	16.508	802.647	601.877
358.708	16.423	802.199	601.184
359.723	16.468	801.731	600.940
360.738	16.388	801.345	600.312
361.752	16.543	800.356	600.068
362.767	16.576	800.161	599.989
363.781	16.486	800.119	599.583
364.796	16.549	799.409	599.222
365.810	16.625	798.825	598.999
366.825	16.632	798.380	598.639
367.840	16.628	798.294	598.507
368.854	16.577	797.968	598.028
369.869	16.761	797.147	598.010
370.883	16.730	796.845	597.623
371.898	16.640	796.100	596.693
372.913	16.636	795.839	596.430
373.927	16.715	794.988	596.018
374.942	16.756	794.436	595.697
375.956	16.922	793.529	595.546
376.971	16.805	793.067	594.735
377.986	16.906	793.167	595.112
379.000	16.879	792.623	594.556
380.015	16.961	791.807	594.179
381.029	16.877	791.284	593.441
382.044	16.843	790.775	592.887
383.059	16.898	790.165	592.568
384.073	17.054	789.477	592.546
385.088	16.977	789.180	592.002
386.102	16.817	788.921	591.196
387.117	16.883	788.338	590.938
388.132	16.863	787.843	590.443
389.146	16.844	787.593	590.140
390.161	17.108	787.158	590.680
391.175	16.980	786.830	589.935
392.190	17.055	786.421	589.838
393.205	17.062	785.754	589.310
394.219	17.062	785.300	588.917
395.234	17.061	784.873	588.540
396.248	17.034	784.523	588.134
397.263	17.007	783.682	587.357
398.278	16.949	783.432	586.917
399.292	16.991	783.060	586.733
400.307	17.036	782.818	586.653
401.321	17.065	782.189	586.230
402.336	17.163	781.778	586.210
403.350	17.044	781.376	585.446
404.365	17.138	781.151	585.549
405.380	17.173	780.255	584.947
406.394	17.248	779.807	584.819
407.409	17.317	779.505	584.775
408.423	17.190	779.113	583.992
409.438	17.237	778.736	583.821
410.453	17.275	778.497	583.720
411.467	17.320	777.804	583.302
412.482	17.367	777.619	583.274
413.496	17.594	776.765	583.360
414.511	17.563	776.873	583.282
415.526	17.492	776.308	582.564
416.540	17.394	776.053	581.985
417.555	17.412	775.409	581.514
418.569	17.434	775.082	581.291
419.584	17.456	774.534	580.904
420.599	17.322	774.350	580.258
421.613	113.015	1293.434	1479.918
422.628	96.705	1369.038	1480.000
