DTS Sentinel unit serial number:	SN413079Multiplexer serial number:	ORYXHardware model number:	OX4-SRSoftware version number:	ORYX F/W v4.00 Oryx Data Collector v3.7.2.0data status	okinstallation	princeton_trtdifferential loss correction	single-endedforward channel	channel 3reverse channel	N/Adate	2019/09/19time	02:40:35forward acquisition time	60.00reverse acquisition time	0.00gamma	496.2192k internal	0.2348k external	0.2348temperature offset calibration	0.9993default loss term (dB/km)	0.3790temperature slope calibration	1.0000multiplexer offset coefficient	1.0000multiplexer slope coefficient	1.0000fibre end	0.00T internal ref (°C)	20.94T ext. ref 1 (°C)	0.67T ext. ref 2 (°C)	14.81length (m)	temperature (°C)	Stokes	anti-Stokes-747.200	-200.000	0.039	0.231
-746.185	87.018	-0.030	-0.033
-745.171	545.462	0.159	0.381
-744.156	211.554	0.159	0.251
-743.142	-137.015	0.185	0.021
-742.127	78.225	-0.276	0.294
-741.112	-46.544	0.108	0.053
-740.098	-200.000	0.063	-0.314
-739.083	-200.000	-0.037	-0.263
-738.069	-200.000	0.038	0.307
-737.054	720.425	-0.044	0.116
-736.039	-37.621	0.091	0.048
-735.025	-200.000	0.016	0.096
-734.010	800.000	-0.077	-0.238
-732.996	-117.387	0.040	-0.007
-731.981	-144.886	0.191	0.017
-730.966	232.839	0.028	0.046
-729.952	-2.999	0.207	-0.145
-728.937	-112.005	-0.224	0.045
-727.923	-82.709	0.174	0.056
-726.908	48.336	-0.279	0.260
-725.894	-112.341	0.168	0.034
-724.879	-200.000	0.015	0.179
-723.864	-200.000	-0.013	0.187
-722.850	-200.000	0.067	-0.296
-721.835	-27.617	0.143	-0.083
-720.821	187.939	0.017	-0.025
-719.806	-21.686	-0.113	0.069
-718.791	753.162	-0.062	0.166
-717.777	409.919	0.141	-0.298
-716.762	-61.151	0.193	-0.081
-715.748	-200.000	0.016	0.132
-714.733	-85.466	-0.166	-0.052
-713.718	107.848	-0.180	-0.214
-712.704	45.795	-0.119	-0.110
-711.689	-52.505	0.087	-0.040
-710.675	-52.738	-0.186	0.086
-709.660	118.099	-0.129	-0.158
-708.645	229.451	-0.121	-0.197
-707.631	-200.000	-0.015	-0.305
-706.616	3.757	-0.041	0.030
-705.602	21.267	0.141	-0.115
-704.587	-136.509	-0.226	-0.026
-703.572	-57.320	0.298	0.131
-702.558	-141.414	0.340	-0.034
-701.543	-91.686	-0.134	-0.038
-700.529	200.781	0.130	0.200
-699.514	-86.094	-0.156	-0.048
-698.499	7.023	-0.120	0.089
-697.485	211.322	0.056	-0.089
-696.470	66.599	0.184	0.187
-695.456	303.680	-0.190	0.351
-694.441	0.856	-0.392	-0.280
-693.426	-147.656	-0.124	0.010
-692.412	-200.000	0.029	-0.289
-691.397	303.682	-0.080	-0.148
-690.383	-26.012	0.072	-0.042
-689.368	279.173	0.156	-0.277
-688.354	-30.317	0.294	-0.166
-687.339	32.795	-0.212	-0.183
-686.324	-200.000	-0.012	-0.193
-685.310	36.983	0.103	-0.091
-684.295	-71.833	0.449	-0.167
-683.281	800.000	0.009	0.032
-682.266	719.550	-0.146	-0.386
-681.251	-161.097	0.562	-0.029
-680.237	573.492	0.100	0.244
-679.222	352.009	-0.034	-0.067
-678.208	-78.271	0.328	0.112
-677.193	187.342	0.190	-0.283
-676.178	800.000	-0.060	0.223
-675.164	-36.948	-0.144	-0.077
-674.149	-200.000	0.006	-0.300
-673.135	-71.149	0.285	0.107
-672.120	-59.347	0.065	0.028
-671.105	-200.000	-0.000	0.226
-670.091	-164.471	0.182	0.008
-669.076	-147.692	0.072	0.006
-668.062	329.475	0.100	-0.191
-667.047	-122.321	0.082	-0.013
-666.032	215.041	-0.115	0.181
-665.018	63.520	0.125	0.125
-664.003	214.250	0.106	-0.167
-662.989	-162.011	0.291	-0.015
-661.974	112.183	-0.331	-0.399
-660.959	214.475	0.120	-0.190
-659.945	-95.751	-0.076	-0.020
-658.930	50.335	0.178	-0.168
-657.916	-158.286	-0.278	0.016
-656.901	225.584	0.084	-0.135
-655.886	-20.922	-0.144	-0.088
-654.872	22.069	-0.163	0.132
-653.857	104.252	-0.067	0.079
-652.843	143.387	0.191	-0.253
-651.828	-84.638	-0.180	-0.056
-650.814	800.000	-0.010	-0.038
-649.799	-200.000	-0.053	-0.368
-648.784	-12.669	0.091	-0.059
-647.770	97.407	0.136	-0.156
-646.755	-16.302	-0.374	0.236
-645.741	749.366	0.086	0.230
-644.726	-200.000	0.020	-0.127
-643.711	709.883	-0.013	-0.035
-642.697	-172.721	0.178	-0.006
-641.682	-122.064	-0.165	0.027
-640.668	-63.896	0.157	-0.064
-639.653	-144.907	0.173	-0.016
-638.638	524.836	0.089	0.208
-637.624	800.000	-0.027	-0.110
-636.609	-200.000	0.004	0.310
-635.595	-46.786	0.326	0.159
-634.580	91.674	-0.110	0.123
-633.565	-39.764	-0.341	0.178
-632.551	-12.587	-0.365	0.237
-631.536	800.000	0.045	-0.195
-630.522	800.000	0.101	0.402
-629.507	-131.330	-0.086	0.011
-628.492	72.936	0.088	-0.092
-627.478	85.263	0.142	0.155
-626.463	98.592	0.201	0.230
-625.449	190.370	0.277	-0.413
-624.434	-14.161	-0.181	-0.116
-623.419	623.109	-0.171	0.428
-622.405	-200.000	-0.081	0.470
-621.390	-68.189	-0.137	0.053
-620.376	98.694	-0.085	-0.097
-619.361	-99.428	-0.436	-0.109
-618.346	-200.000	0.010	-0.072
-617.332	52.041	-0.275	-0.261
-616.317	74.227	-0.088	-0.092
-615.303	243.707	0.060	-0.100
-614.288	-131.145	0.134	0.018
-613.273	38.011	-0.113	-0.100
-612.259	620.121	0.045	0.112
-611.244	378.021	0.077	0.156
-610.230	-200.000	-0.006	-0.062
-609.215	14.566	-0.181	0.141
-608.201	98.674	-0.144	-0.165
-607.186	-1.561	-0.163	0.114
-606.171	-200.000	-0.016	-0.526
-605.157	121.618	-0.084	0.104
-604.142	41.140	0.254	-0.228
-603.128	55.242	-0.119	0.115
-602.113	-52.656	-0.145	0.066
-601.098	-200.000	0.006	0.205
-600.084	-129.597	-0.305	-0.042
-599.069	138.884	-0.113	0.148
-598.055	149.706	0.079	-0.106
-597.040	-115.769	-0.442	-0.082
-596.025	-36.691	0.306	0.163
-595.011	-118.176	0.201	-0.036
-593.996	-99.826	-0.100	-0.025
-592.982	-61.923	-0.112	-0.047
-591.967	465.099	0.017	0.038
-590.952	-131.706	-0.278	-0.036
-589.938	-71.568	-0.181	-0.067
-588.923	-90.603	-0.317	-0.091
-587.909	48.583	-0.214	-0.199
-586.894	-58.686	0.151	-0.065
-585.879	164.711	0.074	-0.103
-584.865	204.035	-0.132	0.204
-583.850	-200.000	-0.012	-0.089
-582.836	-107.593	0.219	0.047
-581.821	45.503	-0.101	-0.093
-580.806	81.801	0.154	0.166
-579.792	-150.283	-0.233	-0.018
-578.777	393.930	0.042	0.086
-577.763	-139.195	-0.080	0.009
-576.748	-116.996	-0.169	0.031
-575.733	510.709	0.016	-0.038
-574.719	-159.882	0.133	0.007
-573.704	-83.213	-0.255	0.081
-572.690	35.525	0.217	0.189
-571.675	179.972	-0.332	-0.484
-570.661	26.267	-0.188	-0.156
-569.646	-99.702	-0.123	-0.031
-568.631	-200.000	0.001	0.035
-567.617	2.146	-0.124	-0.089
-566.602	19.605	-0.231	0.184
-565.588	5.190	-0.091	0.067
-564.573	384.497	-0.045	0.092
-563.558	-62.002	-0.188	0.078
-562.544	-133.663	0.240	-0.030
-561.529	-41.154	-0.471	0.241
-560.515	-200.000	-0.035	0.382
-559.500	628.285	-0.048	-0.120
-558.485	54.002	-0.227	-0.217
-557.471	-149.103	-0.190	0.015
-556.456	-115.490	0.207	-0.039
-555.442	40.151	-0.188	0.168
-554.427	-20.694	-0.328	-0.200
-553.412	57.151	0.072	-0.069
-552.398	-122.384	0.117	0.019
-551.383	-172.278	0.151	-0.005
-550.369	-54.584	-0.179	-0.080
-549.354	606.758	-0.045	0.111
-548.339	441.021	0.088	0.191
-547.325	-148.023	0.235	-0.019
-546.310	800.000	-0.074	0.270
-545.296	-200.000	0.018	0.449
-544.281	-84.071	-0.266	0.084
-543.266	-9.089	-0.294	-0.195
-542.252	216.758	0.217	0.342
-541.237	-200.000	-0.041	-0.277
-540.223	229.144	-0.149	0.241
-539.208	-125.997	-0.548	0.082
-538.193	-78.864	0.349	0.118
-537.179	44.355	0.146	0.133
-536.164	38.378	0.125	0.110
-535.150	800.000	0.016	0.063
-534.135	514.038	0.161	-0.371
-533.121	-15.125	-0.237	-0.150
-532.106	282.363	0.180	-0.321
-531.091	83.325	0.090	-0.098
-530.077	107.332	-0.293	-0.345
-529.062	260.424	0.117	-0.201
-528.048	-109.165	0.276	0.058
-527.033	248.416	0.188	-0.315
-526.018	-107.664	-0.371	-0.080
-525.004	186.111	0.066	0.097
-523.989	310.762	0.109	0.202
-522.975	142.496	0.138	0.181
-521.960	-200.000	0.001	0.022
-520.945	-80.955	0.070	-0.023
-519.931	13.154	0.128	-0.098
-518.916	-200.000	0.050	-0.317
-517.902	44.743	0.293	-0.267
-516.887	-153.916	-0.509	0.034
-515.872	-18.370	0.096	0.059
-514.858	152.183	0.053	0.072
-513.843	-200.000	0.022	0.158
-512.829	35.648	0.159	0.138
-511.814	-47.927	-0.138	-0.066
-510.799	-75.002	-0.598	0.212
-509.785	800.000	-0.093	-0.264
-508.770	-200.000	-0.002	0.190
-507.756	800.000	-0.046	0.153
-506.741	-149.172	-0.280	0.022
-505.726	-90.681	-0.196	-0.056
-504.712	-68.142	0.120	0.046
-503.697	401.727	0.086	0.179
-502.683	55.013	0.012	-0.012
-501.668	359.835	-0.083	-0.164
-500.653	-134.144	-0.083	-0.010
-499.639	310.345	0.178	-0.330
-498.624	800.000	0.073	-0.235
-497.610	-2.710	0.227	-0.157
-496.595	800.000	-0.093	-0.365
-495.581	-47.265	-0.044	-0.021
-494.566	472.629	0.015	-0.034
-493.551	-169.671	-0.343	0.012
-492.537	800.000	0.081	-0.320
-491.522	-71.093	-0.108	0.040
-490.508	-62.170	0.090	-0.037
-489.493	-10.401	0.114	-0.075
-488.478	-129.461	0.305	-0.042
-487.464	-6.893	0.179	0.120
-486.449	-52.557	0.222	0.102
-485.435	22.548	0.032	0.026
-484.420	447.307	0.076	0.166
-483.405	800.000	0.168	-0.467
-482.391	-73.183	-0.337	0.122
-481.376	-135.682	0.064	-0.007
-480.362	-26.771	-0.274	0.159
-479.347	800.000	0.083	0.256
-478.332	530.513	0.124	-0.289
-477.318	40.075	-0.074	0.066
-476.303	588.599	-0.105	0.257
-475.289	41.120	-0.253	-0.226
-474.274	234.050	-0.141	0.230
-473.259	519.972	-0.065	-0.152
-472.245	16.152	0.106	-0.083
-471.230	-85.882	0.323	0.099
-470.216	800.000	-0.025	-0.078
-469.201	800.000	0.050	0.182
-468.186	188.081	-0.047	-0.070
-467.172	-60.161	0.197	0.083
-466.157	-80.004	-0.186	0.062
-465.143	-82.163	0.312	0.100
-464.128	-156.205	-0.294	-0.018
-463.113	-138.737	-0.061	0.007
-462.099	7.688	-0.118	0.088
-461.084	-98.219	0.299	0.076
-460.070	-181.073	0.348	-0.007
-459.055	-200.000	-0.058	0.262
-458.040	188.850	0.112	0.165
-457.026	-139.303	0.014	-0.002
-456.011	-47.147	0.251	-0.121
-454.997	-22.377	-0.173	0.103
-453.982	-200.000	0.093	0.450
-452.968	8.767	-0.265	-0.197
-451.953	-200.000	0.008	0.130
-450.938	-200.000	-0.044	0.380
-449.924	-114.413	0.325	-0.062
-448.909	142.168	0.142	-0.186
-447.895	-200.000	0.002	0.096
-446.880	-200.000	0.016	0.076
-445.865	582.219	0.074	0.180
-444.851	-105.142	-0.366	0.083
-443.836	71.265	0.108	0.110
-442.822	-25.609	0.235	-0.137
-441.807	-126.949	0.088	-0.013
-440.792	203.281	0.096	0.146
-439.778	-42.101	-0.108	-0.055
-438.763	386.485	0.099	0.201
-437.749	-39.731	-0.367	0.190
-436.734	238.231	-0.021	-0.035
-435.719	94.285	0.163	0.183
-434.705	38.888	-0.302	0.267
-433.690	504.599	0.096	-0.219
-432.676	65.446	-0.125	-0.125
-431.661	-105.963	-0.067	-0.015
-430.646	-52.946	0.407	0.185
-429.632	-111.060	0.337	-0.068
-428.617	103.380	0.084	-0.097
-427.603	800.000	0.051	-0.194
-426.588	-124.445	0.256	-0.039
-425.573	64.160	-0.125	-0.124
-424.559	306.254	-0.056	0.103
-423.544	-151.806	0.118	0.009
-422.530	800.000	0.078	0.255
-421.515	19.476	0.128	0.102
-420.500	-67.688	0.064	-0.025
-419.486	231.127	-0.200	0.324
-418.471	-124.182	-0.344	0.053
-417.457	-26.168	0.203	0.117
-416.442	-21.231	0.248	-0.149
-415.428	800.000	0.030	0.092
-414.413	-200.000	-0.003	0.316
-413.398	-73.527	-0.104	-0.037
-412.384	-16.636	0.106	0.066
-411.369	18.266	0.048	-0.038
-410.355	352.919	0.075	0.146
-409.340	576.559	-0.060	0.145
-408.325	-97.425	-0.130	-0.033
-407.311	-200.000	-0.022	-0.261
-406.296	-200.000	0.028	-0.385
-405.282	233.504	-0.033	-0.053
-404.267	92.057	0.050	0.055
-403.252	-200.000	0.038	-0.180
-402.238	7.069	-0.152	-0.112
-401.223	77.068	-0.282	-0.296
-400.209	-23.400	0.075	-0.044
-399.194	648.389	-0.155	-0.392
-398.179	800.000	0.029	0.091
-397.165	-200.000	0.028	-0.327
-396.150	-200.000	-0.030	-0.402
-395.136	55.738	0.130	0.125
-394.121	106.185	-0.067	0.078
-393.106	-42.712	0.140	-0.070
-392.092	-70.201	-0.156	-0.058
-391.077	-60.723	-0.166	0.069
-390.063	139.123	0.235	-0.305
-389.048	427.349	0.091	-0.193
-388.033	10.192	-0.091	0.068
-387.019	-166.965	-0.244	-0.010
-386.004	300.530	-0.090	-0.163
-384.990	-111.580	-0.096	0.019
-383.975	-28.817	0.246	-0.140
-382.960	493.888	-0.117	0.265
-381.946	-33.761	0.509	-0.276
-380.931	-200.000	0.015	-0.182
-379.917	22.801	0.104	0.084
-378.902	-200.000	0.047	0.342
-377.888	-62.289	-0.275	0.113
-376.873	-141.528	0.238	-0.024
-375.858	55.598	0.101	0.096
-374.844	-80.076	0.061	0.020
-373.829	341.579	-0.293	0.563
-372.815	-43.821	0.362	0.179
-371.800	-79.908	0.272	-0.090
-370.785	-36.491	0.095	0.050
-369.771	-63.780	0.257	0.104
-368.756	114.779	-0.008	-0.010
-367.742	512.947	-0.027	-0.062
-366.727	72.935	0.298	-0.307
-365.712	39.792	-0.254	0.225
-364.698	-200.000	0.006	0.172
-363.683	30.570	0.166	0.139
-362.669	-200.000	-0.125	0.000
-361.654	-200.000	-0.059	0.573
-360.639	100.769	0.208	-0.238
-359.625	-200.000	0.017	-0.233
-358.610	-200.000	0.021	0.101
-357.596	-106.051	0.303	-0.067
-356.581	-62.444	0.488	-0.200
-355.566	-71.713	-0.275	0.101
-354.552	-200.000	-0.024	0.223
-353.537	118.350	0.145	-0.176
-352.523	-11.933	-0.026	-0.017
-351.508	144.728	0.126	-0.166
-350.493	-200.000	-0.011	0.171
-349.479	800.000	0.052	0.176
-348.464	-200.000	0.029	0.280
-347.450	-0.738	0.206	-0.144
-346.435	15.820	0.221	-0.171
-345.420	-200.000	0.023	0.144
-344.406	-200.000	-0.078	-0.355
-343.391	28.090	-0.189	-0.157
-342.377	493.067	-0.046	-0.104
-341.362	-12.841	-0.185	-0.119
-340.348	-97.717	0.252	0.064
-339.333	-200.000	-0.004	0.051
-338.318	575.359	0.087	-0.210
-337.304	-109.684	0.150	-0.031
-336.289	-200.000	0.054	-0.236
-335.275	-36.547	0.282	-0.149
-334.260	293.883	0.194	-0.349
-333.245	9.319	-0.198	0.148
-332.231	800.000	0.045	-0.172
-331.216	169.650	-0.219	-0.308
-330.202	-184.753	-0.177	0.003
-329.187	-41.428	0.346	0.175
-328.172	409.784	-0.192	-0.399
-327.158	256.219	0.154	-0.260
-326.143	662.331	-0.061	-0.156
-325.129	-98.792	0.228	0.057
-324.114	-97.430	-0.130	-0.033
-323.099	-82.904	-0.625	-0.198
-322.085	446.199	-0.021	0.045
-321.070	-78.058	-0.307	-0.104
-320.056	-141.010	-0.222	0.022
-319.041	20.430	0.101	-0.080
-318.026	27.776	0.104	-0.086
-317.012	-70.488	0.155	0.058
-315.997	-7.662	0.042	-0.028
-314.983	-124.220	0.219	0.034
-313.968	213.354	0.077	0.120
-312.953	800.000	0.091	0.313
-311.939	153.566	-0.287	-0.386
-310.924	153.521	0.108	-0.145
-309.910	32.032	0.236	0.200
-308.895	507.519	-0.057	0.130
-307.880	-156.075	0.201	-0.013
-306.866	800.000	-0.079	0.322
-305.851	-70.494	0.486	0.181
-304.837	-162.978	-0.244	-0.012
-303.822	566.818	0.078	-0.185
-302.807	-200.000	-0.052	0.293
-301.793	-106.920	0.071	0.015
-300.778	794.549	0.116	-0.315
-299.764	800.000	0.083	0.233
-298.749	-107.155	-0.037	-0.008
-297.735	169.895	0.238	0.334
-296.720	-200.000	0.038	0.316
-295.705	-55.642	0.061	0.027
-294.691	40.755	0.145	-0.128
-293.676	-200.000	-0.022	0.189
-292.662	-136.191	-0.323	0.037
-291.647	-177.687	0.298	0.007
-290.632	-23.177	-0.094	-0.056
-289.618	27.111	0.242	-0.199
-288.603	384.518	-0.141	0.285
-287.589	-200.000	-0.018	-0.103
-286.574	-45.248	-0.092	-0.045
-285.559	-110.986	0.174	0.035
-284.545	-125.483	-0.180	-0.027
-283.530	-81.341	0.516	0.167
-282.516	800.000	-0.082	-0.242
-281.501	308.034	-0.182	0.333
-280.486	597.061	-0.074	0.179
-279.472	376.268	0.137	-0.274
-278.457	-160.334	0.319	0.017
-277.443	800.000	-0.039	-0.158
-276.428	-133.295	0.148	0.018
-275.413	-200.000	0.022	0.387
-274.399	53.709	-0.079	-0.074
-273.384	310.259	-0.109	0.200
-272.370	800.000	0.101	-0.422
-271.355	101.235	-0.181	-0.207
-270.340	-88.101	-0.256	0.075
-269.326	-41.490	-0.120	-0.061
-268.311	-2.653	0.270	-0.185
-267.297	-82.114	-0.144	0.046
-266.282	-69.471	0.098	0.037
-265.267	208.595	0.171	0.263
-264.253	-200.000	-0.010	-0.106
-263.238	-148.013	-0.323	-0.026
-262.224	-200.000	0.025	0.259
-261.209	-178.065	0.046	-0.001
-260.195	255.112	-0.118	-0.198
-259.180	81.530	0.035	-0.037
-258.165	-200.000	0.006	-0.251
-257.151	-127.454	-0.264	-0.038
-256.136	-118.975	-0.522	0.090
-255.122	-66.975	0.111	0.043
-254.107	-200.000	-0.003	-0.183
-253.092	-119.160	0.391	-0.067
-252.078	-2.010	-0.295	-0.203
-251.063	-46.670	-0.186	0.089
-250.049	-121.200	-0.293	-0.048
-249.034	74.476	0.160	0.165
-248.019	-111.498	0.071	-0.014
-247.005	487.687	-0.048	-0.108
-245.990	800.000	-0.045	0.155
-244.976	80.266	0.197	-0.208
-243.961	250.090	0.122	-0.203
-242.946	-200.000	-0.084	0.374
-241.932	-168.154	0.416	0.016
-240.917	-165.930	0.049	0.002
-239.903	-56.399	0.199	-0.087
-238.888	347.673	-0.166	-0.320
-237.873	-200.000	0.051	-0.245
-236.859	800.000	0.076	-0.259
-235.844	-18.792	-0.062	-0.038
-234.830	-60.128	0.164	-0.068
-233.815	-200.000	0.023	0.226
-232.800	-1.314	0.065	-0.045
-231.786	-63.543	0.129	-0.052
-230.771	-122.424	-0.299	-0.048
-229.757	-116.269	0.240	-0.044
-228.742	-200.000	0.019	0.194
-227.727	800.000	0.030	0.104
-226.713	269.301	0.094	-0.161
-225.698	800.000	0.018	-0.054
-224.684	-200.000	-0.045	-0.238
-223.669	-160.007	-0.199	0.011
-222.655	-118.474	-0.293	0.051
-221.640	-200.000	0.046	0.487
-220.625	-9.975	-0.162	-0.105
-219.611	-6.469	-0.129	-0.086
-218.596	-109.116	0.095	-0.020
-217.582	541.885	-0.042	-0.099
-216.567	-10.261	-0.298	-0.194
-215.552	1.820	0.178	0.126
-214.538	-200.000	0.077	0.380
-213.523	-122.756	0.125	0.020
-212.509	-116.563	-0.197	-0.036
-211.494	290.671	-0.052	0.092
-210.479	229.033	-0.064	-0.101
-209.465	182.690	-0.046	-0.066
-208.450	173.832	0.196	-0.277
-207.436	-53.841	-0.352	0.157
-206.421	-116.043	0.159	-0.029
-205.406	-45.813	0.118	0.057
-204.392	-200.000	-0.022	0.576
-203.377	18.805	0.191	0.150
-202.363	800.000	-0.069	0.219
-201.348	-200.000	0.050	-0.267
-200.333	164.005	-0.481	0.663
-199.319	795.734	0.014	-0.038
-198.304	369.146	0.127	-0.251
-197.290	800.000	-0.031	-0.111
-196.275	6.837	-0.140	-0.102
-195.260	-2.867	0.148	-0.101
-194.246	-70.587	-0.080	-0.029
-193.231	-88.044	-0.503	0.148
-192.217	800.000	0.068	-0.192
-191.202	-200.000	-0.006	-0.154
-190.187	800.000	-0.026	0.078
-189.173	-81.942	0.152	0.049
-188.158	150.129	0.044	-0.059
-187.144	-94.275	-0.335	0.090
-186.129	165.158	0.136	0.187
-185.114	-200.000	0.016	0.158
-184.100	-66.681	-0.095	0.037
-183.085	-200.000	0.034	-0.429
-182.071	-151.877	0.379	0.027
-181.056	182.836	-0.116	-0.168
-180.042	-93.124	-0.301	-0.082
-179.027	-100.941	0.414	0.099
-178.012	-94.567	0.065	0.017
-176.998	52.739	0.130	-0.121
-175.983	-141.567	0.299	-0.029
-174.969	-126.947	0.075	-0.011
-173.954	-200.000	0.014	0.093
-172.939	800.000	-0.091	-0.336
-171.925	-29.119	0.248	0.139
-170.910	278.436	0.125	0.218
-169.896	73.609	-0.188	0.192
-168.881	24.856	-0.272	0.220
-167.866	-129.194	0.340	0.046
-166.852	91.674	0.165	-0.181
-165.837	-25.136	-0.154	0.089
-164.823	-23.064	-0.116	0.068
-163.808	608.761	0.138	0.336
-162.793	-200.000	0.004	-0.084
-161.779	-48.008	0.114	0.054
-160.764	-117.921	-0.051	0.009
-159.750	159.185	-0.195	-0.265
-158.735	-22.776	0.208	-0.123
-157.720	-29.538	0.344	-0.192
-156.706	14.952	-0.138	0.105
-155.691	535.245	0.156	0.361
-154.677	-200.000	0.035	-0.168
-153.662	-200.000	-0.001	-0.242
-152.647	-200.000	-0.035	-0.241
-151.633	-160.890	-0.386	0.020
-150.618	16.548	-0.165	0.127
-149.604	-170.501	0.233	-0.008
-148.589	-55.355	-0.067	0.029
-147.574	-81.845	-0.196	-0.063
-146.560	87.002	-0.210	-0.227
-145.545	-200.000	0.019	-0.105
-144.531	-111.204	-0.062	0.012
-143.516	85.640	0.148	-0.158
-142.502	-200.000	-0.078	-0.433
-141.487	-129.990	0.116	0.016
-140.472	-200.000	0.001	0.348
-139.458	207.276	0.079	0.120
-138.443	-81.586	-0.211	0.068
-137.429	-3.029	0.326	-0.222
-136.414	-200.000	-0.052	0.264
-135.399	-200.000	0.010	-0.046
-134.385	-85.231	0.247	0.075
-133.370	628.896	0.058	-0.142
-132.356	-200.000	0.020	-0.385
-131.341	-76.945	0.527	-0.180
-130.326	-200.000	-0.007	0.058
-129.312	-62.825	0.350	0.141
-128.297	45.900	-0.178	-0.160
-127.283	30.764	0.124	-0.104
-126.268	19.923	-0.062	0.049
-125.253	92.287	0.218	0.240
-124.239	119.499	0.145	0.175
-123.224	488.071	0.166	0.369
-122.210	420.783	0.055	-0.115
-121.195	20.401	0.071	-0.056
-120.180	343.940	0.115	-0.221
-119.166	368.298	0.014	-0.027
-118.151	-200.000	-0.009	0.144
-117.137	800.000	0.094	0.299
-116.122	-60.312	-0.156	-0.065
-115.107	800.000	0.089	-0.272
-114.093	240.151	-0.005	0.009
-113.078	281.672	0.135	-0.236
-112.064	-4.912	0.070	-0.047
-111.049	36.748	-0.167	-0.144
-110.034	192.262	-0.116	0.171
-109.020	310.237	-0.074	-0.135
-108.005	-161.147	0.103	-0.005
-106.991	-160.220	0.117	0.006
-105.976	-200.000	-0.004	-0.230
-104.962	75.982	-0.205	0.212
-103.947	8.155	-0.131	-0.096
-102.932	-139.650	0.184	-0.019
-101.918	153.090	-0.053	0.071
-100.903	527.529	0.157	-0.361
-99.889	114.574	-0.178	0.211
-98.874	-70.009	0.022	-0.008
-97.859	-57.060	-0.076	-0.033
-96.845	-153.273	-0.270	0.018
-95.830	85.007	0.025	-0.027
-94.816	126.486	-0.107	0.132
-93.801	-3.165	0.178	0.121
-92.786	-81.480	0.272	-0.087
-91.772	-200.000	-0.023	-0.147
-90.757	107.442	-0.005	-0.006
-89.743	-121.610	-0.245	-0.040
-88.728	800.000	0.072	-0.200
-87.713	249.315	0.145	-0.239
-86.699	503.281	-0.154	-0.346
-85.684	-60.986	0.141	0.058
-84.670	-22.204	-0.375	-0.221
-83.655	800.000	-0.034	-0.132
-82.640	-170.244	0.295	-0.010
-81.626	-108.764	0.296	-0.062
-80.611	-40.828	0.176	0.089
-79.597	291.262	-0.193	0.342
-78.582	171.580	0.111	-0.156
-77.567	800.000	-0.033	0.127
-76.553	-4.632	0.201	-0.135
-75.538	-200.000	0.005	-0.244
-74.524	-200.000	-0.026	-0.238
-73.509	-131.239	-0.142	-0.018
-72.494	-55.931	0.219	0.095
-71.480	7.210	0.332	-0.241
-70.465	-141.334	-0.489	0.048
-69.451	48.015	-0.227	0.207
-68.436	347.755	0.179	0.343
-67.422	-67.203	0.265	0.102
-66.407	50.506	0.161	0.148
-65.392	68.830	-0.072	0.072
-64.378	62.138	0.228	0.221
-63.363	800.000	0.116	-0.342
-62.349	138.451	-0.102	-0.130
-61.334	83.758	-1.075	-1.141
-60.319	148.828	0.614	0.808
-59.305	788.815	-0.367	-0.981
-58.290	322.377	0.782	1.449
-57.276	512.995	0.669	1.517
-56.261	-200.000	135.661	681.486
-55.246	338.586	1678.251	3178.250
-54.232	134.504	2803.945	3537.700
-53.217	86.721	2195.065	2356.074
-52.203	30.987	1711.315	1426.642
-51.188	23.878	1535.276	1230.822
-50.173	22.172	1513.250	1201.463
-49.159	46.424	1589.451	1433.532
-48.144	42.990	1599.502	1418.416
-47.130	24.024	1547.680	1241.584
-46.115	21.143	1532.404	1209.352
-45.100	20.986	1528.459	1205.107
-44.086	20.916	1526.666	1203.161
-43.071	20.805	1525.215	1201.202
-42.057	20.939	1523.157	1200.455
-41.042	21.017	1521.877	1199.935
-40.027	20.933	1520.149	1197.954
-39.013	20.916	1518.532	1196.515
-37.998	20.820	1517.828	1195.252
-36.984	20.904	1516.639	1194.842
-35.969	20.854	1515.083	1193.226
-34.954	20.878	1513.922	1192.429
-33.940	20.892	1512.446	1191.320
-32.925	20.810	1511.472	1189.943
-31.911	20.880	1509.912	1189.146
-30.896	21.033	1507.986	1188.622
-29.881	20.930	1507.375	1187.391
-28.867	20.989	1505.671	1186.406
-27.852	20.999	1504.478	1185.488
-26.838	20.955	1502.929	1183.916
-25.823	21.004	1501.487	1183.065
-24.809	21.109	1499.379	1182.070
-23.794	20.979	1498.886	1180.757
-22.779	20.950	1497.691	1179.574
-21.765	20.995	1496.182	1178.638
-20.750	21.014	1495.110	1177.879
-19.736	20.966	1494.508	1177.029
-18.721	20.985	1492.919	1175.864
-17.706	20.990	1492.279	1175.346
-16.692	21.068	1490.906	1174.745
-15.677	20.951	1490.269	1173.408
-14.663	20.994	1488.861	1172.542
-13.648	20.864	1488.423	1171.273
-12.633	20.973	1486.849	1170.719
-11.619	20.860	1486.912	1169.963
-10.604	20.948	1485.335	1169.269
-9.590	20.886	1485.027	1168.565
-8.575	20.868	1483.826	1167.451
-7.560	20.997	1482.786	1167.452
-6.546	20.982	1481.602	1166.372
-5.531	20.849	1480.890	1164.878
-4.517	20.877	1480.360	1164.602
-3.502	20.894	1479.071	1163.651
-2.487	20.937	1477.630	1162.763
-1.473	20.899	1476.619	1161.664
-0.458	20.890	1475.713	1160.845
0.556	19.940	1465.506	1149.105
1.571	16.802	1441.511	1109.666
2.586	13.326	1378.449	1039.225
3.600	11.829	1293.939	966.593
4.615	11.035	1249.994	929.152
5.629	9.805	1193.297	880.218
6.644	5.090	1112.734	796.690
7.659	1.259	1078.345	753.017
8.673	0.713	1073.026	746.538
9.688	0.568	1069.430	743.259
10.702	0.789	1067.678	743.060
11.717	0.610	1065.714	740.750
12.731	2.181	1065.935	748.537
13.746	7.653	1073.243	780.542
14.761	14.002	1081.355	817.706
15.775	17.063	1085.301	835.711
16.790	16.961	1084.204	834.291
17.804	15.952	1082.172	827.697
18.819	15.117	1080.228	822.040
19.834	14.742	1078.817	819.053
20.848	14.461	1078.009	816.990
21.863	14.381	1076.777	815.594
22.877	13.992	1076.488	813.399
23.892	13.750	1075.717	811.563
24.907	13.625	1074.712	810.121
25.921	13.705	1073.877	809.808
26.936	13.589	1073.659	809.009
27.950	13.758	1072.327	808.757
28.965	13.756	1071.888	808.342
29.980	13.880	1070.819	808.070
30.994	13.884	1069.634	807.125
32.009	13.897	1069.129	806.736
33.023	13.933	1068.578	806.420
34.038	13.946	1067.421	805.538
35.053	13.921	1066.564	804.698
36.067	13.764	1065.871	803.346
37.082	13.832	1065.002	802.951
38.096	13.814	1064.544	802.447
39.111	13.827	1063.726	801.823
40.126	13.819	1062.629	800.887
41.140	13.832	1061.733	800.200
42.155	13.812	1060.430	799.053
43.169	13.647	1060.109	797.944
44.184	13.633	1058.695	796.742
45.199	13.665	1057.551	795.967
46.213	13.748	1056.153	795.243
47.228	13.664	1055.700	794.426
48.242	13.781	1054.182	793.773
49.257	13.795	1053.503	793.260
50.271	13.852	1052.537	792.733
51.286	13.721	1052.000	791.634
52.301	13.865	1050.638	791.224
53.315	13.806	1050.201	790.545
54.330	13.850	1049.360	790.054
55.344	13.861	1048.113	789.097
56.359	13.698	1047.692	787.937
57.374	13.849	1046.444	787.643
58.388	13.724	1045.865	786.542
59.403	13.796	1044.895	786.088
60.417	13.833	1043.859	785.411
61.432	13.757	1043.459	784.684
62.447	13.619	1042.801	783.465
63.461	13.721	1041.476	782.881
64.476	13.710	1040.759	782.223
65.490	13.576	1040.305	781.182
66.505	13.671	1039.402	780.880
67.520	13.658	1038.536	780.098
68.534	13.637	1037.841	779.411
69.549	13.809	1036.863	779.415
70.563	13.813	1036.080	778.776
71.578	13.642	1035.706	777.623
72.593	13.540	1035.168	776.674
73.607	13.562	1034.015	775.841
74.622	13.686	1032.496	775.213
75.636	13.689	1031.286	774.249
76.651	13.679	1031.003	773.921
77.666	13.589	1030.402	772.983
78.680	13.677	1029.141	772.379
79.695	13.707	1029.182	772.479
80.709	13.601	1028.872	771.688
81.724	13.859	1026.797	771.261
82.739	13.782	1026.381	770.522
83.753	13.652	1026.027	769.586
84.768	13.788	1024.747	769.186
85.782	13.801	1024.215	768.782
86.797	13.964	1023.329	768.799
87.812	13.925	1022.353	767.822
88.826	13.759	1021.735	766.523
89.841	13.745	1021.291	766.056
90.855	13.750	1020.403	765.345
91.870	13.878	1019.068	764.865
92.884	13.938	1018.600	764.720
93.899	13.933	1018.004	764.186
94.914	13.972	1017.067	763.592
95.928	13.936	1016.808	763.164
96.943	14.004	1015.717	762.591
97.957	13.990	1015.011	761.931
98.972	13.915	1014.185	760.899
99.987	13.908	1013.445	760.242
101.001	13.871	1012.358	759.192
102.016	13.862	1012.038	758.842
103.030	13.849	1010.695	757.712
104.045	13.807	1009.965	756.905
105.060	13.911	1008.823	756.455
106.074	13.900	1007.823	755.588
107.089	13.876	1007.003	754.796
108.103	13.815	1006.527	754.095
109.118	13.684	1005.518	752.678
110.133	13.765	1004.650	752.329
111.147	13.861	1003.351	751.726
112.162	13.788	1002.699	750.840
113.176	13.784	1001.855	750.125
114.191	13.944	1000.787	749.982
115.206	13.839	1000.241	749.029
116.220	13.811	999.648	748.394
117.235	13.881	998.398	747.708
118.249	13.928	997.274	747.011
119.264	13.771	996.638	745.764
120.279	13.871	995.445	745.253
121.293	13.782	994.686	744.219
122.308	13.802	993.878	743.641
123.322	13.771	993.392	743.071
124.337	13.746	992.061	741.897
125.352	13.674	991.039	740.744
126.366	13.843	989.432	740.233
127.381	13.810	988.497	739.322
128.395	13.713	987.677	738.210
129.410	13.732	986.736	737.525
130.424	13.710	986.106	736.893
131.439	13.725	985.201	736.219
132.454	13.783	984.441	735.840
133.468	13.705	983.534	734.753
134.483	13.789	982.631	734.384
135.497	13.759	982.380	733.999
136.512	13.891	981.257	733.677
137.527	13.902	980.459	733.067
138.541	13.772	979.827	731.957
139.556	13.817	979.152	731.585
140.570	13.779	978.573	730.919
141.585	13.719	978.185	730.302
142.600	13.942	977.300	730.557
143.614	13.993	976.255	729.937
144.629	14.057	975.056	729.257
145.643	14.063	974.528	728.823
146.658	13.992	973.470	727.656
147.673	14.018	972.714	727.141
148.687	14.026	971.595	726.274
149.702	14.007	970.510	725.315
150.716	13.962	969.862	724.570
151.731	13.910	969.380	723.922
152.746	13.964	968.615	723.521
153.760	13.958	967.865	722.869
154.775	14.047	966.644	722.279
155.789	13.952	966.190	721.463
156.804	14.030	965.836	721.477
157.819	14.009	964.789	720.538
158.833	14.000	964.057	719.889
159.848	14.077	963.505	719.746
160.862	14.045	963.204	719.321
161.877	14.250	961.730	719.040
162.892	14.117	960.745	717.667
163.906	13.917	960.199	716.332
164.921	14.160	959.155	716.539
165.935	14.105	958.244	715.557
166.950	14.104	957.389	714.850
167.964	14.181	956.249	714.265
168.979	14.093	955.582	713.329
169.994	14.133	954.220	712.418
171.008	13.992	954.018	711.601
172.023	14.030	953.357	711.206
173.037	14.153	952.221	710.823
174.052	14.348	951.194	710.827
175.067	14.248	950.601	709.893
176.081	14.192	949.808	709.002
177.096	14.151	949.063	708.205
178.110	14.058	948.455	707.296
179.125	14.230	947.463	707.222
180.140	14.352	946.532	706.982
181.154	14.376	945.669	706.380
182.169	14.232	945.749	705.765
183.183	14.375	944.435	705.326
184.198	14.434	943.804	705.045
185.213	14.426	943.072	704.400
186.227	14.293	942.525	703.368
187.242	14.380	942.465	703.628
188.256	14.386	941.816	703.108
189.271	14.449	940.554	702.367
190.286	14.418	940.278	701.968
191.300	14.453	939.149	701.210
192.315	14.285	938.407	699.890
193.329	14.414	937.753	699.879
194.344	14.406	936.869	699.127
195.359	14.390	936.625	698.816
196.373	14.540	935.639	698.644
197.388	14.475	935.463	698.180
198.402	14.376	935.200	697.510
199.417	14.637	934.147	697.752
200.432	14.603	933.727	697.233
201.446	14.625	933.213	696.879
202.461	14.605	933.036	696.605
203.475	14.718	932.421	696.552
204.490	14.659	931.937	695.886
205.504	14.600	931.072	694.933
206.519	14.568	930.408	694.241
207.534	14.624	929.482	693.724
208.548	14.563	928.618	692.762
209.563	14.696	927.799	692.642
210.577	14.647	927.323	692.022
211.592	14.795	926.610	692.044
212.607	14.756	925.900	691.290
213.621	14.865	925.260	691.199
214.636	14.780	924.537	690.248
215.650	14.700	924.178	689.590
216.665	14.829	923.593	689.622
217.680	14.736	923.214	688.898
218.694	14.668	923.021	688.409
219.709	14.843	922.052	688.350
220.723	14.857	921.186	687.697
221.738	14.902	920.195	687.082
222.753	14.844	919.785	686.478
223.767	14.908	918.937	686.046
224.782	14.938	917.941	685.365
225.796	14.957	917.379	684.963
226.811	14.969	916.679	684.428
227.826	15.084	915.838	684.208
228.840	15.012	915.372	683.506
229.855	14.909	914.613	682.461
230.869	14.906	914.505	682.307
231.884	15.017	913.284	681.785
232.899	14.946	912.795	681.074
233.913	15.003	911.967	680.628
234.928	14.900	911.420	679.738
235.942	15.028	910.366	679.412
236.957	14.954	909.968	678.757
237.972	15.013	909.087	678.277
238.986	14.956	908.702	677.698
240.001	14.979	908.182	677.345
241.015	15.078	907.098	676.877
242.030	14.935	907.079	676.223
243.045	15.159	905.963	676.236
244.059	15.101	905.397	675.519
245.074	15.253	904.683	675.542
246.088	15.191	903.952	674.683
247.103	15.236	903.448	674.429
248.117	15.253	902.928	674.050
249.132	15.233	902.193	673.361
250.147	15.386	901.595	673.469
251.161	15.254	900.793	672.284
252.176	15.378	899.662	671.877
253.190	15.512	899.072	671.912
254.205	15.389	898.824	671.175
255.220	15.463	898.288	671.009
256.234	15.505	897.483	670.517
257.249	15.444	896.915	669.791
258.263	15.470	896.654	669.642
259.278	15.603	895.922	669.566
260.293	15.468	895.223	668.443
261.307	15.595	894.628	668.447
262.322	15.724	894.100	668.508
263.336	15.605	893.674	667.656
264.351	15.516	893.237	666.918
265.366	15.673	892.122	666.650
266.380	15.604	891.615	665.939
267.395	15.685	890.872	665.645
268.409	15.632	890.340	664.977
269.424	15.701	889.279	664.399
270.439	15.721	888.791	664.053
271.453	15.870	887.451	663.584
272.468	15.671	887.330	662.649
273.482	15.791	886.465	662.415
274.497	15.749	885.960	661.817
275.512	15.717	885.171	661.041
276.526	15.798	884.241	660.605
277.541	15.724	883.830	659.953
278.555	15.753	882.860	659.281
279.570	15.838	882.106	658.995
280.585	15.734	882.094	658.520
281.599	15.925	881.506	658.770
282.614	15.890	880.826	658.066
283.628	15.841	880.314	657.434
284.643	15.860	879.935	657.167
285.657	15.734	879.388	656.209
286.672	15.920	878.768	656.411
287.687	16.018	878.031	656.186
288.701	16.036	877.421	655.743
289.716	16.052	876.659	655.177
290.730	16.006	876.339	654.699
291.745	15.974	875.633	653.991
292.760	16.097	874.787	653.778
293.774	15.919	874.469	652.791
294.789	15.962	873.735	652.352
295.803	16.066	873.088	652.216
296.818	16.012	872.401	651.434
297.833	16.067	871.958	651.260
298.847	16.112	871.069	650.712
299.862	16.119	870.196	650.031
300.876	16.124	869.648	649.581
301.891	16.175	869.124	649.328
302.906	16.092	868.693	648.631
303.920	16.195	867.875	648.358
304.935	16.236	867.225	647.972
305.949	16.321	866.578	647.759
306.964	16.369	865.819	647.316
307.979	16.288	865.184	646.473
308.993	16.384	864.946	646.606
310.008	16.411	864.561	646.365
311.022	16.413	863.795	645.743
312.037	16.289	863.233	644.793
313.052	16.419	862.623	644.777
314.066	16.408	861.864	644.107
315.081	16.301	861.521	643.387
316.095	16.342	860.867	643.000
317.110	16.354	860.526	642.734
318.125	16.421	859.640	642.270
319.139	16.300	859.257	641.467
320.154	16.399	858.679	641.353
321.168	16.368	858.088	640.740
322.183	16.423	857.413	640.386
323.197	16.400	857.288	640.150
324.212	16.396	856.500	639.487
325.227	16.424	856.340	639.418
326.241	16.366	855.728	638.685
327.256	16.528	854.693	638.470
328.270	16.586	854.154	638.227
329.285	16.610	853.413	637.708
330.300	16.595	852.529	636.935
331.314	16.459	852.414	636.279
332.329	16.607	851.776	636.305
333.343	16.645	850.991	635.805
334.358	16.592	850.736	635.360
335.373	16.638	850.146	635.033
336.387	16.658	849.599	634.644
337.402	16.774	849.332	634.825
338.416	16.640	848.472	633.623
339.431	16.660	848.064	633.336
340.446	16.736	847.287	632.984
341.460	16.791	846.825	632.788
342.475	16.717	846.246	632.026
343.489	16.802	845.824	631.971
344.504	16.801	845.344	631.552
345.519	17.021	844.560	631.729
346.533	16.906	843.796	630.675
347.548	16.970	843.564	630.685
348.562	16.922	843.124	630.121
349.577	16.971	842.230	629.579
350.592	16.934	841.880	629.122
351.606	16.955	841.377	628.771
352.621	16.831	841.231	628.145
353.635	16.841	840.674	627.713
354.650	16.931	840.428	627.807
355.665	16.911	839.739	627.161
356.679	16.941	839.220	626.829
357.694	16.990	839.153	626.903
358.708	16.971	838.150	626.031
359.723	17.223	837.163	626.167
360.738	17.120	837.144	625.717
361.752	17.036	836.954	625.209
362.767	17.021	836.217	624.549
363.781	16.982	836.090	624.256
364.796	17.093	835.163	623.914
365.810	17.182	834.733	623.867
366.825	17.268	834.111	623.663
367.840	17.302	833.915	623.584
368.854	17.466	833.117	623.532
369.869	17.329	832.954	622.855
370.883	17.208	832.398	621.940
371.898	17.209	831.919	621.530
372.913	17.325	831.079	621.273
373.927	17.290	830.938	620.983
374.942	17.280	830.323	620.434
375.956	17.302	829.691	619.985
376.971	17.393	828.880	619.655
377.986	17.429	828.318	619.312
379.000	17.492	828.016	619.262
380.015	17.573	827.103	618.818
381.029	17.516	826.534	618.130
382.044	17.640	826.006	618.131
383.059	17.632	825.425	617.612
384.073	17.647	824.958	617.263
385.088	17.650	824.136	616.606
386.102	17.557	824.370	616.389
387.117	17.467	823.412	615.294
388.132	17.595	823.199	615.541
389.146	17.517	822.729	614.855
390.161	17.435	822.524	614.351
391.175	17.527	822.146	614.345
392.190	17.690	821.694	614.539
393.205	17.680	821.103	614.009
394.219	17.707	820.531	613.624
395.234	17.668	820.134	613.132
396.248	17.642	819.925	612.830
397.263	17.566	819.160	611.929
398.278	17.657	818.420	611.647
399.292	17.593	817.936	611.004
400.307	17.565	817.716	610.683
401.321	17.680	817.328	610.752
402.336	17.587	817.270	610.321
403.350	17.708	816.513	610.134
404.365	17.784	816.101	610.047
405.380	17.724	815.600	609.403
406.394	17.795	814.929	609.100
407.409	17.862	814.870	609.241
408.423	17.749	814.641	608.613
409.438	17.818	813.716	608.114
410.453	17.885	813.500	608.139
411.467	17.959	812.656	607.715
412.482	17.938	812.123	607.190
413.496	17.976	811.846	607.065
414.511	17.917	811.645	606.650
415.526	17.976	810.950	606.285
416.540	17.947	810.552	605.834
417.555	18.086	810.112	605.944
418.569	18.177	809.732	605.926
419.584	18.051	809.079	604.941
420.599	18.093	808.970	604.953
421.613	115.847	1300.325	1491.936
422.628	100.213	1371.872	1492.022
