DTS Sentinel unit serial number:	SN413079Multiplexer serial number:	ORYXHardware model number:	OX4-SRSoftware version number:	ORYX F/W v4.00 Oryx Data Collector v3.7.2.0data status	okinstallation	princeton_trtdifferential loss correction	single-endedforward channel	channel 3reverse channel	N/Adate	2019/09/12time	18:03:04forward acquisition time	15.00reverse acquisition time	0.00gamma	496.2192k internal	0.2316k external	0.2316temperature offset calibration	1.0092default loss term (dB/km)	0.3790temperature slope calibration	1.0000multiplexer offset coefficient	1.0000multiplexer slope coefficient	1.0000fibre end	0.00T internal ref (°C)	33.75T ext. ref 1 (°C)	2.95T ext. ref 2 (°C)	28.21length (m)	temperature (°C)	Stokes	anti-Stokes-747.200	800.000	-0.107	-0.348
-746.185	800.000	0.068	0.239
-745.171	-172.992	-0.276	-0.009
-744.156	-129.619	-0.294	0.041
-743.142	-200.000	0.062	-0.830
-742.127	-200.000	-0.211	1.152
-741.112	800.000	0.225	-0.679
-740.098	139.641	-0.236	-0.314
-739.083	-200.000	-0.141	-0.791
-738.069	-65.925	-0.491	0.199
-737.054	171.757	0.312	-0.454
-736.039	10.519	-0.172	0.132
-735.025	38.396	0.536	0.484
-734.010	-200.000	-0.025	-0.305
-732.996	-13.817	-0.415	-0.272
-731.981	-36.355	0.256	-0.140
-730.966	388.230	0.499	-1.044
-729.952	123.856	0.356	-0.452
-728.937	415.416	0.041	-0.088
-727.923	800.000	-0.230	-0.844
-726.908	-178.551	-0.328	0.008
-725.894	-31.147	-0.875	0.499
-724.879	505.254	0.641	-1.503
-723.864	329.851	-0.132	0.256
-722.850	166.758	0.345	-0.496
-721.835	-200.000	-0.083	-0.372
-720.821	-62.790	0.694	0.291
-719.806	-52.824	-0.544	-0.254
-718.791	26.236	0.248	0.209
-717.777	128.020	-0.346	0.446
-716.762	-35.767	-0.406	-0.222
-715.748	21.038	-0.544	-0.446
-714.733	800.000	-0.059	0.253
-713.718	-45.562	-0.681	0.341
-712.704	-200.000	-0.041	0.000
-711.689	800.000	-0.203	-0.635
-710.675	-44.748	0.215	-0.108
-709.660	-167.804	0.564	-0.023
-708.645	30.057	0.192	0.166
-707.631	-27.238	0.404	-0.238
-706.616	-200.000	0.083	-0.541
-705.602	1.666	-0.483	-0.351
-704.587	692.561	0.169	0.447
-703.572	-100.645	0.454	0.113
-702.558	-165.897	-0.641	0.028
-701.543	-168.369	-0.372	-0.014
-700.529	800.000	-0.148	-0.575
-699.514	-90.752	0.724	-0.211
-698.499	-119.214	0.278	-0.049
-697.485	800.000	-0.117	-0.358
-696.470	15.592	0.517	-0.411
-695.456	-71.980	-0.454	0.171
-694.441	185.584	0.045	-0.068
-693.426	-77.754	0.537	0.188
-692.412	171.857	-0.329	-0.478
-691.397	37.408	0.255	0.229
-690.383	-200.000	-0.050	0.408
-689.368	-161.824	0.157	-0.008
-688.354	9.832	-0.326	-0.250
-687.339	-58.948	-0.384	0.168
-686.324	536.837	0.272	-0.654
-685.310	-63.661	-0.822	-0.341
-684.295	-62.578	-0.647	-0.272
-683.281	800.000	-0.133	0.444
-682.266	-188.326	-0.128	0.002
-681.251	111.515	-0.352	0.429
-680.237	-43.996	-0.642	-0.326
-679.222	122.166	-0.899	1.135
-678.208	79.741	-0.306	0.332
-677.193	800.000	-0.137	-0.393
-676.178	4.991	0.565	-0.420
-675.164	800.000	0.089	-0.336
-674.149	-81.230	-0.476	0.159
-673.135	-60.430	0.455	-0.195
-672.120	79.208	-0.314	0.340
-671.105	34.340	0.290	-0.256
-670.091	303.509	0.180	-0.337
-669.076	-141.155	0.576	-0.059
-668.062	74.516	-0.449	0.477
-667.047	30.490	0.369	0.318
-666.032	53.098	0.448	-0.433
-665.018	186.057	0.229	0.344
-664.003	800.000	-0.216	0.639
-662.989	-45.718	0.621	0.310
-661.974	-200.000	0.016	-0.156
-660.959	109.118	0.178	0.215
-659.945	-72.988	-0.250	-0.093
-658.930	-124.529	-0.207	-0.032
-657.916	800.000	-0.087	-0.310
-656.901	791.716	0.279	0.773
-655.886	-166.925	-1.095	-0.045
-654.872	-200.000	0.011	-0.503
-653.857	-200.000	0.077	-0.486
-652.843	-181.023	-1.109	0.022
-651.828	800.000	-0.155	-0.587
-650.814	213.299	0.301	0.479
-649.799	-53.548	-0.549	0.253
-648.784	128.430	-0.138	-0.177
-647.770	-200.000	-0.664	-0.002
-646.755	5.883	-0.203	-0.151
-645.741	149.159	-0.024	0.033
-644.726	611.226	-0.475	1.198
-643.711	-200.000	0.003	-0.596
-642.697	25.122	0.540	0.452
-641.682	-57.470	0.513	0.227
-640.668	-170.793	-0.428	0.015
-639.653	-97.598	0.821	-0.215
-638.638	-108.029	-0.637	0.139
-637.624	-84.218	-0.442	0.141
-636.609	-200.000	-0.032	0.678
-635.595	277.883	-0.062	-0.112
-634.580	-95.718	0.083	0.022
-633.565	-200.000	-0.023	-0.515
-632.551	-59.226	0.212	0.092
-631.536	-69.394	-0.387	-0.150
-630.522	-200.000	-0.035	-0.306
-629.507	130.311	-0.416	0.537
-628.492	152.391	-0.133	-0.183
-627.478	-200.000	-0.056	0.340
-626.463	728.419	-0.064	0.171
-625.449	-44.353	-0.856	-0.432
-624.434	-200.000	0.039	-0.285
-623.419	-200.000	0.049	0.951
-622.405	235.772	0.334	0.556
-621.390	-149.261	0.587	-0.047
-620.376	513.621	-0.218	0.512
-619.361	85.216	-0.179	0.197
-618.346	416.482	0.227	-0.488
-617.332	193.077	-0.499	0.760
-616.317	-200.000	0.056	-0.718
-615.303	162.002	0.351	0.495
-614.288	-200.000	-0.115	0.564
-613.273	726.151	0.053	-0.142
-612.259	239.509	0.174	-0.292
-611.244	68.282	0.903	-0.932
-610.230	28.913	-0.249	0.213
-609.215	32.640	0.335	-0.291
-608.201	-12.122	0.306	0.202
-607.186	-75.299	-0.411	0.148
-606.171	-200.000	0.039	-0.188
-605.157	-200.000	0.128	0.607
-604.142	-200.000	0.087	-0.636
-603.128	-200.000	-0.047	-0.665
-602.113	-36.139	-0.200	-0.109
-601.098	-6.668	-0.637	-0.436
-600.084	800.000	-0.172	-0.488
-599.069	-19.469	-0.114	0.071
-598.055	519.040	-0.360	0.849
-597.040	800.000	0.248	-0.837
-596.025	-81.565	-0.792	-0.262
-595.011	-200.000	-0.092	-0.999
-593.996	-22.320	-0.162	-0.099
-592.982	53.032	0.261	0.252
-591.967	-91.973	-0.343	0.098
-590.952	-62.728	-0.453	-0.189
-589.938	-117.544	-0.262	0.048
-588.923	-200.000	0.021	1.103
-587.909	-200.000	0.075	0.758
-586.894	-200.000	-0.088	-0.934
-585.879	-142.148	-0.547	-0.055
-584.865	-200.000	-0.018	-0.099
-583.850	800.000	0.244	0.915
-582.836	-75.061	0.220	-0.079
-581.821	544.987	0.050	-0.120
-580.806	609.467	0.167	0.419
-579.792	518.217	-0.179	-0.421
-578.777	301.848	-0.430	-0.799
-577.763	800.000	-0.170	0.647
-576.748	-200.000	-0.015	0.474
-575.733	800.000	-0.154	0.674
-574.719	-163.086	-0.041	0.002
-573.704	-65.335	-0.791	-0.320
-572.690	-61.638	-0.936	-0.395
-571.675	-97.096	0.318	-0.084
-570.661	-188.493	-0.647	0.008
-569.646	20.531	-0.275	0.224
-568.631	-53.131	0.221	-0.102
-567.617	259.972	0.296	-0.515
-566.602	-117.068	0.369	-0.068
-565.588	800.000	-0.155	0.500
-564.573	54.883	-0.293	-0.284
-563.558	800.000	0.130	-0.529
-562.544	-65.639	-1.399	0.564
-561.529	196.529	-0.440	0.673
-560.515	259.382	0.296	-0.514
-559.500	-100.274	-0.329	0.082
-558.485	570.233	-0.283	0.692
-557.471	-107.045	0.339	0.075
-556.456	17.449	-0.417	-0.333
-555.442	-23.167	-0.133	-0.081
-554.427	800.000	-0.288	-0.871
-553.412	14.358	0.823	0.645
-552.398	800.000	-0.094	0.303
-551.383	-55.449	0.655	-0.295
-550.369	-115.851	0.914	-0.172
-549.354	-42.193	0.806	0.414
-548.339	-52.439	0.472	0.219
-547.325	-63.926	-0.735	-0.302
-546.310	45.595	-0.223	-0.207
-545.296	-200.000	-0.067	-0.787
-544.281	40.678	0.486	-0.441
-543.266	-184.862	-0.503	0.008
-542.252	-119.377	-0.433	-0.076
-541.237	-176.944	0.645	-0.016
-540.223	800.000	-0.044	0.139
-539.208	462.407	0.176	-0.394
-538.193	-200.000	0.083	-0.481
-537.179	-85.451	-0.253	0.079
-536.164	-1.373	-0.856	0.607
-535.150	-76.663	-0.241	-0.085
-534.135	-151.451	-0.504	-0.038
-533.121	-200.000	-0.124	0.711
-532.106	-132.565	0.895	-0.115
-531.091	-43.263	0.517	0.263
-530.077	172.390	0.599	0.865
-529.062	33.394	-0.586	0.511
-528.048	-61.488	-0.344	0.145
-527.033	19.554	-0.257	0.208
-526.018	-105.840	0.380	-0.086
-525.004	-70.751	-0.348	0.132
-523.989	-117.830	0.474	0.085
-522.975	-145.001	0.274	0.025
-521.960	-104.409	-0.512	-0.119
-520.945	-135.184	1.499	-0.181
-519.931	-163.971	-0.609	0.028
-518.916	800.000	-0.215	-0.876
-517.902	-200.000	0.038	-0.433
-516.887	-200.000	0.076	0.708
-515.872	-138.603	0.234	-0.026
-514.858	-43.910	-0.354	-0.179
-513.843	-161.521	0.432	-0.022
-512.829	-200.000	0.203	0.968
-511.814	-200.000	0.120	0.544
-510.799	-200.000	0.033	-0.170
-509.785	-4.242	-0.663	0.461
-508.770	-200.000	-0.103	0.487
-507.756	34.838	0.288	0.253
-506.741	220.166	0.555	-0.892
-505.726	43.847	0.226	-0.208
-504.712	-134.221	-0.212	-0.026
-503.697	-28.744	-0.401	0.232
-502.683	117.126	0.408	-0.503
-501.668	-93.163	0.582	0.163
-500.653	-200.000	-0.102	0.712
-499.639	-121.736	0.282	-0.047
-498.624	21.868	-0.343	-0.280
-497.610	145.434	-0.093	0.125
-496.595	-136.880	0.176	0.020
-495.581	-135.180	-0.974	-0.117
-494.566	71.738	0.989	-1.032
-493.551	-30.307	0.336	-0.192
-492.537	-153.116	-0.180	-0.013
-491.522	-108.921	0.873	-0.187
-490.508	-166.303	0.318	-0.013
-489.493	-116.979	0.531	-0.097
-488.478	39.470	-0.238	-0.214
-487.464	-139.412	0.655	0.070
-486.449	181.915	0.118	-0.174
-485.435	132.323	0.562	0.726
-484.420	-200.000	-0.043	0.764
-483.405	-133.252	0.256	-0.032
-482.391	-162.719	1.010	0.050
-481.376	170.417	0.344	-0.494
-480.362	-138.419	-0.253	-0.028
-479.347	-200.000	-0.041	-0.199
-478.332	-200.000	0.001	-0.419
-477.318	66.558	-0.465	0.474
-476.303	800.000	0.079	-0.261
-475.289	350.571	0.234	-0.464
-474.274	800.000	0.157	0.579
-473.259	-13.128	-0.107	-0.069
-472.245	-104.379	1.404	0.326
-471.230	-200.000	0.015	0.098
-470.216	10.162	-0.236	0.180
-469.201	-200.000	-0.008	-0.334
-468.186	206.064	-0.255	-0.398
-467.172	-200.000	0.023	0.539
-466.157	800.000	-0.118	0.338
-465.143	37.577	0.400	0.355
-464.128	28.112	-0.420	-0.355
-463.113	261.786	-0.259	0.449
-462.099	-40.839	0.432	0.224
-461.084	-29.294	0.347	0.199
-460.070	-124.107	-0.615	0.097
-459.055	31.570	-0.189	-0.163
-458.040	3.965	-0.243	-0.178
-457.026	115.387	-0.094	0.114
-456.011	-44.174	-0.653	-0.328
-454.997	800.000	0.104	0.410
-453.982	-200.000	0.100	-0.494
-452.968	77.016	-0.487	0.518
-451.953	-47.022	-0.839	-0.410
-450.938	800.000	0.207	-0.639
-449.924	-200.000	-0.000	0.439
-448.909	-87.277	-1.109	-0.337
-447.895	-125.962	-0.131	0.020
-446.880	82.107	0.650	0.705
-445.865	-200.000	-0.039	-0.472
-444.851	22.796	-0.301	-0.247
-443.836	-57.441	0.809	-0.356
-442.822	503.219	0.101	0.234
-441.807	-39.687	-0.515	-0.270
-440.792	230.677	0.520	-0.851
-439.778	-99.810	0.361	-0.090
-438.763	-1.410	0.459	0.324
-437.749	800.000	-0.347	-1.020
-436.734	-58.440	-0.187	0.081
-435.719	427.989	-0.381	0.824
-434.705	-59.098	-0.476	-0.205
-433.690	69.491	-0.088	-0.091
-432.676	467.920	-0.534	-1.199
-431.661	-91.443	0.445	0.127
-430.646	10.614	-0.552	0.421
-429.632	-136.186	0.399	-0.047
-428.617	-200.000	-0.014	-0.348
-427.603	15.731	0.188	0.148
-426.588	224.180	-0.341	-0.551
-425.573	-36.211	-0.558	-0.301
-424.559	235.762	0.144	-0.237
-423.544	-200.000	0.040	-0.186
-422.530	-25.739	-0.198	-0.117
-421.515	-165.857	-0.250	-0.011
-420.500	20.628	0.189	0.153
-419.486	-200.000	-0.138	0.833
-418.471	95.231	0.744	0.848
-417.457	-162.389	-0.385	0.019
-416.442	112.326	0.663	-0.801
-415.428	-36.818	-0.514	0.276
-414.413	166.394	0.281	0.398
-413.398	800.000	-0.220	-0.755
-412.384	66.957	0.220	0.224
-411.369	688.656	0.162	0.425
-410.355	65.845	0.392	0.397
-409.340	533.824	-0.328	0.776
-408.325	800.000	-0.077	-0.326
-407.311	125.443	-0.448	0.565
-406.296	-48.869	0.608	0.291
-405.282	21.256	0.466	0.378
-404.267	9.039	-0.078	0.059
-403.252	510.392	-0.369	-0.857
-402.238	6.846	-0.310	-0.231
-401.223	-105.456	0.603	0.137
-400.209	-200.000	-0.088	0.442
-399.194	800.000	-0.310	1.106
-398.179	585.873	0.196	0.482
-397.165	-200.000	-0.005	-0.468
-396.150	800.000	-0.042	-0.152
-395.136	-200.000	-0.061	0.411
-394.121	82.473	-0.274	-0.297
-393.106	-28.431	0.344	-0.199
-392.092	279.954	-0.199	-0.356
-391.077	-10.464	0.735	-0.487
-390.063	227.860	-0.512	0.832
-389.048	26.751	-0.393	0.329
-388.033	433.431	0.075	-0.162
-387.019	800.000	0.162	-0.448
-386.004	32.764	0.115	0.100
-384.990	33.289	0.230	0.199
-383.975	-200.000	-0.039	0.336
-382.960	60.216	-0.381	-0.377
-381.946	-200.000	-0.160	-0.751
-380.931	-125.907	-0.734	-0.110
-379.917	494.051	-0.117	0.269
-378.902	-200.000	-0.015	0.525
-377.888	-104.468	-0.732	-0.169
-376.873	229.680	0.391	-0.638
-375.858	800.000	-0.168	0.592
-374.844	-200.000	0.031	-0.184
-373.829	123.311	-0.116	-0.145
-372.815	498.593	0.039	0.090
-371.800	800.000	-0.224	0.896
-370.785	-166.309	-0.532	-0.022
-369.771	-200.000	-0.053	-0.392
-368.756	456.517	0.489	-1.084
-367.742	-98.097	1.095	0.281
-366.727	34.384	0.655	0.571
-365.712	-200.000	0.159	-0.928
-364.698	271.899	0.275	-0.483
-363.683	-139.390	-0.633	-0.068
-362.669	-200.000	0.132	0.747
-361.654	-159.380	-0.099	-0.006
-360.639	-200.000	0.034	0.189
-359.625	-135.309	-0.155	-0.018
-358.610	-200.000	-0.134	-0.752
-357.596	20.662	0.429	0.347
-356.581	-49.251	0.441	0.210
-355.566	800.000	0.092	0.291
-354.552	41.097	-0.307	-0.276
-353.537	704.720	0.039	0.103
-352.523	20.191	-0.775	-0.624
-351.508	39.847	0.397	-0.355
-350.493	34.743	0.418	0.364
-349.479	-44.374	0.072	-0.036
-348.464	-81.722	1.138	-0.372
-347.450	650.089	-0.401	1.025
-346.435	3.145	0.718	0.520
-345.420	800.000	-0.074	0.294
-344.406	-112.794	0.253	-0.050
-343.391	412.993	0.076	-0.161
-342.377	-200.000	0.181	1.079
-341.362	-32.583	0.429	-0.238
-340.348	-4.616	-0.641	0.441
-339.333	-70.904	0.455	0.171
-338.318	-126.673	-1.153	0.170
-337.304	205.845	-0.087	0.134
-336.289	-86.513	-0.483	-0.148
-335.275	-200.000	-0.009	-0.180
-334.260	213.722	-0.382	-0.602
-333.245	-6.923	0.356	0.241
-332.231	-27.263	-0.279	-0.162
-331.216	-19.815	-0.237	-0.146
-330.202	105.050	0.307	0.361
-329.187	-200.000	0.086	0.671
-328.172	800.000	-0.141	0.435
-327.158	15.997	0.470	0.369
-326.143	588.649	0.467	1.146
-325.129	-8.952	0.251	0.168
-324.114	-200.000	-0.077	-0.414
-323.099	-69.988	-0.072	-0.027
-322.085	-53.265	-0.261	-0.119
-321.070	-133.535	-0.685	0.085
-320.056	79.586	0.151	0.161
-319.041	800.000	0.180	0.749
-318.026	800.000	0.257	1.059
-317.012	-16.630	-0.395	0.249
-315.997	-187.957	0.861	-0.011
-314.983	-76.369	0.222	0.078
-313.968	-124.119	-0.822	-0.128
-312.953	0.185	-0.430	0.305
-311.939	-13.018	-0.632	-0.410
-310.924	-182.012	-0.637	-0.012
-309.910	-4.176	0.408	0.281
-308.895	-200.000	-0.047	0.300
-307.880	-73.711	0.835	0.303
-306.866	800.000	0.208	0.703
-305.851	800.000	-0.236	0.853
-304.837	800.000	-0.126	-0.349
-303.822	-200.000	0.137	-0.656
-302.807	-200.000	-0.097	-0.467
-301.793	726.861	-0.048	0.129
-300.778	-73.654	0.477	0.173
-299.764	153.300	0.384	-0.523
-298.749	-59.342	0.251	0.108
-297.735	-200.000	0.033	0.297
-296.720	370.313	-0.322	0.650
-295.705	-31.606	0.657	0.367
-294.691	142.329	0.413	-0.545
-293.676	420.992	0.155	-0.331
-292.662	-200.000	0.096	-0.632
-291.647	71.630	-0.208	-0.215
-290.632	280.507	-0.272	0.484
-289.618	-77.058	-0.290	-0.101
-288.603	-200.000	0.051	0.307
-287.589	-87.766	-0.500	0.150
-286.574	-77.450	-0.328	0.113
-285.559	71.558	0.393	0.407
-284.545	-126.866	-0.621	-0.091
-283.530	-58.528	-0.632	0.273
-282.516	-137.841	-0.543	-0.060
-281.501	-112.881	0.844	-0.166
-280.486	-67.315	-0.831	-0.325
-279.472	-156.254	0.755	0.047
-278.457	18.209	0.753	-0.597
-277.443	271.458	0.364	-0.637
-276.428	153.242	-0.101	0.137
-275.413	800.000	0.102	-0.411
-274.399	-98.543	0.507	-0.129
-273.384	67.342	0.519	-0.527
-272.370	-200.000	0.070	-0.678
-271.355	73.694	0.503	-0.524
-270.340	-21.825	0.222	-0.135
-269.326	-0.847	0.244	0.172
-268.311	-132.199	0.416	0.054
-267.297	-200.000	0.043	-0.263
-266.282	2.764	-0.362	-0.261
-265.267	-29.862	-0.716	-0.405
-264.253	-200.000	0.058	0.431
-263.238	800.000	-0.136	-0.383
-262.224	623.529	0.232	-0.580
-261.209	-200.000	0.022	0.341
-260.195	194.948	-0.431	0.651
-259.180	800.000	-0.062	-0.187
-258.165	518.800	-0.332	-0.772
-257.151	800.000	0.069	0.275
-256.136	-161.569	0.403	0.021
-255.122	-111.200	-0.900	-0.183
-254.107	7.227	0.479	-0.355
-253.092	115.830	-0.679	-0.825
-252.078	800.000	-0.246	0.763
-251.063	-40.724	0.487	-0.251
-250.049	241.137	0.085	-0.141
-249.034	-99.345	0.329	-0.082
-248.019	176.810	-0.304	0.440
-247.005	-130.852	-0.885	0.118
-245.990	147.671	0.489	0.654
-244.976	10.258	0.650	-0.491
-243.961	112.990	0.407	-0.490
-242.946	-200.000	0.038	-0.845
-241.932	-14.206	-0.400	-0.256
-240.917	800.000	-0.261	0.937
-239.903	800.000	-0.247	-0.747
-238.888	800.000	-0.309	0.909
-237.873	47.748	0.329	-0.305
-236.859	-8.417	0.788	0.526
-235.844	-200.000	0.023	-0.469
-234.830	-200.000	-0.016	0.244
-233.815	220.840	0.045	0.072
-232.800	220.845	0.122	0.195
-231.786	535.848	0.453	-1.068
-230.771	800.000	-0.215	0.916
-229.757	-77.878	-0.820	-0.281
-228.742	124.215	0.126	-0.157
-227.727	669.742	-0.172	0.443
-226.713	-200.000	0.068	-0.518
-225.698	-129.786	0.436	0.060
-224.684	45.161	0.425	0.389
-223.669	750.979	0.130	0.348
-222.655	-82.587	-1.091	-0.351
-221.640	-84.086	-0.629	0.198
-220.625	76.829	-0.098	0.103
-219.611	-200.000	-0.044	-0.826
-218.596	-174.819	-0.211	0.006
-217.582	-71.453	-0.658	0.244
-216.567	-200.000	-0.026	0.160
-215.552	69.946	-0.361	-0.369
-214.538	75.793	0.583	0.611
-213.523	-42.255	-0.179	0.091
-212.509	491.245	0.339	-0.771
-211.494	-200.000	-0.064	0.293
-210.479	535.523	-0.231	0.543
-209.465	33.768	0.581	0.501
-208.450	71.775	0.379	-0.391
-207.436	-118.392	1.221	0.215
-206.421	-200.000	0.015	-0.758
-205.406	140.779	-0.318	-0.417
-204.392	-124.100	0.631	0.098
-203.377	42.953	0.651	-0.589
-202.363	800.000	0.082	0.323
-201.348	-200.000	0.019	0.586
-200.333	596.347	-0.215	0.528
-199.319	-36.087	0.450	0.241
-198.304	98.167	-0.148	-0.169
-197.290	240.768	-0.334	-0.552
-196.275	-17.600	0.669	0.417
-195.260	124.659	-0.226	-0.282
-194.246	-200.000	0.014	0.794
-193.231	-200.000	0.035	0.516
-192.217	91.215	0.187	-0.208
-191.202	50.676	0.630	-0.591
-190.187	-77.713	-0.903	-0.310
-189.173	71.179	0.790	0.812
-188.158	-134.212	0.534	0.065
-187.144	-8.070	0.469	-0.313
-186.129	531.279	0.127	0.297
-185.114	-28.492	0.514	0.294
-184.100	129.241	-0.084	-0.106
-183.085	-122.151	0.420	-0.068
-182.071	-32.611	-0.520	-0.287
-181.056	-105.235	0.414	-0.094
-180.042	148.641	-0.197	-0.264
-179.027	106.588	-0.037	-0.043
-178.012	-200.000	0.001	-0.186
-176.998	79.647	-0.714	0.759
-175.983	800.000	-0.280	-0.904
-174.969	352.343	0.139	-0.273
-173.954	-200.000	-0.013	0.183
-172.939	42.490	-0.402	0.362
-171.925	-115.436	-0.359	-0.067
-170.910	361.602	-0.250	-0.496
-169.896	-200.000	0.060	-0.886
-168.881	-57.007	0.670	0.293
-167.866	-19.930	-0.724	0.443
-166.852	-85.799	-0.734	-0.225
-165.837	-67.252	0.726	-0.283
-164.823	41.868	-0.550	-0.494
-163.808	40.758	0.546	-0.487
-162.793	11.331	0.161	-0.122
-161.779	765.520	-0.277	-0.744
-160.764	-200.000	-0.172	0.751
-159.750	800.000	-0.169	-0.735
-158.735	800.000	-0.061	-0.253
-157.720	343.249	0.114	-0.221
-156.706	357.275	-0.171	-0.338
-155.691	600.541	0.113	0.279
-154.677	-179.766	0.442	-0.009
-153.662	85.787	-0.452	-0.492
-152.647	336.102	-0.246	-0.472
-151.633	800.000	0.246	-0.723
-150.618	368.225	-0.458	-0.917
-149.604	728.225	0.054	0.142
-148.589	800.000	-0.202	-0.651
-147.574	-200.000	0.026	0.328
-146.560	319.341	-0.307	-0.576
-145.545	-141.119	-0.472	-0.048
-144.531	-200.000	0.003	0.201
-143.516	49.860	0.692	0.646
-142.502	-52.593	-0.227	-0.104
-141.487	-162.426	0.517	0.025
-140.472	-200.000	0.014	-0.270
-139.458	-14.822	-0.804	-0.511
-138.443	-200.000	0.006	0.315
-137.429	-95.597	0.474	-0.126
-136.414	523.344	0.255	0.593
-135.399	-200.000	0.256	-1.170
-134.385	413.872	0.163	0.344
-133.370	209.673	0.357	-0.554
-132.356	800.000	0.245	0.785
-131.341	-76.165	-0.525	0.183
-130.326	-38.472	0.835	0.437
-129.312	-142.796	-0.190	-0.018
-128.297	209.005	0.186	-0.287
-127.283	-35.079	0.772	-0.416
-126.268	-44.368	0.590	0.292
-125.253	-123.928	0.941	-0.147
-124.239	-17.695	0.623	-0.387
-123.224	149.562	-0.265	-0.355
-122.210	372.111	-0.321	-0.644
-121.195	294.788	0.094	0.170
-120.180	-200.000	-0.002	-0.086
-119.166	-171.308	-0.220	-0.007
-118.151	-65.416	0.359	-0.143
-117.137	-79.214	-0.344	-0.115
-116.122	-108.789	0.572	0.121
-115.107	56.186	-0.361	-0.347
-114.093	-76.875	0.260	0.090
-113.078	34.087	-0.640	0.551
-112.064	800.000	0.145	0.446
-111.049	-52.601	0.136	0.062
-110.034	0.341	0.628	0.443
-109.020	430.192	-0.467	-0.999
-108.005	-60.271	-0.304	0.128
-106.991	-50.126	-0.097	-0.045
-105.976	800.000	0.091	0.294
-104.962	208.379	0.351	-0.542
-103.947	-6.654	0.296	0.199
-102.932	465.039	0.333	0.737
-101.918	800.000	-0.188	-0.663
-100.903	-168.596	0.130	0.005
-99.889	77.967	0.268	0.282
-98.874	191.633	-0.242	-0.360
-97.859	-24.803	-0.396	-0.232
-96.845	432.879	0.145	0.311
-95.830	788.921	-0.184	-0.499
-94.816	-107.693	-0.573	-0.123
-93.801	139.789	0.115	0.150
-92.786	-107.069	0.411	-0.090
-91.772	64.902	-0.778	-0.775
-90.757	-200.000	-0.384	-0.002
-89.743	134.981	0.395	-0.507
-88.728	8.740	-0.366	-0.273
-87.713	782.564	-0.338	-0.914
-86.699	800.000	-0.031	-0.110
-85.684	-133.436	-0.713	-0.088
-84.670	-200.000	0.002	0.496
-83.655	-173.238	0.621	-0.019
-82.640	163.457	-0.115	0.160
-81.626	-147.538	0.531	-0.044
-80.611	-200.000	0.111	-0.487
-79.597	800.000	-0.184	-0.506
-78.582	-147.379	-0.214	0.018
-77.567	286.616	-0.515	-0.918
-76.553	-79.693	0.404	0.134
-75.538	-123.124	0.736	-0.117
-74.524	97.158	-0.645	-0.731
-73.509	123.972	-0.183	-0.227
-72.494	493.408	0.142	-0.320
-71.480	-168.593	0.564	-0.021
-70.465	476.417	-0.238	-0.530
-69.451	-93.991	-0.227	-0.062
-68.436	124.782	0.361	-0.449
-67.422	-163.210	-0.377	0.018
-66.407	-54.821	0.724	0.322
-65.392	-19.915	-0.122	-0.074
-64.378	-123.008	-0.411	-0.065
-63.363	800.000	-0.159	-0.450
-62.349	168.098	-0.365	-0.512
-61.334	-151.028	-1.131	-0.084
-60.319	376.828	0.628	1.264
-59.305	800.000	-0.341	-1.144
-58.290	-18.517	1.080	0.665
-57.276	-200.000	0.274	1.641
-56.261	-200.000	96.309	574.157
-55.246	633.702	1376.957	3441.642
-54.232	196.263	2557.186	3838.277
-53.217	117.836	2158.961	2621.274
-52.203	44.198	1701.604	1538.900
-51.188	37.063	1516.189	1322.726
-50.173	34.721	1488.633	1282.926
-49.159	55.677	1538.851	1469.614
-48.144	56.309	1558.588	1492.717
-47.130	37.174	1516.375	1323.434
-46.115	34.022	1501.620	1289.178
-45.100	33.973	1496.874	1284.719
-44.086	33.778	1496.441	1282.977
-43.071	33.546	1495.183	1280.284
-42.057	33.654	1493.154	1279.226
-41.042	33.758	1490.839	1277.891
-40.027	33.795	1489.257	1276.735
-39.013	33.747	1488.115	1275.381
-37.998	33.793	1487.185	1274.843
-36.984	33.627	1486.489	1273.077
-35.969	33.798	1484.417	1272.397
-34.954	33.819	1482.967	1271.247
-33.940	33.598	1483.073	1269.807
-32.925	33.872	1480.807	1269.648
-31.911	33.895	1479.337	1268.495
-30.896	33.865	1477.983	1267.081
-29.881	33.972	1477.376	1267.226
-28.867	33.869	1474.880	1264.344
-27.852	34.120	1473.613	1264.883
-26.838	33.560	1472.951	1260.536
-25.823	33.971	1470.716	1261.301
-24.809	33.663	1470.034	1258.624
-23.794	33.752	1468.197	1257.591
-22.779	33.600	1467.218	1255.695
-21.765	33.825	1465.524	1255.689
-20.750	33.863	1464.882	1255.339
-19.736	33.698	1465.379	1254.624
-18.721	33.793	1462.896	1253.071
-17.706	33.646	1461.798	1251.116
-16.692	33.610	1460.004	1249.294
-15.677	33.616	1460.323	1249.552
-14.663	33.821	1457.626	1248.548
-13.648	33.664	1458.242	1247.991
-12.633	33.939	1456.041	1247.864
-11.619	33.620	1456.907	1246.463
-10.604	33.564	1455.218	1244.601
-9.590	33.649	1454.713	1244.672
-8.575	33.712	1453.730	1244.199
-7.560	33.676	1452.927	1243.223
-6.546	33.764	1452.086	1243.031
-5.531	33.764	1451.027	1242.074
-4.517	33.668	1449.142	1239.787
-3.502	33.810	1449.223	1240.733
-2.487	33.620	1448.791	1239.072
-1.473	33.838	1446.817	1238.761
-0.458	34.051	1444.801	1238.372
0.556	34.605	1436.793	1225.718
1.571	31.235	1411.016	1182.327
2.586	27.412	1351.212	1108.881
3.600	25.596	1269.768	1031.549
4.615	24.084	1224.123	986.010
5.629	20.811	1166.870	922.505
6.644	11.585	1081.870	809.708
7.659	4.182	1040.970	743.619
8.673	3.367	1034.331	734.925
9.688	3.015	1030.704	730.610
10.702	2.655	1030.158	728.447
11.717	2.765	1028.159	727.488
12.731	6.260	1030.578	745.727
13.746	15.267	1045.305	799.447
14.761	23.453	1055.383	846.329
15.775	26.182	1057.773	861.210
16.790	26.479	1057.513	862.335
17.804	26.434	1056.284	861.042
18.819	25.910	1056.847	858.932
19.834	26.378	1055.024	859.600
20.848	26.445	1055.350	860.106
21.863	26.467	1055.131	859.959
22.877	26.380	1054.609	859.042
23.892	26.319	1054.828	858.852
24.907	26.124	1053.897	857.096
25.921	26.421	1052.141	856.999
26.936	26.478	1052.135	857.188
27.950	26.290	1050.605	854.974
28.965	26.221	1049.898	853.999
29.980	26.641	1047.481	853.937
30.994	26.103	1048.092	851.820
32.009	26.347	1047.047	852.045
33.023	26.540	1045.387	851.530
34.038	26.102	1043.806	848.107
35.053	26.507	1043.898	850.010
36.067	26.227	1043.501	848.297
37.082	26.387	1042.541	848.191
38.096	26.603	1041.296	848.117
39.111	26.471	1041.312	847.437
40.126	26.634	1040.721	847.642
41.140	26.641	1039.063	846.249
42.155	26.191	1037.844	843.080
43.169	26.205	1036.220	841.753
44.184	25.987	1036.095	840.561
45.199	25.925	1035.634	839.824
46.213	25.966	1033.111	837.896
47.228	25.731	1033.241	836.833
48.242	26.282	1031.836	838.178
49.257	26.141	1032.276	837.808
50.271	26.280	1031.026	837.362
51.286	26.306	1029.875	836.476
52.301	26.430	1028.849	836.142
53.315	26.626	1028.726	836.870
54.330	26.394	1028.703	835.706
55.344	26.285	1027.805	834.403
56.359	26.394	1026.293	833.601
57.374	26.402	1024.880	832.415
58.388	26.150	1024.953	831.241
59.403	26.170	1024.432	830.840
60.417	25.968	1023.401	828.999
61.432	26.180	1022.405	829.095
62.447	25.946	1021.380	827.114
63.461	25.916	1021.868	827.300
64.476	26.365	1020.398	828.091
65.490	26.119	1020.029	826.595
66.505	26.067	1018.350	824.923
67.520	25.733	1018.928	823.789
68.534	26.207	1017.129	824.425
69.549	26.028	1016.986	823.423
70.563	25.818	1014.937	820.735
71.578	25.541	1015.088	819.519
72.593	25.828	1013.691	819.626
73.607	25.672	1012.198	817.637
74.622	25.681	1011.834	817.312
75.636	25.879	1011.545	817.903
76.651	25.869	1010.283	816.767
77.666	26.149	1008.688	816.670
78.680	25.662	1008.822	814.503
79.695	25.795	1008.810	815.023
80.709	25.765	1007.425	813.699
81.724	25.852	1006.953	813.639
82.739	25.940	1005.825	813.053
83.753	26.013	1004.646	812.353
84.768	26.495	1003.780	813.749
85.782	26.667	1004.232	814.818
86.797	26.705	1003.825	814.587
87.812	26.671	1003.150	813.815
88.826	26.603	1002.113	812.594
89.841	26.450	1001.643	811.457
90.855	26.672	1000.178	811.194
91.870	26.676	999.078	810.248
92.884	26.698	998.712	809.978
93.899	26.609	997.747	808.724
94.914	26.006	997.613	805.853
95.928	26.355	996.553	806.482
96.943	26.462	995.723	806.216
97.957	26.385	992.937	803.544
98.972	26.205	992.014	801.930
99.987	26.135	991.365	801.024
101.001	25.988	991.974	800.791
102.016	26.246	990.790	800.909
103.030	26.384	991.057	801.664
104.045	26.328	988.613	799.369
105.060	26.211	988.310	798.535
106.074	25.995	987.035	796.480
107.089	26.085	985.928	795.914
108.103	26.374	985.758	796.980
109.118	26.364	985.330	796.520
110.133	26.434	983.747	795.480
111.147	26.059	983.400	793.480
112.162	26.181	980.892	791.921
113.176	25.499	981.601	789.429
114.191	25.941	980.172	790.149
115.206	25.975	979.815	789.939
116.220	25.865	978.750	788.529
117.235	25.649	977.531	786.534
118.249	25.633	977.768	786.584
119.264	25.607	976.881	785.687
120.279	25.859	974.553	784.845
121.293	25.631	974.327	783.598
122.308	25.817	974.069	784.132
123.322	25.502	973.606	782.317
124.337	25.580	972.776	781.923
125.352	25.758	970.327	780.657
126.366	25.019	969.139	776.428
127.381	24.822	968.203	774.758
128.395	25.032	968.309	775.682
129.410	25.952	967.503	778.946
130.424	26.240	967.132	779.824
131.439	26.022	966.136	778.011
132.454	26.051	964.924	777.089
133.468	26.015	964.122	776.221
134.483	26.177	962.204	775.303
135.497	26.178	962.586	775.547
136.512	26.235	962.352	775.536
137.527	26.131	961.655	774.457
138.541	26.669	959.922	775.296
139.556	26.507	960.298	774.838
140.570	26.444	959.701	774.020
141.585	26.631	958.170	773.516
142.600	26.641	957.893	773.265
143.614	26.572	957.368	772.480
144.629	26.336	957.314	771.358
145.643	27.058	955.316	772.753
146.658	26.832	954.915	771.401
147.673	26.528	953.436	768.848
148.687	26.449	952.350	767.567
149.702	26.538	950.767	766.600
150.716	26.170	950.402	764.679
151.731	26.259	950.682	765.214
152.746	26.362	948.982	764.213
153.760	26.307	949.455	764.297
154.775	26.683	948.469	765.024
155.789	26.607	947.721	764.032
156.804	26.648	945.526	762.364
157.819	26.982	944.180	762.618
158.833	26.619	945.167	761.821
159.848	26.845	944.380	762.066
160.862	27.078	943.196	762.023
161.877	26.817	942.076	759.955
162.892	26.410	940.962	757.287
163.906	26.891	940.385	758.768
164.921	26.671	939.786	757.298
165.935	26.636	938.338	755.917
166.950	26.687	937.609	755.477
167.964	26.569	937.024	754.445
168.979	26.752	935.531	753.937
169.994	26.595	934.395	752.303
171.008	26.551	933.109	751.020
172.023	26.559	933.657	751.426
173.037	26.911	932.136	751.597
174.052	26.493	930.981	748.869
175.067	26.312	930.511	747.672
176.081	26.443	929.357	747.223
177.096	26.410	929.144	746.850
178.110	26.527	927.993	746.339
179.125	26.272	927.235	744.614
180.140	26.116	925.936	742.862
181.154	25.859	926.378	742.093
182.169	26.183	924.817	742.109
183.183	26.305	925.167	742.825
184.198	26.635	924.425	743.520
185.213	26.496	923.857	742.427
186.227	26.624	923.438	742.549
187.242	26.482	922.690	741.301
188.256	26.591	922.328	741.388
189.271	26.435	921.638	740.132
190.286	26.613	920.015	739.488
191.300	26.641	919.535	739.155
192.315	25.712	917.526	733.689
193.329	25.167	916.796	730.818
194.344	24.815	915.384	728.195
195.359	25.613	915.943	731.824
196.373	26.730	916.131	736.450
197.388	26.572	915.938	735.591
198.402	26.562	914.562	734.378
199.417	26.467	914.327	733.738
200.432	26.932	913.868	735.192
201.446	26.629	913.515	733.614
202.461	26.003	913.053	730.644
203.475	26.048	912.934	730.666
204.490	26.154	909.945	728.638
205.504	24.412	908.945	720.742
206.519	24.941	908.606	722.545
207.534	25.883	909.122	726.691
208.548	25.785	908.608	725.824
209.563	26.417	907.855	727.701
210.577	26.503	907.124	727.394
211.592	26.270	906.392	725.806
212.607	26.211	907.007	725.999
213.621	26.705	906.347	727.390
214.636	26.922	904.331	726.579
215.650	26.602	904.854	725.651
216.665	26.892	903.989	726.053
217.680	26.808	903.359	725.146
218.694	26.535	903.995	724.500
219.709	26.130	903.061	722.070
220.723	26.205	901.014	720.668
221.738	26.640	899.899	721.444
222.753	26.550	900.365	721.395
223.767	26.420	900.474	720.902
224.782	26.562	898.919	720.157
225.796	26.574	899.078	720.269
226.811	26.905	897.979	720.640
227.826	26.369	896.608	717.352
228.840	25.674	895.256	713.451
229.855	25.617	894.392	712.474
230.869	25.762	895.035	713.498
231.884	25.643	893.419	711.673
232.899	25.422	893.457	710.769
233.913	26.331	893.737	714.525
234.928	26.556	892.259	714.167
235.942	26.914	891.771	715.123
236.957	26.337	891.968	712.941
237.972	26.078	890.219	710.462
238.986	26.004	889.778	709.756
240.001	26.460	889.595	711.343
241.015	26.305	888.229	709.576
242.030	26.205	887.762	708.748
243.045	26.266	888.050	709.158
244.059	26.551	887.114	709.463
245.074	26.612	886.787	709.376
246.088	26.802	884.984	708.614
247.103	26.297	885.060	706.638
248.117	26.307	884.878	706.469
249.132	26.946	884.964	708.973
250.147	27.188	883.920	709.020
251.161	27.208	883.538	708.727
252.176	27.571	883.804	710.293
253.190	27.357	883.253	708.954
254.205	27.603	881.601	708.520
255.220	27.918	881.097	709.277
256.234	27.824	881.035	708.801
257.249	27.638	881.129	708.091
258.263	27.276	880.962	706.485
259.278	27.202	879.489	704.958
260.293	27.444	878.686	705.189
261.307	27.520	879.212	705.840
262.322	27.363	878.551	704.642
263.336	27.368	877.658	703.883
264.351	26.848	876.477	700.864
265.366	25.976	873.978	695.444
266.380	25.397	873.450	692.726
267.395	26.245	874.102	696.457
268.409	26.639	873.397	697.347
269.424	26.983	873.087	698.362
270.439	27.302	871.959	698.625
271.453	26.966	872.564	697.757
272.468	27.370	871.249	698.192
273.482	27.577	871.071	698.784
274.497	27.652	870.366	698.441
275.512	27.290	870.291	696.933
276.526	26.782	868.110	693.182
277.541	27.150	867.771	694.259
278.555	27.511	867.180	695.100
279.570	27.240	867.100	693.940
280.585	26.823	866.321	691.668
281.599	27.075	866.048	692.349
282.614	27.343	865.317	692.721
283.628	27.016	864.480	690.747
284.643	26.495	863.514	687.933
285.657	26.832	863.444	689.099
286.672	26.664	863.226	688.226
287.687	26.208	861.549	685.099
288.701	26.376	862.210	686.199
289.716	26.896	861.589	687.619
290.730	26.563	861.160	685.953
291.745	26.579	859.583	684.696
292.760	26.240	859.261	683.098
293.774	26.066	858.313	681.626
294.789	27.013	859.286	685.916
295.803	27.439	859.166	687.370
296.818	27.645	858.495	687.549
297.833	28.041	857.779	688.406
298.847	27.553	856.949	685.844
299.862	27.283	856.301	684.246
300.876	27.423	855.922	684.411
301.891	27.447	855.871	684.399
302.906	27.772	855.034	684.891
303.920	27.379	854.396	682.846
304.935	27.155	852.963	680.801
305.949	27.695	853.333	683.059
306.964	27.796	851.879	682.213
307.979	27.791	850.959	681.397
308.993	27.578	850.320	680.028
310.008	28.214	850.039	682.116
311.022	28.057	850.092	681.512
312.037	27.817	850.250	680.684
313.052	27.560	850.229	679.647
314.066	27.276	848.894	677.464
315.081	26.606	846.799	673.241
316.095	25.883	845.508	669.473
317.110	26.301	846.437	671.701
318.125	27.364	845.806	675.085
319.139	26.843	845.750	673.050
320.154	25.787	844.128	667.786
321.168	25.500	843.187	665.919
322.183	25.632	843.261	666.407
323.197	27.071	844.031	672.287
324.212	27.350	843.448	672.796
325.227	27.436	842.831	672.561
326.241	27.862	842.069	673.464
327.256	27.493	841.416	671.522
328.270	27.185	841.509	670.402
329.285	26.907	841.184	669.059
330.300	27.137	839.412	668.436
331.314	26.924	839.117	667.361
332.329	27.015	838.439	667.094
333.343	27.150	838.452	667.544
334.358	27.451	838.387	668.535
335.373	27.611	837.478	668.340
336.387	27.521	836.119	666.865
337.402	27.805	836.616	668.243
338.416	28.319	835.344	669.046
339.431	27.672	836.487	667.535
340.446	28.194	834.892	668.110
341.460	28.257	834.550	668.006
342.475	28.112	834.444	667.335
343.489	28.162	833.244	666.496
344.504	27.942	833.272	665.659
345.519	28.286	832.764	666.448
346.533	28.706	831.907	667.227
347.548	28.280	831.849	665.574
348.562	28.576	830.478	665.491
349.577	28.417	830.714	665.046
350.592	28.633	830.292	665.432
351.606	28.549	829.665	664.567
352.621	28.158	829.597	663.038
353.635	28.463	828.689	663.359
354.650	28.186	828.013	661.754
355.665	27.988	827.222	660.351
356.679	27.079	825.676	655.777
357.694	26.423	824.954	652.778
358.708	26.920	825.374	654.847
359.723	27.322	824.580	655.608
360.738	27.472	824.780	656.249
361.752	27.744	824.317	656.801
362.767	27.703	824.626	656.843
363.781	28.319	823.650	658.224
364.796	28.717	822.719	658.850
365.810	29.208	822.422	660.313
366.825	28.802	822.578	658.922
367.840	28.664	822.941	658.660
368.854	28.236	822.426	656.655
369.869	28.347	821.019	655.873
370.883	27.769	820.978	653.712
371.898	28.078	819.834	653.849
372.913	28.266	819.382	654.101
373.927	28.034	818.359	652.396
374.942	28.135	818.149	652.533
375.956	28.271	817.620	652.537
376.971	28.557	817.188	653.156
377.986	28.213	816.862	651.612
379.000	28.844	815.540	652.742
380.015	28.813	815.298	652.380
381.029	28.532	814.888	650.996
382.044	28.456	814.839	650.632
383.059	28.654	814.148	650.724
384.073	28.965	813.044	650.885
385.088	28.621	813.202	649.734
386.102	28.650	812.528	649.243
387.117	28.468	812.191	648.272
388.132	28.341	811.029	646.838
389.146	27.997	811.030	645.565
390.161	27.885	808.652	643.224
391.175	28.025	808.282	643.364
392.190	28.103	809.314	644.404
393.205	28.327	809.061	644.935
394.219	27.513	807.385	640.681
395.234	25.741	805.289	632.738
396.248	24.797	803.768	628.174
397.263	26.092	803.769	632.663
398.278	27.594	806.301	639.878
399.292	28.192	805.661	641.410
400.307	28.037	806.022	641.097
401.321	27.987	803.719	639.032
402.336	27.760	804.735	638.988
403.350	28.097	804.506	639.930
404.365	28.703	804.049	641.629
405.380	28.981	803.685	642.254
406.394	29.322	803.591	643.309
407.409	29.378	803.800	643.614
408.423	29.085	803.604	642.380
409.438	29.267	802.350	641.955
410.453	29.506	802.296	642.687
411.467	30.021	799.996	642.574
412.482	29.516	800.599	641.247
413.496	29.085	800.469	639.590
414.511	29.541	800.012	640.750
415.526	29.449	800.167	640.501
416.540	29.403	799.277	639.571
417.555	29.223	799.274	638.888
418.569	29.586	797.265	638.480
419.584	29.046	797.207	636.513
420.599	28.983	796.516	635.685
421.613	159.001	1370.104	1792.096
422.628	137.866	1453.668	1792.221
