DTS Sentinel unit serial number:	SN413079Multiplexer serial number:	ORYXHardware model number:	OX4-SRSoftware version number:	ORYX F/W v4.00 Oryx Data Collector v3.7.2.0data status	okinstallation	princeton_trtdifferential loss correction	single-endedforward channel	channel 3reverse channel	N/Adate	2019/09/10time	18:26:10forward acquisition time	60.00reverse acquisition time	0.00gamma	496.2192k internal	0.2305k external	0.2305temperature offset calibration	0.9917default loss term (dB/km)	0.3790temperature slope calibration	1.0000multiplexer offset coefficient	1.0000multiplexer slope coefficient	1.0000fibre end	0.00T internal ref (°C)	36.05T ext. ref 1 (°C)	-0.34T ext. ref 2 (°C)	28.11length (m)	temperature (°C)	Stokes	anti-Stokes-747.200	94.116	0.145	-0.168
-746.185	160.608	0.170	0.242
-745.171	800.000	0.053	-0.204
-744.156	-40.463	-0.410	0.217
-743.142	519.585	-0.111	0.266
-742.127	-200.000	-0.065	0.604
-741.112	800.000	0.103	-0.371
-740.098	-200.000	0.018	-0.171
-739.083	-71.965	0.145	0.055
-738.069	-3.255	0.225	-0.160
-737.054	800.000	0.087	-0.246
-736.039	158.635	-0.152	-0.215
-735.025	-200.000	0.007	0.041
-734.010	131.133	-0.110	-0.143
-732.996	800.000	0.078	-0.234
-731.981	524.438	-0.069	0.164
-730.966	79.139	0.199	-0.217
-729.952	-68.353	-0.223	-0.088
-728.937	-136.416	-0.153	-0.018
-727.923	-78.041	0.135	-0.047
-726.908	-171.433	-0.147	0.005
-725.894	149.455	0.095	-0.131
-724.879	46.149	-0.207	-0.195
-723.864	-82.760	0.105	-0.034
-722.850	5.285	-0.300	-0.225
-721.835	-7.250	-0.136	-0.094
-720.821	-200.000	-0.024	-0.284
-719.806	25.246	-0.067	0.057
-718.791	-105.486	-0.341	-0.079
-717.777	-113.358	-0.117	0.023
-716.762	118.535	0.091	0.114
-715.748	250.289	-0.037	-0.064
-714.733	800.000	-0.047	0.154
-713.718	-19.841	-0.155	0.098
-712.704	-59.260	-0.290	-0.127
-711.689	-51.938	-0.330	-0.156
-710.675	300.980	-0.094	-0.177
-709.660	-200.000	-0.009	-0.088
-708.645	800.000	0.081	0.228
-707.631	-149.749	0.206	0.016
-706.616	18.669	0.078	0.063
-705.602	-91.938	0.199	0.057
-704.587	-87.641	0.140	0.043
-703.572	-25.725	0.086	-0.052
-702.558	-200.000	-0.017	0.216
-701.543	-200.000	-0.051	-0.380
-700.529	-13.827	-0.450	-0.296
-699.514	447.020	0.160	-0.357
-698.499	-38.386	-0.088	0.048
-697.485	25.535	-0.153	0.129
-696.470	-85.875	0.129	0.040
-695.456	-41.960	0.173	-0.090
-694.441	72.234	-0.128	-0.135
-693.426	-172.729	-0.187	0.006
-692.412	-15.120	-0.173	-0.112
-691.397	-193.794	-0.380	-0.003
-690.383	800.000	0.126	0.448
-689.368	128.765	0.101	0.131
-688.354	74.846	-0.095	0.102
-687.339	-200.000	0.021	0.152
-686.324	-115.066	-0.089	-0.017
-685.310	-163.086	-0.324	0.016
-684.295	800.000	-0.084	0.272
-683.281	800.000	0.056	0.162
-682.266	-50.632	-0.151	0.072
-681.251	-72.687	-0.261	-0.098
-680.237	-200.000	-0.001	-0.115
-679.222	170.024	0.123	-0.179
-678.208	-8.048	-0.155	0.106
-677.193	-120.006	0.209	-0.036
-676.178	-200.000	0.010	0.091
-675.164	-200.000	-0.005	-0.104
-674.149	-200.000	-0.004	-0.164
-673.135	-11.390	-0.094	-0.063
-672.120	153.646	0.028	-0.039
-671.105	568.492	0.115	-0.284
-670.091	41.150	0.169	-0.155
-669.076	-179.871	-0.586	-0.013
-668.062	-154.848	-0.196	0.013
-667.047	-105.519	0.267	0.061
-666.032	52.938	0.086	0.084
-665.018	-27.774	0.054	-0.032
-664.003	800.000	-0.088	-0.361
-662.989	-200.000	0.155	-0.001
-661.974	-160.069	-0.425	-0.023
-660.959	169.399	-0.122	-0.177
-659.945	38.992	-0.185	0.168
-658.930	-120.056	-0.232	0.040
-657.916	-18.848	-0.064	0.041
-656.901	-74.774	0.099	0.036
-655.886	73.827	-0.133	-0.142
-654.872	196.545	-0.140	-0.216
-653.857	557.032	-0.028	0.069
-652.843	-177.410	0.250	0.006
-651.828	-200.000	0.017	-0.116
-650.814	502.074	-0.071	0.166
-649.799	-200.000	0.008	-0.137
-648.784	-200.000	0.034	-0.281
-647.770	800.000	-0.110	-0.341
-646.755	-114.933	0.129	-0.025
-645.741	-97.005	0.130	-0.035
-644.726	-96.020	-0.166	0.045
-643.711	-114.478	0.098	0.019
-642.697	-200.000	0.000	0.234
-641.682	-29.718	0.297	0.172
-640.668	-118.099	0.217	0.039
-639.653	-163.316	-0.287	0.014
-638.638	-200.000	0.039	-0.289
-637.624	28.649	-0.136	0.117
-636.609	800.000	-0.070	-0.220
-635.595	63.574	0.180	0.183
-634.580	-96.249	-0.455	-0.122
-633.565	-122.889	-0.357	0.058
-632.551	-200.000	-0.002	0.095
-631.536	-9.846	-0.028	0.019
-630.522	-15.246	-0.364	0.236
-629.507	96.373	0.092	0.107
-628.492	-43.463	0.105	-0.054
-627.478	128.859	-0.189	-0.244
-626.463	434.157	-0.080	-0.176
-625.449	75.969	0.188	-0.201
-624.434	-18.438	-0.243	0.154
-623.419	800.000	-0.083	0.333
-622.405	-32.010	-0.229	0.130
-621.390	175.579	-0.081	-0.119
-620.376	-200.000	0.045	0.264
-619.361	559.322	0.071	-0.174
-618.346	606.975	-0.052	0.132
-617.332	208.523	-0.207	0.328
-616.317	219.839	0.270	0.439
-615.303	800.000	-0.036	0.142
-614.288	71.228	0.135	-0.141
-613.273	110.511	-0.172	-0.209
-612.259	-89.218	-0.153	-0.046
-611.244	-53.239	-0.174	0.081
-610.230	172.199	0.309	-0.450
-609.215	-64.553	0.047	-0.019
-608.201	650.105	-0.019	0.050
-607.186	682.406	-0.121	-0.318
-606.171	130.491	-0.171	-0.222
-605.157	800.000	-0.027	0.112
-604.142	-200.000	-0.007	-0.117
-603.128	-200.000	0.046	0.212
-602.113	99.871	0.193	-0.226
-601.098	-37.518	-0.043	-0.023
-600.084	-81.618	0.176	0.059
-599.069	-200.000	-0.033	0.167
-598.055	25.302	-0.225	0.189
-597.040	103.325	0.188	0.223
-596.025	-182.937	0.139	-0.003
-595.011	-200.000	-0.006	-0.060
-593.996	171.751	-0.079	0.115
-592.982	800.000	-0.045	-0.161
-591.967	-12.976	-0.332	-0.218
-590.952	126.950	0.297	-0.381
-589.938	631.189	-0.046	-0.118
-588.923	250.840	0.075	0.130
-587.909	-75.708	0.159	0.057
-586.894	-164.735	-0.574	-0.026
-585.879	441.732	0.110	0.243
-584.865	218.135	0.216	0.348
-583.850	-200.000	-0.012	-0.206
-582.836	-147.295	-0.106	0.009
-581.821	7.146	-0.081	-0.061
-580.806	-200.000	0.024	-0.292
-579.792	-150.410	-0.055	-0.004
-578.777	-200.000	0.020	0.271
-577.763	-110.757	0.294	0.061
-576.748	800.000	0.150	-0.447
-575.733	-106.101	-0.198	-0.045
-574.719	-1.432	0.090	-0.064
-573.704	0.387	0.215	0.155
-572.690	800.000	0.082	-0.252
-571.675	-200.000	-0.063	-0.370
-570.661	-101.974	-0.220	0.054
-569.646	-155.394	0.192	-0.013
-568.631	800.000	-0.090	-0.292
-567.617	-40.360	-0.371	-0.195
-566.602	-80.216	-0.196	0.066
-565.588	85.541	-0.178	0.198
-564.573	183.844	0.097	-0.144
-563.558	800.000	0.050	0.207
-562.544	57.482	-0.139	-0.137
-561.529	264.112	-0.065	0.115
-560.515	-12.100	-0.204	-0.135
-559.500	-182.584	-0.329	-0.006
-558.485	-43.902	-0.165	-0.084
-557.471	-170.887	0.219	-0.008
-556.456	273.217	-0.150	-0.268
-555.442	-188.589	0.060	0.001
-554.427	183.673	-0.178	0.267
-553.412	-142.721	-0.140	0.014
-552.398	-200.000	0.058	-0.422
-551.383	-200.000	-0.010	0.180
-550.369	30.109	0.113	0.097
-549.354	-200.000	-0.044	-0.227
-548.339	-200.000	0.005	-0.056
-547.325	800.000	0.164	0.549
-546.310	-73.074	0.163	-0.060
-545.296	-200.000	0.017	-0.075
-544.281	84.705	-0.038	0.042
-543.266	800.000	0.137	0.526
-542.252	800.000	-0.034	-0.143
-541.237	800.000	-0.088	0.289
-540.223	-113.054	-0.401	0.080
-539.208	-200.000	-0.046	0.234
-538.193	108.812	0.169	0.204
-537.179	3.208	-0.246	-0.181
-536.164	161.356	0.165	-0.233
-535.150	87.980	0.217	-0.243
-534.135	-92.960	-0.237	-0.067
-533.121	-200.000	0.019	0.288
-532.106	-105.766	-0.219	-0.050
-531.091	-107.958	0.285	-0.062
-530.077	190.670	0.180	-0.273
-529.062	30.718	0.192	-0.166
-528.048	-153.243	-0.287	-0.020
-527.033	-124.847	-0.115	-0.018
-526.018	800.000	0.070	-0.229
-525.004	-96.300	0.145	-0.039
-523.989	800.000	-0.025	0.107
-522.975	524.515	-0.031	-0.074
-521.960	161.068	-0.169	0.239
-520.945	108.099	-0.052	0.063
-519.931	-150.420	-0.168	0.013
-518.916	-94.906	-0.085	-0.023
-517.902	44.112	0.137	0.126
-516.887	-115.719	-0.153	0.029
-515.872	485.328	-0.139	0.319
-514.858	-21.103	0.088	0.055
-513.843	-200.000	-0.029	-0.162
-512.829	-15.432	-0.098	0.063
-511.814	55.937	0.160	-0.156
-510.799	-9.411	-0.147	0.099
-509.785	218.548	-0.108	-0.174
-508.770	48.392	0.083	-0.079
-507.756	269.532	0.114	0.201
-506.741	-200.000	-0.021	0.146
-505.726	-150.580	0.451	0.035
-504.712	220.108	0.210	-0.339
-503.697	-200.000	0.013	0.065
-502.683	372.251	-0.089	-0.182
-501.668	-73.775	-0.097	0.036
-500.653	15.697	-0.135	0.107
-499.639	-50.194	0.311	0.149
-498.624	-79.325	-0.401	0.137
-497.610	-94.804	0.211	0.058
-496.595	469.514	0.128	-0.289
-495.581	538.082	0.177	0.424
-494.566	256.344	-0.023	0.040
-493.551	94.004	0.194	0.222
-492.537	-67.720	-0.114	-0.045
-491.522	-67.564	-0.158	-0.062
-490.508	679.472	-0.140	0.367
-489.493	-111.848	-0.314	0.064
-488.478	-200.000	0.036	0.235
-487.464	39.221	-0.096	-0.087
-486.449	-54.234	0.147	0.067
-485.435	-70.120	0.156	0.060
-484.420	-128.999	-0.088	-0.012
-483.405	-200.000	-0.010	0.079
-482.391	-21.660	0.173	-0.106
-481.376	24.191	0.077	0.064
-480.362	-87.361	0.043	-0.013
-479.347	-58.447	0.086	-0.037
-478.332	115.987	0.091	-0.113
-477.318	-101.263	-0.083	-0.021
-476.303	-58.652	0.199	0.087
-475.289	26.801	-0.335	-0.283
-474.274	602.326	-0.121	0.302
-473.259	-81.154	0.065	-0.022
-472.245	800.000	-0.052	-0.172
-471.230	45.628	-0.172	0.160
-470.216	-200.000	0.035	0.186
-469.201	-92.102	0.078	-0.022
-468.186	-200.000	-0.048	-0.303
-467.172	-200.000	0.017	0.256
-466.157	97.330	0.313	-0.362
-465.143	74.023	-0.290	-0.306
-464.128	51.797	0.163	-0.157
-463.113	-200.000	0.008	0.277
-462.099	-174.024	-0.251	-0.007
-461.084	16.036	0.197	0.156
-460.070	-3.548	0.283	0.198
-459.055	-17.497	0.136	0.086
-458.040	-39.333	0.086	-0.045
-457.026	60.297	-0.195	0.194
-456.011	46.298	0.221	-0.207
-454.997	10.239	-0.102	-0.078
-453.982	25.473	-0.174	-0.146
-452.968	800.000	-0.037	-0.111
-451.953	164.769	0.133	0.189
-450.938	800.000	0.018	-0.062
-449.924	206.469	-0.206	-0.322
-448.909	6.146	0.286	-0.213
-447.895	-104.780	0.258	-0.060
-446.880	-186.712	0.224	-0.003
-445.865	299.889	0.095	0.177
-444.851	256.361	0.275	-0.474
-443.836	-73.870	-0.218	0.080
-442.822	-52.933	0.191	0.088
-441.807	141.476	0.069	0.092
-440.792	-200.000	-0.002	0.024
-439.778	130.523	-0.110	0.142
-438.763	-5.826	-0.026	0.018
-437.749	-109.452	0.123	-0.026
-436.734	-55.451	0.311	0.140
-435.719	-183.063	0.290	-0.005
-434.705	55.506	-0.167	-0.163
-433.690	-129.535	0.157	-0.022
-432.676	-81.812	0.345	-0.114
-431.661	75.421	0.033	-0.035
-430.646	-52.028	-0.103	-0.048
-429.632	-200.000	0.002	-0.245
-428.617	-131.364	-0.304	0.040
-427.603	800.000	-0.012	0.036
-426.588	167.466	-0.037	0.053
-425.573	681.185	-0.057	0.149
-424.559	-90.059	0.415	-0.122
-423.544	789.761	0.064	0.177
-422.530	-200.000	0.048	0.264
-421.515	-200.000	0.033	0.405
-420.500	-177.898	-0.491	0.012
-419.486	-189.228	-0.137	-0.002
-418.471	127.071	-0.118	-0.151
-417.457	-17.619	0.069	-0.043
-416.442	-37.167	-0.123	-0.066
-415.428	8.791	0.214	-0.162
-414.413	496.205	-0.022	0.050
-413.398	167.087	-0.084	-0.120
-412.384	-41.779	-0.091	0.047
-411.369	61.042	-0.193	0.193
-410.355	800.000	0.070	0.296
-409.340	-37.694	0.243	0.130
-408.325	-137.274	0.272	-0.031
-407.311	-200.000	-0.023	-0.200
-406.296	192.876	-0.029	-0.044
-405.282	20.465	-0.193	-0.157
-404.267	-0.125	0.199	-0.142
-403.252	-70.780	0.427	0.162
-402.238	-1.290	-0.042	-0.030
-401.223	800.000	0.055	0.196
-400.209	-98.336	0.337	-0.087
-399.194	-200.000	-0.003	-0.299
-398.179	800.000	0.031	-0.127
-397.165	-190.983	-0.155	-0.002
-396.150	245.694	0.146	-0.247
-395.136	-132.783	-0.212	-0.027
-394.121	-54.203	-0.091	0.042
-393.106	-150.686	0.227	-0.017
-392.092	-176.656	0.250	-0.006
-391.077	-118.105	-0.194	-0.035
-390.063	453.913	-0.216	-0.481
-389.048	-178.239	0.069	-0.002
-388.033	-152.338	-0.182	0.013
-387.019	-107.827	0.509	0.111
-386.004	233.609	-0.095	0.157
-384.990	418.463	0.022	0.047
-383.975	-102.074	-0.095	-0.023
-382.960	800.000	0.028	-0.081
-381.946	137.673	-0.026	-0.034
-380.931	-56.788	0.321	-0.142
-379.917	50.127	0.158	-0.150
-378.902	52.793	-0.177	-0.170
-377.888	61.943	0.050	0.050
-376.873	13.739	0.201	-0.157
-375.858	304.987	0.184	-0.344
-374.844	40.651	0.062	-0.056
-373.829	-74.472	-0.270	-0.098
-372.815	-8.446	-0.277	0.187
-371.800	-200.000	0.026	-0.244
-370.785	-200.000	-0.047	-0.414
-369.771	-31.377	-0.071	0.040
-368.756	-2.765	-0.247	-0.173
-367.742	32.514	-0.097	-0.084
-366.727	-10.690	-0.156	0.103
-365.712	-115.130	0.307	-0.058
-364.698	150.054	-0.026	0.036
-363.683	-200.000	0.014	0.109
-362.669	-200.000	-0.009	-0.168
-361.654	-200.000	0.044	-0.259
-360.639	-200.000	-0.023	-0.209
-359.625	-8.870	-0.144	0.097
-358.610	-141.194	-0.406	-0.042
-357.596	-116.681	0.248	0.046
-356.581	-200.000	0.017	0.216
-355.566	800.000	-0.045	0.181
-354.552	800.000	-0.062	-0.242
-353.537	-80.057	-0.393	-0.132
-352.523	-200.000	0.000	0.025
-351.508	38.195	-0.067	0.060
-350.493	800.000	0.112	-0.406
-349.479	399.957	0.031	-0.065
-348.464	130.613	-0.253	-0.325
-347.450	-60.534	0.081	0.035
-346.435	800.000	-0.021	-0.066
-345.420	-101.860	0.306	-0.074
-344.406	800.000	0.023	-0.101
-343.391	74.314	-0.166	-0.175
-342.377	-95.905	-0.270	0.072
-341.362	713.766	-0.080	0.212
-340.348	-200.000	-0.001	0.523
-339.333	76.033	-0.087	-0.092
-338.318	328.671	-0.181	-0.349
-337.304	48.679	0.291	-0.273
-336.289	800.000	0.054	0.156
-335.275	-200.000	0.018	0.314
-334.260	124.388	-0.134	0.169
-333.245	-83.258	-0.091	0.029
-332.231	-51.065	-0.390	-0.183
-331.216	-59.158	-0.313	0.135
-330.202	-33.679	-0.092	0.051
-329.187	-200.000	0.001	-0.058
-328.172	8.437	0.231	-0.174
-327.158	111.675	0.215	-0.259
-326.143	-200.000	-0.035	-0.333
-325.129	-200.000	0.054	-0.321
-324.114	-200.000	-0.012	-0.121
-323.099	800.000	0.025	-0.071
-322.085	-200.000	0.030	-0.339
-321.070	-3.044	0.112	0.078
-320.056	-8.835	0.172	-0.115
-319.041	-16.635	0.016	-0.010
-318.026	198.169	-0.046	-0.071
-317.012	49.742	-0.102	-0.096
-315.997	-153.361	0.447	-0.031
-314.983	661.348	-0.026	0.067
-313.968	-126.145	-0.138	0.021
-312.953	614.879	-0.039	-0.099
-311.939	731.665	-0.052	0.140
-310.924	-80.904	0.192	0.064
-309.910	800.000	0.085	0.295
-308.895	-200.000	0.016	-0.079
-307.880	-46.077	0.363	-0.179
-306.866	116.256	-0.232	0.284
-305.851	-89.484	0.155	0.046
-304.837	9.406	-0.538	-0.407
-303.822	9.038	-0.188	-0.142
-302.807	-149.629	-0.157	-0.012
-301.793	116.156	0.296	-0.363
-300.778	-115.149	-0.158	-0.030
-299.764	-70.646	-0.340	-0.128
-298.749	59.353	0.236	-0.233
-297.735	-200.000	0.018	-0.098
-296.720	55.482	-0.107	-0.103
-295.705	62.917	0.259	0.259
-294.691	94.793	0.079	-0.090
-293.676	101.966	0.261	-0.305
-292.662	-200.000	-0.012	0.487
-291.647	800.000	-0.097	0.271
-290.632	573.859	0.083	-0.203
-289.618	800.000	-0.023	0.064
-288.603	219.917	0.193	0.310
-287.589	-130.634	0.230	-0.031
-286.574	-68.259	-0.158	-0.062
-285.559	-139.445	0.111	0.012
-284.545	-156.220	0.272	-0.017
-283.530	649.145	0.008	-0.021
-282.516	800.000	-0.056	0.172
-281.501	20.826	-0.065	0.053
-280.486	-200.000	-0.046	0.323
-279.472	34.847	-0.252	0.221
-278.457	-115.699	-0.291	0.055
-277.443	262.437	0.188	0.326
-276.428	166.980	-0.167	0.237
-275.413	-22.198	-0.179	0.109
-274.399	-64.754	0.083	-0.034
-273.384	116.897	-0.357	0.438
-272.370	-127.952	-0.244	0.035
-271.355	-191.164	-0.159	0.002
-270.340	-179.970	0.457	0.010
-269.326	-120.869	0.196	0.033
-268.311	52.358	-0.114	-0.108
-267.297	-56.118	-0.201	-0.090
-266.282	-81.925	-0.055	0.018
-265.267	-94.513	0.243	0.066
-264.253	257.835	-0.129	0.221
-263.238	-55.417	-0.075	0.034
-262.224	-200.000	-0.013	0.306
-261.209	800.000	0.048	-0.149
-260.195	-63.618	0.309	0.126
-259.180	404.504	-0.174	0.365
-258.165	-200.000	0.024	0.155
-257.151	-94.992	-0.247	0.067
-256.136	374.423	0.108	0.219
-255.122	55.139	-0.156	-0.150
-254.107	-113.054	-0.190	0.037
-253.092	-73.002	0.182	-0.067
-252.078	-30.147	0.271	0.154
-251.063	260.305	-0.054	-0.094
-250.049	205.211	-0.044	-0.068
-249.034	800.000	0.036	-0.151
-248.019	554.490	0.080	0.192
-247.005	281.623	0.075	0.133
-245.990	181.127	-0.078	0.114
-244.976	421.934	-0.098	-0.210
-243.961	237.708	0.024	0.040
-242.946	-164.625	-0.282	-0.013
-241.932	127.159	-0.051	-0.064
-240.917	28.838	0.163	-0.137
-239.903	185.019	0.224	-0.332
-238.888	-55.432	-0.176	0.079
-237.873	-192.619	-0.204	0.002
-236.859	-6.456	-0.043	-0.029
-235.844	-40.907	0.148	-0.076
-234.830	39.377	0.356	-0.318
-233.815	339.064	-0.145	0.281
-232.800	-117.066	0.244	-0.044
-231.786	-3.491	-0.280	0.194
-230.771	-200.000	-0.022	0.118
-229.757	-200.000	-0.043	0.288
-228.742	-162.369	-0.278	0.014
-227.727	23.397	-0.068	-0.055
-226.713	-17.027	-0.130	-0.082
-225.698	702.716	0.102	-0.268
-224.684	800.000	-0.050	-0.153
-223.669	-200.000	0.032	0.142
-222.655	-81.264	0.273	0.090
-221.640	302.591	-0.066	-0.123
-220.625	-69.935	0.206	-0.078
-219.611	-107.948	0.423	0.092
-218.596	800.000	0.012	0.041
-217.582	-200.000	-0.025	-0.348
-216.567	81.876	0.128	0.138
-215.552	201.845	0.199	-0.306
-214.538	-48.696	0.148	-0.071
-213.523	172.779	0.127	-0.182
-212.509	-200.000	-0.010	-0.159
-211.494	-200.000	0.003	0.263
-210.479	800.000	-0.041	0.165
-209.465	415.496	0.080	-0.169
-208.450	-200.000	0.033	-0.160
-207.436	800.000	0.079	-0.305
-206.421	-62.431	-0.314	0.130
-205.406	395.735	-0.161	0.334
-204.392	-70.337	-0.123	0.047
-203.377	800.000	0.106	0.321
-202.363	-200.000	0.054	0.252
-201.348	-88.960	-0.130	0.038
-200.333	435.101	0.096	0.209
-199.319	-45.352	-0.274	0.135
-198.304	608.870	-0.070	0.175
-197.290	-79.252	0.205	0.069
-196.275	-103.450	-0.042	-0.010
-195.260	103.196	-0.044	-0.052
-194.246	-130.906	0.449	0.060
-193.231	-60.196	0.120	-0.051
-192.217	-93.949	-0.285	0.078
-191.202	800.000	-0.036	0.117
-190.187	-47.431	-0.216	-0.105
-189.173	-110.206	0.165	0.034
-188.158	-52.168	0.260	0.120
-187.144	215.609	-0.230	0.364
-186.129	341.743	0.080	-0.156
-185.114	800.000	-0.033	-0.137
-184.100	194.057	-0.071	0.108
-183.085	800.000	-0.072	-0.270
-182.071	-138.637	-0.171	0.019
-181.056	470.612	0.029	-0.064
-180.042	-181.123	0.150	0.003
-179.027	-200.000	-0.038	-0.338
-178.012	800.000	-0.027	-0.094
-176.998	-200.000	-0.026	0.174
-175.983	800.000	0.080	-0.226
-174.969	452.387	-0.095	0.210
-173.954	79.697	0.040	-0.043
-172.939	-104.269	0.218	0.050
-171.925	-11.739	0.092	0.060
-170.910	-144.008	0.263	0.025
-169.896	-200.000	-0.007	0.323
-168.881	-200.000	-0.029	0.323
-167.866	257.672	-0.140	0.240
-166.852	-75.783	0.277	0.098
-165.837	476.154	0.089	0.199
-164.823	151.101	0.233	-0.315
-163.808	-200.000	-0.010	0.057
-162.793	15.741	-0.095	0.074
-161.779	-200.000	0.015	0.338
-160.764	800.000	-0.051	0.221
-159.750	19.563	0.196	-0.157
-158.735	2.407	-0.350	0.252
-157.720	-200.000	0.026	0.191
-156.706	-45.860	0.361	0.177
-155.691	-91.066	-0.199	0.057
-154.677	94.285	0.118	-0.133
-153.662	800.000	-0.050	0.151
-152.647	-200.000	0.038	0.529
-151.633	28.185	-0.059	0.049
-150.618	-4.330	-0.180	-0.124
-149.604	-54.431	0.313	0.141
-148.589	-107.659	0.157	0.034
-147.574	-139.268	0.123	-0.013
-146.560	800.000	0.036	0.124
-145.545	124.710	0.149	0.186
-144.531	-200.000	0.028	-0.147
-143.516	-47.063	0.216	0.105
-142.502	-26.609	0.269	0.157
-141.487	181.049	0.121	0.177
-140.472	384.337	0.071	-0.146
-139.458	-181.727	0.031	0.001
-138.443	120.548	0.186	0.229
-137.429	-200.000	0.046	-0.276
-136.414	-200.000	-0.015	0.137
-135.399	800.000	0.043	0.128
-134.385	-32.929	0.194	0.107
-133.370	-102.739	0.175	-0.041
-132.356	107.677	0.235	-0.279
-131.341	229.930	0.212	-0.343
-130.326	182.226	-0.120	0.175
-129.312	-200.000	-0.024	0.108
-128.297	159.788	0.288	0.398
-127.283	-76.750	-0.248	0.086
-126.268	-27.065	0.136	0.079
-125.253	-49.211	0.139	-0.066
-124.239	-5.275	-0.164	0.112
-123.224	-128.477	-0.197	0.028
-122.210	86.634	0.274	0.300
-121.195	587.339	0.129	0.315
-120.180	-115.475	-0.326	-0.061
-119.166	-200.000	-0.046	0.307
-118.151	-25.650	0.175	-0.103
-117.137	-81.365	-0.211	-0.069
-116.122	-182.541	0.394	-0.007
-115.107	800.000	0.059	0.231
-114.093	-164.058	-0.165	-0.008
-113.078	-69.379	0.197	0.075
-112.064	-200.000	0.014	0.335
-111.049	754.704	0.186	-0.499
-110.034	-145.529	0.116	0.010
-109.020	-13.586	-0.208	-0.134
-108.005	-200.000	0.002	-0.079
-106.991	199.109	-0.042	-0.064
-105.976	69.924	0.066	-0.068
-104.962	-81.930	-0.203	0.066
-103.947	443.655	-0.050	0.108
-102.932	64.625	-0.220	-0.220
-101.918	-200.000	-0.010	-0.141
-100.903	104.565	0.273	0.319
-99.889	113.620	-0.333	0.401
-98.874	39.488	-0.262	-0.233
-97.859	-71.806	-0.311	-0.115
-96.845	3.618	0.209	-0.151
-95.830	29.775	-0.189	-0.160
-94.816	-124.538	-0.194	-0.030
-93.801	582.384	-0.160	0.390
-92.786	-136.392	-0.194	-0.022
-91.772	-200.000	-0.057	0.270
-90.757	53.975	0.123	0.117
-89.743	164.880	0.069	0.096
-88.728	-200.000	-0.041	0.239
-87.713	-200.000	0.056	-0.298
-86.699	359.325	-0.083	0.164
-85.684	-173.727	0.228	-0.007
-84.670	226.077	0.253	-0.407
-83.655	4.336	-0.135	0.098
-82.640	270.426	0.112	-0.195
-81.626	-50.338	0.043	-0.020
-80.611	64.394	0.204	-0.204
-79.597	25.025	0.355	-0.292
-78.582	-63.853	-0.040	0.016
-77.567	-65.351	-0.257	0.102
-76.553	23.979	-0.082	-0.067
-75.538	13.127	0.138	0.106
-74.524	800.000	0.062	-0.250
-73.509	-115.995	0.489	0.090
-72.494	159.573	-0.157	0.217
-71.480	-66.482	0.355	0.140
-70.465	1.844	0.105	0.075
-69.451	655.738	-0.041	-0.104
-68.436	135.338	-0.034	0.044
-67.422	-73.334	0.274	0.099
-66.407	-119.330	-0.308	0.053
-65.392	28.966	-0.146	0.123
-64.378	380.332	-0.118	0.241
-63.363	800.000	0.135	0.460
-62.349	62.576	0.144	0.142
-61.334	12.000	-1.000	-0.762
-60.319	-39.050	0.378	0.197
-59.305	-200.000	-0.128	-0.782
-58.290	128.521	0.583	0.736
-57.276	800.000	0.548	1.797
-56.261	-200.000	94.071	529.750
-55.246	573.340	1377.791	3328.011
-54.232	183.105	2622.285	3836.326
-53.217	117.717	2227.124	2716.105
-52.203	46.118	1756.246	1611.104
-51.188	39.094	1562.075	1383.694
-50.173	36.662	1533.600	1341.570
-49.159	53.693	1583.433	1505.675
-48.144	57.540	1603.498	1551.858
-47.130	39.411	1558.334	1382.384
-46.115	36.286	1543.103	1347.044
-45.100	36.118	1539.424	1342.611
-44.086	36.039	1537.477	1340.310
-43.071	36.065	1535.613	1338.813
-42.057	36.000	1533.827	1336.755
-41.042	36.071	1532.306	1335.865
-40.027	35.826	1531.646	1333.536
-39.013	36.066	1529.091	1332.925
-37.998	35.990	1528.297	1331.653
-36.984	35.998	1527.211	1330.707
-35.969	35.981	1526.043	1329.523
-34.954	36.039	1524.218	1328.276
-33.940	35.928	1522.963	1326.370
-32.925	36.026	1521.748	1325.931
-31.911	36.067	1520.049	1324.677
-30.896	36.120	1518.771	1323.880
-29.881	36.189	1517.310	1323.025
-28.867	36.054	1516.532	1321.370
-27.852	36.172	1514.823	1320.637
-26.838	36.155	1513.190	1319.043
-25.823	36.121	1511.387	1317.189
-24.809	36.221	1509.525	1316.191
-23.794	36.181	1507.914	1314.465
-22.779	36.132	1507.461	1313.680
-21.765	36.098	1506.145	1312.251
-20.750	36.118	1505.229	1311.539
-19.736	36.048	1503.900	1309.852
-18.721	35.983	1503.320	1308.856
-17.706	35.994	1502.256	1307.947
-16.692	36.011	1500.943	1306.872
-15.677	36.093	1499.450	1306.073
-14.663	36.122	1498.273	1305.191
-13.648	36.007	1497.704	1303.864
-12.633	35.954	1496.509	1302.420
-11.619	35.898	1496.039	1301.578
-10.604	35.986	1494.498	1300.781
-9.590	35.927	1493.795	1299.715
-8.575	36.074	1493.045	1300.005
-7.560	36.055	1491.989	1298.908
-6.546	36.021	1491.105	1297.853
-5.531	36.001	1490.388	1297.049
-4.517	35.965	1489.319	1295.823
-3.502	35.906	1488.810	1294.933
-2.487	36.000	1487.559	1294.420
-1.473	35.875	1486.345	1292.477
-0.458	35.973	1485.007	1291.915
0.556	33.459	1474.324	1278.368
1.571	29.814	1446.298	1229.776
2.586	25.459	1381.012	1146.444
3.600	23.235	1296.892	1063.177
4.615	22.031	1250.172	1017.809
5.629	18.767	1193.812	953.744
6.644	9.162	1105.849	833.753
7.659	1.128	1062.241	760.618
8.673	-0.212	1056.951	750.070
9.688	-0.337	1053.609	747.008
10.702	-0.388	1051.994	745.543
11.717	-0.402	1049.877	743.906
12.731	2.580	1053.427	761.191
13.746	11.815	1066.521	816.860
14.761	17.546	1074.437	851.591
15.775	17.633	1072.869	850.704
16.790	17.236	1071.658	847.691
17.804	17.001	1070.401	845.450
18.819	16.769	1069.784	843.731
19.834	16.890	1068.866	843.536
20.848	16.770	1068.233	842.365
21.863	16.760	1068.048	842.093
22.877	16.749	1067.434	841.482
23.892	16.598	1067.391	840.621
24.907	16.560	1065.848	839.144
25.921	16.658	1065.462	839.252
26.936	16.661	1065.095	838.903
27.950	16.696	1063.129	837.455
28.965	16.812	1062.067	837.116
29.980	16.640	1060.315	834.815
30.994	16.589	1058.844	833.332
32.009	16.808	1057.690	833.427
33.023	16.940	1056.974	833.438
34.038	16.637	1055.949	831.067
35.053	16.602	1055.147	830.190
36.067	16.873	1053.770	830.361
37.082	16.826	1053.092	829.524
38.096	16.897	1052.059	828.984
39.111	16.981	1051.752	829.078
40.126	17.194	1049.966	828.637
41.140	17.094	1048.925	827.253
42.155	16.747	1047.719	824.543
43.169	16.581	1046.253	822.510
44.184	16.582	1045.375	821.749
45.199	16.659	1043.983	820.955
46.213	16.538	1042.757	819.333
47.228	16.387	1041.993	817.931
48.242	16.578	1040.376	817.512
49.257	16.543	1039.610	816.667
50.271	16.650	1038.553	816.279
51.286	16.678	1037.518	815.529
52.301	16.749	1036.106	814.691
53.315	16.695	1035.413	813.813
54.330	16.685	1034.818	813.225
55.344	16.493	1034.316	811.835
56.359	16.777	1032.604	811.785
57.374	16.745	1032.165	811.211
58.388	16.681	1030.723	809.703
59.403	16.619	1029.989	808.759
60.417	16.711	1029.127	808.447
61.432	16.512	1028.439	806.886
62.447	16.488	1027.843	806.235
63.461	16.757	1026.651	806.507
64.476	16.669	1025.882	805.414
65.490	16.698	1025.249	804.984
66.505	16.491	1024.501	803.343
67.520	16.571	1023.462	802.837
68.534	16.731	1022.386	802.677
69.549	16.666	1021.676	801.743
70.563	16.377	1020.505	799.384
71.578	16.324	1019.987	798.657
72.593	16.587	1018.929	799.003
73.607	16.273	1018.174	796.858
74.622	16.360	1016.699	796.042
75.636	16.543	1016.901	796.995
76.651	16.647	1015.490	796.306
77.666	16.426	1014.805	794.657
78.680	16.347	1013.782	793.414
79.695	16.416	1013.185	793.202
80.709	16.612	1012.416	793.448
81.724	16.650	1011.748	793.035
82.739	16.596	1010.615	791.825
83.753	16.451	1009.797	790.433
84.768	16.807	1008.789	791.240
85.782	16.811	1008.179	790.706
86.797	16.897	1007.188	790.260
87.812	16.958	1006.188	789.692
88.826	16.727	1005.209	787.777
89.841	16.799	1004.006	787.101
90.855	16.816	1003.601	786.793
91.870	16.980	1002.644	786.731
92.884	16.775	1002.230	785.386
93.899	16.704	1000.938	783.980
94.914	16.669	999.867	782.909
95.928	16.798	999.247	782.948
96.943	16.854	998.732	782.737
97.957	16.634	997.385	780.596
98.972	16.560	995.961	779.072
99.987	16.186	995.139	776.640
101.001	16.320	994.177	776.435
102.016	16.696	993.648	777.681
103.030	16.663	992.746	776.752
104.045	16.643	991.190	775.377
105.060	16.326	989.899	772.849
106.074	16.183	988.591	771.103
107.089	16.225	988.294	770.995
108.103	16.751	988.110	773.185
109.118	16.959	986.653	772.925
110.133	16.695	985.603	770.832
111.147	16.650	985.053	770.131
112.162	16.567	983.762	768.675
113.176	16.380	982.920	767.099
114.191	16.581	981.606	766.921
115.206	16.552	980.775	766.071
116.220	16.384	979.355	764.131
117.235	16.194	978.595	762.612
118.249	16.455	977.684	763.013
119.264	16.396	976.957	762.114
120.279	16.449	975.635	761.253
121.293	16.454	975.143	760.825
122.308	16.485	974.433	760.343
123.322	16.528	973.524	759.760
124.337	16.614	972.038	758.919
125.352	16.399	971.067	757.132
126.366	16.141	969.303	754.533
127.381	15.822	968.235	752.210
128.395	16.279	967.006	753.229
129.410	16.778	966.265	754.807
130.424	16.812	965.773	754.506
131.439	17.001	964.191	754.045
132.454	16.704	963.531	752.143
133.468	16.822	962.469	751.771
134.483	16.656	961.774	750.428
135.497	16.621	961.408	749.921
136.512	16.982	960.200	750.508
137.527	16.991	959.628	750.037
138.541	16.932	958.317	748.684
139.556	16.920	957.871	748.217
140.570	16.912	957.322	747.684
141.585	16.781	955.933	745.957
142.600	16.917	955.102	745.840
143.614	16.807	953.655	744.160
144.629	16.840	953.534	744.146
145.643	17.078	952.700	744.473
146.658	17.026	951.387	743.154
147.673	16.823	950.500	741.506
148.687	16.820	949.316	740.504
149.702	16.818	948.357	739.683
150.716	16.794	947.425	738.787
151.731	16.772	946.464	737.877
152.746	16.779	945.888	737.392
153.760	16.872	945.359	737.317
154.775	17.100	944.334	737.445
155.789	17.032	943.496	736.429
156.804	17.008	942.188	735.238
157.819	17.070	941.072	734.574
158.833	17.130	940.620	734.414
159.848	17.157	940.004	733.984
160.862	17.020	938.821	732.407
161.877	16.991	937.925	731.514
162.892	17.011	936.846	730.694
163.906	17.151	936.535	730.991
164.921	17.236	935.205	730.251
165.935	17.064	934.350	728.785
166.950	17.034	933.178	727.673
167.964	16.966	932.564	726.841
168.979	16.976	930.884	725.508
169.994	16.935	929.904	724.505
171.008	16.833	928.781	723.132
172.023	16.962	928.183	723.155
173.037	17.063	927.554	723.029
174.052	16.784	926.032	720.591
175.067	16.699	925.138	719.471
176.081	16.732	924.588	719.121
177.096	17.036	923.459	719.466
178.110	17.143	922.476	719.090
179.125	16.923	921.629	717.438
180.140	16.547	920.762	715.109
181.154	16.614	920.244	714.928
182.169	16.760	919.334	714.772
183.183	16.804	918.605	714.328
184.198	16.994	918.613	715.071
185.213	17.052	917.633	714.488
186.227	16.952	916.622	713.220
187.242	17.061	916.380	713.428
188.256	17.086	915.703	712.941
189.271	17.103	914.209	711.786
190.286	17.117	913.604	711.309
191.300	16.853	913.166	709.799
192.315	16.709	911.989	708.220
193.329	16.220	910.302	704.807
194.344	15.963	909.287	702.886
195.359	16.236	909.695	704.277
196.373	16.952	909.597	707.125
197.388	17.059	909.136	707.151
198.402	16.714	908.566	705.208
199.417	16.703	907.582	704.338
200.432	16.812	906.934	704.225
201.446	16.617	906.030	702.652
202.461	16.418	905.138	701.074
203.475	16.392	904.603	700.489
204.490	16.170	903.169	698.395
205.504	15.331	901.595	693.647
206.519	15.677	901.706	695.104
207.534	16.462	901.619	698.217
208.548	16.557	901.010	698.077
209.563	16.883	900.854	699.239
210.577	16.901	899.979	698.571
211.592	16.663	899.132	696.874
212.607	16.934	899.242	698.014
213.621	17.138	897.494	697.432
214.636	17.052	897.171	696.767
215.650	17.061	896.936	696.560
216.665	17.174	896.414	696.556
217.680	17.024	895.976	695.540
218.694	17.163	895.093	695.360
219.709	16.629	894.495	692.650
220.723	16.510	893.488	691.321
221.738	16.807	892.605	691.790
222.753	17.084	891.830	692.258
223.767	16.963	891.558	691.494
224.782	16.986	890.272	690.528
225.796	17.102	889.761	690.543
226.811	17.304	889.104	690.794
227.826	16.926	888.311	688.581
228.840	16.313	886.764	684.833
229.855	16.254	886.331	684.200
230.869	16.406	885.743	684.301
231.884	16.297	884.379	682.746
232.899	16.145	884.153	681.899
233.913	16.910	884.165	684.938
234.928	17.099	883.617	685.217
235.942	17.110	882.792	684.558
236.957	17.199	881.573	683.912
237.972	16.899	881.277	682.415
238.986	16.861	880.044	681.249
240.001	16.948	879.825	681.366
241.015	16.975	878.730	680.567
242.030	17.053	877.982	680.240
243.045	17.012	877.356	679.529
244.059	17.112	876.843	679.474
245.074	17.398	876.299	680.136
246.088	17.110	875.071	677.973
247.103	16.819	874.314	676.165
248.117	16.764	873.974	675.624
249.132	17.159	873.773	676.984
250.147	17.288	872.982	676.823
251.161	17.554	871.959	677.026
252.176	17.523	871.244	676.290
253.190	17.525	870.928	675.993
254.205	17.512	870.182	675.302
255.220	17.821	869.929	676.270
256.234	17.774	869.356	675.581
257.249	17.771	868.145	674.566
258.263	17.610	867.441	673.324
259.278	17.592	867.170	672.983
260.293	17.839	866.542	673.412
261.307	17.735	866.096	672.595
262.322	17.691	864.837	671.384
263.336	17.565	864.168	670.309
264.351	17.107	862.488	667.147
265.366	16.083	860.849	661.802
266.380	15.794	859.821	659.822
267.395	16.454	860.047	662.526
268.409	17.250	860.340	665.810
269.424	17.340	859.512	665.464
270.439	17.520	859.532	666.122
271.453	17.622	858.355	665.549
272.468	17.622	858.259	665.417
273.482	17.774	857.634	665.466
274.497	17.836	857.110	665.244
275.512	17.614	855.917	663.395
276.526	17.240	854.443	660.741
277.541	17.302	853.871	660.482
278.555	17.691	853.746	661.834
279.570	17.381	852.624	659.706
280.585	17.107	852.009	658.107
281.599	17.374	851.045	658.340
282.614	17.410	850.918	658.323
283.628	17.154	849.793	656.406
284.643	17.021	848.575	654.892
285.657	17.285	848.940	656.136
286.672	17.175	848.109	655.012
287.687	16.783	846.863	652.480
288.701	16.958	846.786	653.039
289.716	17.391	846.547	654.462
290.730	17.000	845.448	652.052
291.745	16.960	844.700	651.265
292.760	16.901	843.604	650.135
293.774	16.758	842.916	648.999
294.789	17.330	843.664	651.712
295.803	18.104	842.945	654.062
296.818	18.024	842.911	653.670
297.833	18.258	842.420	654.127
298.847	17.906	841.182	651.761
299.862	17.687	840.203	650.111
300.876	17.884	839.613	650.349
301.891	18.064	839.157	650.623
302.906	18.225	838.312	650.522
303.920	17.457	837.601	646.994
304.935	17.467	836.397	646.044
305.949	17.779	836.064	646.912
306.964	17.900	836.001	647.266
307.979	17.798	835.099	646.127
308.993	17.879	834.652	646.026
310.008	18.138	834.297	646.676
311.022	18.172	833.716	646.299
312.037	18.159	833.118	645.727
313.052	17.940	832.440	644.317
314.066	18.023	831.780	644.061
315.081	17.459	830.502	640.892
316.095	16.884	829.254	637.710
317.110	17.196	829.758	639.216
318.125	17.929	829.367	641.615
319.139	17.752	828.214	639.999
320.154	16.880	827.120	635.831
321.168	16.587	826.155	633.933
322.183	17.005	826.052	635.365
323.197	17.574	826.506	637.788
324.212	17.857	826.268	638.609
325.227	17.894	825.944	638.438
326.241	18.078	825.226	638.515
327.256	18.078	824.560	637.943
328.270	17.978	823.988	637.070
329.285	17.988	823.076	636.347
330.300	17.728	822.825	635.128
331.314	17.778	821.632	634.336
332.329	17.778	821.300	634.025
333.343	17.882	820.827	633.989
334.358	18.023	819.906	633.745
335.373	18.135	819.627	633.891
336.387	18.190	818.964	633.524
337.402	18.269	818.913	633.723
338.416	18.428	818.211	633.710
339.431	18.352	817.190	632.583
340.446	18.240	816.858	631.854
341.460	18.374	816.355	631.907
342.475	18.483	815.621	631.682
343.489	18.214	814.718	629.938
344.504	18.035	814.542	629.086
345.519	18.337	813.804	629.573
346.533	18.475	813.590	629.857
347.548	18.654	813.137	630.110
348.562	18.698	812.896	630.029
349.577	18.799	812.070	629.703
350.592	18.766	811.565	629.132
351.606	18.776	811.103	628.756
352.621	18.772	810.775	628.430
353.635	18.742	810.267	627.871
354.650	18.651	809.788	627.114
355.665	18.174	808.799	624.550
356.679	17.578	807.340	621.194
357.694	17.317	806.968	619.902
358.708	17.937	806.416	621.681
359.723	17.826	806.224	621.075
360.738	18.201	805.409	621.757
361.752	18.405	805.668	622.641
362.767	18.601	805.104	622.861
363.781	18.633	805.186	622.988
364.796	18.909	804.610	623.486
365.810	18.865	804.055	622.843
366.825	18.984	803.222	622.573
367.840	19.063	802.910	622.564
368.854	18.802	802.542	621.278
369.869	18.472	802.011	619.619
370.883	18.515	801.323	619.189
371.898	18.553	800.890	618.937
372.913	18.530	799.822	617.972
373.927	18.400	799.261	617.017
374.942	18.484	798.907	616.990
375.956	18.719	798.652	617.586
376.971	18.640	797.785	616.578
377.986	18.962	797.033	617.095
379.000	18.872	797.215	616.859
380.015	18.931	796.499	616.463
381.029	18.882	795.873	615.748
382.044	18.784	795.500	615.054
383.059	18.871	794.681	614.679
384.073	18.859	794.369	614.339
385.088	18.927	793.372	613.755
386.102	18.988	793.145	613.744
387.117	18.968	792.643	613.229
388.132	18.870	792.492	612.709
389.146	18.832	791.596	611.826
390.161	18.257	791.056	609.308
391.175	18.276	790.203	608.667
392.190	18.482	790.382	609.484
393.205	18.606	789.975	609.557
394.219	18.009	788.329	606.115
395.234	16.891	786.578	600.753
396.248	16.307	785.852	598.079
397.263	17.223	786.010	601.388
398.278	18.448	787.329	606.686
399.292	18.957	787.386	608.478
400.307	18.921	786.637	607.717
401.321	18.704	785.904	606.330
402.336	18.766	785.812	606.424
403.350	19.031	785.039	606.708
404.365	19.273	785.222	607.649
405.380	19.351	784.815	607.556
406.394	19.406	784.531	607.477
407.409	19.607	783.980	607.706
408.423	19.672	783.161	607.244
409.438	19.362	782.979	605.960
410.453	19.435	782.395	605.711
411.467	19.719	782.004	606.350
412.482	19.509	781.527	605.190
413.496	19.501	780.879	604.607
414.511	19.656	780.462	604.774
415.526	19.736	779.986	604.630
416.540	19.609	780.146	604.256
417.555	19.581	779.550	603.645
418.569	19.348	778.652	602.081
419.584	19.193	778.084	601.049
420.599	19.272	777.406	600.748
421.613	153.580	1357.339	1789.140
422.628	132.553	1441.852	1789.221
