DTS Sentinel unit serial number:	SN413079Multiplexer serial number:	ORYXHardware model number:	OX4-SRSoftware version number:	ORYX F/W v4.00 Oryx Data Collector v3.7.2.0data status	okinstallation	princeton_trtdifferential loss correction	single-endedforward channel	channel 3reverse channel	N/Adate	2019/09/16time	16:24:34forward acquisition time	60.00reverse acquisition time	0.00gamma	496.2192k internal	0.2294k external	0.2294temperature offset calibration	0.9943default loss term (dB/km)	0.3790temperature slope calibration	1.0000multiplexer offset coefficient	1.0000multiplexer slope coefficient	1.0000fibre end	0.00T internal ref (°C)	40.37T ext. ref 1 (°C)	15.04T ext. ref 2 (°C)	34.26length (m)	temperature (°C)	Stokes	anti-Stokes-747.200	-95.371	-0.059	-0.016
-746.185	152.730	0.075	0.105
-745.171	205.873	-0.178	0.283
-744.156	800.000	-0.106	0.361
-743.142	-200.000	-0.002	-0.101
-742.127	39.649	-0.176	-0.161
-741.112	-200.000	-0.005	-0.084
-740.098	-89.254	-0.227	-0.068
-739.083	-151.380	0.202	-0.015
-738.069	-200.000	0.015	-0.205
-737.054	-96.522	-0.188	-0.051
-736.039	-119.961	-0.302	0.053
-735.025	-109.524	-0.170	0.037
-734.010	-200.000	-0.027	-0.344
-732.996	20.644	-0.343	-0.284
-731.981	495.437	-0.114	0.267
-730.966	90.502	0.088	-0.100
-729.952	-173.308	-0.315	0.010
-728.937	97.205	0.146	-0.171
-727.923	800.000	-0.142	-0.410
-726.908	-22.146	-0.283	-0.176
-725.894	46.388	-0.052	-0.049
-724.879	9.088	0.091	0.071
-723.864	793.763	-0.150	-0.422
-722.850	25.351	-0.102	0.086
-721.835	-97.976	-0.155	-0.041
-720.821	17.974	-0.127	-0.104
-719.806	-200.000	0.014	-0.107
-718.791	182.959	0.276	-0.416
-717.777	-200.000	0.000	-0.246
-716.762	132.743	0.064	-0.084
-715.748	253.787	-0.057	-0.100
-714.733	-148.963	0.025	0.002
-713.718	-144.992	-0.172	0.016
-712.704	-200.000	-0.063	-0.338
-711.689	-52.338	-0.172	-0.081
-710.675	-141.441	-0.087	0.009
-709.660	-140.205	-0.165	0.018
-708.645	-200.000	0.300	-0.000
-707.631	190.272	-0.099	0.153
-706.616	-61.911	0.202	0.086
-705.602	-41.893	0.291	0.153
-704.587	33.193	-0.085	-0.075
-703.572	315.048	0.098	0.188
-702.558	-118.726	-0.280	-0.050
-701.543	21.634	0.154	0.128
-700.529	-129.390	0.337	0.048
-699.514	-108.322	-0.261	-0.058
-698.499	-200.000	0.007	0.275
-697.485	144.909	0.154	-0.210
-696.470	-183.150	-0.143	-0.003
-695.456	-108.035	-0.099	0.022
-694.441	-105.063	0.196	-0.046
-693.426	-145.708	0.192	-0.018
-692.412	498.175	-0.147	-0.345
-691.397	140.363	0.201	0.271
-690.383	-94.012	-0.151	-0.042
-689.368	210.513	0.114	0.183
-688.354	-70.912	-0.111	-0.042
-687.339	280.066	-0.018	0.033
-686.324	535.947	0.044	-0.107
-685.310	800.000	-0.074	-0.261
-684.295	182.929	-0.207	0.312
-683.281	-200.000	0.017	-0.487
-682.266	57.790	-0.200	-0.200
-681.251	-200.000	-0.039	-0.404
-680.237	127.325	-0.155	0.201
-679.222	-200.000	0.009	-0.295
-678.208	18.215	0.125	0.102
-677.193	-200.000	-0.021	-0.136
-676.178	-85.413	0.129	-0.041
-675.164	-200.000	-0.040	-0.356
-674.149	-57.717	-0.207	-0.092
-673.135	800.000	-0.054	0.227
-672.120	192.184	0.095	-0.146
-671.105	-200.000	-0.008	0.116
-670.091	35.625	0.210	0.188
-669.076	-112.335	-0.307	-0.063
-668.062	800.000	0.110	-0.449
-667.047	800.000	-0.054	0.186
-666.032	-152.157	-0.041	-0.003
-665.018	-200.000	-0.062	0.296
-664.003	-200.000	-0.009	0.274
-662.989	-90.603	0.225	0.066
-661.974	-136.146	0.413	0.049
-660.959	-107.056	-0.235	-0.053
-659.945	140.427	-0.179	-0.241
-658.930	-139.425	0.307	0.034
-657.916	-129.360	0.199	-0.028
-656.901	237.537	-0.006	0.011
-655.886	-200.000	0.033	-0.195
-654.872	-34.011	-0.301	-0.169
-653.857	130.935	-0.206	0.270
-652.843	492.183	-0.127	0.297
-651.828	800.000	0.045	-0.154
-650.814	800.000	-0.090	0.323
-649.799	-15.065	0.169	-0.110
-648.784	-84.251	-0.439	-0.142
-647.770	-12.145	0.499	0.333
-646.755	220.836	-0.045	0.074
-645.741	-200.000	-0.092	-0.420
-644.726	800.000	-0.025	-0.092
-643.711	-200.000	-0.013	-0.167
-642.697	800.000	0.026	0.113
-641.682	448.632	0.066	-0.147
-640.668	700.342	-0.035	-0.094
-639.653	-200.000	0.019	-0.165
-638.638	131.399	-0.050	0.066
-637.624	-106.429	-0.202	-0.046
-636.609	44.182	0.171	-0.160
-635.595	-135.920	-0.238	0.029
-634.580	147.152	0.051	0.069
-633.565	-200.000	-0.029	-0.210
-632.551	800.000	-0.098	0.283
-631.536	-111.985	0.078	0.016
-630.522	-99.115	0.230	-0.059
-629.507	-63.179	0.086	0.036
-628.492	31.989	-0.146	-0.128
-627.478	375.762	0.163	0.339
-626.463	-7.357	-0.163	0.112
-625.449	319.153	0.068	-0.131
-624.434	-200.000	0.049	0.351
-623.419	528.805	-0.088	0.212
-622.405	800.000	-0.092	-0.330
-621.390	31.812	0.150	-0.131
-620.376	241.811	0.048	-0.082
-619.361	-34.052	-0.174	-0.097
-618.346	800.000	0.061	-0.185
-617.332	115.832	-0.092	-0.115
-616.317	-200.000	0.025	0.268
-615.303	-86.004	-0.358	-0.113
-614.288	-200.000	-0.005	0.120
-613.273	87.909	-0.193	-0.218
-612.259	800.000	0.052	0.188
-611.244	-200.000	0.001	0.200
-610.230	-200.000	-0.016	0.149
-609.215	-79.675	0.469	0.161
-608.201	-62.962	-0.262	-0.110
-607.186	482.456	-0.046	0.107
-606.171	67.174	-0.191	0.198
-605.157	68.240	-0.148	0.154
-604.142	-200.000	0.027	0.206
-603.128	-200.000	0.043	-0.242
-602.113	-75.446	-0.136	-0.049
-601.098	133.633	0.150	0.197
-600.084	-184.728	-0.301	0.005
-599.069	-91.287	0.117	-0.034
-598.055	-43.169	-0.205	-0.105
-597.040	-200.000	-0.001	-0.095
-596.025	-200.000	0.012	0.077
-595.011	682.783	-0.059	0.156
-593.996	-200.000	-0.010	-0.228
-592.982	389.572	-0.049	-0.104
-591.967	166.535	0.125	-0.181
-590.952	25.981	0.151	-0.128
-589.938	414.189	-0.187	-0.404
-588.923	-200.000	0.033	-0.380
-587.909	-90.859	0.150	-0.044
-586.894	-7.346	-0.191	0.132
-585.879	-78.960	-0.277	-0.096
-584.865	800.000	-0.095	0.325
-583.850	130.003	-0.142	0.185
-582.836	-58.797	0.310	-0.136
-581.821	-200.000	-0.058	-0.271
-580.806	-200.000	0.035	-0.306
-579.792	-30.323	-0.299	0.172
-578.777	-14.017	0.259	-0.170
-577.763	-122.308	0.100	-0.017
-576.748	17.688	0.087	-0.070
-575.733	800.000	0.015	-0.048
-574.719	-136.365	-0.303	0.036
-573.704	-7.491	0.145	0.100
-572.690	-200.000	0.007	-0.194
-571.675	-130.684	-0.038	0.005
-570.661	-130.705	-0.132	0.018
-569.646	282.859	0.111	0.203
-568.631	512.033	-0.076	-0.180
-567.617	-92.210	-0.299	0.086
-566.602	-130.896	0.472	0.064
-565.588	411.293	-0.039	0.084
-564.573	189.768	-0.033	0.051
-563.558	21.158	0.205	-0.169
-562.544	-125.689	0.289	0.044
-561.529	-200.000	0.019	-0.456
-560.515	-200.000	0.028	-0.431
-559.500	199.199	0.178	0.277
-558.485	-200.000	0.029	-0.295
-557.471	-23.577	0.115	0.070
-556.456	-200.000	-0.048	-0.293
-555.442	269.194	0.012	-0.021
-554.427	800.000	-0.052	0.199
-553.412	547.088	-0.042	-0.102
-552.398	-36.833	0.158	-0.086
-551.383	103.438	-0.231	0.276
-550.369	-125.299	0.428	0.066
-549.354	-129.532	-0.208	-0.029
-548.339	27.238	-0.125	-0.107
-547.325	-200.000	-0.032	-0.197
-546.310	736.994	0.091	-0.248
-545.296	-151.819	0.153	-0.011
-544.281	-39.915	0.155	0.082
-543.266	800.000	0.090	-0.350
-542.252	-70.283	-0.138	0.053
-541.237	-200.000	0.006	-0.073
-540.223	258.719	-0.056	-0.098
-539.208	-200.000	-0.015	-0.091
-538.193	800.000	-0.105	-0.424
-537.179	-187.929	-0.530	-0.007
-536.164	-200.000	-0.063	0.471
-535.150	269.668	0.138	0.246
-534.135	51.103	-0.052	0.050
-533.121	-169.606	-0.391	0.014
-532.106	199.684	0.087	0.135
-531.091	91.333	0.139	-0.158
-530.077	-14.262	0.325	-0.212
-529.062	28.286	0.147	0.126
-528.048	-100.367	0.181	0.045
-527.033	705.121	-0.055	-0.148
-526.018	-162.429	0.238	0.012
-525.004	-200.000	-0.013	0.321
-523.989	267.878	0.102	-0.181
-522.975	-200.000	0.004	-0.061
-521.960	143.497	0.057	-0.077
-520.945	-174.155	-0.080	0.002
-519.931	44.306	-0.336	0.313
-518.916	-39.124	0.128	-0.068
-517.902	-128.580	-0.188	-0.027
-516.887	2.364	-0.077	0.057
-515.872	-136.705	0.257	-0.030
-514.858	117.214	0.228	-0.284
-513.843	725.584	0.069	-0.187
-512.829	-151.680	-0.298	0.022
-511.814	-150.392	-0.745	0.058
-510.799	-121.102	0.362	-0.062
-509.785	800.000	0.074	0.233
-508.770	-46.346	-0.195	0.097
-507.756	-42.629	-0.177	-0.091
-506.741	189.087	0.140	-0.213
-505.726	-175.169	0.278	0.008
-504.712	175.476	0.078	-0.114
-503.697	-148.230	0.093	0.008
-502.683	-200.000	0.050	-0.461
-501.668	53.365	0.260	0.253
-500.653	-200.000	-0.008	0.131
-499.639	-77.761	-0.202	0.071
-498.624	107.149	-0.135	0.163
-497.610	565.534	0.144	0.353
-496.595	201.634	-0.057	-0.088
-495.581	88.039	-0.331	0.372
-494.566	49.835	-0.393	-0.375
-493.551	749.880	0.105	-0.286
-492.537	-81.987	0.082	-0.027
-491.522	-89.877	-0.069	0.020
-490.508	-82.716	0.306	-0.100
-489.493	-129.660	-0.290	-0.041
-488.478	-128.643	0.536	0.077
-487.464	-93.001	0.225	-0.064
-486.449	-148.551	-0.088	-0.007
-485.435	129.314	0.120	0.155
-484.420	800.000	0.107	0.331
-483.405	-80.127	-0.333	0.113
-482.391	-200.000	0.024	-0.176
-481.376	-108.736	-0.257	-0.056
-480.362	-35.522	0.258	0.142
-479.347	-2.913	-0.077	0.055
-478.332	332.559	0.101	0.197
-477.318	85.537	0.153	0.170
-476.303	-200.000	-0.003	0.098
-475.289	91.974	-0.145	-0.166
-474.274	800.000	-0.081	-0.252
-473.259	-117.134	-0.026	0.005
-472.245	-89.220	0.128	-0.038
-471.230	411.589	-0.149	-0.320
-470.216	-6.175	-0.345	0.238
-469.201	800.000	-0.008	0.031
-468.186	230.521	-0.061	0.101
-467.172	-200.000	-0.016	0.125
-466.157	46.462	-0.138	-0.130
-465.143	-137.260	-0.082	0.009
-464.128	-155.178	0.382	0.025
-463.113	800.000	0.055	0.204
-462.099	-141.802	0.253	0.026
-461.084	-42.184	0.268	-0.138
-460.070	200.480	0.201	0.312
-459.055	221.201	0.308	-0.500
-458.040	791.337	-0.063	-0.174
-457.026	-200.000	-0.022	-0.180
-456.011	-200.000	-0.025	-0.151
-454.997	-21.049	0.037	0.023
-453.982	-15.295	-0.178	-0.115
-452.968	-200.000	0.010	0.143
-451.953	153.183	0.191	-0.264
-450.938	800.000	0.058	-0.207
-449.924	800.000	-0.061	-0.180
-448.909	-200.000	0.021	0.331
-447.895	-27.138	-0.144	0.085
-446.880	-34.865	0.331	-0.183
-445.865	72.630	0.212	0.224
-444.851	-200.000	-0.025	0.143
-443.836	800.000	-0.120	-0.335
-442.822	-200.000	0.007	-0.137
-441.807	-44.315	0.242	-0.123
-440.792	-100.255	-0.194	-0.049
-439.778	110.746	0.185	0.225
-438.763	488.438	0.091	0.210
-437.749	-52.102	0.127	-0.060
-436.734	-200.000	0.033	0.160
-435.719	-200.000	-0.026	0.229
-434.705	800.000	-0.092	-0.407
-433.690	30.636	-0.236	0.204
-432.676	276.496	0.133	0.239
-431.661	-62.019	-0.044	0.019
-430.646	-154.045	-0.109	0.008
-429.632	141.046	-0.150	-0.201
-428.617	-88.476	-0.217	0.065
-427.603	-200.000	0.013	0.151
-426.588	-73.835	-0.089	0.033
-425.573	-182.960	-0.140	0.003
-424.559	189.974	-0.089	-0.135
-423.544	267.286	-0.108	-0.191
-422.530	-62.503	-0.311	0.131
-421.515	509.462	-0.117	-0.275
-420.500	2.621	-0.304	-0.223
-419.486	-26.695	0.301	0.178
-418.471	-149.184	0.188	-0.015
-417.457	-74.912	0.257	0.093
-416.442	-165.644	0.279	-0.012
-415.428	800.000	-0.042	-0.180
-414.413	-140.891	-0.274	0.028
-413.398	-40.113	0.254	0.134
-412.384	336.098	0.144	0.283
-411.369	120.436	-0.203	0.254
-410.355	37.963	0.137	-0.123
-409.340	-169.121	0.139	0.005
-408.325	-200.000	0.023	0.264
-407.311	432.284	-0.068	-0.149
-406.296	-106.043	-0.291	-0.066
-405.282	87.006	-0.036	-0.040
-404.267	1.048	-0.369	0.267
-403.252	1.803	0.190	0.139
-402.238	-200.000	0.051	0.256
-401.223	637.357	-0.053	0.137
-400.209	-177.866	0.439	0.011
-399.194	-81.192	0.189	-0.063
-398.179	-200.000	-0.023	0.207
-397.165	800.000	-0.042	0.160
-396.150	-97.335	0.091	-0.024
-395.136	-27.001	0.092	-0.054
-394.121	-90.605	0.410	0.120
-393.106	53.641	-0.376	-0.364
-392.092	-21.585	-0.122	0.075
-391.077	248.138	0.110	-0.188
-390.063	-117.380	0.197	-0.036
-389.048	-198.125	-0.149	-0.001
-388.033	800.000	0.044	0.189
-387.019	9.670	-0.149	-0.114
-386.004	426.665	0.097	0.211
-384.990	-154.494	0.193	-0.013
-383.975	31.220	-0.267	0.231
-382.960	49.270	0.240	0.228
-381.946	-27.250	0.163	-0.096
-380.931	81.088	0.124	0.135
-379.917	-59.000	-0.192	-0.084
-378.902	8.629	0.026	-0.020
-377.888	-179.263	0.208	-0.005
-376.873	-200.000	-0.056	0.301
-375.858	-47.222	-0.230	-0.113
-374.844	774.281	-0.056	0.153
-373.829	84.967	0.163	0.180
-372.815	-200.000	-0.020	0.092
-371.800	-125.406	-0.105	0.016
-370.785	-5.340	0.279	0.193
-369.771	800.000	0.019	-0.065
-368.756	437.894	-0.112	-0.247
-367.742	800.000	0.060	-0.203
-366.727	800.000	-0.131	-0.443
-365.712	-188.301	-0.217	0.003
-364.698	302.840	0.106	0.197
-363.683	468.569	0.194	0.439
-362.669	-200.000	0.027	0.312
-361.654	115.913	-0.130	0.161
-360.639	519.895	-0.063	0.148
-359.625	-83.066	0.089	-0.029
-358.610	302.364	0.121	0.225
-357.596	-110.287	0.167	0.035
-356.581	-122.502	-0.182	0.030
-355.566	-200.000	0.047	-0.380
-354.552	800.000	-0.113	-0.345
-353.537	-200.000	0.007	-0.152
-352.523	-35.753	0.255	-0.139
-351.508	274.589	-0.082	0.146
-350.493	-200.000	0.002	0.186
-349.479	-200.000	-0.088	0.456
-348.464	-29.459	-0.145	-0.084
-347.450	-200.000	-0.021	-0.243
-346.435	-98.049	0.119	-0.031
-345.420	1.479	-0.071	0.052
-344.406	-115.324	-0.134	-0.026
-343.391	-200.000	0.008	0.169
-342.377	-66.355	-0.106	-0.042
-341.362	-200.000	-0.013	0.068
-340.348	800.000	0.064	-0.232
-339.333	51.559	-0.121	0.116
-338.318	-200.000	0.001	-0.084
-337.304	220.029	-0.105	0.169
-336.289	433.437	0.040	-0.088
-335.275	-66.187	-0.117	0.047
-334.260	-36.530	-0.108	-0.059
-333.245	225.624	-0.109	-0.178
-332.231	-70.068	0.231	-0.088
-331.216	-49.008	-0.269	0.130
-330.202	-92.418	-0.142	0.040
-329.187	74.549	0.179	-0.189
-328.172	-200.000	-0.018	0.136
-327.158	182.067	0.112	-0.166
-326.143	-89.623	0.256	0.076
-325.129	59.681	0.195	0.193
-324.114	-113.018	0.171	0.034
-323.099	143.172	0.091	-0.122
-322.085	-200.000	-0.210	-0.001
-321.070	105.455	0.073	-0.086
-320.056	-167.763	-0.164	-0.007
-319.041	6.141	-0.132	-0.098
-318.026	-33.600	0.242	0.134
-317.012	347.938	0.107	0.213
-315.997	-90.755	0.092	-0.027
-314.983	800.000	0.043	0.184
-313.968	761.358	-0.061	-0.166
-312.953	800.000	-0.096	0.268
-311.939	157.463	0.173	-0.241
-310.924	-192.074	-0.251	-0.002
-309.910	-62.664	0.376	-0.157
-308.895	14.153	0.108	0.085
-307.880	-121.361	-0.265	0.044
-306.866	-200.000	0.043	-0.226
-305.851	-130.040	-0.294	0.040
-304.837	347.257	0.122	0.242
-303.822	-200.000	0.002	-0.057
-302.807	-161.699	-0.242	0.012
-301.793	-121.051	0.165	0.028
-300.778	171.449	0.119	-0.171
-299.764	27.949	-0.312	0.264
-298.749	-59.204	-0.305	-0.132
-297.735	-107.679	0.464	-0.102
-296.720	-98.856	-0.369	-0.094
-295.705	-69.200	0.236	0.091
-294.691	-200.000	-0.020	-0.218
-293.676	-200.000	0.007	0.088
-292.662	81.966	-0.030	0.032
-291.647	232.613	-0.077	0.127
-290.632	131.908	-0.220	-0.285
-289.618	24.701	-0.209	-0.174
-288.603	-200.000	-0.040	-0.178
-287.589	-200.000	0.044	0.244
-286.574	57.011	-0.090	-0.088
-285.559	-109.668	0.101	0.021
-284.545	7.016	-0.068	-0.051
-283.530	-182.047	-0.438	0.008
-282.516	-79.244	0.205	-0.070
-281.501	21.312	-0.268	-0.219
-280.486	91.927	0.147	0.166
-279.472	-81.925	0.236	-0.077
-278.457	800.000	0.039	-0.154
-277.443	-200.000	-0.008	-0.384
-276.428	-34.007	-0.081	0.045
-275.413	76.586	-0.210	-0.224
-274.399	71.431	0.130	-0.136
-273.384	-141.075	0.040	0.004
-272.370	564.806	-0.034	-0.083
-271.355	-150.942	0.141	-0.011
-270.340	-200.000	-0.001	-0.185
-269.326	51.765	-0.157	-0.150
-268.311	-80.760	0.401	-0.134
-267.297	-79.200	-0.375	0.128
-266.282	800.000	0.117	0.343
-265.267	-126.213	0.195	0.029
-264.253	100.153	0.131	-0.153
-263.238	60.387	0.108	0.108
-262.224	263.175	-0.096	0.168
-261.209	800.000	0.161	-0.565
-260.195	-55.411	-0.138	0.062
-259.180	353.151	-0.141	0.281
-258.165	-176.422	-0.106	0.003
-257.151	-200.000	0.046	0.351
-256.136	-21.484	-0.043	0.026
-255.122	-82.502	-0.427	-0.139
-254.107	1.186	-0.236	0.170
-253.092	-112.251	0.271	0.055
-252.078	-41.332	-0.328	-0.169
-251.063	-34.843	-0.116	-0.063
-250.049	228.290	-0.108	-0.176
-249.034	152.302	0.122	0.167
-248.019	66.019	0.161	-0.164
-247.005	-200.000	-0.011	0.052
-245.990	195.999	0.206	0.314
-244.976	20.319	-0.250	0.202
-243.961	74.540	-0.107	-0.113
-242.946	13.492	0.063	0.049
-241.932	-33.024	0.103	0.057
-240.917	202.436	0.157	-0.243
-239.903	-95.313	-0.454	0.122
-238.888	-173.123	-0.053	0.002
-237.873	634.638	0.053	-0.135
-236.859	-154.989	0.387	0.026
-235.844	-146.393	-0.129	-0.011
-234.830	176.367	0.097	0.141
-233.815	-200.000	0.028	-0.143
-232.800	-200.000	0.011	0.442
-231.786	53.544	-0.083	-0.080
-230.771	-87.624	0.236	-0.072
-229.757	-59.062	0.018	-0.008
-228.742	800.000	-0.074	-0.210
-227.727	-90.270	0.484	-0.141
-226.713	-200.000	0.103	0.527
-225.698	-69.794	0.356	0.136
-224.684	-200.000	0.061	0.294
-223.669	-136.387	-0.086	-0.010
-222.655	800.000	-0.140	-0.412
-221.640	-115.808	-0.258	-0.048
-220.625	162.632	-0.236	0.332
-219.611	-117.844	-0.132	-0.024
-218.596	-34.042	-0.204	-0.113
-217.582	800.000	0.031	0.092
-216.567	-200.000	0.056	-0.293
-215.552	-56.604	0.211	0.094
-214.538	113.961	-0.146	0.178
-213.523	718.610	-0.030	0.081
-212.509	-21.298	-0.118	0.072
-211.494	52.930	0.105	0.101
-210.479	-31.161	0.238	-0.134
-209.465	-40.758	0.105	-0.055
-208.450	-65.928	-0.285	0.114
-207.436	-129.250	-0.333	-0.046
-206.421	41.528	0.205	-0.186
-205.406	96.167	-0.134	-0.153
-204.392	6.674	0.231	-0.172
-203.377	154.813	0.124	0.170
-202.363	-159.807	0.073	-0.004
-201.348	48.809	0.185	0.174
-200.333	19.681	0.283	0.228
-199.319	156.465	0.188	-0.260
-198.304	192.433	-0.230	0.347
-197.290	19.198	0.147	-0.118
-196.275	41.347	0.152	-0.138
-195.260	634.883	0.066	0.168
-194.246	367.566	-0.092	0.187
-193.231	800.000	-0.101	-0.329
-192.217	133.769	0.101	0.131
-191.202	90.281	-0.069	0.077
-190.187	41.645	0.068	-0.062
-189.173	800.000	-0.091	0.287
-188.158	195.119	-0.121	-0.184
-187.144	-65.406	-0.380	-0.153
-186.129	68.333	0.282	0.289
-185.114	81.949	-0.165	0.179
-184.100	19.656	-0.079	-0.064
-183.085	-76.326	-0.138	0.048
-182.071	800.000	0.067	-0.189
-181.056	800.000	0.147	0.409
-180.042	-200.000	0.029	-0.235
-179.027	800.000	0.041	-0.173
-178.012	-200.000	0.059	-0.262
-176.998	-137.596	0.115	0.013
-175.983	800.000	0.031	0.124
-174.969	-22.687	0.198	0.120
-173.954	-60.102	0.354	-0.151
-172.939	714.388	0.090	0.238
-171.925	0.560	-0.184	0.132
-170.910	-52.023	-0.281	0.130
-169.896	497.534	-0.090	0.207
-168.881	-200.000	-0.011	0.201
-167.866	-104.292	-0.364	0.084
-166.852	-95.403	-0.117	-0.031
-165.837	-200.000	0.052	0.268
-164.823	39.893	0.110	0.098
-163.808	303.570	0.080	0.149
-162.793	-28.063	0.144	0.083
-161.779	-82.164	0.187	-0.061
-160.764	37.859	0.151	-0.134
-159.750	16.674	-0.160	0.126
-158.735	-200.000	-0.031	-0.196
-157.720	260.031	0.041	0.071
-156.706	43.632	0.108	0.099
-155.691	-200.000	-0.041	-0.299
-154.677	-86.262	-0.236	-0.073
-153.662	-200.000	-0.052	0.285
-152.647	-138.415	-0.240	-0.026
-151.633	61.961	-0.044	0.044
-150.618	542.132	-0.117	0.280
-149.604	612.265	-0.068	0.169
-148.589	800.000	-0.040	0.137
-147.574	115.095	-0.083	0.101
-146.560	-113.617	0.149	0.029
-145.545	131.241	0.173	0.223
-144.531	-200.000	-0.094	0.439
-143.516	54.012	-0.155	0.149
-142.502	-65.315	-0.146	0.059
-141.487	-200.000	0.000	0.173
-140.472	-36.372	-0.135	-0.073
-139.458	290.036	-0.117	0.213
-138.443	800.000	-0.073	-0.265
-137.429	27.889	0.321	0.270
-136.414	-111.643	-0.146	0.030
-135.399	-76.318	-0.196	0.069
-134.385	800.000	-0.081	-0.297
-133.370	9.764	-0.247	-0.187
-132.356	163.234	-0.213	-0.299
-131.341	70.891	-0.107	0.111
-130.326	800.000	0.055	-0.194
-129.312	235.015	0.115	0.190
-128.297	38.584	-0.093	0.082
-127.283	800.000	0.147	0.426
-126.268	321.679	-0.176	0.334
-125.253	-131.737	-0.082	0.011
-124.239	-85.375	0.090	-0.028
-123.224	-28.116	0.111	-0.064
-122.210	-67.188	0.062	0.024
-121.195	378.595	0.095	0.195
-120.180	800.000	0.111	-0.312
-119.166	262.049	0.094	0.162
-118.151	74.166	-0.139	0.145
-117.137	164.089	0.096	0.134
-116.122	-52.556	0.294	0.136
-115.107	-164.022	0.278	-0.013
-114.093	-17.933	0.172	0.108
-113.078	197.479	-0.087	-0.132
-112.064	-137.436	0.287	-0.032
-111.049	-133.872	0.029	0.004
-110.034	-121.958	0.095	0.016
-109.020	-16.408	-0.084	0.053
-108.005	-91.476	0.308	-0.088
-106.991	39.477	-0.192	-0.172
-105.976	-6.745	-0.165	0.112
-104.962	-135.447	-0.308	-0.037
-103.947	-200.000	0.013	-0.062
-102.932	-200.000	0.001	0.018
-101.918	-37.593	0.211	0.112
-100.903	23.594	0.147	-0.121
-99.889	-43.092	0.229	0.116
-98.874	-85.947	0.101	-0.031
-97.859	-87.527	-0.304	-0.092
-96.845	-34.752	0.004	-0.002
-95.830	342.136	-0.085	-0.166
-94.816	800.000	-0.091	0.286
-93.801	175.973	-0.220	0.319
-92.786	15.393	0.174	-0.136
-91.772	-200.000	0.043	0.251
-90.757	129.057	-0.187	-0.238
-89.743	-53.107	-0.130	0.060
-88.728	-200.000	0.002	-0.411
-87.713	-97.916	-0.286	0.074
-86.699	88.691	0.162	0.179
-85.684	65.096	0.153	0.154
-84.670	-34.178	0.220	0.121
-83.655	-137.328	-0.217	0.025
-82.640	-158.866	-0.282	0.016
-81.626	-111.383	-0.350	0.071
-80.611	742.868	-0.144	0.385
-79.597	524.480	0.059	0.139
-78.582	-72.669	-0.152	-0.056
-77.567	527.476	0.026	-0.060
-76.553	-143.862	-0.208	0.020
-75.538	-166.322	-0.146	-0.006
-74.524	310.170	-0.037	-0.068
-73.509	-173.765	0.052	-0.002
-72.494	248.557	0.058	-0.097
-71.480	-200.000	-0.001	-0.143
-70.465	-200.000	0.012	0.382
-69.451	-120.559	-0.193	-0.033
-68.436	77.258	0.033	-0.035
-67.422	293.297	0.096	-0.174
-66.407	-12.578	0.144	-0.094
-65.392	152.354	0.224	0.304
-64.378	-200.000	0.026	0.216
-63.363	-192.699	0.091	0.001
-62.349	-96.190	0.328	0.087
-61.334	61.572	-0.932	-0.924
-60.319	356.429	0.088	0.175
-59.305	800.000	-0.200	-0.627
-58.290	223.424	0.571	0.917
-57.276	576.079	0.830	2.020
-56.261	-200.000	77.881	516.506
-55.246	533.743	1308.545	3086.363
-54.232	151.552	2530.864	3432.119
-53.217	114.278	2238.576	2712.877
-52.203	50.503	1770.624	1667.092
-51.188	43.594	1570.735	1430.199
-50.173	41.060	1540.563	1385.055
-49.159	56.775	1579.578	1531.018
-48.144	62.063	1599.833	1587.824
-47.130	44.218	1561.673	1426.107
-46.115	40.672	1547.163	1388.057
-45.100	40.507	1543.523	1383.586
-44.086	40.319	1541.747	1380.630
-43.071	40.309	1539.556	1378.544
-42.057	40.268	1537.779	1376.611
-41.042	40.297	1536.054	1375.215
-40.027	40.372	1534.538	1374.325
-39.013	40.369	1533.181	1373.029
-37.998	40.234	1531.899	1370.897
-36.984	40.381	1530.318	1370.439
-35.969	40.338	1529.103	1369.003
-34.954	40.393	1527.897	1368.248
-33.940	40.325	1526.318	1366.310
-32.925	40.356	1524.611	1364.939
-31.911	40.502	1522.925	1364.384
-30.896	40.489	1521.158	1362.654
-29.881	40.547	1520.259	1362.197
-28.867	40.479	1519.130	1360.664
-27.852	40.464	1517.496	1359.041
-26.838	40.408	1516.650	1357.849
-25.823	40.390	1514.670	1355.894
-24.809	40.389	1512.898	1354.250
-23.794	40.423	1511.626	1353.290
-22.779	40.404	1510.539	1352.134
-21.765	40.469	1509.501	1351.591
-20.750	40.416	1508.150	1349.973
-19.736	40.397	1507.309	1349.037
-18.721	40.496	1505.434	1347.972
-17.706	40.305	1504.620	1345.893
-16.692	40.398	1503.024	1345.048
-15.677	40.371	1502.268	1344.131
-14.663	40.331	1501.694	1343.296
-13.648	40.218	1501.007	1341.858
-12.633	40.328	1499.850	1341.516
-11.619	40.274	1498.550	1339.938
-10.604	40.343	1497.606	1339.507
-9.590	40.335	1496.516	1338.427
-8.575	40.389	1495.889	1338.171
-7.560	40.344	1494.989	1337.011
-6.546	40.380	1494.208	1336.501
-5.531	40.324	1493.175	1335.148
-4.517	40.329	1492.484	1334.511
-3.502	40.252	1491.955	1333.467
-2.487	40.392	1490.165	1332.758
-1.473	40.314	1488.881	1331.032
-0.458	40.392	1487.784	1330.521
0.556	38.397	1477.863	1317.743
1.571	34.908	1448.826	1268.647
2.586	30.312	1384.584	1183.070
3.600	28.069	1298.804	1096.244
4.615	26.204	1250.255	1044.396
5.629	24.242	1197.725	989.546
6.644	19.981	1117.098	900.740
7.659	15.838	1076.500	847.118
8.673	15.263	1070.630	839.544
9.688	15.056	1068.172	836.510
10.702	14.872	1066.495	834.201
11.717	14.980	1064.936	833.445
12.731	16.629	1066.538	842.846
13.746	20.427	1071.311	865.506
14.761	20.999	1070.003	867.222
15.775	18.469	1065.754	851.150
16.790	16.925	1063.039	841.254
17.804	15.766	1060.363	833.321
18.819	14.854	1058.686	827.418
19.834	14.302	1057.318	823.546
20.848	13.950	1055.951	820.673
21.863	13.611	1055.023	818.202
22.877	13.532	1054.218	817.116
23.892	13.199	1053.707	815.009
24.907	13.103	1052.766	813.732
25.921	13.217	1051.989	813.623
26.936	13.195	1051.387	812.975
27.950	13.235	1050.248	812.220
28.965	13.340	1049.022	811.719
29.980	13.225	1047.931	810.236
30.994	13.424	1046.774	810.247
32.009	13.377	1045.464	808.929
33.023	13.426	1045.070	808.792
34.038	13.354	1044.465	807.902
35.053	13.351	1043.343	806.945
36.067	13.247	1042.338	805.593
37.082	13.388	1041.503	805.561
38.096	13.364	1040.438	804.549
39.111	13.320	1039.782	803.759
40.126	13.433	1038.866	803.529
41.140	13.246	1038.441	802.218
42.155	13.380	1037.051	801.725
43.169	13.093	1036.229	799.628
44.184	13.080	1035.481	798.919
45.199	13.120	1034.179	798.036
46.213	13.099	1032.933	796.901
47.228	13.108	1031.770	795.976
48.242	13.143	1030.987	795.472
49.257	13.225	1030.046	795.070
50.271	13.227	1029.362	794.482
51.286	13.180	1028.337	793.392
52.301	13.196	1027.439	792.705
53.315	13.248	1026.767	792.367
54.330	13.214	1025.814	791.398
55.344	13.299	1024.708	790.881
56.359	13.125	1024.264	789.637
57.374	13.184	1023.235	789.055
58.388	13.068	1022.491	787.859
59.403	13.106	1021.697	787.362
60.417	13.099	1020.375	786.236
61.432	13.127	1019.864	785.906
62.447	13.013	1019.161	784.753
63.461	13.096	1018.480	784.554
64.476	13.042	1017.588	783.540
65.490	12.955	1016.627	782.323
66.505	13.001	1015.889	781.902
67.520	12.995	1014.865	781.014
68.534	13.137	1014.168	781.080
69.549	13.109	1013.907	780.679
70.563	13.172	1012.897	780.131
71.578	13.117	1012.443	779.454
72.593	13.103	1011.365	778.487
73.607	13.054	1010.134	777.239
74.622	13.045	1009.274	776.466
75.636	12.995	1008.497	775.566
76.651	12.927	1007.662	774.536
77.666	13.010	1007.072	774.403
78.680	13.118	1006.034	774.042
79.695	12.936	1005.727	772.886
80.709	13.006	1005.179	772.722
81.724	13.099	1004.428	772.511
82.739	13.084	1003.370	771.560
83.753	13.141	1002.835	771.347
84.768	13.156	1002.119	770.797
85.782	13.278	1000.909	770.370
86.797	13.316	1000.324	770.024
87.812	13.350	999.510	769.487
88.826	13.163	999.087	768.228
89.841	13.204	998.068	767.565
90.855	13.259	997.389	767.230
91.870	13.294	996.458	766.610
92.884	13.315	995.831	766.156
93.899	13.187	995.345	765.121
94.914	13.325	994.309	764.894
95.928	13.356	993.588	764.415
96.943	13.320	993.238	763.916
97.957	13.332	992.143	763.058
98.972	13.348	991.000	762.188
99.987	13.316	990.354	761.474
101.001	13.382	989.282	760.887
102.016	13.343	988.890	760.340
103.030	13.351	987.630	759.338
104.045	13.288	986.869	758.397
105.060	13.470	985.736	758.296
106.074	13.333	984.776	756.863
107.089	13.226	984.146	755.821
108.103	13.136	983.528	754.869
109.118	12.997	982.503	753.379
110.133	12.967	981.926	752.734
111.147	13.188	980.538	752.611
112.162	12.965	980.185	751.259
113.176	13.225	978.973	751.446
114.191	13.188	977.941	750.419
115.206	13.133	977.246	749.567
116.220	13.247	976.472	749.424
117.235	13.139	976.425	748.833
118.249	13.210	975.304	748.228
119.264	13.074	974.478	746.912
120.279	13.003	973.461	745.747
121.293	13.003	972.918	745.264
122.308	13.077	972.135	744.933
123.322	13.041	971.467	744.194
124.337	13.082	969.689	742.949
125.352	13.146	968.597	742.334
126.366	13.112	967.778	741.490
127.381	13.268	966.022	740.776
128.395	13.091	965.771	739.727
129.410	13.092	965.059	739.118
130.424	13.142	963.783	738.301
131.439	13.257	962.544	737.801
132.454	13.156	962.249	737.058
133.468	13.182	961.534	736.562
134.483	13.272	960.415	736.040
135.497	13.168	960.241	735.379
136.512	13.310	959.219	735.163
137.527	13.274	958.754	734.580
138.541	13.242	957.530	733.435
139.556	13.288	956.692	732.930
140.570	13.219	956.230	732.209
141.585	13.420	955.383	732.386
142.600	13.303	954.806	731.361
143.614	13.350	954.310	731.123
144.629	13.510	953.140	730.867
145.643	13.389	952.958	730.130
146.658	13.393	951.580	729.025
147.673	13.335	950.585	727.946
148.687	13.342	950.064	727.514
149.702	13.165	949.658	726.360
150.716	13.150	948.406	725.273
151.731	13.250	947.091	724.641
152.746	13.262	946.844	724.441
153.760	13.289	946.031	723.872
154.775	13.295	945.353	723.315
155.789	13.262	944.748	722.645
156.804	13.391	943.862	722.463
157.819	13.524	942.743	722.123
158.833	13.358	942.421	721.092
159.848	13.299	941.930	720.393
160.862	13.495	941.081	720.536
161.877	13.434	940.562	719.809
162.892	13.512	939.155	719.006
163.906	13.285	938.887	717.753
164.921	13.374	937.891	717.314
165.935	13.457	937.010	716.937
166.950	13.358	936.347	715.937
167.964	13.455	934.834	715.136
168.979	13.414	934.173	714.387
169.994	13.430	933.177	713.632
171.008	13.180	932.586	712.042
172.023	13.358	931.610	712.000
173.037	13.382	931.083	711.638
174.052	13.447	930.428	711.350
175.067	13.556	929.309	710.902
176.081	13.374	928.839	709.700
177.096	13.475	928.060	709.475
178.110	13.492	927.112	708.760
179.125	13.475	926.331	708.025
180.140	13.420	925.486	707.080
181.154	13.435	924.892	706.631
182.169	13.423	924.527	706.239
183.183	13.665	923.390	706.338
184.198	13.725	922.618	705.939
185.213	13.664	922.435	705.479
186.227	13.591	921.629	704.488
187.242	13.669	920.708	704.052
188.256	13.702	920.253	703.782
189.271	13.755	919.798	703.596
190.286	13.781	918.978	703.020
191.300	13.634	917.936	701.535
192.315	13.563	917.156	700.578
193.329	13.429	916.824	699.695
194.344	13.560	915.858	699.450
195.359	13.562	915.550	699.164
196.373	13.580	915.188	698.898
197.388	13.756	914.593	699.124
198.402	13.733	914.072	698.567
199.417	13.763	914.006	698.583
200.432	13.884	913.266	698.465
201.446	13.743	912.974	697.587
202.461	13.909	912.148	697.589
203.475	13.860	911.949	697.170
204.490	13.961	911.080	696.869
205.504	13.996	909.947	696.087
206.519	13.996	909.317	695.545
207.534	13.843	908.588	694.283
208.548	13.843	908.393	694.074
209.563	14.000	907.375	693.892
210.577	13.798	906.888	692.615
211.592	13.973	906.227	692.778
212.607	13.974	905.813	692.405
213.621	14.029	904.902	691.875
214.636	13.979	904.099	690.991
215.650	14.068	903.200	690.614
216.665	13.946	903.269	690.096
217.680	14.188	902.518	690.467
218.694	14.077	902.215	689.712
219.709	14.176	901.552	689.558
220.723	14.131	900.927	688.832
221.738	14.068	900.126	687.898
222.753	14.072	899.892	687.676
223.767	14.111	898.935	687.042
224.782	14.212	897.839	686.564
225.796	14.248	896.980	685.993
226.811	14.227	896.365	685.377
227.826	14.212	896.158	685.094
228.840	14.244	895.150	684.396
229.855	14.159	894.557	683.533
230.869	14.240	894.048	683.412
231.884	14.112	893.261	682.226
232.899	14.250	892.200	681.921
233.913	14.190	891.917	681.399
234.928	14.286	890.922	680.970
235.942	14.197	890.285	680.061
236.957	14.213	889.679	679.602
237.972	14.141	888.798	678.576
238.986	14.157	888.374	678.257
240.001	14.107	888.125	677.803
241.015	14.189	887.397	677.523
242.030	14.305	886.334	677.121
243.045	14.192	886.078	676.407
244.059	14.349	885.274	676.372
245.074	14.507	884.622	676.456
246.088	14.375	884.164	675.509
247.103	14.457	883.532	675.299
248.117	14.474	882.800	674.747
249.132	14.567	882.137	674.557
250.147	14.532	881.871	674.152
251.161	14.696	880.860	673.985
252.176	14.691	880.039	673.274
253.190	14.549	879.705	672.388
254.205	14.631	879.613	672.587
255.220	14.744	878.847	672.398
256.234	14.610	878.260	671.352
257.249	14.638	877.503	670.826
258.263	14.851	876.703	671.009
259.278	14.656	876.362	669.906
260.293	14.669	875.979	669.607
261.307	14.838	875.338	669.733
262.322	14.767	874.762	668.949
263.336	14.802	874.157	668.568
264.351	14.818	873.425	668.012
265.366	14.973	872.465	667.838
266.380	14.919	872.155	667.327
267.395	14.969	871.293	666.808
268.409	14.900	870.895	666.171
269.424	14.893	869.854	665.286
270.439	15.030	869.171	665.248
271.453	14.950	868.476	664.340
272.468	14.879	867.445	663.213
273.482	14.960	867.096	663.208
274.497	14.892	866.785	662.642
275.512	15.046	865.411	662.142
276.526	14.918	865.221	661.430
277.541	15.082	864.577	661.530
278.555	14.901	863.848	660.197
279.570	15.079	863.140	660.299
280.585	15.139	863.034	660.396
281.599	15.211	862.329	660.083
282.614	15.072	861.852	659.114
283.628	15.007	861.223	658.316
284.643	15.212	860.550	658.549
285.657	15.260	859.779	658.088
286.672	15.175	859.728	657.660
287.687	15.000	859.189	656.503
288.701	15.007	858.688	656.090
289.716	15.125	858.013	655.979
290.730	15.177	857.655	655.850
291.745	15.310	856.456	655.396
292.760	15.103	855.898	654.102
293.774	15.242	855.581	654.341
294.789	15.288	854.855	653.909
295.803	15.278	854.551	653.578
296.818	15.351	853.789	653.223
297.833	15.292	853.117	652.420
298.847	15.269	852.391	651.721
299.862	15.222	851.627	650.896
300.876	15.381	850.785	650.809
301.891	15.425	850.104	650.402
302.906	15.438	849.602	650.012
303.920	15.489	848.974	649.672
304.935	15.522	848.581	649.440
305.949	15.573	847.986	649.126
306.964	15.603	847.223	648.599
307.979	15.524	846.722	647.854
308.993	15.537	846.227	647.469
310.008	15.677	845.472	647.373
311.022	15.750	845.049	647.271
312.037	15.618	844.678	646.423
313.052	15.662	844.080	646.078
314.066	15.548	843.157	644.874
315.081	15.383	843.000	644.067
316.095	15.550	842.473	644.245
317.110	15.441	842.020	643.426
318.125	15.515	841.170	643.001
319.139	15.541	840.961	642.886
320.154	15.506	840.525	642.361
321.168	15.610	839.864	642.196
322.183	15.513	839.425	641.435
323.197	15.477	838.777	640.745
324.212	15.817	837.796	641.235
325.227	15.728	837.535	640.639
326.241	15.747	836.845	640.125
327.256	15.743	836.231	639.583
328.270	15.635	835.847	638.822
329.285	15.698	835.199	638.512
330.300	15.756	834.535	638.165
331.314	15.669	834.351	637.638
332.329	15.796	833.315	637.272
333.343	15.709	832.640	636.373
334.358	15.803	832.347	636.444
335.373	15.841	831.746	636.073
336.387	15.826	831.304	635.625
337.402	15.974	830.838	635.771
338.416	16.040	830.148	635.433
339.431	15.841	829.749	634.321
340.446	15.834	829.617	634.137
341.460	15.919	828.427	633.493
342.475	15.894	827.938	632.968
343.489	15.981	827.549	632.943
344.504	16.158	826.723	632.920
345.519	16.136	826.476	632.590
346.533	16.248	826.084	632.654
347.548	16.222	824.950	631.634
348.562	16.156	824.946	631.327
349.577	16.093	824.409	630.626
350.592	16.008	823.868	629.837
351.606	15.886	823.305	628.897
352.621	16.056	823.053	629.283
353.635	16.051	822.267	628.608
354.650	16.103	822.075	628.597
355.665	16.171	821.545	628.392
356.679	16.130	820.990	627.756
357.694	16.222	820.625	627.766
358.708	16.081	820.035	626.737
359.723	16.087	819.507	626.299
360.738	16.275	818.722	626.339
361.752	16.293	818.494	626.178
362.767	16.240	818.166	625.672
363.781	16.402	817.530	625.731
364.796	16.397	817.050	625.292
365.810	16.317	816.726	624.691
366.825	16.378	816.346	624.572
367.840	16.516	816.082	624.825
368.854	16.549	815.467	624.418
369.869	16.420	814.986	623.519
370.883	16.397	814.578	623.068
371.898	16.508	814.006	622.983
372.913	16.517	813.181	622.329
373.927	16.626	812.887	622.453
374.942	16.499	812.075	621.307
375.956	16.557	811.593	621.099
376.971	16.534	811.160	620.627
377.986	16.706	810.201	620.467
379.000	16.579	809.983	619.781
380.015	16.652	809.359	619.517
381.029	16.599	808.931	618.942
382.044	16.815	808.138	619.068
383.059	16.860	807.140	618.412
384.073	16.848	807.185	618.349
385.088	16.640	806.952	617.358
386.102	16.638	806.252	616.759
387.117	16.634	805.526	616.135
388.132	16.631	805.178	615.804
389.146	16.702	804.932	615.819
390.161	16.620	804.341	615.013
391.175	16.750	803.932	615.119
392.190	16.736	803.679	614.820
393.205	16.742	803.329	614.520
394.219	16.687	802.683	613.774
395.234	16.659	802.248	613.284
396.248	16.688	802.030	613.167
397.263	16.764	801.279	612.816
398.278	16.654	801.000	612.149
399.292	16.639	800.856	611.932
400.307	16.661	800.258	611.497
401.321	16.789	799.433	611.275
402.336	16.846	799.185	611.239
403.350	16.682	798.991	610.444
404.365	16.834	798.274	610.391
405.380	16.879	797.980	610.275
406.394	16.840	797.622	609.804
407.409	16.978	796.829	609.641
408.423	16.887	796.714	609.172
409.438	17.155	795.770	609.359
410.453	17.176	795.317	609.032
411.467	17.037	795.278	608.452
412.482	17.237	794.573	608.574
413.496	17.209	794.337	608.237
414.511	17.121	794.005	607.616
415.526	17.264	793.525	607.705
416.540	17.190	793.422	607.308
417.555	17.108	793.021	606.654
418.569	17.172	792.028	606.070
419.584	17.300	791.748	606.260
420.599	17.137	791.553	605.475
421.613	93.571	1267.223	1384.084
422.628	79.732	1336.512	1384.195
