DTS Sentinel unit serial number:	SN413079Multiplexer serial number:	ORYXHardware model number:	OX4-SRSoftware version number:	ORYX F/W v4.00 Oryx Data Collector v3.7.2.0data status	okinstallation	princeton_trtdifferential loss correction	single-endedforward channel	channel 3reverse channel	N/Adate	2019/09/14time	19:12:35forward acquisition time	60.00reverse acquisition time	0.00gamma	496.2192k internal	0.2310k external	0.2310temperature offset calibration	1.0013default loss term (dB/km)	0.3790temperature slope calibration	1.0000multiplexer offset coefficient	1.0000multiplexer slope coefficient	1.0000fibre end	0.00T internal ref (°C)	35.25T ext. ref 1 (°C)	4.85T ext. ref 2 (°C)	29.19length (m)	temperature (°C)	Stokes	anti-Stokes-747.200	-119.737	-0.512	-0.090
-746.185	-200.000	-0.045	-0.337
-745.171	223.405	-0.060	0.099
-744.156	52.496	-0.254	0.247
-743.142	421.974	-0.105	0.230
-742.127	800.000	-0.084	0.276
-741.112	275.155	-0.110	0.197
-740.098	-89.458	-0.215	0.064
-739.083	462.814	0.070	0.159
-738.069	-200.000	-0.018	0.254
-737.054	511.255	-0.141	-0.332
-736.039	-116.136	-0.236	0.044
-735.025	-95.472	-0.249	-0.068
-734.010	345.384	0.034	0.068
-732.996	3.769	-0.116	0.086
-731.981	-4.785	-0.065	-0.045
-730.966	232.634	-0.043	-0.071
-729.952	-200.000	0.000	-0.177
-728.937	-200.000	0.006	-0.045
-727.923	216.689	-0.209	0.338
-726.908	-136.820	0.281	0.033
-725.894	-192.373	-0.151	-0.001
-724.879	-200.000	-0.040	-0.391
-723.864	-77.585	-0.256	0.090
-722.850	-121.727	0.235	0.039
-721.835	257.449	-0.129	0.225
-720.821	239.306	0.053	-0.090
-719.806	257.357	-0.158	-0.275
-718.791	-48.332	-0.338	0.165
-717.777	-103.981	-0.008	0.002
-716.762	-168.295	-0.417	0.016
-715.748	42.279	0.353	0.325
-714.733	-200.000	0.109	-0.485
-713.718	-30.057	-0.161	0.093
-712.704	120.148	-0.111	-0.140
-711.689	-66.036	-0.207	-0.084
-710.675	-55.838	-0.414	-0.188
-709.660	-200.000	-0.010	0.127
-708.645	-200.000	0.002	-0.382
-707.631	-71.191	-0.153	-0.058
-706.616	-104.824	0.278	0.065
-705.602	455.526	0.132	-0.297
-704.587	800.000	-0.083	-0.309
-703.572	-194.580	0.209	0.002
-702.558	-94.112	0.297	-0.083
-701.543	753.312	0.139	-0.381
-700.529	-2.307	-0.133	-0.094
-699.514	108.924	-0.175	-0.212
-698.499	301.124	-0.194	-0.364
-697.485	-200.000	0.048	-0.283
-696.470	-121.056	0.152	0.026
-695.456	-14.880	-0.065	0.043
-694.441	-92.222	-0.191	-0.055
-693.426	113.070	0.298	-0.366
-692.412	51.200	-0.114	0.110
-691.397	356.833	-0.046	-0.092
-690.383	728.744	-0.120	-0.325
-689.368	-51.801	0.102	-0.048
-688.354	69.797	0.010	0.010
-687.339	105.399	-0.279	-0.334
-686.324	-77.825	-0.010	0.003
-685.310	-39.077	-0.126	-0.067
-684.295	-129.889	-0.125	0.017
-683.281	-200.000	0.016	-0.127
-682.266	-47.368	0.090	-0.044
-681.251	616.853	-0.031	0.079
-680.237	-112.154	0.433	0.088
-679.222	10.142	-0.206	-0.159
-678.208	5.161	-0.053	0.040
-677.193	800.000	0.065	-0.183
-676.178	-83.144	0.116	0.038
-675.164	-76.867	0.249	-0.088
-674.149	-72.633	-0.040	-0.015
-673.135	-40.474	-0.395	0.208
-672.120	140.174	-0.152	-0.203
-671.105	-85.153	0.464	-0.147
-670.091	-200.000	0.018	0.387
-669.076	800.000	0.097	-0.284
-668.062	549.861	0.123	0.297
-667.047	-33.630	0.170	0.095
-666.032	-200.000	0.009	-0.056
-665.018	-200.000	0.007	-0.118
-664.003	163.945	-0.165	0.235
-662.989	391.692	0.039	-0.082
-661.974	190.329	-0.072	-0.109
-660.959	-200.000	-0.074	0.333
-659.945	800.000	0.092	-0.279
-658.930	-37.048	0.267	0.145
-657.916	447.938	0.102	-0.226
-656.901	-200.000	-0.011	0.101
-655.886	800.000	0.088	-0.259
-654.872	800.000	-0.031	-0.133
-653.857	40.803	-0.188	-0.171
-652.843	356.371	0.084	-0.169
-651.828	-200.000	0.014	-0.067
-650.814	-200.000	0.009	-0.266
-649.799	-200.000	0.045	-0.242
-648.784	-77.847	0.364	-0.127
-647.770	-96.892	0.177	-0.047
-646.755	-120.963	-0.404	-0.069
-645.741	-200.000	-0.041	-0.288
-644.726	800.000	-0.040	0.129
-643.711	-200.000	-0.033	-0.225
-642.697	-200.000	0.046	0.211
-641.682	167.864	-0.228	0.328
-640.668	-59.994	-0.443	0.191
-639.653	15.990	0.094	-0.075
-638.638	800.000	-0.110	0.322
-637.624	111.610	-0.120	0.146
-636.609	-24.353	0.155	-0.093
-635.595	-200.000	-0.041	-0.282
-634.580	525.856	0.121	-0.289
-633.565	-155.737	-0.450	-0.029
-632.551	25.003	-0.232	-0.195
-631.536	-62.695	-0.406	-0.170
-630.522	-200.000	-0.047	-0.364
-629.507	-188.226	-0.113	0.001
-628.492	167.975	0.176	0.253
-627.478	-47.807	-0.160	-0.078
-626.463	-41.960	0.053	0.028
-625.449	293.514	-0.017	0.031
-624.434	60.274	-0.179	0.179
-623.419	-200.000	-0.039	-0.195
-622.405	85.177	-0.195	0.216
-621.390	-3.193	-0.031	0.022
-620.376	281.337	0.140	-0.253
-619.361	-41.420	-0.169	0.088
-618.346	-195.537	0.475	-0.004
-617.332	138.426	-0.134	-0.178
-616.317	-10.903	0.133	0.089
-615.303	-150.723	0.176	-0.014
-614.288	-88.951	-0.089	-0.027
-613.273	-75.610	-0.118	-0.042
-612.259	-200.000	0.012	-0.252
-611.244	800.000	-0.085	-0.249
-610.230	-67.871	-0.203	0.080
-609.215	115.398	-0.162	-0.200
-608.201	-149.772	-0.166	-0.013
-607.186	-81.108	0.162	0.054
-606.171	800.000	-0.025	-0.069
-605.157	35.783	0.317	-0.281
-604.142	329.769	-0.070	-0.137
-603.128	800.000	0.075	-0.246
-602.113	319.787	-0.163	-0.313
-601.098	-200.000	-0.064	0.326
-600.084	800.000	-0.035	0.104
-599.069	-145.907	0.100	-0.009
-598.055	800.000	0.070	-0.222
-597.040	70.931	0.259	-0.271
-596.025	-172.310	-0.197	-0.006
-595.011	6.325	-0.122	-0.091
-593.996	-200.000	-0.031	0.154
-592.982	-54.474	-0.034	-0.016
-591.967	-71.560	0.204	-0.077
-590.952	-200.000	0.011	-0.181
-589.938	380.970	-0.081	0.167
-588.923	-200.000	0.007	0.060
-587.909	800.000	0.090	0.267
-586.894	36.881	-0.086	0.077
-585.879	613.609	-0.060	-0.152
-584.865	20.990	0.200	0.164
-583.850	-200.000	0.011	0.230
-582.836	163.429	-0.020	0.028
-581.821	-6.746	0.175	0.120
-580.806	-200.000	-0.045	-0.206
-579.792	800.000	0.046	-0.153
-578.777	-90.659	-0.110	-0.032
-577.763	-70.210	0.199	0.076
-576.748	574.895	-0.074	0.183
-575.733	-200.000	0.067	0.369
-574.719	-200.000	0.033	-0.470
-573.704	319.731	0.110	0.210
-572.690	-200.000	0.007	-0.327
-571.675	279.399	0.212	-0.381
-570.661	-41.107	-0.136	-0.071
-569.646	-44.605	0.120	-0.061
-568.631	-200.000	-0.028	0.217
-567.617	65.863	0.249	-0.254
-566.602	258.743	-0.126	-0.219
-565.588	-200.000	0.081	0.365
-564.573	147.968	-0.048	-0.065
-563.558	-24.722	-0.159	-0.095
-562.544	-200.000	-0.027	0.185
-561.529	-166.910	0.231	0.010
-560.515	-60.133	0.242	-0.104
-559.500	199.711	-0.058	-0.090
-558.485	800.000	0.056	-0.216
-557.471	-200.000	0.000	0.247
-556.456	145.921	0.135	0.183
-555.442	800.000	0.104	-0.321
-554.427	2.705	0.093	0.068
-553.412	-143.816	-0.464	-0.044
-552.398	56.250	-0.157	-0.154
-551.383	35.449	0.138	-0.122
-550.369	336.999	0.021	0.041
-549.354	589.468	0.066	-0.163
-548.339	-109.511	0.183	0.039
-547.325	39.005	0.080	-0.072
-546.310	76.755	-0.053	0.056
-545.296	-114.354	0.231	-0.045
-544.281	800.000	0.039	-0.116
-543.266	-14.167	-0.200	0.130
-542.252	-105.506	-0.344	-0.079
-541.237	433.961	-0.034	0.074
-540.223	698.224	-0.165	0.437
-539.208	128.506	-0.055	0.070
-538.193	-114.328	-0.257	-0.050
-537.179	-80.372	0.083	-0.028
-536.164	-44.873	-0.051	0.026
-535.150	-200.000	-0.030	0.200
-534.135	39.707	0.168	-0.151
-533.121	800.000	-0.044	-0.193
-532.106	-63.345	-0.201	-0.083
-531.091	-148.060	-0.242	0.020
-530.077	-80.117	0.323	0.109
-529.062	-200.000	-0.007	-0.097
-528.048	322.826	0.077	0.148
-527.033	616.919	-0.040	-0.100
-526.018	-5.502	0.239	-0.165
-525.004	278.500	-0.135	0.242
-523.989	219.619	0.173	-0.279
-522.975	-200.000	0.039	-0.170
-521.960	-60.963	-0.399	-0.170
-520.945	-116.430	-0.364	0.068
-519.931	-200.000	0.010	-0.228
-518.916	111.643	0.158	-0.191
-517.902	-75.860	-0.341	-0.122
-516.887	-31.884	0.282	-0.159
-515.872	290.149	-0.040	0.073
-514.858	119.034	-0.192	-0.239
-513.843	-182.352	0.200	-0.004
-512.829	105.451	-0.140	0.166
-511.814	-191.740	0.057	0.001
-510.799	-98.534	-0.183	-0.047
-509.785	800.000	-0.028	0.103
-508.770	228.336	-0.149	-0.244
-507.756	347.265	0.166	-0.329
-506.741	800.000	-0.086	-0.313
-505.726	-4.698	0.200	-0.139
-504.712	152.323	0.202	0.277
-503.697	800.000	0.032	0.138
-502.683	-86.965	-0.174	0.053
-501.668	-63.726	-0.163	0.067
-500.653	-73.761	-0.037	0.014
-499.639	105.164	0.031	0.037
-498.624	-1.964	0.096	0.068
-497.610	-83.485	0.151	-0.049
-496.595	-138.940	0.138	-0.015
-495.581	-125.726	-0.226	-0.034
-494.566	-200.000	0.000	0.217
-493.551	83.800	-0.111	-0.122
-492.537	800.000	0.056	-0.184
-491.522	122.302	-0.123	0.155
-490.508	-22.270	-0.245	-0.150
-489.493	-193.411	-0.252	0.002
-488.478	-135.403	-0.446	-0.054
-487.464	-51.021	-0.343	-0.162
-486.449	-200.000	0.023	0.111
-485.435	418.317	-0.119	0.255
-484.420	-101.524	0.194	0.047
-483.405	459.892	-0.112	0.250
-482.391	-87.986	-0.312	0.094
-481.376	-4.777	0.122	0.085
-480.362	-51.706	0.180	-0.084
-479.347	-64.853	0.226	-0.092
-478.332	800.000	0.034	-0.114
-477.318	6.438	-0.024	0.018
-476.303	-200.000	0.017	-0.308
-475.289	-200.000	0.003	0.217
-474.274	59.846	0.280	0.278
-473.259	149.762	0.246	0.335
-472.245	80.995	0.271	0.294
-471.230	-200.000	-0.008	0.236
-470.216	411.848	0.197	0.421
-469.201	-24.355	0.298	0.179
-468.186	85.389	0.197	-0.217
-467.172	-200.000	0.036	-0.257
-466.157	172.793	-0.107	-0.154
-465.143	9.047	-0.157	-0.119
-464.128	-172.615	-0.128	0.004
-463.113	-200.000	-0.013	-0.174
-462.099	800.000	-0.078	0.222
-461.084	706.703	-0.006	0.017
-460.070	-44.206	-0.314	-0.158
-459.055	-200.000	0.013	-0.277
-458.040	71.029	0.122	0.127
-457.026	-200.000	-0.058	-0.341
-456.011	-41.181	-0.197	-0.102
-454.997	139.378	0.156	0.206
-453.982	800.000	-0.082	-0.304
-452.968	-62.231	-0.205	-0.086
-451.953	-5.565	0.229	0.158
-450.938	27.734	-0.224	0.189
-449.924	-200.000	0.030	0.291
-448.909	1.779	-0.153	-0.111
-447.895	707.539	0.043	0.113
-446.880	-40.915	-0.228	-0.119
-445.865	800.000	-0.053	0.183
-444.851	164.424	0.227	0.321
-443.836	-115.351	0.148	-0.028
-442.822	119.357	-0.179	-0.222
-441.807	-101.865	-0.298	-0.072
-440.792	-58.871	0.078	0.034
-439.778	-69.305	0.156	-0.060
-438.763	290.320	0.119	-0.216
-437.749	-132.937	0.354	0.045
-436.734	-95.421	0.112	-0.030
-435.719	-65.694	0.055	0.022
-434.705	-44.943	0.094	0.047
-433.690	-200.000	-0.016	-0.133
-432.676	744.712	0.001	-0.003
-431.661	53.251	-0.119	0.114
-430.646	-72.938	0.116	0.043
-429.632	300.109	-0.118	0.218
-428.617	440.935	-0.154	-0.337
-427.603	-6.913	0.160	-0.109
-426.588	684.710	-0.091	0.238
-425.573	38.961	0.133	-0.120
-424.559	-200.000	-0.071	-0.367
-423.544	-111.813	-0.231	0.047
-422.530	-135.767	-0.453	0.054
-421.515	-137.182	-0.162	-0.019
-420.500	192.349	0.217	0.328
-419.486	-129.197	0.077	0.011
-418.471	-117.365	0.236	0.043
-417.457	2.590	0.183	0.133
-416.442	800.000	0.049	0.174
-415.428	491.314	0.090	0.207
-414.413	-10.428	0.142	-0.095
-413.398	508.543	0.036	-0.083
-412.384	-200.000	-0.018	0.296
-411.369	-85.170	0.147	0.046
-410.355	481.913	-0.104	0.236
-409.340	-83.913	0.141	-0.045
-408.325	251.271	0.074	-0.126
-407.311	386.544	-0.062	-0.128
-406.296	-178.597	-0.143	-0.003
-405.282	118.485	0.342	0.424
-404.267	259.754	-0.126	-0.218
-403.252	24.160	-0.042	-0.035
-402.238	52.924	-0.131	0.125
-401.223	607.395	0.168	0.419
-400.209	-143.526	-0.202	0.019
-399.194	179.208	0.059	-0.086
-398.179	52.985	0.173	0.166
-397.165	-68.046	-0.070	0.027
-396.150	13.542	0.106	0.082
-395.136	333.402	-0.144	-0.278
-394.121	-200.000	-0.029	-0.164
-393.106	-98.994	0.329	0.084
-392.092	578.858	-0.119	0.291
-391.077	800.000	0.180	0.537
-390.063	789.495	0.066	0.182
-389.048	124.428	0.173	-0.217
-388.033	-133.791	0.230	0.029
-387.019	202.230	0.079	0.122
-386.004	-58.159	-0.124	0.054
-384.990	190.014	0.257	-0.387
-383.975	86.821	0.031	0.034
-382.960	2.135	-0.117	-0.085
-381.946	74.165	0.211	0.222
-380.931	78.303	0.031	0.033
-379.917	171.728	0.197	-0.283
-378.902	-59.335	0.307	-0.132
-377.888	-163.720	-0.227	0.011
-376.873	-157.817	0.068	0.004
-375.858	414.973	0.094	-0.201
-374.844	15.231	-0.103	-0.081
-373.829	305.997	-0.224	-0.417
-372.815	-109.388	-0.270	-0.057
-371.800	-6.650	0.097	-0.066
-370.785	236.960	-0.121	0.201
-369.771	-200.000	0.185	-0.001
-368.756	-122.362	-0.263	0.043
-367.742	3.590	0.138	0.100
-366.727	-147.413	0.155	-0.013
-365.712	-115.442	-0.159	0.030
-364.698	800.000	-0.066	0.230
-363.683	-79.984	-0.196	-0.066
-362.669	-22.296	0.316	-0.191
-361.654	197.908	0.120	0.184
-360.639	66.744	-0.028	-0.029
-359.625	-49.245	0.334	0.160
-358.610	-106.983	0.311	0.069
-357.596	84.682	-0.129	0.141
-356.581	-139.986	0.327	0.035
-355.566	318.440	-0.044	-0.083
-354.552	10.483	-0.196	0.149
-353.537	-120.040	-0.147	0.025
-352.523	51.214	0.167	-0.158
-351.508	-200.000	0.035	-0.198
-350.493	-200.000	0.008	-0.039
-349.479	41.971	-0.177	0.161
-348.464	-85.715	0.151	0.047
-347.450	270.913	-0.039	-0.069
-346.435	256.503	0.233	0.400
-345.420	-45.731	0.189	-0.094
-344.406	-200.000	-0.027	0.135
-343.391	116.313	0.227	0.279
-342.377	-43.203	0.187	0.095
-341.362	-200.000	-0.006	0.216
-340.348	306.310	-0.059	0.109
-339.333	800.000	-0.091	0.291
-338.318	800.000	0.057	-0.202
-337.304	457.528	-0.107	0.237
-336.289	-171.208	0.226	0.008
-335.275	-104.322	0.167	-0.039
-334.260	118.653	-0.114	-0.140
-333.245	-200.000	0.014	0.100
-332.231	101.484	0.216	-0.251
-331.216	800.000	-0.064	-0.195
-330.202	37.696	-0.021	0.019
-329.187	-11.124	-0.135	0.089
-328.172	208.354	-0.155	-0.242
-327.158	-76.833	0.053	0.019
-326.143	-60.361	0.330	0.140
-325.129	-109.597	0.162	-0.034
-324.114	800.000	-0.056	-0.163
-323.099	-136.407	-0.232	-0.027
-322.085	-200.000	-0.013	-0.172
-321.070	800.000	-0.039	0.145
-320.056	3.521	0.014	0.010
-319.041	198.526	-0.076	0.116
-318.026	-52.804	-0.423	0.195
-317.012	-200.000	0.025	0.158
-315.997	-56.958	0.246	0.109
-314.983	7.043	-0.100	0.074
-313.968	42.196	0.018	0.017
-312.953	-15.913	0.088	-0.056
-311.939	-68.752	0.099	0.038
-310.924	550.421	0.033	0.079
-309.910	51.101	0.195	0.185
-308.895	-200.000	0.027	0.142
-307.880	-45.322	-0.227	0.112
-306.866	-55.665	0.401	-0.179
-305.851	-200.000	0.055	-0.486
-304.837	-103.656	0.407	0.095
-303.822	-62.109	-0.255	0.106
-302.807	179.629	0.061	-0.089
-301.793	70.240	-0.182	0.187
-300.778	-142.444	0.295	0.029
-299.764	40.401	0.063	-0.057
-298.749	-136.005	0.243	-0.029
-297.735	-64.174	0.136	0.055
-296.720	-34.789	-0.118	-0.064
-295.705	-113.180	-0.138	-0.027
-294.691	-25.336	0.385	0.227
-293.676	-200.000	0.016	-0.136
-292.662	-200.000	0.025	0.383
-291.647	-98.671	0.188	0.048
-290.632	-26.847	0.015	0.009
-289.618	-5.158	0.059	-0.041
-288.603	-200.000	0.016	-0.110
-287.589	-4.147	-0.109	-0.075
-286.574	-127.541	0.129	-0.019
-285.559	95.741	0.074	-0.084
-284.545	265.515	0.098	0.171
-283.530	-154.387	-0.411	0.028
-282.516	299.138	0.183	0.337
-281.501	69.615	0.304	0.313
-280.486	-30.964	-0.334	0.188
-279.472	-179.484	-0.283	-0.006
-278.457	-200.000	-0.042	0.384
-277.443	-47.550	-0.347	-0.168
-276.428	67.937	0.261	-0.267
-275.413	800.000	0.087	0.325
-274.399	-130.972	0.096	-0.013
-273.384	-72.959	0.221	-0.081
-272.370	502.601	-0.051	0.117
-271.355	-200.000	0.021	-0.203
-270.340	-77.732	0.024	0.008
-269.326	-200.000	0.035	0.242
-268.311	102.077	-0.232	0.270
-267.297	-33.434	-0.149	0.082
-266.282	421.142	-0.069	0.147
-265.267	-31.341	0.088	0.050
-264.253	-200.000	-0.030	-0.141
-263.238	-26.014	-0.303	-0.177
-262.224	800.000	-0.013	-0.046
-261.209	-105.434	-0.435	0.099
-260.195	-97.687	-0.091	0.023
-259.180	222.471	0.087	-0.139
-258.165	293.078	-0.031	-0.056
-257.151	225.328	-0.061	-0.098
-256.136	-7.464	-0.051	0.035
-255.122	-30.004	0.159	-0.090
-254.107	162.859	0.113	0.158
-253.092	4.478	-0.261	-0.191
-252.078	126.127	0.165	-0.208
-251.063	-200.000	-0.044	-0.230
-250.049	-132.524	0.243	0.031
-249.034	48.283	-0.208	0.194
-248.019	-142.393	0.318	0.031
-247.005	-200.000	-0.047	-0.308
-245.990	209.584	0.101	-0.158
-244.976	-92.061	-0.142	-0.040
-243.961	-143.280	-0.204	-0.019
-242.946	-200.000	0.003	0.146
-241.932	800.000	-0.091	0.268
-240.917	-167.370	-0.298	0.012
-239.903	-106.990	0.099	-0.022
-238.888	31.068	0.105	-0.090
-237.873	-7.428	-0.331	-0.223
-236.859	-2.331	-0.168	0.118
-235.844	-92.855	0.269	-0.075
-234.830	800.000	-0.067	-0.231
-233.815	-119.131	0.177	-0.031
-232.800	-113.225	-0.300	0.059
-231.786	-200.000	-0.009	0.118
-230.771	-200.000	0.022	0.145
-229.757	161.046	0.125	0.174
-228.742	159.420	0.172	0.239
-227.727	-85.429	-0.064	0.020
-226.713	646.361	-0.111	-0.282
-225.698	121.465	-0.127	0.157
-224.684	800.000	-0.052	-0.184
-223.669	-125.115	-0.273	-0.042
-222.655	336.364	0.136	0.262
-221.640	-20.404	0.189	-0.116
-220.625	-197.756	-0.302	0.002
-219.611	-161.032	0.193	0.010
-218.596	230.926	-0.108	-0.176
-217.582	-91.310	-0.079	-0.022
-216.567	127.790	-0.054	0.068
-215.552	101.855	-0.096	-0.112
-214.538	93.121	0.326	0.366
-213.523	-107.010	0.236	-0.052
-212.509	-14.412	-0.304	-0.195
-211.494	-101.873	-0.353	-0.085
-210.479	-153.033	-0.116	-0.008
-209.465	-161.502	-0.250	-0.013
-208.450	-200.000	0.011	-0.175
-207.436	183.299	-0.121	0.178
-206.421	-86.940	0.255	-0.077
-205.406	-171.409	0.205	0.007
-204.392	-200.000	-0.052	0.402
-203.377	177.902	0.052	0.076
-202.363	565.250	0.149	0.360
-201.348	136.922	-0.083	0.108
-200.333	43.959	-0.158	-0.144
-199.319	238.275	-0.146	-0.242
-198.304	-200.000	0.021	0.196
-197.290	49.122	0.150	-0.140
-196.275	404.892	-0.059	0.124
-195.260	389.731	-0.112	0.230
-194.246	-35.695	0.232	-0.125
-193.231	-200.000	-0.021	-0.222
-192.217	559.349	-0.004	-0.010
-191.202	166.451	0.156	-0.220
-190.187	26.513	-0.226	0.187
-189.173	-200.000	0.001	0.118
-188.158	-5.754	0.359	-0.245
-187.144	-200.000	0.010	-0.326
-186.129	-162.890	-0.276	-0.013
-185.114	-79.797	0.033	-0.011
-184.100	291.536	0.041	0.075
-183.085	37.572	0.090	0.080
-182.071	800.000	-0.023	0.080
-181.056	800.000	-0.095	-0.299
-180.042	-10.210	-0.224	-0.147
-179.027	800.000	-0.041	-0.162
-178.012	78.593	0.105	-0.112
-176.998	800.000	-0.051	0.159
-175.983	-200.000	0.016	0.082
-174.969	800.000	-0.078	0.213
-173.954	-36.330	0.225	-0.121
-172.939	69.048	-0.241	0.246
-171.925	800.000	0.205	-0.585
-170.910	26.078	0.079	0.065
-169.896	95.507	0.148	-0.167
-168.881	-69.487	0.242	-0.092
-167.866	-179.593	-0.414	0.009
-166.852	2.570	-0.225	-0.162
-165.837	12.730	-0.084	-0.064
-164.823	-51.944	0.297	0.137
-163.808	398.127	0.161	0.334
-162.793	-200.000	-0.030	0.192
-161.779	86.525	-0.176	0.192
-160.764	-200.000	-0.040	0.229
-159.750	-29.433	0.095	0.054
-158.735	-200.000	0.002	-0.169
-157.720	142.280	0.127	-0.167
-156.706	-200.000	0.125	0.000
-155.691	-78.079	-0.070	-0.024
-154.677	-200.000	0.014	0.228
-153.662	88.042	-0.138	-0.152
-152.647	64.782	0.035	-0.035
-151.633	-106.388	-0.266	-0.059
-150.618	-200.000	0.022	0.365
-149.604	182.820	-0.027	0.040
-148.589	-14.633	0.374	0.239
-147.574	-200.000	-0.010	0.178
-146.560	-144.049	-0.117	-0.011
-145.545	-62.702	-0.233	0.096
-144.531	246.321	-0.033	-0.055
-143.516	-200.000	-0.014	0.156
-142.502	-200.000	0.002	-0.091
-141.487	394.615	-0.213	0.441
-140.472	-200.000	0.043	-0.254
-139.458	537.466	0.084	0.198
-138.443	-19.418	0.389	-0.239
-137.429	800.000	0.057	0.187
-136.414	-200.000	-0.026	-0.354
-135.399	28.867	0.175	-0.147
-134.385	-50.974	-0.060	-0.028
-133.370	130.780	0.027	-0.034
-132.356	505.499	-0.192	-0.442
-131.341	356.428	-0.029	-0.057
-130.326	-200.000	0.021	0.115
-129.312	-168.493	0.371	-0.014
-128.297	189.164	-0.240	0.357
-127.283	-200.000	0.018	-0.148
-126.268	800.000	0.015	0.052
-125.253	151.860	0.188	-0.253
-124.239	-121.238	0.274	0.045
-123.224	-119.854	0.207	0.035
-122.210	-28.701	0.224	-0.128
-121.195	-200.000	0.041	-0.365
-120.180	-153.078	-0.069	-0.005
-119.166	303.586	0.008	0.014
-118.151	-200.000	0.014	-0.130
-117.137	89.868	-0.181	0.200
-116.122	-149.409	-0.179	0.014
-115.107	-200.000	-0.037	-0.241
-114.093	-44.146	0.263	-0.131
-113.078	308.560	-0.099	0.184
-112.064	800.000	-0.088	-0.360
-111.049	-104.952	0.202	-0.046
-110.034	-150.171	-0.214	0.016
-109.020	82.205	-0.230	0.247
-108.005	-163.444	0.226	0.011
-106.991	107.977	0.059	0.069
-105.976	-200.000	0.011	-0.153
-104.962	-200.000	-0.011	0.096
-103.947	-2.754	-0.225	0.156
-102.932	-95.201	0.012	0.003
-101.918	-7.569	-0.047	0.031
-100.903	69.816	-0.059	-0.061
-99.889	-39.835	-0.323	0.167
-98.874	232.524	-0.095	-0.154
-97.859	310.657	-0.076	-0.141
-96.845	47.172	-0.076	0.070
-95.830	-11.164	-0.325	-0.212
-94.816	86.838	0.248	-0.271
-93.801	151.250	0.233	-0.314
-92.786	153.162	0.139	0.188
-91.772	-200.000	0.011	0.365
-90.757	-29.603	0.130	-0.073
-89.743	-200.000	0.002	0.259
-88.728	800.000	-0.087	0.347
-87.713	-7.929	0.233	0.156
-86.699	-113.200	0.178	0.035
-85.684	-200.000	0.069	0.365
-84.670	584.261	-0.170	0.414
-83.655	610.103	0.161	-0.397
-82.640	134.337	0.095	-0.122
-81.626	-200.000	0.052	-0.341
-80.611	-75.126	0.126	0.044
-79.597	671.836	-0.023	0.058
-78.582	-125.067	-0.297	0.045
-77.567	-200.000	0.026	-0.275
-76.553	-200.000	-0.045	0.313
-75.538	-30.503	0.266	-0.149
-74.524	800.000	0.090	-0.277
-73.509	-130.110	0.331	0.045
-72.494	209.231	0.096	0.149
-71.480	43.165	0.107	-0.096
-70.465	-21.854	-0.173	0.104
-69.451	64.431	0.450	0.448
-68.436	-100.165	0.330	0.081
-67.422	473.166	-0.099	-0.221
-66.407	800.000	0.030	0.110
-65.392	188.959	0.237	0.350
-64.378	-27.686	-0.025	-0.015
-63.363	-14.701	0.234	0.149
-62.349	-52.298	0.471	0.216
-61.334	102.412	-0.730	-0.844
-60.319	461.499	0.178	0.392
-59.305	565.766	-0.224	-0.538
-58.290	204.061	0.569	0.871
-57.276	289.635	0.937	1.681
-56.261	-200.000	96.126	582.496
-55.246	666.689	1381.942	3530.900
-54.232	189.401	2589.484	3836.948
-53.217	124.546	2189.669	2723.675
-52.203	46.021	1724.658	1578.133
-51.188	38.439	1534.848	1352.254
-50.173	35.918	1507.129	1310.644
-49.159	55.082	1557.543	1487.542
-48.144	59.407	1577.066	1536.033
-47.130	38.867	1532.184	1352.645
-46.115	35.482	1516.704	1315.779
-45.100	35.343	1513.277	1311.797
-44.086	35.174	1511.723	1309.243
-43.071	35.236	1509.566	1307.748
-42.057	35.245	1507.601	1306.055
-41.042	35.232	1506.403	1304.878
-40.027	35.114	1505.453	1303.202
-39.013	35.194	1503.243	1301.777
-37.998	35.241	1502.193	1301.140
-36.984	35.187	1501.811	1300.386
-35.969	35.264	1500.085	1299.367
-34.954	35.211	1498.417	1297.511
-33.940	35.265	1497.337	1296.885
-32.925	35.202	1495.729	1295.018
-31.911	35.205	1494.548	1293.965
-30.896	35.345	1493.149	1293.645
-29.881	35.349	1491.930	1292.563
-28.867	35.423	1489.683	1291.062
-27.852	35.365	1488.902	1289.950
-26.838	35.298	1487.508	1288.237
-25.823	35.385	1485.856	1287.340
-24.809	35.369	1484.008	1285.583
-23.794	35.262	1483.090	1284.020
-22.779	35.230	1481.873	1282.697
-21.765	35.257	1480.649	1281.768
-20.750	35.232	1479.670	1280.702
-19.736	35.313	1478.348	1280.052
-18.721	35.259	1477.609	1278.997
-17.706	35.300	1475.888	1277.732
-16.692	35.197	1475.349	1276.528
-15.677	35.153	1474.775	1275.684
-14.663	35.269	1473.263	1275.098
-13.648	35.238	1472.408	1274.106
-12.633	35.211	1471.070	1272.716
-11.619	35.234	1470.480	1272.309
-10.604	35.212	1469.569	1271.321
-9.590	35.208	1468.628	1270.433
-8.575	35.244	1467.953	1270.038
-7.560	35.273	1467.119	1269.455
-6.546	35.127	1466.396	1267.814
-5.531	35.229	1465.228	1267.427
-4.517	35.293	1463.874	1266.633
-3.502	35.205	1463.049	1265.285
-2.487	35.234	1462.071	1264.579
-1.473	35.221	1461.041	1263.551
-0.458	35.091	1459.455	1261.278
0.556	34.629	1449.818	1250.220
1.571	31.237	1423.046	1205.173
2.586	27.247	1360.492	1127.416
3.600	25.115	1277.579	1046.187
4.615	23.635	1230.612	999.315
5.629	20.242	1174.638	935.512
6.644	12.131	1090.110	827.356
7.659	5.793	1049.413	765.538
8.673	4.916	1042.981	756.520
9.688	4.818	1040.260	754.005
10.702	4.846	1039.272	753.358
11.717	4.821	1037.006	751.530
12.731	6.972	1039.203	763.450
13.746	14.340	1049.470	806.728
14.761	19.479	1055.432	836.205
15.775	19.339	1054.109	834.407
16.790	18.124	1052.298	827.025
17.804	17.247	1049.606	820.606
18.819	16.442	1047.859	815.284
19.834	15.822	1046.790	811.393
20.848	15.566	1045.208	808.861
21.863	15.413	1044.526	807.524
22.877	15.098	1043.839	805.407
23.892	14.979	1043.143	804.229
24.907	14.883	1042.448	803.163
25.921	14.892	1041.737	802.583
26.936	14.826	1041.001	801.631
27.950	14.934	1039.994	801.300
28.965	14.909	1038.759	800.158
29.980	15.013	1038.049	800.038
30.994	15.149	1036.613	799.513
32.009	15.252	1035.865	799.357
33.023	15.249	1035.044	798.635
34.038	15.181	1034.411	797.752
35.053	15.065	1033.593	796.500
36.067	14.962	1032.778	795.312
37.082	15.032	1031.746	794.777
38.096	14.991	1031.026	793.958
39.111	14.993	1030.288	793.332
40.126	15.213	1028.567	792.974
41.140	15.069	1028.102	791.864
42.155	14.894	1027.065	790.168
43.169	14.769	1026.379	788.980
44.184	14.823	1025.311	788.349
45.199	14.856	1023.590	787.108
46.213	14.669	1023.389	786.003
47.228	14.733	1022.080	785.229
48.242	14.847	1021.305	785.099
49.257	14.897	1020.711	784.809
50.271	14.858	1019.656	783.748
51.286	14.974	1018.598	783.404
52.301	15.047	1017.831	783.089
53.315	15.021	1016.963	782.232
54.330	14.895	1015.989	780.824
55.344	14.878	1015.314	780.159
56.359	14.873	1014.029	779.076
57.374	14.922	1012.835	778.317
58.388	14.795	1012.540	777.432
59.403	14.812	1011.790	776.867
60.417	14.902	1011.169	776.739
61.432	14.817	1010.414	775.696
62.447	14.653	1009.850	774.432
63.461	14.697	1008.958	773.884
64.476	14.710	1007.839	773.017
65.490	14.570	1007.036	771.688
66.505	14.587	1006.423	771.227
67.520	14.661	1005.677	770.927
68.534	14.679	1004.616	770.131
69.549	14.849	1003.929	770.321
70.563	14.827	1002.864	769.333
71.578	14.672	1002.603	768.351
72.593	14.525	1001.625	766.857
73.607	14.653	1000.519	766.530
74.622	14.557	999.673	765.376
75.636	14.478	998.981	764.416
76.651	14.646	997.968	764.342
77.666	14.535	997.800	763.636
78.680	14.571	996.975	763.100
79.695	14.606	996.305	762.681
80.709	14.724	995.572	762.590
81.724	14.714	994.757	761.857
82.739	14.683	994.264	761.267
83.753	14.847	993.413	761.296
84.768	14.906	992.889	761.098
85.782	15.055	992.020	761.039
86.797	15.197	991.404	761.146
87.812	15.028	990.845	759.883
88.826	14.949	989.557	758.471
89.841	14.964	988.698	757.811
90.855	15.077	987.811	757.574
91.870	14.963	987.373	756.657
92.884	14.971	986.858	756.233
93.899	15.129	985.970	756.196
94.914	15.110	984.928	755.245
95.928	15.063	984.930	754.968
96.943	15.134	983.984	754.498
97.957	15.024	983.611	753.649
98.972	15.047	982.202	752.605
99.987	15.062	981.395	751.989
101.001	15.118	980.414	751.419
102.016	15.178	979.667	751.051
103.030	15.128	978.659	749.986
104.045	15.029	977.936	748.923
105.060	15.079	976.749	748.171
106.074	15.184	975.619	747.708
107.089	14.906	975.011	745.938
108.103	14.778	974.158	744.647
109.118	14.803	972.924	743.752
110.133	14.722	972.746	743.188
111.147	14.723	971.717	742.340
112.162	14.719	970.562	741.373
113.176	14.907	969.457	741.298
114.191	14.753	969.133	740.302
115.206	14.863	968.253	740.053
116.220	14.834	967.483	739.268
117.235	14.772	967.028	738.585
118.249	14.875	965.953	738.150
119.264	14.717	965.115	736.748
120.279	14.772	964.048	736.110
121.293	14.743	963.514	735.509
122.308	14.754	962.639	734.828
123.322	14.736	961.743	733.997
124.337	14.663	960.369	732.566
125.352	14.671	959.641	731.979
126.366	14.585	958.892	730.965
127.381	14.708	957.661	730.504
128.395	14.735	957.001	730.050
129.410	14.645	956.156	728.948
130.424	14.684	955.090	728.242
131.439	14.849	954.116	728.154
132.454	14.837	953.537	727.595
133.468	14.849	952.792	727.017
134.483	14.892	952.528	726.937
135.497	14.903	951.833	726.390
136.512	14.918	950.739	725.553
137.527	14.864	950.440	725.027
138.541	14.812	949.663	724.148
139.556	14.861	948.735	723.585
140.570	14.905	947.471	722.748
141.585	14.915	947.050	722.405
142.600	15.007	946.531	722.344
143.614	15.158	945.355	722.034
144.629	15.080	944.843	721.243
145.643	15.161	944.401	721.191
146.658	15.260	943.282	720.699
147.673	15.079	942.581	719.319
148.687	15.056	941.515	718.346
149.702	14.851	940.905	716.937
150.716	14.816	939.925	715.975
151.731	14.825	939.026	715.267
152.746	14.869	938.497	714.990
153.760	14.909	937.675	714.470
154.775	14.882	936.670	713.528
155.789	15.018	936.002	713.532
156.804	15.076	935.236	713.135
157.819	15.055	934.457	712.389
158.833	15.133	933.806	712.158
159.848	15.106	933.417	711.684
160.862	15.248	932.722	711.695
161.877	15.343	931.750	711.293
162.892	15.034	931.239	709.530
163.906	14.984	930.226	708.484
164.921	15.017	929.036	707.654
165.935	14.904	928.496	706.706
166.950	14.981	927.652	706.325
167.964	14.866	926.814	705.140
168.979	15.070	925.365	704.832
169.994	15.087	924.624	704.276
171.008	15.143	923.894	703.894
172.023	15.086	923.140	703.017
173.037	15.180	922.480	702.846
174.052	15.209	922.001	702.541
175.067	15.257	920.825	701.788
176.081	15.067	919.813	700.157
177.096	14.996	919.020	699.196
178.110	15.014	918.457	698.781
179.125	15.152	917.599	698.642
180.140	15.149	916.899	698.035
181.154	15.034	916.248	696.995
182.169	15.254	915.947	697.623
183.183	15.210	915.303	696.887
184.198	15.327	914.380	696.611
185.213	15.185	914.073	695.723
186.227	15.359	913.526	695.970
187.242	15.337	912.853	695.303
188.256	15.405	912.029	694.894
189.271	15.471	911.544	694.738
190.286	15.530	910.697	694.273
191.300	15.325	910.176	692.967
192.315	15.080	909.072	691.054
193.329	15.058	908.019	690.105
194.344	14.941	907.950	689.509
195.359	15.149	907.011	689.588
196.373	15.132	906.950	689.414
197.388	15.384	906.041	689.698
198.402	15.415	905.813	689.589
199.417	15.444	905.791	689.631
200.432	15.606	905.083	689.694
201.446	15.654	904.690	689.533
202.461	15.761	903.661	689.126
203.475	15.681	903.522	688.630
204.490	15.711	903.182	688.434
205.504	15.549	902.037	686.835
206.519	15.518	900.953	685.823
207.534	15.527	900.476	685.438
208.548	15.705	899.439	685.312
209.563	15.559	898.834	684.198
210.577	15.482	898.444	683.525
211.592	15.413	897.303	682.318
212.607	15.596	897.357	683.040
213.621	15.794	897.071	683.567
214.636	15.799	896.136	682.817
215.650	15.778	895.289	682.026
216.665	15.889	894.430	681.761
217.680	15.738	894.287	680.979
218.694	15.831	894.060	681.121
219.709	15.836	893.685	680.797
220.723	15.832	892.583	679.878
221.738	15.935	891.758	679.607
222.753	15.793	891.285	678.612
223.767	15.977	890.098	678.393
224.782	15.880	889.429	677.433
225.796	15.927	888.723	677.020
226.811	15.968	888.383	676.869
227.826	16.064	887.308	676.372
228.840	15.990	886.757	675.598
229.855	15.983	886.262	675.133
230.869	15.899	885.381	674.063
231.884	15.831	884.927	673.390
232.899	15.873	884.360	673.063
233.913	15.803	883.529	672.093
234.928	15.711	883.128	671.362
235.942	15.621	882.335	670.340
236.957	15.943	881.215	670.712
237.972	15.770	880.766	669.624
238.986	15.860	880.361	669.613
240.001	15.724	879.961	668.708
241.015	15.702	879.056	667.877
242.030	15.942	877.825	667.834
243.045	15.838	877.629	667.214
244.059	15.896	877.316	667.144
245.074	16.069	876.336	667.025
246.088	15.981	875.895	666.283
247.103	16.026	875.240	665.904
248.117	16.101	875.091	666.029
249.132	16.218	874.501	665.981
250.147	16.154	874.268	665.490
251.161	16.383	873.300	665.600
252.176	16.385	872.545	664.972
253.190	16.579	871.394	664.799
254.205	16.431	871.204	664.014
255.220	16.578	870.702	664.148
256.234	16.625	869.961	663.710
257.249	16.513	869.632	662.959
258.263	16.541	868.917	662.468
259.278	16.558	868.467	662.132
260.293	16.477	868.235	661.577
261.307	16.450	867.384	660.768
262.322	16.595	866.759	660.798
263.336	16.636	866.234	660.500
264.351	16.686	865.640	660.184
265.366	16.759	864.812	659.778
266.380	16.732	864.112	659.080
267.395	16.892	863.415	659.115
268.409	16.650	863.111	657.880
269.424	16.751	862.180	657.508
270.439	16.700	861.678	656.866
271.453	16.693	860.625	655.981
272.468	16.676	859.785	655.217
273.482	16.733	859.653	655.276
274.497	16.564	859.289	654.288
275.512	16.597	858.027	653.398
276.526	16.606	857.426	652.918
277.541	16.611	856.790	652.393
278.555	16.597	856.393	651.981
279.570	16.756	855.552	651.892
280.585	16.954	855.114	652.265
281.599	16.838	854.951	651.637
282.614	16.830	853.836	650.697
283.628	16.760	853.552	650.154
284.643	16.700	853.230	649.622
285.657	16.730	852.537	649.151
286.672	16.861	851.931	649.135
287.687	16.738	851.278	648.108
288.701	16.824	850.734	647.967
289.716	16.861	850.129	647.591
290.730	16.977	849.538	647.524
291.745	16.907	849.149	646.903
292.760	16.773	848.462	645.812
293.774	17.132	847.440	646.345
294.789	16.977	847.463	645.713
295.803	17.057	846.615	645.313
296.818	16.885	846.128	644.232
297.833	16.901	845.206	643.535
298.847	17.015	844.572	643.429
299.862	17.102	843.560	642.931
300.876	17.009	843.109	642.176
301.891	17.022	842.810	641.943
302.906	17.028	842.448	641.630
303.920	17.159	841.638	641.453
304.935	17.190	840.902	640.951
305.949	17.342	839.948	640.740
306.964	17.274	839.508	640.094
307.979	17.296	838.929	639.678
308.993	17.205	838.930	639.278
310.008	17.329	837.913	638.912
311.022	17.234	837.636	638.288
312.037	17.321	837.178	638.208
313.052	17.117	836.438	636.825
314.066	17.118	835.830	636.310
315.081	17.037	835.493	635.691
316.095	17.027	834.527	634.864
317.110	17.129	834.131	634.889
318.125	17.082	833.529	634.196
319.139	17.207	833.098	634.281
320.154	17.227	832.543	633.877
321.168	17.178	831.798	633.071
322.183	17.185	831.343	632.693
323.197	17.264	830.916	632.608
324.212	17.367	830.257	632.431
325.227	17.168	830.252	631.634
326.241	17.311	829.526	631.554
327.256	17.280	828.864	630.879
328.270	17.089	828.421	629.780
329.285	17.127	827.753	629.357
330.300	17.243	827.012	629.166
331.314	17.161	826.826	628.668
332.329	17.142	826.487	628.283
333.343	17.443	825.493	628.585
334.358	17.312	825.286	627.886
335.373	17.270	824.736	627.256
336.387	17.382	823.832	626.928
337.402	17.394	823.569	626.715
338.416	17.426	822.997	626.343
339.431	17.657	822.036	626.403
340.446	17.740	821.739	626.430
341.460	17.558	821.497	625.519
342.475	17.680	820.618	625.243
343.489	17.711	820.198	624.980
344.504	17.847	819.941	625.227
345.519	17.800	819.304	624.517
346.533	17.748	818.888	623.954
347.548	17.864	818.600	624.102
348.562	17.717	817.950	623.015
349.577	17.545	817.389	621.903
350.592	17.694	816.648	621.829
351.606	17.658	816.038	621.178
352.621	17.619	815.534	620.598
353.635	17.508	815.105	619.811
354.650	17.796	814.363	620.239
355.665	17.695	814.180	619.679
356.679	17.805	813.713	619.669
357.694	17.825	813.399	619.445
358.708	17.679	812.933	618.508
359.723	17.893	811.968	618.494
360.738	17.900	811.572	618.162
361.752	17.813	811.153	617.472
362.767	17.763	811.044	617.156
363.781	17.757	810.515	616.676
364.796	18.077	809.878	617.293
365.810	18.073	809.732	617.112
366.825	18.132	809.316	616.955
367.840	18.245	808.584	616.748
368.854	18.283	808.432	616.717
369.869	17.939	808.156	615.211
370.883	18.131	807.655	615.465
371.898	18.057	806.825	614.514
372.913	18.183	806.025	614.302
373.927	18.151	805.605	613.812
374.942	18.321	804.841	613.785
375.956	18.119	804.328	612.615
376.971	18.247	803.994	612.765
377.986	18.326	803.382	612.529
379.000	18.347	802.827	612.125
380.015	18.452	802.315	612.057
381.029	18.407	801.956	611.569
382.044	18.393	801.338	610.993
383.059	18.303	800.689	610.123
384.073	18.362	800.092	609.826
385.088	18.331	799.657	609.330
386.102	18.169	799.191	608.344
387.117	18.295	798.391	608.128
388.132	18.286	798.103	607.824
389.146	18.229	797.729	607.280
390.161	18.250	797.550	607.166
391.175	18.343	796.941	606.978
392.190	18.451	796.495	606.970
393.205	18.373	796.309	606.497
394.219	18.335	795.654	605.809
395.234	18.364	795.091	605.429
396.248	18.285	794.829	604.899
397.263	18.197	794.180	604.041
398.278	18.212	793.356	603.410
399.292	18.234	793.222	603.334
400.307	18.293	792.667	603.067
401.321	18.240	792.523	602.717
402.336	18.166	792.224	602.175
403.350	18.206	791.851	601.981
404.365	18.342	790.939	601.710
405.380	18.538	790.687	602.154
406.394	18.455	790.444	601.626
407.409	18.658	789.720	601.732
408.423	18.690	789.358	601.516
409.438	18.692	789.380	601.487
410.453	18.648	788.718	600.773
411.467	18.686	788.571	600.743
412.482	18.694	787.831	600.152
413.496	18.832	787.357	600.222
414.511	18.686	787.243	599.571
415.526	18.929	786.539	599.832
416.540	18.750	786.308	598.977
417.555	18.740	786.317	598.894
418.569	18.698	785.443	598.029
419.584	18.752	785.077	597.888
420.599	18.858	784.468	597.740
421.613	155.064	1367.779	1789.204
422.628	133.930	1452.793	1789.295
