DTS Sentinel unit serial number:	SN413079Multiplexer serial number:	ORYXHardware model number:	OX4-SRSoftware version number:	ORYX F/W v4.00 Oryx Data Collector v3.7.2.0data status	okinstallation	princeton_trtdifferential loss correction	single-endedforward channel	channel 3reverse channel	N/Adate	2019/09/13time	02:08:35forward acquisition time	60.00reverse acquisition time	0.00gamma	496.2192k internal	0.2334k external	0.2334temperature offset calibration	1.0125default loss term (dB/km)	0.3790temperature slope calibration	1.0000multiplexer offset coefficient	1.0000multiplexer slope coefficient	1.0000fibre end	0.00T internal ref (°C)	27.56T ext. ref 1 (°C)	3.87T ext. ref 2 (°C)	22.24length (m)	temperature (°C)	Stokes	anti-Stokes-747.200	407.081	-0.191	0.405
-746.185	696.043	0.214	0.564
-745.171	207.251	0.184	-0.288
-744.156	-78.351	-0.313	-0.108
-743.142	39.364	0.055	0.049
-742.127	35.807	0.067	0.059
-741.112	238.694	0.148	0.247
-740.098	-109.456	0.351	0.075
-739.083	7.065	-0.283	0.212
-738.069	-36.901	-0.278	0.150
-737.054	-10.660	0.336	-0.223
-736.039	63.394	-0.169	-0.171
-735.025	-171.902	-0.282	-0.009
-734.010	-82.747	-0.314	0.102
-732.996	28.953	-0.166	0.141
-731.981	800.000	-0.097	-0.274
-730.966	-200.000	-0.029	0.261
-729.952	-26.457	-0.212	-0.125
-728.937	-95.439	-0.244	0.066
-727.923	-115.624	-0.077	0.015
-726.908	78.617	-0.046	-0.049
-725.894	-73.619	-0.249	-0.091
-724.879	-200.000	0.017	-0.116
-723.864	682.402	-0.097	0.254
-722.850	53.517	0.042	-0.040
-721.835	-200.000	-0.012	0.246
-720.821	-200.000	-0.036	0.168
-719.806	-133.493	-0.452	-0.057
-718.791	-200.000	-0.018	-0.366
-717.777	16.649	-0.090	0.071
-716.762	-200.000	-0.007	0.335
-715.748	61.530	-0.107	0.107
-714.733	340.262	-0.056	0.109
-713.718	-40.333	0.053	-0.027
-712.704	-174.173	-0.153	-0.004
-711.689	139.759	0.234	-0.309
-710.675	-200.000	-0.002	0.128
-709.660	109.027	0.144	0.173
-708.645	-26.659	-0.527	0.309
-707.631	308.762	-0.107	-0.202
-706.616	11.638	0.098	-0.076
-705.602	-35.187	0.097	0.053
-704.587	-21.719	-0.131	0.080
-703.572	800.000	-0.016	-0.050
-702.558	335.548	-0.092	0.179
-701.543	-85.956	0.130	-0.040
-700.529	120.909	0.122	-0.153
-699.514	29.620	-0.062	0.053
-698.499	-54.198	0.054	0.025
-697.485	800.000	-0.055	-0.191
-696.470	-200.000	0.006	-0.158
-695.456	28.917	0.229	-0.195
-694.441	-200.000	-0.001	0.011
-693.426	-200.000	0.010	-0.253
-692.412	-95.365	-0.343	-0.093
-691.397	220.953	-0.109	0.176
-690.383	29.545	-0.097	0.083
-689.368	183.302	0.148	0.219
-688.354	-112.688	-0.319	-0.064
-687.339	236.780	0.107	-0.177
-686.324	145.544	-0.047	-0.064
-685.310	-181.813	0.355	-0.007
-684.295	27.191	0.081	-0.068
-683.281	-113.785	0.175	0.034
-682.266	800.000	-0.027	-0.114
-681.251	800.000	0.047	0.135
-680.237	44.737	0.133	0.123
-679.222	-119.990	-0.307	0.053
-678.208	129.509	0.044	0.057
-677.193	-127.957	-0.033	-0.005
-676.178	-103.146	-0.138	-0.033
-675.164	-46.846	-0.299	-0.146
-674.149	-200.000	0.026	0.118
-673.135	800.000	-0.076	0.246
-672.120	-172.623	0.300	0.009
-671.105	800.000	0.062	0.180
-670.091	25.382	0.147	0.123
-669.076	-39.283	-0.091	-0.048
-668.062	180.411	0.076	0.112
-667.047	-92.476	-0.370	0.104
-666.032	-135.922	-0.211	0.025
-665.018	-3.676	-0.150	-0.104
-664.003	353.810	-0.070	-0.140
-662.989	-165.480	-0.356	0.016
-661.974	-24.731	0.308	-0.183
-660.959	-8.903	0.153	0.103
-659.945	0.366	-0.093	-0.066
-658.930	154.829	-0.157	0.216
-657.916	-155.121	-0.353	-0.023
-656.901	37.090	0.311	0.276
-655.886	-200.000	-0.064	-0.348
-654.872	311.093	-0.148	-0.279
-653.857	-128.938	0.206	-0.029
-652.843	-101.828	0.127	0.031
-651.828	-51.128	0.120	0.056
-650.814	309.395	-0.137	-0.256
-649.799	62.799	-0.093	0.093
-648.784	-42.267	-0.422	-0.216
-647.770	-143.719	0.227	-0.022
-646.755	-200.000	0.011	0.260
-645.741	-159.777	-0.532	0.029
-644.726	24.819	0.070	0.058
-643.711	136.428	-0.095	0.124
-642.697	114.092	0.048	-0.059
-641.682	82.931	0.138	-0.150
-640.668	341.072	0.176	0.344
-639.653	-18.320	-0.178	0.111
-638.638	129.177	-0.182	0.233
-637.624	-148.745	0.253	0.021
-636.609	-200.000	-0.001	0.212
-635.595	176.060	0.089	0.129
-634.580	600.582	0.051	0.128
-633.565	24.423	0.166	-0.138
-632.551	-87.942	0.284	-0.086
-631.536	19.750	0.049	0.039
-630.522	-86.512	-0.226	-0.070
-629.507	-23.558	-0.266	0.160
-628.492	-43.312	0.044	-0.022
-627.478	-77.460	-0.233	0.081
-626.463	142.493	-0.036	-0.048
-625.449	-57.951	-0.089	0.039
-624.434	800.000	-0.067	0.187
-623.419	-177.506	0.129	-0.003
-622.405	12.206	-0.314	0.242
-621.390	18.180	0.284	-0.227
-620.376	-138.930	-0.160	0.017
-619.361	727.982	0.109	0.290
-618.346	388.428	0.205	0.425
-617.332	-149.230	-0.573	0.046
-616.317	218.648	0.029	-0.046
-615.303	-111.799	-0.085	-0.017
-614.288	116.211	0.185	0.226
-613.273	-0.339	-0.134	-0.095
-612.259	199.880	0.234	0.359
-611.244	-64.166	0.362	0.148
-610.230	121.577	-0.051	0.064
-609.215	-103.705	-0.205	-0.048
-608.201	-200.000	-0.007	-0.108
-607.186	8.702	-0.224	0.169
-606.171	-126.024	-0.134	-0.020
-605.157	75.152	0.176	0.186
-604.142	110.140	-0.154	-0.185
-603.128	-145.293	0.134	0.012
-602.113	-119.439	-0.385	-0.067
-601.098	87.428	0.090	0.099
-600.084	-200.000	-0.032	-0.160
-599.069	-200.000	-0.062	-0.421
-598.055	-19.913	-0.104	-0.064
-597.040	800.000	0.013	0.036
-596.025	-200.000	-0.003	0.065
-595.011	800.000	0.090	0.310
-593.996	80.292	0.237	-0.255
-592.982	123.083	-0.210	-0.262
-591.967	-128.581	0.162	-0.023
-590.952	-20.427	-0.049	0.030
-589.938	-200.000	-0.003	-0.199
-588.923	-200.000	-0.058	-0.255
-587.909	-200.000	-0.058	-0.270
-586.894	131.897	0.050	0.064
-585.879	-81.096	0.197	-0.065
-584.865	800.000	-0.049	0.191
-583.850	180.744	0.170	0.249
-582.836	381.592	-0.060	0.123
-581.821	-78.197	-0.026	0.009
-580.806	-200.000	-0.020	-0.238
-579.792	165.341	-0.101	-0.143
-578.777	-53.395	0.215	0.098
-577.763	276.751	0.031	0.054
-576.748	-112.748	0.173	-0.034
-575.733	308.110	-0.084	-0.157
-574.719	-33.333	0.124	0.068
-573.704	800.000	-0.028	0.082
-572.690	-57.286	0.173	-0.076
-571.675	-184.168	0.170	-0.003
-570.661	-101.859	-0.402	-0.097
-569.646	800.000	0.047	-0.160
-568.631	800.000	0.050	0.161
-567.617	-200.000	0.080	0.488
-566.602	474.403	-0.115	0.259
-565.588	33.756	0.183	-0.159
-564.573	497.039	-0.078	0.180
-563.558	800.000	0.008	0.033
-562.544	-136.870	0.146	-0.017
-561.529	512.862	0.059	0.137
-560.515	-157.856	-0.250	0.015
-559.500	672.446	0.085	0.221
-558.485	-200.000	-0.007	-0.247
-557.471	-32.763	-0.216	-0.120
-556.456	162.118	-0.033	0.046
-555.442	-187.810	0.307	0.004
-554.427	-200.000	-0.069	-0.519
-553.412	800.000	0.078	0.299
-552.398	63.381	0.150	-0.150
-551.383	-65.219	-0.406	0.163
-550.369	449.215	0.082	-0.180
-549.354	133.122	0.026	-0.033
-548.339	800.000	0.086	-0.245
-547.325	71.435	-0.192	-0.199
-546.310	-149.784	0.332	-0.026
-545.296	46.392	-0.118	0.109
-544.281	752.831	0.079	-0.212
-543.266	567.232	0.179	-0.433
-542.252	50.440	-0.248	-0.234
-541.237	-134.051	0.089	0.011
-540.223	758.982	-0.127	-0.343
-539.208	800.000	-0.063	-0.252
-538.193	240.080	-0.056	-0.094
-537.179	-134.880	-0.119	0.014
-536.164	609.387	-0.105	-0.262
-535.150	-200.000	-0.017	-0.080
-534.135	292.367	-0.181	0.328
-533.121	-117.521	0.233	0.042
-532.106	-200.000	-0.010	-0.171
-531.091	-78.330	-0.169	-0.058
-530.077	127.719	0.067	-0.085
-529.062	-145.592	0.056	-0.005
-528.048	447.240	-0.057	0.126
-527.033	179.881	-0.074	0.108
-526.018	-139.225	0.144	-0.015
-525.004	162.683	0.081	0.113
-523.989	-96.354	0.114	-0.030
-522.975	293.806	-0.156	-0.284
-521.960	-5.232	-0.125	-0.086
-520.945	45.659	0.338	0.311
-519.931	-70.392	-0.248	0.094
-518.916	49.418	0.186	0.174
-517.902	-40.454	-0.270	0.140
-516.887	783.924	0.088	-0.240
-515.872	-63.692	0.177	0.072
-514.858	19.595	0.197	-0.158
-513.843	-200.000	0.033	-0.486
-512.829	391.504	0.130	0.269
-511.814	280.045	-0.054	-0.096
-510.799	-40.838	-0.162	-0.083
-509.785	-21.118	-0.186	-0.113
-508.770	26.039	-0.257	-0.214
-507.756	125.472	-0.260	0.327
-506.741	212.002	-0.031	-0.048
-505.726	-70.497	-0.179	0.068
-504.712	116.836	-0.250	0.306
-503.697	-153.415	-0.340	0.024
-502.683	37.513	-0.053	-0.047
-501.668	-126.141	-0.241	0.036
-500.653	37.357	-0.333	0.294
-499.639	-84.463	0.194	-0.061
-498.624	27.199	0.184	-0.154
-497.610	-200.000	0.055	-0.556
-496.595	-200.000	-0.010	-0.094
-495.581	-200.000	0.018	0.321
-494.566	-145.436	-0.116	0.010
-493.551	-3.497	-0.299	0.207
-492.537	800.000	0.011	-0.035
-491.522	-21.451	0.230	0.140
-490.508	-92.690	0.146	0.041
-489.493	6.082	0.017	-0.012
-488.478	-117.853	0.210	-0.038
-487.464	-96.003	0.323	-0.085
-486.449	480.043	-0.034	0.078
-485.435	-22.798	-0.102	-0.061
-484.420	-131.658	-0.051	-0.007
-483.405	-200.000	-0.187	-0.000
-482.391	800.000	0.072	0.214
-481.376	-200.000	-0.009	0.239
-480.362	-0.034	-0.386	-0.273
-479.347	-96.461	0.134	-0.035
-478.332	-200.000	0.005	-0.093
-477.318	-71.689	0.342	-0.127
-476.303	-9.120	0.248	-0.165
-475.289	-192.059	0.499	-0.005
-474.274	-200.000	0.076	-0.398
-473.259	1.557	-0.201	-0.144
-472.245	-104.964	-0.233	-0.053
-471.230	-103.636	0.293	0.068
-470.216	-183.543	-0.216	-0.004
-469.201	148.965	0.184	-0.248
-468.186	-184.478	0.385	-0.006
-467.172	-49.474	0.214	0.101
-466.157	47.449	-0.219	0.203
-465.143	8.926	0.204	0.153
-464.128	685.429	-0.075	0.194
-463.113	39.000	-0.207	-0.184
-462.099	-200.000	0.011	0.355
-461.084	235.636	0.128	-0.210
-460.070	-200.000	0.008	-0.263
-459.055	800.000	-0.197	-0.575
-458.040	-15.167	0.238	-0.151
-457.026	-87.896	0.176	-0.053
-456.011	-200.000	0.000	0.171
-454.997	800.000	-0.116	-0.333
-453.982	-200.000	0.017	0.265
-452.968	-142.460	-0.163	-0.016
-451.953	-67.116	-0.185	0.072
-450.938	-200.000	0.016	-0.197
-449.924	81.432	0.039	-0.042
-448.909	-200.000	0.044	0.203
-447.895	-200.000	-0.078	0.453
-446.880	-200.000	-0.065	0.000
-445.865	23.237	0.123	-0.100
-444.851	-34.720	0.116	0.063
-443.836	-86.520	-0.237	0.072
-442.822	31.757	0.062	0.053
-441.807	3.331	0.190	-0.138
-440.792	800.000	0.022	0.063
-439.778	-200.000	-0.044	0.236
-438.763	-44.032	-0.081	0.040
-437.749	-200.000	-0.029	-0.516
-436.734	140.852	-0.023	0.031
-435.719	51.240	0.275	-0.259
-434.705	-9.286	0.163	0.108
-433.690	62.067	-0.228	-0.226
-432.676	480.231	0.040	0.090
-431.661	-32.886	-0.155	0.086
-430.646	-41.563	-0.273	0.140
-429.632	389.930	-0.236	-0.485
-428.617	-115.162	0.219	-0.041
-427.603	800.000	-0.126	0.367
-426.588	296.719	0.157	-0.285
-425.573	-200.000	-0.005	0.215
-424.559	-200.000	0.014	-0.124
-423.544	800.000	-0.092	-0.290
-422.530	336.907	0.134	-0.259
-421.515	267.446	0.150	0.261
-420.500	-117.971	-0.107	0.019
-419.486	72.083	-0.050	-0.051
-418.471	-200.000	0.014	0.212
-417.457	32.685	-0.132	0.113
-416.442	47.318	0.081	-0.075
-415.428	800.000	-0.018	0.076
-414.413	16.499	-0.093	0.073
-413.398	17.972	-0.153	-0.121
-412.384	-200.000	0.038	-0.209
-411.369	-22.461	0.244	0.146
-410.355	-71.664	0.298	0.110
-409.340	-110.034	-0.207	0.043
-408.325	-50.594	0.053	-0.025
-407.311	196.818	-0.189	0.286
-406.296	-108.776	0.197	0.042
-405.282	16.555	-0.204	0.160
-404.267	-138.930	-0.242	0.026
-403.252	-36.865	0.269	0.143
-402.238	222.842	0.075	0.119
-401.223	-97.369	0.036	0.009
-400.209	-200.000	-0.007	-0.173
-399.194	-98.194	-0.069	-0.017
-398.179	-116.889	0.329	-0.060
-397.165	-200.000	0.042	-0.343
-396.150	-169.179	0.298	0.011
-395.136	77.016	0.135	-0.143
-394.121	-14.492	0.062	0.039
-393.106	-200.000	0.014	-0.106
-392.092	677.771	0.042	-0.107
-391.077	53.193	-0.123	-0.117
-390.063	320.225	-0.002	0.003
-389.048	324.491	-0.106	-0.200
-388.033	-200.000	0.007	-0.087
-387.019	-30.914	0.137	0.077
-386.004	123.877	-0.290	0.362
-384.990	-14.618	-0.031	-0.020
-383.975	-30.135	-0.357	0.202
-382.960	63.269	0.099	-0.099
-381.946	-71.103	0.353	0.131
-380.931	-124.302	0.190	-0.029
-379.917	6.627	-0.167	-0.123
-378.902	-200.000	-0.184	-0.001
-377.888	238.208	0.108	0.178
-376.873	13.062	-0.255	-0.196
-375.858	98.574	0.161	0.184
-374.844	10.225	0.184	-0.139
-373.829	182.264	0.151	0.221
-372.815	35.397	0.095	-0.082
-371.800	-200.000	-0.040	-0.191
-370.785	690.610	0.079	0.204
-369.771	800.000	0.037	0.145
-368.756	219.861	0.075	-0.119
-367.742	248.185	-0.106	-0.178
-366.727	400.017	0.042	-0.086
-365.712	-47.704	0.148	-0.071
-364.698	-95.013	0.223	-0.060
-363.683	781.287	0.102	0.276
-362.669	-75.718	-0.151	0.053
-361.654	-135.013	-0.271	0.032
-360.639	-52.051	0.036	-0.016
-359.625	-123.164	0.341	-0.054
-358.610	-106.393	0.150	0.033
-357.596	-26.852	-0.088	-0.051
-356.581	-145.461	-0.270	0.024
-355.566	211.890	0.089	0.139
-354.552	212.224	0.055	0.087
-353.537	-200.000	0.002	0.116
-352.523	-134.721	-0.201	-0.024
-351.508	-39.199	-0.044	-0.023
-350.493	-67.185	0.228	-0.089
-349.479	-75.732	0.178	0.063
-348.464	29.578	-0.168	0.141
-347.450	-200.000	-0.009	0.212
-346.435	95.450	0.158	0.178
-345.420	-200.000	0.005	-0.258
-344.406	-200.000	0.007	0.085
-343.391	159.012	-0.089	0.123
-342.377	-128.726	0.111	0.015
-341.362	-14.477	-0.317	0.202
-340.348	210.268	-0.370	0.575
-339.333	25.304	0.234	0.193
-338.318	800.000	-0.033	-0.102
-337.304	-47.931	-0.102	0.049
-336.289	-200.000	0.306	-0.001
-335.275	-200.000	0.003	-0.219
-334.260	-80.340	-0.191	0.063
-333.245	-146.456	0.311	0.027
-332.231	61.764	-0.127	0.125
-331.216	800.000	-0.002	-0.007
-330.202	73.572	0.452	-0.468
-329.187	-148.282	0.203	-0.016
-328.172	102.286	-0.140	-0.162
-327.158	-200.000	0.017	-0.130
-326.143	249.192	-0.112	0.188
-325.129	221.703	-0.199	-0.317
-324.114	16.368	-0.017	-0.014
-323.099	-111.244	0.288	0.058
-322.085	47.360	0.046	-0.042
-321.070	207.004	0.161	0.248
-320.056	-67.354	-0.234	0.091
-319.041	-200.000	0.023	-0.135
-318.026	-85.691	0.430	0.132
-317.012	14.525	-0.390	-0.301
-315.997	-137.178	0.228	-0.026
-314.983	800.000	-0.043	0.165
-313.968	543.599	0.031	-0.074
-312.953	800.000	0.086	0.324
-311.939	800.000	-0.078	-0.252
-310.924	800.000	0.041	0.114
-309.910	212.574	-0.007	-0.011
-308.895	100.621	0.136	-0.156
-307.880	-165.354	0.441	-0.019
-306.866	-200.000	-0.023	-0.143
-305.851	-38.940	-0.233	0.121
-304.837	-39.856	-0.322	-0.166
-303.822	-173.393	-0.124	0.004
-302.807	-200.000	0.003	0.094
-301.793	-200.000	0.008	-0.108
-300.778	-18.198	0.204	0.126
-299.764	-20.647	-0.205	0.125
-298.749	49.698	-0.213	-0.198
-297.735	-200.000	-0.042	-0.195
-296.720	800.000	0.034	0.119
-295.705	-171.854	0.087	-0.003
-294.691	800.000	0.095	-0.332
-293.676	605.005	0.096	0.235
-292.662	-200.000	0.001	-0.016
-291.647	-200.000	0.017	0.197
-290.632	214.698	0.058	-0.091
-289.618	575.396	-0.103	-0.248
-288.603	144.932	0.152	-0.200
-287.589	-44.137	0.159	-0.079
-286.574	-200.000	0.030	0.375
-285.559	-29.742	0.127	0.072
-284.545	-1.799	-0.117	-0.081
-283.530	477.542	0.096	0.213
-282.516	-200.000	-0.008	0.098
-281.501	-200.000	0.011	-0.349
-280.486	-104.628	-0.105	0.024
-279.472	-113.652	-0.047	0.009
-278.457	377.690	0.134	-0.270
-277.443	-200.000	-0.019	-0.154
-276.428	-71.537	-0.180	0.066
-275.413	-200.000	-0.002	-0.037
-274.399	31.927	-0.114	0.097
-273.384	800.000	-0.044	-0.134
-272.370	-200.000	-0.037	-0.269
-271.355	-36.725	-0.131	-0.069
-270.340	-120.802	-0.258	0.043
-269.326	-65.144	0.154	-0.061
-268.311	49.102	0.073	0.067
-267.297	800.000	0.094	0.301
-266.282	-9.598	-0.223	0.147
-265.267	-200.000	-0.060	-0.260
-264.253	-200.000	-0.037	-0.171
-263.238	-40.188	0.059	0.030
-262.224	597.670	0.039	0.096
-261.209	74.211	-0.203	-0.210
-260.195	-120.055	0.442	0.075
-259.180	-6.233	-0.266	0.179
-258.165	-80.283	0.436	-0.144
-257.151	12.042	0.147	-0.112
-256.136	-106.036	-0.382	0.085
-255.122	191.444	-0.193	-0.286
-254.107	-200.000	0.021	-0.165
-253.092	800.000	0.047	-0.140
-252.078	-30.302	-0.153	0.086
-251.063	21.493	0.322	0.258
-250.049	-56.889	0.155	-0.068
-249.034	22.070	-0.232	-0.187
-248.019	-200.000	-0.019	0.098
-247.005	165.080	0.186	0.259
-245.990	-74.888	-0.260	0.092
-244.976	44.592	-0.156	-0.142
-243.961	33.946	0.185	0.159
-242.946	-87.716	0.118	0.035
-241.932	73.598	0.174	0.180
-240.917	77.540	-0.115	0.121
-239.903	800.000	-0.068	0.282
-238.888	-124.312	0.262	-0.040
-237.873	-200.000	-0.060	0.443
-236.859	190.848	0.073	-0.109
-235.844	800.000	0.103	0.297
-234.830	-137.144	0.183	-0.021
-233.815	-192.437	-0.205	0.002
-232.800	-24.030	0.201	-0.118
-231.786	800.000	-0.072	-0.224
-230.771	20.532	-0.280	0.223
-229.757	-24.995	-0.304	0.177
-228.742	-27.747	0.212	-0.121
-227.727	-18.028	-0.305	0.188
-226.713	133.930	0.150	0.191
-225.698	800.000	0.084	0.319
-224.684	-38.534	0.365	0.190
-223.669	180.501	0.070	0.101
-222.655	-146.631	0.071	-0.006
-221.640	800.000	-0.067	0.284
-220.625	-200.000	-0.001	0.063
-219.611	-123.079	-0.055	0.009
-218.596	50.447	-0.204	-0.190
-217.582	-88.883	0.290	-0.085
-216.567	800.000	-0.042	0.150
-215.552	-200.000	-0.092	0.621
-214.538	-21.875	-0.332	0.199
-213.523	-68.285	0.122	-0.047
-212.509	-22.032	0.119	-0.071
-211.494	58.163	-0.304	-0.294
-210.479	-200.000	0.028	0.258
-209.465	149.714	0.260	-0.347
-208.450	2.929	0.088	-0.063
-207.436	304.255	-0.028	-0.051
-206.421	112.077	-0.183	0.218
-205.406	-56.910	-0.383	0.166
-204.392	390.131	-0.135	-0.275
-203.377	97.303	0.196	-0.222
-202.363	50.255	0.058	-0.054
-201.348	120.944	-0.221	-0.271
-200.333	-200.000	0.044	0.222
-199.319	-39.753	-0.031	0.016
-198.304	800.000	0.097	-0.270
-197.290	142.629	0.214	-0.280
-196.275	-22.435	-0.029	0.017
-195.260	132.302	-0.222	0.282
-194.246	-96.513	-0.068	-0.018
-193.231	269.800	-0.147	-0.255
-192.217	-200.000	-0.003	0.192
-191.202	-200.000	0.004	-0.041
-190.187	-117.491	-0.276	-0.049
-189.173	-200.000	0.003	0.139
-188.158	-200.000	-0.006	-0.434
-187.144	246.301	0.037	0.061
-186.129	-131.777	0.353	-0.046
-185.114	800.000	-0.118	0.341
-184.100	88.907	-0.076	0.083
-183.085	-200.000	0.045	0.282
-182.071	-28.806	0.105	0.059
-181.056	-157.361	0.173	-0.010
-180.042	28.194	0.220	-0.183
-179.027	800.000	-0.014	-0.046
-178.012	-12.654	-0.286	-0.183
-176.998	161.274	0.065	0.089
-175.983	26.055	0.184	-0.151
-174.969	110.693	-0.199	-0.235
-173.954	-200.000	0.001	0.374
-172.939	195.410	0.037	-0.055
-171.925	-87.597	-0.219	-0.065
-170.910	800.000	0.038	-0.107
-169.896	569.138	-0.056	-0.135
-168.881	-38.035	0.085	0.044
-167.866	254.199	0.080	-0.135
-166.852	-160.596	-0.094	-0.005
-165.837	-71.804	0.060	-0.022
-164.823	-200.000	0.004	0.257
-163.808	-111.344	-0.079	0.016
-162.793	-200.000	0.033	-0.291
-161.779	800.000	-0.042	-0.134
-160.764	800.000	0.129	-0.391
-159.750	-69.883	0.121	0.046
-158.735	-71.916	-0.261	0.095
-157.720	800.000	-0.023	-0.069
-156.706	-130.781	0.213	0.028
-155.691	-200.000	0.011	0.139
-154.677	87.863	0.147	0.160
-153.662	-124.159	-0.085	0.013
-152.647	-151.729	-0.309	0.022
-151.633	66.080	-0.126	0.126
-150.618	-94.802	-0.316	0.084
-149.604	-200.000	-0.023	-0.152
-148.589	539.227	0.035	-0.082
-147.574	-98.707	0.267	0.067
-146.560	-119.706	-0.136	0.023
-145.545	8.576	-0.060	0.044
-144.531	490.380	-0.068	0.154
-143.516	45.050	-0.062	-0.056
-142.502	-174.948	0.120	-0.003
-141.487	91.097	0.141	0.156
-140.472	800.000	-0.164	0.484
-139.458	278.136	-0.143	0.250
-138.443	-25.358	-0.110	0.064
-137.429	-104.766	0.164	0.037
-136.414	800.000	-0.021	-0.076
-135.399	-116.010	0.278	-0.051
-134.385	189.471	-0.094	0.138
-133.370	-18.442	-0.318	0.195
-132.356	27.197	-0.124	-0.102
-131.341	-166.814	-0.344	-0.014
-130.326	685.466	0.038	-0.097
-129.312	88.817	-0.112	0.122
-128.297	18.291	-0.315	0.247
-127.283	-46.587	-0.204	-0.098
-126.268	31.612	-0.110	-0.092
-125.253	800.000	-0.077	-0.256
-124.239	121.878	0.130	0.160
-123.224	351.651	-0.090	-0.175
-122.210	-23.411	0.174	0.103
-121.195	-29.302	-0.438	0.246
-120.180	460.070	0.099	-0.216
-119.166	13.342	0.251	-0.191
-118.151	8.820	0.117	0.086
-117.137	-101.323	0.082	-0.020
-116.122	299.947	0.137	-0.247
-115.107	-54.419	-0.192	0.086
-114.093	105.482	-0.212	0.246
-113.078	66.795	-0.067	0.066
-112.064	800.000	-0.022	0.069
-111.049	-114.351	0.384	-0.073
-110.034	-91.394	-0.199	0.056
-109.020	97.957	0.262	0.296
-108.005	-127.916	-0.234	0.033
-106.991	-147.745	0.164	0.014
-105.976	535.313	-0.130	0.302
-104.962	-106.173	0.164	0.036
-103.947	42.502	0.402	0.358
-102.932	-65.914	0.070	0.027
-101.918	23.437	-0.225	0.182
-100.903	800.000	-0.062	-0.245
-99.889	800.000	0.056	-0.212
-98.874	30.724	-0.084	0.070
-97.859	-61.581	0.166	-0.068
-96.845	-141.161	0.421	0.042
-95.830	-116.829	-0.395	0.071
-94.816	-51.295	-0.384	-0.176
-93.801	-76.013	-0.226	-0.078
-92.786	-200.000	0.060	0.263
-91.772	722.064	-0.086	0.224
-90.757	-141.412	-0.412	-0.041
-89.743	-107.086	0.166	0.036
-88.728	-37.124	0.118	0.062
-87.713	51.005	0.404	0.375
-86.699	-107.037	0.342	0.074
-85.684	-65.946	-0.109	0.043
-84.670	-37.788	-0.098	0.051
-83.655	-106.229	-0.141	0.031
-82.640	-112.503	-0.163	0.032
-81.626	78.087	0.198	0.207
-80.611	800.000	-0.140	0.402
-79.597	9.366	0.313	-0.232
-78.582	-84.491	-0.227	0.070
-77.567	800.000	0.036	0.136
-76.553	128.923	-0.166	0.207
-75.538	-55.093	0.159	-0.070
-74.524	449.235	-0.099	0.214
-73.509	800.000	0.063	0.218
-72.494	52.658	0.104	0.097
-71.480	-200.000	-0.006	0.216
-70.465	65.957	-0.104	-0.103
-69.451	98.783	0.196	-0.221
-68.436	-28.071	0.180	0.102
-67.422	99.111	0.142	0.160
-66.407	-91.922	-0.192	0.053
-65.392	-157.298	0.116	-0.007
-64.378	-200.000	-0.056	-0.350
-63.363	-200.000	-0.015	-0.340
-62.349	-48.501	0.218	-0.103
-61.334	24.011	-1.163	-0.939
-60.319	40.396	0.424	0.374
-59.305	205.233	-0.711	-1.080
-58.290	141.821	1.216	1.577
-57.276	800.000	0.562	1.646
-56.261	-200.000	114.097	650.989
-55.246	538.209	1522.251	3540.934
-54.232	179.274	2684.851	3844.234
-53.217	108.537	2169.008	2534.291
-52.203	38.067	1697.837	1477.838
-51.188	30.739	1516.989	1270.570
-50.173	28.483	1492.259	1234.631
-49.159	52.137	1551.570	1446.779
-48.144	50.901	1566.799	1452.443
-47.130	30.846	1522.505	1275.720
-46.115	27.725	1507.650	1242.010
-45.100	27.619	1504.063	1238.287
-44.086	27.595	1502.291	1236.617
-43.071	27.456	1500.753	1234.360
-42.057	27.628	1498.713	1233.793
-41.042	27.550	1497.341	1232.092
-40.027	27.695	1495.391	1231.418
-39.013	27.556	1494.594	1229.774
-37.998	27.515	1493.257	1228.347
-36.984	27.502	1492.032	1227.203
-35.969	27.581	1490.411	1226.352
-34.954	27.505	1489.353	1224.926
-33.940	27.508	1488.270	1224.001
-32.925	27.623	1486.588	1223.346
-31.911	27.588	1484.869	1221.645
-30.896	27.559	1484.289	1220.922
-29.881	27.625	1482.792	1220.087
-28.867	27.642	1481.596	1219.170
-27.852	27.510	1480.811	1217.592
-26.838	27.605	1478.886	1216.594
-25.823	27.602	1477.234	1215.167
-24.809	27.597	1475.872	1213.967
-23.794	27.566	1474.795	1212.826
-22.779	27.663	1473.079	1212.011
-21.765	27.646	1472.487	1211.364
-20.750	27.598	1471.305	1210.027
-19.736	27.600	1470.004	1208.917
-18.721	27.540	1469.438	1208.008
-17.706	27.602	1467.726	1206.961
-16.692	27.565	1467.189	1206.231
-15.677	27.597	1466.029	1205.438
-14.663	27.532	1465.084	1204.188
-13.648	27.610	1464.092	1203.834
-12.633	27.609	1463.216	1203.061
-11.619	27.563	1462.747	1202.328
-10.604	27.511	1462.066	1201.375
-9.590	27.580	1460.637	1200.606
-8.575	27.537	1459.877	1199.651
-7.560	27.520	1459.285	1199.003
-6.546	27.519	1458.049	1197.938
-5.531	27.472	1457.851	1197.417
-4.517	27.498	1456.394	1196.340
-3.502	27.568	1454.979	1195.592
-2.487	27.583	1454.252	1195.048
-1.473	27.483	1453.323	1193.578
-0.458	27.509	1452.069	1192.670
0.556	29.038	1442.335	1181.602
1.571	26.042	1417.262	1142.029
2.586	22.456	1360.258	1074.165
3.600	20.825	1279.252	1000.744
4.615	19.675	1232.850	957.986
5.629	17.234	1176.399	901.115
6.644	10.010	1094.210	802.333
7.659	4.852	1056.134	749.571
8.673	4.119	1051.188	742.481
9.688	3.806	1047.720	738.471
10.702	3.796	1046.057	737.184
11.717	3.760	1044.166	735.618
12.731	6.217	1046.090	748.614
13.746	13.594	1056.785	791.559
14.761	20.500	1065.589	831.232
15.775	22.591	1067.738	842.847
16.790	22.360	1066.273	840.511
17.804	21.323	1064.367	833.988
18.819	20.691	1062.354	829.325
19.834	20.374	1061.294	826.914
20.848	20.232	1060.889	825.849
21.863	20.355	1060.293	825.900
22.877	20.155	1059.523	824.277
23.892	20.012	1058.793	822.955
24.907	19.932	1058.060	821.930
25.921	19.815	1057.222	820.651
26.936	19.816	1056.383	819.932
27.950	19.772	1055.369	818.864
28.965	19.754	1054.129	817.744
29.980	19.864	1052.793	817.156
30.994	20.005	1051.989	817.125
32.009	20.183	1051.412	817.444
33.023	20.256	1050.606	817.092
34.038	20.097	1050.055	815.841
35.053	20.210	1048.446	815.050
36.067	20.094	1047.669	813.830
37.082	19.864	1046.812	812.010
38.096	19.839	1046.531	811.604
39.111	19.890	1045.924	811.301
40.126	20.115	1044.978	811.548
41.140	19.976	1043.398	809.601
42.155	19.600	1042.452	807.040
43.169	19.538	1040.606	805.248
44.184	19.306	1039.761	803.441
45.199	19.277	1039.317	802.895
46.213	19.370	1037.713	802.017
47.228	19.500	1037.246	802.187
48.242	19.901	1036.640	803.510
49.257	20.138	1035.533	803.679
50.271	19.834	1035.381	802.083
51.286	20.015	1034.337	802.041
52.301	20.169	1033.820	802.281
53.315	19.986	1033.048	800.763
54.330	19.859	1031.967	799.270
55.344	19.610	1031.133	797.402
56.359	19.677	1029.812	796.621
57.374	19.682	1028.886	795.858
58.388	19.526	1028.598	794.844
59.403	19.388	1027.593	793.361
60.417	19.285	1027.103	792.443
61.432	19.341	1025.948	791.738
62.447	19.367	1025.442	791.394
63.461	19.210	1024.617	789.971
64.476	19.163	1023.419	788.762
65.490	19.191	1022.834	788.370
66.505	19.169	1021.664	787.296
67.520	19.197	1020.850	786.727
68.534	19.203	1020.175	786.165
69.549	19.192	1019.670	785.654
70.563	19.164	1018.779	784.774
71.578	19.043	1018.119	783.642
72.593	18.942	1017.052	782.292
73.607	18.851	1015.513	780.625
74.622	18.713	1015.060	779.585
75.636	18.840	1014.019	779.289
76.651	18.853	1013.318	778.741
77.666	19.017	1012.257	778.599
78.680	19.034	1011.783	778.244
79.695	18.983	1011.541	777.759
80.709	19.129	1010.786	777.766
81.724	19.234	1010.042	777.598
82.739	19.327	1009.402	777.460
83.753	19.402	1009.123	777.514
84.768	19.743	1008.721	778.670
85.782	19.992	1008.499	779.550
86.797	20.461	1007.599	780.897
87.812	20.343	1007.104	779.912
88.826	20.060	1005.968	777.694
89.841	19.997	1005.420	776.918
90.855	20.125	1004.268	776.534
91.870	20.272	1003.640	776.637
92.884	20.469	1002.843	776.834
93.899	20.367	1002.292	775.879
94.914	20.396	1001.125	775.036
95.928	20.230	1000.442	773.701
96.943	20.474	999.435	773.940
97.957	20.172	998.792	772.028
98.972	20.103	997.806	770.894
99.987	20.116	996.911	770.189
101.001	20.218	996.690	770.405
102.016	20.199	995.515	769.342
103.030	20.045	994.598	767.884
104.045	20.014	994.052	767.257
105.060	20.112	993.185	766.952
106.074	19.988	991.912	765.357
107.089	19.788	990.598	763.389
108.103	19.493	989.657	761.297
109.118	19.241	988.963	759.587
110.133	19.265	987.535	758.526
111.147	19.068	986.702	756.952
112.162	19.168	985.256	756.216
113.176	19.194	984.685	755.824
114.191	19.356	983.856	755.830
115.206	19.319	983.789	755.553
116.220	19.371	982.615	754.810
117.235	19.231	981.632	753.378
118.249	19.226	981.192	752.950
119.264	19.220	980.137	752.048
120.279	19.050	979.376	750.656
121.293	18.972	978.378	749.487
122.308	19.212	977.086	749.472
123.322	18.899	976.856	747.871
124.337	18.765	975.369	746.081
125.352	18.743	974.065	744.923
126.366	18.775	973.244	744.369
127.381	18.801	972.312	743.704
128.395	18.854	971.395	743.163
129.410	18.808	970.991	742.590
130.424	18.903	969.931	742.126
131.439	19.020	969.176	741.988
132.454	19.140	968.421	741.858
133.468	19.225	967.374	741.359
134.483	19.343	966.983	741.501
135.497	19.452	966.058	741.195
136.512	19.275	965.441	739.893
137.527	19.391	964.780	739.822
138.541	19.279	964.252	738.871
139.556	19.397	963.654	738.853
140.570	19.444	962.654	738.220
141.585	19.644	962.077	738.567
142.600	19.868	961.589	739.084
143.614	19.907	961.072	738.790
144.629	19.996	960.291	738.502
145.643	20.095	960.121	738.727
146.658	20.108	958.654	737.590
147.673	19.935	957.572	735.955
148.687	19.679	956.385	733.891
149.702	19.477	955.132	732.008
150.716	19.452	954.461	731.324
151.731	19.316	953.533	729.973
152.746	19.465	952.817	729.989
153.760	19.603	951.805	729.730
154.775	19.649	950.998	729.245
155.789	19.633	950.607	728.812
156.804	19.762	950.494	729.206
157.819	19.757	949.263	728.174
158.833	19.812	948.515	727.769
159.848	19.976	947.957	727.966
160.862	20.077	947.632	728.074
161.877	20.126	946.570	727.399
162.892	19.875	945.184	725.219
163.906	19.356	944.321	722.320
164.921	19.378	942.949	721.298
165.935	19.342	942.063	720.406
166.950	19.470	941.363	720.341
167.964	19.587	940.532	720.129
168.979	19.629	939.614	719.540
169.994	19.477	938.677	718.126
171.008	19.468	937.759	717.322
172.023	19.521	936.837	716.774
173.037	19.716	936.626	717.357
174.052	20.040	936.386	718.454
175.067	19.965	935.021	717.034
176.081	19.459	934.253	714.284
177.096	19.349	932.632	712.530
178.110	19.255	932.002	711.594
179.125	19.340	931.440	711.456
180.140	19.460	930.590	711.236
181.154	19.538	930.012	711.056
182.169	19.781	929.952	711.947
183.183	19.912	929.352	711.962
184.198	19.957	929.102	711.891
185.213	20.031	927.973	711.270
186.227	19.876	927.824	710.455
187.242	20.038	927.468	710.783
188.256	19.976	926.608	709.808
189.271	20.212	925.713	710.025
190.286	20.287	924.968	709.700
191.300	20.105	923.775	707.975
192.315	19.444	922.633	704.340
193.329	19.172	921.641	702.411
194.344	19.223	920.784	701.907
195.359	19.397	920.505	702.339
196.373	19.679	919.904	702.967
197.388	19.667	919.934	702.878
198.402	19.934	919.577	703.628
199.417	20.148	919.793	704.602
200.432	20.374	919.163	704.974
201.446	20.495	918.898	705.199
202.461	20.566	918.473	705.099
203.475	20.511	918.689	704.979
204.490	20.625	917.150	704.199
205.504	20.315	916.128	702.095
206.519	20.164	914.565	700.228
207.534	20.060	914.274	699.521
208.548	20.023	913.506	698.724
209.563	19.987	912.906	698.059
210.577	20.097	912.623	698.221
211.592	20.119	911.897	697.694
212.607	20.290	911.542	698.049
213.621	20.576	910.833	698.591
214.636	20.461	910.322	697.678
215.650	20.172	909.730	696.003
216.665	20.428	908.630	696.125
217.680	20.341	908.754	695.810
218.694	20.594	908.213	696.347
219.709	20.662	907.869	696.294
220.723	20.419	906.940	694.548
221.738	20.414	906.275	693.958
222.753	20.245	905.829	692.879
223.767	20.322	904.715	692.271
224.782	20.497	904.042	692.394
225.796	20.552	903.651	692.254
226.811	20.698	903.096	692.349
227.826	20.493	902.341	690.892
228.840	20.526	901.059	689.980
229.855	20.294	900.750	688.763
230.869	20.285	899.942	688.048
231.884	20.198	899.519	687.319
232.899	20.054	899.109	686.376
233.913	19.903	898.297	685.097
234.928	19.932	897.309	684.396
235.942	19.806	896.790	683.440
236.957	19.671	895.985	682.237
237.972	19.876	894.994	682.229
238.986	19.871	894.416	681.708
240.001	19.970	893.726	681.513
241.015	19.895	893.279	680.815
242.030	19.999	892.303	680.420
243.045	20.123	892.056	680.657
244.059	20.166	892.024	680.742
245.074	20.179	891.137	680.057
246.088	20.196	890.654	679.695
247.103	20.358	890.034	679.795
248.117	20.578	889.641	680.295
249.132	20.649	889.627	680.504
250.147	21.029	889.181	681.588
251.161	21.417	888.593	682.591
252.176	21.540	888.011	682.565
253.190	21.468	887.445	681.787
254.205	21.613	887.102	682.028
255.220	21.678	886.519	681.774
256.234	21.576	885.714	680.697
257.249	21.291	885.350	679.247
258.263	21.354	884.826	679.031
259.278	21.314	884.105	678.261
260.293	21.456	883.151	678.020
261.307	21.512	882.558	677.722
262.322	21.405	882.794	677.429
263.336	21.477	881.772	676.864
264.351	21.550	881.278	676.707
265.366	21.660	880.601	676.553
266.380	21.624	880.053	675.931
267.395	21.598	879.232	675.140
268.409	21.504	878.433	674.107
269.424	21.311	877.826	672.837
270.439	21.314	877.082	672.219
271.453	21.319	875.952	671.313
272.468	21.211	875.137	670.214
273.482	21.074	874.529	669.164
274.497	21.088	873.867	668.653
275.512	21.098	873.397	668.272
276.526	21.044	872.299	667.167
277.541	21.050	872.034	666.928
278.555	21.138	871.639	666.902
279.570	21.344	871.312	667.380
280.585	21.669	870.771	668.146
281.599	21.732	870.324	667.985
282.614	21.345	869.626	665.915
283.628	21.333	868.571	665.003
284.643	21.290	867.616	664.050
285.657	21.142	867.341	663.218
286.672	21.174	866.920	662.958
287.687	21.141	866.673	662.586
288.701	21.292	866.143	662.696
289.716	21.315	865.476	662.214
290.730	21.275	865.134	661.742
291.745	21.251	864.445	661.066
292.760	21.340	863.558	660.664
293.774	21.470	862.966	660.645
294.789	21.656	862.939	661.266
295.803	21.825	861.986	661.118
296.818	21.465	861.226	659.117
297.833	21.274	860.676	657.922
298.847	21.308	859.654	657.208
299.862	21.237	859.441	656.721
300.876	21.359	858.595	656.475
301.891	21.647	857.941	656.995
302.906	21.709	857.817	657.075
303.920	21.728	857.270	656.671
304.935	21.939	856.698	656.963
305.949	22.204	856.157	657.482
306.964	22.185	855.516	656.859
307.979	21.726	854.693	654.457
308.993	21.667	853.984	653.634
310.008	21.919	853.451	654.109
311.022	21.783	853.577	653.640
312.037	21.837	852.665	653.085
313.052	21.689	852.302	652.200
314.066	21.304	851.151	649.829
315.081	21.217	850.480	648.938
316.095	21.261	849.946	648.636
317.110	21.316	849.190	648.206
318.125	21.279	848.716	647.650
319.139	21.120	848.305	646.688
320.154	21.085	847.752	646.079
321.168	21.155	847.233	645.884
322.183	21.330	846.402	645.844
323.197	21.315	846.227	645.598
324.212	21.426	845.890	645.691
325.227	21.482	844.865	645.059
326.241	21.335	844.320	644.043
327.256	21.274	843.878	643.423
328.270	21.198	843.727	642.973
329.285	21.223	842.930	642.399
330.300	21.190	842.236	641.695
331.314	21.164	841.721	641.148
332.329	21.302	840.829	640.919
333.343	21.565	840.494	641.572
334.358	21.758	840.055	641.887
335.373	21.696	839.810	641.414
336.387	21.649	839.422	640.892
337.402	21.842	838.776	641.045
338.416	21.904	838.088	640.690
339.431	22.012	838.122	641.053
340.446	22.118	837.420	640.846
341.460	22.291	837.112	641.187
342.475	22.459	836.386	641.183
343.489	22.342	836.126	640.501
344.504	22.508	835.370	640.469
345.519	22.704	834.729	640.633
346.533	22.662	834.618	640.340
347.548	22.764	833.744	639.981
348.562	22.469	832.796	638.128
349.577	22.074	832.010	636.040
350.592	21.881	831.405	634.821
351.606	21.808	831.000	634.193
352.621	21.714	830.456	633.381
353.635	21.763	830.371	633.439
354.650	21.779	830.176	633.293
355.665	21.852	829.465	632.956
356.679	21.880	829.259	632.846
357.694	21.967	828.722	632.693
358.708	22.123	827.897	632.567
359.723	22.087	827.281	631.912
360.738	22.109	826.727	631.512
361.752	21.990	826.514	630.864
362.767	22.032	825.956	630.534
363.781	22.314	825.604	631.221
364.796	22.487	825.860	631.982
365.810	22.576	825.273	631.798
366.825	22.777	824.823	632.117
367.840	22.861	824.821	632.359
368.854	22.707	824.346	631.388
369.869	22.735	823.086	630.466
370.883	22.648	822.275	629.480
371.898	22.490	821.921	628.591
372.913	22.492	821.834	628.474
373.927	22.866	820.768	628.936
374.942	22.722	820.289	628.000
375.956	22.548	819.560	626.767
376.971	22.705	819.275	627.053
377.986	22.820	818.907	627.124
379.000	22.954	818.284	627.068
380.015	22.998	818.024	626.970
381.029	22.995	817.154	626.235
382.044	22.844	816.567	625.197
383.059	22.823	816.353	624.900
384.073	22.933	815.761	624.783
385.088	23.031	814.950	624.454
386.102	22.508	814.445	622.163
387.117	22.477	813.571	621.333
388.132	22.329	812.789	620.158
389.146	22.368	812.292	619.861
390.161	22.412	812.139	619.844
391.175	22.689	811.747	620.464
392.190	22.780	811.663	620.665
393.205	22.769	811.141	620.174
394.219	22.446	810.420	618.431
395.234	22.404	809.885	617.823
396.248	22.430	809.092	617.253
397.263	22.136	808.711	615.879
398.278	22.138	807.927	615.232
399.292	21.999	807.789	614.589
400.307	22.040	807.496	614.452
401.321	22.071	806.808	613.984
402.336	22.246	806.210	614.088
403.350	22.277	805.999	613.980
404.365	22.577	805.651	614.706
405.380	22.710	805.370	614.903
406.394	22.960	805.098	615.509
407.409	23.010	805.028	615.576
408.423	23.235	804.495	615.899
409.438	23.187	804.182	615.436
410.453	23.220	803.876	615.264
411.467	23.406	803.036	615.211
412.482	23.427	802.753	615.012
413.496	23.183	802.743	614.102
414.511	23.584	802.101	614.947
415.526	23.497	801.774	614.342
416.540	23.286	801.295	613.188
417.555	23.244	800.693	612.530
418.569	23.324	800.214	612.384
419.584	23.181	799.859	611.566
420.599	23.118	799.541	611.049
421.613	164.097	1371.253	1798.235
422.628	142.552	1454.528	1798.324
