DTS Sentinel unit serial number:	SN413079Multiplexer serial number:	ORYXHardware model number:	OX4-SRSoftware version number:	ORYX F/W v4.00 Oryx Data Collector v3.7.2.0data status	okinstallation	princeton_trtdifferential loss correction	single-endedforward channel	channel 3reverse channel	N/Adate	2019/09/18time	07:52:35forward acquisition time	60.00reverse acquisition time	0.00gamma	496.2192k internal	0.2343k external	0.2343temperature offset calibration	0.9947default loss term (dB/km)	0.3790temperature slope calibration	1.0000multiplexer offset coefficient	1.0000multiplexer slope coefficient	1.0000fibre end	0.00T internal ref (°C)	23.44T ext. ref 1 (°C)	0.19T ext. ref 2 (°C)	19.25length (m)	temperature (°C)	Stokes	anti-Stokes-747.200	27.114	0.168	-0.141
-746.185	-200.000	0.012	0.086
-745.171	-12.670	-0.241	0.158
-744.156	290.739	0.102	0.186
-743.142	-17.639	-0.198	0.124
-742.127	-200.000	-0.062	0.300
-741.112	722.836	0.083	-0.222
-740.098	441.879	0.180	0.394
-739.083	800.000	-0.092	-0.267
-738.069	37.172	0.174	0.155
-737.054	-68.882	0.423	0.163
-736.039	236.433	-0.108	0.179
-735.025	-50.156	0.350	0.166
-734.010	141.120	-0.117	-0.155
-732.996	-134.877	-0.469	-0.057
-731.981	50.058	0.065	0.062
-730.966	-129.274	0.154	-0.022
-729.952	-118.766	-0.132	0.023
-728.937	-101.475	0.350	0.085
-727.923	76.025	0.150	0.159
-726.908	-200.000	-0.001	-0.172
-725.894	69.489	-0.265	-0.273
-724.879	-133.816	-0.066	0.008
-723.864	-32.843	-0.258	0.143
-722.850	-47.098	-0.130	-0.063
-721.835	-111.178	-0.292	0.060
-720.821	626.022	-0.052	0.132
-719.806	338.627	-0.128	-0.249
-718.791	-48.473	0.202	0.097
-717.777	-6.405	-0.032	-0.022
-716.762	800.000	0.038	-0.119
-715.748	-40.287	-0.222	0.115
-714.733	-49.870	0.163	-0.078
-713.718	-30.770	0.211	-0.119
-712.704	-58.043	-0.248	-0.108
-711.689	167.026	-0.129	0.183
-710.675	-51.408	-0.164	-0.077
-709.660	261.706	-0.168	0.291
-708.645	80.615	-0.146	0.157
-707.631	800.000	-0.030	-0.121
-706.616	-200.000	-0.031	-0.185
-705.602	-10.709	-0.158	-0.104
-704.587	-117.939	-0.277	0.050
-703.572	93.020	0.042	0.047
-702.558	-98.171	0.242	0.062
-701.543	-103.761	-0.528	0.123
-700.529	-79.487	0.215	-0.073
-699.514	-22.403	-0.311	-0.189
-698.499	-200.000	0.005	-0.170
-697.485	-200.000	-0.014	-0.073
-696.470	193.000	-0.020	-0.030
-695.456	-72.655	-0.127	-0.047
-694.441	-44.470	-0.251	0.125
-693.426	481.627	-0.036	-0.083
-692.412	-28.736	0.177	-0.102
-691.397	159.012	-0.225	-0.313
-690.383	800.000	0.037	-0.152
-689.368	555.469	0.065	0.156
-688.354	36.453	-0.065	0.057
-687.339	19.672	0.270	0.217
-686.324	42.068	0.241	-0.219
-685.310	-116.724	-0.240	0.044
-684.295	202.049	0.066	0.101
-683.281	-91.004	-0.156	0.045
-682.266	-155.367	0.124	-0.008
-681.251	-17.752	0.162	-0.102
-680.237	800.000	0.027	0.083
-679.222	-112.144	-0.138	0.028
-678.208	16.308	-0.186	-0.147
-677.193	482.172	-0.120	0.272
-676.178	41.055	0.161	0.145
-675.164	637.906	0.128	-0.326
-674.149	161.345	-0.091	-0.127
-673.135	160.080	-0.096	0.134
-672.120	-200.000	-0.004	-0.089
-671.105	96.050	0.176	0.201
-670.091	88.187	0.156	-0.173
-669.076	459.740	-0.074	0.165
-668.062	345.370	0.064	0.125
-667.047	-200.000	0.029	0.188
-666.032	191.194	-0.138	0.207
-665.018	-34.336	0.156	-0.085
-664.003	-200.000	0.039	0.259
-662.989	-93.197	-0.351	0.098
-661.974	164.101	0.204	-0.287
-660.959	-200.000	0.061	-0.361
-659.945	-200.000	-0.018	0.116
-658.930	800.000	0.022	0.082
-657.916	-68.867	-0.504	-0.194
-656.901	242.080	0.055	-0.092
-655.886	-117.637	0.192	0.035
-654.872	7.762	-0.238	0.178
-653.857	-18.699	-0.128	0.079
-652.843	-167.395	0.168	0.007
-651.828	-188.709	0.218	-0.003
-650.814	-200.000	-0.073	0.343
-649.799	33.997	0.040	0.035
-648.784	-86.490	-0.101	0.031
-647.770	-89.831	0.309	-0.090
-646.755	29.689	-0.285	0.242
-645.741	-40.532	0.186	-0.096
-644.726	16.814	-0.306	0.241
-643.711	556.692	-0.043	0.103
-642.697	-107.403	0.063	-0.014
-641.682	715.496	-0.061	-0.162
-640.668	800.000	0.035	-0.098
-639.653	1.651	-0.279	-0.201
-638.638	-74.707	0.270	0.097
-637.624	-122.820	0.321	0.052
-636.609	-200.000	-0.070	-0.333
-635.595	5.456	-0.163	0.120
-634.580	-200.000	0.011	-0.266
-633.565	-189.894	-0.316	-0.004
-632.551	-16.946	0.075	0.048
-631.536	-140.343	0.192	0.020
-630.522	34.692	-0.188	-0.164
-629.507	306.615	0.076	0.141
-628.492	-163.549	0.155	-0.007
-627.478	-84.735	-0.473	-0.148
-626.463	800.000	0.137	0.546
-625.449	113.088	0.077	-0.093
-624.434	522.726	-0.122	-0.285
-623.419	656.514	-0.076	-0.194
-622.405	-96.805	0.258	-0.068
-621.390	-53.488	-0.429	-0.196
-620.376	115.540	0.193	-0.236
-619.361	-46.054	-0.232	0.114
-618.346	12.070	0.103	-0.079
-617.332	-200.000	-0.016	-0.265
-616.317	128.517	0.051	0.065
-615.303	12.717	-0.260	-0.200
-614.288	-181.173	0.154	0.003
-613.273	473.376	-0.067	-0.151
-612.259	-98.108	-0.057	-0.015
-611.244	800.000	0.056	-0.189
-610.230	-200.000	0.005	0.205
-609.215	-47.244	0.360	-0.175
-608.201	800.000	0.086	0.264
-607.186	191.710	0.097	0.145
-606.171	71.124	0.098	0.101
-605.157	-54.124	0.197	0.089
-604.142	537.400	-0.093	-0.221
-603.128	-74.602	-0.199	-0.071
-602.113	566.019	-0.085	-0.205
-601.098	-200.000	-0.059	0.286
-600.084	-157.427	-0.214	-0.013
-599.069	48.216	-0.192	0.179
-598.055	-34.798	0.248	0.135
-597.040	800.000	0.056	0.238
-596.025	55.248	-0.054	-0.052
-595.011	-179.482	-0.143	-0.003
-593.996	513.544	-0.119	-0.277
-592.982	-109.122	0.294	0.062
-591.967	-77.904	-0.265	0.091
-590.952	-122.058	-0.235	0.038
-589.938	252.909	-0.125	-0.213
-588.923	89.592	0.136	0.152
-587.909	157.358	-0.212	-0.293
-586.894	-9.776	0.272	0.180
-585.879	-200.000	0.005	0.413
-584.865	-200.000	0.048	-0.542
-583.850	145.664	-0.059	0.079
-582.836	-73.135	-0.396	-0.144
-581.821	158.672	0.046	-0.063
-580.806	209.465	0.159	0.248
-579.792	565.542	0.024	-0.059
-578.777	-67.706	-0.148	-0.058
-577.763	-22.162	-0.121	-0.073
-576.748	-41.831	0.078	0.040
-575.733	559.765	-0.189	0.454
-574.719	-0.685	-0.207	-0.146
-573.704	117.057	0.183	-0.223
-572.690	-90.306	0.270	-0.078
-571.675	10.848	0.068	0.052
-570.661	-28.066	-0.431	-0.248
-569.646	-133.949	-0.021	0.003
-568.631	-50.680	-0.028	-0.013
-567.617	-25.207	0.081	0.048
-566.602	108.059	0.212	-0.251
-565.588	-116.490	0.105	0.019
-564.573	-127.639	0.132	0.019
-563.558	-139.008	-0.052	0.006
-562.544	-112.196	-0.233	-0.047
-561.529	-44.005	0.199	0.099
-560.515	-154.638	0.314	-0.021
-559.500	-131.457	0.312	-0.041
-558.485	800.000	-0.048	0.161
-557.471	355.108	0.159	0.314
-556.456	-134.216	0.119	-0.015
-555.442	50.092	-0.119	-0.112
-554.427	-200.000	-0.028	-0.142
-553.412	-123.171	0.320	0.051
-552.398	-87.342	-0.082	0.025
-551.383	41.804	-0.047	0.043
-550.369	92.062	0.170	0.190
-549.354	69.244	0.070	-0.072
-548.339	308.961	0.117	-0.218
-547.325	-65.567	0.204	0.081
-546.310	52.958	0.151	-0.144
-545.296	124.656	0.070	-0.088
-544.281	-130.307	-0.053	0.007
-543.266	75.236	-0.141	-0.147
-542.252	-93.652	-0.263	0.072
-541.237	-200.000	-0.055	0.250
-540.223	-74.991	-0.218	0.078
-539.208	800.000	-0.042	0.172
-538.193	-200.000	-0.002	0.303
-537.179	134.243	-0.055	0.071
-536.164	132.607	0.059	-0.075
-535.150	56.090	-0.268	0.258
-534.135	800.000	0.090	0.341
-533.121	-200.000	0.037	0.350
-532.106	-48.729	0.043	-0.020
-531.091	423.491	0.075	-0.159
-530.077	-41.287	-0.282	0.144
-529.062	-200.000	-0.046	0.321
-528.048	21.594	-0.184	0.149
-527.033	-122.886	0.146	0.023
-526.018	-2.176	-0.243	-0.170
-525.004	800.000	0.039	0.163
-523.989	267.923	0.145	-0.252
-522.975	73.106	0.089	0.092
-521.960	-11.934	-0.183	-0.119
-520.945	60.797	0.127	-0.125
-519.931	-56.185	-0.117	-0.052
-518.916	358.589	0.064	-0.127
-517.902	319.411	-0.081	0.153
-516.887	-125.787	-0.215	-0.032
-515.872	196.967	0.018	0.027
-514.858	800.000	-0.122	0.351
-513.843	-200.000	-0.042	0.493
-512.829	-47.598	0.016	-0.008
-511.814	146.276	-0.036	-0.048
-510.799	800.000	0.009	-0.026
-509.785	306.491	-0.188	-0.347
-508.770	26.010	0.104	0.086
-507.756	168.129	0.134	0.189
-506.741	738.720	-0.128	0.341
-505.726	77.525	-0.260	0.275
-504.712	-107.076	-0.289	0.063
-503.697	42.368	-0.226	-0.204
-502.683	-200.000	0.032	-0.233
-501.668	-128.957	-0.148	0.021
-500.653	-94.161	0.333	0.091
-499.639	402.756	-0.117	-0.243
-498.624	517.319	0.091	0.212
-497.610	-5.291	0.197	0.134
-496.595	-133.321	-0.502	-0.063
-495.581	-200.000	0.008	-0.094
-494.566	-200.000	-0.067	0.346
-493.551	-13.460	-0.203	-0.131
-492.537	644.800	0.016	-0.039
-491.522	-45.779	0.106	-0.052
-490.508	-73.700	0.246	0.089
-489.493	-64.020	-0.335	-0.136
-488.478	-127.915	0.366	-0.052
-487.464	96.495	0.139	-0.158
-486.449	60.846	-0.191	-0.188
-485.435	171.581	0.229	0.326
-484.420	103.154	-0.124	-0.144
-483.405	-141.588	0.421	-0.042
-482.391	-138.770	-0.302	-0.033
-481.376	-29.409	0.279	-0.158
-480.362	-200.000	0.002	-0.131
-479.347	-200.000	0.032	-0.159
-478.332	-33.307	0.391	0.215
-477.318	-200.000	0.010	0.093
-476.303	-2.899	0.130	-0.090
-475.289	212.050	0.026	0.040
-474.274	-142.857	0.250	-0.024
-473.259	40.823	-0.220	-0.197
-472.245	-200.000	0.110	-0.514
-471.230	175.043	-0.269	-0.386
-470.216	26.352	-0.020	0.017
-469.201	-200.000	-0.031	-0.139
-468.186	-200.000	0.033	0.144
-467.172	14.371	0.137	0.106
-466.157	-66.335	-0.203	-0.080
-465.143	-72.101	0.152	0.056
-464.128	-97.124	0.252	-0.065
-463.113	-31.179	-0.344	0.192
-462.099	-102.930	-0.133	-0.031
-461.084	-130.028	-0.299	-0.040
-460.070	-200.000	0.080	0.413
-459.055	49.303	0.113	-0.105
-458.040	-200.000	-0.034	0.158
-457.026	800.000	-0.035	0.150
-456.011	-74.798	-0.292	-0.104
-454.997	-132.216	0.268	0.034
-453.982	-38.910	-0.127	0.066
-452.968	341.728	0.179	0.346
-451.953	126.979	-0.251	-0.315
-450.938	-18.996	0.138	-0.085
-449.924	75.190	0.199	0.207
-448.909	-200.000	0.013	0.113
-447.895	-76.546	-0.060	-0.021
-446.880	412.844	0.012	0.025
-445.865	141.562	-0.139	-0.182
-444.851	-66.910	0.162	-0.063
-443.836	-112.008	-0.183	0.036
-442.822	-200.000	-0.024	0.173
-441.807	66.529	-0.342	-0.344
-440.792	-200.000	0.004	0.099
-439.778	45.648	0.044	-0.040
-438.763	532.317	-0.100	-0.233
-437.749	86.180	0.128	0.140
-436.734	277.463	0.137	-0.241
-435.719	321.088	0.049	0.092
-434.705	-200.000	0.007	-0.242
-433.690	800.000	-0.059	0.207
-432.676	-163.133	0.100	-0.005
-431.661	253.669	0.139	-0.236
-430.646	-200.000	-0.062	-0.277
-429.632	-136.742	0.072	0.008
-428.617	448.023	-0.027	0.059
-427.603	-70.035	-0.218	0.082
-426.588	800.000	-0.052	-0.203
-425.573	224.812	-0.282	0.451
-424.559	-78.246	-0.179	-0.061
-423.544	-27.837	-0.163	-0.093
-422.530	800.000	-0.068	-0.248
-421.515	-137.663	0.275	0.031
-420.500	50.773	-0.174	-0.163
-419.486	545.333	-0.090	-0.212
-418.471	-60.504	0.189	-0.079
-417.457	800.000	-0.043	-0.149
-416.442	800.000	-0.140	0.409
-415.428	-82.016	0.040	0.013
-414.413	-148.358	-0.193	-0.016
-413.398	-115.201	-0.050	-0.009
-412.384	-200.000	0.002	-0.176
-411.369	-90.181	0.286	-0.082
-410.355	-87.808	0.085	-0.025
-409.340	-152.868	0.264	-0.018
-408.325	800.000	0.045	0.148
-407.311	18.784	0.141	-0.112
-406.296	70.075	0.263	-0.269
-405.282	-200.000	-0.023	0.299
-404.267	-200.000	0.006	0.179
-403.252	800.000	0.071	0.255
-402.238	-200.000	0.004	-0.420
-401.223	800.000	0.050	-0.210
-400.209	336.626	-0.050	0.096
-399.194	-8.773	0.211	0.140
-398.179	-8.234	0.179	0.119
-397.165	55.048	-0.152	0.145
-396.150	-2.356	-0.107	0.074
-395.136	-54.359	0.243	-0.109
-394.121	136.132	-0.118	0.152
-393.106	287.710	-0.062	-0.110
-392.092	-200.000	0.004	-0.446
-391.077	-200.000	-0.010	-0.408
-390.063	67.153	-0.049	0.049
-389.048	800.000	0.050	-0.216
-388.033	-64.477	0.079	0.032
-387.019	351.571	-0.079	0.154
-386.004	137.907	0.060	-0.078
-384.990	-24.021	0.117	0.069
-383.975	-85.519	-0.180	0.055
-382.960	800.000	0.055	-0.163
-381.946	-200.000	0.027	-0.235
-380.931	-200.000	0.021	-0.142
-379.917	800.000	-0.044	0.179
-378.902	198.337	-0.109	0.164
-377.888	-17.203	0.102	-0.064
-376.873	426.966	-0.152	0.323
-375.858	-79.166	-0.214	0.072
-374.844	-150.341	0.344	-0.026
-373.829	58.315	0.241	0.234
-372.815	292.850	0.059	0.106
-371.800	-113.636	0.197	-0.038
-370.785	-113.794	0.315	-0.060
-369.771	800.000	0.069	-0.242
-368.756	33.788	0.145	-0.125
-367.742	334.352	-0.045	-0.087
-366.727	70.820	-0.283	0.289
-365.712	-44.257	0.101	0.050
-364.698	-18.583	-0.282	-0.174
-363.683	-116.396	0.220	-0.040
-362.669	350.198	0.102	-0.199
-361.654	-0.099	0.078	0.055
-360.639	-29.996	0.160	0.090
-359.625	393.650	0.032	0.065
-358.610	292.593	-0.008	-0.014
-357.596	-200.000	0.004	0.190
-356.581	25.597	0.121	-0.100
-355.566	-59.459	0.182	-0.077
-354.552	-18.300	-0.184	-0.113
-353.537	-200.000	0.005	-0.089
-352.523	-200.000	0.021	0.347
-351.508	209.271	-0.077	-0.120
-350.493	-134.165	-0.219	0.027
-349.479	-200.000	0.007	0.067
-348.464	-150.058	-0.049	-0.004
-347.450	-200.000	-0.039	0.330
-346.435	800.000	0.038	0.114
-345.420	24.464	-0.352	-0.287
-344.406	-15.433	0.120	0.076
-343.391	800.000	0.033	0.090
-342.377	-80.777	-0.199	0.065
-341.362	51.401	-0.186	0.174
-340.348	-200.000	-0.051	0.232
-339.333	155.852	0.094	0.128
-338.318	800.000	0.049	-0.205
-337.304	800.000	0.054	0.167
-336.289	765.251	-0.046	-0.124
-335.275	245.485	0.046	0.077
-334.260	800.000	-0.037	-0.123
-333.245	449.877	-0.077	-0.168
-332.231	-200.000	-0.011	0.249
-331.216	383.128	-0.063	0.128
-330.202	800.000	-0.043	0.121
-329.187	-74.901	0.140	-0.050
-328.172	30.248	0.090	0.076
-327.158	205.313	-0.097	-0.149
-326.143	-200.000	0.017	0.155
-325.129	-13.731	-0.089	0.057
-324.114	-141.487	-0.537	0.053
-323.099	-84.268	0.061	0.019
-322.085	-83.453	0.171	-0.054
-321.070	35.042	-0.311	-0.268
-320.056	-200.000	-0.063	0.404
-319.041	-63.939	0.214	-0.086
-318.026	468.143	0.172	0.379
-317.012	-35.362	-0.342	0.183
-315.997	-59.571	0.587	0.248
-314.983	-200.000	-0.028	0.378
-313.968	-74.251	0.124	0.044
-312.953	800.000	-0.082	0.272
-311.939	-133.369	0.256	0.032
-310.924	-15.078	0.170	0.107
-309.910	-200.000	0.031	0.169
-308.895	800.000	0.068	-0.236
-307.880	800.000	0.094	0.390
-306.866	800.000	-0.043	0.134
-305.851	452.516	-0.078	-0.170
-304.837	157.689	-0.138	0.189
-303.822	-200.000	0.004	0.064
-302.807	-174.702	0.377	0.011
-301.793	-200.000	-0.011	0.090
-300.778	800.000	-0.125	0.381
-299.764	4.785	0.278	-0.201
-298.749	-126.822	-0.347	0.050
-297.735	-200.000	-0.017	-0.294
-296.720	-200.000	-0.032	-0.141
-295.705	-157.874	-0.090	0.005
-294.691	800.000	0.112	-0.316
-293.676	-87.219	0.419	0.125
-292.662	11.651	-0.261	-0.197
-291.647	-121.741	0.517	-0.084
-290.632	167.969	-0.274	0.384
-289.618	461.652	-0.110	-0.242
-288.603	-14.173	0.245	0.155
-287.589	-78.009	-0.327	-0.111
-286.574	85.271	0.154	0.167
-285.559	263.818	0.152	-0.260
-284.545	172.867	-0.103	-0.145
-283.530	126.253	-0.264	-0.329
-282.516	-85.285	-0.218	-0.067
-281.501	232.421	0.143	-0.232
-280.486	279.909	0.168	-0.295
-279.472	195.374	0.098	0.146
-278.457	-122.869	0.271	-0.043
-277.443	-200.000	-0.020	-0.088
-276.428	136.768	0.099	-0.127
-275.413	119.672	0.217	-0.265
-274.399	107.800	-0.179	0.209
-273.384	-200.000	0.040	0.207
-272.370	559.830	-0.160	0.381
-271.355	747.471	0.072	0.191
-270.340	59.667	-0.146	0.142
-269.326	61.555	0.111	-0.108
-268.311	59.686	0.115	-0.111
-267.297	800.000	-0.066	-0.272
-266.282	545.236	0.116	0.273
-265.267	-25.583	0.518	-0.301
-264.253	800.000	0.114	0.327
-263.238	-55.614	-0.331	0.146
-262.224	-98.107	0.368	-0.093
-261.209	534.319	0.241	-0.561
-260.195	-107.865	0.074	0.016
-259.180	445.738	0.152	-0.328
-258.165	-11.672	0.064	-0.041
-257.151	342.215	0.144	-0.276
-256.136	304.380	0.136	0.249
-255.122	261.838	-0.110	-0.187
-254.107	-200.000	-0.006	0.034
-253.092	643.045	-0.091	-0.228
-252.078	800.000	-0.058	-0.238
-251.063	800.000	0.081	-0.269
-250.049	217.112	0.053	-0.083
-249.034	86.121	-0.205	-0.221
-248.019	-162.062	0.129	0.006
-247.005	800.000	-0.030	-0.127
-245.990	186.880	-0.063	-0.092
-244.976	-112.444	-0.051	0.010
-243.961	190.748	-0.086	-0.127
-242.946	-180.213	-0.147	0.003
-241.932	-20.211	0.359	-0.217
-240.917	681.732	0.069	-0.176
-239.903	7.943	-0.128	-0.094
-238.888	-74.598	-0.365	-0.129
-237.873	89.336	0.136	-0.149
-236.859	-102.650	-0.071	0.017
-235.844	30.827	-0.227	0.191
-234.830	681.219	-0.095	-0.242
-233.815	155.473	-0.114	-0.155
-232.800	-115.603	-0.151	0.028
-231.786	489.743	0.029	0.065
-230.771	-159.035	-0.279	0.016
-229.757	-200.000	-0.033	0.145
-228.742	623.309	-0.119	0.295
-227.727	-85.439	-0.143	0.044
-226.713	-109.613	-0.403	-0.083
-225.698	-65.389	-0.080	-0.032
-224.684	146.080	-0.240	-0.316
-223.669	-121.321	0.284	0.047
-222.655	-119.504	-0.335	0.057
-221.640	-200.000	0.026	-0.157
-220.625	-101.822	-0.248	-0.059
-219.611	-114.293	0.080	-0.015
-218.596	440.944	-0.083	-0.178
-217.582	-131.145	-0.125	0.016
-216.567	262.617	-0.071	0.120
-215.552	-147.416	0.445	-0.037
-214.538	-200.000	-0.050	0.344
-213.523	-38.322	-0.169	-0.088
-212.509	543.176	-0.150	-0.351
-211.494	38.804	0.287	0.251
-210.479	51.503	-0.477	0.444
-209.465	800.000	0.018	-0.068
-208.450	80.222	0.034	0.036
-207.436	-200.000	-0.044	0.272
-206.421	58.768	-0.206	-0.198
-205.406	-49.887	0.232	0.108
-204.392	-200.000	0.017	-0.142
-203.377	-15.240	0.164	0.103
-202.363	800.000	-0.003	-0.013
-201.348	-9.155	0.156	0.102
-200.333	33.445	-0.121	0.103
-199.319	211.320	0.238	0.368
-198.304	-111.054	-0.525	-0.106
-197.290	0.288	0.148	-0.103
-196.275	-98.493	0.236	0.059
-195.260	10.458	-0.143	0.106
-194.246	38.547	0.295	0.258
-193.231	1.948	0.240	0.170
-192.217	-200.000	0.032	-0.274
-191.202	43.200	-0.287	0.257
-190.187	577.074	-0.154	0.370
-189.173	800.000	0.087	0.285
-188.158	315.369	0.237	0.438
-187.144	800.000	-0.077	-0.275
-186.129	-65.486	0.278	0.109
-185.114	-200.000	0.016	-0.164
-184.100	800.000	-0.057	-0.234
-183.085	321.873	0.140	-0.260
-182.071	-13.890	-0.231	-0.146
-181.056	374.068	0.088	0.175
-180.042	-200.000	0.001	0.019
-179.027	182.636	-0.049	-0.070
-178.012	-200.000	0.271	-0.001
-176.998	-96.171	-0.183	0.048
-175.983	-59.098	-0.222	0.094
-174.969	46.602	0.129	0.118
-173.954	-97.459	-0.127	0.032
-172.939	-68.777	-0.331	0.125
-171.925	-9.918	0.040	-0.026
-170.910	-200.000	-0.013	0.109
-169.896	36.280	0.204	0.176
-168.881	97.766	0.116	-0.131
-167.866	83.847	0.120	-0.128
-166.852	-55.566	-0.193	-0.085
-165.837	800.000	-0.034	-0.106
-164.823	112.087	0.122	0.144
-163.808	75.118	0.063	-0.065
-162.793	800.000	-0.005	-0.014
-161.779	289.025	0.135	-0.239
-160.764	-200.000	0.040	-0.208
-159.750	-98.457	-0.248	0.062
-158.735	-164.982	-0.017	0.001
-157.720	5.848	0.187	-0.135
-156.706	-63.315	0.224	-0.090
-155.691	-200.000	0.002	0.231
-154.677	-110.627	0.291	0.059
-153.662	800.000	-0.052	0.143
-152.647	48.620	-0.159	0.146
-151.633	-68.230	0.103	0.039
-150.618	84.839	0.055	0.059
-149.604	16.306	0.048	0.037
-148.589	-55.684	0.249	0.109
-147.574	371.955	0.058	0.115
-146.560	-170.443	0.061	-0.002
-145.545	-200.000	-0.014	0.169
-144.531	-200.000	-0.018	-0.174
-143.516	1.651	0.138	-0.097
-142.502	-16.912	-0.172	-0.106
-141.487	800.000	0.095	0.258
-140.472	-70.084	-0.139	0.052
-139.458	-200.000	0.027	-0.249
-138.443	164.381	-0.083	0.115
-137.429	-63.724	0.241	-0.096
-136.414	-200.000	-0.064	-0.425
-135.399	-200.000	0.085	0.530
-134.385	-155.561	0.459	0.029
-133.370	189.740	-0.121	-0.177
-132.356	4.896	0.182	0.131
-131.341	91.081	-0.189	0.207
-130.326	-200.000	-0.049	-0.260
-129.312	599.228	0.086	0.209
-128.297	-71.537	0.115	0.042
-127.283	-200.000	0.050	0.289
-126.268	-14.716	-0.067	0.042
-125.253	-150.603	0.448	0.033
-124.239	129.666	-0.205	-0.256
-123.224	-101.285	0.166	0.040
-122.210	-9.293	-0.154	0.101
-121.195	-126.924	-0.432	-0.062
-120.180	-200.000	-0.009	-0.074
-119.166	472.620	-0.074	-0.163
-118.151	39.135	-0.140	0.122
-117.137	-104.441	0.111	0.025
-116.122	-65.522	-0.095	-0.037
-115.107	-84.244	-0.089	-0.028
-114.093	-200.000	0.006	-0.105
-113.078	592.872	-0.098	0.236
-112.064	177.348	0.214	-0.305
-111.049	-35.860	0.108	0.057
-110.034	800.000	0.061	-0.253
-109.020	-200.000	-0.009	-0.102
-108.005	-200.000	0.020	0.120
-106.991	-200.000	0.003	0.375
-105.976	-200.000	-0.063	-0.385
-104.962	22.569	0.036	0.029
-103.947	-200.000	-0.027	-0.281
-102.932	-33.569	-0.105	0.057
-101.918	169.232	0.100	0.140
-100.903	213.860	-0.066	0.102
-99.889	6.580	-0.590	0.428
-98.874	126.177	0.137	-0.169
-97.859	-200.000	0.021	0.157
-96.845	-14.855	0.028	-0.017
-95.830	189.703	-0.161	-0.235
-94.816	634.223	-0.100	0.247
-93.801	404.803	0.030	0.061
-92.786	800.000	-0.068	-0.233
-91.772	68.421	0.180	0.180
-90.757	-105.091	-0.125	-0.028
-89.743	24.301	0.306	-0.247
-88.728	100.768	-0.220	0.250
-87.713	72.523	-0.202	-0.205
-86.699	800.000	-0.048	-0.190
-85.684	87.165	0.122	-0.131
-84.670	-83.182	-0.022	-0.007
-83.655	247.513	0.045	0.074
-82.640	145.071	-0.117	-0.152
-81.626	0.584	0.161	0.112
-80.611	133.614	-0.095	0.119
-79.597	-129.185	-0.012	-0.002
-78.582	-12.931	-0.403	0.256
-77.567	-58.345	0.352	0.149
-76.553	-122.203	0.198	-0.032
-75.538	-5.174	0.040	0.027
-74.524	800.000	-0.208	-0.599
-73.509	142.411	0.185	-0.239
-72.494	-200.000	0.037	-0.398
-71.480	-28.821	-0.152	-0.085
-70.465	667.518	-0.049	-0.123
-69.451	-44.839	-0.383	-0.186
-68.436	-33.173	0.277	0.150
-67.422	-143.428	0.274	0.026
-66.407	-200.000	-0.054	-0.247
-65.392	-103.615	-0.264	0.061
-64.378	-106.775	-0.146	-0.032
-63.363	-200.000	-0.005	-0.056
-62.349	224.086	-0.194	0.305
-61.334	203.171	-0.948	-1.429
-60.319	24.211	0.878	0.707
-59.305	800.000	-0.402	-1.306
-58.290	278.637	0.804	1.397
-57.276	419.452	0.696	1.452
-56.261	-200.000	123.397	624.522
-55.246	398.421	1564.163	3191.179
-54.232	143.326	2723.989	3534.317
-53.217	93.555	2186.732	2413.501
-52.203	34.053	1703.189	1446.338
-51.188	26.462	1521.501	1240.188
-50.173	24.476	1497.695	1207.324
-49.159	47.457	1568.246	1424.615
-48.144	45.254	1580.777	1420.650
-47.130	26.506	1530.023	1247.244
-46.115	23.712	1514.069	1215.101
-45.100	23.579	1510.713	1211.454
-44.086	23.444	1509.186	1209.259
-43.071	23.416	1507.514	1207.682
-42.057	23.448	1505.191	1205.986
-41.042	23.450	1503.791	1204.831
-40.027	23.425	1502.141	1203.296
-39.013	23.489	1500.889	1202.676
-37.998	23.434	1499.587	1201.216
-36.984	23.497	1498.628	1200.827
-35.969	23.399	1497.478	1199.191
-34.954	23.441	1495.252	1197.648
-33.940	23.441	1494.363	1196.889
-32.925	23.434	1493.181	1195.847
-31.911	23.459	1491.680	1194.767
-30.896	23.431	1490.395	1193.500
-29.881	23.421	1489.669	1192.803
-28.867	23.528	1487.694	1191.894
-27.852	23.490	1486.510	1190.644
-26.838	23.466	1485.257	1189.427
-25.823	23.515	1483.502	1188.306
-24.809	23.488	1481.584	1186.541
-23.794	23.385	1480.021	1184.551
-22.779	23.364	1479.547	1183.984
-21.765	23.468	1478.194	1183.554
-20.750	23.539	1476.653	1182.747
-19.736	23.476	1476.033	1181.784
-18.721	23.485	1474.982	1180.954
-17.706	23.461	1473.840	1179.830
-16.692	23.523	1472.719	1179.301
-15.677	23.395	1471.915	1177.762
-14.663	23.408	1470.743	1176.859
-13.648	23.264	1470.139	1175.372
-12.633	23.443	1468.894	1175.518
-11.619	23.385	1468.087	1174.442
-10.604	23.442	1467.015	1173.913
-9.590	23.375	1466.328	1172.875
-8.575	23.369	1465.767	1172.341
-7.560	23.411	1464.791	1171.794
-6.546	23.534	1463.549	1171.563
-5.531	23.428	1463.023	1170.394
-4.517	23.392	1461.934	1169.242
-3.502	23.428	1461.110	1168.773
-2.487	23.447	1459.594	1167.641
-1.473	23.433	1458.788	1166.858
-0.458	23.410	1457.553	1165.668
0.556	21.856	1447.880	1155.648
1.571	19.173	1424.491	1119.465
2.586	16.229	1363.472	1053.076
3.600	14.736	1281.066	980.577
4.615	13.785	1237.289	941.594
5.629	11.898	1180.936	888.399
6.644	5.823	1098.777	795.774
7.659	0.947	1062.475	745.449
8.673	0.395	1057.259	739.018
9.688	0.135	1053.779	735.252
10.702	0.144	1052.623	734.426
11.717	0.106	1050.176	732.466
12.731	2.202	1051.336	743.415
13.746	8.577	1060.271	780.870
14.761	14.573	1067.578	815.576
15.775	16.569	1069.959	827.089
16.790	16.298	1069.267	825.156
17.804	15.338	1066.959	818.623
18.819	14.598	1064.954	813.406
19.834	14.262	1063.568	810.636
20.848	13.943	1062.904	808.509
21.863	13.718	1061.818	806.518
22.877	13.511	1060.764	804.639
23.892	13.369	1059.609	803.001
24.907	13.222	1058.968	801.732
25.921	12.995	1059.342	800.844
26.936	13.221	1057.849	800.737
27.950	13.144	1057.296	799.873
28.965	13.283	1056.313	799.735
29.980	13.264	1055.742	799.141
30.994	13.428	1054.227	798.713
32.009	13.330	1053.279	797.453
33.023	13.300	1053.311	797.260
34.038	13.353	1052.354	796.721
35.053	13.474	1051.352	796.474
36.067	13.452	1050.576	795.712
37.082	13.450	1049.452	794.779
38.096	13.319	1048.766	793.558
39.111	13.339	1048.357	793.278
40.126	13.449	1047.007	792.713
41.140	13.333	1046.327	791.572
42.155	13.161	1044.867	789.574
43.169	13.180	1044.420	789.260
44.184	13.159	1043.267	788.219
45.199	13.115	1042.018	786.995
46.213	13.076	1041.227	786.142
47.228	13.213	1040.244	785.981
48.242	13.221	1039.227	785.181
49.257	13.367	1037.883	784.787
50.271	13.424	1036.771	784.149
51.286	13.282	1036.166	782.951
52.301	13.323	1036.007	782.952
53.315	13.324	1034.470	781.728
54.330	13.101	1033.859	780.145
55.344	13.295	1032.810	780.197
56.359	13.342	1031.530	779.382
57.374	13.245	1031.423	778.776
58.388	13.279	1029.594	777.488
59.403	13.281	1028.938	776.931
60.417	13.250	1028.458	776.356
61.432	13.153	1028.076	775.545
62.447	13.152	1027.099	774.734
63.461	13.158	1026.495	774.239
64.476	13.269	1024.956	773.528
65.490	13.055	1024.384	772.024
66.505	13.105	1023.449	771.487
67.520	13.253	1022.586	771.458
68.534	13.104	1022.038	770.280
69.549	13.109	1021.386	769.743
70.563	13.095	1020.418	768.884
71.578	13.224	1019.743	768.907
72.593	13.218	1018.886	768.163
73.607	12.986	1017.849	766.237
74.622	13.040	1017.259	765.974
75.636	13.185	1015.769	765.461
76.651	13.152	1015.014	764.670
77.666	13.110	1014.641	764.124
78.680	13.148	1013.895	763.670
79.695	13.134	1013.076	762.925
80.709	13.118	1012.905	762.655
81.724	13.203	1011.737	762.097
82.739	13.196	1010.839	761.323
83.753	13.189	1010.377	760.874
84.768	13.222	1009.551	760.337
85.782	13.331	1008.732	760.152
86.797	13.407	1008.023	759.901
87.812	13.378	1006.861	758.827
88.826	13.259	1006.305	757.793
89.841	13.190	1005.497	756.803
90.855	13.397	1004.740	757.114
91.870	13.381	1003.971	756.391
92.884	13.511	1002.862	756.086
93.899	13.493	1002.448	755.623
94.914	13.403	1002.138	754.910
95.928	13.448	1000.917	754.131
96.943	13.329	1000.605	753.287
97.957	13.359	999.614	752.608
98.972	13.394	998.847	752.123
99.987	13.499	997.871	751.800
101.001	13.443	996.811	750.682
102.016	13.345	996.508	749.944
103.030	13.316	995.722	749.155
104.045	13.448	994.377	748.673
105.060	13.306	993.639	747.409
106.074	13.380	992.477	746.801
107.089	13.415	991.593	746.230
108.103	13.265	990.867	744.941
109.118	13.275	990.016	744.281
110.133	13.099	989.872	743.312
111.147	13.265	988.521	742.978
112.162	13.326	987.421	742.362
113.176	13.319	986.645	741.681
114.191	13.367	985.851	741.231
115.206	13.275	985.225	740.285
116.220	13.326	984.442	739.857
117.235	13.247	983.447	738.693
118.249	13.326	982.454	738.234
119.264	13.353	981.802	737.801
120.279	13.314	980.913	736.892
121.293	13.284	980.248	736.194
122.308	13.333	979.337	735.662
123.322	13.266	978.852	734.935
124.337	13.195	977.787	733.756
125.352	13.324	976.111	733.007
126.366	13.237	975.065	731.770
127.381	13.274	974.313	731.302
128.395	13.230	973.107	730.140
129.410	13.084	972.386	728.889
130.424	13.251	971.226	728.693
131.439	13.243	970.596	728.120
132.454	13.265	969.675	727.461
133.468	13.305	968.947	727.027
134.483	13.359	968.294	726.707
135.497	13.236	967.656	725.627
136.512	13.312	966.590	725.095
137.527	13.285	966.056	724.515
138.541	13.248	964.923	723.436
139.556	13.340	964.747	723.642
140.570	13.372	964.061	723.206
141.585	13.468	962.904	722.694
142.600	13.388	962.182	721.739
143.614	13.411	961.926	721.582
144.629	13.495	960.732	720.987
145.643	13.593	959.776	720.635
146.658	13.408	959.236	719.360
147.673	13.552	958.162	719.114
148.687	13.487	957.206	718.054
149.702	13.407	956.300	716.962
150.716	13.464	955.482	716.532
151.731	13.505	954.696	716.056
152.746	13.493	954.011	715.429
153.760	13.520	953.460	715.070
154.775	13.493	952.462	714.141
155.789	13.523	951.721	713.652
156.804	13.441	951.316	712.933
157.819	13.495	950.430	712.435
158.833	13.486	949.730	711.810
159.848	13.557	949.375	711.785
160.862	13.550	948.653	711.153
161.877	13.651	947.611	710.739
162.892	13.645	946.566	709.867
163.906	13.519	946.217	709.005
164.921	13.630	945.123	708.594
165.935	13.617	943.984	707.626
166.950	13.634	942.741	706.703
167.964	13.669	941.930	706.179
168.979	13.458	941.332	704.770
169.994	13.724	940.179	704.977
171.008	13.597	939.970	704.220
172.023	13.751	938.856	703.975
173.037	13.709	938.017	703.104
174.052	13.648	937.622	702.488
175.067	13.740	936.879	702.261
176.081	13.608	936.535	701.380
177.096	13.719	935.474	700.995
178.110	13.659	933.842	699.457
179.125	13.764	933.304	699.434
180.140	13.752	932.433	698.668
181.154	13.656	931.840	697.757
182.169	13.781	931.463	697.941
183.183	13.816	930.785	697.519
184.198	13.827	930.018	696.928
185.213	14.004	929.167	696.971
186.227	13.794	928.798	695.750
187.242	13.897	928.691	696.041
188.256	13.698	928.054	694.668
189.271	14.030	926.770	695.035
190.286	14.036	925.971	694.399
191.300	13.993	924.922	693.373
192.315	13.831	924.594	692.387
193.329	13.680	924.242	691.433
194.344	13.839	923.154	691.222
195.359	13.756	922.690	690.467
196.373	13.957	922.430	691.046
197.388	13.943	921.769	690.432
198.402	14.036	921.346	690.442
199.417	13.996	921.039	689.985
200.432	14.137	920.126	689.823
201.446	14.045	920.021	689.302
202.461	14.046	919.582	688.916
203.475	14.085	919.277	688.788
204.490	14.125	918.230	688.108
205.504	14.123	917.407	687.421
206.519	14.094	916.726	686.733
207.534	14.147	915.774	686.177
208.548	14.075	915.347	685.501
209.563	14.174	914.594	685.281
210.577	14.181	913.564	684.478
211.592	14.119	913.148	683.853
212.607	14.227	912.657	683.865
213.621	14.273	911.947	683.464
214.636	14.139	911.230	682.314
215.650	14.162	910.888	682.093
216.665	14.210	910.338	681.817
217.680	14.302	909.569	681.560
218.694	14.347	908.913	681.190
219.709	14.363	908.347	680.771
220.723	14.351	907.719	680.192
221.738	14.448	907.070	680.041
222.753	14.323	906.549	679.081
223.767	14.362	905.650	678.507
224.782	14.453	904.894	678.250
225.796	14.467	903.980	677.562
226.811	14.451	903.502	677.080
227.826	14.399	902.919	676.371
228.840	14.348	902.361	675.687
229.855	14.517	901.444	675.623
230.869	14.454	901.145	675.087
231.884	14.468	900.091	674.294
232.899	14.406	899.656	673.658
233.913	14.381	898.907	672.933
234.928	14.444	897.875	672.357
235.942	14.456	897.053	671.731
236.957	14.573	896.542	671.759
237.972	14.502	895.914	670.942
238.986	14.453	895.639	670.483
240.001	14.494	894.753	669.924
241.015	14.584	893.853	669.550
242.030	14.514	893.209	668.730
243.045	14.503	892.667	668.221
244.059	14.555	891.997	667.867
245.074	14.676	891.159	667.664
246.088	14.681	890.882	667.417
247.103	14.681	890.358	666.966
248.117	14.741	889.353	666.394
249.132	14.663	889.357	666.027
250.147	14.763	888.752	665.915
251.161	14.716	887.518	664.745
252.176	14.744	887.131	664.506
253.190	14.778	886.445	664.071
254.205	14.859	885.780	663.834
255.220	14.902	885.284	663.575
256.234	14.963	884.156	662.911
257.249	15.006	883.857	662.797
258.263	14.887	883.580	662.061
259.278	14.910	882.837	661.537
260.293	14.878	882.575	661.155
261.307	15.019	881.672	660.979
262.322	15.066	881.119	660.692
263.336	15.051	880.543	660.141
264.351	15.019	879.630	659.270
265.366	15.175	878.914	659.291
266.380	15.235	878.375	659.063
267.395	15.167	877.697	658.228
268.409	15.130	877.117	657.592
269.424	15.043	876.397	656.650
270.439	15.061	875.897	656.290
271.453	15.138	874.862	655.756
272.468	15.138	874.242	655.235
273.482	15.157	873.545	654.727
274.497	15.313	872.920	654.812
275.512	15.163	872.488	653.845
276.526	15.225	871.625	653.380
277.541	15.194	870.858	652.629
278.555	15.249	870.457	652.483
279.570	15.331	870.133	652.503
280.585	15.263	869.538	651.734
281.599	15.490	868.317	651.640
282.614	15.366	868.131	650.962
283.628	15.348	867.326	650.231
284.643	15.285	867.064	649.735
285.657	15.314	866.551	649.406
286.672	15.429	865.617	649.091
287.687	15.342	865.028	648.257
288.701	15.392	864.694	648.142
289.716	15.313	864.459	647.604
290.730	15.373	863.760	647.253
291.745	15.438	862.882	646.792
292.760	15.562	862.266	646.747
293.774	15.457	861.238	645.518
294.789	15.542	861.379	645.890
295.803	15.556	860.737	645.406
296.818	15.565	859.948	644.795
297.833	15.606	859.235	644.359
298.847	15.547	858.619	643.615
299.862	15.592	857.964	643.240
300.876	15.493	857.582	642.515
301.891	15.725	856.371	642.436
302.906	15.708	855.817	641.901
303.920	15.767	855.493	641.825
304.935	15.636	854.816	640.763
305.949	15.751	854.388	640.822
306.964	15.806	853.392	640.229
307.979	15.775	852.956	639.726
308.993	15.754	852.846	639.508
310.008	15.812	851.802	638.888
311.022	15.829	851.440	638.626
312.037	15.884	851.035	638.472
313.052	15.880	850.331	637.874
314.066	15.924	849.449	637.321
315.081	15.784	849.260	636.595
316.095	15.834	848.656	636.272
317.110	15.796	848.071	635.635
318.125	15.858	847.447	635.346
319.139	15.723	847.644	634.929
320.154	15.851	846.406	634.428
321.168	15.968	845.800	634.357
322.183	15.952	845.482	634.003
323.197	15.969	844.986	633.636
324.212	15.949	844.776	633.350
325.227	15.945	843.765	632.521
326.241	15.930	843.716	632.371
327.256	16.052	842.437	631.814
328.270	15.922	842.064	630.991
329.285	15.884	841.635	630.471
330.300	15.916	841.178	630.192
331.314	15.850	840.379	629.291
332.329	16.045	839.604	629.383
333.343	16.118	839.086	629.213
334.358	16.142	838.634	628.908
335.373	16.255	838.148	628.909
336.387	16.198	837.417	628.092
337.402	16.201	837.183	627.872
338.416	16.131	836.360	626.938
339.431	16.352	835.636	627.162
340.446	16.260	835.121	626.377
341.460	16.263	834.982	626.228
342.475	16.314	834.143	625.732
343.489	16.309	833.660	625.298
344.504	16.289	833.365	624.947
345.519	16.491	832.135	624.718
346.533	16.472	831.953	624.455
347.548	16.305	831.741	623.624
348.562	16.375	830.942	623.225
349.577	16.388	830.339	622.769
350.592	16.411	829.977	622.527
351.606	16.357	829.426	621.858
352.621	16.338	829.052	621.452
353.635	16.481	828.426	621.453
354.650	16.286	827.978	620.348
355.665	16.441	827.906	620.809
356.679	16.372	827.593	620.266
357.694	16.403	826.839	619.758
358.708	16.602	826.065	619.851
359.723	16.494	825.841	619.235
360.738	16.469	825.342	618.715
361.752	16.652	824.575	618.752
362.767	16.658	824.010	618.295
363.781	16.632	823.956	618.105
364.796	16.654	823.190	617.558
365.810	16.602	823.104	617.246
366.825	16.675	822.467	616.983
367.840	16.654	822.474	616.856
368.854	16.711	822.247	616.840
369.869	16.710	821.369	616.120
370.883	16.761	820.499	615.598
371.898	16.648	820.226	614.930
372.913	16.832	819.562	615.044
373.927	16.792	819.206	614.577
374.942	16.679	818.331	613.458
375.956	16.904	817.654	613.710
376.971	16.708	817.610	612.914
377.986	16.829	816.775	612.672
379.000	16.994	816.031	612.655
380.015	16.923	815.704	612.100
381.029	16.876	815.081	611.408
382.044	17.003	814.819	611.614
383.059	16.989	814.188	611.036
384.073	17.096	813.241	610.659
385.088	17.120	812.863	610.405
386.102	17.083	812.282	609.783
387.117	16.929	811.959	608.933
388.132	16.964	811.460	608.632
389.146	16.925	811.366	608.365
390.161	16.913	810.792	607.839
391.175	17.130	810.217	608.133
392.190	17.016	809.960	607.476
393.205	17.028	809.479	607.104
394.219	17.206	809.018	607.342
395.234	17.157	808.382	606.635
396.248	16.995	808.097	605.791
397.263	17.090	807.462	605.598
398.278	17.155	806.909	605.364
399.292	16.946	806.791	604.477
400.307	17.072	806.272	604.482
401.321	17.006	805.789	603.831
402.336	16.974	805.501	603.447
403.350	17.038	805.116	603.333
404.365	17.149	804.829	603.459
405.380	17.179	804.039	602.920
406.394	17.428	802.981	602.957
407.409	17.170	803.336	602.254
408.423	17.326	802.815	602.362
409.438	17.321	802.222	601.847
410.453	17.284	801.909	601.428
411.467	17.473	801.305	601.592
412.482	17.371	800.927	600.893
413.496	17.465	800.406	600.781
414.511	17.540	799.834	600.563
415.526	17.496	799.860	600.374
416.540	17.479	799.278	599.823
417.555	17.532	798.972	599.729
418.569	17.467	798.424	599.034
419.584	17.501	797.658	598.527
420.599	17.560	797.489	598.555
421.613	113.632	1297.117	1487.481
422.628	97.896	1369.850	1487.570
