DTS Sentinel unit serial number:	SN413079Multiplexer serial number:	ORYXHardware model number:	OX4-SRSoftware version number:	ORYX F/W v4.00 Oryx Data Collector v3.7.2.0data status	okinstallation	princeton_trtdifferential loss correction	single-endedforward channel	channel 3reverse channel	N/Adate	2019/09/14time	01:20:34forward acquisition time	60.00reverse acquisition time	0.00gamma	496.2192k internal	0.2340k external	0.2340temperature offset calibration	1.0054default loss term (dB/km)	0.3790temperature slope calibration	1.0000multiplexer offset coefficient	1.0000multiplexer slope coefficient	1.0000fibre end	0.00T internal ref (°C)	26.42T ext. ref 1 (°C)	3.19T ext. ref 2 (°C)	21.40length (m)	temperature (°C)	Stokes	anti-Stokes-747.200	-36.385	0.218	-0.118
-746.185	283.042	-0.104	0.187
-745.171	800.000	-0.047	-0.185
-744.156	800.000	0.061	-0.217
-743.142	326.482	0.059	-0.114
-742.127	121.267	-0.157	0.196
-741.112	-13.927	-0.129	0.083
-740.098	147.921	0.076	-0.103
-739.083	-200.000	0.066	-0.372
-738.069	55.598	-0.395	0.384
-737.054	-138.870	0.325	-0.035
-736.039	-120.142	0.204	-0.035
-735.025	-129.531	-0.307	-0.043
-734.010	152.980	-0.106	0.146
-732.996	-88.266	-0.109	0.033
-731.981	-109.817	-0.232	-0.049
-730.966	-200.000	-0.006	-0.440
-729.952	501.239	0.137	-0.317
-728.937	-197.844	-0.075	0.000
-727.923	121.166	-0.148	0.184
-726.908	-141.743	-0.472	0.047
-725.894	800.000	-0.026	-0.103
-724.879	800.000	-0.082	-0.333
-723.864	-101.757	-0.240	0.058
-722.850	-200.000	0.028	-0.410
-721.835	-200.000	0.004	-0.171
-720.821	588.188	0.161	-0.397
-719.806	19.212	0.244	-0.196
-718.791	800.000	-0.066	-0.183
-717.777	88.474	0.106	-0.118
-716.762	110.112	0.158	0.190
-715.748	-173.422	0.309	0.009
-714.733	261.756	0.055	0.095
-713.718	-200.000	0.033	0.226
-712.704	-143.003	0.148	-0.014
-711.689	-122.667	-0.200	0.032
-710.675	-165.218	0.181	-0.008
-709.660	17.933	0.220	-0.176
-708.645	51.317	-0.197	0.188
-707.631	-23.956	0.135	0.081
-706.616	-176.634	-0.150	0.004
-705.602	-37.087	0.246	0.132
-704.587	-200.000	0.058	-0.284
-703.572	-200.000	-0.012	-0.209
-702.558	67.489	0.206	-0.210
-701.543	261.342	0.006	-0.011
-700.529	-56.884	-0.410	0.181
-699.514	420.155	0.039	-0.084
-698.499	-187.196	0.327	0.004
-697.485	-200.000	0.019	-0.256
-696.470	-200.000	-0.001	0.085
-695.456	6.702	0.054	-0.040
-694.441	-101.647	-0.072	-0.017
-693.426	72.498	0.087	-0.090
-692.412	259.961	-0.207	0.358
-691.397	237.308	0.135	0.224
-690.383	122.591	0.244	0.305
-689.368	-117.760	-0.326	-0.059
-688.354	-51.636	-0.326	-0.152
-687.339	309.075	0.138	-0.257
-686.324	384.252	-0.124	-0.255
-685.310	-144.712	0.387	-0.036
-684.295	800.000	-0.035	-0.152
-683.281	-200.000	-0.017	-0.221
-682.266	-173.988	-0.146	-0.004
-681.251	-200.000	0.018	-0.372
-680.237	72.458	-0.230	-0.240
-679.222	-136.406	0.067	-0.008
-678.208	-116.307	-0.259	-0.048
-677.193	296.508	0.130	-0.239
-676.178	153.931	-0.112	-0.153
-675.164	-200.000	-0.102	0.458
-674.149	231.809	-0.050	0.083
-673.135	-70.019	-0.177	0.067
-672.120	-131.748	-0.549	-0.072
-671.105	-71.035	0.273	-0.103
-670.091	-200.000	0.009	0.311
-669.076	-200.000	-0.013	0.189
-668.062	800.000	-0.016	-0.061
-667.047	29.208	0.201	-0.170
-666.032	-76.797	-0.145	0.051
-665.018	-27.587	-0.215	-0.125
-664.003	529.120	-0.068	-0.161
-662.989	-8.594	-0.115	-0.077
-661.974	109.318	0.012	-0.014
-660.959	-200.000	0.009	-0.220
-659.945	350.759	-0.040	0.079
-658.930	152.594	0.066	-0.091
-657.916	-41.381	0.286	-0.147
-656.901	-89.946	0.109	-0.032
-655.886	-200.000	-0.052	0.237
-654.872	-166.898	-0.343	-0.014
-653.857	800.000	0.141	-0.537
-652.843	-165.439	0.105	-0.005
-651.828	-88.775	0.176	-0.052
-650.814	406.418	-0.064	-0.134
-649.799	800.000	0.068	0.222
-648.784	-84.962	0.265	0.083
-647.770	305.490	0.072	0.134
-646.755	372.245	0.099	0.200
-645.741	88.365	0.196	-0.218
-644.726	-41.325	-0.390	-0.201
-643.711	-200.000	-0.002	-0.017
-642.697	23.017	0.073	0.060
-641.682	-46.670	0.271	0.133
-640.668	207.329	0.023	-0.037
-639.653	40.605	-0.314	-0.282
-638.638	-105.284	-0.361	-0.082
-637.624	-80.084	0.219	-0.073
-636.609	-9.812	-0.170	0.113
-635.595	800.000	0.051	0.157
-634.580	-200.000	0.032	-0.265
-633.565	-102.739	0.234	-0.056
-632.551	244.224	-0.140	0.234
-631.536	261.592	0.223	-0.386
-630.522	-84.418	-0.108	-0.034
-629.507	130.263	0.181	-0.232
-628.492	77.819	-0.127	0.135
-627.478	715.313	-0.101	-0.267
-626.463	-200.000	-0.007	-0.042
-625.449	101.234	0.103	-0.120
-624.434	37.594	-0.146	-0.129
-623.419	202.120	0.083	0.128
-622.405	724.173	0.138	-0.366
-621.390	17.760	-0.297	-0.236
-620.376	-89.656	-0.154	-0.045
-619.361	-200.000	-0.032	0.173
-618.346	104.525	-0.127	-0.150
-617.332	800.000	-0.057	0.225
-616.317	-33.481	0.339	0.187
-615.303	-5.679	0.183	0.125
-614.288	-200.000	-0.009	0.055
-613.273	-200.000	0.062	-0.531
-612.259	53.629	-0.117	-0.112
-611.244	800.000	0.079	-0.296
-610.230	-145.354	-0.176	-0.016
-609.215	166.906	-0.112	-0.158
-608.201	-200.000	0.014	-0.132
-607.186	413.803	-0.077	0.164
-606.171	800.000	0.148	-0.444
-605.157	-86.056	0.102	0.031
-604.142	-200.000	-0.010	-0.043
-603.128	-125.260	-0.107	0.016
-602.113	-57.333	-0.169	-0.074
-601.098	-26.905	-0.281	0.164
-600.084	197.708	-0.063	0.097
-599.069	267.515	0.092	-0.160
-598.055	-200.000	-0.032	-0.212
-597.040	109.238	-0.270	-0.323
-596.025	118.337	0.137	0.169
-595.011	-22.567	0.334	0.201
-593.996	-200.000	-0.006	-0.157
-592.982	-200.000	-0.005	0.246
-591.967	91.043	-0.116	0.130
-590.952	-155.121	0.291	0.019
-589.938	-200.000	0.005	0.029
-588.923	373.959	0.205	0.416
-587.909	-147.538	0.399	0.034
-586.894	-200.000	-0.005	-0.025
-585.879	800.000	0.074	0.275
-584.865	-200.000	0.021	-0.115
-583.850	-180.309	-0.234	-0.005
-582.836	-150.822	0.253	-0.019
-581.821	373.624	-0.224	-0.453
-580.806	-200.000	-0.055	-0.337
-579.792	7.192	-0.254	0.189
-578.777	-62.721	-0.398	-0.164
-577.763	-111.501	0.308	-0.062
-576.748	-130.527	-0.120	-0.016
-575.733	18.828	-0.220	0.175
-574.719	-118.024	-0.226	0.040
-573.704	-141.798	0.322	-0.032
-572.690	-200.000	0.088	0.580
-571.675	-200.000	0.017	0.246
-570.661	487.514	-0.178	0.404
-569.646	182.665	-0.087	0.128
-568.631	497.127	-0.063	-0.144
-567.617	72.268	0.113	-0.117
-566.602	-64.208	0.111	-0.045
-565.588	-194.661	-0.452	-0.004
-564.573	52.696	-0.332	0.316
-563.558	-200.000	-0.012	0.096
-562.544	-200.000	-0.031	-0.331
-561.529	-20.964	-0.057	-0.035
-560.515	-200.000	0.003	-0.026
-559.500	115.800	-0.123	-0.149
-558.485	-22.040	-0.118	0.071
-557.471	-85.857	-0.039	-0.012
-556.456	800.000	0.043	-0.181
-555.442	800.000	-0.066	0.189
-554.427	-79.967	-0.177	-0.059
-553.412	-198.785	-0.353	0.002
-552.398	-48.551	-0.103	-0.050
-551.383	-82.868	-0.185	-0.060
-550.369	-116.596	-0.347	0.064
-549.354	15.064	0.058	0.045
-548.339	800.000	-0.083	-0.231
-547.325	-65.044	-0.263	-0.106
-546.310	-71.245	0.064	0.024
-545.296	-147.165	0.071	-0.006
-544.281	-66.942	-0.055	0.022
-543.266	-200.000	0.015	-0.215
-542.252	-68.488	0.276	0.106
-541.237	800.000	-0.100	0.310
-540.223	-119.931	0.205	-0.035
-539.208	800.000	-0.089	0.273
-538.193	800.000	-0.117	0.352
-537.179	255.611	0.081	-0.139
-536.164	786.614	-0.134	-0.365
-535.150	-200.000	-0.002	-0.286
-534.135	-84.350	0.151	0.048
-533.121	800.000	0.025	0.104
-532.106	-38.138	0.245	0.129
-531.091	-27.814	0.097	-0.056
-530.077	275.130	-0.119	-0.211
-529.062	281.715	-0.199	0.354
-528.048	-200.000	0.038	0.230
-527.033	22.898	-0.119	0.097
-526.018	31.383	-0.163	-0.139
-525.004	-200.000	0.037	-0.247
-523.989	-68.450	-0.165	0.063
-522.975	123.803	-0.073	0.091
-521.960	206.813	-0.074	0.115
-520.945	75.496	-0.064	-0.067
-519.931	-200.000	-0.012	-0.188
-518.916	-200.000	-0.116	0.000
-517.902	800.000	-0.027	0.100
-516.887	76.080	-0.130	-0.137
-515.872	-173.148	0.165	-0.005
-514.858	-148.491	0.159	0.013
-513.843	-200.000	0.024	0.189
-512.829	-81.471	-0.086	-0.028
-511.814	-200.000	0.051	-0.319
-510.799	-52.697	-0.054	0.025
-509.785	-125.552	-0.050	-0.008
-508.770	-82.843	-0.187	-0.060
-507.756	-200.000	-0.031	0.169
-506.741	329.392	-0.031	0.060
-505.726	800.000	0.055	-0.163
-504.712	175.574	0.124	-0.179
-503.697	-129.543	0.094	0.013
-502.683	357.296	0.040	-0.078
-501.668	-101.025	-0.153	0.037
-500.653	323.337	0.157	0.296
-499.639	-161.219	0.198	-0.010
-498.624	444.559	0.184	0.402
-497.610	-198.129	0.355	-0.002
-496.595	-87.283	-0.123	0.037
-495.581	52.952	-0.115	-0.109
-494.566	169.710	-0.225	0.320
-493.551	-93.531	-0.039	-0.011
-492.537	-200.000	-0.029	0.265
-491.522	-200.000	0.005	-0.198
-490.508	-200.000	0.005	-0.216
-489.493	800.000	0.064	-0.216
-488.478	-200.000	-0.005	0.079
-487.464	-200.000	-0.023	-0.140
-486.449	-144.024	0.099	0.009
-485.435	-200.000	0.024	-0.191
-484.420	-200.000	-0.021	-0.179
-483.405	688.781	0.128	-0.332
-482.391	-19.475	0.143	-0.088
-481.376	248.933	-0.112	-0.189
-480.362	-21.868	0.160	0.097
-479.347	800.000	0.066	-0.265
-478.332	-83.155	0.499	-0.159
-477.318	36.714	0.217	0.190
-476.303	168.751	-0.116	0.165
-475.289	800.000	-0.032	-0.089
-474.274	-117.229	0.261	0.047
-473.259	67.373	-0.232	0.235
-472.245	-82.467	0.367	0.118
-471.230	-200.000	-0.014	-0.259
-470.216	170.979	-0.146	-0.207
-469.201	110.293	-0.119	0.141
-468.186	25.075	0.336	0.276
-467.172	-55.708	0.144	0.064
-466.157	-41.980	0.271	-0.138
-465.143	-131.372	0.279	0.037
-464.128	-169.565	0.189	0.007
-463.113	800.000	-0.036	0.134
-462.099	455.626	0.147	0.322
-461.084	-19.822	-0.096	0.059
-460.070	45.358	-0.167	-0.153
-459.055	-200.000	-0.001	-0.065
-458.040	-152.035	-0.353	0.026
-457.026	90.889	-0.155	0.172
-456.011	42.454	-0.079	0.071
-454.997	106.641	0.120	-0.141
-453.982	-26.367	-0.232	0.135
-452.968	97.604	0.059	-0.067
-451.953	370.277	0.033	-0.066
-450.938	298.142	0.037	0.068
-449.924	800.000	-0.098	0.273
-448.909	69.206	0.127	-0.130
-447.895	-57.439	0.303	0.132
-446.880	-14.034	0.066	0.042
-445.865	-99.093	0.116	-0.029
-444.851	-117.637	0.192	0.034
-443.836	166.201	-0.115	-0.162
-442.822	700.325	0.126	0.330
-441.807	-200.000	0.024	0.112
-440.792	-200.000	-0.029	0.181
-439.778	564.369	0.045	0.108
-438.763	-200.000	-0.032	-0.170
-437.749	-154.774	0.425	0.028
-436.734	-143.625	-0.228	0.022
-435.719	450.299	0.142	-0.310
-434.705	-74.000	-0.090	-0.032
-433.690	68.320	-0.192	-0.195
-432.676	29.110	-0.095	-0.079
-431.661	518.417	-0.140	-0.324
-430.646	800.000	-0.028	-0.103
-429.632	-57.834	0.296	0.128
-428.617	226.574	-0.134	0.216
-427.603	-32.870	0.013	0.007
-426.588	-102.808	-0.276	-0.065
-425.573	-200.000	0.000	-0.025
-424.559	-121.947	0.302	0.049
-423.544	-123.512	0.401	-0.063
-422.530	443.003	0.070	-0.152
-421.515	-200.000	-0.032	0.175
-420.500	32.562	0.154	-0.132
-419.486	-12.732	0.181	-0.117
-418.471	267.912	0.124	0.215
-417.457	-63.936	-0.165	0.067
-416.442	-33.271	0.073	-0.040
-415.428	79.059	0.051	0.054
-414.413	121.127	-0.097	0.120
-413.398	59.729	-0.169	0.165
-412.384	-55.978	0.432	0.191
-411.369	-162.359	-0.253	-0.012
-410.355	91.719	-0.222	-0.247
-409.340	-200.000	-0.025	0.170
-408.325	655.941	-0.148	-0.376
-407.311	-80.440	0.177	0.058
-406.296	83.766	-0.077	-0.083
-405.282	-200.000	0.021	0.176
-404.267	800.000	0.009	-0.037
-403.252	395.692	0.057	-0.118
-402.238	-200.000	0.026	0.140
-401.223	195.564	-0.126	0.190
-400.209	-50.919	0.125	0.058
-399.194	353.953	0.110	-0.215
-398.179	34.350	-0.335	-0.289
-397.165	716.684	0.048	0.127
-396.150	800.000	-0.049	0.209
-395.136	-5.463	0.054	0.037
-394.121	-147.179	-0.239	0.020
-393.106	800.000	0.075	-0.272
-392.092	22.872	0.213	-0.172
-391.077	-144.332	0.269	-0.025
-390.063	32.483	0.170	-0.145
-389.048	-30.262	0.087	-0.049
-388.033	417.674	-0.125	-0.263
-387.019	800.000	-0.047	0.139
-386.004	-200.000	-0.014	0.089
-384.990	19.934	0.147	0.117
-383.975	275.211	-0.188	0.329
-382.960	-0.100	-0.092	0.065
-381.946	-127.594	0.211	0.030
-380.931	24.984	0.151	0.124
-379.917	5.461	0.098	0.072
-378.902	-200.000	-0.006	0.071
-377.888	-159.747	0.269	-0.015
-376.873	-200.000	-0.046	-0.225
-375.858	-34.834	-0.227	-0.123
-374.844	167.235	0.156	-0.219
-373.829	565.245	-0.012	0.028
-372.815	-32.713	0.136	-0.075
-371.800	-104.357	0.085	-0.020
-370.785	-73.951	-0.131	0.047
-369.771	-200.000	0.018	-0.402
-368.756	800.000	-0.016	0.056
-367.742	39.664	-0.143	0.127
-366.727	-11.954	-0.162	-0.105
-365.712	-75.212	0.150	-0.053
-364.698	-70.490	0.111	0.042
-363.683	-33.842	0.169	0.092
-362.669	-200.000	-0.005	0.031
-361.654	-90.086	-0.161	0.046
-360.639	800.000	0.036	0.111
-359.625	-200.000	0.053	0.343
-358.610	391.624	-0.094	-0.193
-357.596	210.251	-0.094	-0.146
-356.581	800.000	-0.094	-0.298
-355.566	-186.131	-0.020	-0.000
-354.552	800.000	-0.112	0.339
-353.537	126.351	0.049	0.061
-352.523	31.546	-0.241	-0.205
-351.508	60.324	0.105	0.103
-350.493	-163.387	-0.193	0.009
-349.479	373.324	-0.069	0.140
-348.464	-48.471	-0.167	-0.079
-347.450	19.635	0.260	0.206
-346.435	-100.697	-0.029	-0.007
-345.420	13.167	-0.185	0.141
-344.406	203.532	-0.144	-0.220
-343.391	-55.521	0.119	0.053
-342.377	265.320	-0.046	-0.080
-341.362	800.000	0.025	-0.087
-340.348	-92.710	-0.165	0.046
-339.333	90.287	0.131	0.144
-338.318	800.000	-0.015	-0.050
-337.304	727.818	0.066	-0.175
-336.289	165.523	-0.070	-0.098
-335.275	479.902	0.122	0.272
-334.260	56.891	0.259	0.249
-333.245	118.863	-0.137	-0.167
-332.231	195.002	0.077	0.115
-331.216	-136.136	-0.298	-0.034
-330.202	-200.000	0.022	0.233
-329.187	-90.408	0.034	0.010
-328.172	800.000	0.041	0.136
-327.158	39.890	-0.176	-0.156
-326.143	-88.249	0.235	0.069
-325.129	-6.709	-0.171	0.115
-324.114	-200.000	-0.044	-0.307
-323.099	-93.019	-0.244	-0.067
-322.085	37.610	-0.123	-0.108
-321.070	-26.548	-0.287	0.166
-320.056	-64.428	-0.199	0.080
-319.041	60.031	0.147	0.144
-318.026	-39.054	-0.119	-0.062
-317.012	189.666	0.172	-0.255
-315.997	30.846	-0.192	-0.163
-314.983	622.753	0.047	0.116
-313.968	493.899	0.112	0.253
-312.953	628.939	-0.107	0.268
-311.939	-200.000	-0.006	0.393
-310.924	-113.217	0.364	-0.071
-309.910	73.277	-0.248	-0.256
-308.895	-51.665	-0.075	-0.034
-307.880	159.828	-0.112	0.154
-306.866	-21.638	-0.174	0.104
-305.851	135.700	0.274	0.352
-304.837	800.000	0.099	-0.368
-303.822	-200.000	0.009	-0.097
-302.807	416.237	-0.043	-0.090
-301.793	-108.536	0.072	-0.015
-300.778	800.000	0.024	0.085
-299.764	309.507	0.123	0.227
-298.749	-76.926	-0.087	0.030
-297.735	-93.128	-0.436	-0.120
-296.720	-155.395	0.244	0.016
-295.705	-87.606	-0.205	0.061
-294.691	-65.878	0.157	-0.062
-293.676	-21.935	-0.212	-0.127
-292.662	-178.555	-0.560	-0.013
-291.647	113.329	-0.082	0.098
-290.632	-180.135	0.171	0.004
-289.618	14.098	0.145	0.112
-288.603	24.810	-0.126	-0.103
-287.589	-52.524	0.093	0.042
-286.574	-200.000	-0.025	-0.133
-285.559	285.797	0.216	-0.384
-284.545	128.653	-0.219	0.275
-283.530	-110.335	-0.351	0.072
-282.516	-19.847	0.341	-0.207
-281.501	145.862	0.217	0.286
-280.486	-114.045	0.226	-0.043
-279.472	188.646	-0.170	0.250
-278.457	800.000	-0.082	0.261
-277.443	-162.747	0.061	-0.003
-276.428	-173.170	-0.246	-0.007
-275.413	-200.000	0.048	-0.410
-274.399	-200.000	0.010	-0.382
-273.384	-68.321	0.222	-0.085
-272.370	10.909	0.101	0.076
-271.355	241.053	-0.180	0.295
-270.340	-200.000	0.031	-0.201
-269.326	800.000	-0.035	0.127
-268.311	6.136	-0.400	0.292
-267.297	-171.111	0.321	0.011
-266.282	-200.000	0.061	-0.401
-265.267	-200.000	0.006	-0.114
-264.253	-143.498	-0.264	0.025
-263.238	-200.000	-0.013	0.227
-262.224	-200.000	-0.008	0.089
-261.209	-107.491	-0.296	-0.064
-260.195	104.547	-0.137	0.158
-259.180	-155.875	0.090	-0.006
-258.165	-200.000	-0.020	-0.439
-257.151	-70.145	-0.195	-0.073
-256.136	-22.723	-0.045	0.027
-255.122	302.254	0.057	0.103
-254.107	-200.000	-0.001	-0.322
-253.092	-164.031	0.273	0.012
-252.078	-147.254	0.245	0.020
-251.063	-86.063	0.159	-0.048
-250.049	555.937	0.012	-0.028
-249.034	72.189	0.107	-0.109
-248.019	-200.000	-0.001	0.087
-247.005	-80.930	0.296	-0.097
-245.990	-3.097	-0.252	-0.173
-244.976	-55.092	-0.210	0.093
-243.961	-200.000	-0.005	0.092
-242.946	800.000	0.052	0.169
-241.932	-101.191	0.138	-0.033
-240.917	101.604	0.259	-0.297
-239.903	-50.933	0.228	-0.105
-238.888	20.531	-0.132	-0.105
-237.873	-52.465	0.192	0.087
-236.859	1.882	0.313	-0.222
-235.844	49.681	-0.248	0.230
-234.830	-190.626	0.072	0.001
-233.815	641.358	0.053	0.133
-232.800	6.406	-0.157	-0.114
-231.786	-47.276	0.460	-0.220
-230.771	-77.015	0.091	0.031
-229.757	159.359	-0.172	0.235
-228.742	-57.503	0.347	-0.150
-227.727	281.646	-0.055	-0.096
-226.713	13.977	-0.202	0.154
-225.698	-200.000	0.068	0.314
-224.684	52.672	-0.049	0.046
-223.669	69.249	-0.313	0.316
-222.655	51.169	-0.233	-0.217
-221.640	-98.064	-0.131	0.033
-220.625	-125.994	-0.085	-0.013
-219.611	236.659	0.200	0.326
-218.596	338.746	0.196	-0.375
-217.582	800.000	0.044	-0.154
-216.567	-200.000	-0.018	0.120
-215.552	100.862	-0.126	-0.144
-214.538	-200.000	0.043	-0.230
-213.523	0.213	0.279	0.195
-212.509	42.442	0.209	-0.187
-211.494	-200.000	0.019	0.228
-210.479	-200.000	-0.006	-0.174
-209.465	-86.600	0.329	-0.099
-208.450	-200.000	-0.034	-0.433
-207.436	460.172	-0.122	0.267
-206.421	-162.885	0.314	0.015
-205.406	152.716	0.068	-0.092
-204.392	23.020	0.180	0.145
-203.377	637.078	0.010	-0.026
-202.363	69.076	0.110	0.110
-201.348	175.427	0.218	0.311
-200.333	-135.349	-0.189	-0.022
-199.319	600.740	0.088	0.213
-198.304	-26.253	-0.149	0.086
-197.290	-200.000	-0.012	-0.167
-196.275	800.000	-0.078	0.272
-195.260	80.837	-0.145	0.154
-194.246	-105.994	0.339	0.075
-193.231	12.221	-0.119	-0.090
-192.217	253.281	-0.098	-0.164
-191.202	-8.103	0.232	0.153
-190.187	135.816	0.062	-0.079
-189.173	10.224	-0.090	-0.067
-188.158	181.522	0.068	-0.098
-187.144	-73.247	-0.288	0.103
-186.129	-200.000	-0.005	-0.230
-185.114	-200.000	-0.047	0.334
-184.100	800.000	0.104	0.346
-183.085	-13.032	-0.126	-0.081
-182.071	113.686	-0.120	0.143
-181.056	462.651	-0.148	0.325
-180.042	800.000	-0.066	0.189
-179.027	-123.655	0.027	0.004
-178.012	800.000	0.020	0.076
-176.998	-101.268	-0.193	0.046
-175.983	280.743	0.089	0.156
-174.969	408.792	0.009	0.018
-173.954	-77.562	0.264	0.090
-172.939	173.081	-0.119	0.169
-171.925	385.868	0.115	0.233
-170.910	70.902	-0.146	-0.148
-169.896	-4.461	0.071	-0.048
-168.881	-8.711	-0.158	-0.104
-167.866	-200.000	-0.002	-0.208
-166.852	-73.301	-0.184	-0.066
-165.837	95.687	0.086	0.096
-164.823	800.000	-0.041	0.155
-163.808	-9.121	-0.247	-0.162
-162.793	-131.213	0.197	-0.026
-161.779	-139.260	-0.285	-0.030
-160.764	-120.048	0.275	0.046
-159.750	427.198	-0.145	-0.307
-158.735	-8.006	-0.171	0.113
-157.720	199.939	0.119	0.179
-156.706	-101.648	-0.188	-0.045
-155.691	38.994	0.373	-0.327
-154.677	-76.669	0.260	0.089
-153.662	-200.000	-0.025	0.356
-152.647	-152.677	0.157	-0.011
-151.633	8.110	-0.435	-0.320
-150.618	149.881	0.220	0.293
-149.604	-53.293	0.324	-0.146
-148.589	800.000	-0.097	0.290
-147.574	36.128	0.126	-0.109
-146.560	-33.648	0.129	0.070
-145.545	800.000	0.135	0.445
-144.531	243.196	0.131	0.216
-143.516	20.171	-0.124	-0.098
-142.502	-200.000	0.013	-0.231
-141.487	-136.008	-0.576	-0.066
-140.472	96.450	-0.110	0.123
-139.458	-62.834	0.356	0.144
-138.443	800.000	-0.074	0.250
-137.429	51.760	-0.274	0.255
-136.414	-105.020	-0.247	-0.055
-135.399	-146.520	-0.551	-0.047
-134.385	20.061	-0.170	-0.134
-133.370	-200.000	-0.007	0.446
-132.356	187.903	-0.176	0.258
-131.341	46.305	-0.395	0.358
-130.326	800.000	-0.012	-0.049
-129.312	-153.079	-0.142	-0.010
-128.297	-39.159	0.163	0.084
-127.283	-200.000	0.023	0.188
-126.268	441.452	0.081	-0.173
-125.253	-58.272	0.288	-0.123
-124.239	70.796	-0.059	-0.060
-123.224	252.638	0.077	-0.129
-122.210	205.722	0.038	-0.057
-121.195	5.985	-0.175	-0.127
-120.180	-138.350	0.229	0.025
-119.166	-118.189	-0.178	-0.031
-118.151	217.906	-0.114	-0.177
-117.137	-160.319	0.216	-0.011
-116.122	-200.000	0.021	-0.121
-115.107	170.323	-0.141	0.198
-114.093	-81.490	0.023	0.007
-113.078	-200.000	0.026	-0.207
-112.064	676.145	-0.028	-0.071
-111.049	69.949	0.185	-0.187
-110.034	-122.707	0.297	0.047
-109.020	-82.930	-0.176	0.055
-108.005	-125.551	-0.134	-0.020
-106.991	-118.481	-0.012	0.002
-105.976	509.958	0.137	-0.312
-104.962	51.800	-0.288	-0.268
-103.947	-200.000	-0.043	0.216
-102.932	-112.983	-0.122	-0.024
-101.918	-7.784	-0.382	-0.252
-100.903	317.968	-0.019	-0.035
-99.889	290.088	0.020	-0.035
-98.874	-2.340	0.153	0.105
-97.859	-80.762	-0.242	0.079
-96.845	-88.477	-0.321	-0.094
-95.830	-31.785	0.232	0.127
-94.816	254.871	0.159	-0.266
-93.801	-61.589	0.338	0.139
-92.786	32.886	0.346	-0.293
-91.772	61.634	-0.358	-0.348
-90.757	-114.999	-0.272	-0.051
-89.743	84.065	-0.117	-0.125
-88.728	-82.990	0.209	0.066
-87.713	-156.353	0.388	0.024
-86.699	361.155	0.024	0.047
-85.684	-125.351	0.280	0.042
-84.670	-83.900	-0.129	0.040
-83.655	3.136	0.221	-0.157
-82.640	-68.177	-0.140	0.053
-81.626	-126.529	-0.169	-0.024
-80.611	705.960	-0.082	0.212
-79.597	798.276	0.084	0.226
-78.582	-48.686	0.116	0.055
-77.567	-196.057	0.369	0.003
-76.553	-63.173	-0.377	-0.152
-75.538	-11.412	-0.171	-0.110
-74.524	-200.000	0.001	0.389
-73.509	-18.520	0.460	-0.281
-72.494	-55.237	-0.219	-0.096
-71.480	-150.495	0.150	-0.011
-70.465	374.655	0.098	-0.195
-69.451	800.000	-0.096	-0.409
-68.436	-128.465	0.108	0.015
-67.422	-30.409	0.186	0.103
-66.407	-67.415	0.149	-0.057
-65.392	289.717	-0.148	-0.263
-64.378	521.685	-0.052	-0.120
-63.363	83.717	0.124	-0.133
-62.349	-58.421	-0.262	-0.111
-61.334	130.568	-1.005	-1.257
-60.319	450.602	0.210	0.452
-59.305	800.000	-0.417	-1.537
-58.290	483.785	0.454	1.008
-57.276	800.000	0.433	1.827
-56.261	-200.000	117.182	645.580
-55.246	499.219	1541.809	3468.392
-54.232	176.246	2709.813	3841.441
-53.217	104.177	2172.510	2494.057
-52.203	36.947	1689.431	1458.287
-51.188	29.647	1504.950	1249.841
-50.173	27.414	1479.862	1214.083
-49.159	49.660	1540.820	1416.358
-48.144	48.079	1555.324	1418.856
-47.130	29.562	1510.957	1254.047
-46.115	26.689	1495.245	1221.622
-45.100	26.403	1492.257	1217.207
-44.086	26.486	1490.011	1215.887
-43.071	26.349	1488.780	1213.910
-42.057	26.331	1486.814	1212.141
-41.042	26.372	1485.047	1210.923
-40.027	26.387	1483.292	1209.549
-39.013	26.368	1481.954	1208.279
-37.998	26.315	1481.440	1207.460
-36.984	26.343	1480.360	1206.721
-35.969	26.364	1478.930	1205.648
-34.954	26.390	1477.505	1204.607
-33.940	26.373	1476.178	1203.366
-32.925	26.395	1474.406	1202.023
-31.911	26.363	1473.280	1200.839
-30.896	26.517	1471.704	1200.534
-29.881	26.487	1470.324	1199.157
-28.867	26.426	1469.595	1198.113
-27.852	26.410	1468.389	1196.979
-26.838	26.454	1466.925	1196.023
-25.823	26.535	1465.257	1195.155
-24.809	26.581	1462.956	1193.532
-23.794	26.478	1462.767	1192.655
-22.779	26.582	1460.962	1191.818
-21.765	26.477	1460.355	1190.585
-20.750	26.457	1458.839	1189.171
-19.736	26.493	1457.894	1188.589
-18.721	26.424	1456.873	1187.253
-17.706	26.519	1455.367	1186.605
-16.692	26.407	1454.444	1185.070
-15.677	26.386	1453.296	1183.951
-14.663	26.464	1452.508	1183.776
-13.648	26.432	1451.916	1183.033
-12.633	26.350	1450.889	1181.615
-11.619	26.540	1449.839	1181.952
-10.604	26.375	1448.988	1180.133
-9.590	26.359	1448.463	1179.557
-8.575	26.396	1447.047	1178.597
-7.560	26.338	1446.163	1177.455
-6.546	26.327	1445.757	1177.004
-5.531	26.446	1444.747	1176.909
-4.517	26.430	1443.717	1175.923
-3.502	26.323	1442.702	1174.353
-2.487	26.348	1441.805	1173.737
-1.473	26.242	1441.050	1172.390
-0.458	26.369	1439.351	1171.781
0.556	26.613	1429.806	1161.050
1.571	23.685	1405.253	1122.527
2.586	20.375	1345.184	1054.384
3.600	18.815	1263.829	981.622
4.615	17.616	1220.654	941.383
5.629	15.127	1163.987	884.473
6.644	8.598	1083.973	791.396
7.659	3.759	1047.533	741.547
8.673	3.189	1042.013	734.852
9.688	3.284	1038.474	732.739
10.702	3.053	1037.549	730.927
11.717	3.224	1035.273	730.071
12.731	5.046	1036.128	739.251
13.746	11.733	1045.309	777.618
14.761	17.762	1053.425	812.390
15.775	19.688	1054.822	822.572
16.790	19.248	1053.321	819.240
17.804	18.293	1051.438	813.167
18.819	17.457	1049.612	807.717
19.834	16.844	1048.627	803.981
20.848	16.856	1047.460	803.073
21.863	16.814	1046.744	802.250
22.877	16.418	1046.147	799.851
23.892	16.272	1045.514	798.605
24.907	16.246	1044.695	797.785
25.921	16.230	1044.090	797.176
26.936	16.117	1043.479	796.107
27.950	16.195	1042.353	795.545
28.965	16.215	1040.852	794.423
29.980	16.254	1039.987	793.876
30.994	16.504	1038.685	793.987
32.009	16.588	1037.592	793.473
33.023	16.571	1037.608	793.338
34.038	16.543	1036.268	792.111
35.053	16.489	1035.200	790.971
36.067	16.462	1034.148	789.971
37.082	16.282	1033.631	788.665
38.096	16.314	1032.920	788.205
39.111	16.544	1031.901	788.426
40.126	16.400	1031.181	787.136
41.140	16.426	1029.905	786.213
42.155	16.215	1028.681	784.230
43.169	16.084	1027.848	782.919
44.184	16.078	1026.580	781.854
45.199	15.976	1025.581	780.552
46.213	15.994	1024.741	779.927
47.228	16.009	1024.340	779.622
48.242	16.105	1023.526	779.377
49.257	16.480	1021.706	779.652
50.271	16.309	1020.917	778.195
51.286	16.350	1020.028	777.636
52.301	16.418	1019.407	777.407
53.315	16.382	1018.394	776.401
54.330	16.304	1017.710	775.449
55.344	16.242	1016.667	774.301
56.359	16.121	1015.853	773.062
57.374	16.115	1015.033	772.341
58.388	16.041	1014.213	771.307
59.403	15.996	1013.471	770.471
60.417	16.039	1012.687	770.002
61.432	16.008	1012.057	769.317
62.447	16.101	1010.832	768.739
63.461	15.937	1010.177	767.426
64.476	15.830	1009.575	766.414
65.490	15.837	1008.433	765.510
66.505	15.951	1007.577	765.310
67.520	15.882	1006.909	764.421
68.534	15.982	1006.295	764.344
69.549	15.890	1005.700	763.406
70.563	15.960	1004.823	762.988
71.578	15.906	1004.339	762.310
72.593	15.819	1003.037	760.861
73.607	15.801	1001.810	759.782
74.622	15.814	1000.646	758.889
75.636	15.853	1000.264	758.711
76.651	15.896	999.232	758.055
77.666	15.816	998.522	757.086
78.680	15.914	997.780	756.898
79.695	15.844	997.487	756.296
80.709	15.778	996.625	755.278
81.724	15.947	995.817	755.358
82.739	16.161	995.034	755.654
83.753	16.204	994.670	755.504
84.768	16.319	993.790	755.285
85.782	16.411	993.704	755.562
86.797	16.638	992.827	755.843
87.812	16.574	991.580	754.540
88.826	16.472	991.070	753.630
89.841	16.413	990.035	752.514
90.855	16.411	989.397	751.955
91.870	16.556	988.590	751.921
92.884	16.570	987.706	751.245
93.899	16.481	987.477	750.606
94.914	16.417	986.978	749.876
95.928	16.494	985.756	749.226
96.943	16.540	985.257	748.980
97.957	16.562	984.359	748.332
98.972	16.397	983.443	746.837
99.987	16.595	982.597	747.004
101.001	16.532	981.977	746.192
102.016	16.580	981.391	745.888
103.030	16.532	980.297	744.780
104.045	16.521	979.296	743.904
105.060	16.532	978.305	743.137
106.074	16.450	977.321	741.963
107.089	16.237	976.412	740.271
108.103	16.104	975.613	739.018
109.118	16.035	974.451	737.770
110.133	16.039	973.908	737.313
111.147	16.052	972.657	736.355
112.162	15.904	971.991	735.139
113.176	15.981	971.081	734.723
114.191	16.024	970.722	734.575
115.206	16.229	969.285	734.313
116.220	16.132	968.677	733.365
117.235	16.241	967.787	733.103
118.249	16.179	966.775	731.999
119.264	16.020	966.448	730.999
120.279	15.936	965.561	729.899
121.293	15.961	964.359	729.036
122.308	16.005	963.532	728.536
123.322	15.925	962.826	727.591
124.337	15.828	961.995	726.478
125.352	15.926	960.540	725.740
126.366	15.809	959.879	724.673
127.381	15.905	958.885	724.271
128.395	15.807	957.834	722.992
129.410	15.847	956.988	722.460
130.424	15.818	955.998	721.526
131.439	15.949	955.083	721.332
132.454	15.894	954.696	720.739
133.468	16.040	953.402	720.323
134.483	16.118	953.446	720.626
135.497	16.105	952.827	720.040
136.512	16.150	951.968	719.518
137.527	16.104	951.080	718.588
138.541	16.084	950.052	717.660
139.556	15.980	949.721	716.908
140.570	16.196	948.647	716.949
141.585	16.377	947.767	716.991
142.600	16.480	947.308	717.013
143.614	16.398	946.820	716.235
144.629	16.576	945.967	716.279
145.643	16.524	945.493	715.639
146.658	16.578	944.526	715.071
147.673	16.427	943.813	713.829
148.687	16.484	942.309	712.869
149.702	16.328	941.667	711.663
150.716	16.090	940.918	710.030
151.731	16.183	939.837	709.547
152.746	16.250	939.288	709.351
153.760	16.284	938.634	708.936
154.775	16.290	938.078	708.479
155.789	16.437	937.184	708.356
156.804	16.511	936.444	708.044
157.819	16.488	935.799	707.396
158.833	16.306	935.249	706.158
159.848	16.491	934.703	706.458
160.862	16.580	933.887	706.149
161.877	16.591	933.235	705.639
162.892	16.415	932.291	704.129
163.906	16.247	931.288	702.611
164.921	16.176	930.389	701.574
165.935	16.269	929.727	701.401
166.950	16.409	928.192	700.763
167.964	16.525	927.274	700.486
168.979	16.282	926.954	699.175
169.994	16.232	925.966	698.163
171.008	16.378	924.667	697.723
172.023	16.387	924.093	697.265
173.037	16.511	923.369	697.172
174.052	16.766	922.549	697.539
175.067	16.577	922.144	696.394
176.081	16.405	921.205	694.917
177.096	16.282	920.142	693.546
178.110	16.266	919.161	692.680
179.125	16.232	918.665	692.106
180.140	16.485	917.927	692.526
181.154	16.472	917.287	691.930
182.169	16.462	917.232	691.783
183.183	16.584	916.420	691.607
184.198	16.713	915.801	691.610
185.213	16.804	914.930	691.259
186.227	16.684	914.504	690.388
187.242	16.744	913.985	690.179
188.256	16.652	913.331	689.249
189.271	16.830	912.870	689.565
190.286	16.827	912.248	689.021
191.300	16.743	910.752	687.491
192.315	16.458	909.895	685.628
193.329	16.240	909.139	684.111
194.344	16.365	908.637	684.180
195.359	16.394	908.120	683.847
196.373	16.465	907.753	683.798
197.388	16.479	907.440	683.558
198.402	16.686	907.309	684.237
199.417	16.848	906.613	684.305
200.432	16.879	906.351	684.174
201.446	17.143	905.742	684.718
202.461	17.055	905.330	683.992
203.475	17.060	905.243	683.883
204.490	17.153	904.172	683.387
205.504	16.835	903.495	681.538
206.519	16.870	902.422	680.808
207.534	16.778	901.617	679.772
208.548	16.826	901.112	679.522
209.563	16.946	899.925	679.050
210.577	16.897	899.697	678.621
211.592	17.000	898.914	678.382
212.607	17.134	898.512	678.555
213.621	17.193	898.068	678.394
214.636	17.121	897.646	677.727
215.650	17.145	896.764	677.100
216.665	17.192	895.609	676.354
217.680	17.218	895.610	676.396
218.694	17.194	895.167	675.908
219.709	17.272	894.717	675.817
220.723	17.388	893.804	675.529
221.738	17.172	893.264	674.204
222.753	17.272	892.238	673.767
223.767	17.138	891.662	672.739
224.782	17.311	890.666	672.615
225.796	17.305	890.226	672.199
226.811	17.456	889.701	672.340
227.826	17.380	888.959	671.421
228.840	17.191	888.608	670.348
229.855	17.232	887.619	669.707
230.869	17.189	887.026	669.031
231.884	17.160	886.221	668.249
232.899	17.117	885.435	667.428
233.913	17.096	884.624	666.674
234.928	16.966	884.361	665.909
235.942	16.926	883.851	665.309
236.957	16.937	882.733	664.450
237.972	17.003	882.495	664.472
238.986	17.082	881.430	663.922
240.001	17.175	881.344	664.159
241.015	17.181	880.297	663.335
242.030	17.117	880.054	662.843
243.045	17.177	879.337	662.478
244.059	17.225	878.685	662.117
245.074	17.240	878.127	661.695
246.088	17.345	877.282	661.407
247.103	17.362	876.950	661.166
248.117	17.413	876.464	660.939
249.132	17.491	875.592	660.524
250.147	17.729	875.697	661.472
251.161	17.929	874.805	661.512
252.176	17.840	874.160	660.623
253.190	17.856	873.875	660.409
254.205	18.080	873.187	660.697
255.220	18.074	872.127	659.815
256.234	17.993	871.521	658.984
257.249	18.067	870.901	658.743
258.263	18.061	870.686	658.498
259.278	17.953	870.167	657.632
260.293	17.939	869.120	656.730
261.307	17.979	868.654	656.471
262.322	18.166	867.891	656.557
263.336	18.124	867.651	656.155
264.351	18.224	867.147	656.099
265.366	18.194	866.195	655.204
266.380	18.306	865.852	655.317
267.395	18.062	865.515	654.069
268.409	18.187	864.341	653.604
269.424	17.963	863.721	652.220
270.439	18.221	862.816	652.463
271.453	17.972	862.258	651.037
272.468	17.941	861.546	650.321
273.482	17.816	860.941	649.333
274.497	17.909	860.226	649.088
275.512	17.926	859.500	648.547
276.526	17.965	858.865	648.158
277.541	17.856	858.579	647.471
278.555	18.004	857.909	647.473
279.570	18.204	857.235	647.661
280.585	18.246	857.064	647.635
281.599	18.280	856.313	647.140
282.614	18.356	855.525	646.775
283.628	18.163	855.146	645.701
284.643	18.180	854.404	645.149
285.657	17.998	854.144	644.208
286.672	18.160	853.466	644.251
287.687	18.180	852.528	643.559
288.701	18.129	852.211	643.072
289.716	18.339	851.464	643.242
290.730	18.247	851.362	642.761
291.745	18.300	850.632	642.351
292.760	18.226	849.884	641.453
293.774	18.340	849.139	641.260
294.789	18.416	848.954	641.347
295.803	18.397	848.376	640.784
296.818	18.292	847.427	639.618
297.833	18.051	847.176	638.473
298.847	18.232	846.086	638.270
299.862	18.254	845.366	637.753
300.876	18.252	844.587	637.100
301.891	18.516	844.153	637.699
302.906	18.516	843.841	637.406
303.920	18.712	842.793	637.287
304.935	18.671	842.836	637.112
305.949	18.870	841.770	636.987
306.964	18.620	841.427	635.742
307.979	18.558	840.927	635.079
308.993	18.579	840.177	634.533
310.008	18.634	839.437	634.121
311.022	18.723	839.140	634.170
312.037	18.609	838.755	633.402
313.052	18.628	838.071	632.900
314.066	18.549	837.357	632.015
315.081	18.399	836.722	630.927
316.095	18.427	836.143	630.538
317.110	18.496	835.573	630.307
318.125	18.336	835.238	629.407
319.139	18.289	834.695	628.773
320.154	18.380	834.196	628.674
321.168	18.432	833.741	628.467
322.183	18.545	832.796	628.113
323.197	18.416	832.794	627.583
324.212	18.490	832.110	627.284
325.227	18.622	831.414	627.184
326.241	18.568	831.157	626.738
327.256	18.615	830.283	626.195
328.270	18.468	829.873	625.294
329.285	18.415	829.735	624.941
330.300	18.633	828.550	624.789
331.314	18.392	828.632	623.917
332.329	18.661	827.309	623.843
333.343	18.590	827.483	623.662
334.358	18.623	826.784	623.198
335.373	18.755	826.201	623.184
336.387	18.693	825.466	622.349
337.402	18.738	825.171	622.236
338.416	18.837	824.421	621.973
339.431	18.984	824.383	622.421
340.446	19.197	823.492	622.463
341.460	19.068	823.126	621.665
342.475	19.358	822.285	622.020
343.489	19.064	822.077	620.749
344.504	19.188	821.485	620.692
345.519	19.332	820.724	620.584
346.533	19.382	820.313	620.396
347.548	19.243	819.949	619.568
348.562	19.216	818.914	618.633
349.577	19.042	818.856	617.910
350.592	19.023	818.356	617.407
351.606	18.931	817.734	616.555
352.621	18.981	816.766	615.951
353.635	18.900	816.720	615.571
354.650	19.030	816.257	615.631
355.665	18.994	815.910	615.187
356.679	19.089	815.312	615.023
357.694	19.113	815.075	614.873
358.708	19.117	814.316	614.262
359.723	19.385	813.426	614.492
360.738	19.036	813.494	613.243
361.752	19.208	812.736	613.231
362.767	19.099	812.672	612.740
363.781	19.185	812.315	612.724
364.796	19.340	811.521	612.620
365.810	19.561	811.250	613.148
366.825	19.616	811.061	613.145
367.840	19.565	810.699	612.635
368.854	19.632	810.438	612.622
369.869	19.424	809.529	611.144
370.883	19.565	808.901	611.114
371.898	19.393	808.349	610.036
372.913	19.526	808.289	610.408
373.927	19.566	807.625	609.991
374.942	19.560	807.024	609.464
375.956	19.690	805.719	608.883
376.971	19.568	805.515	608.244
377.986	19.561	805.545	608.187
379.000	19.847	804.628	608.448
380.015	19.922	804.322	608.425
381.029	19.745	803.856	607.398
382.044	19.670	803.165	606.559
383.059	19.708	802.479	606.121
384.073	19.766	802.147	606.022
385.088	19.817	801.408	605.586
386.102	19.599	800.593	604.155
387.117	19.586	800.180	603.743
388.132	19.567	799.712	603.272
389.146	19.570	799.567	603.119
390.161	19.611	799.110	602.863
391.175	19.782	798.708	603.102
392.190	19.696	798.597	602.668
393.205	19.721	797.918	602.189
394.219	19.597	797.207	601.166
395.234	19.585	796.863	600.811
396.248	19.540	796.230	600.124
397.263	19.600	795.440	599.685
398.278	19.508	795.375	599.262
399.292	19.361	795.037	598.446
400.307	19.395	794.446	598.064
401.321	19.592	794.100	598.435
402.336	19.581	793.431	597.838
403.350	19.408	793.549	597.278
404.365	19.645	792.822	597.498
405.380	19.848	792.268	597.727
406.394	19.850	792.334	597.731
407.409	20.096	791.740	598.078
408.423	20.030	791.406	597.548
409.438	20.018	790.783	596.983
410.453	20.093	790.421	596.915
411.467	20.351	789.679	597.190
412.482	20.130	789.729	596.412
413.496	20.283	789.188	596.477
414.511	20.249	789.045	596.202
415.526	20.261	788.427	595.723
416.540	20.264	787.782	595.191
417.555	20.165	787.428	594.533
418.569	20.064	787.181	593.946
419.584	20.115	786.763	593.754
420.599	20.215	786.187	593.610
421.613	162.253	1370.652	1796.822
422.628	140.429	1455.812	1796.913
