DTS Sentinel unit serial number:	SN413079Multiplexer serial number:	ORYXHardware model number:	OX4-SRSoftware version number:	ORYX F/W v4.00 Oryx Data Collector v3.7.2.0data status	okinstallation	princeton_trtdifferential loss correction	single-endedforward channel	channel 3reverse channel	N/Adate	2019/09/19time	01:56:35forward acquisition time	60.00reverse acquisition time	0.00gamma	496.2192k internal	0.2348k external	0.2348temperature offset calibration	0.9986default loss term (dB/km)	0.3790temperature slope calibration	1.0000multiplexer offset coefficient	1.0000multiplexer slope coefficient	1.0000fibre end	0.00T internal ref (°C)	21.31T ext. ref 1 (°C)	0.68T ext. ref 2 (°C)	14.86length (m)	temperature (°C)	Stokes	anti-Stokes-747.200	75.984	0.092	-0.097
-746.185	83.623	-0.122	0.133
-745.171	-172.570	0.201	-0.006
-744.156	800.000	-0.071	0.281
-743.142	-200.000	-0.053	0.266
-742.127	-116.385	0.136	-0.025
-741.112	-16.616	0.091	0.058
-740.098	-200.000	-0.004	0.077
-739.083	21.670	-0.163	0.132
-738.069	800.000	0.027	0.105
-737.054	28.558	-0.181	0.153
-736.039	80.326	-0.167	-0.179
-735.025	571.652	-0.155	0.378
-734.010	90.210	0.063	-0.070
-732.996	-135.228	-0.312	0.037
-731.981	-66.489	0.256	0.101
-730.966	151.096	0.126	-0.171
-729.952	224.978	0.138	-0.223
-728.937	-26.861	0.310	-0.181
-727.923	-105.256	-0.419	-0.095
-726.908	-122.619	0.318	-0.051
-725.894	-10.358	-0.193	-0.128
-724.879	-200.000	0.009	-0.341
-723.864	109.865	0.169	-0.203
-722.850	258.706	0.051	0.088
-721.835	-115.290	-0.032	0.006
-720.821	-200.000	-0.016	-0.187
-719.806	708.962	-0.030	0.078
-718.791	800.000	0.064	-0.202
-717.777	-135.305	-0.360	0.043
-716.762	323.910	-0.109	0.207
-715.748	-56.685	-0.081	0.036
-714.733	-200.000	0.008	-0.217
-713.718	-200.000	-0.004	-0.088
-712.704	800.000	0.057	-0.171
-711.689	-200.000	0.012	-0.119
-710.675	-95.632	-0.367	-0.098
-709.660	-132.798	-0.439	-0.056
-708.645	-200.000	-0.009	0.054
-707.631	780.216	-0.088	-0.241
-706.616	595.064	-0.038	0.094
-705.602	-200.000	0.017	0.090
-704.587	-75.567	0.142	0.050
-703.572	-25.601	0.259	-0.153
-702.558	37.904	-0.070	-0.062
-701.543	-200.000	-0.036	-0.315
-700.529	-200.000	0.048	0.227
-699.514	-146.456	-0.428	0.037
-698.499	-72.784	-0.372	-0.137
-697.485	427.313	0.013	-0.027
-696.470	-48.113	0.202	0.097
-695.456	-200.000	-0.034	0.285
-694.441	198.577	0.138	0.211
-693.426	177.729	-0.074	0.107
-692.412	-180.474	-0.433	0.009
-691.397	-118.172	0.069	-0.012
-690.383	283.294	0.083	0.149
-689.368	-102.148	-0.146	-0.035
-688.354	71.030	0.208	-0.215
-687.339	113.190	0.104	0.126
-686.324	-72.919	0.158	-0.058
-685.310	461.189	-0.091	-0.203
-684.295	-12.729	0.096	0.062
-683.281	7.176	0.223	-0.166
-682.266	-107.935	-0.230	-0.050
-681.251	800.000	0.096	0.270
-680.237	128.218	-0.106	-0.134
-679.222	-34.004	0.180	-0.099
-678.208	-113.502	0.326	0.064
-677.193	195.988	-0.174	0.264
-676.178	-200.000	0.018	-0.219
-675.164	42.992	0.311	0.282
-674.149	800.000	-0.079	-0.319
-673.135	307.465	-0.080	0.148
-672.120	164.070	0.082	0.115
-671.105	528.894	0.131	0.307
-670.091	-75.700	0.077	-0.027
-669.076	-200.000	-0.071	0.623
-668.062	-47.045	-0.161	0.078
-667.047	-200.000	-0.471	0.002
-666.032	35.424	-0.113	-0.099
-665.018	422.943	0.070	-0.150
-664.003	-119.164	-0.191	0.033
-662.989	409.072	-0.126	0.266
-661.974	-36.132	-0.361	-0.194
-660.959	-200.000	-0.089	-0.396
-659.945	53.136	0.263	-0.251
-658.930	-8.652	0.099	0.066
-657.916	88.033	0.054	-0.060
-656.901	-200.000	0.031	-0.331
-655.886	-121.850	0.357	0.059
-654.872	-130.971	0.177	-0.024
-653.857	800.000	0.007	0.020
-652.843	-200.000	-0.079	0.377
-651.828	-200.000	-0.012	0.112
-650.814	-200.000	-0.025	-0.261
-649.799	258.553	0.105	-0.180
-648.784	-33.264	0.067	-0.037
-647.770	-105.003	0.205	-0.047
-646.755	-200.000	-0.001	-0.114
-645.741	800.000	0.067	-0.190
-644.726	134.269	-0.135	0.175
-643.711	78.688	-0.203	0.216
-642.697	-46.189	-0.150	-0.073
-641.682	795.595	0.157	0.431
-640.668	-114.713	-0.358	-0.068
-639.653	-100.244	0.150	0.037
-638.638	588.339	-0.058	0.141
-637.624	6.185	0.104	-0.077
-636.609	-58.392	-0.237	0.103
-635.595	0.482	-0.143	0.101
-634.580	-187.498	-0.334	-0.004
-633.565	473.115	0.091	-0.205
-632.551	-200.000	-0.017	-0.111
-631.536	-4.339	-0.074	-0.051
-630.522	-100.774	0.234	-0.057
-629.507	-200.000	0.071	-0.359
-628.492	-200.000	-0.041	-0.228
-627.478	-200.000	0.034	0.234
-626.463	-200.000	0.022	0.144
-625.449	-141.452	-0.230	0.023
-624.434	-74.720	0.105	-0.038
-623.419	-49.022	-0.257	0.122
-622.405	15.013	0.119	0.093
-621.390	-42.332	-0.077	-0.039
-620.376	-200.000	0.026	0.223
-619.361	-200.000	0.004	-0.220
-618.346	198.523	-0.173	-0.263
-617.332	-39.380	-0.173	0.090
-616.317	-200.000	-0.015	0.146
-615.303	144.265	0.230	-0.306
-614.288	-67.868	-0.108	-0.042
-613.273	702.474	0.130	-0.341
-612.259	-99.510	-0.123	0.031
-611.244	0.694	0.254	0.181
-610.230	64.300	0.131	0.131
-609.215	-200.000	0.014	-0.074
-608.201	-136.820	-0.290	-0.033
-607.186	-200.000	-0.032	0.433
-606.171	-68.761	-0.080	0.031
-605.157	-142.440	0.261	0.026
-604.142	-43.572	-0.238	-0.120
-603.128	-200.000	0.036	0.302
-602.113	-31.335	0.150	0.084
-601.098	-200.000	0.055	-0.308
-600.084	196.764	-0.035	0.053
-599.069	75.296	0.310	0.325
-598.055	509.264	0.192	0.442
-597.040	-119.970	0.238	0.041
-596.025	-13.751	-0.138	-0.089
-595.011	-28.054	-0.240	0.138
-593.996	183.645	0.129	-0.189
-592.982	-164.060	-0.098	0.004
-591.967	120.585	-0.175	-0.216
-590.952	800.000	0.022	-0.078
-589.938	-200.000	0.025	-0.223
-588.923	-151.171	-0.212	0.016
-587.909	-51.785	0.162	0.075
-586.894	800.000	-0.064	0.219
-585.879	26.679	0.217	0.180
-584.865	-164.423	-0.205	-0.009
-583.850	-108.174	0.299	0.064
-582.836	369.218	0.114	-0.228
-581.821	388.854	0.035	-0.071
-580.806	179.073	-0.165	0.239
-579.792	-199.608	0.259	-0.001
-578.777	-23.155	0.215	0.128
-577.763	-200.000	-0.051	-0.261
-576.748	-64.130	0.314	-0.127
-575.733	219.660	-0.152	0.241
-574.719	37.171	0.125	0.110
-573.704	-89.519	-0.270	0.079
-572.690	-200.000	0.054	-0.423
-571.675	-88.154	-0.307	-0.091
-570.661	0.652	0.039	0.028
-569.646	-200.000	0.005	-0.167
-568.631	6.343	0.067	-0.049
-567.617	-200.000	0.011	-0.058
-566.602	-70.876	0.145	-0.054
-565.588	67.518	-0.270	0.274
-564.573	243.235	0.099	-0.165
-563.558	-84.502	0.253	0.079
-562.544	-133.605	-0.070	0.009
-561.529	16.229	-0.060	-0.047
-560.515	-165.382	0.142	-0.006
-559.500	-40.853	-0.180	-0.093
-558.485	-94.312	-0.364	0.099
-557.471	-200.000	-0.028	0.146
-556.456	545.686	-0.104	-0.246
-555.442	36.139	-0.123	-0.107
-554.427	800.000	-0.008	0.033
-553.412	-44.338	0.288	-0.143
-552.398	628.850	0.087	-0.219
-551.383	-25.357	0.212	-0.124
-550.369	45.370	-0.052	-0.048
-549.354	800.000	-0.186	0.561
-548.339	216.063	0.002	0.004
-547.325	20.539	0.190	-0.152
-546.310	293.713	0.086	-0.156
-545.296	42.497	0.108	-0.097
-544.281	71.793	-0.086	0.089
-543.266	-49.792	-0.088	0.041
-542.252	26.480	-0.066	-0.055
-541.237	129.100	-0.090	-0.114
-540.223	36.824	0.135	0.119
-539.208	-114.488	-0.300	-0.057
-538.193	18.063	-0.255	0.201
-537.179	70.909	0.030	-0.031
-536.164	-120.245	-0.150	0.025
-535.150	525.661	-0.085	-0.198
-534.135	9.262	-0.206	-0.154
-533.121	800.000	-0.072	-0.279
-532.106	-200.000	0.065	-0.294
-531.091	68.779	-0.178	-0.181
-530.077	-12.949	-0.173	-0.112
-529.062	-84.813	-0.209	-0.065
-528.048	800.000	-0.060	0.240
-527.033	-52.528	0.068	-0.031
-526.018	218.355	-0.042	-0.066
-525.004	90.775	-0.064	0.071
-523.989	-34.341	0.129	0.070
-522.975	-200.000	-0.060	-0.292
-521.960	-200.000	-0.091	0.484
-520.945	2.533	0.176	-0.126
-519.931	-200.000	-0.001	-0.341
-518.916	-114.506	0.201	0.038
-517.902	-149.801	-0.181	-0.014
-516.887	800.000	0.090	-0.351
-515.872	-82.505	-0.118	0.038
-514.858	800.000	0.052	0.183
-513.843	-41.737	0.217	-0.110
-512.829	-200.000	-0.008	-0.085
-511.814	-158.798	0.077	0.004
-510.799	-116.902	0.156	0.028
-509.785	-200.000	-0.001	-0.260
-508.770	161.114	0.032	0.044
-507.756	-200.000	-0.009	-0.067
-506.741	800.000	-0.047	-0.203
-505.726	-200.000	-0.016	-0.199
-504.712	20.792	0.101	-0.081
-503.697	30.280	0.169	-0.143
-502.683	-120.355	0.372	0.063
-501.668	350.839	0.098	-0.192
-500.653	-7.812	0.210	0.140
-499.639	-50.336	-0.106	-0.049
-498.624	800.000	0.088	0.287
-497.610	-200.000	0.009	0.081
-496.595	800.000	0.027	-0.112
-495.581	146.411	0.149	0.198
-494.566	800.000	-0.093	0.309
-493.551	-147.432	-0.190	0.016
-492.537	-12.211	-0.215	0.139
-491.522	800.000	-0.067	0.230
-490.508	800.000	0.024	0.069
-489.493	-147.331	0.117	0.010
-488.478	800.000	-0.050	0.138
-487.464	-200.000	-0.002	-0.122
-486.449	-95.218	-0.131	-0.035
-485.435	138.340	-0.166	-0.215
-484.420	800.000	0.095	-0.410
-483.405	-138.702	0.313	0.034
-482.391	-200.000	-0.024	0.135
-481.376	4.966	-0.345	-0.251
-480.362	-37.324	0.142	-0.075
-479.347	19.163	0.134	-0.106
-478.332	-76.279	0.155	-0.054
-477.318	-26.157	0.321	-0.186
-476.303	304.283	0.093	-0.171
-475.289	-6.890	-0.083	0.056
-474.274	-79.475	-0.110	0.037
-473.259	63.375	-0.108	0.107
-472.245	-200.000	0.048	-0.265
-471.230	312.266	-0.032	-0.060
-470.216	197.407	0.188	0.283
-469.201	299.074	-0.048	0.087
-468.186	-200.000	0.023	-0.123
-467.172	1.103	-0.155	-0.110
-466.157	11.168	0.211	0.159
-465.143	-200.000	0.356	0.001
-464.128	-79.478	-0.211	0.071
-463.113	-67.409	0.095	-0.037
-462.099	-3.961	0.122	-0.083
-461.084	-200.000	0.026	-0.157
-460.070	-74.385	0.114	0.041
-459.055	-167.469	0.044	-0.002
-458.040	53.312	-0.177	0.167
-457.026	-200.000	-0.000	0.327
-456.011	-200.000	-0.007	0.065
-454.997	-200.000	0.033	-0.183
-453.982	-157.067	-0.274	0.016
-452.968	134.167	-0.165	0.211
-451.953	800.000	-0.080	0.314
-450.938	8.796	0.144	-0.107
-449.924	531.186	0.151	0.353
-448.909	96.903	-0.106	0.120
-447.895	78.309	0.301	-0.318
-446.880	-148.818	0.230	-0.018
-445.865	108.735	0.076	0.089
-444.851	-145.843	0.182	-0.016
-443.836	654.904	-0.055	0.139
-442.822	-92.544	0.244	-0.068
-441.807	244.911	-0.109	-0.181
-440.792	94.524	-0.099	0.112
-439.778	-104.820	0.326	0.074
-438.763	549.594	0.115	0.273
-437.749	261.009	0.099	0.168
-436.734	10.965	0.077	-0.058
-435.719	-7.081	0.242	-0.162
-434.705	17.464	-0.029	-0.023
-433.690	-200.000	0.016	0.361
-432.676	800.000	0.022	0.078
-431.661	166.164	-0.096	-0.134
-430.646	3.023	0.214	-0.154
-429.632	800.000	-0.074	0.204
-428.617	-169.586	0.239	-0.009
-427.603	-129.720	0.363	0.049
-426.588	800.000	0.035	-0.118
-425.573	447.672	0.040	-0.086
-424.559	-200.000	-0.034	0.304
-423.544	800.000	-0.069	0.247
-422.530	230.465	0.048	0.077
-421.515	624.375	-0.132	-0.329
-420.500	-3.645	0.240	0.165
-419.486	225.403	0.155	-0.247
-418.471	-56.401	-0.116	-0.051
-417.457	-99.681	-0.266	-0.066
-416.442	-200.000	-0.028	-0.582
-415.428	-126.062	0.174	-0.026
-414.413	800.000	0.069	0.192
-413.398	-112.949	0.287	-0.056
-412.384	606.173	-0.051	0.126
-411.369	187.338	-0.165	-0.242
-410.355	61.182	0.116	0.114
-409.340	-4.261	-0.114	0.078
-408.325	-64.026	-0.287	0.116
-407.311	231.877	0.203	0.328
-406.296	800.000	-0.111	0.356
-405.282	-200.000	-0.008	0.255
-404.267	357.954	0.065	-0.127
-403.252	-39.906	-0.276	-0.142
-402.238	-189.017	0.079	0.001
-401.223	24.576	-0.223	-0.182
-400.209	159.868	0.153	0.211
-399.194	-200.000	-0.011	0.079
-398.179	3.780	-0.212	0.153
-397.165	-147.566	-0.280	-0.023
-396.150	44.277	0.221	0.200
-395.136	-200.000	-0.006	-0.156
-394.121	-30.863	-0.103	0.057
-393.106	-36.910	-0.277	-0.146
-392.092	168.636	0.041	-0.057
-391.077	-98.047	-0.449	0.114
-390.063	-41.571	0.161	0.081
-389.048	800.000	-0.060	0.258
-388.033	-200.000	-0.011	0.190
-387.019	-28.953	-0.298	-0.169
-386.004	-133.601	0.109	0.013
-384.990	-200.000	-0.020	-0.241
-383.975	-200.000	0.018	-0.251
-382.960	-27.120	-0.314	0.180
-381.946	19.466	0.087	0.069
-380.931	-24.633	-0.214	0.125
-379.917	149.232	0.175	-0.233
-378.902	-95.077	0.086	-0.023
-377.888	-6.981	0.250	0.167
-376.873	18.299	0.108	0.085
-375.858	91.806	-0.101	-0.111
-374.844	-55.240	0.329	-0.145
-373.829	226.310	-0.096	-0.153
-372.815	800.000	0.220	-0.639
-371.800	800.000	0.015	0.045
-370.785	-200.000	0.016	0.188
-369.771	-3.180	-0.129	0.089
-368.756	33.449	-0.091	0.078
-367.742	-141.946	0.187	-0.018
-366.727	-6.060	0.162	0.109
-365.712	-43.514	-0.271	-0.134
-364.698	61.990	0.200	0.196
-363.683	800.000	0.056	0.192
-362.669	-3.370	-0.228	0.156
-361.654	-64.476	0.074	-0.030
-360.639	441.175	-0.063	-0.136
-359.625	-93.609	0.161	0.044
-358.610	-132.714	-0.165	0.021
-357.596	167.221	-0.230	-0.321
-356.581	28.391	0.102	-0.085
-355.566	-87.944	0.256	0.076
-354.552	800.000	0.048	0.163
-353.537	85.218	0.280	0.302
-352.523	543.823	-0.022	0.051
-351.508	355.037	-0.180	0.353
-350.493	-14.726	0.206	-0.130
-349.479	-10.496	0.213	-0.139
-348.464	191.396	0.198	-0.294
-347.450	-117.986	-0.147	-0.026
-346.435	-116.718	0.218	-0.039
-345.420	181.226	-0.032	-0.046
-344.406	-87.281	-0.065	-0.019
-343.391	570.883	-0.049	-0.118
-342.377	72.030	0.218	-0.223
-341.362	90.413	0.076	-0.083
-340.348	-200.000	0.015	0.172
-339.333	7.039	-0.231	-0.169
-338.318	-100.117	0.092	-0.023
-337.304	152.339	-0.031	0.041
-336.289	149.934	0.097	-0.129
-335.275	123.347	-0.036	-0.044
-334.260	365.017	-0.080	-0.159
-333.245	244.596	0.105	0.173
-332.231	0.052	-0.043	-0.030
-331.216	3.619	-0.247	-0.177
-330.202	-200.000	-0.013	0.186
-329.187	148.787	0.082	0.109
-328.172	-112.287	0.089	0.018
-327.158	667.130	0.070	-0.178
-326.143	-132.806	0.246	0.031
-325.129	800.000	-0.136	-0.472
-324.114	800.000	-0.096	-0.325
-323.099	9.781	0.097	0.072
-322.085	-72.278	0.347	0.126
-321.070	137.120	0.100	-0.128
-320.056	387.356	0.187	0.379
-319.041	-200.000	-0.020	0.345
-318.026	-39.988	0.144	-0.074
-317.012	-173.156	-0.255	-0.008
-315.997	-155.811	0.447	-0.028
-314.983	216.019	-0.057	-0.089
-313.968	186.640	-0.069	-0.101
-312.953	-112.370	-0.233	-0.046
-311.939	800.000	-0.046	-0.129
-310.924	-92.405	-0.041	0.011
-309.910	800.000	-0.059	0.251
-308.895	111.607	0.209	-0.247
-307.880	-173.781	-0.218	-0.006
-306.866	-200.000	0.067	0.482
-305.851	800.000	0.042	-0.139
-304.837	-95.304	-0.332	-0.088
-303.822	98.080	0.276	0.312
-302.807	-191.260	-0.055	-0.001
-301.793	14.150	0.299	0.229
-300.778	-39.689	-0.219	0.112
-299.764	249.712	-0.120	0.200
-298.749	-60.140	-0.008	0.003
-297.735	-200.000	-0.036	0.240
-296.720	148.859	-0.238	0.316
-295.705	-200.000	-0.019	-0.396
-294.691	-119.178	-0.263	0.045
-293.676	-200.000	-0.038	-0.307
-292.662	800.000	-0.041	-0.122
-291.647	-2.883	-0.342	-0.234
-290.632	16.541	0.032	0.025
-289.618	658.171	-0.053	-0.134
-288.603	-22.647	-0.154	0.091
-287.589	672.403	-0.106	-0.270
-286.574	-48.609	0.023	-0.011
-285.559	44.333	0.126	0.114
-284.545	-62.029	0.197	0.081
-283.530	48.311	-0.190	-0.174
-282.516	91.442	-0.194	0.214
-281.501	58.577	-0.360	0.347
-280.486	116.986	0.127	0.153
-279.472	104.480	-0.163	0.188
-278.457	-80.770	0.401	-0.131
-277.443	100.140	-0.261	0.296
-276.428	-200.000	-0.014	0.271
-275.413	-103.628	0.312	0.072
-274.399	-18.282	0.058	0.036
-273.384	-71.084	0.064	0.024
-272.370	-200.000	0.080	-0.457
-271.355	-33.641	0.313	-0.170
-270.340	800.000	0.046	0.174
-269.326	-127.512	0.308	-0.044
-268.311	800.000	0.041	-0.128
-267.297	49.326	-0.193	0.178
-266.282	240.104	-0.024	0.040
-265.267	-16.129	-0.245	-0.152
-264.253	234.895	-0.187	-0.303
-263.238	-67.848	-0.156	0.060
-262.224	-124.339	-0.398	-0.061
-261.209	-200.000	-0.048	-0.402
-260.195	-44.241	0.130	0.064
-259.180	437.005	-0.117	-0.250
-258.165	-106.080	-0.118	0.026
-257.151	800.000	0.100	0.280
-256.136	800.000	0.135	-0.365
-255.122	45.729	0.087	0.079
-254.107	-166.771	-0.263	-0.011
-253.092	-200.000	0.015	-0.112
-252.078	-200.000	-0.018	0.200
-251.063	77.803	0.298	0.311
-250.049	7.238	-0.138	-0.101
-249.034	581.654	0.100	0.240
-248.019	-161.178	0.028	-0.001
-247.005	-47.277	-0.116	-0.055
-245.990	211.715	0.068	-0.105
-244.976	-99.953	-0.166	0.041
-243.961	-200.000	-0.016	-0.201
-242.946	800.000	-0.028	-0.079
-241.932	-153.590	0.303	0.021
-240.917	-83.607	-0.091	0.028
-239.903	129.712	-0.133	0.166
-238.888	-45.722	-0.096	0.046
-237.873	53.496	0.085	-0.080
-236.859	167.830	0.205	-0.286
-235.844	-133.906	-0.333	0.041
-234.830	800.000	-0.036	0.103
-233.815	-1.484	-0.109	0.075
-232.800	367.681	-0.062	-0.122
-231.786	336.032	0.117	-0.223
-230.771	122.179	-0.155	-0.190
-229.757	257.775	0.100	0.169
-228.742	-53.777	-0.254	0.113
-227.727	114.279	0.036	0.043
-226.713	291.829	-0.051	-0.090
-225.698	-22.349	-0.238	0.141
-224.684	-97.140	-0.208	0.053
-223.669	589.794	-0.081	-0.195
-222.655	-200.000	0.031	0.139
-221.640	-192.267	0.068	0.001
-220.625	-200.000	-0.011	-0.056
-219.611	68.545	0.115	0.116
-218.596	-80.394	-0.221	0.072
-217.582	175.073	0.073	-0.104
-216.567	800.000	-0.026	0.111
-215.552	-200.000	-0.007	-0.157
-214.538	464.750	-0.055	-0.120
-213.523	-8.764	-0.391	0.257
-212.509	687.883	-0.049	0.126
-211.494	800.000	0.085	0.280
-210.479	-200.000	-0.013	0.275
-209.465	-44.728	-0.298	-0.146
-208.450	-62.624	0.233	-0.095
-207.436	516.091	0.210	-0.479
-206.421	18.858	-0.185	-0.145
-205.406	800.000	0.048	0.144
-204.392	-114.970	0.293	0.055
-203.377	-104.094	-0.126	-0.029
-202.363	-200.000	-0.045	0.274
-201.348	213.128	0.077	-0.119
-200.333	46.267	0.149	0.135
-199.319	34.796	0.100	0.085
-198.304	-200.000	0.035	-0.164
-197.290	15.867	-0.172	-0.133
-196.275	93.980	-0.165	-0.183
-195.260	-126.444	-0.393	0.057
-194.246	-35.152	0.159	0.085
-193.231	-95.093	0.418	-0.110
-192.217	-85.695	0.267	0.081
-191.202	173.918	-0.069	-0.098
-190.187	143.341	-0.098	-0.127
-189.173	-126.994	-0.333	0.048
-188.158	22.780	0.171	-0.137
-187.144	-128.170	-0.220	-0.031
-186.129	-0.871	-0.171	0.118
-185.114	623.981	-0.190	0.468
-184.100	-29.240	0.137	0.077
-183.085	149.437	0.249	0.329
-182.071	-158.750	-0.393	0.022
-181.056	112.057	-0.076	0.090
-180.042	-200.000	-0.022	-0.352
-179.027	-200.000	0.027	0.139
-178.012	-73.901	-0.147	0.052
-176.998	-49.924	0.265	0.123
-175.983	16.411	0.183	0.141
-174.969	800.000	-0.080	0.291
-173.954	-200.000	0.009	-0.142
-172.939	-13.245	-0.182	-0.116
-171.925	216.476	-0.148	0.229
-170.910	-22.434	-0.109	0.064
-169.896	-200.000	-0.016	0.180
-168.881	13.635	0.064	-0.048
-167.866	230.078	0.087	0.140
-166.852	9.615	-0.248	0.184
-165.837	685.408	0.130	0.332
-164.823	-52.264	-0.222	-0.101
-163.808	-105.587	0.265	-0.059
-162.793	800.000	0.033	-0.111
-161.779	-40.721	0.178	-0.090
-160.764	-71.658	-0.337	-0.123
-159.750	107.164	-0.140	-0.162
-158.735	800.000	-0.041	-0.152
-157.720	-145.744	-0.128	-0.011
-156.706	-122.317	0.364	-0.058
-155.691	421.798	0.055	-0.115
-154.677	164.433	0.181	-0.250
-153.662	-200.000	-0.008	0.151
-152.647	302.587	0.190	0.343
-151.633	-109.451	0.233	-0.048
-150.618	-200.000	-0.016	0.225
-149.604	680.444	-0.087	0.220
-148.589	476.712	-0.119	0.263
-147.574	-117.340	0.273	0.048
-146.560	554.877	0.160	0.375
-145.545	402.737	-0.042	-0.087
-144.531	-200.000	0.080	0.355
-143.516	-169.496	0.267	0.010
-142.502	16.467	0.136	-0.105
-141.487	178.027	0.123	-0.176
-140.472	-143.538	0.275	0.026
-139.458	552.172	-0.125	-0.294
-138.443	-200.000	0.087	-0.413
-137.429	-99.291	0.117	-0.029
-136.414	578.329	0.129	-0.308
-135.399	331.440	-0.086	-0.162
-134.385	-108.778	0.225	0.047
-133.370	-37.107	-0.209	0.109
-132.356	-156.247	-0.192	0.012
-131.341	-131.582	0.237	0.030
-130.326	-200.000	-0.034	0.366
-129.312	-106.560	0.397	-0.086
-128.297	158.670	-0.184	0.249
-127.283	800.000	0.056	0.191
-126.268	114.548	-0.229	-0.272
-125.253	-42.991	0.383	0.189
-124.239	73.280	-0.087	0.088
-123.224	800.000	-0.052	0.217
-122.210	79.753	-0.015	0.015
-121.195	134.529	0.038	-0.048
-120.180	-200.000	0.014	-0.061
-119.166	419.635	0.072	-0.149
-118.151	800.000	-0.049	-0.133
-117.137	5.148	0.241	0.173
-116.122	154.201	0.129	-0.172
-115.107	800.000	0.057	0.203
-114.093	-18.677	-0.183	-0.111
-113.078	-11.730	0.124	-0.079
-112.064	800.000	0.050	0.200
-111.049	-123.491	0.059	0.009
-110.034	-200.000	-0.004	-0.018
-109.020	800.000	0.125	-0.346
-108.005	-93.992	0.230	-0.062
-106.991	263.779	-0.023	-0.040
-105.976	-73.719	0.088	-0.031
-104.962	800.000	0.038	-0.138
-103.947	-134.746	0.500	-0.059
-102.932	-200.000	0.007	0.194
-101.918	-162.800	0.033	-0.002
-100.903	222.440	0.060	-0.094
-99.889	99.693	-0.244	-0.275
-98.874	-21.562	0.182	-0.108
-97.859	-200.000	-0.006	-0.066
-96.845	55.934	-0.133	0.125
-95.830	-200.000	0.009	-0.056
-94.816	238.710	0.070	-0.113
-93.801	800.000	-0.041	0.122
-92.786	-62.025	0.273	-0.111
-91.772	-200.000	-0.037	-0.314
-90.757	-28.851	-0.021	0.012
-89.743	-200.000	-0.014	0.187
-88.728	-200.000	0.024	0.287
-87.713	130.397	0.130	0.162
-86.699	421.467	0.131	0.274
-85.684	-46.085	0.204	0.098
-84.670	506.085	-0.055	0.124
-83.655	-94.080	0.154	-0.041
-82.640	133.271	-0.077	0.097
-81.626	237.239	-0.129	0.208
-80.611	-200.000	0.042	-0.293
-79.597	208.219	-0.152	-0.231
-78.582	133.399	0.085	-0.107
-77.567	-149.407	0.175	0.014
-76.553	-35.435	-0.104	-0.055
-75.538	-128.601	-0.353	0.049
-74.524	-23.263	-0.174	0.102
-73.509	-91.651	-0.359	-0.099
-72.494	168.025	0.067	0.093
-71.480	-200.000	-0.024	-0.106
-70.465	246.691	0.102	0.167
-69.451	44.004	0.191	-0.171
-68.436	800.000	0.055	0.206
-67.422	800.000	0.060	-0.225
-66.407	-109.455	0.157	-0.032
-65.392	-194.283	0.032	-0.000
-64.378	706.425	0.201	-0.517
-63.363	-142.433	0.103	0.010
-62.349	-200.000	-0.000	0.028
-61.334	102.451	-1.181	-1.343
-60.319	128.991	0.711	0.882
-59.305	246.599	-0.785	-1.287
-58.290	595.794	0.672	1.617
-57.276	529.341	0.510	1.170
-56.261	-200.000	134.629	684.722
-55.246	341.409	1676.066	3185.097
-54.232	134.563	2803.601	3536.927
-53.217	88.251	2192.864	2366.849
-52.203	31.431	1709.593	1428.208
-51.188	24.300	1532.331	1231.043
-50.173	22.636	1510.296	1201.955
-49.159	47.317	1585.418	1435.707
-48.144	43.943	1596.219	1421.809
-47.130	24.386	1544.815	1241.474
-46.115	21.581	1528.933	1209.312
-45.100	21.308	1525.228	1204.449
-44.086	21.382	1523.390	1203.465
-43.071	21.249	1522.026	1201.422
-42.057	21.267	1520.068	1199.954
-41.042	21.241	1518.438	1198.436
-40.027	21.310	1516.504	1197.335
-39.013	21.312	1515.197	1196.270
-37.998	21.223	1514.600	1195.143
-36.984	21.214	1513.460	1194.133
-35.969	21.296	1511.899	1193.414
-34.954	21.267	1510.220	1191.844
-33.940	21.194	1509.320	1190.591
-32.925	21.258	1507.753	1189.741
-31.911	21.303	1506.225	1188.799
-30.896	21.318	1505.202	1188.043
-29.881	21.377	1503.922	1187.391
-28.867	21.329	1502.317	1185.746
-27.852	21.292	1501.260	1184.619
-26.838	21.377	1499.667	1183.889
-25.823	21.368	1497.995	1182.458
-24.809	21.439	1496.273	1181.536
-23.794	21.381	1495.276	1180.310
-22.779	21.298	1494.378	1178.994
-21.765	21.373	1493.197	1178.522
-20.750	21.422	1492.154	1177.981
-19.736	21.310	1491.518	1176.674
-18.721	21.314	1490.187	1175.604
-17.706	21.328	1489.040	1174.748
-16.692	21.366	1487.544	1173.774
-15.677	21.354	1486.851	1173.102
-14.663	21.392	1485.391	1172.162
-13.648	21.317	1484.608	1170.993
-12.633	21.295	1483.684	1170.069
-11.619	21.275	1483.322	1169.603
-10.604	21.252	1481.817	1168.220
-9.590	21.230	1481.886	1168.079
-8.575	21.255	1480.701	1167.266
-7.560	21.391	1479.482	1167.166
-6.546	21.340	1478.706	1166.165
-5.531	21.381	1477.648	1165.559
-4.517	21.305	1476.550	1164.140
-3.502	21.327	1475.660	1163.541
-2.487	21.251	1475.026	1162.490
-1.473	21.260	1473.633	1161.400
-0.458	21.339	1472.281	1160.815
0.556	20.152	1462.079	1148.221
1.571	17.014	1437.656	1108.471
2.586	13.578	1376.030	1039.343
3.600	11.949	1291.879	966.097
4.615	11.072	1247.869	928.104
5.629	9.918	1191.145	879.554
6.644	5.174	1110.872	796.064
7.659	1.187	1076.370	751.541
8.673	0.865	1070.903	746.074
9.688	0.691	1067.795	742.984
10.702	0.560	1066.452	741.343
11.717	0.604	1064.286	739.986
12.731	2.248	1064.512	748.130
13.746	7.828	1071.879	780.683
14.761	14.096	1079.682	817.188
15.775	16.923	1083.445	833.884
16.790	16.948	1082.172	832.953
17.804	15.954	1080.389	826.632
18.819	15.198	1078.137	821.134
19.834	14.619	1076.876	817.265
20.848	14.389	1076.185	815.544
21.863	14.283	1075.249	814.245
22.877	13.949	1074.554	812.011
23.892	13.728	1073.500	810.065
24.907	13.609	1072.683	808.793
25.921	13.652	1071.963	808.390
26.936	13.731	1071.083	808.042
27.950	13.812	1070.811	808.159
28.965	13.740	1070.192	807.270
29.980	13.811	1068.772	806.470
30.994	13.713	1067.830	805.212
32.009	13.773	1067.407	805.114
33.023	13.961	1066.006	804.897
34.038	13.855	1065.641	804.036
35.053	13.927	1064.525	803.475
36.067	13.870	1063.347	802.239
37.082	13.843	1062.784	801.610
38.096	13.861	1061.856	800.926
39.111	13.941	1060.850	800.484
40.126	13.954	1059.783	799.671
41.140	13.723	1059.015	797.909
42.155	13.776	1057.841	797.208
43.169	13.744	1057.232	796.522
44.184	13.656	1056.217	795.264
45.199	13.658	1055.005	794.293
46.213	13.745	1053.964	793.857
47.228	13.692	1053.078	792.865
48.242	13.764	1051.947	792.288
49.257	13.699	1051.173	791.323
50.271	13.843	1050.060	791.102
51.286	13.837	1049.087	790.269
52.301	13.821	1048.419	789.624
53.315	13.710	1047.991	788.702
54.330	13.812	1046.543	788.025
55.344	13.685	1046.370	787.224
56.359	13.770	1045.150	786.637
57.374	13.684	1044.332	785.545
58.388	13.798	1043.373	785.296
59.403	13.843	1042.522	784.797
60.417	13.725	1041.930	783.723
61.432	13.797	1040.696	783.066
62.447	13.686	1040.360	782.220
63.461	13.603	1039.632	781.215
64.476	13.680	1038.611	780.739
65.490	13.697	1037.802	780.144
66.505	13.780	1036.516	779.496
67.520	13.663	1036.515	778.877
68.534	13.768	1035.314	778.397
69.549	13.791	1034.448	777.785
70.563	13.749	1033.736	776.986
71.578	13.737	1033.215	776.468
72.593	13.801	1031.863	775.685
73.607	13.645	1031.028	774.258
74.622	13.561	1030.889	773.694
75.636	13.645	1029.256	772.791
76.651	13.526	1028.301	771.452
77.666	13.530	1028.210	771.336
78.680	13.501	1027.471	770.578
79.695	13.594	1026.894	770.508
80.709	13.605	1026.439	770.149
81.724	13.665	1025.289	769.497
82.739	13.608	1024.431	768.522
83.753	13.745	1023.690	768.531
84.768	13.762	1023.146	768.135
85.782	13.836	1022.220	767.711
86.797	13.870	1021.267	767.086
87.812	13.937	1020.022	766.393
88.826	13.813	1019.773	765.564
89.841	13.846	1018.678	764.828
90.855	13.717	1018.073	763.714
91.870	13.904	1016.910	763.630
92.884	13.853	1016.585	763.088
93.899	13.865	1015.729	762.429
94.914	13.906	1015.363	762.278
95.928	13.927	1014.356	761.551
96.943	13.937	1013.304	760.737
97.957	13.867	1012.828	759.993
98.972	13.936	1011.765	759.445
99.987	14.054	1010.770	759.170
101.001	13.938	1010.619	758.461
102.016	13.988	1009.290	757.620
103.030	13.859	1008.569	756.428
104.045	13.876	1007.372	755.539
105.060	13.916	1006.510	755.009
106.074	13.919	1005.649	754.307
107.089	13.950	1004.801	753.748
108.103	13.736	1004.492	752.479
109.118	13.775	1002.974	751.450
110.133	13.849	1002.162	751.112
111.147	13.847	1001.119	750.252
112.162	13.890	1000.488	749.908
113.176	13.889	999.360	748.990
114.191	13.766	998.876	748.010
115.206	13.855	997.826	747.555
116.220	13.899	997.018	747.082
117.235	13.681	996.518	745.663
118.249	13.919	995.342	745.783
119.264	13.926	994.189	744.887
120.279	13.855	993.482	743.974
121.293	13.718	992.941	742.886
122.308	13.859	991.868	742.651
123.322	13.666	991.195	741.218
124.337	13.778	990.236	740.934
125.352	13.836	988.676	739.959
126.366	13.870	987.479	739.149
127.381	13.822	986.561	738.184
128.395	13.754	985.742	737.205
129.410	13.776	984.493	736.305
130.424	13.721	984.106	735.703
131.439	13.691	983.103	734.756
132.454	13.868	981.954	734.617
133.468	13.857	981.552	734.203
134.483	13.811	981.207	733.675
135.497	13.840	980.081	732.897
136.512	13.810	979.563	732.310
137.527	13.805	978.983	731.793
138.541	13.936	977.531	731.218
139.556	13.833	976.742	730.109
140.570	13.802	976.586	729.791
141.585	13.839	976.056	729.494
142.600	13.940	974.869	728.986
143.614	13.966	973.939	728.341
144.629	14.099	973.074	728.211
145.643	14.015	972.517	727.363
146.658	14.045	971.322	726.534
147.673	14.079	970.456	725.974
148.687	13.911	969.808	724.692
149.702	14.033	968.485	724.169
150.716	13.932	968.297	723.524
151.731	13.852	967.244	722.326
152.746	14.017	966.338	722.304
153.760	13.993	965.835	721.756
154.775	13.950	965.085	720.946
155.789	14.048	964.173	720.625
156.804	14.152	963.300	720.360
157.819	14.161	962.427	719.683
158.833	14.086	961.925	718.920
159.848	14.039	961.553	718.376
160.862	14.106	960.773	718.018
161.877	14.203	959.696	717.566
162.892	14.071	958.627	716.135
163.906	14.112	957.840	715.662
164.921	14.054	957.072	714.777
165.935	14.134	956.367	714.529
166.950	14.118	955.213	713.537
167.964	14.052	954.790	712.872
168.979	14.292	953.060	712.547
169.994	14.251	952.093	711.583
171.008	14.146	951.503	710.631
172.023	14.274	950.541	710.398
173.037	14.269	950.297	710.131
174.052	14.290	949.414	709.498
175.067	14.149	948.649	708.263
176.081	14.167	948.054	707.833
177.096	14.327	946.748	707.474
178.110	14.251	945.724	706.325
179.125	14.205	945.393	705.819
180.140	14.213	944.391	705.042
181.154	14.276	943.522	704.598
182.169	14.266	943.085	704.167
183.183	14.141	942.769	703.340
184.198	14.267	941.982	703.224
185.213	14.225	941.019	702.264
186.227	14.351	940.585	702.412
187.242	14.323	940.429	702.112
188.256	14.391	939.329	701.516
189.271	14.440	938.541	701.072
190.286	14.465	937.459	700.308
191.300	14.308	937.147	699.354
192.315	14.304	936.080	698.477
193.329	14.302	935.513	697.986
194.344	14.373	934.451	697.429
195.359	14.408	934.311	697.409
196.373	14.364	933.885	696.845
197.388	14.436	933.380	696.708
198.402	14.461	933.125	696.560
199.417	14.523	932.327	696.160
200.432	14.624	931.636	696.002
201.446	14.593	931.238	695.516
202.461	14.686	930.812	695.525
203.475	14.591	930.611	694.917
204.490	14.750	929.528	694.707
205.504	14.601	928.963	693.604
206.519	14.679	927.899	693.071
207.534	14.776	927.041	692.773
208.548	14.625	926.563	691.728
209.563	14.650	925.604	691.053
210.577	14.633	924.961	690.444
211.592	14.652	924.562	690.162
212.607	14.768	923.786	690.003
213.621	14.847	923.312	689.914
214.636	14.763	922.573	688.955
215.650	14.829	922.017	688.749
216.665	14.850	921.309	688.246
217.680	14.933	920.852	688.184
218.694	14.855	920.027	687.185
219.709	14.855	919.726	686.901
220.723	14.976	918.804	686.648
221.738	14.805	918.474	685.640
222.753	14.910	917.607	685.360
223.767	14.938	916.318	684.455
224.782	15.022	915.673	684.254
225.796	14.963	915.238	683.626
226.811	14.952	914.467	682.945
227.826	15.030	913.723	682.650
228.840	14.969	913.035	681.823
229.855	14.894	912.616	681.146
230.869	14.996	911.919	680.979
231.884	14.924	911.311	680.175
232.899	14.894	910.550	679.423
233.913	15.085	909.706	679.509
234.928	14.896	909.164	678.277
235.942	14.922	908.729	678.000
236.957	14.901	907.579	676.997
237.972	15.048	907.170	677.226
238.986	15.087	906.549	676.861
240.001	15.122	905.732	676.331
241.015	15.139	905.025	675.810
242.030	15.118	904.173	675.031
243.045	15.037	904.111	674.597
244.059	15.121	903.431	674.371
245.074	15.189	902.529	673.910
246.088	15.166	901.614	673.077
247.103	15.377	900.794	673.249
248.117	15.259	900.845	672.754
249.132	15.248	900.094	672.092
250.147	15.276	899.557	671.743
251.161	15.401	898.692	671.538
252.176	15.392	897.754	670.743
253.190	15.537	896.971	670.674
254.205	15.469	896.365	669.893
255.220	15.482	896.067	669.663
256.234	15.562	894.942	669.081
257.249	15.509	894.433	668.429
258.263	15.607	894.324	668.680
259.278	15.575	893.390	667.794
260.293	15.539	893.067	667.351
261.307	15.561	892.534	666.982
262.322	15.674	891.839	666.851
263.336	15.668	891.246	666.323
264.351	15.646	890.634	665.720
265.366	15.728	889.753	665.327
266.380	15.697	889.270	664.785
267.395	15.708	888.759	664.388
268.409	15.808	887.863	664.053
269.424	15.613	887.504	662.956
270.439	15.802	886.547	662.930
271.453	15.601	885.742	661.477
272.468	15.763	884.839	661.381
273.482	15.691	884.310	660.644
274.497	15.695	884.159	660.488
275.512	15.814	882.888	659.947
276.526	15.711	882.116	658.908
277.541	15.733	881.691	658.618
278.555	15.837	880.915	658.390
279.570	15.736	880.857	657.893
280.585	15.884	880.051	657.808
281.599	15.990	879.287	657.593
282.614	15.966	878.832	657.101
283.628	15.912	878.274	656.417
284.643	15.880	877.770	655.858
285.657	16.018	877.032	655.783
286.672	15.928	876.753	655.166
287.687	15.896	876.239	654.600
288.701	16.146	875.261	654.785
289.716	16.063	874.866	654.109
290.730	16.060	874.039	653.420
291.745	16.145	873.229	653.087
292.760	16.132	872.610	652.515
293.774	16.069	872.530	652.154
294.789	16.086	872.092	651.836
295.803	16.066	871.362	651.152
296.818	16.063	870.750	650.626
297.833	16.177	869.805	650.304
298.847	16.148	869.308	649.761
299.862	16.255	868.116	649.225
300.876	16.298	867.637	648.977
301.891	16.131	867.112	647.881
302.906	16.160	866.438	647.435
303.920	16.241	865.856	647.250
304.935	16.236	865.134	646.635
305.949	16.191	864.825	646.174
306.964	16.199	864.306	645.761
307.979	16.322	863.341	645.454
308.993	16.357	863.039	645.305
310.008	16.484	862.347	645.215
311.022	16.420	861.951	644.615
312.037	16.428	860.940	643.834
313.052	16.465	861.165	644.086
314.066	16.466	860.163	643.284
315.081	16.327	859.455	642.169
316.095	16.305	859.348	641.949
317.110	16.340	858.725	641.560
318.125	16.368	857.914	641.001
319.139	16.508	857.133	640.891
320.154	16.404	856.862	640.240
321.168	16.472	856.069	639.849
322.183	16.549	855.287	639.497
323.197	16.383	855.171	638.726
324.212	16.537	854.416	638.689
325.227	16.557	853.998	638.395
326.241	16.541	853.716	638.068
327.256	16.682	852.821	637.875
328.270	16.442	852.815	636.907
329.285	16.390	851.881	635.958
330.300	16.564	851.150	636.011
331.314	16.475	851.035	635.533
332.329	16.499	850.114	634.881
333.343	16.623	849.269	634.656
334.358	16.541	849.181	634.229
335.373	16.603	848.551	633.935
336.387	16.721	847.877	633.814
337.402	16.700	847.544	633.431
338.416	16.719	846.779	632.876
339.431	16.810	845.924	632.521
340.446	16.794	845.911	632.394
341.460	16.774	845.317	631.821
342.475	16.987	844.175	631.705
343.489	17.015	843.583	631.308
344.504	16.807	843.419	630.358
345.519	16.958	842.767	630.376
346.533	17.023	842.004	629.990
347.548	16.971	841.920	629.679
348.562	16.919	841.214	628.900
349.577	17.044	840.652	628.887
350.592	16.876	840.393	628.016
351.606	16.894	839.806	627.591
352.621	16.875	839.475	627.215
353.635	16.990	839.027	627.253
354.650	17.085	838.211	626.938
355.665	16.895	837.764	625.847
356.679	17.023	837.514	626.074
357.694	16.961	837.095	625.478
358.708	17.003	836.297	624.984
359.723	17.114	835.396	624.664
360.738	17.172	834.894	624.444
361.752	17.063	834.723	623.861
362.767	17.060	834.336	623.506
363.781	17.142	833.585	623.190
364.796	17.023	833.613	622.719
365.810	17.326	832.937	623.268
366.825	17.258	832.572	622.693
367.840	17.368	831.713	622.396
368.854	17.321	831.486	622.000
369.869	17.268	831.300	621.612
370.883	17.322	830.643	621.265
371.898	17.282	829.805	620.437
372.913	17.310	829.426	620.199
373.927	17.386	828.751	619.915
374.942	17.328	828.011	619.096
375.956	17.451	827.536	619.135
376.971	17.392	827.273	618.669
377.986	17.480	826.630	618.452
379.000	17.437	826.125	617.863
380.015	17.629	825.515	618.048
381.029	17.434	825.209	617.059
382.044	17.517	824.354	616.665
383.059	17.480	823.804	616.067
384.073	17.546	823.296	615.870
385.088	17.537	823.073	615.616
386.102	17.553	822.330	615.062
387.117	17.521	821.650	614.384
388.132	17.453	821.438	613.926
389.146	17.541	820.964	613.836
390.161	17.555	820.556	613.526
391.175	17.485	820.466	613.154
392.190	17.576	819.774	612.910
393.205	17.520	819.203	612.227
394.219	17.586	818.753	612.071
395.234	17.703	817.821	611.743
396.248	17.717	817.754	611.689
397.263	17.625	817.059	610.784
398.278	17.608	816.851	610.514
399.292	17.716	816.321	610.449
400.307	17.753	815.895	610.209
401.321	17.625	815.486	609.392
402.336	17.790	814.985	609.553
403.350	17.562	814.933	608.647
404.365	17.729	814.211	608.651
405.380	17.853	813.555	608.549
406.394	17.770	813.343	608.040
407.409	17.776	812.994	607.747
408.423	17.940	812.563	607.954
409.438	17.832	812.152	607.209
410.453	17.970	811.458	607.125
411.467	18.059	810.864	606.946
412.482	17.947	810.570	606.271
413.496	17.969	810.070	605.924
414.511	18.008	809.891	605.874
415.526	18.073	809.227	605.555
416.540	17.969	808.998	604.960
417.555	18.141	808.440	605.098
418.569	18.074	807.839	604.357
419.584	18.064	807.591	604.085
420.599	18.100	807.234	603.892
421.613	115.673	1299.564	1490.734
422.628	100.013	1371.260	1490.818
