DTS Sentinel unit serial number:	SN413079Multiplexer serial number:	ORYXHardware model number:	OX4-SRSoftware version number:	ORYX F/W v4.00 Oryx Data Collector v3.7.2.0data status	okinstallation	princeton_trtdifferential loss correction	single-endedforward channel	channel 3reverse channel	N/Adate	2019/09/17time	09:56:34forward acquisition time	60.00reverse acquisition time	0.00gamma	496.2192k internal	0.2323k external	0.2323temperature offset calibration	0.9941default loss term (dB/km)	0.3790temperature slope calibration	1.0000multiplexer offset coefficient	1.0000multiplexer slope coefficient	1.0000fibre end	0.00T internal ref (°C)	29.56T ext. ref 1 (°C)	0.16T ext. ref 2 (°C)	25.30length (m)	temperature (°C)	Stokes	anti-Stokes-747.200	-180.752	-0.274	0.006
-746.185	-200.000	0.035	0.263
-745.171	-102.849	0.364	0.088
-744.156	-200.000	0.011	0.114
-743.142	51.948	0.012	0.011
-742.127	-47.792	0.163	0.080
-741.112	-5.047	0.478	-0.332
-740.098	601.437	-0.237	0.595
-739.083	20.703	-0.106	-0.087
-738.069	-157.238	-0.338	0.021
-737.054	266.576	-0.063	-0.112
-736.039	-21.891	-0.171	0.105
-735.025	530.808	0.109	0.260
-734.010	-158.551	-0.289	-0.017
-732.996	-52.042	-0.421	-0.198
-731.981	718.339	0.061	-0.162
-730.966	399.252	-0.111	-0.234
-729.952	-200.000	0.030	0.212
-728.937	247.730	0.042	0.072
-727.923	-109.012	0.147	-0.032
-726.908	633.673	-0.042	0.107
-725.894	210.269	-0.022	0.036
-724.879	234.793	-0.171	-0.285
-723.864	-200.000	0.016	-0.157
-722.850	18.552	0.286	-0.231
-721.835	800.000	0.037	0.155
-720.821	0.930	0.271	-0.196
-719.806	-53.495	-0.299	-0.138
-718.791	-200.000	0.004	0.278
-717.777	800.000	0.045	0.147
-716.762	-12.121	-0.210	0.139
-715.748	375.906	0.105	0.216
-714.733	-200.000	-0.001	0.048
-713.718	-180.373	-0.273	-0.006
-712.704	374.409	-0.064	-0.132
-711.689	-200.000	-0.010	-0.380
-710.675	55.751	0.133	-0.130
-709.660	-80.677	-0.263	-0.088
-708.645	26.993	0.176	-0.149
-707.631	-67.541	-0.132	-0.052
-706.616	-168.668	-0.418	-0.016
-705.602	-200.000	-0.026	0.119
-704.587	341.226	-0.176	0.346
-703.572	-82.112	-0.087	0.029
-702.558	256.019	-0.068	0.118
-701.543	-156.528	-0.124	0.008
-700.529	-158.784	0.105	-0.006
-699.514	-108.956	0.138	-0.030
-698.499	-200.000	-0.009	-0.175
-697.485	340.928	-0.038	0.075
-696.470	16.214	-0.208	-0.165
-695.456	246.836	-0.102	-0.174
-694.441	-156.966	0.240	-0.015
-693.426	8.896	0.112	-0.085
-692.412	-200.000	0.030	0.136
-691.397	-65.941	-0.099	-0.040
-690.383	-65.222	0.222	0.090
-689.368	-0.573	-0.218	0.156
-688.354	-34.728	-0.087	-0.048
-687.339	800.000	0.052	-0.168
-686.324	-200.000	-0.003	-0.024
-685.310	-3.825	-0.202	-0.141
-684.295	51.334	-0.184	0.176
-683.281	800.000	0.014	-0.059
-682.266	231.078	0.158	-0.261
-681.251	-200.000	-0.005	0.029
-680.237	20.185	0.200	-0.163
-679.222	800.000	-0.110	-0.381
-678.208	98.203	0.071	-0.083
-677.193	800.000	-0.165	0.617
-676.178	-128.203	-0.163	-0.023
-675.164	800.000	-0.059	0.247
-674.149	-77.285	0.410	-0.144
-673.135	-37.322	-0.171	0.092
-672.120	-105.157	0.171	0.039
-671.105	-101.275	0.178	-0.044
-670.091	299.512	0.095	0.177
-669.076	-65.441	0.077	0.031
-668.062	-200.000	0.031	-0.289
-667.047	372.262	-0.119	0.243
-666.032	-200.000	0.023	-0.124
-665.018	410.916	0.014	0.030
-664.003	-101.044	-0.379	0.093
-662.989	402.719	-0.162	-0.342
-661.974	800.000	0.028	-0.119
-660.959	289.315	-0.113	0.206
-659.945	-36.609	-0.238	0.129
-658.930	-200.000	0.014	-0.496
-657.916	800.000	-0.064	-0.201
-656.901	143.151	0.142	0.190
-655.886	-152.833	0.202	-0.014
-654.872	422.029	-0.252	0.544
-653.857	-52.729	-0.126	0.058
-652.843	693.693	-0.069	-0.183
-651.828	208.153	0.154	-0.242
-650.814	38.366	0.304	-0.273
-649.799	-115.943	-0.167	-0.031
-648.784	454.318	-0.064	0.143
-647.770	-122.331	0.075	-0.012
-646.755	-76.972	-0.138	0.049
-645.741	636.084	-0.069	0.175
-644.726	59.646	-0.155	-0.154
-643.711	219.468	0.128	0.206
-642.697	800.000	0.100	-0.318
-641.682	-70.177	-0.239	0.091
-640.668	800.000	0.031	-0.134
-639.653	155.121	0.049	0.068
-638.638	-41.120	0.230	0.119
-637.624	-103.476	-0.333	0.079
-636.609	85.139	0.225	0.248
-635.595	215.036	0.190	0.303
-634.580	-114.934	-0.108	-0.021
-633.565	18.213	0.103	-0.083
-632.551	662.895	0.091	-0.236
-631.536	-118.851	-0.222	0.039
-630.522	100.444	-0.167	-0.195
-629.507	800.000	0.053	-0.175
-628.492	800.000	0.061	0.181
-627.478	96.353	-0.053	0.061
-626.463	800.000	-0.137	0.410
-625.449	800.000	-0.067	-0.231
-624.434	-200.000	0.060	-0.397
-623.419	-188.084	0.242	0.003
-622.405	-89.440	-0.409	-0.121
-621.390	57.380	0.104	0.102
-620.376	-126.458	0.039	-0.006
-619.361	105.683	-0.190	-0.226
-618.346	3.619	-0.226	0.166
-617.332	238.742	-0.154	-0.257
-616.317	61.814	0.011	0.011
-615.303	-120.005	-0.093	0.016
-614.288	15.524	-0.113	-0.089
-613.273	771.110	0.080	-0.218
-612.259	-138.457	-0.269	0.030
-611.244	382.335	0.112	0.231
-610.230	-122.294	0.146	0.024
-609.215	53.106	-0.158	0.152
-608.201	-200.000	-0.024	0.140
-607.186	-182.703	0.423	0.008
-606.171	45.994	-0.186	0.173
-605.157	137.600	0.061	-0.080
-604.142	-178.408	-0.188	-0.004
-603.128	-115.064	0.119	-0.023
-602.113	-173.266	0.139	-0.004
-601.098	-72.305	-0.049	-0.018
-600.084	90.557	0.036	-0.041
-599.069	800.000	0.106	0.402
-598.055	268.432	-0.149	-0.262
-597.040	-56.671	0.242	0.108
-596.025	-59.508	0.243	-0.105
-595.011	-25.439	-0.017	-0.010
-593.996	452.231	0.051	-0.113
-592.982	-200.000	-0.025	-0.112
-591.967	-200.000	-0.002	-0.326
-590.952	-98.566	0.128	0.033
-589.938	-130.389	-0.056	-0.008
-588.923	-200.000	0.014	0.314
-587.909	-16.677	-0.171	-0.109
-586.894	102.978	0.126	0.148
-585.879	-200.000	-0.005	-0.331
-584.865	-122.364	-0.466	0.076
-583.850	-99.765	-0.195	-0.049
-582.836	268.951	-0.140	0.247
-581.821	-53.314	-0.139	0.064
-580.806	9.441	0.285	0.217
-579.792	-5.956	0.190	0.130
-578.777	-200.000	-0.016	-0.231
-577.763	-118.773	0.200	0.035
-576.748	175.726	-0.075	0.110
-575.733	169.523	0.087	0.125
-574.719	-196.079	-0.297	0.002
-573.704	800.000	0.037	0.138
-572.690	-95.697	0.246	0.066
-571.675	-129.219	0.096	-0.013
-570.661	-72.068	-0.099	-0.037
-569.646	-106.317	-0.121	0.027
-568.631	108.850	0.154	-0.184
-567.617	-121.706	-0.090	-0.015
-566.602	222.576	-0.107	-0.173
-565.588	136.118	-0.148	-0.194
-564.573	-82.880	0.211	0.068
-563.558	-200.000	-0.007	0.095
-562.544	482.180	0.099	0.226
-561.529	-200.000	0.018	0.219
-560.515	-199.666	0.378	0.002
-559.500	-200.000	0.043	-0.292
-558.485	-84.813	-0.151	0.048
-557.471	558.583	-0.115	0.278
-556.456	-172.571	0.244	0.008
-555.442	44.129	0.123	0.113
-554.427	-60.131	0.083	0.035
-553.412	-200.000	-0.015	-0.160
-552.398	-69.142	-0.223	0.086
-551.383	-200.000	-0.023	-0.301
-550.369	-67.702	0.218	-0.086
-549.354	88.258	-0.035	0.039
-548.339	103.006	-0.206	-0.242
-547.325	-200.000	-0.024	-0.277
-546.310	-47.827	0.229	0.111
-545.296	148.025	-0.231	-0.312
-544.281	255.426	-0.256	0.440
-543.266	384.073	0.185	-0.382
-542.252	-131.506	-0.095	-0.013
-541.237	800.000	-0.044	0.136
-540.223	-115.537	-0.167	-0.031
-539.208	-77.052	0.198	-0.069
-538.193	-37.093	-0.231	-0.124
-537.179	-19.304	-0.116	-0.072
-536.164	-148.021	-0.710	0.059
-535.150	33.883	-0.160	0.140
-534.135	-200.000	0.060	-0.277
-533.121	-30.328	-0.195	-0.111
-532.106	-88.826	-0.351	-0.104
-531.091	79.216	0.116	-0.125
-530.077	-8.127	0.191	0.129
-529.062	-200.000	0.039	-0.352
-528.048	-58.645	0.105	-0.046
-527.033	-112.638	0.088	-0.017
-526.018	44.275	0.252	0.232
-525.004	-197.923	0.033	0.000
-523.989	-187.614	0.101	0.001
-522.975	-200.000	0.003	0.329
-521.960	-55.015	-0.177	0.080
-520.945	141.152	0.328	0.434
-519.931	800.000	-0.056	-0.216
-518.916	91.752	-0.064	-0.072
-517.902	266.653	-0.130	-0.227
-516.887	-71.049	-0.200	0.075
-515.872	800.000	-0.050	0.151
-514.858	-27.939	0.126	-0.073
-513.843	-36.682	0.288	-0.155
-512.829	99.925	0.227	-0.263
-511.814	-136.674	-0.416	-0.048
-510.799	-35.986	0.116	0.063
-509.785	-161.599	0.093	0.005
-508.770	-110.198	-0.153	-0.032
-507.756	360.983	-0.072	-0.144
-506.741	29.531	0.163	0.139
-505.726	768.734	0.103	0.281
-504.712	-200.000	0.040	-0.315
-503.697	587.286	0.097	0.240
-502.683	-200.000	-0.054	-0.282
-501.668	139.059	-0.093	0.122
-500.653	637.108	0.136	-0.345
-499.639	1.572	-0.065	-0.047
-498.624	-200.000	-0.039	-0.278
-497.610	800.000	-0.055	-0.203
-496.595	196.936	0.085	-0.129
-495.581	-110.538	-0.086	-0.018
-494.566	-90.286	-0.190	0.055
-493.551	-90.958	-0.315	-0.090
-492.537	-200.000	0.019	0.194
-491.522	-72.506	-0.077	-0.028
-490.508	-138.852	0.325	0.035
-489.493	11.399	0.058	0.044
-488.478	-83.851	0.357	0.114
-487.464	-20.859	-0.264	-0.162
-486.449	282.692	-0.190	-0.340
-485.435	456.299	-0.060	-0.133
-484.420	800.000	-0.056	0.200
-483.405	186.321	0.155	0.230
-482.391	382.616	0.130	-0.267
-481.376	493.421	0.084	-0.191
-480.362	792.190	0.144	-0.396
-479.347	800.000	-0.062	0.227
-478.332	473.934	0.127	0.287
-477.318	-200.000	-0.008	-0.047
-476.303	800.000	-0.134	0.509
-475.289	-200.000	-0.012	-0.234
-474.274	-41.412	0.134	-0.069
-473.259	119.109	0.055	0.068
-472.245	437.188	0.103	0.224
-471.230	3.521	0.291	0.212
-470.216	-200.000	0.020	0.298
-469.201	-63.470	-0.083	0.034
-468.186	-200.000	-0.056	0.326
-467.172	-117.532	0.078	-0.014
-466.157	1.025	-0.371	0.266
-465.143	184.101	-0.078	-0.116
-464.128	800.000	0.120	-0.372
-463.113	572.856	-0.022	0.053
-462.099	-11.943	0.151	0.099
-461.084	-125.917	0.342	-0.051
-460.070	462.414	0.203	0.453
-459.055	83.537	-0.072	0.079
-458.040	-17.631	-0.094	-0.059
-457.026	23.018	-0.169	0.138
-456.011	264.779	0.026	0.046
-454.997	27.397	-0.481	-0.404
-453.982	-200.000	-0.022	0.221
-452.968	800.000	0.088	0.339
-451.953	-200.000	0.067	-0.331
-450.938	190.623	0.075	-0.112
-449.924	-107.353	0.196	0.043
-448.909	193.449	0.136	-0.205
-447.895	127.971	-0.136	-0.173
-446.880	248.343	-0.238	-0.401
-445.865	-170.719	-0.088	0.003
-444.851	-117.567	0.413	-0.074
-443.836	-200.000	0.002	-0.071
-442.822	-93.389	-0.379	0.105
-441.807	-200.000	-0.030	0.301
-440.792	-200.000	0.005	-0.074
-439.778	-102.919	0.080	0.019
-438.763	800.000	0.028	0.098
-437.749	146.335	0.240	0.322
-436.734	139.466	0.194	-0.255
-435.719	-200.000	-0.006	-0.153
-434.705	-173.699	0.159	-0.005
-433.690	-26.891	0.151	-0.088
-432.676	67.715	-0.024	0.025
-431.661	-98.196	0.071	0.018
-430.646	-57.494	0.336	0.147
-429.632	-36.480	-0.174	-0.093
-428.617	286.702	0.237	-0.427
-427.603	-125.349	0.064	0.010
-426.588	446.539	-0.220	-0.482
-425.573	-5.990	-0.111	-0.076
-424.559	198.724	-0.132	0.202
-423.544	-200.000	0.045	0.286
-422.530	64.694	0.172	-0.173
-421.515	-200.000	-0.001	0.268
-420.500	-125.319	-0.220	-0.034
-419.486	-33.158	-0.070	-0.039
-418.471	85.543	0.039	-0.042
-417.457	-72.679	0.215	0.079
-416.442	-200.000	-0.060	-0.375
-415.428	800.000	-0.095	-0.277
-414.413	360.356	-0.196	0.391
-413.398	-1.650	-0.113	0.080
-412.384	453.700	0.062	-0.137
-411.369	-57.779	-0.130	-0.057
-410.355	162.255	0.088	-0.122
-409.340	-88.497	0.255	0.076
-408.325	352.770	0.046	-0.091
-407.311	188.600	0.042	0.063
-406.296	800.000	-0.173	-0.539
-405.282	-112.140	-0.060	-0.012
-404.267	633.791	0.046	-0.115
-403.252	-135.453	-0.356	0.042
-402.238	-21.299	0.117	-0.071
-401.223	800.000	0.084	0.365
-400.209	-68.383	-0.153	0.059
-399.194	-149.520	-0.229	-0.018
-398.179	-22.011	0.133	-0.081
-397.165	800.000	-0.033	0.133
-396.150	-200.000	0.006	-0.072
-395.136	678.271	0.061	0.159
-394.121	-51.985	-0.212	-0.098
-393.106	15.613	0.276	-0.216
-392.092	-200.000	-0.001	-0.026
-391.077	218.231	0.079	0.126
-390.063	-200.000	0.019	0.172
-389.048	242.849	0.058	-0.097
-388.033	-200.000	0.028	0.255
-387.019	-58.884	0.019	-0.008
-386.004	-133.402	-0.630	-0.079
-384.990	305.829	0.004	-0.007
-383.975	-84.872	-0.288	-0.090
-382.960	-43.156	0.103	-0.052
-381.946	510.615	-0.143	0.332
-380.931	20.320	0.275	-0.222
-379.917	119.772	0.056	0.069
-378.902	800.000	-0.049	0.190
-377.888	47.290	-0.262	0.243
-376.873	65.861	0.309	0.312
-375.858	172.574	0.184	-0.264
-374.844	-168.587	0.253	-0.010
-373.829	146.783	-0.052	0.070
-372.815	25.711	-0.130	0.108
-371.800	397.247	-0.074	-0.155
-370.785	45.844	-0.181	-0.166
-369.771	-200.000	-0.037	0.204
-368.756	-168.320	0.276	0.011
-367.742	83.295	-0.200	-0.217
-366.727	-130.838	-0.391	0.052
-365.712	294.224	0.101	-0.183
-364.698	-200.000	-0.051	-0.281
-363.683	295.277	-0.129	-0.235
-362.669	-147.419	0.318	-0.027
-361.654	62.087	-0.204	-0.202
-360.639	260.962	0.028	-0.048
-359.625	-200.000	0.003	-0.047
-358.610	800.000	0.069	0.266
-357.596	-200.000	0.079	0.408
-356.581	253.535	0.013	-0.022
-355.566	58.431	-0.213	0.208
-354.552	166.863	-0.099	-0.139
-353.537	-74.056	0.156	-0.056
-352.523	-69.341	-0.101	-0.039
-351.508	9.520	-0.124	-0.094
-350.493	372.345	0.038	-0.077
-349.479	623.799	-0.104	0.260
-348.464	550.237	-0.074	-0.177
-347.450	227.418	0.145	-0.235
-346.435	-2.013	-0.181	0.127
-345.420	-47.822	-0.214	-0.103
-344.406	-119.739	-0.368	0.063
-343.391	-31.449	0.197	0.110
-342.377	22.554	-0.235	0.192
-341.362	-105.585	0.209	0.047
-340.348	784.802	0.088	0.239
-339.333	-49.711	0.081	0.038
-338.318	96.499	-0.074	0.084
-337.304	-141.444	-0.084	-0.008
-336.289	-127.608	-0.166	0.024
-335.275	426.150	-0.119	0.254
-334.260	24.975	0.085	0.070
-333.245	521.300	-0.167	-0.388
-332.231	-200.000	0.025	0.268
-331.216	800.000	-0.066	0.262
-330.202	-146.443	0.274	0.024
-329.187	-94.436	0.273	-0.074
-328.172	-103.763	-0.167	0.039
-327.158	-39.109	-0.133	-0.069
-326.143	800.000	-0.082	0.295
-325.129	-200.000	0.007	0.080
-324.114	-200.000	0.015	-0.077
-323.099	-200.000	0.005	-0.323
-322.085	-175.239	-0.085	-0.002
-321.070	-122.635	-0.081	0.013
-320.056	80.547	0.070	0.075
-319.041	37.073	0.068	-0.059
-318.026	542.596	0.051	-0.120
-317.012	-79.500	0.290	0.097
-315.997	-24.223	0.158	-0.093
-314.983	-135.216	0.072	-0.009
-313.968	-156.282	0.180	-0.011
-312.953	-200.000	0.014	-0.084
-311.939	-95.498	-0.125	-0.033
-310.924	81.176	-0.212	0.227
-309.910	-200.000	0.110	-0.530
-308.895	-29.010	0.244	-0.139
-307.880	800.000	0.017	-0.056
-306.866	-200.000	-0.014	0.069
-305.851	-200.000	0.044	0.220
-304.837	-200.000	0.016	0.339
-303.822	-200.000	-0.018	0.359
-302.807	241.685	-0.120	0.199
-301.793	48.250	0.113	-0.105
-300.778	-134.255	-0.266	0.032
-299.764	98.928	0.064	0.073
-298.749	351.725	0.142	0.279
-297.735	376.353	-0.060	-0.121
-296.720	-200.000	0.037	0.210
-295.705	92.887	-0.075	-0.084
-294.691	-138.048	0.185	0.020
-293.676	-200.000	-0.037	0.195
-292.662	-200.000	0.078	0.460
-291.647	351.242	-0.142	-0.278
-290.632	-200.000	-0.051	-0.281
-289.618	-200.000	-0.024	-0.162
-288.603	100.208	0.107	0.123
-287.589	-95.112	-0.387	-0.104
-286.574	-200.000	0.034	-0.193
-285.559	-94.312	-0.297	-0.081
-284.545	253.891	0.133	0.226
-283.530	-200.000	0.026	-0.187
-282.516	-84.992	0.387	-0.120
-281.501	-162.265	0.226	0.011
-280.486	80.935	-0.129	-0.139
-279.472	531.937	-0.043	0.101
-278.457	37.338	0.086	0.075
-277.443	224.559	-0.073	-0.117
-276.428	26.646	0.217	-0.180
-275.413	357.926	-0.099	0.196
-274.399	-73.426	0.252	0.091
-273.384	-25.040	0.201	0.118
-272.370	61.180	-0.019	-0.018
-271.355	134.252	-0.153	-0.197
-270.340	-108.772	0.305	-0.065
-269.326	-200.000	0.063	0.278
-268.311	800.000	0.076	0.265
-267.297	19.127	0.412	0.327
-266.282	-20.986	-0.129	-0.078
-265.267	-200.000	0.019	0.138
-264.253	99.444	0.121	0.139
-263.238	-57.556	-0.228	0.099
-262.224	74.874	-0.144	-0.150
-261.209	27.576	0.031	-0.026
-260.195	-43.095	-0.075	0.038
-259.180	96.198	-0.180	0.204
-258.165	51.114	0.113	0.107
-257.151	241.885	0.128	-0.212
-256.136	-69.122	0.434	0.166
-255.122	120.265	-0.053	0.066
-254.107	-94.741	-0.213	-0.057
-253.092	698.502	-0.099	0.257
-252.078	-46.263	0.162	0.079
-251.063	-88.193	0.141	-0.042
-250.049	-53.550	-0.229	0.104
-249.034	-154.299	0.365	0.024
-248.019	-46.186	-0.195	-0.095
-247.005	-200.000	0.076	0.374
-245.990	800.000	0.139	-0.399
-244.976	-200.000	-0.073	-0.359
-243.961	800.000	-0.040	-0.110
-242.946	-200.000	-0.020	0.302
-241.932	-88.348	0.332	0.098
-240.917	-98.123	-0.335	0.085
-239.903	800.000	0.078	0.287
-238.888	111.895	0.136	0.163
-237.873	-109.586	-0.217	0.045
-236.859	-36.327	0.196	-0.105
-235.844	-70.759	0.460	0.172
-234.830	88.821	0.245	-0.270
-233.815	37.355	0.163	-0.143
-232.800	-63.822	0.137	0.056
-231.786	-65.008	-0.125	-0.050
-230.771	-133.074	-0.036	0.004
-229.757	20.370	0.088	-0.071
-228.742	-127.133	-0.131	-0.019
-227.727	5.492	-0.497	-0.363
-226.713	98.777	0.232	-0.265
-225.698	800.000	-0.042	-0.167
-224.684	723.093	0.081	-0.213
-223.669	407.492	-0.161	-0.337
-222.655	-62.148	-0.279	-0.115
-221.640	-200.000	0.023	0.516
-220.625	-200.000	-0.124	-0.000
-219.611	-99.372	-0.124	-0.031
-218.596	128.841	0.050	-0.063
-217.582	-32.656	-0.239	-0.132
-216.567	791.173	-0.060	0.162
-215.552	730.771	-0.066	0.176
-214.538	-200.000	0.020	0.288
-213.523	-91.222	-0.101	0.028
-212.509	156.682	-0.047	-0.064
-211.494	-166.706	0.177	-0.007
-210.479	9.868	0.109	0.082
-209.465	-21.931	0.141	-0.085
-208.450	-29.806	-0.189	0.107
-207.436	330.212	0.158	-0.300
-206.421	226.839	0.030	-0.049
-205.406	-200.000	0.001	0.074
-204.392	-77.229	-0.033	0.011
-203.377	421.791	0.068	0.145
-202.363	138.074	-0.022	0.029
-201.348	-120.917	0.119	-0.020
-200.333	-18.382	-0.369	0.228
-199.319	-118.580	0.265	-0.046
-198.304	122.282	0.154	-0.190
-197.290	-200.000	-0.036	0.195
-196.275	-117.389	0.249	0.045
-195.260	-43.301	0.105	0.053
-194.246	78.950	-0.127	0.134
-193.231	25.073	0.265	0.217
-192.217	-200.000	0.046	0.200
-191.202	-200.000	-0.008	0.117
-190.187	733.113	-0.092	0.243
-189.173	-200.000	0.044	0.197
-188.158	800.000	0.010	-0.034
-187.144	-157.313	0.435	0.026
-186.129	-150.764	-0.287	0.022
-185.114	118.249	-0.042	0.051
-184.100	-200.000	-0.027	-0.129
-183.085	800.000	-0.088	0.304
-182.071	112.925	0.133	0.159
-181.056	529.091	-0.026	0.060
-180.042	114.814	0.197	0.237
-179.027	-17.601	-0.066	-0.041
-178.012	-37.190	0.045	-0.024
-176.998	800.000	-0.086	-0.235
-175.983	800.000	-0.059	0.227
-174.969	-46.182	-0.132	0.064
-173.954	93.366	0.142	-0.159
-172.939	486.320	0.045	-0.102
-171.925	469.158	-0.141	-0.312
-170.910	-63.847	0.202	0.082
-169.896	75.198	-0.320	0.333
-168.881	60.184	-0.093	-0.091
-167.866	-61.644	-0.063	-0.026
-166.852	315.367	-0.197	-0.367
-165.837	563.719	0.209	-0.500
-164.823	-147.225	-0.215	0.018
-163.808	296.680	0.087	0.158
-162.793	-66.387	0.362	0.142
-161.779	800.000	0.025	-0.069
-160.764	-200.000	0.031	-0.227
-159.750	800.000	0.037	-0.119
-158.735	-200.000	-0.040	0.244
-157.720	-83.661	-0.272	-0.086
-156.706	-110.096	0.137	-0.028
-155.691	230.430	-0.363	-0.585
-154.677	-200.000	0.043	-0.509
-153.662	-12.940	0.265	-0.170
-152.647	176.820	-0.145	0.207
-151.633	-200.000	-0.032	-0.204
-150.618	371.363	0.063	0.127
-149.604	-25.677	-0.115	0.067
-148.589	-200.000	-0.014	-0.138
-147.574	800.000	-0.056	-0.194
-146.560	231.121	0.097	0.156
-145.545	-200.000	-0.009	0.175
-144.531	-113.631	-0.059	0.011
-143.516	-119.412	0.357	0.061
-142.502	375.702	-0.145	-0.291
-141.487	-200.000	-0.063	-0.385
-140.472	271.512	0.153	-0.266
-139.458	46.851	0.113	-0.104
-138.443	502.334	-0.007	-0.015
-137.429	-115.744	-0.416	-0.077
-136.414	-200.000	-0.011	0.259
-135.399	230.402	0.136	0.219
-134.385	-141.864	-0.135	-0.013
-133.370	-200.000	-0.008	0.130
-132.356	-111.805	0.359	0.072
-131.341	-17.544	0.239	-0.148
-130.326	65.636	-0.175	0.175
-129.312	-127.310	0.166	-0.024
-128.297	349.462	0.065	0.126
-127.283	-26.086	-0.103	-0.060
-126.268	40.776	-0.113	0.101
-125.253	-200.000	-0.031	0.176
-124.239	196.891	0.096	-0.144
-123.224	135.540	0.135	0.173
-122.210	-200.000	-0.022	0.121
-121.195	-84.278	0.431	0.135
-120.180	-58.047	0.219	-0.094
-119.166	800.000	0.043	0.177
-118.151	59.758	0.039	-0.038
-117.137	-109.527	0.400	0.083
-116.122	-132.338	-0.127	0.016
-115.107	-85.241	0.340	-0.105
-114.093	-200.000	-0.237	-0.001
-113.078	-121.879	-0.264	-0.043
-112.064	800.000	-0.081	-0.227
-111.049	423.368	0.064	-0.134
-110.034	-88.085	-0.133	0.039
-109.020	-40.131	-0.214	0.110
-108.005	2.166	0.100	-0.071
-106.991	10.274	0.086	0.064
-105.976	-99.331	0.305	0.076
-104.962	-84.439	-0.185	-0.057
-103.947	-41.542	-0.323	-0.163
-102.932	-63.612	-0.247	0.100
-101.918	-27.490	-0.085	0.049
-100.903	-200.000	-0.001	0.131
-99.889	412.003	-0.028	-0.059
-98.874	106.023	-0.191	-0.222
-97.859	-25.934	0.113	-0.066
-96.845	-63.249	-0.069	0.028
-95.830	-34.244	0.126	0.068
-94.816	419.337	-0.061	0.128
-93.801	72.915	-0.101	0.104
-92.786	-115.697	-0.263	0.049
-91.772	324.821	0.164	0.308
-90.757	800.000	0.034	0.137
-89.743	-52.409	0.272	0.124
-88.728	46.585	0.269	0.246
-87.713	299.451	-0.029	0.053
-86.699	147.892	0.204	0.270
-85.684	72.696	0.164	-0.168
-84.670	-200.000	-0.026	-0.194
-83.655	-200.000	-0.003	0.049
-82.640	-200.000	0.029	0.185
-81.626	-30.658	-0.122	0.068
-80.611	800.000	-0.158	0.454
-79.597	590.593	-0.031	0.074
-78.582	203.397	-0.165	0.252
-77.567	422.568	-0.074	-0.157
-76.553	-119.197	0.221	0.038
-75.538	-59.565	0.119	-0.050
-74.524	-148.319	-0.370	-0.030
-73.509	-200.000	-0.001	0.364
-72.494	-1.843	-0.131	-0.091
-71.480	282.901	0.089	0.157
-70.465	800.000	-0.068	-0.194
-69.451	800.000	-0.054	-0.209
-68.436	-200.000	0.036	0.257
-67.422	7.012	-0.057	-0.042
-66.407	210.763	-0.060	0.092
-65.392	-65.370	-0.139	-0.055
-64.378	-200.000	0.025	0.172
-63.363	-200.000	0.007	-0.069
-62.349	-102.624	0.162	-0.038
-61.334	133.907	-0.793	-1.009
-60.319	466.862	0.442	0.973
-59.305	800.000	-0.316	-0.991
-58.290	555.873	0.387	0.917
-57.276	800.000	0.499	1.759
-56.261	-200.000	105.416	568.480
-55.246	448.280	1463.151	3167.686
-54.232	147.424	2656.436	3515.983
-53.217	105.183	2190.256	2541.063
-52.203	39.878	1715.963	1514.171
-51.188	32.669	1527.133	1298.068
-50.173	30.269	1500.241	1258.898
-49.159	50.651	1553.649	1445.017
-48.144	50.868	1571.499	1463.061
-47.130	32.841	1528.728	1300.408
-46.115	29.868	1513.158	1266.791
-45.100	29.723	1509.929	1263.046
-44.086	29.621	1508.209	1260.862
-43.071	29.497	1506.324	1258.388
-42.057	29.528	1504.202	1256.783
-41.042	29.528	1502.702	1255.476
-40.027	29.516	1501.370	1254.231
-39.013	29.575	1499.893	1253.346
-37.998	29.636	1498.147	1252.253
-36.984	29.457	1497.462	1250.421
-35.969	29.467	1496.357	1249.512
-34.954	29.507	1494.562	1248.238
-33.940	29.480	1493.026	1246.724
-32.925	29.555	1491.628	1246.012
-31.911	29.567	1490.588	1245.172
-30.896	29.596	1488.973	1243.971
-29.881	29.633	1487.973	1243.337
-28.867	29.662	1486.502	1242.251
-27.852	29.639	1485.427	1241.151
-26.838	29.559	1483.853	1239.250
-25.823	29.658	1482.281	1238.551
-24.809	29.601	1480.844	1236.919
-23.794	29.599	1479.495	1235.726
-22.779	29.503	1478.640	1234.322
-21.765	29.625	1477.214	1233.897
-20.750	29.661	1475.792	1232.900
-19.736	29.582	1474.823	1231.516
-18.721	29.543	1473.880	1230.420
-17.706	29.607	1472.024	1229.251
-16.692	29.731	1471.063	1229.220
-15.677	29.632	1470.314	1227.891
-14.663	29.528	1469.522	1226.486
-13.648	29.457	1468.506	1225.120
-12.633	29.507	1467.569	1224.623
-11.619	29.590	1466.354	1224.111
-10.604	29.553	1465.341	1222.970
-9.590	29.483	1465.186	1222.330
-8.575	29.557	1463.815	1221.625
-7.560	29.632	1462.876	1221.292
-6.546	29.468	1462.531	1219.866
-5.531	29.501	1461.536	1219.206
-4.517	29.525	1460.366	1218.343
-3.502	29.427	1459.510	1216.933
-2.487	29.518	1457.913	1216.156
-1.473	29.556	1457.047	1215.634
-0.458	29.504	1455.799	1214.199
0.556	27.836	1446.072	1204.057
1.571	25.047	1420.772	1164.790
2.586	21.620	1358.932	1092.648
3.600	19.982	1276.065	1016.323
4.615	18.930	1231.412	974.711
5.629	16.389	1175.196	916.367
6.644	8.279	1089.671	808.660
7.659	1.365	1048.928	744.545
8.673	0.304	1043.164	735.215
9.688	0.188	1040.049	732.390
10.702	0.074	1038.609	730.760
11.717	0.074	1036.664	729.328
12.731	2.715	1039.483	744.069
13.746	11.134	1050.639	793.132
14.761	16.986	1057.927	827.178
15.775	17.323	1057.246	828.216
16.790	16.505	1054.771	822.229
17.804	15.425	1053.132	815.629
18.819	14.495	1051.387	809.695
19.834	14.207	1049.697	806.922
20.848	13.826	1049.047	804.506
21.863	13.522	1048.310	802.397
22.877	13.345	1047.429	800.794
23.892	13.230	1046.488	799.450
24.907	13.054	1045.439	797.726
25.921	13.162	1044.790	797.679
26.936	13.137	1044.440	797.225
27.950	13.083	1043.913	796.491
28.965	13.150	1042.566	795.715
29.980	13.203	1041.786	795.306
30.994	13.332	1041.180	795.391
32.009	13.253	1040.210	794.198
33.023	13.334	1039.585	794.044
34.038	13.259	1038.948	793.127
35.053	13.273	1037.962	792.367
36.067	13.232	1036.846	791.253
37.082	13.239	1036.014	790.582
38.096	13.231	1035.389	789.994
39.111	13.290	1034.546	789.561
40.126	13.234	1034.037	788.839
41.140	13.199	1032.652	787.543
42.155	13.251	1031.661	786.969
43.169	13.142	1030.475	785.474
44.184	13.142	1029.297	784.507
45.199	13.058	1028.790	783.651
46.213	12.994	1028.316	782.917
47.228	13.174	1026.602	782.398
48.242	13.119	1025.945	781.564
49.257	13.163	1024.585	780.668
50.271	13.202	1023.770	780.163
51.286	13.193	1023.287	779.684
52.301	13.246	1022.353	779.152
53.315	13.228	1021.515	778.358
54.330	13.206	1020.765	777.617
55.344	13.142	1019.745	776.468
56.359	13.200	1018.516	775.739
57.374	13.234	1017.937	775.385
58.388	13.131	1016.889	774.039
59.403	13.153	1016.329	773.647
60.417	13.025	1015.781	772.561
61.432	13.041	1014.844	771.857
62.447	12.965	1014.089	770.858
63.461	13.097	1013.092	770.650
64.476	13.006	1012.711	769.864
65.490	12.953	1011.966	768.985
66.505	13.026	1010.853	768.409
67.520	13.175	1009.579	768.068
68.534	13.115	1009.410	767.589
69.549	13.092	1008.050	766.382
70.563	13.227	1007.581	766.582
71.578	13.082	1007.200	765.554
72.593	13.064	1005.999	764.491
73.607	13.037	1004.751	763.349
74.622	12.922	1004.492	762.551
75.636	12.990	1003.227	761.838
76.651	12.897	1002.657	760.909
77.666	12.966	1002.098	760.736
78.680	13.004	1001.017	760.024
79.695	13.032	1000.561	759.737
80.709	13.053	999.932	759.290
81.724	13.062	999.270	758.764
82.739	13.096	998.456	758.235
83.753	13.210	997.634	758.065
84.768	13.192	997.023	757.450
85.782	13.175	996.476	756.888
86.797	13.265	995.493	756.487
87.812	13.301	994.580	755.893
88.826	13.277	993.696	755.043
89.841	13.237	992.783	754.100
90.855	13.109	992.560	753.283
91.870	13.326	991.584	753.463
92.884	13.264	990.920	752.611
93.899	13.299	990.197	752.154
94.914	13.325	989.639	751.782
95.928	13.360	988.473	750.989
96.943	13.294	988.380	750.548
97.957	13.235	987.646	749.659
98.972	13.269	986.703	749.031
99.987	13.290	985.644	748.254
101.001	13.248	985.385	747.802
102.016	13.326	984.575	747.474
103.030	13.374	983.215	746.591
104.045	13.302	981.985	745.268
105.060	13.231	981.599	744.590
106.074	13.270	980.468	743.843
107.089	13.300	979.394	743.093
108.103	13.134	979.067	742.036
109.118	13.094	978.023	740.998
110.133	13.081	977.154	740.216
111.147	13.138	976.488	739.902
112.162	13.027	975.595	738.663
113.176	13.126	974.802	738.442
114.191	13.159	974.109	737.995
115.206	13.180	972.818	737.049
116.220	13.205	971.915	736.408
117.235	13.256	971.172	736.009
118.249	13.178	970.402	735.013
119.264	13.145	969.470	734.097
120.279	13.267	968.270	733.666
121.293	13.210	967.848	733.024
122.308	13.126	967.044	731.980
123.322	13.125	965.957	731.090
124.337	13.116	965.310	730.492
125.352	13.064	964.265	729.407
126.366	13.080	963.055	728.500
127.381	13.101	962.235	727.907
128.395	13.110	960.733	726.745
129.410	13.072	960.314	726.197
130.424	13.106	959.586	725.731
131.439	13.271	958.231	725.367
132.454	13.085	957.726	724.105
133.468	13.256	956.889	724.159
134.483	13.192	956.175	723.275
135.497	13.279	955.278	722.911
136.512	13.282	954.855	722.538
137.527	13.243	954.003	721.663
138.541	13.244	952.912	720.775
139.556	13.200	952.007	719.837
140.570	13.162	951.589	719.291
141.585	13.353	950.399	719.157
142.600	13.307	950.087	718.659
143.614	13.371	949.189	718.194
144.629	13.288	948.783	717.462
145.643	13.417	947.856	717.257
146.658	13.383	946.661	716.144
147.673	13.260	945.990	715.040
148.687	13.234	945.461	714.465
149.702	13.360	944.548	714.255
150.716	13.451	943.080	713.472
151.731	13.138	942.829	711.874
152.746	13.307	941.547	711.567
153.760	13.222	941.081	710.789
154.775	13.315	940.378	710.592
155.789	13.464	939.732	710.681
156.804	13.343	939.118	709.636
157.819	13.327	938.228	708.834
158.833	13.459	937.295	708.628
159.848	13.506	936.773	708.374
160.862	13.481	936.337	707.874
161.877	13.386	935.372	706.677
162.892	13.431	934.472	706.127
163.906	13.283	933.875	704.983
164.921	13.457	932.755	704.813
165.935	13.451	931.986	704.146
166.950	13.415	931.066	703.237
167.964	13.515	930.001	702.793
168.979	13.408	928.749	701.330
169.994	13.424	928.129	700.870
171.008	13.431	927.045	700.020
172.023	13.488	926.941	700.118
173.037	13.512	925.570	699.122
174.052	13.541	924.794	698.595
175.067	13.508	924.447	698.136
176.081	13.427	923.837	697.269
177.096	13.287	923.328	696.233
178.110	13.472	921.949	695.912
179.125	13.450	921.455	695.385
180.140	13.500	920.489	694.803
181.154	13.598	919.966	694.756
182.169	13.474	919.769	694.028
183.183	13.525	918.737	693.402
184.198	13.659	917.650	693.078
185.213	13.656	917.043	692.547
186.227	13.829	916.175	692.551
187.242	13.767	916.202	692.252
188.256	13.758	915.723	691.793
189.271	13.931	914.664	691.652
190.286	13.866	914.010	690.824
191.300	13.606	913.818	689.536
192.315	13.590	912.556	688.457
193.329	13.495	911.959	687.554
194.344	13.516	910.885	686.770
195.359	13.552	910.743	686.748
196.373	13.545	910.203	686.255
197.388	13.735	909.394	686.369
198.402	13.795	908.951	686.222
199.417	13.848	908.258	685.856
200.432	13.896	908.487	686.168
201.446	14.030	907.695	686.061
202.461	13.908	907.169	685.099
203.475	13.947	906.704	684.847
204.490	14.094	906.153	684.976
205.504	13.822	905.231	683.103
206.519	13.901	904.439	682.769
207.534	13.961	903.693	682.392
208.548	13.930	903.008	681.685
209.563	13.842	902.328	680.752
210.577	13.934	901.623	680.537
211.592	13.866	901.165	679.854
212.607	14.008	900.513	679.881
213.621	14.108	900.156	679.961
214.636	14.005	899.024	678.624
215.650	14.018	898.613	678.307
216.665	13.996	898.430	678.020
217.680	14.113	897.404	677.664
218.694	13.970	897.440	677.046
219.709	14.126	896.613	676.999
220.723	14.252	895.662	676.729
221.738	14.238	895.105	676.193
222.753	14.117	894.457	675.153
223.767	14.146	893.693	674.634
224.782	14.338	892.687	674.594
225.796	14.288	891.882	673.725
226.811	14.252	891.343	673.110
227.826	14.351	890.578	672.871
228.840	14.154	890.427	671.902
229.855	14.212	889.472	671.360
230.869	14.268	888.782	671.005
231.884	14.204	888.207	670.254
232.899	14.120	888.000	669.700
233.913	14.253	886.492	669.038
234.928	14.178	886.165	668.427
235.942	14.308	885.405	668.319
236.957	14.178	884.895	667.354
237.972	14.165	884.419	666.883
238.986	14.193	883.488	666.235
240.001	14.227	882.925	665.886
241.015	14.357	882.428	665.971
242.030	14.341	881.316	665.009
243.045	14.477	880.700	665.030
244.059	14.456	879.978	664.341
245.074	14.385	879.576	663.696
246.088	14.370	879.341	663.400
247.103	14.396	878.591	662.881
248.117	14.432	878.214	662.678
249.132	14.617	877.417	662.755
250.147	14.474	877.087	661.879
251.161	14.688	876.454	662.190
252.176	14.712	875.530	661.531
253.190	14.652	875.138	660.938
254.205	14.835	874.104	660.821
255.220	14.804	873.529	660.204
256.234	14.768	872.951	659.567
257.249	14.843	872.635	659.567
258.263	14.760	872.218	658.867
259.278	14.715	871.802	658.316
260.293	14.859	870.646	657.954
261.307	14.894	870.075	657.602
262.322	14.906	869.637	657.257
263.336	14.934	868.971	656.805
264.351	14.858	868.520	656.108
265.366	15.072	867.884	656.409
266.380	14.908	867.563	655.466
267.395	15.049	866.512	655.167
268.409	14.970	865.705	654.189
269.424	15.029	865.147	653.940
270.439	14.944	864.573	653.117
271.453	14.937	863.635	652.322
272.468	15.041	862.978	652.173
273.482	14.948	862.434	651.344
274.497	14.934	862.064	650.951
275.512	15.009	861.304	650.612
276.526	14.937	860.639	649.773
277.541	15.014	859.950	649.495
278.555	14.982	859.346	648.857
279.570	15.072	858.852	648.776
280.585	15.141	858.054	648.379
281.599	15.194	857.432	648.057
282.614	15.103	857.062	647.371
283.628	15.064	856.690	646.879
284.643	15.034	856.082	646.247
285.657	15.140	855.257	645.976
286.672	15.235	854.562	645.761
287.687	15.233	854.290	645.493
288.701	15.166	853.964	644.932
289.716	15.218	853.324	644.591
290.730	15.187	852.610	643.874
291.745	15.222	851.912	643.424
292.760	15.300	850.976	642.961
293.774	15.402	850.718	643.097
294.789	15.339	850.120	642.350
295.803	15.298	849.650	641.778
296.818	15.368	848.901	641.424
297.833	15.445	847.884	640.894
298.847	15.365	847.338	640.117
299.862	15.352	846.601	639.457
300.876	15.285	846.087	638.755
301.891	15.317	845.917	638.693
302.906	15.494	845.122	638.709
303.920	15.620	844.145	638.392
304.935	15.556	843.729	637.781
305.949	15.683	842.863	637.549
306.964	15.716	842.273	637.171
307.979	15.508	842.061	636.167
308.993	15.453	841.551	635.519
310.008	15.666	840.734	635.651
311.022	15.648	840.151	635.086
312.037	15.724	839.921	635.143
313.052	15.533	839.544	634.080
314.066	15.604	838.669	633.629
315.081	15.560	837.912	632.835
316.095	15.445	837.411	631.968
317.110	15.656	836.922	632.338
318.125	15.484	836.602	631.393
319.139	15.563	835.813	631.040
320.154	15.442	835.515	630.303
321.168	15.613	834.776	630.331
322.183	15.678	834.665	630.435
323.197	15.616	834.213	629.809
324.212	15.624	833.587	629.310
325.227	15.520	832.963	628.392
326.241	15.652	832.257	628.298
327.256	15.521	831.651	627.297
328.270	15.812	830.877	627.743
329.285	15.740	830.337	627.009
330.300	15.641	829.977	626.312
331.314	15.726	829.416	626.151
332.329	15.716	828.686	625.507
333.343	15.835	828.184	625.517
334.358	15.883	827.533	625.147
335.373	15.781	827.042	624.343
336.387	15.854	826.386	624.060
337.402	15.860	826.083	623.799
338.416	16.026	825.374	623.824
339.431	15.969	824.977	623.257
340.446	15.988	824.329	622.783
341.460	15.940	823.887	622.217
342.475	16.063	823.239	622.128
343.489	16.181	822.392	621.867
344.504	16.073	822.166	621.243
345.519	16.143	821.649	621.055
346.533	16.214	821.007	620.774
347.548	16.249	820.581	620.530
348.562	16.189	820.020	619.830
349.577	16.190	819.351	619.272
350.592	16.098	819.055	618.656
351.606	16.156	818.296	618.239
352.621	15.986	818.361	617.612
353.635	16.133	817.444	617.404
354.650	16.089	817.393	617.149
355.665	16.102	816.732	616.643
356.679	16.205	816.451	616.752
357.694	16.054	816.119	615.896
358.708	16.210	815.527	615.962
359.723	16.248	814.624	615.365
360.738	16.306	814.278	615.261
361.752	16.311	813.682	614.773
362.767	16.320	813.058	614.282
363.781	16.336	812.604	613.942
364.796	16.500	812.034	614.053
365.810	16.418	811.940	613.628
366.825	16.461	811.764	613.598
367.840	16.338	811.356	612.788
368.854	16.476	810.786	612.805
369.869	16.550	810.162	612.547
370.883	16.337	809.933	611.548
371.898	16.409	809.434	611.379
372.913	16.428	808.853	610.953
373.927	16.523	808.094	610.671
374.942	16.666	807.197	610.452
375.956	16.509	806.605	609.384
376.971	16.630	806.237	609.489
377.986	16.726	805.544	609.257
379.000	16.685	805.064	608.692
380.015	16.598	804.897	608.199
381.029	16.698	804.301	608.054
382.044	16.737	803.289	607.378
383.059	16.894	802.937	607.619
384.073	16.734	802.937	606.992
385.088	16.747	802.096	606.348
386.102	16.664	801.717	605.712
387.117	16.663	801.008	605.120
388.132	16.774	800.580	605.137
389.146	16.649	800.096	604.275
390.161	16.591	800.101	604.017
391.175	16.631	799.750	603.842
392.190	16.803	799.218	603.998
393.205	16.831	798.852	603.768
394.219	16.777	798.286	603.095
395.234	16.694	798.240	602.710
396.248	16.793	796.996	602.070
397.263	16.747	796.667	601.606
398.278	16.702	795.988	600.880
399.292	16.769	795.644	600.805
400.307	16.655	795.451	600.202
401.321	16.854	794.941	600.470
402.336	16.762	794.806	599.986
403.350	16.682	794.262	599.239
404.365	16.884	793.837	599.581
405.380	16.873	793.148	598.970
406.394	16.939	792.510	598.669
407.409	16.924	792.436	598.504
408.423	17.051	792.029	598.593
409.438	17.137	791.250	598.255
410.453	17.125	790.723	597.762
411.467	17.031	790.967	597.563
412.482	17.124	790.032	597.129
413.496	17.297	789.440	597.238
414.511	17.196	789.110	596.580
415.526	17.254	788.535	596.295
416.540	17.295	788.147	596.094
417.555	17.317	787.939	595.959
418.569	17.290	787.355	595.372
419.584	17.225	787.163	594.946
420.599	17.183	786.775	594.452
421.613	108.787	1289.756	1468.123
422.628	93.250	1363.006	1468.209
