DTS Sentinel unit serial number:	SN413079Multiplexer serial number:	ORYXHardware model number:	OX4-SRSoftware version number:	ORYX F/W v4.00 Oryx Data Collector v3.7.2.0data status	okinstallation	princeton_trtdifferential loss correction	single-endedforward channel	channel 3reverse channel	N/Adate	2019/09/11time	05:50:11forward acquisition time	60.00reverse acquisition time	0.00gamma	496.2192k internal	0.2331k external	0.2331temperature offset calibration	0.9910default loss term (dB/km)	0.3790temperature slope calibration	1.0000multiplexer offset coefficient	1.0000multiplexer slope coefficient	1.0000fibre end	0.00T internal ref (°C)	29.41T ext. ref 1 (°C)	-0.23T ext. ref 2 (°C)	23.42length (m)	temperature (°C)	Stokes	anti-Stokes-747.200	-151.952	-0.230	0.017
-746.185	84.891	-0.318	0.351
-745.171	321.960	0.051	-0.097
-744.156	314.433	0.156	0.296
-743.142	-184.094	0.070	0.001
-742.127	60.185	-0.333	-0.332
-741.112	108.927	-0.129	-0.155
-740.098	-132.233	0.296	-0.039
-739.083	-200.000	0.021	0.365
-738.069	477.723	0.052	0.118
-737.054	-45.210	0.261	0.130
-736.039	-27.307	-0.336	-0.197
-735.025	-74.122	-0.085	-0.031
-734.010	46.541	-0.140	-0.131
-732.996	104.448	-0.298	-0.353
-731.981	35.896	0.104	0.092
-730.966	-177.743	-0.147	-0.004
-729.952	362.334	-0.155	-0.312
-728.937	-51.906	0.125	0.059
-727.923	123.605	0.042	-0.053
-726.908	-200.000	0.003	-0.013
-725.894	-200.000	-0.052	-0.503
-724.879	782.638	0.075	-0.207
-723.864	-156.346	0.066	-0.004
-722.850	-48.057	-0.010	-0.005
-721.835	105.413	-0.060	-0.072
-720.821	16.363	-0.101	0.080
-719.806	800.000	0.045	-0.153
-718.791	62.398	-0.204	0.205
-717.777	800.000	-0.151	0.577
-716.762	-99.322	-0.388	0.098
-715.748	191.415	0.130	0.197
-714.733	192.453	0.099	-0.150
-713.718	114.303	0.127	0.156
-712.704	-93.377	0.113	-0.031
-711.689	467.912	-0.074	0.166
-710.675	-55.315	0.230	-0.104
-709.660	36.854	0.443	0.394
-708.645	279.415	0.160	0.287
-707.631	-108.416	-0.212	-0.046
-706.616	-152.563	-0.299	-0.022
-705.602	-45.036	-0.066	0.033
-704.587	-200.000	-0.060	-0.327
-703.572	52.814	-0.105	0.101
-702.558	-82.890	0.134	0.044
-701.543	722.926	-0.063	-0.167
-700.529	784.841	-0.036	0.099
-699.514	140.609	0.015	0.020
-698.499	-30.595	-0.101	-0.057
-697.485	-1.224	0.165	-0.117
-696.470	-200.000	0.034	0.294
-695.456	-65.358	0.148	-0.060
-694.441	-200.000	-0.030	-0.258
-693.426	-48.612	-0.316	0.153
-692.412	-91.592	-0.334	-0.096
-691.397	800.000	-0.079	-0.255
-690.383	-88.292	-0.272	-0.082
-689.368	-22.622	-0.019	0.011
-688.354	-58.028	0.241	0.105
-687.339	-90.866	0.212	0.061
-686.324	-123.822	-0.116	0.018
-685.310	-37.204	0.192	0.103
-684.295	800.000	0.011	0.044
-683.281	431.040	0.086	-0.187
-682.266	-64.881	0.066	0.027
-681.251	-166.356	0.281	0.012
-680.237	601.733	0.097	-0.242
-679.222	50.447	0.215	-0.204
-678.208	-162.045	-0.146	0.007
-677.193	800.000	-0.104	-0.297
-676.178	-125.624	0.439	-0.067
-675.164	-119.160	-0.159	0.028
-674.149	-142.752	-0.056	-0.006
-673.135	-2.664	-0.086	-0.060
-672.120	-6.032	-0.326	0.224
-671.105	359.000	0.076	0.152
-670.091	364.591	0.120	0.242
-669.076	527.986	0.103	-0.244
-668.062	-28.969	-0.204	0.117
-667.047	-72.468	-0.229	0.085
-666.032	-112.038	0.234	-0.047
-665.018	214.860	0.068	-0.108
-664.003	232.862	0.068	-0.113
-662.989	49.333	-0.260	-0.245
-661.974	800.000	-0.017	0.056
-660.959	-48.376	-0.192	0.093
-659.945	-200.000	-0.007	0.158
-658.930	-23.288	-0.157	-0.095
-657.916	62.764	-0.121	0.121
-656.901	-47.921	0.078	-0.038
-655.886	-103.763	-0.180	-0.042
-654.872	-200.000	-0.024	-0.227
-653.857	-86.696	-0.350	0.108
-652.843	107.162	0.074	-0.088
-651.828	-99.788	-0.388	0.097
-650.814	-36.271	-0.006	0.003
-649.799	-200.000	0.003	0.116
-648.784	107.148	-0.088	-0.105
-647.770	800.000	0.110	-0.335
-646.755	800.000	-0.122	-0.431
-645.741	-48.502	-0.293	-0.141
-644.726	-179.555	0.243	0.005
-643.711	339.234	0.230	-0.450
-642.697	389.031	-0.003	0.007
-641.682	-172.605	-0.291	0.009
-640.668	-77.059	-0.231	-0.081
-639.653	-81.283	-0.170	-0.056
-638.638	-125.533	-0.126	0.019
-637.624	-200.000	-0.068	-0.530
-636.609	-126.533	0.364	-0.054
-635.595	-26.519	-0.201	-0.118
-634.580	59.973	-0.087	0.086
-633.565	-200.000	0.012	0.371
-632.551	-25.811	-0.378	0.223
-631.536	62.580	0.092	0.092
-630.522	-107.779	-0.239	0.052
-629.507	-200.000	-0.007	0.048
-628.492	-149.130	-0.063	-0.005
-627.478	-200.000	-0.055	-0.486
-626.463	800.000	-0.138	-0.393
-625.449	-112.857	-0.143	-0.028
-624.434	56.439	0.053	-0.052
-623.419	-200.000	0.028	0.307
-622.405	-200.000	0.010	-0.179
-621.390	45.863	-0.186	-0.172
-620.376	800.000	-0.067	-0.221
-619.361	-85.470	0.321	-0.100
-618.346	96.438	-0.306	-0.350
-617.332	-174.128	-0.325	-0.010
-616.317	338.249	0.067	0.130
-615.303	-43.525	0.202	-0.102
-614.288	228.653	-0.186	-0.304
-613.273	-41.669	-0.101	0.052
-612.259	690.971	-0.088	-0.232
-611.244	212.544	-0.098	-0.154
-610.230	-71.968	0.274	0.102
-609.215	11.248	-0.357	-0.274
-608.201	3.078	-0.176	-0.128
-607.186	-5.170	0.092	0.063
-606.171	-200.000	-0.015	0.275
-605.157	211.934	0.010	-0.016
-604.142	-2.565	0.112	0.079
-603.128	42.712	0.299	-0.272
-602.113	164.620	0.084	-0.119
-601.098	-200.000	-0.019	-0.136
-600.084	800.000	0.032	-0.094
-599.069	75.023	-0.179	-0.189
-598.055	105.114	0.165	0.195
-597.040	94.993	-0.038	0.043
-596.025	-159.653	0.145	-0.008
-595.011	-100.135	-0.104	0.026
-593.996	800.000	0.055	-0.191
-592.982	-200.000	-0.038	-0.422
-591.967	9.793	0.395	-0.300
-590.952	-200.000	-0.007	-0.219
-589.938	-87.266	-0.174	-0.053
-588.923	676.210	0.111	-0.288
-587.909	-200.000	-0.040	-0.522
-586.894	26.331	-0.081	0.067
-585.879	-200.000	0.016	-0.181
-584.865	-158.825	0.216	-0.012
-583.850	-114.122	-0.096	-0.019
-582.836	-200.000	-0.025	-0.148
-581.821	-163.634	0.205	-0.010
-580.806	-99.968	0.362	0.090
-579.792	-108.025	-0.401	0.087
-578.777	-19.022	0.163	-0.101
-577.763	-169.770	-0.201	0.007
-576.748	-122.890	-0.107	-0.017
-575.733	673.455	0.103	0.268
-574.719	-200.000	0.002	0.286
-573.704	-123.257	0.088	0.014
-572.690	7.681	0.282	0.211
-571.675	141.576	-0.064	0.084
-570.661	221.959	-0.114	0.183
-569.646	607.155	-0.106	-0.264
-568.631	-200.000	0.029	-0.154
-567.617	-21.628	0.109	-0.066
-566.602	45.797	-0.200	0.185
-565.588	-200.000	0.018	-0.173
-564.573	-80.288	-0.286	-0.096
-563.558	100.999	0.181	0.210
-562.544	-100.172	-0.177	0.044
-561.529	-200.000	0.063	0.447
-560.515	239.682	-0.146	0.243
-559.500	-119.323	0.193	0.034
-558.485	-104.383	-0.313	-0.072
-557.471	-176.078	0.107	-0.003
-556.456	-149.835	0.206	0.016
-555.442	138.423	-0.058	0.076
-554.427	269.991	-0.206	0.361
-553.412	-200.000	0.011	-0.174
-552.398	-200.000	0.052	-0.265
-551.383	-200.000	0.159	-0.000
-550.369	2.203	0.220	0.159
-549.354	800.000	0.062	0.244
-548.339	-200.000	0.007	0.264
-547.325	32.241	0.077	-0.066
-546.310	-116.677	0.183	-0.034
-545.296	-200.000	0.000	-0.116
-544.281	-130.744	0.199	-0.027
-543.266	89.004	0.169	0.188
-542.252	-66.876	-0.332	-0.131
-541.237	-19.995	0.043	-0.026
-540.223	45.211	0.455	0.418
-539.208	0.926	-0.227	0.163
-538.193	-163.842	-0.172	-0.008
-537.179	683.674	-0.066	-0.172
-536.164	-200.000	0.021	0.153
-535.150	22.344	0.274	0.223
-534.135	21.623	0.101	0.082
-533.121	-16.788	-0.102	0.064
-532.106	-48.033	-0.268	-0.129
-531.091	-87.229	-0.074	0.022
-530.077	15.916	0.252	0.198
-529.062	216.820	0.192	-0.304
-528.048	648.734	-0.062	-0.159
-527.033	-83.303	0.073	-0.023
-526.018	480.986	-0.166	-0.377
-525.004	-102.665	-0.143	0.034
-523.989	-68.200	0.185	0.072
-522.975	184.006	0.242	0.357
-521.960	-175.649	-0.111	-0.003
-520.945	-200.000	-0.006	0.141
-519.931	-77.735	0.242	-0.084
-518.916	43.662	-0.114	0.104
-517.902	7.256	-0.233	-0.174
-516.887	800.000	0.034	-0.134
-515.872	-200.000	0.054	0.307
-514.858	-11.638	0.222	-0.146
-513.843	-200.000	0.012	-0.186
-512.829	-86.418	0.120	-0.037
-511.814	800.000	0.071	-0.219
-510.799	58.322	0.159	0.156
-509.785	-104.483	0.312	0.072
-508.770	5.480	0.170	0.125
-507.756	129.665	0.104	0.133
-506.741	-200.000	-0.251	0.000
-505.726	800.000	0.039	-0.151
-504.712	-200.000	0.018	-0.313
-503.697	200.483	-0.163	0.250
-502.683	91.587	0.151	-0.169
-501.668	-28.310	0.431	-0.248
-500.653	361.412	-0.160	0.319
-499.639	184.923	0.113	-0.168
-498.624	-127.814	-0.101	-0.015
-497.610	-157.645	-0.085	-0.005
-496.595	-113.373	-0.104	0.020
-495.581	19.675	-0.092	-0.074
-494.566	5.404	0.184	0.135
-493.551	326.976	0.058	-0.110
-492.537	-131.095	-0.158	-0.021
-491.522	342.407	0.071	0.139
-490.508	55.622	-0.105	-0.101
-489.493	604.407	0.042	0.103
-488.478	800.000	0.037	-0.153
-487.464	-200.000	-0.053	0.263
-486.449	6.185	-0.092	0.068
-485.435	-200.000	0.102	-0.537
-484.420	706.949	0.014	-0.036
-483.405	-200.000	-0.002	0.152
-482.391	406.229	0.179	0.376
-481.376	-93.890	0.387	-0.106
-480.362	-95.627	-0.144	0.038
-479.347	472.777	-0.074	0.167
-478.332	-97.975	0.092	0.024
-477.318	-200.000	-0.021	0.291
-476.303	9.510	0.073	0.055
-475.289	-44.721	0.266	0.132
-474.274	-29.768	-0.428	0.243
-473.259	-53.107	-0.228	0.104
-472.245	-200.000	0.076	-0.000
-471.230	-53.743	-0.108	-0.049
-470.216	-78.736	0.067	-0.023
-469.201	142.889	-0.199	-0.263
-468.186	-133.837	-0.238	-0.030
-467.172	11.484	0.103	-0.078
-466.157	134.054	0.085	0.110
-465.143	335.244	0.137	-0.264
-464.128	-47.227	0.332	0.161
-463.113	-200.000	-0.083	0.542
-462.099	-97.903	-0.253	0.065
-461.084	800.000	0.031	0.095
-460.070	229.001	0.057	0.092
-459.055	-96.558	0.137	-0.036
-458.040	25.545	-0.337	-0.279
-457.026	482.871	0.132	-0.298
-456.011	-53.091	-0.036	0.017
-454.997	-64.777	-0.110	0.044
-453.982	-60.486	0.260	0.110
-452.968	-159.970	0.139	0.008
-451.953	-200.000	0.042	-0.196
-450.938	-50.968	-0.288	-0.134
-449.924	133.413	-0.208	0.268
-448.909	-200.000	0.045	0.249
-447.895	-15.840	-0.196	0.124
-446.880	20.940	-0.238	0.192
-445.865	35.385	0.323	-0.282
-444.851	-116.478	-0.560	0.103
-443.836	203.692	0.186	-0.287
-442.822	69.039	0.159	0.163
-441.807	474.242	0.154	0.347
-440.792	-136.309	0.118	-0.014
-439.778	102.606	-0.314	-0.365
-438.763	-70.875	0.347	-0.130
-437.749	111.828	-0.024	0.029
-436.734	233.682	-0.183	-0.299
-435.719	0.384	0.058	-0.042
-434.705	3.887	0.128	0.093
-433.690	-36.010	-0.184	0.099
-432.676	-200.000	0.023	-0.156
-431.661	-133.501	0.162	0.020
-430.646	26.725	-0.093	0.078
-429.632	-200.000	0.037	0.240
-428.617	-200.000	-0.028	-0.188
-427.603	-200.000	0.036	0.383
-426.588	-142.020	0.238	0.024
-425.573	-63.543	0.182	-0.074
-424.559	644.965	-0.087	-0.221
-423.544	800.000	-0.061	-0.217
-422.530	-8.810	0.291	0.194
-421.515	27.652	-0.140	0.117
-420.500	257.390	0.161	-0.275
-419.486	-54.303	0.125	0.056
-418.471	69.493	0.090	-0.092
-417.457	-131.306	0.344	-0.045
-416.442	800.000	-0.080	-0.339
-415.428	587.167	-0.123	-0.301
-414.413	-60.685	-0.191	-0.081
-413.398	-87.830	-0.154	0.046
-412.384	-98.895	0.282	-0.071
-411.369	-98.232	-0.481	0.123
-410.355	-39.232	-0.355	0.185
-409.340	1.521	-0.281	-0.201
-408.325	336.623	-0.128	-0.247
-407.311	112.598	-0.033	-0.039
-406.296	-81.820	-0.148	-0.048
-405.282	26.497	0.220	0.183
-404.267	209.285	-0.083	-0.129
-403.252	-124.731	-0.154	-0.024
-402.238	800.000	-0.086	0.245
-401.223	89.868	0.061	-0.067
-400.209	-200.000	0.036	-0.246
-399.194	253.306	0.136	-0.231
-398.179	296.458	-0.089	0.162
-397.165	65.454	0.104	0.105
-396.150	21.900	0.156	0.127
-395.136	-200.000	-0.021	0.178
-394.121	-15.917	0.140	0.089
-393.106	-0.570	-0.277	0.195
-392.092	-0.567	0.070	0.050
-391.077	-111.493	-0.145	-0.029
-390.063	115.387	-0.009	-0.011
-389.048	163.112	-0.168	0.235
-388.033	-91.462	0.193	0.055
-387.019	-77.479	-0.223	0.077
-386.004	293.913	0.070	-0.126
-384.990	539.206	0.098	0.231
-383.975	-152.220	-0.223	0.016
-382.960	-12.591	0.288	-0.187
-381.946	-95.214	-0.079	-0.021
-380.931	-119.083	-0.207	-0.036
-379.917	-58.793	0.091	-0.039
-378.902	274.756	-0.153	0.268
-377.888	449.127	-0.093	-0.202
-376.873	201.448	0.155	-0.237
-375.858	800.000	0.024	-0.084
-374.844	-180.567	0.088	-0.002
-373.829	-16.299	0.125	-0.079
-372.815	309.075	0.105	0.195
-371.800	-77.661	-0.391	0.134
-370.785	27.342	-0.271	-0.226
-369.771	-107.590	-0.036	-0.008
-368.756	800.000	-0.043	0.124
-367.742	-42.720	0.146	0.074
-366.727	142.333	0.190	0.250
-365.712	-86.236	-0.178	-0.054
-364.698	-17.967	0.154	0.096
-363.683	219.965	0.054	-0.086
-362.669	-151.791	-0.243	-0.018
-361.654	37.989	-0.123	-0.108
-360.639	-61.544	0.149	-0.062
-359.625	-72.876	0.067	0.025
-358.610	-200.000	0.035	-0.278
-357.596	800.000	0.037	-0.108
-356.581	-200.000	0.044	0.341
-355.566	-93.743	0.142	-0.039
-354.552	680.429	-0.049	-0.127
-353.537	-200.000	-0.130	-0.000
-352.523	800.000	0.024	0.099
-351.508	86.634	-0.125	0.137
-350.493	211.583	-0.124	0.193
-349.479	394.080	0.113	0.233
-348.464	6.626	-0.150	0.110
-347.450	-122.577	0.152	0.024
-346.435	-200.000	0.019	0.136
-345.420	-31.909	0.351	-0.195
-344.406	800.000	-0.118	-0.399
-343.391	-200.000	-0.012	-0.064
-342.377	48.306	-0.152	-0.141
-341.362	309.734	-0.060	0.111
-340.348	158.875	0.123	0.170
-339.333	-97.437	0.349	0.090
-338.318	-200.000	-0.013	0.160
-337.304	35.464	-0.090	0.078
-336.289	-200.000	0.032	-0.148
-335.275	73.021	-0.218	0.226
-334.260	-142.474	-0.600	0.058
-333.245	-175.095	0.297	-0.008
-332.231	-138.446	-0.318	-0.035
-331.216	-200.000	-0.018	-0.352
-330.202	18.278	0.029	-0.023
-329.187	-200.000	0.016	0.135
-328.172	-62.787	-0.231	-0.095
-327.158	-12.052	-0.297	-0.193
-326.143	27.496	-0.218	0.182
-325.129	-200.000	-0.026	-0.170
-324.114	147.123	0.087	0.116
-323.099	-56.037	0.351	0.155
-322.085	233.080	-0.166	0.271
-321.070	-200.000	-0.044	-0.364
-320.056	-134.393	-0.004	-0.000
-319.041	-159.135	-0.367	-0.020
-318.026	177.762	-0.258	-0.373
-317.012	221.436	0.170	-0.271
-315.997	-200.000	0.038	0.174
-314.983	557.533	0.083	0.198
-313.968	-200.000	0.045	-0.269
-312.953	800.000	0.022	0.060
-311.939	265.038	-0.128	-0.220
-310.924	162.977	0.026	0.036
-309.910	-34.192	0.182	-0.099
-308.895	218.368	-0.088	-0.139
-307.880	172.678	-0.208	-0.297
-306.866	800.000	-0.052	-0.191
-305.851	-109.224	0.080	-0.017
-304.837	800.000	-0.083	0.237
-303.822	-16.881	-0.171	-0.107
-302.807	-128.581	0.255	0.036
-301.793	-169.418	0.265	0.010
-300.778	0.773	-0.132	0.094
-299.764	-124.635	0.086	0.013
-298.749	108.315	0.080	0.094
-297.735	-200.000	0.000	0.006
-296.720	-200.000	-0.033	-0.365
-295.705	612.265	-0.148	-0.366
-294.691	-100.494	0.234	0.057
-293.676	-200.000	0.008	0.215
-292.662	-81.463	0.122	0.040
-291.647	-200.000	-0.075	-0.554
-290.632	-200.000	-0.022	-0.110
-289.618	-80.103	-0.291	0.096
-288.603	58.839	0.269	0.262
-287.589	693.938	-0.077	0.201
-286.574	230.884	0.149	0.242
-285.559	548.458	0.150	0.356
-284.545	727.847	-0.172	0.454
-283.530	-114.715	0.121	-0.023
-282.516	76.740	0.158	0.165
-281.501	32.687	0.016	-0.013
-280.486	-133.858	-0.235	0.029
-279.472	131.949	0.155	0.197
-278.457	74.137	-0.134	-0.139
-277.443	515.294	-0.059	-0.135
-276.428	29.491	0.007	0.005
-275.413	-32.441	0.189	0.104
-274.399	209.901	-0.072	0.111
-273.384	72.766	0.200	0.206
-272.370	632.047	0.034	0.086
-271.355	-200.000	-0.012	-0.243
-270.340	-160.434	-0.117	0.006
-269.326	-200.000	-0.019	0.166
-268.311	-200.000	-0.026	0.257
-267.297	337.987	0.243	0.468
-266.282	800.000	0.059	0.186
-265.267	-47.512	0.095	0.046
-264.253	481.205	0.051	-0.114
-263.238	11.642	-0.120	-0.091
-262.224	-200.000	0.002	0.192
-261.209	795.192	-0.166	0.452
-260.195	643.344	-0.041	0.104
-259.180	-12.901	0.285	-0.183
-258.165	-164.806	-0.081	-0.004
-257.151	-3.593	0.095	-0.065
-256.136	800.000	0.035	0.095
-255.122	-88.445	0.153	-0.045
-254.107	0.043	-0.177	0.125
-253.092	-32.664	0.207	0.114
-252.078	623.662	0.107	-0.266
-251.063	-120.608	0.435	-0.073
-250.049	-26.432	-0.032	-0.019
-249.034	87.338	0.210	0.229
-248.019	-89.966	-0.131	0.038
-247.005	-200.000	0.017	-0.155
-245.990	-200.000	-0.246	0.001
-244.976	-29.347	0.347	0.196
-243.961	752.667	-0.084	-0.223
-242.946	-65.021	0.197	-0.078
-241.932	152.333	0.219	0.295
-240.917	42.847	-0.017	0.016
-239.903	-45.723	0.146	-0.071
-238.888	-189.518	0.273	-0.003
-237.873	94.033	-0.052	0.058
-236.859	-102.953	0.087	0.020
-235.844	164.023	-0.153	0.212
-234.830	256.405	-0.055	-0.093
-233.815	145.708	-0.112	-0.148
-232.800	800.000	0.040	-0.168
-231.786	21.426	0.097	0.078
-230.771	118.564	-0.157	-0.191
-229.757	-200.000	-0.015	-0.137
-228.742	-68.892	-0.285	-0.109
-227.727	800.000	0.031	0.129
-226.713	-156.598	0.051	0.003
-225.698	94.493	0.063	-0.070
-224.684	-23.063	0.317	0.189
-223.669	483.687	-0.120	0.270
-222.655	-57.904	0.306	-0.132
-221.640	126.771	-0.074	0.093
-220.625	398.238	-0.057	0.119
-219.611	-83.473	0.246	0.078
-218.596	-141.315	0.318	0.032
-217.582	211.260	-0.241	0.374
-216.567	-11.158	0.221	0.144
-215.552	-45.617	-0.258	-0.126
-214.538	-200.000	0.009	0.054
-213.523	410.931	-0.110	-0.230
-212.509	-145.465	-0.229	-0.020
-211.494	-171.133	0.067	-0.002
-210.479	129.175	0.052	0.065
-209.465	413.817	-0.067	-0.140
-208.450	800.000	0.017	-0.057
-207.436	110.197	0.054	-0.064
-206.421	398.017	-0.104	0.215
-205.406	-144.785	-0.221	0.020
-204.392	-24.330	-0.283	-0.166
-203.377	800.000	-0.098	0.417
-202.363	-24.739	-0.124	-0.073
-201.348	237.795	0.157	0.257
-200.333	528.844	0.058	0.136
-199.319	-95.520	-0.090	0.024
-198.304	-154.519	0.074	0.005
-197.290	-200.000	-0.019	-0.223
-196.275	-200.000	0.066	-0.395
-195.260	-200.000	-0.002	0.221
-194.246	-200.000	0.064	0.338
-193.231	-108.346	-0.147	-0.031
-192.217	-200.000	-0.016	-0.118
-191.202	-200.000	0.008	0.101
-190.187	-200.000	0.061	-0.290
-189.173	62.650	-0.176	0.174
-188.158	-106.069	0.161	0.036
-187.144	-159.282	0.116	-0.006
-186.129	306.498	-0.233	-0.428
-185.114	38.399	-0.116	-0.102
-184.100	-60.124	0.196	-0.082
-183.085	250.192	0.184	0.308
-182.071	-79.404	-0.265	0.088
-181.056	296.660	0.060	0.109
-180.042	474.477	0.044	0.098
-179.027	-156.765	0.069	-0.004
-178.012	2.819	0.154	0.110
-176.998	-63.471	-0.289	0.117
-175.983	-200.000	0.043	0.231
-174.969	593.802	-0.162	0.393
-173.954	-44.270	-0.123	0.061
-172.939	51.249	0.227	-0.213
-171.925	-83.394	-0.126	-0.040
-170.910	-1.240	0.212	0.147
-169.896	-110.476	-0.227	-0.046
-168.881	251.713	-0.100	-0.168
-167.866	122.882	0.174	-0.215
-166.852	-51.773	0.086	0.039
-165.837	-171.967	-0.204	0.007
-164.823	-200.000	-0.000	-0.022
-163.808	11.285	-0.185	-0.139
-162.793	92.174	0.175	0.194
-161.779	800.000	-0.077	0.307
-160.764	800.000	0.047	0.184
-159.750	392.343	-0.219	-0.448
-158.735	59.485	0.137	-0.132
-157.720	-31.758	0.048	0.026
-156.706	111.706	-0.019	0.022
-155.691	-131.714	0.121	-0.016
-154.677	800.000	0.018	0.050
-153.662	89.581	0.244	0.268
-152.647	-51.123	0.078	0.036
-151.633	-200.000	0.037	0.228
-150.618	506.487	0.031	-0.070
-149.604	25.919	-0.098	0.080
-148.589	-57.321	0.210	-0.091
-147.574	-200.000	-0.024	0.206
-146.560	103.084	-0.247	-0.285
-145.545	-56.714	0.029	0.013
-144.531	-93.357	-0.082	-0.022
-143.516	222.636	0.129	-0.204
-142.502	-200.000	0.022	0.218
-141.487	-60.625	-0.320	-0.133
-140.472	12.530	-0.111	-0.084
-139.458	221.974	0.210	-0.332
-138.443	20.600	-0.134	0.107
-137.429	-0.187	0.104	-0.073
-136.414	-179.582	-0.243	-0.005
-135.399	-16.945	0.131	-0.081
-134.385	-1.884	-0.138	-0.096
-133.370	-103.161	0.317	-0.074
-132.356	800.000	-0.074	-0.210
-131.341	64.724	0.039	-0.039
-130.326	211.244	0.052	-0.081
-129.312	50.747	0.103	-0.096
-128.297	-200.000	0.024	0.343
-127.283	-99.529	-0.128	-0.032
-126.268	779.085	-0.238	0.640
-125.253	-200.000	-0.076	0.376
-124.239	-200.000	0.050	0.245
-123.224	-123.737	-0.214	-0.033
-122.210	449.736	0.108	0.233
-121.195	-64.411	0.135	0.054
-120.180	-12.186	-0.111	0.071
-119.166	-32.441	-0.277	-0.152
-118.151	-54.264	0.153	-0.068
-117.137	-200.000	0.011	0.256
-116.122	-75.176	0.119	-0.042
-115.107	-84.995	0.090	-0.028
-114.093	-200.000	-0.076	-0.366
-113.078	177.762	-0.113	-0.161
-112.064	67.740	-0.122	-0.123
-111.049	128.583	-0.076	-0.095
-110.034	-200.000	-0.033	-0.158
-109.020	692.315	-0.045	0.116
-108.005	54.709	0.247	0.234
-106.991	-29.650	-0.291	-0.163
-105.976	-7.684	-0.165	0.110
-104.962	135.628	-0.118	0.151
-103.947	-142.090	-0.238	0.023
-102.932	-102.394	-0.322	0.076
-101.918	19.004	-0.116	0.091
-100.903	-200.000	-0.060	-0.337
-99.889	-111.970	-0.281	0.056
-98.874	149.936	0.166	0.221
-97.859	-5.439	0.128	-0.086
-96.845	800.000	0.045	0.150
-95.830	181.096	-0.079	0.114
-94.816	324.946	0.145	-0.272
-93.801	15.009	0.115	0.088
-92.786	333.463	0.248	-0.471
-91.772	149.402	0.098	-0.131
-90.757	7.004	-0.286	0.209
-89.743	-200.000	-0.012	-0.123
-88.728	-15.013	0.219	-0.137
-87.713	81.323	0.126	0.133
-86.699	-111.150	0.161	0.032
-85.684	-159.897	0.326	-0.018
-84.670	-37.196	0.181	0.095
-83.655	-152.776	0.171	-0.012
-82.640	-200.000	0.019	-0.129
-81.626	154.698	-0.057	0.076
-80.611	-200.000	-0.021	0.130
-79.597	86.110	0.279	0.301
-78.582	427.322	0.157	0.333
-77.567	-42.533	0.027	0.013
-76.553	-86.715	-0.045	-0.014
-75.538	-22.806	0.201	0.119
-74.524	-172.363	0.151	0.005
-73.509	170.333	-0.087	-0.122
-72.494	-145.046	-0.296	-0.026
-71.480	-7.189	-0.273	0.181
-70.465	-8.941	0.306	-0.201
-69.451	22.782	0.092	0.074
-68.436	-112.264	-0.148	-0.029
-67.422	-200.000	0.033	0.179
-66.407	-200.000	0.006	-0.154
-65.392	-47.803	-0.192	-0.091
-64.378	-8.085	0.182	-0.120
-63.363	134.601	0.141	0.180
-62.349	19.089	-0.145	0.114
-61.334	34.826	-1.063	-0.912
-60.319	101.806	0.728	0.833
-59.305	-200.000	-0.006	-1.232
-58.290	699.117	0.469	1.208
-57.276	722.150	0.639	1.665
-56.261	-200.000	106.294	614.243
-55.246	504.306	1511.020	3426.708
-54.232	176.074	2702.968	3844.989
-53.217	110.150	2185.775	2571.189
-52.203	40.053	1705.497	1501.512
-51.188	32.546	1516.217	1283.882
-50.173	30.188	1489.064	1245.032
-49.159	51.496	1544.728	1437.910
-48.144	51.548	1561.822	1454.124
-47.130	32.790	1517.265	1286.233
-46.115	29.758	1502.439	1253.105
-45.100	29.517	1499.081	1248.625
-44.086	29.494	1496.709	1246.445
-43.071	29.366	1494.881	1244.006
-42.057	29.311	1493.329	1242.295
-41.042	29.367	1492.062	1241.571
-40.027	29.429	1490.942	1241.006
-39.013	29.345	1489.138	1238.888
-37.998	29.382	1487.446	1237.681
-36.984	29.354	1486.597	1236.739
-35.969	29.363	1484.786	1235.244
-34.954	29.463	1483.334	1234.653
-33.940	29.333	1482.364	1232.930
-32.925	29.372	1480.298	1231.423
-31.911	29.488	1479.672	1231.628
-30.896	29.416	1478.056	1229.753
-29.881	29.505	1477.084	1229.485
-28.867	29.516	1475.513	1228.205
-27.852	29.390	1474.927	1226.831
-26.838	29.477	1472.635	1225.452
-25.823	29.485	1471.070	1224.156
-24.809	29.506	1469.505	1222.941
-23.794	29.492	1468.097	1221.629
-22.779	29.411	1467.235	1220.326
-21.765	29.524	1466.239	1220.196
-20.750	29.433	1465.381	1218.837
-19.736	29.464	1463.924	1217.778
-18.721	29.388	1463.014	1216.475
-17.706	29.376	1461.673	1215.229
-16.692	29.378	1460.963	1214.604
-15.677	29.491	1459.418	1214.014
-14.663	29.507	1458.191	1213.052
-13.648	29.448	1457.617	1212.142
-12.633	29.414	1456.399	1210.852
-11.619	29.346	1455.980	1210.012
-10.604	29.226	1455.772	1209.003
-9.590	29.231	1454.484	1207.917
-8.575	29.412	1453.191	1207.983
-7.560	29.456	1452.409	1207.573
-6.546	29.289	1451.708	1205.848
-5.531	29.367	1450.846	1205.593
-4.517	29.383	1449.615	1204.628
-3.502	29.398	1448.332	1203.612
-2.487	29.408	1447.658	1203.072
-1.473	29.259	1447.039	1201.538
-0.458	29.488	1445.128	1201.395
0.556	27.051	1435.870	1190.399
1.571	24.224	1410.904	1151.361
2.586	20.978	1352.688	1083.614
3.600	19.619	1272.126	1011.038
4.615	18.304	1227.827	968.314
5.629	16.221	1172.810	913.575
6.644	8.199	1089.269	807.941
7.659	1.204	1048.920	743.737
8.673	-0.092	1043.396	733.432
9.688	-0.298	1040.450	730.292
10.702	-0.331	1038.284	728.550
11.717	-0.219	1036.394	727.702
12.731	3.134	1039.660	746.215
13.746	11.856	1052.603	798.123
14.761	18.671	1061.528	838.215
15.775	20.608	1063.585	849.236
16.790	20.925	1062.898	850.160
17.804	20.820	1062.301	849.092
18.819	20.580	1061.553	847.250
19.834	20.764	1060.711	847.398
20.848	20.841	1060.277	847.353
21.863	20.899	1059.746	847.137
22.877	20.902	1059.636	846.985
23.892	20.966	1058.633	846.420
24.907	20.760	1057.873	844.738
25.921	20.820	1057.368	844.552
26.936	20.750	1056.935	843.789
27.950	20.769	1055.142	842.378
28.965	20.745	1054.140	841.385
29.980	20.618	1052.718	839.564
30.994	20.635	1051.144	838.318
32.009	20.986	1049.853	838.902
33.023	20.948	1049.435	838.309
34.038	20.701	1048.285	836.131
35.053	20.595	1047.317	834.776
36.067	20.722	1047.032	835.085
37.082	20.882	1045.632	834.661
38.096	20.939	1044.996	834.355
39.111	20.996	1044.166	833.891
40.126	21.069	1043.332	833.499
41.140	20.976	1042.100	831.996
42.155	20.748	1040.508	829.566
43.169	20.424	1039.443	827.101
44.184	20.407	1038.131	825.902
45.199	20.703	1036.806	826.180
46.213	20.465	1036.038	824.368
47.228	20.338	1035.055	822.910
48.242	20.566	1034.290	823.307
49.257	20.592	1033.352	822.612
50.271	20.819	1032.538	822.962
51.286	20.831	1032.320	822.775
52.301	20.943	1031.356	822.463
53.315	20.990	1030.428	821.868
54.330	20.788	1029.972	820.482
55.344	20.849	1028.821	819.780
56.359	20.847	1028.429	819.387
57.374	20.814	1027.365	818.309
58.388	20.727	1026.276	816.960
59.403	20.763	1025.247	816.238
60.417	20.743	1024.738	815.669
61.432	20.483	1023.545	813.428
62.447	20.585	1023.159	813.528
63.461	20.533	1022.863	812.977
64.476	20.562	1022.264	812.564
65.490	20.598	1021.261	811.862
66.505	20.721	1019.800	811.203
67.520	20.569	1019.334	810.054
68.534	20.583	1018.509	809.389
69.549	20.612	1017.189	808.407
70.563	20.213	1016.419	805.867
71.578	20.149	1015.815	805.019
72.593	20.223	1014.724	804.425
73.607	20.052	1013.613	802.681
74.622	20.184	1012.211	802.113
75.636	20.308	1011.939	802.400
76.651	20.584	1010.782	802.687
77.666	20.451	1010.377	801.678
78.680	20.396	1008.961	800.231
79.695	20.399	1009.023	800.222
80.709	20.437	1008.414	799.843
81.724	20.617	1007.322	799.738
82.739	20.438	1006.850	798.467
83.753	20.400	1005.818	797.405
84.768	20.772	1005.087	798.463
85.782	21.018	1004.726	799.232
86.797	21.068	1003.916	798.744
87.812	21.041	1002.725	797.604
88.826	20.975	1001.926	796.594
89.841	20.934	1001.357	795.887
90.855	21.054	1000.513	795.692
91.870	21.151	999.674	795.396
92.884	21.036	998.792	794.100
93.899	20.954	998.048	793.065
94.914	20.882	997.055	791.880
95.928	20.999	996.588	791.971
96.943	21.044	995.406	791.166
97.957	20.561	994.664	788.316
98.972	20.547	993.234	787.048
99.987	20.236	991.841	784.469
101.001	20.409	991.531	784.935
102.016	20.796	990.874	786.092
103.030	20.918	989.459	785.450
104.045	20.780	988.358	783.884
105.060	20.561	987.312	782.001
106.074	20.464	986.147	780.577
107.089	20.558	985.342	780.290
108.103	20.795	985.410	781.338
109.118	20.859	984.428	780.779
110.133	20.616	983.006	778.493
111.147	20.659	982.219	777.994
112.162	20.461	981.139	776.186
113.176	20.322	980.104	774.678
114.191	20.461	978.989	774.348
115.206	20.505	978.203	773.856
116.220	20.270	977.210	771.955
117.235	20.143	976.473	770.738
118.249	20.138	975.758	770.084
119.264	20.348	974.354	769.838
120.279	20.200	973.770	768.654
121.293	20.222	972.892	767.988
122.308	20.288	972.451	767.867
123.322	20.389	971.605	767.577
124.337	20.252	970.401	765.951
125.352	20.267	968.955	764.810
126.366	19.784	967.472	761.445
127.381	19.518	965.615	758.749
128.395	20.145	965.429	761.290
129.410	20.737	965.338	763.746
130.424	20.801	964.579	763.361
131.439	20.779	963.491	762.338
132.454	20.682	962.400	760.981
133.468	20.650	961.749	760.256
134.483	20.735	960.532	759.599
135.497	20.657	959.988	758.761
136.512	20.882	959.188	759.042
137.527	20.997	958.460	758.902
138.541	20.976	957.864	758.271
139.556	21.093	956.642	757.746
140.570	20.910	956.444	756.726
141.585	21.052	955.141	756.243
142.600	21.059	954.491	755.692
143.614	20.862	953.655	754.113
144.629	20.982	953.117	754.139
145.643	21.309	951.832	754.465
146.658	21.216	950.528	752.964
147.673	21.018	950.082	751.690
148.687	20.878	948.605	749.855
149.702	20.811	947.337	748.498
150.716	20.738	946.567	747.511
151.731	20.749	945.855	746.929
152.746	20.740	945.229	746.329
153.760	20.974	944.188	746.443
154.775	21.208	943.328	746.699
155.789	21.215	942.568	746.059
156.804	21.119	942.111	745.222
157.819	21.050	940.615	743.678
158.833	21.184	939.771	743.518
159.848	21.165	939.350	743.037
160.862	21.256	938.814	742.933
161.877	21.139	937.907	741.655
162.892	20.974	937.090	740.240
163.906	21.229	935.927	740.338
164.921	21.050	935.572	739.233
165.935	21.090	934.354	738.374
166.950	21.082	932.985	737.194
167.964	21.141	932.524	737.016
168.979	21.061	931.425	735.742
169.994	20.984	930.189	734.376
171.008	20.814	929.132	732.762
172.023	21.024	928.433	733.029
173.037	21.207	927.896	733.310
174.052	20.973	926.759	731.364
175.067	20.675	925.816	729.309
176.081	20.897	924.633	729.241
177.096	20.887	924.219	728.805
178.110	20.909	923.214	728.041
179.125	20.794	921.891	726.453
180.140	20.610	920.949	724.880
181.154	20.415	920.623	723.747
182.169	20.600	920.385	724.266
183.183	20.773	920.304	724.858
184.198	21.091	919.240	725.279
185.213	21.068	918.520	724.551
186.227	21.062	917.603	723.738
187.242	21.028	917.608	723.539
188.256	21.151	916.723	723.285
189.271	21.108	915.800	722.316
190.286	21.327	914.899	722.449
191.300	21.011	914.336	720.633
192.315	20.500	913.053	717.450
193.329	19.923	911.299	713.631
194.344	19.670	910.247	711.698
195.359	20.161	910.658	713.980
196.373	20.853	910.840	716.909
197.388	21.092	910.664	717.690
198.402	21.004	910.029	716.764
199.417	20.793	909.208	715.188
200.432	20.959	908.664	715.380
201.446	20.886	907.908	714.419
202.461	20.629	907.106	712.673
203.475	20.718	906.544	712.533
204.490	20.281	904.924	709.409
205.504	19.154	902.989	703.231
206.519	19.662	903.232	705.434
207.534	20.480	903.425	708.859
208.548	20.745	902.406	709.076
209.563	20.910	902.502	709.762
210.577	20.955	901.925	709.429
211.592	20.664	901.373	707.746
212.607	21.231	900.764	709.512
213.621	21.264	900.221	709.154
214.636	21.200	899.813	708.510
215.650	21.230	899.205	708.091
216.665	21.178	898.281	707.089
217.680	21.066	897.895	706.268
218.694	21.240	897.195	706.359
219.709	20.927	896.256	704.295
220.723	20.524	895.503	702.012
221.738	20.710	895.111	702.393
222.753	21.057	894.435	703.200
223.767	20.877	893.649	701.797
224.782	21.004	892.498	701.342
225.796	21.184	892.386	701.916
226.811	21.351	891.958	702.185
227.826	20.902	890.702	699.336
228.840	20.243	888.833	695.164
229.855	20.039	888.722	694.200
230.869	20.449	888.053	695.255
231.884	19.974	887.256	692.670
232.899	20.040	886.610	692.369
233.913	20.853	886.808	695.709
234.928	21.053	886.349	696.086
235.942	20.931	885.999	695.265
236.957	20.984	884.999	694.630
237.972	20.558	884.181	692.230
238.986	20.612	883.186	691.605
240.001	20.619	883.208	691.590
241.015	20.660	882.163	690.870
242.030	20.754	881.249	690.466
243.045	20.945	880.885	690.880
244.059	21.020	880.851	691.086
245.074	21.066	880.513	690.943
246.088	21.086	879.670	690.301
247.103	20.635	878.702	687.698
248.117	20.752	878.111	687.637
249.132	21.303	877.849	689.546
250.147	21.574	877.779	690.499
251.161	21.630	876.979	690.026
252.176	21.886	876.290	690.432
253.190	21.814	875.975	689.840
254.205	21.823	875.662	689.566
255.220	22.029	875.239	689.984
256.234	22.033	874.418	689.292
257.249	21.928	873.796	688.327
258.263	21.796	872.908	687.050
259.278	21.641	872.711	686.228
260.293	21.914	871.773	686.496
261.307	22.011	871.111	686.293
262.322	21.960	870.549	685.590
263.336	21.793	869.479	684.036
264.351	21.238	868.264	680.856
265.366	20.051	866.663	674.921
266.380	19.700	865.931	672.922
267.395	20.680	866.420	677.060
268.409	21.488	866.046	679.849
269.424	21.509	865.039	679.080
270.439	21.566	865.188	679.360
271.453	21.691	864.522	679.260
272.468	21.583	863.928	678.316
273.482	21.794	863.698	678.890
274.497	21.911	862.806	678.582
275.512	21.662	861.740	676.724
276.526	21.254	860.301	673.959
277.541	21.405	859.985	674.234
278.555	21.647	860.274	675.332
279.570	21.571	858.965	673.951
280.585	21.274	858.322	672.246
281.599	21.455	857.549	672.279
282.614	21.499	857.351	672.232
283.628	21.178	855.901	669.805
284.643	20.812	855.287	667.862
285.657	21.148	855.428	669.202
286.672	21.098	854.664	668.353
287.687	20.608	853.593	665.580
288.701	20.981	853.320	666.735
289.716	21.327	853.318	667.999
290.730	20.888	852.645	665.733
291.745	20.940	851.339	664.856
292.760	20.724	850.411	663.250
293.774	20.703	850.304	663.027
294.789	21.488	850.783	666.332
295.803	22.164	850.606	668.706
296.818	22.075	850.274	668.047
297.833	22.306	849.231	668.047
298.847	21.917	848.697	666.091
299.862	21.702	847.694	664.431
300.876	21.811	847.436	664.582
301.891	21.990	847.348	665.131
302.906	22.141	846.353	664.864
303.920	21.797	844.982	662.429
304.935	21.682	844.464	661.531
305.949	22.005	844.269	662.539
306.964	22.106	843.542	662.289
307.979	21.930	842.632	660.852
308.993	22.056	842.206	660.937
310.008	22.289	842.030	661.616
311.022	22.444	841.620	661.817
312.037	22.197	841.008	660.350
313.052	21.876	840.348	658.569
314.066	22.010	839.658	658.473
315.081	21.241	838.207	654.395
316.095	20.630	836.830	650.977
317.110	21.014	837.635	652.983
318.125	21.878	837.837	656.317
319.139	21.536	836.720	654.106
320.154	20.371	834.682	648.109
321.168	20.099	833.804	646.354
322.183	20.572	834.444	648.558
323.197	21.535	834.372	652.034
324.212	21.700	834.172	652.438
325.227	21.833	834.102	652.819
326.241	22.101	833.597	653.365
327.256	21.829	832.856	651.714
328.270	21.875	832.062	651.207
329.285	21.561	831.776	649.760
330.300	21.664	830.323	648.946
331.314	21.410	829.773	647.519
332.329	21.527	828.840	647.166
333.343	21.891	828.745	648.381
334.358	22.092	828.716	649.044
335.373	22.086	827.919	648.341
336.387	22.166	827.070	647.914
337.402	22.299	826.943	648.247
338.416	22.423	826.466	648.271
339.431	22.475	825.942	647.993
340.446	22.413	825.248	647.166
341.460	22.590	824.985	647.552
342.475	22.702	824.372	647.423
343.489	22.297	823.570	645.253
344.504	22.254	823.277	644.808
345.519	22.616	823.102	645.939
346.533	22.824	822.610	646.259
347.548	22.826	822.095	645.803
348.562	22.907	821.404	645.500
349.577	22.961	820.923	645.264
350.592	22.774	820.486	644.181
351.606	22.891	819.796	644.006
352.621	22.924	819.212	643.612
353.635	22.765	818.723	642.591
354.650	22.589	818.575	641.779
355.665	22.257	817.334	639.542
356.679	21.402	815.759	635.149
357.694	21.246	815.388	634.236
358.708	21.963	815.213	636.646
359.723	21.854	814.675	635.775
360.738	21.933	814.731	636.049
361.752	22.453	814.510	637.704
362.767	22.604	814.411	638.116
363.781	22.824	813.786	638.366
364.796	23.119	813.506	639.156
365.810	23.182	813.683	639.465
366.825	23.225	813.077	639.086
367.840	23.129	812.709	638.394
368.854	22.898	812.071	637.004
369.869	22.647	810.814	635.058
370.883	22.456	810.265	633.885
371.898	22.725	809.801	634.433
372.913	22.565	809.088	633.243
373.927	22.539	808.206	632.404
374.942	22.741	807.976	632.893
375.956	22.965	807.266	633.083
376.971	23.003	806.815	632.810
377.986	22.949	806.267	632.130
379.000	23.323	805.687	632.958
380.015	23.079	805.372	631.780
381.029	22.857	804.953	630.604
382.044	22.977	804.131	630.333
383.059	23.196	803.867	630.851
384.073	23.090	803.480	630.114
385.088	23.032	802.812	629.329
386.102	23.167	802.756	629.707
387.117	23.068	801.781	628.534
388.132	22.857	801.488	627.499
389.146	22.772	800.338	626.244
390.161	22.145	799.297	623.152
391.175	22.308	798.853	623.326
392.190	22.731	798.908	624.813
393.205	22.729	798.800	624.664
394.219	21.756	797.042	619.799
395.234	20.258	794.638	612.588
396.248	19.653	793.722	609.692
397.263	20.702	794.778	614.156
398.278	22.496	796.108	621.461
399.292	23.010	795.791	622.971
400.307	22.477	795.383	620.722
401.321	22.610	794.367	620.341
402.336	22.559	794.239	620.007
403.350	22.852	794.215	620.964
404.365	23.353	793.781	622.330
405.380	23.493	793.938	622.889
406.394	23.754	793.827	623.665
407.409	23.870	792.930	623.309
408.423	23.863	792.600	622.972
409.438	23.532	792.234	621.470
410.453	23.809	791.363	621.700
411.467	23.874	791.109	621.674
412.482	23.728	790.636	620.736
413.496	23.690	790.271	620.260
414.511	23.807	790.106	620.484
415.526	23.931	789.532	620.414
416.540	23.805	788.806	619.346
417.555	23.781	788.420	618.907
418.569	23.724	787.434	617.878
419.584	23.442	787.294	616.732
420.599	23.537	786.681	616.528
421.613	157.099	1365.775	1798.801
422.628	135.884	1450.164	1798.885
