DTS Sentinel unit serial number:	SN413079Multiplexer serial number:	ORYXHardware model number:	OX4-SRSoftware version number:	ORYX F/W v4.00 Oryx Data Collector v3.7.2.0data status	okinstallation	princeton_trtdifferential loss correction	single-endedforward channel	channel 3reverse channel	N/Adate	2019/09/12time	06:38:11forward acquisition time	60.00reverse acquisition time	0.00gamma	496.2192k internal	0.2320k external	0.2320temperature offset calibration	1.0032default loss term (dB/km)	0.3790temperature slope calibration	1.0000multiplexer offset coefficient	1.0000multiplexer slope coefficient	1.0000fibre end	0.00T internal ref (°C)	32.14T ext. ref 1 (°C)	1.58T ext. ref 2 (°C)	27.17length (m)	temperature (°C)	Stokes	anti-Stokes-747.200	-114.235	0.463	0.090
-746.185	38.115	-0.109	-0.098
-745.171	31.322	-0.224	0.195
-744.156	216.188	-0.058	0.093
-743.142	495.698	-0.112	0.261
-742.127	-37.758	0.117	0.063
-741.112	100.815	-0.161	0.189
-740.098	678.583	0.100	0.263
-739.083	-200.000	0.034	0.170
-738.069	-68.847	-0.442	-0.173
-737.054	416.829	0.171	0.370
-736.039	-122.509	-0.392	-0.064
-735.025	-200.000	-0.014	0.111
-734.010	-200.000	0.006	0.079
-732.996	53.354	-0.158	0.153
-731.981	230.348	0.059	-0.097
-730.966	-102.987	-0.118	-0.028
-729.952	-200.000	0.019	-0.191
-728.937	-200.000	-0.065	-0.680
-727.923	533.245	-0.044	-0.105
-726.908	800.000	0.107	0.301
-725.894	121.953	-0.092	-0.116
-724.879	-28.958	-0.296	0.172
-723.864	66.341	-0.121	-0.124
-722.850	25.852	0.190	0.160
-721.835	-98.575	-0.270	-0.070
-720.821	-200.000	0.048	0.231
-719.806	777.059	-0.069	0.191
-718.791	-111.669	0.038	0.008
-717.777	-27.061	0.084	0.050
-716.762	454.689	-0.010	0.023
-715.748	-49.682	0.398	0.191
-714.733	-200.000	-0.084	0.484
-713.718	-107.260	0.232	-0.051
-712.704	-200.000	-0.003	-0.094
-711.689	-106.964	-0.175	-0.039
-710.675	250.510	-0.209	-0.359
-709.660	275.738	0.023	-0.042
-708.645	-99.854	-0.458	-0.116
-707.631	40.774	-0.222	-0.202
-706.616	-105.618	0.203	0.046
-705.602	-180.899	0.153	0.003
-704.587	522.964	0.049	-0.115
-703.572	53.965	0.120	-0.117
-702.558	157.659	0.188	0.263
-701.543	-138.934	-0.574	-0.063
-700.529	512.086	0.077	-0.180
-699.514	-98.687	0.279	0.072
-698.499	16.779	0.154	-0.123
-697.485	249.085	-0.034	0.058
-696.470	131.703	0.142	-0.185
-695.456	250.755	0.089	0.153
-694.441	-67.139	0.168	-0.067
-693.426	800.000	0.055	0.239
-692.412	1.087	0.172	-0.125
-691.397	800.000	-0.038	-0.148
-690.383	-159.203	-0.125	0.007
-689.368	800.000	0.018	0.073
-688.354	234.602	0.116	0.194
-687.339	-180.554	0.121	0.003
-686.324	34.586	0.109	0.096
-685.310	-200.000	-0.006	-0.058
-684.295	-100.697	-0.481	-0.120
-683.281	-149.891	-0.284	-0.022
-682.266	78.555	-0.097	-0.105
-681.251	221.894	-0.092	-0.149
-680.237	800.000	-0.132	-0.412
-679.222	-33.839	-0.111	-0.062
-678.208	-2.317	0.155	-0.110
-677.193	236.278	0.103	0.172
-676.178	-65.112	-0.128	0.052
-675.164	-200.000	-0.004	-0.267
-674.149	295.244	0.179	-0.331
-673.135	-59.052	-0.184	-0.080
-672.120	-17.424	-0.062	-0.040
-671.105	541.355	-0.007	0.016
-670.091	-112.067	-0.118	-0.024
-669.076	589.301	-0.133	-0.329
-668.062	-200.000	-0.032	-0.178
-667.047	-200.000	0.003	0.183
-666.032	-200.000	0.012	-0.111
-665.018	-80.536	-0.294	0.099
-664.003	-200.000	0.008	-0.132
-662.989	-145.947	-0.193	-0.017
-661.974	78.477	-0.104	-0.112
-660.959	394.389	0.116	0.244
-659.945	-100.291	-0.093	-0.023
-658.930	155.906	0.167	-0.231
-657.916	-1.395	-0.293	0.209
-656.901	157.151	-0.154	-0.215
-655.886	-32.797	-0.163	-0.091
-654.872	-35.430	-0.226	0.124
-653.857	46.218	0.122	0.113
-652.843	626.691	0.134	-0.340
-651.828	75.984	0.047	-0.050
-650.814	461.580	0.039	0.088
-649.799	-12.067	0.094	0.062
-648.784	-18.153	-0.104	-0.065
-647.770	697.459	0.117	-0.310
-646.755	-1.346	0.235	0.167
-645.741	-51.112	0.125	0.059
-644.726	800.000	-0.095	0.290
-643.711	-79.585	-0.191	0.065
-642.697	-12.083	0.145	0.096
-641.682	-200.000	0.043	-0.253
-640.668	-64.499	-0.211	-0.086
-639.653	-200.000	-0.020	-0.264
-638.638	150.121	-0.072	0.098
-637.624	-97.153	0.252	-0.066
-636.609	521.452	-0.029	-0.068
-635.595	-200.000	-0.083	0.378
-634.580	-86.809	0.106	-0.033
-633.565	-200.000	0.002	-0.017
-632.551	-27.305	0.305	-0.179
-631.536	-100.977	-0.095	0.024
-630.522	-2.615	-0.075	0.053
-629.507	-200.000	-0.005	-0.247
-628.492	186.218	-0.085	0.127
-627.478	-176.280	-0.304	0.008
-626.463	-95.198	0.174	0.047
-625.449	175.985	0.264	-0.386
-624.434	800.000	-0.044	-0.179
-623.419	-19.427	0.115	0.072
-622.405	-4.270	0.179	0.125
-621.390	-29.047	-0.175	0.101
-620.376	-53.406	-0.197	-0.091
-619.361	-200.000	-0.008	-0.326
-618.346	207.155	0.055	0.087
-617.332	52.886	-0.256	-0.246
-616.317	341.299	-0.165	-0.324
-615.303	-200.000	-0.008	0.151
-614.288	-200.000	0.001	0.099
-613.273	322.492	0.100	-0.191
-612.259	-70.160	0.122	-0.047
-611.244	-200.000	0.010	-0.166
-610.230	-120.177	0.107	-0.018
-609.215	800.000	-0.049	0.170
-608.201	161.332	-0.176	-0.248
-607.186	-106.098	0.106	0.024
-606.171	18.321	0.047	0.037
-605.157	44.532	-0.133	0.123
-604.142	-75.926	0.098	-0.035
-603.128	28.965	0.053	-0.046
-602.113	-165.372	-0.151	-0.007
-601.098	-200.000	0.064	-0.389
-600.084	93.985	0.245	0.280
-599.069	-49.907	0.195	-0.093
-598.055	-40.236	0.086	-0.045
-597.040	-94.259	0.199	-0.055
-596.025	412.751	-0.077	0.166
-595.011	800.000	-0.043	-0.141
-593.996	92.741	-0.111	-0.126
-592.982	-200.000	-0.096	-0.000
-591.967	-81.257	0.161	-0.053
-590.952	-106.024	-0.384	0.087
-589.938	46.568	0.212	0.198
-588.923	753.320	-0.033	-0.089
-587.909	-41.310	-0.229	-0.119
-586.894	596.820	-0.079	-0.197
-585.879	624.522	0.068	0.173
-584.865	-68.782	0.356	-0.138
-583.850	21.116	-0.117	0.095
-582.836	233.690	0.073	-0.122
-581.821	800.000	-0.049	-0.157
-580.806	-200.000	-0.029	0.359
-579.792	2.778	0.026	-0.019
-578.777	53.310	-0.116	0.112
-577.763	-77.760	0.043	-0.015
-576.748	158.342	0.229	-0.319
-575.733	397.247	0.158	-0.331
-574.719	371.483	-0.243	-0.496
-573.704	519.032	0.049	-0.115
-572.690	16.672	-0.195	-0.155
-571.675	-200.000	-0.001	0.234
-570.661	15.576	0.118	-0.093
-569.646	-65.003	-0.310	0.126
-568.631	-14.003	0.202	0.131
-567.617	262.503	-0.079	-0.138
-566.602	-112.859	0.190	0.038
-565.588	800.000	-0.120	0.510
-564.573	-3.405	-0.167	-0.117
-563.558	800.000	-0.052	0.147
-562.544	-200.000	0.008	-0.045
-561.529	-60.095	0.286	0.123
-560.515	-62.452	0.169	-0.071
-559.500	-73.467	0.153	-0.056
-558.485	-200.000	-0.047	-0.351
-557.471	-20.007	0.235	0.146
-556.456	782.113	-0.110	0.303
-555.442	40.435	-0.152	0.137
-554.427	652.743	0.083	-0.214
-553.412	-199.678	0.117	0.001
-552.398	-127.671	0.063	0.009
-551.383	82.534	0.027	0.029
-550.369	-139.447	-0.131	-0.014
-549.354	29.081	0.220	0.187
-548.339	179.647	-0.116	-0.171
-547.325	-126.296	0.063	-0.009
-546.310	-2.499	0.144	0.101
-545.296	-142.312	-0.469	-0.046
-544.281	407.503	-0.171	0.362
-543.266	110.042	0.208	-0.250
-542.252	-169.190	0.224	-0.008
-541.237	-1.604	-0.088	0.062
-540.223	244.536	-0.157	0.264
-539.208	213.784	0.110	-0.175
-538.193	83.586	-0.053	-0.058
-537.179	270.444	-0.068	-0.120
-536.164	98.615	-0.240	-0.278
-535.150	-200.000	-0.013	-0.221
-534.135	312.643	-0.130	0.245
-533.121	28.420	0.195	-0.165
-532.106	-114.696	-0.111	0.021
-531.091	-31.729	-0.229	0.129
-530.077	244.801	0.233	-0.393
-529.062	-200.000	-0.012	-0.454
-528.048	-148.379	-0.143	-0.012
-527.033	-31.558	0.116	0.065
-526.018	-87.669	-0.341	0.103
-525.004	46.156	-0.219	0.203
-523.989	-200.000	0.012	-0.095
-522.975	212.538	-0.187	0.296
-521.960	34.011	0.045	0.039
-520.945	233.546	0.185	-0.305
-519.931	355.256	0.064	0.127
-518.916	-200.000	-0.066	0.333
-517.902	-200.000	0.036	0.312
-516.887	143.221	0.174	-0.233
-515.872	14.208	-0.249	-0.195
-514.858	800.000	0.029	-0.126
-513.843	780.346	-0.050	0.137
-512.829	-200.000	-0.065	-0.294
-511.814	-115.010	-0.360	0.069
-510.799	-88.827	-0.064	-0.019
-509.785	593.816	-0.154	-0.381
-508.770	-200.000	0.046	-0.372
-507.756	575.264	0.021	0.051
-506.741	-76.743	-0.401	0.141
-505.726	800.000	0.049	0.203
-504.712	52.802	0.126	-0.121
-503.697	-42.214	0.118	-0.060
-502.683	-99.253	0.188	0.048
-501.668	-36.815	-0.208	0.112
-500.653	-200.000	0.059	0.517
-499.639	-200.000	-0.026	0.197
-498.624	-200.000	-0.025	0.237
-497.610	22.847	0.210	0.172
-496.595	-48.146	-0.129	-0.062
-495.581	-140.246	-0.375	0.039
-494.566	-86.329	0.107	0.033
-493.551	-81.987	0.334	-0.109
-492.537	648.544	0.170	-0.434
-491.522	-200.000	-0.010	0.043
-490.508	-200.000	-0.012	0.452
-489.493	366.117	-0.114	-0.230
-488.478	166.556	-0.093	-0.131
-487.464	-48.680	-0.121	0.058
-486.449	-4.945	-0.268	0.185
-485.435	497.747	-0.168	-0.387
-484.420	-200.000	-0.025	-0.226
-483.405	-152.094	-0.138	0.010
-482.391	75.697	0.237	-0.251
-481.376	-44.838	0.275	0.137
-480.362	-160.222	-0.260	-0.014
-479.347	6.926	0.183	0.136
-478.332	-200.000	-0.004	0.094
-477.318	-133.012	-0.396	-0.050
-476.303	-103.764	0.203	-0.047
-475.289	23.878	0.120	0.099
-474.274	-149.819	0.170	-0.013
-473.259	71.911	-0.178	0.185
-472.245	-200.000	0.065	-0.355
-471.230	372.405	-0.087	0.177
-470.216	343.458	0.025	-0.049
-469.201	-77.362	-0.148	0.051
-468.186	-66.758	0.181	0.072
-467.172	-13.655	-0.250	0.162
-466.157	534.815	0.170	0.404
-465.143	-113.828	-0.392	-0.076
-464.128	369.086	0.058	0.118
-463.113	360.698	-0.063	-0.126
-462.099	-18.824	-0.168	-0.104
-461.084	-109.128	0.080	-0.017
-460.070	-38.616	-0.199	0.105
-459.055	548.705	-0.108	0.259
-458.040	-116.121	0.482	-0.090
-457.026	-200.000	0.037	0.340
-456.011	-108.352	-0.166	0.036
-454.997	32.953	0.237	-0.206
-453.982	-195.814	0.061	-0.000
-452.968	-119.827	-0.228	-0.039
-451.953	73.696	0.162	0.170
-450.938	-91.455	0.226	0.064
-449.924	800.000	-0.030	0.111
-448.909	100.734	0.088	-0.102
-447.895	86.034	0.031	0.035
-446.880	317.653	-0.114	0.216
-445.865	-200.000	0.006	-0.050
-444.851	185.956	-0.017	-0.026
-443.836	-200.000	-0.040	0.200
-442.822	-200.000	-0.017	0.097
-441.807	18.392	0.201	0.161
-440.792	-200.000	-0.028	-0.334
-439.778	8.501	0.213	-0.160
-438.763	-200.000	0.005	0.213
-437.749	15.821	0.171	-0.135
-436.734	62.621	-0.379	0.378
-435.719	-200.000	0.063	-0.466
-434.705	116.006	-0.113	-0.138
-433.690	-18.238	-0.175	-0.109
-432.676	88.169	0.215	0.239
-431.661	-200.000	-0.203	0.001
-430.646	521.140	-0.171	0.401
-429.632	379.051	0.113	0.231
-428.617	-200.000	0.018	-0.202
-427.603	-9.255	-0.024	-0.016
-426.588	82.613	-0.123	-0.133
-425.573	800.000	0.082	0.236
-424.559	-57.256	0.194	0.085
-423.544	-179.457	-0.129	0.003
-422.530	138.549	0.105	-0.138
-421.515	86.872	-0.034	-0.038
-420.500	-104.296	0.179	-0.041
-419.486	800.000	-0.082	0.284
-418.471	15.878	0.024	0.019
-417.457	84.596	-0.167	-0.183
-416.442	301.045	0.125	0.230
-415.428	-23.978	-0.263	0.157
-414.413	-200.000	0.012	0.072
-413.398	85.845	-0.196	0.216
-412.384	177.765	-0.080	-0.117
-411.369	-96.296	0.386	0.102
-410.355	8.594	0.166	0.124
-409.340	-74.156	0.271	0.098
-408.325	-140.838	0.293	0.030
-407.311	-91.091	-0.091	-0.026
-406.296	-43.471	-0.062	-0.031
-405.282	-14.163	0.286	-0.184
-404.267	800.000	-0.024	0.100
-403.252	106.599	0.171	-0.203
-402.238	142.559	-0.190	0.252
-401.223	127.490	0.105	0.133
-400.209	93.097	-0.357	0.403
-399.194	138.029	0.204	-0.267
-398.179	800.000	-0.072	0.289
-397.165	-115.731	-0.225	0.042
-396.150	-200.000	-0.051	-0.326
-395.136	317.912	0.070	-0.132
-394.121	341.427	0.213	0.415
-393.106	439.596	0.069	0.151
-392.092	-200.000	-0.024	-0.136
-391.077	-102.619	0.284	-0.068
-390.063	85.995	-0.172	-0.189
-389.048	-79.417	-0.365	0.123
-388.033	-200.000	-0.022	0.685
-387.019	649.322	0.070	0.179
-386.004	-118.286	-0.249	-0.044
-384.990	-41.577	0.206	-0.106
-383.975	407.705	-0.106	0.223
-382.960	-9.313	-0.133	0.089
-381.946	-136.136	-0.156	0.018
-380.931	-92.584	0.362	-0.101
-379.917	153.479	-0.214	-0.292
-378.902	-114.019	-0.291	-0.056
-377.888	-15.482	0.095	0.061
-376.873	-17.394	-0.234	-0.147
-375.858	726.163	0.090	-0.238
-374.844	-200.000	-0.018	0.208
-373.829	25.023	0.131	0.108
-372.815	156.012	0.129	-0.177
-371.800	-200.000	0.024	0.105
-370.785	-200.000	0.013	-0.403
-369.771	269.438	0.141	-0.247
-368.756	476.020	-0.155	-0.350
-367.742	-94.087	-0.140	-0.038
-366.727	-57.452	0.229	0.100
-365.712	-64.082	-0.360	0.146
-364.698	5.550	0.254	0.187
-363.683	25.104	0.102	-0.084
-362.669	25.628	0.121	-0.100
-361.654	-49.830	0.250	0.118
-360.639	-56.093	-0.263	0.117
-359.625	800.000	0.155	-0.441
-358.610	-134.825	-0.145	0.018
-357.596	-70.960	0.135	-0.051
-356.581	-147.101	-0.211	0.018
-355.566	-148.659	0.320	0.026
-354.552	-200.000	-0.011	0.133
-353.537	4.440	0.096	0.070
-352.523	-16.444	-0.027	-0.017
-351.508	-200.000	-0.011	0.096
-350.493	-200.000	0.011	-0.047
-349.479	-26.022	-0.311	0.182
-348.464	344.058	0.146	0.286
-347.450	-24.489	0.393	0.233
-346.435	194.933	-0.099	-0.150
-345.420	800.000	-0.101	-0.366
-344.406	295.374	-0.158	-0.287
-343.391	144.361	-0.199	-0.265
-342.377	231.585	-0.229	0.373
-341.362	389.556	-0.074	-0.153
-340.348	778.783	-0.127	0.345
-339.333	-82.548	0.253	0.082
-338.318	-200.000	-0.004	0.245
-337.304	-58.440	0.117	-0.051
-336.289	50.184	-0.134	-0.126
-335.275	-107.140	0.349	0.077
-334.260	-200.000	-0.028	-0.156
-333.245	-63.847	0.476	-0.194
-332.231	800.000	0.088	0.249
-331.216	800.000	0.042	-0.136
-330.202	390.472	0.049	-0.102
-329.187	-200.000	0.064	-0.417
-328.172	-200.000	-0.027	0.213
-327.158	-53.538	0.349	-0.159
-326.143	-200.000	0.019	0.083
-325.129	800.000	0.027	-0.105
-324.114	-95.298	-0.286	-0.077
-323.099	91.267	-0.139	-0.155
-322.085	-142.066	-0.133	-0.013
-321.070	-200.000	0.022	0.249
-320.056	576.270	-0.071	-0.173
-319.041	262.298	0.074	0.128
-318.026	-192.985	-0.233	0.002
-317.012	-3.652	0.254	-0.175
-315.997	25.732	0.098	0.081
-314.983	253.502	0.236	0.402
-313.968	-147.201	-0.159	-0.013
-312.953	91.192	0.129	0.144
-311.939	44.339	-0.333	-0.304
-310.924	53.758	-0.069	0.066
-309.910	-50.281	-0.152	-0.072
-308.895	-74.265	-0.280	-0.101
-307.880	175.375	-0.082	0.119
-306.866	495.382	-0.082	-0.187
-305.851	-200.000	0.043	0.216
-304.837	-61.958	0.173	0.072
-303.822	-121.685	0.180	0.030
-302.807	-27.589	-0.218	0.126
-301.793	800.000	-0.027	-0.080
-300.778	-135.849	0.117	-0.014
-299.764	357.465	-0.063	0.125
-298.749	-200.000	0.022	0.170
-297.735	-91.203	-0.095	0.027
-296.720	79.593	-0.042	0.045
-295.705	476.443	-0.142	-0.319
-294.691	113.550	0.241	-0.291
-293.676	-118.380	-0.444	-0.078
-292.662	92.892	-0.255	0.286
-291.647	-107.576	0.061	-0.013
-290.632	-200.000	0.105	-0.480
-289.618	-79.616	-0.024	0.008
-288.603	-200.000	0.054	-0.269
-287.589	800.000	-0.053	-0.196
-286.574	-98.165	0.195	0.050
-285.559	-200.000	-0.045	-0.206
-284.545	31.718	-0.198	-0.169
-283.530	28.106	0.161	-0.135
-282.516	340.191	0.048	-0.094
-281.501	145.125	0.163	0.217
-280.486	90.667	0.038	0.042
-279.472	345.421	-0.080	0.156
-278.457	800.000	0.074	-0.307
-277.443	-200.000	-0.101	-0.474
-276.428	163.390	-0.102	-0.142
-275.413	109.855	0.105	-0.125
-274.399	-200.000	-0.008	0.094
-273.384	213.540	0.116	-0.182
-272.370	7.755	0.180	0.134
-271.355	-200.000	-0.006	0.074
-270.340	-200.000	-0.031	-0.214
-269.326	-119.468	0.168	-0.029
-268.311	-71.353	-0.225	-0.084
-267.297	-0.233	0.231	-0.163
-266.282	-189.170	0.426	0.005
-265.267	-200.000	-0.038	0.343
-264.253	180.991	-0.158	0.230
-263.238	-200.000	-0.011	-0.292
-262.224	-9.369	0.263	0.174
-261.209	-78.601	-0.140	0.047
-260.195	-200.000	0.057	0.283
-259.180	485.344	0.015	0.033
-258.165	-23.221	0.382	-0.228
-257.151	-200.000	-0.016	0.312
-256.136	-200.000	0.049	-0.475
-255.122	800.000	0.088	0.273
-254.107	-200.000	0.085	0.386
-253.092	14.151	0.255	0.197
-252.078	-160.896	-0.005	0.000
-251.063	196.331	0.104	0.156
-250.049	244.217	-0.291	0.484
-249.034	41.082	0.285	0.255
-248.019	188.021	0.115	-0.171
-247.005	142.839	-0.076	-0.100
-245.990	-134.107	0.150	0.018
-244.976	-122.342	0.028	0.005
-243.961	25.515	0.297	0.245
-242.946	105.543	-0.100	0.117
-241.932	450.801	-0.047	-0.102
-240.917	-91.928	0.209	-0.059
-239.903	-111.301	-0.234	-0.047
-238.888	-57.028	-0.221	-0.096
-237.873	-13.738	0.296	0.190
-236.859	-84.522	0.099	-0.031
-235.844	15.283	0.241	-0.187
-234.830	-200.000	0.018	0.080
-233.815	128.353	-0.220	0.278
-232.800	-74.476	-0.020	0.007
-231.786	800.000	-0.051	0.166
-230.771	-200.000	0.029	0.256
-229.757	-115.328	0.138	-0.026
-228.742	-92.091	0.059	0.017
-227.727	-133.162	-0.099	0.012
-226.713	-76.597	-0.317	-0.110
-225.698	587.578	-0.094	-0.228
-224.684	-200.000	-0.020	0.219
-223.669	-200.000	0.025	-0.119
-222.655	27.354	0.257	0.214
-221.640	-116.555	-0.416	-0.076
-220.625	800.000	0.133	-0.402
-219.611	296.700	-0.092	-0.168
-218.596	-200.000	-0.006	-0.099
-217.582	-90.393	0.349	0.100
-216.567	-60.466	-0.109	-0.046
-215.552	-200.000	-0.025	0.169
-214.538	-92.993	0.451	-0.124
-213.523	-92.634	0.265	0.074
-212.509	120.918	-0.142	0.176
-211.494	16.047	-0.191	0.149
-210.479	-87.935	0.155	0.046
-209.465	278.408	0.110	0.194
-208.450	-172.324	-0.328	-0.010
-207.436	800.000	-0.068	-0.216
-206.421	-140.714	-0.197	-0.020
-205.406	379.720	-0.042	0.085
-204.392	-108.539	-0.162	-0.035
-203.377	76.216	-0.193	0.203
-202.363	453.105	-0.130	-0.285
-201.348	139.154	0.106	0.138
-200.333	40.887	-0.148	0.132
-199.319	234.694	0.205	-0.335
-198.304	-112.588	-0.131	0.026
-197.290	-113.671	0.076	-0.015
-196.275	34.393	-0.118	0.102
-195.260	-72.030	-0.176	-0.065
-194.246	67.301	-0.181	0.183
-193.231	-200.000	0.001	-0.031
-192.217	-200.000	0.011	-0.222
-191.202	-168.555	0.074	0.003
-190.187	484.681	0.059	-0.134
-189.173	800.000	-0.064	0.191
-188.158	280.338	-0.018	-0.032
-187.144	202.394	-0.186	0.284
-186.129	-51.039	0.334	-0.155
-185.114	-78.119	-0.247	-0.084
-184.100	49.503	0.147	-0.137
-183.085	-73.328	0.075	0.027
-182.071	-185.328	0.068	-0.001
-181.056	-200.000	-0.039	0.331
-180.042	319.402	0.106	0.199
-179.027	140.564	-0.069	-0.091
-178.012	-62.073	0.079	0.033
-176.998	-72.052	-0.113	0.041
-175.983	10.475	-0.335	-0.252
-174.969	800.000	0.034	0.134
-173.954	-120.182	0.052	-0.009
-172.939	67.048	-0.192	0.193
-171.925	-132.656	0.255	-0.032
-170.910	-200.000	0.006	0.147
-169.896	50.663	-0.432	-0.404
-168.881	-26.773	-0.109	0.063
-167.866	-90.201	-0.329	-0.095
-166.852	171.524	-0.056	0.079
-165.837	-130.133	0.103	-0.014
-164.823	-96.882	0.365	-0.095
-163.808	28.593	-0.176	-0.147
-162.793	-26.973	0.124	-0.072
-161.779	23.396	-0.041	0.033
-160.764	-200.000	0.007	-0.040
-159.750	-199.280	0.284	0.001
-158.735	35.505	-0.130	-0.113
-157.720	166.540	-0.166	0.233
-156.706	-200.000	0.012	0.240
-155.691	-183.135	0.034	-0.001
-154.677	-200.000	0.003	-0.174
-153.662	-184.496	0.166	-0.003
-152.647	534.056	0.056	-0.130
-151.633	-200.000	0.001	0.252
-150.618	73.675	0.074	0.077
-149.604	129.615	0.101	0.128
-148.589	800.000	0.173	0.482
-147.574	413.524	-0.071	0.149
-146.560	-200.000	-0.026	0.299
-145.545	-96.630	-0.142	-0.037
-144.531	-200.000	-0.002	0.402
-143.516	-5.760	-0.122	0.083
-142.502	571.083	0.163	0.393
-141.487	12.993	-0.091	0.069
-140.472	211.817	-0.204	0.318
-139.458	332.395	0.097	0.184
-138.443	-200.000	-0.034	0.190
-137.429	165.170	-0.039	-0.055
-136.414	-200.000	0.028	-0.416
-135.399	-146.077	0.307	0.027
-134.385	5.959	-0.180	0.132
-133.370	-113.203	0.128	-0.025
-132.356	572.104	0.113	0.272
-131.341	-200.000	0.021	-0.197
-130.326	21.668	-0.097	-0.078
-129.312	40.332	0.175	-0.156
-128.297	425.596	0.144	-0.306
-127.283	-115.832	0.181	-0.033
-126.268	-12.554	0.093	-0.060
-125.253	-134.364	-0.033	0.004
-124.239	-200.000	-0.020	-0.087
-123.224	-200.000	-0.037	-0.194
-122.210	-77.221	-0.070	-0.024
-121.195	20.070	0.108	0.086
-120.180	55.363	0.109	0.104
-119.166	124.281	-0.144	0.178
-118.151	243.750	0.123	0.203
-117.137	-159.238	0.286	0.016
-116.122	566.773	-0.127	0.303
-115.107	-99.626	0.139	0.034
-114.093	43.181	0.117	0.105
-113.078	200.620	0.139	-0.211
-112.064	-134.892	0.150	0.018
-111.049	756.584	0.088	0.236
-110.034	-200.000	-0.062	0.412
-109.020	123.465	-0.166	0.205
-108.005	369.216	0.182	0.363
-106.991	622.922	-0.019	0.047
-105.976	-81.795	0.247	0.080
-104.962	164.250	-0.222	-0.309
-103.947	267.980	0.096	-0.167
-102.932	-153.398	-0.106	-0.007
-101.918	126.413	-0.095	-0.119
-100.903	187.481	-0.020	-0.030
-99.889	-51.189	0.124	0.057
-98.874	800.000	0.087	-0.244
-97.859	-185.532	0.108	0.002
-96.845	800.000	-0.149	-0.434
-95.830	-200.000	0.019	0.186
-94.816	-110.994	-0.163	0.033
-93.801	593.793	-0.164	-0.401
-92.786	17.152	0.187	-0.146
-91.772	735.765	-0.097	-0.256
-90.757	715.280	0.078	-0.205
-89.743	178.189	0.139	0.199
-88.728	325.004	-0.066	-0.124
-87.713	-84.558	0.165	-0.051
-86.699	313.892	-0.085	-0.158
-85.684	-54.512	-0.205	-0.092
-84.670	19.751	0.174	0.138
-83.655	-38.535	0.077	0.040
-82.640	-200.000	-0.005	-0.127
-81.626	42.866	0.412	-0.370
-80.611	-31.849	-0.350	-0.193
-79.597	563.794	0.097	-0.232
-78.582	153.976	-0.073	-0.098
-77.567	372.550	-0.090	0.180
-76.553	238.563	-0.055	0.090
-75.538	-200.000	-0.012	-0.119
-74.524	-102.631	-0.250	0.059
-73.509	185.324	0.091	-0.134
-72.494	285.173	-0.038	0.068
-71.480	-200.000	0.057	0.268
-70.465	386.023	0.212	-0.432
-69.451	-49.507	-0.102	0.048
-68.436	346.744	0.100	-0.194
-67.422	-68.487	0.115	0.044
-66.407	-200.000	-0.007	0.194
-65.392	95.443	0.056	0.063
-64.378	368.269	0.105	-0.210
-63.363	149.503	-0.141	0.188
-62.349	3.975	0.169	0.122
-61.334	68.413	-1.080	-1.090
-60.319	-66.770	0.579	0.226
-59.305	-200.000	-0.149	-1.069
-58.290	176.766	0.554	0.794
-57.276	800.000	0.725	2.069
-56.261	-200.000	96.148	596.277
-55.246	565.572	1372.598	3276.653
-54.232	160.778	2550.624	3506.088
-53.217	112.240	2163.519	2574.956
-52.203	42.814	1707.906	1531.745
-51.188	35.404	1521.981	1314.422
-50.173	33.013	1495.463	1275.354
-49.159	51.980	1544.963	1448.169
-48.144	53.911	1561.723	1477.066
-47.130	35.540	1521.628	1314.843
-46.115	32.375	1506.698	1280.387
-45.100	32.260	1503.304	1276.676
-44.086	32.226	1501.725	1275.052
-43.071	32.201	1499.715	1273.127
-42.057	32.181	1497.742	1271.267
-41.042	32.152	1496.338	1269.824
-40.027	32.139	1495.985	1269.388
-39.013	32.189	1493.779	1267.801
-37.998	32.100	1492.702	1266.241
-36.984	32.104	1491.598	1265.281
-35.969	32.127	1490.291	1264.275
-34.954	32.147	1488.556	1262.890
-33.940	32.143	1487.248	1261.702
-32.925	32.279	1485.515	1261.096
-31.911	32.181	1484.148	1259.226
-30.896	32.187	1483.222	1258.432
-29.881	32.160	1482.041	1257.200
-28.867	32.247	1480.522	1256.438
-27.852	32.252	1478.959	1255.100
-26.838	32.256	1477.591	1253.916
-25.823	32.238	1476.174	1252.540
-24.809	32.237	1473.653	1250.348
-23.794	32.200	1472.732	1249.270
-22.779	32.181	1471.643	1248.170
-21.765	32.112	1470.785	1246.932
-20.750	32.285	1469.229	1246.711
-19.736	32.142	1468.240	1244.874
-18.721	32.135	1467.699	1244.321
-17.706	32.197	1466.052	1243.288
-16.692	32.149	1465.123	1242.131
-15.677	32.124	1464.221	1241.156
-14.663	32.143	1463.075	1240.259
-13.648	32.096	1462.211	1239.163
-12.633	32.018	1461.467	1237.973
-11.619	32.162	1459.772	1237.437
-10.604	32.132	1459.394	1236.871
-9.590	32.062	1459.107	1236.116
-8.575	32.078	1458.097	1235.317
-7.560	32.013	1457.071	1233.970
-6.546	32.018	1456.441	1233.423
-5.531	31.920	1455.294	1231.753
-4.517	32.073	1454.253	1231.831
-3.502	32.046	1453.179	1230.692
-2.487	32.149	1451.477	1229.881
-1.473	32.026	1450.677	1228.351
-0.458	32.068	1449.536	1227.607
0.556	31.962	1440.078	1216.853
1.571	29.093	1414.764	1177.042
2.586	25.894	1358.402	1110.375
3.600	24.284	1279.549	1036.478
4.615	22.907	1232.492	990.556
5.629	19.352	1174.419	924.766
6.644	9.664	1088.205	808.433
7.659	2.637	1046.824	743.621
8.673	1.782	1041.160	735.408
9.688	1.606	1038.251	732.441
10.702	1.463	1036.829	730.682
11.717	1.469	1034.718	729.161
12.731	4.418	1037.892	745.506
13.746	13.993	1051.829	801.856
14.761	22.212	1062.560	849.867
15.775	24.648	1065.146	863.647
16.790	24.992	1064.722	864.888
17.804	24.804	1063.833	863.180
18.819	24.645	1063.158	861.792
19.834	24.782	1062.298	861.677
20.848	24.922	1062.098	862.114
21.863	24.936	1061.575	861.682
22.877	24.974	1061.498	861.724
23.892	24.948	1060.670	860.852
24.907	24.833	1059.488	859.265
25.921	24.860	1059.244	859.122
26.936	24.885	1058.407	858.483
27.950	24.880	1057.083	857.310
28.965	24.804	1055.960	855.958
29.980	24.674	1054.800	854.324
30.994	24.635	1053.577	853.073
32.009	24.856	1052.882	853.488
33.023	25.044	1051.929	853.533
34.038	24.685	1050.982	850.980
35.053	24.750	1049.920	850.357
36.067	24.864	1049.813	850.734
37.082	24.877	1048.946	850.019
38.096	25.005	1047.649	849.500
39.111	25.040	1047.411	849.399
40.126	25.210	1046.295	849.223
41.140	25.237	1045.048	848.261
42.155	24.838	1043.801	845.292
43.169	24.559	1042.947	843.206
44.184	24.401	1041.992	841.617
45.199	24.480	1040.780	840.934
46.213	24.485	1039.696	840.010
47.228	24.589	1038.627	839.557
48.242	24.685	1038.513	839.842
49.257	24.751	1037.489	839.253
50.271	24.741	1037.235	838.927
51.286	25.061	1036.265	839.566
52.301	24.940	1035.832	838.574
53.315	24.944	1034.884	837.749
54.330	25.024	1034.096	837.412
55.344	24.878	1033.471	836.149
56.359	24.884	1032.473	835.299
57.374	24.884	1031.695	834.593
58.388	24.734	1030.650	832.978
59.403	24.709	1029.734	832.043
60.417	24.683	1029.577	831.726
61.432	24.496	1028.484	829.899
62.447	24.504	1027.672	829.206
63.461	24.581	1027.502	829.351
64.476	24.710	1026.499	829.071
65.490	24.696	1025.286	827.951
66.505	24.571	1024.594	826.742
67.520	24.555	1023.912	826.043
68.534	24.781	1023.029	826.300
69.549	24.534	1022.233	824.447
70.563	24.237	1020.826	821.867
71.578	24.097	1020.430	820.830
72.593	24.247	1019.291	820.534
73.607	24.069	1018.218	818.778
74.622	24.130	1017.079	818.073
75.636	24.337	1017.217	819.059
76.651	24.406	1016.714	818.900
77.666	24.410	1015.466	817.839
78.680	24.235	1014.344	816.063
79.695	24.280	1014.076	815.981
80.709	24.531	1013.128	816.296
81.724	24.494	1012.377	815.448
82.739	24.533	1011.871	815.144
83.753	24.510	1010.659	813.992
84.768	24.826	1010.115	814.921
85.782	25.096	1009.822	815.840
86.797	25.217	1008.976	815.637
87.812	25.222	1008.141	814.913
88.826	25.100	1006.866	813.255
89.841	25.037	1006.419	812.535
90.855	25.216	1005.655	812.659
91.870	25.149	1004.891	811.667
92.884	25.184	1003.747	810.830
93.899	25.082	1002.979	809.675
94.914	25.090	1001.876	808.752
95.928	25.113	1001.002	808.078
96.943	25.064	1000.490	807.372
97.957	24.703	999.353	804.756
98.972	24.679	998.142	803.603
99.987	24.485	997.028	801.764
101.001	24.509	996.469	801.352
102.016	24.829	995.750	802.138
103.030	24.915	994.926	801.786
104.045	24.753	994.604	800.731
105.060	24.755	992.800	799.216
106.074	24.459	991.964	797.153
107.089	24.462	991.154	796.445
108.103	24.737	990.950	797.438
109.118	25.011	990.047	797.858
110.133	24.693	988.614	795.220
111.147	24.562	988.138	794.184
112.162	24.503	986.428	792.478
113.176	24.301	985.519	790.781
114.191	24.458	984.600	790.671
115.206	24.539	984.141	790.588
116.220	24.302	983.190	788.708
117.235	24.146	982.237	787.182
118.249	24.350	981.613	787.514
119.264	24.373	980.778	786.877
120.279	24.245	979.522	785.234
121.293	24.166	979.481	784.785
122.308	24.320	978.910	784.934
123.322	24.378	977.682	784.138
124.337	24.254	976.567	782.629
125.352	24.154	975.260	781.073
126.366	23.763	973.236	777.671
127.381	23.403	972.430	775.384
128.395	24.006	972.335	777.877
129.410	24.586	972.179	780.219
130.424	24.709	971.760	780.351
131.439	24.660	970.709	779.224
132.454	24.570	969.980	778.175
133.468	24.684	968.896	777.736
134.483	24.747	967.836	777.089
135.497	24.583	967.687	776.189
136.512	24.817	966.919	776.519
137.527	25.118	965.947	776.972
138.541	24.995	965.367	775.908
139.556	25.104	964.111	775.298
140.570	25.097	963.535	774.738
141.585	25.030	962.826	773.808
142.600	24.998	962.338	773.211
143.614	25.122	961.182	772.747
144.629	25.206	960.387	772.404
145.643	25.373	959.944	772.697
146.658	25.289	958.857	771.392
147.673	25.116	957.223	769.266
148.687	24.873	956.764	767.786
149.702	25.036	955.309	767.250
150.716	24.830	954.612	765.741
151.731	24.810	953.611	764.783
152.746	24.791	952.811	763.996
153.760	25.145	951.927	764.728
154.775	25.198	951.512	764.553
155.789	25.083	951.080	763.651
156.804	25.247	949.866	763.305
157.819	25.008	948.811	761.371
158.833	25.182	948.225	761.572
159.848	25.212	947.093	760.726
160.862	25.344	946.766	760.955
161.877	25.313	945.651	759.858
162.892	25.067	944.931	758.172
163.906	25.214	944.077	758.041
164.921	25.185	943.176	757.129
165.935	25.155	941.861	755.883
166.950	25.281	940.750	755.454
167.964	25.161	940.322	754.536
168.979	25.103	939.472	753.544
169.994	25.336	937.659	753.000
171.008	24.974	936.957	750.853
172.023	25.118	936.501	751.025
173.037	25.341	936.035	751.519
174.052	25.071	934.884	749.400
175.067	24.949	933.477	747.695
176.081	24.864	933.347	747.170
177.096	24.940	932.307	746.590
178.110	24.992	931.478	746.073
179.125	24.795	930.311	744.253
180.140	24.609	929.059	742.413
181.154	24.552	928.795	741.900
182.169	24.726	928.227	742.102
183.183	24.993	928.062	743.015
184.198	25.288	927.532	743.744
185.213	25.073	927.140	742.474
186.227	25.003	926.530	741.630
187.242	25.150	925.951	741.712
188.256	25.186	925.092	741.107
189.271	25.205	924.372	740.540
190.286	25.404	923.429	740.541
191.300	25.199	922.632	738.991
192.315	24.612	921.769	735.819
193.329	23.729	920.077	730.774
194.344	23.369	919.083	728.437
195.359	24.107	919.260	731.549
196.373	24.937	919.597	735.160
197.388	25.130	919.174	735.550
198.402	25.116	918.547	734.925
199.417	25.007	918.182	734.119
200.432	25.067	917.938	734.108
201.446	24.952	916.917	732.753
202.461	24.688	915.992	730.872
203.475	24.684	915.770	730.611
204.490	24.312	913.859	727.508
205.504	23.163	912.139	721.391
206.519	23.536	912.001	722.739
207.534	24.385	912.804	726.773
208.548	24.534	911.687	726.423
209.563	25.001	911.498	728.108
210.577	25.026	910.721	727.523
211.592	24.777	910.308	726.119
212.607	25.036	910.215	727.031
213.621	25.241	909.672	727.363
214.636	25.259	908.894	726.749
215.650	25.138	908.483	725.870
216.665	25.175	907.765	725.380
217.680	25.282	907.068	725.190
218.694	25.333	906.591	724.951
219.709	25.007	905.708	722.867
220.723	24.565	904.997	720.452
221.738	24.788	904.320	720.748
222.753	25.037	903.491	721.025
223.767	25.078	902.821	720.593
224.782	25.025	902.442	720.013
225.796	25.191	901.679	720.008
226.811	25.555	901.158	720.985
227.826	25.010	900.055	717.857
228.840	24.097	898.891	713.210
229.855	24.077	898.146	712.477
230.869	24.432	897.425	713.260
231.884	24.071	896.482	711.006
232.899	24.054	896.269	710.708
233.913	24.834	896.510	713.948
234.928	24.989	896.100	714.177
235.942	24.977	894.957	713.155
236.957	25.019	894.484	712.883
237.972	24.585	893.631	710.413
238.986	24.576	893.000	709.814
240.001	24.786	892.424	710.126
241.015	24.700	891.933	709.331
242.030	24.853	891.430	709.475
243.045	24.938	890.753	709.210
244.059	24.993	890.224	708.946
245.074	25.221	889.596	709.281
246.088	25.237	888.714	708.580
247.103	24.803	888.110	706.322
248.117	24.885	887.417	706.031
249.132	25.382	887.955	708.360
250.147	25.711	887.673	709.367
251.161	25.685	886.833	708.531
252.176	25.994	886.409	709.346
253.190	26.003	885.568	708.644
254.205	25.913	885.614	708.264
255.220	26.224	884.519	708.549
256.234	26.143	884.452	708.115
257.249	25.935	884.221	707.051
258.263	25.869	883.108	705.839
259.278	25.918	882.190	705.234
260.293	26.043	881.889	705.422
261.307	25.879	882.077	704.867
262.322	25.939	880.975	704.160
263.336	25.939	879.923	703.254
264.351	25.470	878.907	700.554
265.366	24.313	876.629	694.173
266.380	23.733	876.016	691.369
267.395	24.800	876.504	695.845
268.409	25.536	876.731	698.826
269.424	25.455	875.778	697.694
270.439	25.690	875.298	698.160
271.453	25.736	874.569	697.693
272.468	25.745	874.161	697.341
273.482	25.951	873.786	697.779
274.497	26.151	873.144	697.977
275.512	25.922	872.094	696.192
276.526	25.373	870.851	693.020
277.541	25.266	870.950	692.625
278.555	25.853	870.817	694.722
279.570	25.653	869.928	693.180
280.585	25.408	869.207	691.602
281.599	25.536	868.732	691.657
282.614	25.709	867.957	691.642
283.628	25.195	867.276	689.063
284.643	24.908	866.421	687.224
285.657	25.152	866.448	688.122
286.672	25.201	865.367	687.387
287.687	24.791	864.373	684.968
288.701	25.117	864.130	685.962
289.716	25.433	864.299	687.246
290.730	25.263	863.253	685.701
291.745	24.855	863.049	683.921
292.760	24.911	861.449	682.805
293.774	24.749	861.050	681.811
294.789	25.817	861.516	686.191
295.803	26.127	861.923	687.638
296.818	26.249	861.318	687.559
297.833	26.309	860.836	687.339
298.847	26.089	859.796	685.613
299.862	25.858	858.659	683.768
300.876	25.812	858.192	683.162
301.891	26.237	857.934	684.508
302.906	26.416	857.412	684.708
303.920	26.006	856.422	682.305
304.935	25.876	855.744	681.216
305.949	26.207	855.790	682.442
306.964	26.246	855.021	681.915
307.979	25.953	854.710	680.503
308.993	25.951	854.030	679.891
310.008	26.303	853.889	681.047
311.022	26.395	853.158	680.749
312.037	26.380	852.730	680.293
313.052	25.964	852.162	678.212
314.066	25.793	851.236	676.773
315.081	25.205	849.556	673.175
316.095	24.452	848.616	669.546
317.110	25.017	849.005	671.913
318.125	25.885	848.960	675.070
319.139	25.513	847.487	672.450
320.154	24.381	845.756	666.787
321.168	23.955	845.329	664.800
322.183	24.562	845.348	667.022
323.197	25.434	846.207	670.898
324.212	25.835	845.582	671.840
325.227	25.654	845.490	671.033
326.241	26.106	844.641	671.983
327.256	25.952	844.157	670.967
328.270	25.833	843.638	670.050
329.285	25.617	843.251	668.882
330.300	25.627	842.107	667.951
331.314	25.263	841.439	666.013
332.329	25.467	840.560	666.014
333.343	25.810	840.346	667.055
334.358	26.074	840.487	668.087
335.373	26.230	839.767	668.031
336.387	26.056	839.257	666.923
337.402	26.256	838.805	667.246
338.416	26.612	838.534	668.285
339.431	26.501	837.838	667.261
340.446	26.625	837.181	667.134
341.460	26.870	837.139	667.945
342.475	26.856	836.176	667.068
343.489	26.527	835.338	665.130
344.504	26.655	834.850	665.151
345.519	26.639	835.004	665.158
346.533	27.050	834.278	666.029
347.548	27.064	833.858	665.684
348.562	27.122	833.217	665.325
349.577	26.861	833.086	664.209
350.592	26.944	832.051	663.629
351.606	26.882	831.667	663.036
352.621	26.750	831.497	662.361
353.635	26.716	830.691	661.535
354.650	26.587	830.367	660.746
355.665	26.420	828.844	658.869
356.679	25.358	827.354	653.764
357.694	25.156	826.979	652.674
358.708	25.748	827.032	654.810
359.723	25.882	826.236	654.610
360.738	26.091	826.376	655.422
361.752	26.554	826.005	656.749
362.767	26.667	825.655	656.823
363.781	26.911	826.038	657.955
364.796	27.165	825.755	658.592
365.810	27.353	825.142	658.723
366.825	27.426	824.839	658.687
367.840	27.245	824.672	657.842
368.854	27.139	824.028	656.889
369.869	26.879	822.676	654.813
370.883	26.660	822.084	653.495
371.898	26.637	822.012	653.294
372.913	26.677	821.258	652.781
373.927	26.680	820.243	651.930
374.942	26.705	819.808	651.616
375.956	26.917	819.533	652.101
376.971	26.901	818.838	651.432
377.986	27.133	818.510	651.948
379.000	27.257	818.282	652.154
380.015	27.295	817.590	651.679
381.029	27.193	816.800	650.628
382.044	27.044	816.023	649.419
383.059	27.176	815.683	649.560
384.073	27.119	815.051	648.799
385.088	27.124	814.760	648.525
386.102	27.115	814.645	648.344
387.117	27.127	813.635	647.528
388.132	26.881	813.164	646.217
389.146	26.755	812.456	645.148
390.161	26.204	811.025	641.999
391.175	26.254	811.174	642.239
392.190	26.858	810.970	644.166
393.205	27.008	810.484	644.254
394.219	25.800	809.093	638.808
395.234	24.251	806.441	631.178
396.248	23.398	805.498	627.365
397.263	24.528	806.101	631.780
398.278	26.293	807.628	639.172
399.292	26.805	807.568	640.878
400.307	26.720	806.831	639.937
401.321	26.594	806.089	638.846
402.336	26.701	805.715	638.870
403.350	26.955	805.929	639.879
404.365	27.353	805.816	641.135
405.380	27.666	805.769	642.146
406.394	27.954	805.645	643.003
407.409	28.056	805.262	642.997
408.423	27.841	805.051	642.015
409.438	27.764	804.147	640.969
410.453	27.843	803.672	640.810
411.467	28.067	803.105	641.087
412.482	27.952	802.672	640.281
413.496	27.909	802.296	639.773
414.511	27.967	801.724	639.464
415.526	28.111	801.101	639.416
416.540	28.075	800.887	639.062
417.555	28.007	800.485	638.447
418.569	27.755	799.715	636.896
419.584	27.701	799.324	636.339
420.599	27.859	798.486	636.167
421.613	109.748	1286.504	1458.120
422.628	94.530	1357.594	1458.203
