DTS Sentinel unit serial number:	SN413079Multiplexer serial number:	ORYXHardware model number:	OX4-SRSoftware version number:	ORYX F/W v4.00 Oryx Data Collector v3.7.2.0data status	okinstallation	princeton_trtdifferential loss correction	single-endedforward channel	channel 3reverse channel	N/Adate	2019/09/19time	00:48:34forward acquisition time	60.00reverse acquisition time	0.00gamma	496.2192k internal	0.2347k external	0.2347temperature offset calibration	0.9990default loss term (dB/km)	0.3790temperature slope calibration	1.0000multiplexer offset coefficient	1.0000multiplexer slope coefficient	1.0000fibre end	0.00T internal ref (°C)	22.12T ext. ref 1 (°C)	0.73T ext. ref 2 (°C)	15.39length (m)	temperature (°C)	Stokes	anti-Stokes-747.200	-200.000	-0.028	0.273
-746.185	-44.024	-0.280	0.141
-745.171	-110.175	-0.110	-0.023
-744.156	185.270	-0.126	-0.187
-743.142	-200.000	0.045	-0.256
-742.127	800.000	-0.109	0.363
-741.112	-200.000	0.029	-0.204
-740.098	110.663	0.173	-0.208
-739.083	800.000	0.125	0.379
-738.069	800.000	-0.091	0.272
-737.054	-105.317	-0.276	0.063
-736.039	411.913	-0.112	-0.237
-735.025	-118.709	-0.255	0.045
-734.010	168.265	-0.173	-0.246
-732.996	137.260	-0.145	0.189
-731.981	165.127	-0.031	-0.044
-730.966	-129.617	-0.249	-0.034
-729.952	246.798	-0.057	-0.096
-728.937	-138.413	0.268	-0.030
-727.923	-189.601	-0.059	0.001
-726.908	202.441	0.156	0.240
-725.894	800.000	0.030	-0.101
-724.879	800.000	0.048	0.164
-723.864	14.029	0.159	-0.124
-722.850	-62.754	0.217	-0.090
-721.835	722.977	0.084	0.224
-720.821	1.296	-0.132	-0.095
-719.806	121.326	-0.128	0.160
-718.791	-71.134	-0.185	-0.069
-717.777	181.745	-0.246	-0.362
-716.762	-179.460	0.088	-0.002
-715.748	-7.881	-0.322	-0.217
-714.733	-120.530	0.070	0.012
-713.718	-144.807	-0.086	-0.008
-712.704	-32.268	-0.087	0.049
-711.689	-58.997	0.301	0.130
-710.675	-123.538	-0.151	0.024
-709.660	25.439	0.103	-0.085
-708.645	69.537	0.029	0.030
-707.631	67.465	0.139	0.141
-706.616	800.000	0.016	-0.058
-705.602	62.879	-0.144	0.144
-704.587	282.739	0.077	-0.139
-703.572	4.166	-0.147	-0.107
-702.558	-112.677	0.145	0.029
-701.543	570.602	0.049	-0.119
-700.529	668.346	-0.077	0.198
-699.514	-200.000	-0.019	0.228
-698.499	-103.794	0.073	-0.017
-697.485	87.246	0.126	0.139
-696.470	30.662	-0.119	-0.102
-695.456	30.614	-0.072	-0.062
-694.441	-153.292	0.236	-0.016
-693.426	67.690	-0.175	0.179
-692.412	208.725	-0.160	0.250
-691.397	-107.368	0.264	-0.058
-690.383	-103.971	-0.272	-0.063
-689.368	316.738	0.107	-0.202
-688.354	-200.000	-0.003	0.130
-687.339	759.766	0.081	-0.218
-686.324	-200.000	-0.068	-0.348
-685.310	-57.060	0.349	-0.154
-684.295	36.054	-0.240	-0.210
-683.281	53.779	0.257	0.246
-682.266	-97.131	-0.274	-0.071
-681.251	337.222	0.077	0.149
-680.237	579.717	-0.091	-0.223
-679.222	145.306	-0.155	-0.207
-678.208	800.000	-0.145	-0.490
-677.193	122.947	0.031	0.039
-676.178	-29.578	0.252	-0.144
-675.164	185.679	-0.099	0.147
-674.149	-62.385	-0.228	-0.095
-673.135	-1.130	0.170	0.120
-672.120	74.255	-0.059	0.062
-671.105	800.000	-0.040	-0.121
-670.091	22.351	-0.056	0.046
-669.076	239.960	0.046	-0.076
-668.062	-140.157	0.096	-0.010
-667.047	69.768	-0.129	0.133
-666.032	-23.817	-0.064	0.038
-665.018	-64.729	0.112	0.045
-664.003	304.141	0.021	0.038
-662.989	72.786	-0.147	0.153
-661.974	72.468	0.152	0.157
-660.959	75.634	-0.197	-0.208
-659.945	-50.910	0.203	0.095
-658.930	800.000	0.028	0.086
-657.916	800.000	-0.141	-0.411
-656.901	194.425	0.111	0.167
-655.886	391.192	-0.110	-0.226
-654.872	111.793	0.135	0.163
-653.857	91.232	-0.072	-0.081
-652.843	800.000	-0.178	-0.494
-651.828	189.500	-0.096	0.144
-650.814	-38.975	0.303	0.159
-649.799	-44.789	-0.143	0.071
-648.784	-123.768	-0.425	-0.067
-647.770	95.615	0.084	-0.096
-646.755	-100.859	-0.212	0.052
-645.741	-65.784	-0.326	-0.130
-644.726	184.038	0.071	-0.104
-643.711	800.000	0.052	-0.215
-642.697	-200.000	-0.041	0.270
-641.682	800.000	0.091	-0.257
-640.668	-200.000	0.039	-0.374
-639.653	-149.223	-0.196	-0.016
-638.638	-133.277	-0.297	-0.037
-637.624	-200.000	-0.028	-0.142
-636.609	119.811	0.137	-0.169
-635.595	-125.614	0.160	-0.024
-634.580	-102.867	0.200	-0.047
-633.565	-152.658	-0.510	0.036
-632.551	-200.000	0.053	-0.286
-631.536	-200.000	0.013	-0.268
-630.522	63.298	-0.094	-0.094
-629.507	788.884	0.063	-0.172
-628.492	205.610	-0.044	0.068
-627.478	-173.527	-0.094	-0.003
-626.463	10.949	0.426	-0.324
-625.449	149.325	-0.104	-0.140
-624.434	-200.000	-0.022	0.173
-623.419	577.742	0.050	-0.122
-622.405	302.628	0.071	-0.130
-621.390	15.429	-0.074	-0.058
-620.376	-65.775	0.343	0.137
-619.361	450.316	0.044	0.097
-618.346	66.183	0.116	0.118
-617.332	-25.586	0.071	-0.042
-616.317	-174.619	-0.227	-0.006
-615.303	40.021	0.069	0.062
-614.288	800.000	0.123	0.363
-613.273	-94.807	0.486	-0.131
-612.259	90.859	-0.250	-0.279
-611.244	131.294	0.086	-0.110
-610.230	-200.000	0.010	-0.084
-609.215	-73.846	0.038	0.014
-608.201	62.445	-0.175	0.174
-607.186	-78.269	0.383	-0.131
-606.171	-153.225	0.206	0.014
-605.157	-141.458	-0.245	0.025
-604.142	-92.474	0.200	-0.056
-603.128	51.751	0.146	-0.138
-602.113	259.958	-0.049	0.085
-601.098	-69.012	-0.161	0.062
-600.084	275.530	-0.120	0.211
-599.069	370.466	-0.063	-0.128
-598.055	-200.000	-0.017	0.318
-597.040	-39.582	-0.269	0.140
-596.025	-200.000	-0.083	-0.543
-595.011	238.122	0.066	-0.108
-593.996	-18.324	0.067	-0.042
-592.982	-200.000	-0.005	0.055
-591.967	-81.927	-0.189	0.061
-590.952	-200.000	-0.006	-0.216
-589.938	139.627	0.089	0.117
-588.923	800.000	0.093	0.396
-587.909	332.997	-0.136	-0.260
-586.894	800.000	0.044	-0.131
-585.879	330.267	0.053	0.102
-584.865	132.428	-0.057	-0.073
-583.850	-200.000	0.063	0.303
-582.836	514.319	-0.047	-0.109
-581.821	140.011	-0.229	-0.300
-580.806	161.682	-0.285	-0.397
-579.792	140.245	0.270	-0.354
-578.777	-7.282	-0.103	0.069
-577.763	81.483	-0.118	-0.126
-576.748	-23.013	-0.283	0.169
-575.733	3.733	-0.121	-0.088
-574.719	-200.000	0.003	-0.388
-573.704	-40.703	-0.127	-0.065
-572.690	-97.439	-0.278	0.072
-571.675	-200.000	0.023	0.456
-570.661	-51.819	0.025	-0.011
-569.646	-3.318	-0.205	0.142
-568.631	800.000	0.077	0.216
-567.617	800.000	0.023	-0.082
-566.602	800.000	-0.047	-0.171
-565.588	-109.264	0.127	0.027
-564.573	394.569	0.089	-0.184
-563.558	23.680	0.290	-0.237
-562.544	192.513	-0.123	0.184
-561.529	-200.000	0.019	0.128
-560.515	-200.000	0.065	-0.330
-559.500	-81.440	0.225	0.073
-558.485	105.953	0.160	0.188
-557.471	-58.935	0.150	0.064
-556.456	158.586	-0.227	-0.313
-555.442	-27.040	0.314	-0.182
-554.427	67.291	0.192	-0.194
-553.412	-90.737	0.303	-0.087
-552.398	-200.000	0.104	-0.562
-551.383	-23.440	-0.273	0.162
-550.369	260.596	-0.026	-0.045
-549.354	123.459	0.204	-0.254
-548.339	800.000	-0.061	0.235
-547.325	118.769	-0.087	0.106
-546.310	508.061	-0.088	0.202
-545.296	21.496	0.182	0.147
-544.281	371.405	0.036	0.073
-543.266	-74.625	0.129	-0.046
-542.252	-110.942	0.180	0.037
-541.237	-200.000	-0.020	0.165
-540.223	-85.701	-0.200	0.062
-539.208	-200.000	-0.026	-0.302
-538.193	-8.849	-0.231	-0.154
-537.179	114.976	-0.134	-0.162
-536.164	-200.000	-0.014	-0.418
-535.150	502.791	0.098	0.226
-534.135	-122.006	0.117	-0.019
-533.121	-103.819	-0.311	-0.072
-532.106	-200.000	0.002	0.164
-531.091	6.312	0.102	-0.075
-530.077	28.286	-0.301	0.252
-529.062	-116.060	-0.246	0.045
-528.048	6.629	0.320	0.236
-527.033	244.752	-0.142	0.237
-526.018	800.000	-0.056	0.199
-525.004	225.111	0.044	0.071
-523.989	-200.000	0.013	0.193
-522.975	135.572	-0.112	-0.144
-521.960	165.307	-0.166	-0.232
-520.945	-200.000	-0.004	-0.028
-519.931	-200.000	-0.043	-0.307
-518.916	546.374	-0.108	-0.256
-517.902	48.283	-0.182	-0.169
-516.887	-5.729	0.132	-0.089
-515.872	15.062	-0.179	0.139
-514.858	249.383	-0.149	-0.250
-513.843	53.833	0.350	0.333
-512.829	-165.762	0.234	-0.010
-511.814	800.000	0.105	0.324
-510.799	-200.000	-0.023	0.245
-509.785	-1.806	0.423	0.295
-508.770	-108.042	0.169	-0.036
-507.756	43.923	0.084	-0.076
-506.741	-200.000	-0.042	0.358
-505.726	-126.503	-0.216	0.032
-504.712	800.000	-0.025	0.085
-503.697	-14.002	0.291	0.186
-502.683	0.307	0.280	0.198
-501.668	142.951	-0.220	0.289
-500.653	-74.084	-0.123	-0.044
-499.639	-120.852	0.218	-0.036
-498.624	-77.764	0.172	0.059
-497.610	-61.290	-0.141	-0.059
-496.595	800.000	0.056	-0.199
-495.581	0.549	0.296	0.209
-494.566	-151.328	-0.246	-0.018
-493.551	535.523	0.060	0.140
-492.537	-200.000	-0.036	0.359
-491.522	-143.998	-0.059	-0.005
-490.508	-200.000	0.078	0.370
-489.493	-105.557	0.245	-0.055
-488.478	-66.913	0.317	0.124
-487.464	-95.603	0.105	-0.028
-486.449	-0.455	-0.273	0.192
-485.435	369.745	-0.087	-0.175
-484.420	-119.425	-0.215	0.037
-483.405	648.357	-0.017	0.043
-482.391	-81.150	0.194	-0.063
-481.376	-109.574	-0.309	-0.065
-480.362	800.000	0.027	-0.082
-479.347	231.692	0.291	-0.472
-478.332	-3.336	-0.276	0.190
-477.318	-17.775	-0.062	0.039
-476.303	13.541	-0.031	0.024
-475.289	-22.167	-0.361	-0.217
-474.274	-200.000	-0.003	0.263
-473.259	-136.953	0.298	0.034
-472.245	-200.000	0.020	-0.304
-471.230	-200.000	-0.015	0.134
-470.216	-139.120	-0.355	0.038
-469.201	-200.000	0.003	-0.190
-468.186	-12.737	-0.153	0.099
-467.172	42.431	0.137	0.124
-466.157	273.458	0.056	-0.098
-465.143	260.355	-0.095	0.162
-464.128	379.494	-0.116	-0.234
-463.113	-75.605	0.144	-0.051
-462.099	-200.000	-0.012	-0.272
-461.084	-48.236	-0.216	0.103
-460.070	-130.571	0.274	0.037
-459.055	-10.340	0.067	-0.044
-458.040	-117.347	-0.124	0.022
-457.026	-63.497	-0.278	-0.113
-456.011	574.340	-0.015	0.037
-454.997	-110.275	-0.213	-0.044
-453.982	87.122	0.092	-0.101
-452.968	-2.208	-0.137	0.095
-451.953	165.974	0.108	-0.152
-450.938	-9.494	0.240	-0.159
-449.924	-158.747	0.014	-0.001
-448.909	-7.479	0.100	0.067
-447.895	-24.741	-0.114	-0.067
-446.880	5.025	-0.123	-0.089
-445.865	-7.782	0.313	-0.209
-444.851	-76.166	0.145	0.050
-443.836	-200.000	0.010	-0.350
-442.822	800.000	-0.067	0.276
-441.807	-200.000	0.012	0.203
-440.792	123.494	0.183	0.227
-439.778	34.465	-0.106	0.091
-438.763	140.242	-0.092	-0.120
-437.749	-200.000	0.045	0.434
-436.734	14.701	0.174	0.135
-435.719	272.244	-0.105	0.183
-434.705	245.248	0.215	-0.356
-433.690	-62.428	-0.113	0.046
-432.676	-58.229	0.113	-0.048
-431.661	-94.657	-0.268	-0.072
-430.646	-200.000	-0.024	0.219
-429.632	290.092	-0.037	0.066
-428.617	123.433	0.223	-0.276
-427.603	-66.426	0.184	-0.072
-426.588	-200.000	-0.036	0.351
-425.573	-137.363	-0.316	-0.035
-424.559	-200.000	-0.303	-0.001
-423.544	800.000	0.099	0.281
-422.530	30.327	0.148	0.125
-421.515	-200.000	0.010	0.201
-420.500	276.588	-0.131	0.230
-419.486	-35.713	0.318	-0.170
-418.471	100.175	-0.254	-0.291
-417.457	-76.177	0.327	0.114
-416.442	561.330	0.093	-0.222
-415.428	68.669	0.136	-0.138
-414.413	800.000	-0.036	-0.129
-413.398	259.016	0.066	0.113
-412.384	7.692	-0.089	-0.066
-411.369	55.560	-0.340	-0.325
-410.355	169.091	-0.127	-0.179
-409.340	0.004	-0.065	0.045
-408.325	800.000	-0.007	-0.022
-407.311	-55.278	-0.080	-0.035
-406.296	-200.000	0.011	-0.281
-405.282	81.275	-0.096	-0.102
-404.267	-81.472	0.269	-0.087
-403.252	-48.256	0.260	-0.124
-402.238	324.364	-0.161	-0.304
-401.223	-28.544	-0.233	-0.133
-400.209	-54.811	-0.375	0.167
-399.194	-128.855	-0.226	0.031
-398.179	154.301	0.217	0.293
-397.165	-115.404	-0.082	0.015
-396.150	189.007	0.071	0.104
-395.136	-200.000	-0.017	0.308
-394.121	-200.000	0.014	-0.195
-393.106	-80.999	-0.276	0.090
-392.092	-125.737	-0.047	0.007
-391.077	-71.875	0.198	0.073
-390.063	90.074	0.120	-0.132
-389.048	-200.000	-0.042	-0.531
-388.033	-200.000	0.010	-0.270
-387.019	-57.094	-0.269	-0.117
-386.004	-49.482	-0.172	0.081
-384.990	59.750	0.155	-0.151
-383.975	-155.203	0.104	0.007
-382.960	800.000	-0.021	0.084
-381.946	800.000	0.052	-0.180
-380.931	64.137	0.199	0.197
-379.917	294.953	0.041	0.073
-378.902	-73.068	-0.306	-0.111
-377.888	736.548	0.089	-0.234
-376.873	-197.308	-0.391	-0.002
-375.858	-105.733	-0.157	0.035
-374.844	-4.723	0.149	-0.101
-373.829	401.568	-0.065	0.135
-372.815	-200.000	0.029	0.291
-371.800	4.276	-0.172	0.124
-370.785	-93.764	0.127	-0.034
-369.771	-10.954	-0.241	-0.157
-368.756	800.000	0.056	-0.240
-367.742	1.553	0.101	0.072
-366.727	10.049	0.116	0.087
-365.712	662.137	-0.046	0.117
-364.698	-173.169	-0.725	-0.022
-363.683	554.779	-0.051	0.120
-362.669	-104.953	0.203	0.046
-361.654	260.763	0.119	-0.203
-360.639	18.872	-0.130	0.103
-359.625	-200.000	0.041	-0.255
-358.610	-135.452	0.108	-0.013
-357.596	-79.763	0.330	0.109
-356.581	16.048	-0.231	0.180
-355.566	218.489	0.090	0.142
-354.552	-200.000	-0.006	-0.030
-353.537	-200.000	-0.021	0.240
-352.523	390.395	-0.059	-0.120
-351.508	324.517	0.168	-0.316
-350.493	-112.178	0.228	0.045
-349.479	-200.000	-0.026	-0.144
-348.464	-96.191	-0.118	0.031
-347.450	237.221	-0.142	0.232
-346.435	13.698	0.134	0.103
-345.420	132.161	0.059	0.074
-344.406	-58.688	0.381	-0.162
-343.391	-200.000	0.032	0.317
-342.377	-101.657	-0.113	0.027
-341.362	-151.494	-0.207	0.015
-340.348	-200.000	0.011	-0.237
-339.333	510.358	-0.175	0.400
-338.318	245.558	0.011	0.018
-337.304	-49.773	-0.120	-0.056
-336.289	-200.000	0.025	0.225
-335.275	-200.000	-0.053	0.446
-334.260	153.734	-0.097	0.130
-333.245	-29.036	-0.316	0.178
-332.231	-140.976	-0.259	-0.026
-331.216	800.000	-0.029	0.080
-330.202	62.694	-0.136	0.134
-329.187	-54.351	0.383	-0.171
-328.172	-200.000	-0.007	0.176
-327.158	-71.359	0.260	0.096
-326.143	800.000	0.116	0.372
-325.129	-59.812	0.356	-0.150
-324.114	-112.551	-0.211	-0.041
-323.099	-200.000	-0.035	0.157
-322.085	173.744	0.135	-0.192
-321.070	800.000	0.086	0.251
-320.056	-98.746	-0.060	0.015
-319.041	-24.248	-0.293	0.172
-318.026	-110.388	-0.219	0.045
-317.012	-200.000	-0.030	-0.183
-315.997	-200.000	0.006	0.039
-314.983	-200.000	0.016	-0.096
-313.968	388.637	-0.058	-0.118
-312.953	-98.579	0.220	0.055
-311.939	-125.893	0.140	-0.021
-310.924	29.562	-0.164	-0.137
-309.910	-91.062	0.100	0.028
-308.895	552.150	-0.026	-0.060
-307.880	-62.900	-0.074	-0.030
-306.866	-45.705	0.159	0.077
-305.851	68.407	-0.117	-0.117
-304.837	-1.091	-0.298	-0.207
-303.822	-200.000	-0.042	0.352
-302.807	-159.140	0.233	0.013
-301.793	579.986	0.103	-0.247
-300.778	135.768	0.028	-0.036
-299.764	-200.000	-0.023	0.207
-298.749	-94.184	0.093	-0.025
-297.735	82.801	-0.315	-0.336
-296.720	-106.182	-0.116	-0.026
-295.705	-16.349	0.210	-0.131
-294.691	-25.061	0.091	-0.053
-293.676	-200.000	0.069	0.445
-292.662	-113.337	-0.163	0.031
-291.647	800.000	-0.042	-0.140
-290.632	-200.000	0.043	0.203
-289.618	-7.584	-0.112	0.074
-288.603	-126.311	0.502	0.074
-287.589	621.738	0.048	0.119
-286.574	-153.948	0.139	-0.009
-285.559	-26.497	-0.163	0.094
-284.545	-93.155	0.151	-0.041
-283.530	-135.545	0.337	-0.039
-282.516	-40.808	0.214	0.109
-281.501	517.733	0.083	-0.191
-280.486	-6.465	0.235	0.157
-279.472	293.699	-0.094	-0.168
-278.457	44.863	0.134	0.121
-277.443	65.673	-0.139	-0.138
-276.428	-139.375	-0.418	0.044
-275.413	800.000	-0.060	0.188
-274.399	4.082	-0.094	0.067
-273.384	-162.820	-0.193	-0.009
-272.370	266.083	-0.122	0.209
-271.355	-200.000	0.042	-0.435
-270.340	95.070	-0.064	-0.071
-269.326	31.984	-0.273	0.231
-268.311	18.898	0.072	0.056
-267.297	-7.179	0.255	-0.170
-266.282	800.000	0.031	0.113
-265.267	-200.000	-0.022	-0.247
-264.253	710.784	-0.083	0.215
-263.238	800.000	0.031	-0.123
-262.224	-88.667	-0.344	0.100
-261.209	-200.000	-0.014	0.160
-260.195	479.178	0.064	0.143
-259.180	-121.652	0.255	-0.041
-258.165	3.814	-0.005	-0.004
-257.151	-96.302	0.028	0.007
-256.136	230.921	0.142	-0.227
-255.122	134.112	-0.133	0.168
-254.107	68.158	0.214	0.215
-253.092	-106.876	0.161	-0.035
-252.078	189.387	0.153	0.225
-251.063	-200.000	-0.030	0.173
-250.049	-100.844	0.081	0.020
-249.034	-200.000	-0.010	-0.061
-248.019	379.550	0.108	-0.217
-247.005	800.000	0.032	-0.097
-245.990	-122.614	0.152	0.024
-244.976	555.433	0.018	0.042
-243.961	-22.618	0.251	0.149
-242.946	124.210	-0.102	0.126
-241.932	-19.320	0.047	0.029
-240.917	-200.000	0.060	-0.442
-239.903	408.082	-0.101	0.209
-238.888	37.682	0.188	-0.163
-237.873	-128.472	0.220	0.031
-236.859	369.090	-0.121	0.240
-235.844	243.460	-0.075	0.123
-234.830	-25.481	-0.090	0.052
-233.815	119.169	0.243	0.294
-232.800	163.446	0.114	-0.157
-231.786	-0.845	0.085	0.059
-230.771	-157.920	-0.078	-0.005
-229.757	480.341	-0.119	-0.263
-228.742	-200.000	0.011	0.050
-227.727	65.529	0.115	-0.114
-226.713	-40.353	0.316	0.161
-225.698	-134.237	0.258	-0.031
-224.684	-200.000	-0.067	0.521
-223.669	-200.000	0.022	-0.300
-222.655	-19.283	0.085	-0.051
-221.640	-19.517	0.060	-0.036
-220.625	360.879	-0.047	0.093
-219.611	395.349	0.049	0.100
-218.596	101.357	0.365	0.417
-217.582	92.086	-0.433	0.478
-216.567	121.624	0.113	0.138
-215.552	-137.078	-0.064	0.007
-214.538	-83.502	-0.230	-0.072
-213.523	12.262	-0.256	0.193
-212.509	287.448	-0.134	-0.238
-211.494	-117.791	-0.232	-0.041
-210.479	364.064	-0.139	-0.273
-209.465	-146.611	-0.091	0.008
-208.450	-144.565	-0.163	-0.015
-207.436	-18.212	0.318	0.195
-206.421	-200.000	0.015	0.252
-205.406	-156.550	-0.302	-0.018
-204.392	48.041	-0.147	-0.134
-203.377	-34.885	0.326	0.174
-202.363	-22.198	-0.177	0.105
-201.348	-72.475	-0.218	0.079
-200.333	-80.955	0.211	-0.069
-199.319	-200.000	-0.001	-0.038
-198.304	-200.000	-0.015	-0.111
-197.290	800.000	0.073	0.222
-196.275	58.581	0.276	-0.265
-195.260	-93.579	0.308	-0.083
-194.246	-62.302	0.222	0.091
-193.231	-147.777	-0.185	-0.015
-192.217	35.106	0.046	-0.040
-191.202	-120.043	0.562	0.094
-190.187	67.774	0.190	0.190
-189.173	-73.132	-0.376	-0.135
-188.158	-200.000	0.021	0.306
-187.144	301.377	-0.157	0.284
-186.129	-200.000	0.007	0.093
-185.114	-137.046	-0.348	0.039
-184.100	5.264	0.163	-0.118
-183.085	-200.000	-0.025	-0.274
-182.071	-200.000	-0.009	-0.051
-181.056	800.000	-0.041	0.170
-180.042	111.191	0.111	0.131
-179.027	88.692	-0.153	-0.166
-178.012	800.000	-0.044	-0.136
-176.998	-150.631	-0.227	0.017
-175.983	84.966	0.066	0.070
-174.969	-200.000	-0.035	0.266
-173.954	-96.431	-0.309	0.080
-172.939	-61.749	-0.209	-0.085
-171.925	317.820	0.208	0.385
-170.910	-0.965	0.318	-0.220
-169.896	105.520	-0.124	-0.143
-168.881	-113.604	-0.155	0.030
-167.866	-76.251	0.235	0.081
-166.852	112.561	0.221	-0.262
-165.837	800.000	-0.050	-0.136
-164.823	-200.000	0.050	-0.401
-163.808	398.708	0.181	-0.370
-162.793	259.204	0.043	0.073
-161.779	-200.000	-0.010	-0.100
-160.764	-44.672	-0.210	-0.102
-159.750	7.852	0.423	-0.309
-158.735	-200.000	0.009	0.046
-157.720	-58.905	0.149	0.063
-156.706	-58.112	-0.344	-0.147
-155.691	-128.800	-0.344	-0.047
-154.677	77.462	-0.063	0.065
-153.662	-200.000	0.000	0.013
-152.647	37.648	0.132	-0.114
-151.633	-51.312	0.194	0.089
-150.618	800.000	0.067	0.209
-149.604	800.000	0.068	-0.279
-148.589	178.972	0.093	0.132
-147.574	800.000	0.079	-0.259
-146.560	-81.949	-0.655	-0.209
-145.545	-200.000	0.010	0.070
-144.531	110.921	-0.207	0.243
-143.516	-132.882	-0.151	-0.019
-142.502	-96.451	-0.170	-0.044
-141.487	-58.344	-0.204	-0.087
-140.472	-200.000	0.065	0.297
-139.458	800.000	-0.026	0.083
-138.443	98.760	0.153	0.173
-137.429	-65.096	0.154	-0.061
-136.414	-97.238	0.217	-0.055
-135.399	-125.512	-0.098	0.014
-134.385	-149.189	0.266	0.021
-133.370	-130.945	0.480	-0.063
-132.356	260.235	0.143	-0.242
-131.341	-139.694	0.235	0.024
-130.326	94.882	0.037	0.041
-129.312	-200.000	0.003	-0.153
-128.297	199.357	0.268	-0.401
-127.283	-32.139	0.204	0.111
-126.268	647.957	-0.106	-0.265
-125.253	-117.963	0.316	-0.055
-124.239	-119.033	0.159	0.027
-123.224	800.000	-0.042	0.149
-122.210	24.585	0.131	0.106
-121.195	262.788	0.065	-0.110
-120.180	261.593	-0.149	0.251
-119.166	-84.936	0.208	-0.064
-118.151	800.000	0.048	0.164
-117.137	80.617	-0.138	-0.145
-116.122	-18.516	0.107	-0.065
-115.107	727.326	0.099	0.257
-114.093	89.521	0.089	-0.097
-113.078	-3.713	0.143	-0.097
-112.064	753.831	0.088	-0.233
-111.049	211.358	0.113	0.174
-110.034	-150.326	0.286	0.022
-109.020	65.759	-0.078	0.077
-108.005	24.535	-0.151	0.121
-106.991	800.000	0.049	0.196
-105.976	-39.782	-0.216	-0.110
-104.962	90.240	-0.251	-0.273
-103.947	-102.872	-0.150	0.035
-102.932	-126.768	0.177	0.025
-101.918	588.391	0.030	0.073
-100.903	-46.120	-0.208	-0.100
-99.889	-107.508	-0.161	-0.034
-98.874	-164.380	0.660	-0.029
-97.859	684.238	0.118	-0.301
-96.845	66.685	0.231	0.229
-95.830	-200.000	0.058	-0.332
-94.816	28.985	0.019	0.016
-93.801	-200.000	-0.009	0.101
-92.786	800.000	0.073	-0.243
-91.772	-155.535	0.057	-0.004
-90.757	124.388	0.316	-0.387
-89.743	-136.813	-0.288	-0.032
-88.728	69.242	-0.052	0.052
-87.713	71.386	0.209	0.212
-86.699	-74.846	0.418	0.146
-85.684	371.344	-0.117	0.232
-84.670	490.829	0.171	0.380
-83.655	800.000	0.066	0.228
-82.640	-120.774	-0.364	-0.060
-81.626	316.608	0.106	-0.196
-80.611	-200.000	0.018	-0.218
-79.597	243.450	0.134	0.218
-78.582	66.079	0.195	-0.193
-77.567	296.404	-0.161	-0.287
-76.553	717.560	-0.093	0.242
-75.538	-200.000	0.027	-0.315
-74.524	-200.000	0.028	-0.127
-73.509	-155.593	-0.279	-0.017
-72.494	68.827	-0.182	-0.181
-71.480	13.210	0.125	0.094
-70.465	-50.230	-0.198	0.091
-69.451	-39.893	-0.313	0.159
-68.436	800.000	-0.055	0.206
-67.422	-200.000	-0.007	-0.091
-66.407	-200.000	0.200	0.000
-65.392	171.100	-0.121	0.169
-64.378	495.594	-0.118	0.264
-63.363	800.000	0.084	-0.324
-62.349	249.914	-0.089	0.147
-61.334	55.943	-1.337	-1.262
-60.319	22.043	0.902	0.716
-59.305	443.824	-0.629	-1.343
-58.290	118.161	0.990	1.187
-57.276	800.000	0.487	1.717
-56.261	-200.000	133.332	696.869
-55.246	366.338	1659.923	3256.650
-54.232	134.893	2801.189	3538.848
-53.217	92.326	2189.927	2401.147
-52.203	32.550	1703.070	1431.868
-51.188	25.084	1524.841	1230.924
-50.173	23.396	1501.380	1200.511
-49.159	47.866	1576.923	1432.398
-48.144	44.645	1587.806	1419.808
-47.130	25.298	1535.276	1240.631
-46.115	22.270	1519.715	1207.254
-45.100	22.197	1515.499	1203.358
-44.086	22.251	1513.347	1201.969
-43.071	22.078	1511.700	1199.437
-42.057	22.050	1510.287	1198.076
-41.042	22.061	1509.222	1197.254
-40.027	22.089	1507.094	1195.712
-39.013	22.020	1505.985	1194.314
-37.998	22.147	1504.492	1193.944
-36.984	22.034	1503.979	1192.723
-35.969	22.125	1501.978	1191.708
-34.954	22.135	1500.832	1190.822
-33.940	22.091	1499.704	1189.581
-32.925	22.095	1498.026	1188.231
-31.911	22.104	1496.885	1187.337
-30.896	22.214	1495.788	1187.161
-29.881	22.083	1495.001	1185.608
-28.867	22.193	1492.901	1184.633
-27.852	22.148	1491.678	1183.316
-26.838	22.126	1490.757	1182.386
-25.823	22.155	1488.677	1180.888
-24.809	22.131	1487.408	1179.669
-23.794	22.197	1485.939	1178.902
-22.779	22.138	1484.748	1177.515
-21.765	22.093	1484.025	1176.592
-20.750	22.173	1482.333	1175.742
-19.736	22.139	1481.410	1174.734
-18.721	22.155	1480.426	1174.017
-17.706	22.081	1479.170	1172.476
-16.692	22.235	1477.515	1172.151
-15.677	22.101	1477.525	1171.214
-14.663	22.124	1476.098	1170.191
-13.648	22.115	1475.407	1169.537
-12.633	22.182	1474.159	1168.945
-11.619	22.122	1473.942	1168.330
-10.604	22.115	1472.869	1167.384
-9.590	22.139	1472.074	1166.872
-8.575	22.158	1470.872	1165.997
-7.560	22.132	1469.833	1164.950
-6.546	22.083	1469.488	1164.312
-5.531	22.202	1467.948	1163.829
-4.517	22.202	1466.845	1162.910
-3.502	22.090	1466.337	1161.722
-2.487	22.092	1465.697	1161.178
-1.473	22.054	1464.609	1160.022
-0.458	22.116	1462.616	1158.808
0.556	21.079	1452.532	1146.859
1.571	17.709	1428.246	1105.766
2.586	14.030	1366.318	1034.863
3.600	12.383	1281.898	961.203
4.615	11.413	1238.620	923.185
5.629	10.047	1182.058	873.576
6.644	5.295	1102.006	790.351
7.659	1.303	1067.641	746.042
8.673	0.863	1062.114	739.966
9.688	0.674	1058.542	736.489
10.702	0.629	1057.378	735.397
11.717	0.754	1054.804	734.147
12.731	2.224	1055.708	741.852
13.746	7.801	1063.028	774.131
14.761	14.164	1071.030	811.000
15.775	17.004	1074.264	827.242
16.790	16.959	1073.255	826.172
17.804	16.022	1071.123	819.900
18.819	15.225	1069.682	814.851
19.834	14.687	1067.919	810.826
20.848	14.502	1066.986	809.145
21.863	14.173	1066.341	806.990
22.877	13.948	1065.752	805.384
23.892	13.779	1064.476	803.527
24.907	13.761	1063.554	802.678
25.921	13.749	1062.781	801.964
26.936	13.644	1062.853	801.437
27.950	13.777	1061.610	801.072
28.965	13.722	1061.016	800.291
29.980	13.815	1059.722	799.689
30.994	13.882	1058.878	799.304
32.009	13.916	1058.303	798.964
33.023	13.906	1057.581	798.298
34.038	13.947	1056.486	797.597
35.053	14.049	1055.642	797.380
36.067	13.922	1054.689	795.982
37.082	13.834	1054.181	795.105
38.096	13.882	1053.406	794.683
39.111	13.999	1052.698	794.637
40.126	14.026	1051.254	793.604
41.140	13.886	1050.595	792.371
42.155	13.763	1049.509	790.893
43.169	13.656	1048.799	789.779
44.184	13.736	1047.656	789.230
45.199	13.727	1046.621	788.338
46.213	13.684	1045.902	787.521
47.228	13.878	1044.640	787.421
48.242	13.817	1044.121	786.671
49.257	13.828	1042.921	785.749
50.271	13.862	1042.226	785.318
51.286	13.932	1040.904	784.581
52.301	13.790	1040.186	783.303
53.315	13.854	1039.742	783.202
54.330	13.862	1038.416	782.171
55.344	14.019	1037.252	781.962
56.359	13.821	1036.443	780.354
57.374	13.711	1036.227	779.604
58.388	13.853	1035.470	779.630
59.403	13.705	1034.792	778.356
60.417	13.770	1033.697	777.771
61.432	13.815	1032.830	777.258
62.447	13.777	1032.204	776.541
63.461	13.636	1031.643	775.392
64.476	13.630	1030.529	774.460
65.490	13.713	1029.233	773.805
66.505	13.583	1029.110	773.037
67.520	13.750	1028.113	772.995
68.534	13.748	1027.327	772.326
69.549	13.690	1026.279	771.200
70.563	13.797	1025.625	771.138
71.578	13.748	1025.015	770.383
72.593	13.649	1024.088	769.161
73.607	13.653	1023.353	768.561
74.622	13.580	1022.194	767.280
75.636	13.706	1021.144	767.010
76.651	13.654	1020.404	766.143
77.666	13.681	1019.977	765.883
78.680	13.700	1019.141	765.276
79.695	13.702	1018.676	764.865
80.709	13.724	1017.877	764.300
81.724	13.724	1017.111	763.656
82.739	13.886	1015.944	763.461
83.753	13.778	1015.410	762.493
84.768	13.912	1014.335	762.235
85.782	13.930	1013.959	761.965
86.797	13.933	1013.323	761.433
87.812	13.913	1012.162	760.403
88.826	13.785	1012.098	759.704
89.841	13.872	1010.678	758.965
90.855	13.930	1009.679	758.412
91.870	14.006	1008.696	757.956
92.884	13.989	1008.442	757.620
93.899	13.913	1007.953	756.840
94.914	14.008	1007.005	756.491
95.928	13.892	1006.248	755.329
96.943	14.072	1005.602	755.596
97.957	13.943	1004.752	754.305
98.972	13.842	1003.852	753.105
99.987	13.988	1002.999	753.061
101.001	13.964	1002.450	752.474
102.016	13.910	1001.687	751.586
103.030	13.876	1000.619	750.566
104.045	13.979	999.711	750.284
105.060	13.894	998.963	749.274
106.074	14.036	997.679	748.884
107.089	13.798	997.105	747.316
108.103	13.874	996.284	746.973
109.118	13.931	994.944	746.161
110.133	13.856	994.365	745.324
111.147	13.866	993.432	744.603
112.162	13.717	993.135	743.645
113.176	13.924	991.810	743.516
114.191	13.949	991.484	743.318
115.206	14.069	989.755	742.492
116.220	13.954	989.455	741.689
117.235	13.863	988.749	740.687
118.249	13.890	988.103	740.256
119.264	13.902	987.219	739.584
120.279	13.966	986.015	738.900
121.293	13.773	985.701	737.743
122.308	13.933	984.357	737.381
123.322	13.829	983.269	736.038
124.337	13.851	982.780	735.706
125.352	13.945	981.218	734.886
126.366	13.816	979.992	733.335
127.381	13.743	979.430	732.527
128.395	13.840	978.118	731.907
129.410	13.878	977.168	731.301
130.424	13.879	976.149	730.475
131.439	13.772	975.839	729.710
132.454	13.793	974.639	728.840
133.468	13.827	974.017	728.458
134.483	13.856	973.536	728.164
135.497	13.782	972.576	727.053
136.512	13.845	971.718	726.626
137.527	13.916	970.845	726.220
138.541	13.964	970.069	725.784
139.556	13.923	969.695	725.261
140.570	13.864	968.830	724.291
141.585	13.949	968.303	724.206
142.600	13.948	967.805	723.765
143.614	13.949	966.667	722.854
144.629	13.897	966.080	722.125
145.643	14.160	965.195	722.542
146.658	14.021	964.425	721.299
147.673	14.096	963.036	720.519
148.687	13.993	962.239	719.414
149.702	13.948	961.721	718.767
150.716	14.031	960.854	718.417
151.731	13.965	960.364	717.699
152.746	14.051	959.486	717.352
153.760	13.978	958.596	716.311
154.775	14.095	957.742	716.110
155.789	14.025	957.449	715.528
156.804	14.174	955.719	714.812
157.819	14.151	955.650	714.598
158.833	14.300	954.720	714.477
159.848	14.089	954.679	713.477
160.862	14.263	953.633	713.380
161.877	14.168	952.697	712.209
162.892	14.243	951.842	711.828
163.906	14.196	950.757	710.753
164.921	14.086	950.626	710.120
165.935	14.097	949.588	709.330
166.950	14.088	948.601	708.495
167.964	14.247	947.617	708.371
168.979	14.205	946.664	707.420
169.994	14.209	945.654	706.619
171.008	14.199	944.800	705.877
172.023	14.219	944.077	705.357
173.037	14.238	943.111	704.655
174.052	14.292	942.636	704.466
175.067	14.276	941.537	703.515
176.081	14.298	940.832	703.018
177.096	14.301	940.264	702.546
178.110	14.265	939.907	702.062
179.125	14.286	938.900	701.338
180.140	14.275	938.207	700.710
181.154	14.248	937.348	699.894
182.169	14.215	936.656	699.178
183.183	14.243	936.101	698.820
184.198	14.420	935.023	698.691
185.213	14.390	934.558	698.156
186.227	14.554	933.793	698.213
187.242	14.426	933.465	697.368
188.256	14.521	932.841	697.240
189.271	14.585	931.708	696.598
190.286	14.563	931.133	696.012
191.300	14.401	930.371	694.708
192.315	14.295	929.576	693.610
193.329	14.305	929.110	693.245
194.344	14.249	928.563	692.542
195.359	14.274	928.221	692.327
196.373	14.484	927.389	692.518
197.388	14.471	926.728	691.908
198.402	14.412	926.649	691.547
199.417	14.568	926.038	691.674
200.432	14.691	925.073	691.400
201.446	14.743	924.872	691.406
202.461	14.695	924.543	690.898
203.475	14.735	923.380	690.137
204.490	14.780	923.097	690.048
205.504	14.642	922.218	688.761
206.519	14.669	921.555	688.317
207.534	14.594	921.290	687.749
208.548	14.643	920.072	686.978
209.563	14.787	919.346	686.969
210.577	14.736	918.721	686.233
211.592	14.767	917.950	685.722
212.607	14.733	917.403	685.112
213.621	14.830	916.816	685.013
214.636	14.903	915.840	684.519
215.650	14.860	915.706	684.186
216.665	14.880	914.908	683.610
217.680	14.924	914.567	683.474
218.694	14.801	914.236	682.666
219.709	14.880	913.568	682.427
220.723	14.966	912.953	682.260
221.738	15.094	911.786	681.846
222.753	14.948	911.282	680.815
223.767	14.882	910.653	680.018
224.782	15.083	909.447	679.874
225.796	15.127	909.223	679.825
226.811	15.099	908.542	679.140
227.826	14.997	907.723	678.056
228.840	15.044	906.931	677.592
229.855	15.082	906.330	677.238
230.869	15.095	905.496	676.606
231.884	15.221	904.550	676.351
232.899	14.963	904.150	674.951
233.913	15.140	903.304	674.974
234.928	14.945	902.889	673.817
235.942	15.073	902.121	673.699
236.957	15.106	901.054	672.977
237.972	15.064	900.958	672.676
238.986	15.071	900.291	672.148
240.001	15.171	899.847	672.158
241.015	15.120	898.739	671.064
242.030	15.124	898.293	670.688
243.045	15.150	897.795	670.360
244.059	15.320	897.151	670.499
245.074	15.193	896.357	669.341
246.088	15.161	895.693	668.660
247.103	15.140	895.244	668.180
248.117	15.138	894.801	667.784
249.132	15.338	893.788	667.762
250.147	15.472	892.826	667.521
251.161	15.472	892.484	667.205
252.176	15.409	891.799	666.382
253.190	15.532	891.338	666.467
254.205	15.439	890.880	665.697
255.220	15.573	890.009	665.520
256.234	15.394	889.633	664.469
257.249	15.486	888.905	664.231
258.263	15.631	888.337	664.322
259.278	15.555	887.418	663.275
260.293	15.686	886.806	663.276
261.307	15.572	886.517	662.551
262.322	15.754	885.835	662.699
263.336	15.783	885.342	662.387
264.351	15.819	884.872	662.118
265.366	15.757	883.982	661.148
266.380	15.760	883.072	660.421
267.395	15.780	882.249	659.826
268.409	15.650	882.215	659.234
269.424	15.615	881.122	658.219
270.439	15.757	880.575	658.308
271.453	15.743	879.358	657.286
272.468	15.703	879.133	656.903
273.482	15.702	878.244	656.177
274.497	15.825	877.659	656.163
275.512	15.790	877.124	655.568
276.526	15.888	875.965	655.025
277.541	15.852	875.906	654.785
278.555	15.895	875.082	654.277
279.570	16.068	874.120	654.169
280.585	15.995	874.092	653.808
281.599	16.005	873.768	653.546
282.614	15.949	872.581	652.386
283.628	16.137	871.683	652.384
284.643	15.913	871.564	651.371
285.657	16.138	870.843	651.643
286.672	15.962	870.744	650.829
287.687	16.077	869.942	650.617
288.701	15.986	869.805	650.105
289.716	16.039	868.881	649.563
290.730	16.097	868.369	649.347
291.745	15.944	868.057	648.465
292.760	16.096	867.153	648.319
293.774	16.195	866.217	647.943
294.789	16.202	865.809	647.604
295.803	16.118	865.415	646.932
296.818	16.111	864.816	646.398
297.833	16.014	864.331	645.606
298.847	16.220	863.143	645.451
299.862	16.127	862.561	644.605
300.876	16.121	862.271	644.305
301.891	16.162	861.196	643.601
302.906	16.210	860.529	643.230
303.920	16.393	859.592	643.172
304.935	16.269	859.343	642.454
305.949	16.347	858.722	642.230
306.964	16.500	858.236	642.393
307.979	16.386	857.668	641.476
308.993	16.626	856.799	641.681
310.008	16.460	856.400	640.694
311.022	16.533	855.574	640.298
312.037	16.467	855.071	639.616
313.052	16.362	855.202	639.259
314.066	16.647	854.002	639.382
315.081	16.417	853.010	637.716
316.095	16.524	852.819	637.921
317.110	16.385	852.556	637.143
318.125	16.369	851.796	636.456
319.139	16.524	851.319	636.627
320.154	16.485	850.760	636.005
321.168	16.538	850.149	635.694
322.183	16.559	849.503	635.231
323.197	16.630	849.007	635.071
324.212	16.508	848.588	634.245
325.227	16.550	848.381	634.190
326.241	16.643	847.631	633.922
327.256	16.595	846.812	633.074
328.270	16.511	846.562	632.518
329.285	16.648	845.420	632.118
330.300	16.595	845.538	631.955
331.314	16.680	844.634	631.540
332.329	16.543	844.097	630.571
333.343	16.606	843.488	630.297
334.358	16.686	842.806	630.028
335.373	16.743	842.224	629.749
336.387	16.702	841.957	629.344
337.402	16.840	841.297	629.307
338.416	16.830	840.686	628.756
339.431	16.874	840.057	628.391
340.446	16.819	839.507	627.723
341.460	16.728	839.133	627.048
342.475	16.868	838.458	627.006
343.489	16.892	838.063	626.745
344.504	16.858	837.409	626.076
345.519	16.965	837.183	626.246
346.533	17.040	836.327	625.828
347.548	16.948	836.321	625.427
348.562	16.959	835.415	624.734
349.577	16.922	834.939	624.188
350.592	16.976	834.079	623.689
351.606	16.999	833.709	623.443
352.621	16.931	833.271	622.810
353.635	17.130	832.759	623.101
354.650	16.950	832.637	622.293
355.665	17.025	832.184	622.175
356.679	17.142	831.575	622.094
357.694	17.057	831.293	621.518
358.708	17.073	830.233	620.727
359.723	17.003	830.065	620.291
360.738	17.154	829.090	620.058
361.752	17.152	828.672	619.684
362.767	16.995	828.697	619.076
363.781	17.288	828.011	619.576
364.796	17.205	827.695	618.981
365.810	17.233	827.259	618.702
366.825	17.372	826.400	618.513
367.840	17.338	826.282	618.245
368.854	17.227	826.351	617.838
369.869	17.248	825.781	617.433
370.883	17.392	824.607	617.023
371.898	17.298	824.334	616.423
372.913	17.317	823.801	616.042
373.927	17.346	823.135	615.593
374.942	17.458	822.411	615.401
375.956	17.333	821.953	614.552
376.971	17.405	821.422	614.359
377.986	17.611	820.594	614.431
379.000	17.471	820.384	613.714
380.015	17.576	819.798	613.598
381.029	17.646	819.193	613.343
382.044	17.608	818.839	612.887
383.059	17.542	818.065	612.016
384.073	17.697	817.482	612.085
385.088	17.690	816.922	611.585
386.102	17.604	816.354	610.797
387.117	17.524	816.142	610.298
388.132	17.562	815.684	610.039
389.146	17.545	815.299	609.634
390.161	17.676	814.802	609.678
391.175	17.554	814.688	609.103
392.190	17.635	814.242	609.006
393.205	17.714	813.199	608.454
394.219	17.804	813.085	608.633
395.234	17.571	812.540	607.341
396.248	17.690	811.902	607.236
397.263	17.700	811.529	606.939
398.278	17.614	811.091	606.250
399.292	17.646	810.703	606.022
400.307	17.599	810.605	605.726
401.321	17.681	809.816	605.375
402.336	17.661	809.679	605.150
403.350	17.772	808.762	604.802
404.365	17.889	808.491	604.960
405.380	17.697	808.354	604.124
406.394	17.884	807.523	604.112
407.409	17.973	806.821	603.848
408.423	18.027	806.374	603.650
409.438	17.933	806.032	603.010
410.453	17.838	805.732	602.397
411.467	17.971	805.149	602.376
412.482	18.075	804.708	602.359
413.496	18.041	804.137	601.759
414.511	18.036	804.157	601.705
415.526	18.088	803.571	601.395
416.540	18.009	803.216	600.799
417.555	18.086	803.048	600.889
418.569	18.059	802.363	600.229
419.584	18.263	801.665	600.369
420.599	18.039	801.534	599.432
421.613	116.043	1298.826	1491.749
422.628	100.201	1371.235	1491.837
