DTS Sentinel unit serial number:	SN413079Multiplexer serial number:	ORYXHardware model number:	OX4-SRSoftware version number:	ORYX F/W v4.00 Oryx Data Collector v3.7.2.0data status	okinstallation	princeton_trtdifferential loss correction	single-endedforward channel	channel 3reverse channel	N/Adate	2019/09/15time	09:52:34forward acquisition time	60.00reverse acquisition time	0.00gamma	496.2192k internal	0.2308k external	0.2308temperature offset calibration	0.9972default loss term (dB/km)	0.3790temperature slope calibration	1.0000multiplexer offset coefficient	1.0000multiplexer slope coefficient	1.0000fibre end	0.00T internal ref (°C)	34.05T ext. ref 1 (°C)	4.99T ext. ref 2 (°C)	29.82length (m)	temperature (°C)	Stokes	anti-Stokes-747.200	-22.886	0.178	0.109
-746.185	-200.000	0.068	0.312
-745.171	-148.228	-0.257	-0.022
-744.156	26.664	-0.093	0.079
-743.142	-200.000	-0.036	0.170
-742.127	-200.000	-0.018	0.266
-741.112	-180.520	-0.185	-0.004
-740.098	800.000	0.041	0.177
-739.083	8.241	-0.136	0.104
-738.069	675.936	-0.186	0.491
-737.054	64.575	-0.114	0.117
-736.039	-29.438	-0.164	0.095
-735.025	-200.000	0.035	0.169
-734.010	-114.697	-0.043	0.008
-732.996	-200.000	-0.008	-0.071
-731.981	-4.870	-0.065	-0.046
-730.966	-172.369	0.239	-0.008
-729.952	-91.038	0.150	0.044
-728.937	191.462	-0.126	-0.192
-727.923	145.607	-0.182	0.247
-726.908	723.980	-0.051	0.139
-725.894	75.064	0.234	-0.250
-724.879	18.862	-0.186	-0.151
-723.864	800.000	0.050	-0.142
-722.850	-171.999	-0.019	-0.001
-721.835	22.916	0.114	0.095
-720.821	2.853	-0.437	-0.322
-719.806	-63.902	0.032	-0.013
-718.791	7.358	-0.266	-0.202
-717.777	-106.660	-0.233	0.053
-716.762	134.180	-0.274	-0.361
-715.748	-111.837	-0.307	-0.063
-714.733	650.489	0.048	-0.124
-713.718	-15.706	-0.349	-0.226
-712.704	-200.000	0.038	-0.335
-711.689	28.998	-0.144	-0.124
-710.675	118.192	0.126	-0.157
-709.660	45.516	-0.371	0.347
-708.645	-150.980	0.048	0.004
-707.631	33.270	0.285	-0.251
-706.616	-41.279	-0.286	-0.150
-705.602	-9.780	0.253	0.171
-704.587	651.145	0.043	-0.113
-703.572	-48.942	-0.168	0.082
-702.558	-200.000	-0.006	-0.389
-701.543	-102.598	-0.203	0.049
-700.529	-85.555	0.371	0.117
-699.514	59.484	-0.152	0.152
-698.499	-26.561	-0.343	-0.204
-697.485	-37.591	0.191	-0.103
-696.470	153.980	0.108	0.150
-695.456	800.000	-0.141	0.440
-694.441	800.000	-0.119	-0.357
-693.426	301.260	-0.027	-0.052
-692.412	74.025	-0.184	0.196
-691.397	595.400	-0.045	0.114
-690.383	-82.514	-0.169	-0.056
-689.368	-200.000	-0.011	0.071
-688.354	111.745	0.302	-0.369
-687.339	44.022	-0.035	0.033
-686.324	-45.630	-0.098	-0.049
-685.310	-45.391	-0.147	0.074
-684.295	-200.000	-0.048	0.397
-683.281	-138.436	0.087	0.010
-682.266	310.945	-0.031	-0.058
-681.251	294.093	-0.155	-0.287
-680.237	-103.647	0.290	-0.069
-679.222	60.215	0.222	0.222
-678.208	-66.441	-0.538	0.217
-677.193	-113.494	0.030	0.006
-676.178	-5.657	-0.159	0.110
-675.164	542.884	0.126	0.306
-674.149	800.000	0.062	0.258
-673.135	149.304	-0.067	-0.092
-672.120	240.956	-0.260	0.440
-671.105	32.451	-0.194	0.170
-670.091	31.134	0.139	0.121
-669.076	-97.222	0.273	-0.072
-668.062	-14.303	-0.063	0.041
-667.047	-94.009	0.110	0.031
-666.032	-25.544	0.195	0.117
-665.018	-46.289	0.162	-0.081
-664.003	-130.471	-0.354	-0.049
-662.989	-200.000	-0.016	-0.251
-661.974	124.512	0.301	0.383
-660.959	800.000	0.090	-0.256
-659.945	28.720	0.235	0.202
-658.930	800.000	0.061	-0.196
-657.916	-161.090	0.011	0.001
-656.901	722.837	0.072	0.194
-655.886	-148.587	-0.277	-0.023
-654.872	216.308	0.170	0.274
-653.857	24.217	0.098	0.082
-652.843	61.537	-0.044	0.044
-651.828	-177.379	-0.298	-0.007
-650.814	73.537	0.029	-0.031
-649.799	800.000	0.062	-0.257
-648.784	252.424	0.029	0.050
-647.770	800.000	0.176	-0.521
-646.755	53.519	-0.104	-0.101
-645.741	-200.000	-0.006	0.059
-644.726	78.320	-0.060	-0.065
-643.711	-179.919	-0.131	-0.003
-642.697	-66.314	-0.054	-0.022
-641.682	-46.861	0.100	-0.049
-640.668	150.826	-0.200	-0.276
-639.653	-200.000	-0.021	-0.167
-638.638	800.000	0.060	0.229
-637.624	125.407	-0.246	0.314
-636.609	-135.696	0.253	-0.030
-635.595	-73.053	-0.267	0.099
-634.580	223.598	-0.131	-0.214
-633.565	-3.159	0.290	-0.205
-632.551	-79.329	0.129	-0.044
-631.536	800.000	-0.072	0.261
-630.522	-21.129	-0.284	0.176
-629.507	107.374	-0.173	0.209
-628.492	-200.000	0.022	0.473
-627.478	800.000	-0.020	0.063
-626.463	5.684	0.253	0.189
-625.449	77.774	0.219	-0.236
-624.434	2.296	0.029	-0.021
-623.419	84.230	-0.086	-0.095
-622.405	-162.264	0.272	0.014
-621.390	-1.626	-0.035	-0.025
-620.376	-200.000	0.025	-0.272
-619.361	800.000	-0.061	-0.171
-618.346	12.058	0.090	-0.070
-617.332	91.879	0.175	-0.199
-616.317	800.000	-0.049	-0.172
-615.303	-200.000	0.004	-0.253
-614.288	-42.465	0.072	-0.037
-613.273	80.354	0.109	-0.119
-612.259	-101.973	0.201	0.049
-611.244	77.656	0.035	-0.038
-610.230	-54.991	-0.097	0.044
-609.215	376.306	-0.031	-0.064
-608.201	29.353	0.087	0.075
-607.186	-147.548	0.059	-0.005
-606.171	-20.416	-0.153	0.095
-605.157	53.557	-0.070	0.068
-604.142	-138.591	0.132	0.015
-603.128	248.016	-0.097	0.166
-602.113	-200.000	-0.005	-0.053
-601.098	-140.082	0.110	0.012
-600.084	70.125	-0.126	-0.132
-599.069	-145.363	0.156	0.014
-598.055	800.000	0.085	-0.332
-597.040	773.177	0.131	0.360
-596.025	621.722	-0.164	-0.418
-595.011	2.757	0.147	-0.108
-593.996	-108.013	0.120	-0.026
-592.982	196.572	-0.050	-0.077
-591.967	338.170	0.024	0.048
-590.952	800.000	0.044	0.191
-589.938	111.485	-0.136	0.166
-588.923	-200.000	-0.044	-0.251
-587.909	-115.758	-0.155	-0.029
-586.894	-200.000	0.031	-0.150
-585.879	8.465	0.103	0.078
-584.865	271.121	-0.157	-0.280
-583.850	800.000	0.053	0.150
-582.836	5.247	-0.300	-0.223
-581.821	348.696	0.096	-0.191
-580.806	508.494	-0.097	-0.227
-579.792	141.316	-0.066	0.088
-578.777	1.442	-0.263	-0.191
-577.763	172.237	-0.132	0.192
-576.748	-42.008	-0.345	-0.179
-575.733	556.483	-0.123	0.300
-574.719	-200.000	-0.014	-0.094
-573.704	12.563	-0.230	-0.179
-572.690	297.371	0.163	-0.303
-571.675	-80.362	-0.249	-0.084
-570.661	800.000	-0.046	-0.173
-569.646	25.061	-0.083	0.069
-568.631	-81.389	-0.027	-0.009
-567.617	800.000	-0.016	0.053
-566.602	681.240	0.077	-0.203
-565.588	-106.753	-0.423	0.095
-564.573	-152.813	-0.243	-0.017
-563.558	72.230	-0.122	0.129
-562.544	-47.544	0.163	0.080
-561.529	125.418	-0.128	0.163
-560.515	-48.034	0.224	-0.109
-559.500	-200.000	0.022	0.157
-558.485	-200.000	0.006	0.117
-557.471	-68.172	0.142	-0.056
-556.456	-200.000	0.015	-0.145
-555.442	-149.154	-0.294	-0.024
-554.427	-200.000	0.025	0.300
-553.412	57.790	-0.100	0.098
-552.398	-76.985	-0.281	-0.099
-551.383	-200.000	0.010	0.294
-550.369	193.699	-0.154	0.235
-549.354	-163.982	0.369	0.017
-548.339	450.088	-0.048	-0.107
-547.325	-91.194	-0.142	0.041
-546.310	-200.000	0.033	0.285
-545.296	-95.239	-0.221	0.060
-544.281	-72.028	-0.431	0.161
-543.266	40.234	-0.314	0.285
-542.252	-10.495	-0.274	-0.183
-541.237	67.137	0.036	-0.037
-540.223	-42.366	0.174	-0.090
-539.208	800.000	-0.081	0.305
-538.193	206.452	-0.082	0.129
-537.179	-200.000	0.033	-0.202
-536.164	-161.260	-0.198	0.010
-535.150	-80.522	0.205	0.069
-534.135	99.196	0.136	0.159
-533.121	-93.598	0.195	0.054
-532.106	-200.000	-0.042	-0.408
-531.091	-200.000	-0.012	-0.133
-530.077	-111.491	-0.185	-0.038
-529.062	98.451	0.086	-0.100
-528.048	-73.695	-0.095	0.035
-527.033	-200.000	0.031	-0.293
-526.018	-106.118	-0.289	-0.065
-525.004	-200.000	0.017	-0.142
-523.989	219.557	0.133	-0.214
-522.975	-142.046	-0.075	-0.007
-521.960	-78.337	-0.278	-0.096
-520.945	-61.557	-0.189	0.080
-519.931	108.225	-0.120	0.144
-518.916	71.014	-0.188	-0.197
-517.902	75.497	-0.164	-0.174
-516.887	13.073	0.189	-0.148
-515.872	800.000	0.059	-0.240
-514.858	800.000	-0.030	-0.115
-513.843	231.162	-0.188	-0.310
-512.829	21.997	-0.199	-0.163
-511.814	75.000	-0.146	-0.155
-510.799	13.554	0.128	-0.100
-509.785	-22.212	0.158	0.097
-508.770	-53.405	0.313	0.145
-507.756	-7.506	0.112	-0.076
-506.741	800.000	-0.016	0.061
-505.726	-200.000	-0.018	0.110
-504.712	-67.854	-0.422	0.166
-503.697	-88.037	0.178	-0.054
-502.683	-200.000	0.053	0.238
-501.668	-51.095	-0.207	-0.098
-500.653	-200.000	-0.018	-0.081
-499.639	63.446	-0.092	-0.093
-498.624	-10.787	-0.252	0.168
-497.610	-200.000	0.015	-0.176
-496.595	249.792	-0.084	-0.144
-495.581	-200.000	0.007	-0.173
-494.566	61.088	-0.178	0.177
-493.551	109.837	-0.071	-0.086
-492.537	-70.717	-0.083	-0.032
-491.522	243.116	0.060	0.102
-490.508	322.165	0.067	-0.128
-489.493	-200.000	0.007	0.245
-488.478	-200.000	-0.017	0.163
-487.464	259.227	-0.100	0.173
-486.449	800.000	-0.080	-0.308
-485.435	-68.871	-0.273	-0.106
-484.420	800.000	-0.044	-0.132
-483.405	-113.789	-0.071	0.014
-482.391	-90.504	-0.051	0.015
-481.376	800.000	0.056	0.221
-480.362	81.537	-0.239	-0.260
-479.347	800.000	0.070	0.225
-478.332	-60.800	0.154	-0.066
-477.318	414.002	0.125	-0.269
-476.303	-51.584	0.191	-0.090
-475.289	168.836	-0.116	0.167
-474.274	421.543	-0.068	0.146
-473.259	800.000	0.029	0.102
-472.245	-77.970	-0.165	-0.057
-471.230	-200.000	-0.002	0.078
-470.216	101.058	0.109	0.128
-469.201	510.037	-0.230	0.537
-468.186	-38.591	-0.208	-0.110
-467.172	-34.570	0.045	0.025
-466.157	800.000	0.074	-0.233
-465.143	71.438	-0.116	-0.121
-464.128	-13.661	0.310	0.202
-463.113	-41.025	-0.074	-0.038
-462.099	-189.361	-0.369	-0.004
-461.084	-200.000	-0.057	0.262
-460.070	58.667	-0.125	0.124
-459.055	32.601	-0.122	-0.106
-458.040	-200.000	-0.006	-0.036
-457.026	181.615	0.164	0.243
-456.011	800.000	0.071	-0.209
-454.997	42.710	0.337	-0.309
-453.982	800.000	0.164	-0.501
-452.968	686.243	0.092	0.240
-451.953	139.035	-0.191	-0.253
-450.938	394.573	0.025	-0.053
-449.924	390.659	0.102	0.213
-448.909	232.715	-0.110	0.182
-447.895	-106.736	0.293	0.065
-446.880	800.000	0.137	0.459
-445.865	-200.000	0.322	0.001
-444.851	-200.000	0.005	0.300
-443.836	-152.606	-0.140	0.010
-442.822	6.163	-0.144	-0.107
-441.807	-30.896	-0.087	-0.049
-440.792	-200.000	0.090	-0.431
-439.778	-200.000	0.029	-0.191
-438.763	800.000	0.042	0.156
-437.749	800.000	-0.101	-0.357
-436.734	-200.000	-0.034	0.178
-435.719	490.192	0.069	-0.160
-434.705	-70.022	0.123	-0.047
-433.690	-128.024	0.389	0.056
-432.676	800.000	0.036	-0.136
-431.661	-24.843	0.122	-0.073
-430.646	-66.152	0.408	0.163
-429.632	-116.830	0.131	-0.024
-428.617	-48.591	0.173	0.084
-427.603	33.302	-0.204	-0.178
-426.588	-200.000	0.019	-0.163
-425.573	593.590	0.044	-0.110
-424.559	-117.984	0.349	-0.063
-423.544	7.098	0.232	-0.174
-422.530	60.844	0.256	-0.255
-421.515	29.931	0.215	0.184
-420.500	-69.448	-0.144	0.056
-419.486	28.569	0.263	0.224
-418.471	-52.604	0.030	-0.014
-417.457	72.365	-0.104	0.109
-416.442	-200.000	-0.010	0.257
-415.428	-130.804	-0.407	-0.055
-414.413	800.000	-0.021	-0.063
-413.398	44.867	0.023	0.021
-412.384	38.264	0.062	0.055
-411.369	-200.000	-0.030	-0.248
-410.355	800.000	-0.062	0.266
-409.340	-89.388	0.054	-0.016
-408.325	-44.345	0.431	0.216
-407.311	35.351	0.052	-0.046
-406.296	-99.216	-0.019	-0.005
-405.282	150.889	0.082	0.112
-404.267	113.367	0.176	-0.214
-403.252	312.051	0.049	-0.092
-402.238	-24.430	0.066	-0.040
-401.223	-155.157	0.221	0.014
-400.209	-94.035	-0.188	0.052
-399.194	-159.713	-0.205	0.011
-398.179	28.642	0.156	-0.132
-397.165	119.676	0.282	0.350
-396.150	23.085	0.353	0.290
-395.136	-200.000	-0.023	-0.311
-394.121	-110.781	0.026	0.005
-393.106	-46.138	0.127	-0.063
-392.092	-162.450	-0.093	-0.005
-391.077	177.726	0.137	0.201
-390.063	-200.000	-0.002	0.291
-389.048	680.521	0.160	0.418
-388.033	-30.002	-0.483	0.275
-387.019	-111.161	-0.185	0.038
-386.004	-166.095	-0.166	0.007
-384.990	284.401	0.179	0.323
-383.975	800.000	-0.046	-0.196
-382.960	-200.000	-0.080	0.373
-381.946	41.830	-0.159	-0.144
-380.931	10.104	-0.033	0.025
-379.917	659.796	-0.077	0.199
-378.902	-115.907	0.295	0.055
-377.888	800.000	-0.085	-0.240
-376.873	800.000	-0.009	-0.024
-375.858	-200.000	0.014	0.336
-374.844	629.581	0.112	-0.285
-373.829	78.388	0.077	-0.082
-372.815	-66.504	-0.384	-0.153
-371.800	98.367	0.185	-0.213
-370.785	-117.829	-0.293	0.053
-369.771	-52.032	-0.157	0.073
-368.756	-82.157	-0.260	0.085
-367.742	535.794	0.022	0.052
-366.727	-92.670	0.325	0.091
-365.712	-86.947	-0.251	-0.077
-364.698	96.321	0.149	0.170
-363.683	149.474	-0.219	0.297
-362.669	-2.568	-0.239	-0.167
-361.654	733.032	-0.046	-0.124
-360.639	-200.000	0.006	-0.111
-359.625	-200.000	-0.038	0.209
-358.610	800.000	-0.052	0.201
-357.596	-200.000	0.002	-0.093
-356.581	-200.000	-0.003	-0.268
-355.566	-112.891	-0.143	-0.028
-354.552	86.781	0.171	0.189
-353.537	800.000	0.070	-0.196
-352.523	77.960	-0.176	-0.188
-351.508	107.430	0.093	-0.111
-350.493	236.415	0.175	0.290
-349.479	232.111	-0.170	-0.279
-348.464	-94.303	0.149	0.041
-347.450	800.000	-0.041	-0.125
-346.435	-54.370	0.362	0.164
-345.420	0.133	0.319	0.228
-344.406	-51.913	0.267	0.124
-343.391	-200.000	-0.020	-0.374
-342.377	71.340	0.142	-0.148
-341.362	-200.000	0.032	-0.147
-340.348	492.743	-0.116	-0.266
-339.333	-200.000	0.009	-0.243
-338.318	52.958	0.146	-0.140
-337.304	-62.682	-0.186	-0.077
-336.289	172.168	-0.120	0.173
-335.275	108.941	-0.301	-0.360
-334.260	-134.495	-0.425	-0.052
-333.245	56.059	0.147	-0.142
-332.231	800.000	0.023	-0.102
-331.216	-200.000	0.006	0.098
-330.202	-181.854	-0.276	0.005
-329.187	557.887	-0.072	0.173
-328.172	-39.232	0.197	-0.104
-327.158	-19.780	-0.195	0.121
-326.143	146.344	-0.128	-0.171
-325.129	-53.983	0.118	0.054
-324.114	134.144	0.013	-0.017
-323.099	-30.738	0.195	-0.110
-322.085	188.285	0.144	0.216
-321.070	5.965	-0.181	-0.134
-320.056	418.793	-0.115	0.245
-319.041	-90.407	0.314	0.091
-318.026	112.087	0.183	0.221
-317.012	-200.000	0.026	0.247
-315.997	-56.226	0.208	0.092
-314.983	800.000	0.096	0.289
-313.968	-83.803	-0.186	0.059
-312.953	3.814	-0.157	-0.115
-311.939	115.548	-0.112	0.137
-310.924	-200.000	0.061	0.358
-309.910	14.574	-0.036	0.028
-308.895	-115.137	0.596	0.113
-307.880	-57.463	-0.346	0.152
-306.866	264.012	0.035	0.060
-305.851	-200.000	0.050	0.244
-304.837	243.764	-0.265	0.445
-303.822	-172.032	0.240	-0.008
-302.807	58.664	-0.061	-0.060
-301.793	-200.000	-0.007	-0.217
-300.778	-61.125	-0.200	0.085
-299.764	-6.681	-0.333	0.227
-298.749	45.097	0.116	0.107
-297.735	-200.000	-0.001	-0.184
-296.720	-140.216	-0.189	-0.020
-295.705	800.000	-0.014	0.043
-294.691	-200.000	-0.042	-0.221
-293.676	28.424	-0.229	-0.194
-292.662	169.119	-0.036	-0.051
-291.647	-200.000	0.007	-0.264
-290.632	293.257	-0.132	0.240
-289.618	-32.021	0.423	0.236
-288.603	-47.106	-0.168	0.082
-287.589	35.828	0.340	0.299
-286.574	152.176	0.344	0.468
-285.559	18.360	0.082	0.065
-284.545	-200.000	0.034	0.193
-283.530	-200.000	0.004	0.104
-282.516	30.251	0.259	0.221
-281.501	56.519	0.301	-0.293
-280.486	118.910	-0.180	0.222
-279.472	-61.260	0.263	-0.111
-278.457	-63.244	0.205	0.084
-277.443	-22.652	0.269	0.162
-276.428	-104.538	0.146	0.034
-275.413	-51.794	-0.214	-0.099
-274.399	-200.000	-0.018	-0.174
-273.384	268.493	0.131	-0.228
-272.370	-38.427	-0.115	-0.061
-271.355	-200.000	-0.338	0.000
-270.340	-106.073	0.464	0.104
-269.326	-75.309	-0.318	0.113
-268.311	-45.462	-0.115	-0.057
-267.297	138.262	0.112	-0.147
-266.282	378.548	0.036	-0.074
-265.267	800.000	-0.050	-0.165
-264.253	66.294	-0.100	0.101
-263.238	11.759	0.240	0.184
-262.224	193.189	0.309	0.466
-261.209	800.000	-0.095	-0.269
-260.195	800.000	0.087	-0.304
-259.180	-129.399	-0.150	0.021
-258.165	76.366	-0.165	0.174
-257.151	-128.181	0.079	0.011
-256.136	-200.000	0.092	0.416
-255.122	-70.311	-0.265	0.100
-254.107	-159.692	0.254	-0.014
-253.092	622.105	-0.021	-0.052
-252.078	-67.447	0.125	0.049
-251.063	58.777	-0.247	0.242
-250.049	800.000	-0.043	0.144
-249.034	-200.000	-0.031	-0.169
-248.019	364.786	-0.109	0.219
-247.005	15.606	-0.224	-0.175
-245.990	-39.351	0.134	0.070
-244.976	195.092	0.391	0.592
-243.961	312.308	0.094	-0.177
-242.946	25.931	-0.190	0.158
-241.932	108.170	-0.304	-0.361
-240.917	16.245	0.018	-0.014
-239.903	-200.000	-0.043	-0.313
-238.888	800.000	0.066	0.234
-237.873	-200.000	-0.009	0.105
-236.859	70.024	0.094	0.097
-235.844	460.998	0.046	0.102
-234.830	-88.571	0.265	0.079
-233.815	-62.970	0.112	-0.046
-232.800	63.527	0.226	-0.226
-231.786	-111.577	-0.147	-0.030
-230.771	800.000	-0.027	0.111
-229.757	-50.400	-0.092	-0.043
-228.742	674.873	0.081	-0.209
-227.727	56.957	-0.133	0.129
-226.713	-155.789	-0.095	0.006
-225.698	-137.063	-0.305	-0.035
-224.684	40.911	-0.019	0.017
-223.669	179.183	0.130	0.189
-222.655	-11.369	-0.151	0.099
-221.640	5.843	0.298	-0.220
-220.625	72.934	0.052	0.054
-219.611	71.567	0.315	0.325
-218.596	-53.484	0.210	0.096
-217.582	-47.107	-0.116	0.056
-216.567	-200.000	0.043	-0.303
-215.552	83.660	0.097	-0.105
-214.538	-80.197	-0.473	-0.158
-213.523	-83.301	0.149	-0.048
-212.509	36.075	0.143	-0.126
-211.494	800.000	0.067	0.187
-210.479	-100.402	0.124	0.031
-209.465	-50.657	-0.246	0.115
-208.450	-25.147	-0.252	-0.149
-207.436	-36.896	0.225	0.120
-206.421	-200.000	0.023	0.109
-205.406	-34.122	0.315	-0.172
-204.392	180.946	0.246	-0.360
-203.377	800.000	-0.011	0.035
-202.363	65.645	0.207	0.208
-201.348	47.704	-0.004	0.004
-200.333	-27.821	0.172	0.099
-199.319	150.145	0.166	0.225
-198.304	263.470	0.080	0.138
-197.290	-45.156	-0.157	-0.078
-196.275	16.261	0.083	0.065
-195.260	-19.269	-0.280	0.173
-194.246	-51.581	-0.357	0.166
-193.231	-185.685	0.556	-0.008
-192.217	74.468	-0.159	-0.166
-191.202	800.000	0.071	0.220
-190.187	-31.891	-0.033	-0.018
-189.173	-127.955	0.109	-0.016
-188.158	-200.000	0.032	-0.205
-187.144	-66.824	-0.235	0.093
-186.129	-98.715	-0.099	0.025
-185.114	-111.719	-0.102	0.021
-184.100	800.000	-0.102	-0.292
-183.085	-126.251	0.141	0.021
-182.071	109.627	-0.087	0.103
-181.056	-180.856	0.058	0.001
-180.042	-111.852	0.237	0.048
-179.027	800.000	-0.034	0.134
-178.012	-22.821	-0.319	0.192
-176.998	-21.293	0.271	0.165
-175.983	-200.000	0.082	0.446
-174.969	173.675	0.111	-0.159
-173.954	-200.000	0.074	-0.352
-172.939	-197.159	0.214	-0.001
-171.925	-99.066	0.450	0.113
-170.910	-200.000	-0.005	-0.026
-169.896	78.582	-0.174	0.185
-168.881	-200.000	-0.019	-0.494
-167.866	-200.000	0.024	-0.231
-166.852	-200.000	-0.042	-0.311
-165.837	-124.192	0.101	0.016
-164.823	-94.950	0.164	-0.044
-163.808	800.000	0.042	-0.115
-162.793	251.619	-0.190	-0.320
-161.779	800.000	-0.080	-0.223
-160.764	-104.302	-0.069	0.016
-159.750	-200.000	0.007	0.107
-158.735	-200.000	0.040	-0.327
-157.720	181.269	0.062	-0.091
-156.706	-200.000	0.032	-0.185
-155.691	-139.827	-0.011	0.001
-154.677	736.334	-0.024	0.063
-153.662	-80.521	-0.318	0.105
-152.647	-87.868	-0.330	-0.098
-151.633	18.438	0.182	-0.144
-150.618	-141.035	0.401	-0.041
-149.604	800.000	0.127	0.349
-148.589	-72.805	-0.101	-0.037
-147.574	800.000	-0.136	0.414
-146.560	-29.513	0.251	0.142
-145.545	206.477	0.080	0.123
-144.531	-29.813	-0.332	0.188
-143.516	159.645	-0.163	-0.226
-142.502	274.122	-0.126	-0.221
-141.487	780.862	-0.112	-0.304
-140.472	555.895	-0.058	0.140
-139.458	120.881	0.061	0.076
-138.443	-39.481	-0.068	-0.035
-137.429	-200.000	0.004	-0.334
-136.414	148.361	0.083	0.111
-135.399	-32.257	0.382	0.212
-134.385	-115.112	0.235	0.044
-133.370	-200.000	-0.036	0.399
-132.356	-128.442	-0.214	0.030
-131.341	-200.000	0.030	0.314
-130.326	800.000	-0.093	0.339
-129.312	-108.888	-0.348	0.074
-128.297	-112.479	-0.078	0.015
-127.283	138.976	0.107	-0.140
-126.268	-113.265	0.031	-0.006
-125.253	-119.909	-0.072	0.012
-124.239	98.277	0.046	-0.052
-123.224	800.000	0.047	0.149
-122.210	-75.297	0.049	0.017
-121.195	-8.595	-0.059	-0.039
-120.180	-102.281	0.245	-0.058
-119.166	60.390	-0.096	0.094
-118.151	23.393	0.223	-0.182
-117.137	40.706	-0.200	0.179
-116.122	-200.000	-0.002	0.150
-115.107	104.860	-0.055	0.065
-114.093	-49.466	0.338	0.160
-113.078	-41.978	-0.186	0.095
-112.064	-200.000	0.003	0.385
-111.049	-105.894	-0.233	-0.052
-110.034	800.000	-0.037	-0.109
-109.020	80.080	-0.056	-0.060
-108.005	-90.038	-0.191	-0.055
-106.991	6.434	0.186	0.137
-105.976	-200.000	0.008	-0.201
-104.962	597.177	0.070	-0.171
-103.947	-200.000	-0.027	0.253
-102.932	-161.998	-0.082	0.004
-101.918	74.949	-0.290	-0.303
-100.903	-124.911	0.138	0.021
-99.889	-200.000	-0.014	0.167
-98.874	-126.695	-0.471	-0.069
-97.859	-14.273	0.308	-0.197
-96.845	-91.445	0.274	0.078
-95.830	-21.728	-0.411	0.248
-94.816	-52.437	0.079	0.036
-93.801	544.857	0.182	0.430
-92.786	227.270	-0.108	-0.173
-91.772	-200.000	0.104	0.533
-90.757	-128.732	0.041	-0.006
-89.743	307.011	-0.033	-0.062
-88.728	-90.049	-0.093	0.027
-87.713	-28.007	-0.197	-0.113
-86.699	97.953	-0.124	0.142
-85.684	437.043	0.074	-0.160
-84.670	800.000	-0.022	-0.094
-83.655	-34.071	-0.078	0.042
-82.640	-43.510	0.166	-0.083
-81.626	-189.067	0.173	0.002
-80.611	153.747	-0.104	0.142
-79.597	-14.115	-0.209	-0.134
-78.582	-26.479	-0.082	-0.048
-77.567	-63.434	-0.306	-0.124
-76.553	180.421	0.079	-0.115
-75.538	200.517	-0.069	-0.106
-74.524	-36.596	-0.090	-0.048
-73.509	-89.993	0.088	-0.026
-72.494	209.674	-0.046	-0.072
-71.480	-54.264	0.386	-0.173
-70.465	-35.162	0.137	-0.074
-69.451	361.423	-0.058	0.116
-68.436	800.000	0.036	-0.131
-67.422	-200.000	-0.010	-0.263
-66.407	-100.652	0.111	-0.027
-65.392	-9.482	-0.099	-0.065
-64.378	-200.000	0.005	-0.063
-63.363	427.968	-0.133	0.285
-62.349	800.000	-0.019	0.084
-61.334	103.542	-0.816	-0.947
-60.319	-200.000	0.061	0.526
-59.305	625.050	-0.318	-0.794
-58.290	294.635	0.608	1.100
-57.276	800.000	0.368	1.555
-56.261	-200.000	97.758	574.680
-55.246	618.956	1408.439	3500.932
-54.232	184.888	2615.492	3837.552
-53.217	118.599	2206.983	2695.679
-52.203	44.449	1737.969	1579.284
-51.188	37.087	1549.478	1356.701
-50.173	34.688	1522.260	1316.304
-49.159	53.543	1573.290	1493.011
-48.144	56.743	1591.589	1532.731
-47.130	37.550	1546.990	1357.535
-46.115	34.283	1532.011	1321.718
-45.100	34.133	1528.173	1317.317
-44.086	34.148	1526.674	1316.072
-43.071	33.991	1524.913	1313.419
-42.057	34.006	1522.955	1311.782
-41.042	34.101	1521.113	1310.798
-40.027	33.943	1520.506	1309.135
-39.013	34.005	1518.983	1308.203
-37.998	34.106	1517.023	1307.152
-36.984	34.056	1516.157	1306.013
-35.969	34.027	1515.126	1304.874
-34.954	34.044	1513.303	1303.368
-33.940	33.983	1512.556	1302.259
-32.925	34.012	1510.910	1300.983
-31.911	34.047	1509.537	1299.994
-30.896	34.177	1507.575	1299.135
-29.881	34.175	1506.504	1298.150
-28.867	34.015	1505.835	1296.431
-27.852	34.183	1504.124	1296.047
-26.838	34.134	1502.957	1294.661
-25.823	34.114	1501.252	1293.001
-24.809	34.019	1500.069	1291.286
-23.794	34.163	1497.900	1290.345
-22.779	34.070	1497.175	1289.041
-21.765	34.137	1495.791	1288.254
-20.750	34.069	1494.818	1286.900
-19.736	34.074	1493.600	1285.839
-18.721	34.059	1492.444	1284.688
-17.706	34.086	1491.812	1284.274
-16.692	34.142	1489.976	1283.023
-15.677	34.130	1489.373	1282.372
-14.663	34.014	1488.924	1281.152
-13.648	33.993	1487.616	1279.835
-12.633	33.974	1486.909	1279.049
-11.619	33.975	1486.044	1278.261
-10.604	33.948	1484.973	1277.109
-9.590	34.016	1483.864	1276.561
-8.575	33.964	1483.493	1275.840
-7.560	33.933	1482.109	1274.392
-6.546	33.979	1481.552	1274.171
-5.531	34.004	1480.581	1273.450
-4.517	33.951	1479.313	1271.954
-3.502	34.099	1478.358	1272.075
-2.487	34.017	1477.216	1270.491
-1.473	33.948	1476.229	1269.133
-0.458	33.999	1475.122	1268.473
0.556	32.903	1465.688	1258.482
1.571	29.966	1439.369	1216.514
2.586	26.324	1377.632	1141.280
3.600	24.581	1294.049	1061.594
4.615	23.030	1247.992	1014.824
5.629	20.110	1191.467	952.751
6.644	12.274	1105.827	844.055
7.659	5.980	1064.664	781.327
8.673	5.161	1059.042	773.075
9.688	5.070	1055.797	770.191
10.702	4.891	1054.018	767.945
11.717	4.838	1052.285	766.351
12.731	7.558	1055.350	781.924
13.746	15.100	1066.053	827.169
14.761	19.577	1070.849	852.986
15.775	18.677	1068.438	846.549
16.790	17.487	1066.658	839.200
17.804	16.373	1063.990	831.549
18.819	15.538	1062.204	825.976
19.834	14.980	1060.926	822.165
20.848	14.725	1059.831	819.993
21.863	14.479	1058.907	817.999
22.877	14.201	1058.576	816.307
23.892	14.030	1057.232	814.361
24.907	13.931	1056.623	813.333
25.921	13.899	1056.218	812.793
26.936	14.078	1054.882	812.566
27.950	14.142	1053.664	811.872
28.965	14.087	1053.080	811.079
29.980	14.169	1051.450	810.152
30.994	14.320	1050.241	809.885
32.009	14.336	1049.501	809.321
33.023	14.289	1049.223	808.804
34.038	14.225	1048.409	807.795
35.053	14.221	1047.166	806.745
36.067	14.172	1046.384	805.836
37.082	14.312	1045.079	805.435
38.096	14.171	1044.461	804.206
39.111	14.200	1043.812	803.775
40.126	14.279	1042.600	803.153
41.140	14.181	1041.947	802.109
42.155	14.099	1040.554	800.569
43.169	13.980	1039.859	799.394
44.184	13.939	1038.515	798.088
45.199	13.927	1037.207	796.955
46.213	13.955	1036.498	796.476
47.228	13.920	1035.667	795.602
48.242	14.029	1034.715	795.320
49.257	14.095	1033.689	794.776
50.271	14.129	1032.524	793.973
51.286	14.159	1031.779	793.472
52.301	14.146	1030.813	792.596
53.315	14.147	1030.068	791.959
54.330	14.128	1029.127	791.077
55.344	13.964	1028.913	790.061
56.359	14.035	1027.470	789.221
57.374	13.983	1026.609	788.242
58.388	14.033	1025.526	787.576
59.403	13.922	1024.993	786.571
60.417	13.888	1024.259	785.780
61.432	13.911	1023.490	785.230
62.447	13.934	1022.782	784.724
63.461	13.815	1021.973	783.474
64.476	13.916	1020.701	782.905
65.490	13.861	1019.626	781.753
66.505	13.713	1019.490	780.884
67.520	13.755	1019.132	780.738
68.534	13.965	1017.967	780.762
69.549	13.917	1016.968	779.699
70.563	13.907	1016.245	779.030
71.578	13.844	1015.663	778.220
72.593	13.920	1014.419	777.552
73.607	13.705	1013.521	775.789
74.622	13.705	1012.728	775.115
75.636	13.844	1011.429	774.701
76.651	13.789	1010.844	773.927
77.666	13.821	1010.406	773.671
78.680	13.857	1009.640	773.187
79.695	13.806	1008.884	772.300
80.709	13.745	1008.652	771.770
81.724	13.842	1007.635	771.377
82.739	13.937	1006.772	771.088
83.753	14.086	1006.091	771.188
84.768	14.103	1005.234	770.542
85.782	14.085	1004.785	770.048
86.797	14.156	1004.448	770.051
87.812	14.231	1003.321	769.464
88.826	14.166	1002.109	768.166
89.841	14.027	1001.736	767.171
90.855	14.123	1000.645	766.711
91.870	14.315	999.745	766.839
92.884	14.250	999.274	766.109
93.899	14.186	998.730	765.329
94.914	14.252	997.751	764.814
95.928	14.263	997.091	764.294
96.943	14.325	996.425	763.999
97.957	14.263	995.488	762.927
98.972	14.283	994.787	762.413
99.987	14.314	993.723	761.672
101.001	14.335	993.141	761.255
102.016	14.247	992.523	760.313
103.030	14.218	991.411	759.264
104.045	14.176	990.656	758.426
105.060	14.282	989.828	758.205
106.074	14.238	989.019	757.319
107.089	14.073	988.094	755.794
108.103	13.964	986.918	754.332
109.118	13.992	985.922	753.633
110.133	14.039	985.304	753.308
111.147	13.961	984.516	752.282
112.162	13.928	983.718	751.457
113.176	13.987	982.503	750.729
114.191	14.012	981.905	750.319
115.206	14.092	980.869	749.823
116.220	14.034	980.361	749.106
117.235	14.088	979.307	748.479
118.249	13.993	978.611	747.451
119.264	13.898	977.905	746.422
120.279	14.015	977.018	746.203
121.293	13.870	976.165	744.835
122.308	13.996	975.240	744.627
123.322	13.944	974.070	743.433
124.337	13.997	973.266	742.991
125.352	13.891	971.885	741.400
126.366	13.937	970.551	740.522
127.381	13.866	970.031	739.742
128.395	13.862	969.187	739.015
129.410	13.900	968.216	738.380
130.424	13.857	967.307	737.430
131.439	13.974	966.592	737.337
132.454	14.106	965.622	737.118
133.468	14.055	964.905	736.279
134.483	14.026	964.415	735.714
135.497	14.096	964.077	735.701
136.512	14.101	962.711	734.614
137.527	14.153	961.900	734.159
138.541	13.980	961.421	732.968
139.556	14.106	960.523	732.771
140.570	14.106	959.992	732.301
141.585	14.024	959.278	731.331
142.600	14.268	958.499	731.747
143.614	14.277	957.785	731.176
144.629	14.253	957.016	730.420
145.643	14.427	956.276	730.554
146.658	14.364	955.487	729.610
147.673	14.191	954.333	727.905
148.687	14.178	953.176	726.904
149.702	14.132	952.898	726.425
150.716	14.050	952.143	725.428
151.731	14.158	951.211	725.122
152.746	14.139	949.830	723.925
153.760	14.118	949.413	723.451
154.775	14.021	949.097	722.726
155.789	14.243	947.721	722.576
156.804	14.261	947.257	722.237
157.819	14.209	946.519	721.383
158.833	14.148	945.901	720.585
159.848	14.378	945.219	720.997
160.862	14.460	944.167	720.486
161.877	14.265	944.111	719.537
162.892	14.139	943.310	718.319
163.906	14.200	942.110	717.604
164.921	14.174	941.286	716.803
165.935	14.283	940.303	716.460
166.950	14.176	939.580	715.385
167.964	14.293	938.396	714.924
168.979	14.220	937.582	713.923
169.994	14.287	936.428	713.269
171.008	14.301	935.713	712.721
172.023	14.414	934.549	712.255
173.037	14.371	934.629	712.069
174.052	14.426	933.958	711.731
175.067	14.353	933.168	710.753
176.081	14.310	932.121	709.710
177.096	14.186	931.450	708.609
178.110	14.215	930.102	707.644
179.125	14.222	929.983	707.520
180.140	14.359	929.283	707.508
181.154	14.217	928.476	706.230
182.169	14.457	927.524	706.458
183.183	14.419	927.239	706.019
184.198	14.492	926.470	705.678
185.213	14.479	925.946	705.164
186.227	14.500	924.804	704.320
187.242	14.582	924.391	704.289
188.256	14.534	924.045	703.761
189.271	14.691	923.423	703.887
190.286	14.675	922.189	702.814
191.300	14.541	921.156	701.401
192.315	14.378	920.539	700.187
193.329	14.271	920.107	699.345
194.344	14.251	919.911	699.052
195.359	14.316	918.867	698.467
196.373	14.417	918.593	698.623
197.388	14.484	917.895	698.311
198.402	14.523	917.648	698.225
199.417	14.636	916.994	698.137
200.432	14.810	916.379	698.335
201.446	14.858	916.118	698.273
202.461	14.880	915.533	697.858
203.475	14.797	915.250	697.233
204.490	14.920	914.342	696.996
205.504	14.903	913.250	696.028
206.519	14.615	912.781	694.412
207.534	14.837	911.686	694.439
208.548	14.704	911.005	693.307
209.563	14.715	910.373	692.812
210.577	14.914	909.187	692.671
211.592	14.936	908.934	692.508
212.607	15.019	908.380	692.367
213.621	14.975	907.617	691.544
214.636	15.068	906.989	691.389
215.650	14.906	906.898	690.589
216.665	14.884	906.064	689.800
217.680	14.978	905.380	689.607
218.694	15.114	904.882	689.728
219.709	14.997	904.620	688.985
220.723	15.033	904.225	688.769
221.738	14.836	903.557	687.393
222.753	15.071	902.642	687.601
223.767	15.002	901.877	686.673
224.782	15.134	900.753	686.298
225.796	15.199	899.978	685.911
226.811	15.200	899.478	685.473
227.826	15.143	898.839	684.692
228.840	15.137	898.007	683.974
229.855	15.135	897.354	683.409
230.869	15.145	896.726	682.912
231.884	15.039	896.098	681.938
232.899	14.962	895.644	681.220
233.913	14.998	894.850	680.703
234.928	15.055	894.120	680.317
235.942	15.027	893.399	679.598
236.957	14.971	892.683	678.764
237.972	15.134	891.572	678.519
238.986	15.045	891.372	677.946
240.001	14.998	890.790	677.256
241.015	14.999	890.280	676.811
242.030	15.013	889.952	676.560
243.045	15.205	889.024	676.567
244.059	15.245	888.022	675.907
245.074	15.183	887.769	675.406
246.088	15.232	887.256	675.152
247.103	15.068	886.510	673.863
248.117	15.334	885.920	674.428
249.132	15.390	885.228	674.064
250.147	15.611	884.587	674.404
251.161	15.631	884.051	674.015
252.176	15.582	883.440	673.293
253.190	15.573	882.701	672.636
254.205	15.710	882.287	672.807
255.220	15.743	881.488	672.270
256.234	15.618	881.071	671.393
257.249	15.716	880.619	671.381
258.263	15.724	879.856	670.773
259.278	15.689	879.118	670.012
260.293	15.778	878.630	669.935
261.307	15.768	878.082	669.419
262.322	15.848	877.655	669.352
263.336	15.838	876.958	668.719
264.351	15.692	876.129	667.448
265.366	15.865	875.630	667.698
266.380	15.942	875.033	667.490
267.395	15.861	874.596	666.777
268.409	15.768	873.807	665.745
269.424	15.825	872.875	665.204
270.439	15.834	872.128	664.608
271.453	15.937	871.376	664.385
272.468	15.758	870.768	663.157
273.482	15.798	869.905	662.600
274.497	15.819	869.361	662.209
275.512	15.785	868.996	661.739
276.526	15.728	868.142	660.805
277.541	15.768	867.444	660.370
278.555	15.980	866.866	660.706
279.570	15.966	866.385	660.226
280.585	15.951	865.974	659.794
281.599	16.031	865.387	659.604
282.614	16.058	864.582	659.038
283.628	15.986	864.173	658.383
284.643	15.963	863.592	657.795
285.657	16.006	863.194	657.600
286.672	16.044	862.521	657.178
287.687	16.100	861.714	656.723
288.701	15.934	861.705	656.009
289.716	15.990	861.045	655.667
290.730	15.916	860.411	654.840
291.745	16.080	859.837	654.983
292.760	16.009	858.975	653.993
293.774	16.130	858.552	654.082
294.789	16.178	858.156	653.906
295.803	16.185	857.036	653.024
296.818	16.166	856.603	652.563
297.833	16.009	856.053	651.479
298.847	16.165	855.097	651.295
299.862	16.151	854.624	650.825
300.876	16.167	853.709	650.130
301.891	16.345	852.864	650.115
302.906	16.394	852.147	649.701
303.920	16.465	851.547	649.457
304.935	16.323	851.358	648.710
305.949	16.486	850.518	648.638
306.964	16.558	850.109	648.546
307.979	16.468	849.338	647.555
308.993	16.364	849.426	647.168
310.008	16.517	848.648	647.104
311.022	16.391	848.058	646.112
312.037	16.494	847.473	646.005
313.052	16.308	846.976	644.859
314.066	16.310	845.984	644.051
315.081	16.286	845.757	643.730
316.095	16.305	844.870	643.072
317.110	16.452	844.208	643.071
318.125	16.324	843.784	642.205
319.139	16.333	843.521	641.981
320.154	16.384	843.043	641.754
321.168	16.360	842.475	641.174
322.183	16.463	841.623	640.859
323.197	16.584	841.452	641.131
324.212	16.459	840.586	639.942
325.227	16.506	840.040	639.646
326.241	16.531	839.673	639.405
327.256	16.409	839.340	638.634
328.270	16.554	838.470	638.462
329.285	16.558	837.919	638.001
330.300	16.411	837.348	636.957
331.314	16.482	836.928	636.849
332.329	16.479	836.431	636.403
333.343	16.621	835.513	636.180
334.358	16.692	835.029	636.024
335.373	16.677	834.606	635.589
336.387	16.686	833.858	634.997
337.402	16.733	833.396	634.764
338.416	16.775	832.559	634.228
339.431	16.851	832.180	634.170
340.446	16.940	831.752	634.118
341.460	16.884	831.181	633.419
342.475	16.939	830.744	633.233
343.489	16.870	830.396	632.654
344.504	16.878	830.029	632.351
345.519	17.025	829.210	632.218
346.533	17.008	828.637	631.660
347.548	16.967	828.313	631.205
348.562	17.016	827.649	630.827
349.577	16.869	827.237	629.911
350.592	16.902	826.448	629.375
351.606	16.858	826.166	628.942
352.621	16.868	825.548	628.452
353.635	16.809	825.384	628.053
354.650	17.028	824.484	628.126
355.665	16.882	824.652	627.656
356.679	16.835	824.110	627.013
357.694	16.893	823.179	626.466
358.708	16.969	822.694	626.322
359.723	16.867	822.749	625.930
360.738	17.036	821.614	625.637
361.752	17.005	821.377	625.285
362.767	17.086	820.733	625.039
363.781	17.210	820.203	625.035
364.796	17.062	819.827	624.149
365.810	17.259	819.425	624.513
366.825	17.279	819.402	624.512
367.840	17.331	818.658	624.081
368.854	17.350	818.449	623.935
369.869	17.356	817.962	623.532
370.883	17.306	817.374	622.844
371.898	17.394	816.371	622.347
372.913	17.226	816.005	621.398
373.927	17.420	815.640	621.775
374.942	17.358	814.971	620.983
375.956	17.429	813.896	620.368
376.971	17.343	813.985	620.068
377.986	17.595	812.982	620.167
379.000	17.475	812.681	619.447
380.015	17.535	812.326	619.337
381.029	17.569	811.290	618.616
382.044	17.464	811.150	618.073
383.059	17.644	810.539	618.205
384.073	17.597	809.976	617.551
385.088	17.565	809.527	617.039
386.102	17.473	808.789	616.089
387.117	17.410	808.663	615.709
388.132	17.442	807.875	615.172
389.146	17.591	807.102	615.069
390.161	17.534	806.700	614.500
391.175	17.592	806.864	614.781
392.190	17.601	806.722	614.651
393.205	17.669	805.856	614.182
394.219	17.504	805.186	613.024
395.234	17.596	804.657	612.898
396.248	17.589	804.116	612.404
397.263	17.368	803.731	611.262
398.278	17.548	803.330	611.551
399.292	17.540	802.641	610.943
400.307	17.338	802.633	610.159
401.321	17.500	802.071	610.257
402.336	17.527	801.582	609.929
403.350	17.457	801.621	609.652
404.365	17.555	801.149	609.592
405.380	17.756	800.400	609.686
406.394	17.663	800.011	609.002
407.409	17.907	799.660	609.555
408.423	17.826	799.136	608.811
409.438	17.841	798.813	608.564
410.453	17.985	798.151	608.522
411.467	18.070	797.524	608.292
412.482	18.055	797.358	608.057
413.496	17.941	796.947	607.284
414.511	18.236	796.169	607.684
415.526	18.071	796.437	607.250
416.540	17.985	795.742	606.361
417.555	18.140	795.187	606.434
418.569	18.059	794.544	605.605
419.584	18.072	794.281	605.395
420.599	18.071	794.090	605.194
421.613	153.232	1368.701	1790.081
422.628	132.588	1452.429	1790.211
