DTS Sentinel unit serial number:	SN413079Multiplexer serial number:	ORYXHardware model number:	OX4-SRSoftware version number:	ORYX F/W v4.00 Oryx Data Collector v3.7.2.0data status	okinstallation	princeton_trtdifferential loss correction	single-endedforward channel	channel 3reverse channel	N/Adate	2019/09/17time	22:36:34forward acquisition time	60.00reverse acquisition time	0.00gamma	496.2192k internal	0.2344k external	0.2344temperature offset calibration	0.9952default loss term (dB/km)	0.3790temperature slope calibration	1.0000multiplexer offset coefficient	1.0000multiplexer slope coefficient	1.0000fibre end	0.00T internal ref (°C)	25.19T ext. ref 1 (°C)	0.18T ext. ref 2 (°C)	18.49length (m)	temperature (°C)	Stokes	anti-Stokes-747.200	-0.408	0.124	0.088
-746.185	800.000	-0.038	-0.128
-745.171	-138.770	0.336	0.037
-744.156	800.000	-0.123	0.364
-743.142	-59.754	0.133	0.057
-742.127	-19.824	-0.162	0.100
-741.112	800.000	0.015	0.045
-740.098	139.403	-0.126	0.166
-739.083	-200.000	-0.000	0.286
-738.069	514.942	-0.054	0.126
-737.054	4.816	0.259	-0.190
-736.039	630.452	0.039	0.098
-735.025	46.119	-0.152	0.141
-734.010	-89.225	-0.113	0.033
-732.996	-113.897	0.216	-0.042
-731.981	-200.000	0.001	-0.296
-730.966	185.451	0.180	-0.267
-729.952	-54.821	-0.146	-0.066
-728.937	486.671	0.047	-0.108
-727.923	-200.000	-0.006	-0.056
-726.908	692.293	-0.165	-0.432
-725.894	338.442	0.175	-0.340
-724.879	-44.936	-0.247	0.123
-723.864	-62.049	-0.280	0.117
-722.850	142.908	-0.179	-0.238
-721.835	800.000	-0.053	-0.156
-720.821	-200.000	0.006	-0.089
-719.806	451.081	-0.173	-0.382
-718.791	-200.000	-0.001	-0.304
-717.777	198.289	0.038	-0.059
-716.762	507.744	-0.020	0.046
-715.748	-51.364	-0.241	-0.113
-714.733	-160.090	-0.304	0.017
-713.718	-105.110	-0.245	-0.056
-712.704	-102.315	-0.430	0.103
-711.689	-20.238	0.282	-0.174
-710.675	63.064	-0.092	-0.092
-709.660	-200.000	0.002	-0.266
-708.645	234.144	0.254	-0.418
-707.631	-189.993	-0.301	-0.003
-706.616	-152.805	0.147	0.010
-705.602	245.323	-0.048	0.081
-704.587	18.980	-0.299	-0.240
-703.572	-160.347	0.315	0.017
-702.558	271.723	0.036	0.064
-701.543	132.888	-0.083	-0.107
-700.529	192.155	-0.117	0.176
-699.514	-200.000	0.013	0.410
-698.499	81.696	-0.134	-0.145
-697.485	105.224	-0.053	0.063
-696.470	233.402	0.233	0.383
-695.456	-155.259	-0.388	0.025
-694.441	-200.000	-0.042	-0.269
-693.426	532.399	0.239	-0.566
-692.412	-101.041	-0.111	0.027
-691.397	20.218	-0.134	0.108
-690.383	-200.000	-0.020	-0.092
-689.368	266.005	-0.153	-0.267
-688.354	-107.382	-0.217	-0.048
-687.339	270.566	0.042	0.073
-686.324	-200.000	0.042	-0.228
-685.310	227.443	0.029	-0.048
-684.295	46.121	-0.135	0.125
-683.281	-200.000	0.042	-0.241
-682.266	96.331	-0.200	-0.228
-681.251	-54.226	-0.131	-0.059
-680.237	-152.806	-0.231	0.016
-679.222	-200.000	0.036	-0.395
-678.208	800.000	-0.044	0.141
-677.193	-200.000	0.022	-0.141
-676.178	-200.000	-0.040	0.182
-675.164	-86.695	0.154	-0.047
-674.149	-200.000	0.003	0.153
-673.135	65.849	0.201	0.203
-672.120	-111.241	-0.337	0.069
-671.105	169.007	0.179	-0.255
-670.091	-68.255	0.186	-0.072
-669.076	55.644	-0.107	-0.103
-668.062	-3.446	-0.171	0.119
-667.047	-33.643	-0.198	0.109
-666.032	86.366	0.273	-0.300
-665.018	106.500	0.086	-0.102
-664.003	269.335	-0.076	-0.133
-662.989	-139.371	0.370	0.040
-661.974	295.645	0.108	-0.197
-660.959	-60.871	-0.039	0.017
-659.945	686.193	-0.056	-0.147
-658.930	95.800	0.037	0.043
-657.916	-39.784	-0.272	-0.142
-656.901	-82.290	0.340	-0.110
-655.886	26.610	0.084	-0.070
-654.872	103.387	-0.116	0.136
-653.857	-47.121	0.067	0.033
-652.843	-141.271	0.038	0.004
-651.828	-200.000	-0.052	0.363
-650.814	800.000	-0.047	0.133
-649.799	-160.946	0.448	0.023
-648.784	-119.297	-0.488	-0.085
-647.770	-37.919	0.242	0.128
-646.755	184.188	0.047	-0.069
-645.741	99.565	0.075	0.087
-644.726	5.187	0.137	0.101
-643.711	52.748	0.102	-0.098
-642.697	-86.662	0.153	-0.047
-641.682	800.000	0.092	0.284
-640.668	-21.773	0.251	-0.152
-639.653	215.137	-0.072	0.113
-638.638	800.000	0.051	0.172
-637.624	671.151	-0.078	-0.202
-636.609	-1.052	-0.138	-0.097
-635.595	169.445	0.094	-0.133
-634.580	-200.000	-0.021	-0.327
-633.565	134.911	0.057	0.074
-632.551	-97.853	0.253	-0.065
-631.536	-85.618	-0.089	0.028
-630.522	-124.994	-0.082	0.013
-629.507	-200.000	0.000	-0.318
-628.492	125.221	-0.178	-0.223
-627.478	-58.154	-0.304	-0.132
-626.463	-6.573	0.038	0.026
-625.449	-116.784	-0.249	-0.045
-624.434	800.000	-0.056	-0.162
-623.419	-200.000	0.025	-0.153
-622.405	105.839	0.025	0.029
-621.390	-61.407	-0.251	0.105
-620.376	-200.000	-0.033	-0.302
-619.361	-176.051	-0.183	0.005
-618.346	236.667	-0.043	-0.072
-617.332	11.961	-0.061	-0.047
-616.317	386.599	0.031	0.064
-615.303	-71.901	0.129	0.048
-614.288	44.137	-0.261	0.238
-613.273	414.649	-0.105	-0.224
-612.259	-200.000	0.085	-0.402
-611.244	800.000	-0.026	0.083
-610.230	-9.998	0.216	0.143
-609.215	47.468	0.111	0.103
-608.201	-35.422	0.042	0.023
-607.186	-159.754	0.220	0.012
-606.171	-87.638	0.256	0.077
-605.157	265.976	0.025	-0.043
-604.142	-92.810	-0.455	0.127
-603.128	259.314	-0.152	0.262
-602.113	9.526	0.200	0.151
-601.098	273.944	0.075	-0.133
-600.084	321.273	-0.038	-0.073
-599.069	-200.000	0.018	-0.444
-598.055	-67.894	-0.505	-0.196
-597.040	-23.648	0.048	-0.029
-596.025	-148.345	-0.116	0.010
-595.011	44.072	-0.116	-0.105
-593.996	700.780	-0.051	0.134
-592.982	-178.449	-0.125	0.003
-591.967	-200.000	-0.026	0.206
-590.952	-195.500	0.171	0.001
-589.938	-60.922	0.078	0.033
-588.923	165.696	-0.024	-0.033
-587.909	-2.861	0.110	0.076
-586.894	260.325	0.177	-0.305
-585.879	-200.000	0.007	0.214
-584.865	21.568	-0.370	0.299
-583.850	-96.376	-0.200	0.053
-582.836	571.044	0.154	0.372
-581.821	354.313	0.063	0.125
-580.806	345.143	-0.039	-0.075
-579.792	-200.000	-0.001	-0.276
-578.777	626.971	-0.053	-0.133
-577.763	-86.880	0.056	-0.017
-576.748	-200.000	-0.025	-0.215
-575.733	170.371	0.021	0.030
-574.719	-36.019	0.241	0.130
-573.704	-200.000	-0.013	-0.464
-572.690	150.491	-0.234	-0.317
-571.675	209.248	-0.077	-0.119
-570.661	201.294	0.120	0.184
-569.646	345.049	-0.052	-0.101
-568.631	-200.000	-0.037	-0.288
-567.617	-69.245	0.092	-0.035
-566.602	-38.997	-0.147	0.077
-565.588	236.982	0.050	0.082
-564.573	-200.000	0.016	0.076
-563.558	-55.490	-0.170	-0.076
-562.544	-99.946	0.155	-0.038
-561.529	10.474	-0.214	0.162
-560.515	-44.111	-0.048	-0.024
-559.500	188.414	-0.152	0.226
-558.485	-131.558	-0.232	0.030
-557.471	-176.769	0.101	0.003
-556.456	-30.902	0.210	-0.118
-555.442	-142.688	-0.114	-0.011
-554.427	-84.573	0.268	-0.084
-553.412	-2.385	0.175	0.122
-552.398	-82.668	-0.240	0.077
-551.383	800.000	-0.110	-0.359
-550.369	-200.000	0.027	-0.253
-549.354	-127.496	-0.314	-0.045
-548.339	1.842	-0.176	-0.126
-547.325	-200.000	-0.015	0.153
-546.310	27.064	-0.085	-0.071
-545.296	296.716	0.170	-0.310
-544.281	-104.439	-0.083	0.019
-543.266	-157.934	0.306	-0.018
-542.252	-21.812	-0.073	-0.044
-541.237	-200.000	0.037	-0.350
-540.223	-100.856	-0.157	-0.038
-539.208	236.835	-0.087	-0.144
-538.193	-16.143	-0.147	-0.093
-537.179	-200.000	-0.024	0.186
-536.164	61.251	0.190	-0.188
-535.150	-71.235	-0.263	-0.098
-534.135	-67.668	-0.057	0.022
-533.121	-200.000	-0.046	0.254
-532.106	-27.413	-0.148	0.085
-531.091	-87.301	-0.145	0.044
-530.077	800.000	-0.094	-0.305
-529.062	206.020	-0.110	0.169
-528.048	-9.546	0.167	0.110
-527.033	372.887	-0.010	-0.020
-526.018	451.514	-0.075	-0.164
-525.004	-80.938	0.209	0.069
-523.989	-65.216	-0.126	0.050
-522.975	800.000	-0.063	0.193
-521.960	46.696	-0.259	-0.239
-520.945	25.806	0.079	-0.065
-519.931	-46.650	-0.091	0.044
-518.916	487.751	-0.071	-0.161
-517.902	76.940	-0.046	0.048
-516.887	331.345	-0.048	0.092
-515.872	-30.770	-0.218	0.123
-514.858	305.203	-0.064	-0.118
-513.843	63.367	0.155	-0.154
-512.829	139.182	0.052	0.067
-511.814	800.000	-0.020	0.068
-510.799	-200.000	-0.017	0.145
-509.785	800.000	0.036	0.100
-508.770	-100.814	-0.179	-0.044
-507.756	142.282	-0.044	0.058
-506.741	-200.000	0.026	-0.315
-505.726	2.585	0.048	0.034
-504.712	-143.304	0.244	0.023
-503.697	260.856	0.131	-0.225
-502.683	182.890	-0.217	0.317
-501.668	-200.000	-0.029	-0.222
-500.653	120.041	-0.069	-0.085
-499.639	753.669	-0.046	-0.123
-498.624	800.000	0.013	-0.053
-497.610	-29.647	-0.147	0.083
-496.595	-200.000	-0.018	0.234
-495.581	-70.657	-0.216	-0.081
-494.566	-42.481	-0.208	-0.105
-493.551	162.737	-0.137	0.191
-492.537	-200.000	-0.000	0.369
-491.522	216.830	-0.043	0.068
-490.508	151.760	-0.133	0.179
-489.493	-200.000	-0.053	0.246
-488.478	104.547	-0.188	-0.220
-487.464	20.137	0.094	0.076
-486.449	-200.000	-0.108	0.479
-485.435	800.000	0.067	-0.244
-484.420	-114.114	-0.451	-0.086
-483.405	-200.000	0.000	-0.092
-482.391	131.317	0.128	0.163
-481.376	-23.607	0.130	0.077
-480.362	25.006	0.232	0.191
-479.347	40.781	0.119	-0.106
-478.332	41.464	0.086	0.077
-477.318	140.336	-0.127	0.166
-476.303	-17.405	0.342	0.213
-475.289	-65.420	0.257	-0.102
-474.274	-200.000	-0.016	-0.132
-473.259	265.154	0.193	0.333
-472.245	8.715	-0.325	0.242
-471.230	-200.000	0.018	0.251
-470.216	413.036	-0.164	-0.345
-469.201	-7.278	-0.222	-0.149
-468.186	149.120	0.148	0.199
-467.172	-108.436	-0.338	0.072
-466.157	800.000	0.063	-0.267
-465.143	-200.000	-0.005	-0.081
-464.128	369.912	0.013	-0.025
-463.113	-43.409	0.295	-0.148
-462.099	-200.000	-0.032	-0.342
-461.084	-200.000	0.017	0.177
-460.070	406.625	-0.060	0.126
-459.055	-18.637	0.265	0.163
-458.040	-200.000	0.000	0.106
-457.026	-200.000	-0.017	0.111
-456.011	84.914	0.149	0.162
-454.997	-90.932	0.264	0.075
-453.982	-62.143	-0.202	0.083
-452.968	173.805	-0.070	-0.100
-451.953	182.128	-0.095	0.139
-450.938	104.844	0.046	0.053
-449.924	194.357	0.082	0.124
-448.909	169.974	0.233	0.329
-447.895	-200.000	-0.025	0.237
-446.880	128.706	0.167	0.210
-445.865	-171.965	0.271	-0.009
-444.851	-66.780	-0.204	0.080
-443.836	800.000	-0.080	0.317
-442.822	-132.752	-0.112	-0.014
-441.807	314.233	-0.081	0.151
-440.792	579.515	0.119	-0.287
-439.778	-84.245	0.014	0.004
-438.763	51.658	0.203	0.191
-437.749	404.190	-0.094	0.196
-436.734	-39.033	-0.025	0.013
-435.719	800.000	0.050	0.187
-434.705	-112.253	-0.264	-0.052
-433.690	5.513	0.184	0.134
-432.676	-200.000	-0.055	-0.264
-431.661	23.125	0.042	0.034
-430.646	-151.081	-0.087	0.006
-429.632	800.000	0.024	-0.098
-428.617	449.377	-0.184	0.400
-427.603	32.512	0.173	-0.148
-426.588	474.084	-0.037	0.083
-425.573	451.824	0.124	-0.271
-424.559	18.507	-0.350	-0.277
-423.544	-139.894	-0.479	-0.050
-422.530	-200.000	-0.005	-0.094
-421.515	-84.507	-0.107	0.033
-420.500	-14.020	0.141	-0.090
-419.486	65.629	-0.235	0.235
-418.471	-27.461	0.159	0.091
-417.457	33.791	0.193	-0.166
-416.442	-127.455	-0.295	0.042
-415.428	-38.881	0.091	-0.048
-414.413	-40.012	0.033	0.017
-413.398	800.000	-0.056	-0.169
-412.384	163.516	-0.241	0.335
-411.369	-200.000	-0.005	-0.290
-410.355	-200.000	-0.058	-0.332
-409.340	-29.542	0.283	-0.160
-408.325	6.409	0.137	0.100
-407.311	362.190	0.070	-0.140
-406.296	-200.000	-0.323	-0.000
-405.282	-200.000	0.037	-0.291
-404.267	-8.769	-0.168	0.112
-403.252	-14.709	-0.230	0.146
-402.238	-200.000	-0.033	0.170
-401.223	-200.000	-0.013	-0.214
-400.209	298.455	0.143	-0.260
-399.194	-85.675	-0.316	-0.097
-398.179	-200.000	-0.023	0.382
-397.165	-95.562	0.350	-0.093
-396.150	-94.524	-0.186	0.050
-395.136	-76.230	0.138	-0.048
-394.121	-68.561	0.213	0.081
-393.106	-40.193	-0.056	0.029
-392.092	-86.240	0.089	-0.027
-391.077	61.550	0.045	-0.044
-390.063	185.297	-0.049	0.072
-389.048	194.026	-0.090	-0.134
-388.033	150.859	0.205	-0.275
-387.019	6.014	-0.289	-0.211
-386.004	117.491	0.245	0.297
-384.990	-47.252	-0.128	-0.062
-383.975	-110.401	-0.178	-0.037
-382.960	232.665	0.100	0.163
-381.946	-200.000	0.024	0.231
-380.931	190.418	0.092	-0.137
-379.917	-8.795	-0.212	0.140
-378.902	46.244	-0.095	-0.087
-377.888	-61.891	0.153	-0.063
-376.873	-200.000	0.000	0.142
-375.858	-131.125	0.259	-0.034
-374.844	-152.290	0.210	-0.015
-373.829	-127.392	0.328	0.047
-372.815	-33.596	0.063	0.035
-371.800	109.288	-0.318	0.375
-370.785	-200.000	0.094	0.576
-369.771	-148.481	0.313	-0.025
-368.756	-118.013	-0.397	0.070
-367.742	-200.000	-0.018	-0.128
-366.727	-133.165	0.048	0.006
-365.712	148.999	-0.015	-0.020
-364.698	-72.044	0.214	-0.078
-363.683	-124.942	0.176	-0.027
-362.669	73.766	-0.128	-0.132
-361.654	-200.000	-0.049	-0.329
-360.639	-200.000	-0.046	-0.329
-359.625	800.000	0.022	0.087
-358.610	-120.547	-0.243	0.041
-357.596	135.018	-0.154	-0.197
-356.581	-128.808	0.055	-0.008
-355.566	-200.000	-0.014	-0.352
-354.552	-200.000	-0.003	0.128
-353.537	59.460	0.289	-0.281
-352.523	-200.000	0.039	-0.199
-351.508	64.236	-0.218	0.217
-350.493	87.808	-0.138	-0.151
-349.479	-70.449	0.075	-0.028
-348.464	-47.154	-0.047	0.023
-347.450	-44.508	-0.143	-0.070
-346.435	133.957	-0.053	-0.067
-345.420	33.427	0.135	-0.116
-344.406	-106.491	-0.420	-0.092
-343.391	-46.942	0.097	0.047
-342.377	22.704	0.180	0.145
-341.362	162.260	0.183	0.253
-340.348	800.000	0.039	-0.162
-339.333	-53.952	-0.046	0.021
-338.318	-200.000	0.034	-0.361
-337.304	800.000	-0.032	-0.121
-336.289	57.281	0.119	0.114
-335.275	88.486	-0.167	0.183
-334.260	-200.000	-0.026	0.315
-333.245	-200.000	0.020	-0.134
-332.231	34.602	-0.073	-0.063
-331.216	391.532	0.144	0.295
-330.202	150.611	0.160	0.214
-329.187	34.680	0.014	0.012
-328.172	-34.267	-0.204	0.110
-327.158	344.619	0.131	-0.252
-326.143	-41.265	0.128	0.065
-325.129	-200.000	0.012	-0.146
-324.114	-180.011	-0.242	0.005
-323.099	142.134	-0.145	0.190
-322.085	-172.493	-0.142	-0.004
-321.070	-200.000	0.067	-0.344
-320.056	-200.000	-0.021	0.367
-319.041	176.222	0.139	0.198
-318.026	-106.918	0.178	-0.039
-317.012	-154.464	0.118	0.008
-315.997	-1.881	-0.173	0.120
-314.983	-127.621	-0.193	0.027
-313.968	34.062	-0.224	0.192
-312.953	-28.396	-0.172	-0.098
-311.939	590.138	-0.016	-0.038
-310.924	-147.604	0.096	-0.008
-309.910	-73.594	-0.069	-0.025
-308.895	-96.186	0.315	0.082
-307.880	211.302	-0.107	-0.165
-306.866	-70.403	0.073	0.027
-305.851	250.731	0.035	0.058
-304.837	800.000	-0.053	-0.200
-303.822	800.000	0.071	-0.221
-302.807	-67.757	-0.156	-0.060
-301.793	-184.811	0.087	0.001
-300.778	-200.000	0.001	0.154
-299.764	396.262	-0.095	0.196
-298.749	-173.141	-0.420	0.013
-297.735	-200.000	0.012	-0.325
-296.720	150.762	-0.162	-0.217
-295.705	-99.630	0.353	-0.087
-294.691	-123.737	-0.258	-0.040
-293.676	-86.464	-0.205	0.062
-292.662	232.451	-0.118	-0.190
-291.647	-170.909	0.085	0.003
-290.632	-200.000	-0.009	0.165
-289.618	-99.065	0.138	0.034
-288.603	800.000	-0.042	0.124
-287.589	-2.935	0.030	0.021
-286.574	79.619	0.205	-0.217
-285.559	800.000	0.048	0.203
-284.545	-46.258	0.212	0.103
-283.530	-45.566	0.249	-0.121
-282.516	-191.453	-0.260	0.003
-281.501	105.500	0.062	0.073
-280.486	-111.404	0.248	-0.050
-279.472	-159.470	-0.177	0.010
-278.457	0.309	-0.143	-0.100
-277.443	-115.605	0.148	-0.027
-276.428	800.000	0.092	0.320
-275.413	-200.000	-0.309	0.001
-274.399	168.678	-0.353	0.494
-273.384	-200.000	0.020	-0.095
-272.370	-200.000	0.041	-0.197
-271.355	43.227	-0.138	0.124
-270.340	-16.085	0.169	0.106
-269.326	33.460	-0.041	0.035
-268.311	-165.641	0.283	0.012
-267.297	-103.209	-0.155	-0.036
-266.282	-200.000	0.019	-0.084
-265.267	3.455	0.178	0.128
-264.253	800.000	-0.085	0.365
-263.238	-200.000	-0.055	0.297
-262.224	426.709	-0.051	-0.109
-261.209	394.918	-0.080	0.163
-260.195	-100.369	0.044	-0.011
-259.180	173.454	0.084	0.119
-258.165	-48.372	-0.195	-0.092
-257.151	-75.677	-0.386	0.135
-256.136	-200.000	-0.037	-0.168
-255.122	-155.995	0.131	-0.008
-254.107	-171.773	-0.191	0.006
-253.092	183.226	0.085	0.124
-252.078	258.846	-0.211	0.356
-251.063	64.720	0.108	0.107
-250.049	-57.322	-0.224	-0.097
-249.034	-101.773	-0.126	-0.030
-248.019	28.348	0.051	-0.042
-247.005	725.899	0.119	0.312
-245.990	-81.303	-0.166	-0.054
-244.976	-200.000	-0.057	-0.433
-243.961	-101.809	-0.353	-0.084
-242.946	-145.930	0.294	0.026
-241.932	800.000	0.102	0.299
-240.917	-46.888	0.050	0.024
-239.903	-104.593	0.044	-0.010
-238.888	-59.623	0.177	0.074
-237.873	114.760	0.046	-0.055
-236.859	245.538	0.140	-0.231
-235.844	233.165	0.113	0.183
-234.830	-82.997	-0.123	-0.039
-233.815	-89.060	-0.261	-0.076
-232.800	114.637	-0.115	0.137
-231.786	-188.537	0.224	0.003
-230.771	-39.514	0.363	0.187
-229.757	12.123	-0.197	-0.149
-228.742	-104.754	-0.143	0.032
-227.727	800.000	-0.067	0.287
-226.713	314.032	0.181	-0.333
-225.698	800.000	0.047	-0.148
-224.684	-200.000	-0.005	-0.058
-223.669	-87.476	0.053	-0.016
-222.655	222.717	0.089	-0.141
-221.640	33.134	-0.227	-0.193
-220.625	283.820	0.171	-0.301
-219.611	-64.335	0.199	0.079
-218.596	800.000	0.078	-0.224
-217.582	-200.000	-0.082	-0.409
-216.567	-116.352	0.327	0.059
-215.552	-96.092	-0.058	-0.015
-214.538	-200.000	-0.015	0.191
-213.523	388.469	-0.045	-0.091
-212.509	-143.399	0.189	0.018
-211.494	-200.000	-0.024	0.353
-210.479	-62.772	0.229	0.093
-209.465	-200.000	-0.051	0.219
-208.450	-73.389	0.275	0.099
-207.436	-200.000	-0.003	-0.276
-206.421	-200.000	0.027	-0.196
-205.406	160.633	0.126	-0.173
-204.392	-200.000	-0.062	0.457
-203.377	345.505	0.150	-0.289
-202.363	-172.209	-0.296	-0.009
-201.348	-154.713	-0.067	-0.004
-200.333	-176.205	0.192	0.005
-199.319	-139.290	0.330	0.035
-198.304	-163.067	0.264	0.012
-197.290	-16.672	0.140	-0.087
-196.275	-57.694	0.238	-0.102
-195.260	191.747	-0.140	0.206
-194.246	-66.421	-0.203	-0.079
-193.231	-45.932	0.316	0.153
-192.217	122.897	-0.138	0.169
-191.202	10.351	0.057	-0.043
-190.187	-67.299	0.145	0.056
-189.173	-200.000	-0.000	0.119
-188.158	54.961	0.138	-0.130
-187.144	-75.092	0.155	0.054
-186.129	-200.000	0.045	-0.247
-185.114	16.382	0.098	-0.076
-184.100	-200.000	0.012	-0.255
-183.085	-74.326	0.163	0.058
-182.071	800.000	-0.099	-0.391
-181.056	195.899	0.073	0.108
-180.042	-152.990	0.290	-0.020
-179.027	-30.261	0.205	-0.114
-178.012	-104.637	0.383	-0.086
-176.998	571.131	-0.070	0.166
-175.983	-8.856	0.294	-0.193
-174.969	800.000	0.086	-0.235
-173.954	-31.617	0.065	0.035
-172.939	332.120	0.210	0.396
-171.925	104.379	0.076	0.088
-170.910	-200.000	0.033	-0.161
-169.896	-35.809	-0.031	0.016
-168.881	270.788	-0.035	0.061
-167.866	70.209	-0.098	-0.099
-166.852	21.720	0.217	0.173
-165.837	-65.151	0.214	0.085
-164.823	-200.000	0.064	0.280
-163.808	-200.000	0.035	0.183
-162.793	-95.506	0.360	0.094
-161.779	374.130	0.202	-0.402
-160.764	240.255	-0.137	0.224
-159.750	22.939	-0.371	0.298
-158.735	57.864	0.227	-0.217
-157.720	12.571	-0.167	0.126
-156.706	800.000	-0.061	0.171
-155.691	-4.511	0.224	0.151
-154.677	309.606	0.210	-0.385
-153.662	-200.000	-0.050	-0.280
-152.647	322.291	-0.079	0.147
-151.633	-200.000	0.022	0.381
-150.618	-64.900	0.060	-0.024
-149.604	800.000	0.067	-0.235
-148.589	-78.357	-0.068	-0.023
-147.574	-60.754	0.083	-0.034
-146.560	318.298	0.064	0.118
-145.545	-200.000	-0.033	0.214
-144.531	330.504	0.096	0.181
-143.516	-143.284	-0.064	-0.006
-142.502	-78.210	-0.062	0.021
-141.487	-116.308	-0.406	-0.074
-140.472	126.845	-0.359	0.445
-139.458	-86.393	-0.268	-0.081
-138.443	800.000	-0.036	-0.151
-137.429	115.180	-0.062	0.074
-136.414	295.204	0.135	-0.242
-135.399	81.578	-0.187	-0.197
-134.385	105.513	-0.042	0.048
-133.370	89.055	0.157	0.170
-132.356	-18.174	-0.186	-0.114
-131.341	-200.000	0.003	-0.081
-130.326	484.936	0.147	0.326
-129.312	-38.378	0.114	-0.059
-128.297	179.179	-0.092	-0.131
-127.283	50.559	-0.123	0.113
-126.268	-114.560	-0.253	-0.047
-125.253	159.931	0.058	-0.079
-124.239	-200.000	-0.002	-0.246
-123.224	-143.872	0.367	-0.034
-122.210	138.109	0.016	-0.020
-121.195	270.160	-0.114	-0.196
-120.180	-73.657	0.219	0.078
-119.166	291.506	0.253	-0.450
-118.151	190.314	-0.159	0.233
-117.137	223.366	0.100	-0.157
-116.122	-153.236	-0.348	0.024
-115.107	-16.420	0.151	-0.094
-114.093	120.769	-0.090	-0.109
-113.078	476.337	0.114	0.251
-112.064	-96.952	-0.191	0.049
-111.049	484.516	-0.123	0.273
-110.034	-29.627	0.089	-0.050
-109.020	40.898	0.212	0.187
-108.005	583.247	-0.132	0.315
-106.991	297.836	-0.097	0.173
-105.976	800.000	-0.131	0.402
-104.962	303.061	-0.124	-0.224
-103.947	167.957	-0.212	-0.294
-102.932	800.000	0.127	-0.411
-101.918	-195.783	0.288	-0.002
-100.903	-54.828	-0.120	0.053
-99.889	355.824	-0.006	-0.011
-98.874	-153.559	-0.302	0.020
-97.859	-37.566	-0.482	0.251
-96.845	-150.214	0.248	0.019
-95.830	-19.224	-0.243	-0.147
-94.816	-108.855	-0.284	0.059
-93.801	49.818	-0.082	0.076
-92.786	-110.051	0.288	-0.059
-91.772	3.284	-0.248	0.176
-90.757	-31.841	0.313	-0.171
-89.743	330.807	-0.055	0.103
-88.728	-44.043	-0.234	0.115
-87.713	259.903	-0.053	0.090
-86.699	-164.079	0.499	0.023
-85.684	75.753	0.166	-0.171
-84.670	-73.786	0.227	-0.081
-83.655	-185.853	-0.351	0.005
-82.640	279.832	0.259	0.451
-81.626	800.000	-0.081	0.254
-80.611	8.019	-0.161	0.117
-79.597	82.742	-0.026	0.028
-78.582	-123.700	-0.177	0.027
-77.567	-31.592	0.114	-0.062
-76.553	63.502	-0.046	0.045
-75.538	128.229	-0.017	-0.021
-74.524	193.688	0.171	-0.252
-73.509	145.020	-0.232	-0.303
-72.494	-200.000	0.035	0.304
-71.480	-56.355	-0.295	-0.128
-70.465	-200.000	-0.011	-0.180
-69.451	20.839	0.158	0.125
-68.436	-84.531	0.149	0.046
-67.422	-200.000	-0.027	-0.176
-66.407	100.992	0.023	0.026
-65.392	130.561	-0.063	-0.079
-64.378	-200.000	0.000	0.243
-63.363	467.617	0.103	0.226
-62.349	-200.000	-0.001	0.088
-61.334	230.386	-1.018	-1.622
-60.319	198.279	0.504	0.751
-59.305	146.578	-0.623	-0.816
-58.290	165.094	0.744	1.024
-57.276	800.000	0.354	1.381
-56.261	-200.000	119.261	611.166
-55.246	408.998	1531.852	3159.402
-54.232	149.156	2678.423	3530.746
-53.217	96.776	2148.437	2397.921
-52.203	35.167	1675.760	1430.531
-51.188	28.261	1493.918	1229.077
-50.173	26.203	1470.358	1196.031
-49.159	47.081	1537.500	1393.329
-48.144	45.514	1551.895	1395.644
-47.130	28.246	1502.805	1236.092
-46.115	25.413	1486.983	1204.074
-45.100	25.298	1483.254	1200.237
-44.086	25.261	1481.759	1198.730
-43.071	25.148	1479.534	1196.127
-42.057	25.240	1477.836	1195.321
-41.042	25.150	1476.571	1193.651
-40.027	25.142	1474.994	1192.276
-39.013	25.145	1473.654	1191.164
-37.998	25.185	1472.505	1190.454
-36.984	25.176	1471.812	1189.787
-35.969	25.199	1470.020	1188.444
-34.954	25.187	1468.522	1187.110
-33.940	25.104	1467.607	1185.773
-32.925	25.184	1466.250	1185.159
-31.911	25.241	1464.589	1184.146
-30.896	25.185	1463.823	1183.105
-29.881	25.219	1462.386	1182.122
-28.867	25.201	1461.443	1181.197
-27.852	25.223	1459.661	1179.857
-26.838	25.103	1458.844	1178.361
-25.823	25.253	1456.668	1177.539
-24.809	25.191	1455.195	1175.892
-23.794	25.198	1454.126	1175.028
-22.779	25.216	1452.245	1173.580
-21.765	25.127	1452.018	1172.770
-20.750	25.277	1450.188	1172.224
-19.736	25.216	1449.209	1170.987
-18.721	25.238	1448.422	1170.450
-17.706	25.214	1446.997	1169.095
-16.692	25.242	1446.389	1168.739
-15.677	25.237	1445.650	1168.060
-14.663	25.235	1444.400	1166.994
-13.648	25.164	1443.683	1165.906
-12.633	25.120	1442.690	1164.775
-11.619	25.141	1441.787	1164.131
-10.604	25.155	1441.168	1163.680
-9.590	25.209	1440.000	1163.040
-8.575	25.165	1439.635	1162.416
-7.560	25.222	1438.120	1161.515
-6.546	25.180	1437.284	1160.522
-5.531	25.241	1436.341	1160.110
-4.517	25.193	1435.972	1159.455
-3.502	25.106	1434.640	1157.767
-2.487	25.306	1432.966	1157.659
-1.473	25.194	1432.504	1156.521
-0.458	25.250	1431.552	1156.064
0.556	23.485	1421.406	1143.812
1.571	20.148	1397.441	1103.232
2.586	16.540	1336.290	1032.863
3.600	14.850	1253.727	959.272
4.615	13.805	1210.665	920.447
5.629	12.031	1155.172	868.783
6.644	6.102	1074.786	778.941
7.659	1.140	1038.282	728.614
8.673	0.355	1033.215	721.242
9.688	0.113	1030.177	717.899
10.702	0.119	1028.825	716.922
11.717	0.144	1026.833	715.591
12.731	2.237	1027.715	726.093
13.746	8.685	1036.043	762.718
14.761	14.865	1044.485	798.466
15.775	16.800	1046.217	808.968
16.790	16.559	1044.316	806.277
17.804	15.519	1042.487	799.843
18.819	14.645	1040.564	794.142
19.834	14.183	1039.669	791.189
20.848	13.899	1038.303	788.732
21.863	13.698	1038.065	787.527
22.877	13.503	1036.983	785.714
23.892	13.323	1035.823	783.908
24.907	13.072	1035.628	782.503
25.921	13.159	1034.458	781.964
26.936	13.203	1034.058	781.798
27.950	13.366	1033.143	781.808
28.965	13.369	1032.444	781.225
29.980	13.372	1031.753	780.645
30.994	13.358	1030.894	779.863
32.009	13.393	1029.944	779.241
33.023	13.460	1029.383	779.062
34.038	13.497	1028.395	778.418
35.053	13.434	1027.726	777.544
36.067	13.376	1026.796	776.500
37.082	13.268	1026.031	775.349
38.096	13.431	1025.081	775.326
39.111	13.387	1024.700	774.762
40.126	13.495	1023.521	774.309
41.140	13.378	1022.334	772.796
42.155	13.182	1021.671	771.309
43.169	13.193	1020.920	770.727
44.184	13.273	1020.062	770.385
45.199	13.294	1018.435	769.183
46.213	13.306	1017.655	768.585
47.228	13.189	1017.342	767.735
48.242	13.273	1016.100	767.118
49.257	13.238	1015.334	766.310
50.271	13.300	1014.544	765.935
51.286	13.317	1013.250	764.967
52.301	13.330	1012.319	764.256
53.315	13.379	1011.880	764.086
54.330	13.222	1011.144	762.738
55.344	13.347	1009.831	762.255
56.359	13.251	1008.885	761.033
57.374	13.304	1008.102	760.619
58.388	13.250	1007.727	760.021
59.403	13.235	1006.604	759.037
60.417	13.220	1005.600	758.144
61.432	13.119	1005.483	757.523
62.447	13.253	1004.135	757.056
63.461	13.237	1003.669	756.564
64.476	13.162	1002.734	755.447
65.490	13.253	1001.820	755.111
66.505	13.231	1001.092	754.392
67.520	13.329	1000.061	753.998
68.534	13.191	999.662	753.000
69.549	13.180	999.075	752.440
70.563	13.287	998.058	752.094
71.578	13.337	997.376	751.744
72.593	13.175	996.651	750.396
73.607	13.127	995.505	749.245
74.622	13.253	994.481	748.980
75.636	13.153	993.659	747.844
76.651	13.194	992.870	747.369
77.666	13.069	992.676	746.591
78.680	13.280	991.343	746.476
79.695	13.264	991.071	746.133
80.709	13.120	990.777	745.197
81.724	13.224	989.479	744.621
82.739	13.294	988.757	744.326
83.753	13.375	988.172	744.185
84.768	13.302	987.683	743.423
85.782	13.486	986.720	743.459
86.797	13.494	985.952	742.853
87.812	13.492	984.608	741.764
88.826	13.222	984.303	740.259
89.841	13.263	983.819	740.014
90.855	13.332	982.732	739.439
91.870	13.366	982.145	739.080
92.884	13.485	981.129	738.784
93.899	13.513	980.373	738.274
94.914	13.478	979.730	737.570
95.928	13.539	979.150	737.339
96.943	13.645	978.248	737.063
97.957	13.470	977.826	735.904
98.972	13.410	977.163	735.071
99.987	13.432	976.304	734.459
101.001	13.382	975.911	733.876
102.016	13.383	974.791	732.972
103.030	13.400	973.880	732.301
104.045	13.496	972.771	731.825
105.060	13.472	971.635	730.800
106.074	13.467	971.116	730.323
107.089	13.342	970.488	729.236
108.103	13.334	969.365	728.290
109.118	13.261	968.607	727.335
110.133	13.293	967.619	726.672
111.147	13.279	966.814	725.940
112.162	13.191	966.222	725.044
113.176	13.269	965.257	724.598
114.191	13.428	964.238	724.467
115.206	13.358	963.697	723.691
116.220	13.384	962.921	723.156
117.235	13.222	962.356	721.959
118.249	13.343	961.062	721.454
119.264	13.395	960.380	721.106
120.279	13.373	959.368	720.186
121.293	13.258	959.054	719.384
122.308	13.454	957.753	719.195
123.322	13.299	957.304	718.123
124.337	13.295	956.458	717.410
125.352	13.295	955.142	716.356
126.366	13.319	953.892	715.460
127.381	13.389	952.815	714.893
128.395	13.312	951.731	713.682
129.410	13.406	950.914	713.414
130.424	13.227	950.278	712.103
131.439	13.227	949.450	711.419
132.454	13.316	948.104	710.728
133.468	13.460	947.621	710.922
134.483	13.331	947.181	709.974
135.497	13.543	946.249	710.121
136.512	13.378	945.364	708.690
137.527	13.408	944.837	708.360
138.541	13.467	943.880	707.833
139.556	13.308	943.576	706.863
140.570	13.398	942.556	706.421
141.585	13.355	941.591	705.452
142.600	13.417	941.099	705.284
143.614	13.565	940.170	705.154
144.629	13.550	939.876	704.810
145.643	13.571	938.866	704.077
146.658	13.497	938.386	703.341
147.673	13.570	936.769	702.377
148.687	13.503	936.175	701.587
149.702	13.464	935.300	700.701
150.716	13.442	934.614	700.034
151.731	13.404	933.837	699.231
152.746	13.432	933.119	698.746
153.760	13.457	932.229	698.124
154.775	13.444	931.373	697.367
155.789	13.591	930.614	697.355
156.804	13.509	930.388	696.779
157.819	13.556	929.328	696.120
158.833	13.693	928.428	695.963
159.848	13.715	928.011	695.678
160.862	13.677	927.735	695.251
161.877	13.591	926.621	693.996
162.892	13.688	925.677	693.634
163.906	13.639	924.859	692.753
164.921	13.542	924.335	691.893
165.935	13.489	923.230	690.786
166.950	13.620	922.162	690.472
167.964	13.727	921.035	690.011
168.979	13.621	920.330	688.980
169.994	13.671	919.207	688.285
171.008	13.845	918.620	688.507
172.023	13.775	917.753	687.508
173.037	13.804	916.583	686.691
174.052	13.786	916.390	686.411
175.067	13.788	915.363	685.589
176.081	13.826	914.914	685.347
177.096	13.744	914.086	684.331
178.110	13.713	913.273	683.531
179.125	13.699	912.725	683.002
180.140	13.753	911.731	682.421
181.154	13.769	911.011	681.888
182.169	13.788	910.518	681.535
183.183	13.784	909.469	680.675
184.198	13.841	908.864	680.395
185.213	13.972	908.087	680.292
186.227	13.942	907.657	679.785
187.242	13.988	907.065	679.469
188.256	13.965	906.759	679.085
189.271	14.010	905.604	678.346
190.286	14.018	905.342	678.121
191.300	13.800	904.333	676.417
192.315	13.828	903.392	675.767
193.329	13.843	902.927	675.419
194.344	13.783	902.351	674.685
195.359	13.814	901.815	674.352
196.373	13.986	901.233	674.556
197.388	13.864	901.226	673.995
198.402	13.990	900.232	673.705
199.417	14.148	899.880	674.019
200.432	14.149	899.118	673.394
201.446	14.051	899.109	672.931
202.461	14.221	898.564	673.151
203.475	14.101	898.321	672.425
204.490	14.195	897.346	672.015
205.504	14.332	895.963	671.473
206.519	14.030	895.616	669.938
207.534	14.092	895.222	669.833
208.548	14.172	894.173	669.308
209.563	14.195	893.496	668.836
210.577	14.194	892.762	668.222
211.592	14.102	892.507	667.605
212.607	14.197	891.603	667.250
213.621	14.389	890.979	667.492
214.636	14.210	889.944	665.942
215.650	14.268	889.702	665.935
216.665	14.205	889.310	665.330
217.680	14.351	888.552	665.285
218.694	14.388	888.307	665.192
219.709	14.385	887.665	664.639
220.723	14.366	887.322	664.251
221.738	14.379	886.418	663.566
222.753	14.300	885.590	662.571
223.767	14.404	884.912	662.421
224.782	14.419	884.077	661.795
225.796	14.624	883.111	661.826
226.811	14.458	882.923	660.972
227.826	14.418	882.097	660.134
228.840	14.528	881.424	660.008
229.855	14.447	880.940	659.266
230.869	14.538	880.035	658.892
231.884	14.608	879.327	658.580
232.899	14.481	878.550	657.439
233.913	14.358	878.040	656.514
234.928	14.509	877.398	656.570
235.942	14.563	876.650	656.163
236.957	14.552	875.825	655.444
237.972	14.425	875.338	654.523
238.986	14.426	874.880	654.129
240.001	14.374	874.340	653.461
241.015	14.400	873.817	653.117
242.030	14.520	873.294	653.138
243.045	14.682	871.989	652.737
244.059	14.629	871.744	652.287
245.074	14.672	871.277	652.047
246.088	14.595	870.476	651.090
247.103	14.772	869.716	651.153
248.117	14.653	869.549	650.509
249.132	14.761	868.624	650.177
250.147	14.848	867.897	649.918
251.161	14.882	867.227	649.488
252.176	14.870	866.846	649.097
253.190	14.921	866.354	648.873
254.205	15.077	865.210	648.563
255.220	15.105	864.803	648.306
256.234	15.147	863.821	647.676
257.249	15.021	863.584	646.953
258.263	14.914	863.060	646.093
259.278	15.027	862.560	646.095
260.293	14.990	862.111	645.560
261.307	15.045	861.612	645.341
262.322	15.194	860.723	645.190
263.336	15.098	860.110	644.308
264.351	15.262	859.520	644.438
265.366	15.207	859.065	643.827
266.380	15.212	858.416	643.303
267.395	15.259	857.746	642.924
268.409	15.161	857.059	641.980
269.424	15.123	856.231	641.156
270.439	15.198	855.878	641.119
271.453	15.265	854.613	640.373
272.468	15.154	854.171	639.561
273.482	15.180	853.489	639.093
274.497	15.157	853.316	638.820
275.512	15.308	852.249	638.539
276.526	15.301	851.634	637.995
277.541	15.355	850.765	637.492
278.555	15.277	850.296	636.790
279.570	15.261	849.906	636.381
280.585	15.348	849.498	636.347
281.599	15.272	849.081	635.690
282.614	15.469	847.868	635.472
283.628	15.297	847.689	634.632
284.643	15.432	847.267	634.769
285.657	15.511	846.349	634.323
286.672	15.500	846.118	634.055
287.687	15.421	845.806	633.466
288.701	15.499	845.139	633.203
289.716	15.576	844.347	632.844
290.730	15.527	844.000	632.344
291.745	15.517	843.231	631.674
292.760	15.652	842.405	631.507
293.774	15.543	842.486	631.101
294.789	15.686	841.620	630.934
295.803	15.784	840.795	630.626
296.818	15.558	840.547	629.537
297.833	15.555	839.712	628.847
298.847	15.477	839.304	628.193
299.862	15.720	837.989	628.063
300.876	15.666	837.671	627.565
301.891	15.576	837.206	626.826
302.906	15.572	836.877	626.508
303.920	15.682	835.882	626.119
304.935	15.823	835.127	626.023
305.949	15.753	834.552	625.276
306.964	15.948	833.926	625.477
307.979	15.794	833.459	624.498
308.993	15.898	832.959	624.455
310.008	15.926	832.540	624.189
311.022	15.837	832.341	623.655
312.037	15.931	831.593	623.387
313.052	15.867	831.060	622.694
314.066	15.822	830.489	622.048
315.081	15.752	829.844	621.250
316.095	15.819	829.342	621.067
317.110	15.888	828.664	620.759
318.125	15.907	828.193	620.421
319.139	15.773	827.832	619.602
320.154	15.874	827.310	619.527
321.168	15.843	826.553	618.791
322.183	15.995	825.497	618.502
323.197	15.884	825.869	618.322
324.212	15.866	825.258	617.741
325.227	16.021	824.378	617.598
326.241	15.985	823.952	617.092
327.256	15.998	823.123	616.464
328.270	15.927	822.785	615.897
329.285	16.045	822.292	615.905
330.300	16.106	821.661	615.600
331.314	15.935	821.125	614.519
332.329	16.064	820.452	614.433
333.343	16.120	819.624	613.962
334.358	16.095	818.936	613.301
335.373	16.078	818.776	613.065
336.387	16.154	818.374	612.986
337.402	16.163	817.699	612.460
338.416	16.132	817.624	612.236
339.431	16.264	816.838	612.073
340.446	16.352	815.778	611.541
341.460	16.456	815.110	611.365
342.475	16.336	814.899	610.718
343.489	16.291	814.185	609.964
344.504	16.461	813.665	610.137
345.519	16.374	813.237	609.447
346.533	16.513	812.577	609.398
347.548	16.464	812.241	608.918
348.562	16.486	811.823	608.627
349.577	16.382	811.553	607.998
350.592	16.478	810.613	607.585
351.606	16.377	810.082	606.772
352.621	16.208	810.301	606.275
353.635	16.385	809.481	606.243
354.650	16.267	809.213	605.564
355.665	16.583	808.472	606.090
356.679	16.498	808.190	605.520
357.694	16.421	807.807	604.902
358.708	16.596	806.870	604.773
359.723	16.552	806.614	604.369
360.738	16.515	806.594	604.171
361.752	16.353	806.112	603.178
362.767	16.572	805.258	603.267
363.781	16.542	804.599	602.611
364.796	16.738	804.068	602.858
365.810	16.768	803.399	602.410
366.825	16.730	803.283	602.134
367.840	16.734	803.435	602.211
368.854	16.823	802.722	601.937
369.869	16.938	801.938	601.704
370.883	16.734	801.401	600.524
371.898	16.811	801.224	600.613
372.913	16.855	800.273	600.002
373.927	16.835	799.661	599.420
374.942	16.848	799.367	599.192
375.956	16.873	798.776	598.785
376.971	16.878	798.129	598.263
377.986	16.977	797.564	598.138
379.000	17.010	797.143	597.883
380.015	16.880	796.650	597.006
381.029	17.106	796.071	597.313
382.044	17.013	795.735	596.679
383.059	16.979	795.261	596.153
384.073	17.075	794.671	595.997
385.088	17.079	793.854	595.342
386.102	16.861	793.389	594.177
387.117	16.915	792.997	594.022
388.132	17.054	792.219	593.870
389.146	17.077	792.244	593.920
390.161	17.005	791.929	593.377
391.175	17.053	791.222	592.963
392.190	17.115	791.094	593.030
393.205	17.132	790.636	592.695
394.219	17.031	790.158	591.933
395.234	17.016	789.848	591.596
396.248	17.116	789.322	591.496
397.263	16.996	788.876	590.694
398.278	17.161	788.218	590.722
399.292	17.155	787.619	590.201
400.307	17.226	787.168	590.057
401.321	17.076	787.210	589.513
402.336	17.094	786.944	589.325
403.350	17.093	786.185	588.701
404.365	17.178	785.813	588.667
405.380	17.253	785.214	588.424
406.394	17.047	785.248	587.685
407.409	17.283	784.587	587.954
408.423	17.374	783.721	587.566
409.438	17.374	783.290	587.193
410.453	17.360	783.452	587.213
411.467	17.532	782.406	586.970
412.482	17.608	782.055	586.917
413.496	17.564	781.555	586.338
414.511	17.495	781.345	585.891
415.526	17.616	780.735	585.800
416.540	17.443	780.692	585.118
417.555	17.518	780.169	584.934
418.569	17.485	779.928	584.586
419.584	17.507	779.255	584.109
420.599	17.609	778.766	584.039
421.613	113.724	1294.983	1483.882
422.628	97.462	1370.161	1483.975
