DTS Sentinel unit serial number:	SN413079Multiplexer serial number:	ORYXHardware model number:	OX4-SRSoftware version number:	ORYX F/W v4.00 Oryx Data Collector v3.7.2.0data status	okinstallation	princeton_trtdifferential loss correction	single-endedforward channel	channel 3reverse channel	N/Adate	2019/09/13time	14:08:34forward acquisition time	60.00reverse acquisition time	0.00gamma	496.2192k internal	0.2302k external	0.2302temperature offset calibration	1.0149default loss term (dB/km)	0.3790temperature slope calibration	1.0000multiplexer offset coefficient	1.0000multiplexer slope coefficient	1.0000fibre end	0.00T internal ref (°C)	35.27T ext. ref 1 (°C)	4.60T ext. ref 2 (°C)	30.52length (m)	temperature (°C)	Stokes	anti-Stokes-747.200	-32.842	-0.028	0.016
-746.185	-159.155	-0.230	-0.013
-745.171	-54.588	0.042	-0.019
-744.156	211.580	0.189	0.303
-743.142	-200.000	0.001	0.287
-742.127	130.512	0.254	0.332
-741.112	13.741	0.091	0.072
-740.098	-200.000	0.162	0.742
-739.083	-147.107	-0.352	-0.031
-738.069	-200.000	0.030	0.219
-737.054	354.172	0.110	-0.223
-736.039	-200.000	0.020	-0.096
-735.025	-200.000	-0.048	0.328
-734.010	-200.000	-0.038	0.429
-732.996	206.326	0.167	-0.265
-731.981	778.531	0.075	-0.207
-730.966	-200.000	-0.010	0.284
-729.952	-96.470	-0.286	0.077
-728.937	296.533	-0.129	0.241
-727.923	426.285	0.118	-0.259
-726.908	563.194	0.129	-0.317
-725.894	800.000	-0.086	-0.247
-724.879	-200.000	0.049	-0.230
-723.864	94.830	0.058	0.068
-722.850	-125.297	-0.116	0.018
-721.835	576.857	-0.056	0.139
-720.821	-35.129	0.269	-0.149
-719.806	-39.275	-0.216	0.116
-718.791	443.156	0.063	-0.141
-717.777	-98.788	-0.143	-0.037
-716.762	-200.000	-0.109	-0.000
-715.748	68.362	-0.238	-0.249
-714.733	-116.107	-0.087	-0.016
-713.718	23.178	-0.193	-0.161
-712.704	-109.314	-0.165	0.036
-711.689	800.000	0.045	-0.136
-710.675	-18.310	0.186	0.118
-709.660	-40.060	0.203	-0.108
-708.645	445.023	0.037	-0.083
-707.631	-200.000	0.022	0.115
-706.616	166.522	0.188	-0.271
-705.602	-111.864	0.072	0.015
-704.587	210.561	-0.146	-0.234
-703.572	-90.612	-0.013	-0.004
-702.558	-129.502	-0.219	-0.031
-701.543	-38.031	-0.053	0.029
-700.529	800.000	0.130	-0.388
-699.514	800.000	0.094	0.338
-698.499	72.513	0.063	0.067
-697.485	800.000	0.057	-0.188
-696.470	-64.443	-0.206	0.085
-695.456	-191.686	-0.179	-0.002
-694.441	-44.083	-0.294	0.150
-693.426	-121.384	0.172	0.029
-692.412	-127.340	-0.123	0.018
-691.397	-40.769	-0.071	-0.038
-690.383	-67.066	-0.239	0.096
-689.368	192.797	-0.040	-0.061
-688.354	-14.409	-0.126	-0.082
-687.339	800.000	0.070	-0.278
-686.324	134.708	-0.054	-0.072
-685.310	-200.000	-0.039	-0.249
-684.295	-135.049	-0.377	-0.046
-683.281	-130.437	-0.167	0.023
-682.266	-132.843	-0.268	0.035
-681.251	-200.000	0.021	-0.099
-680.237	-200.000	-0.037	-0.255
-679.222	232.281	-0.142	-0.236
-678.208	-200.000	0.055	-0.247
-677.193	-16.564	0.062	-0.040
-676.178	305.029	-0.031	-0.059
-675.164	150.672	0.160	0.220
-674.149	626.352	-0.106	0.271
-673.135	520.425	0.053	-0.127
-672.120	4.252	0.132	0.098
-671.105	-11.599	0.027	-0.018
-670.091	-64.498	-0.247	0.102
-669.076	-110.658	-0.228	0.048
-668.062	-2.176	0.069	-0.049
-667.047	-93.807	0.128	0.036
-666.032	284.292	0.164	-0.300
-665.018	10.312	-0.229	0.177
-664.003	-87.562	-0.147	-0.045
-662.989	800.000	0.032	0.137
-661.974	800.000	-0.125	-0.399
-660.959	-64.817	0.098	0.040
-659.945	-84.091	0.139	0.045
-658.930	-200.000	-0.030	-0.243
-657.916	-154.090	-0.365	-0.025
-656.901	281.123	-0.189	0.343
-655.886	231.162	-0.127	-0.212
-654.872	-85.815	-0.096	-0.030
-653.857	800.000	0.053	-0.195
-652.843	97.456	0.150	0.175
-651.828	26.319	0.083	-0.070
-650.814	195.557	0.306	-0.472
-649.799	-200.000	-0.014	0.108
-648.784	-200.000	0.008	0.086
-647.770	-200.000	0.062	0.439
-646.755	-200.000	0.056	-0.456
-645.741	-93.409	0.297	-0.084
-644.726	143.691	-0.043	0.059
-643.711	9.914	-0.032	-0.024
-642.697	800.000	-0.021	0.079
-641.682	800.000	0.090	-0.273
-640.668	-39.618	-0.303	0.161
-639.653	-63.610	-0.328	0.137
-638.638	167.022	0.103	0.149
-637.624	50.447	-0.140	-0.134
-636.609	800.000	-0.069	0.283
-635.595	-155.226	0.255	-0.017
-634.580	-34.234	-0.103	-0.058
-633.565	80.224	0.202	-0.221
-632.551	172.756	-0.115	0.168
-631.536	24.845	0.304	0.256
-630.522	-171.347	0.366	0.012
-629.507	-17.316	0.059	-0.037
-628.492	-200.000	0.016	0.101
-627.478	108.823	0.094	-0.114
-626.463	-77.664	0.086	-0.030
-625.449	647.796	0.050	-0.131
-624.434	-21.044	-0.012	-0.007
-623.419	56.659	-0.269	-0.265
-622.405	-74.545	-0.105	0.038
-621.390	-199.322	0.092	0.000
-620.376	-64.430	-0.191	-0.079
-619.361	-139.055	0.108	0.012
-618.346	158.283	-0.038	0.054
-617.332	-127.651	-0.144	0.021
-616.317	-127.647	0.358	0.053
-615.303	-200.000	-0.065	0.440
-614.288	-200.000	-0.025	-0.124
-613.273	283.098	0.065	0.118
-612.259	44.706	0.087	0.081
-611.244	800.000	0.052	0.148
-610.230	-200.000	0.009	-0.137
-609.215	800.000	0.053	-0.202
-608.201	800.000	0.072	-0.290
-607.186	170.334	0.113	-0.164
-606.171	-200.000	-0.003	0.071
-605.157	17.785	-0.033	-0.027
-604.142	-200.000	0.049	0.548
-603.128	-137.054	-0.401	-0.047
-602.113	-1.033	-0.235	0.168
-601.098	41.299	0.150	-0.138
-600.084	-173.279	-0.198	-0.006
-599.069	-114.256	-0.352	-0.069
-598.055	800.000	0.080	-0.282
-597.040	50.324	-0.413	-0.396
-596.025	-50.602	-0.278	0.133
-595.011	-0.478	0.073	-0.053
-593.996	-72.667	-0.208	-0.078
-592.982	56.427	-0.129	-0.127
-591.967	-140.663	0.172	0.018
-590.952	-133.856	-0.368	0.046
-589.938	47.223	-0.140	-0.132
-588.923	-66.176	-0.408	-0.165
-587.909	-200.000	-0.034	-0.390
-586.894	-68.039	-0.201	-0.079
-585.879	786.965	-0.039	-0.109
-584.865	94.346	0.305	-0.351
-583.850	760.027	-0.072	-0.198
-582.836	-92.487	0.049	0.014
-581.821	-66.922	-0.184	-0.073
-580.806	-66.551	-0.373	-0.150
-579.792	-42.895	0.124	-0.064
-578.777	-67.813	0.060	-0.024
-577.763	-42.072	0.270	0.140
-576.748	71.504	-0.216	-0.227
-575.733	238.368	-0.071	0.119
-574.719	-118.178	0.042	0.008
-573.704	-79.161	-0.177	-0.061
-572.690	-40.779	-0.026	-0.014
-571.675	-200.000	-0.035	-0.166
-570.661	378.203	0.090	-0.187
-569.646	-176.606	0.423	-0.011
-568.631	-52.436	-0.066	0.031
-567.617	-200.000	-0.043	-0.265
-566.602	290.486	0.077	-0.142
-565.588	-73.288	-0.380	0.141
-564.573	-107.339	-0.206	0.046
-563.558	279.946	0.038	0.068
-562.544	-74.516	0.132	0.048
-561.529	557.845	0.032	-0.078
-560.515	198.773	0.172	-0.266
-559.500	-21.301	-0.134	-0.083
-558.485	-37.328	-0.359	0.194
-557.471	175.873	0.128	0.188
-556.456	-63.346	0.396	0.165
-555.442	-200.000	0.033	0.453
-554.427	-108.360	0.381	0.083
-553.412	-200.000	-0.019	-0.198
-552.398	-200.000	-0.013	0.222
-551.383	-30.726	0.123	-0.070
-550.369	800.000	-0.029	0.120
-549.354	-200.000	0.012	-0.071
-548.339	57.061	0.183	0.181
-547.325	15.214	-0.318	-0.252
-546.310	247.445	-0.114	-0.195
-545.296	412.806	-0.128	-0.275
-544.281	-200.000	0.015	-0.251
-543.266	-200.000	-0.012	0.068
-542.252	12.670	-0.102	-0.080
-541.237	-200.000	0.052	0.401
-540.223	-4.236	0.191	-0.133
-539.208	9.689	0.300	-0.230
-538.193	182.461	-0.205	0.306
-537.179	-132.393	0.109	-0.014
-536.164	-200.000	-0.031	0.230
-535.150	-45.230	-0.163	-0.082
-534.135	92.991	0.143	-0.164
-533.121	399.842	0.066	-0.141
-532.106	-200.000	-0.037	-0.304
-531.091	-55.229	-0.419	-0.191
-530.077	-66.243	-0.290	0.117
-529.062	-90.093	-0.420	-0.124
-528.048	276.080	0.116	-0.208
-527.033	-43.721	0.072	-0.037
-526.018	335.734	-0.112	0.219
-525.004	788.102	-0.042	-0.116
-523.989	-200.000	0.001	-0.245
-522.975	24.668	-0.068	-0.057
-521.960	111.679	-0.066	-0.081
-520.945	2.019	-0.332	0.242
-519.931	139.818	-0.018	0.024
-518.916	496.945	-0.063	0.145
-517.902	335.830	-0.166	0.325
-516.887	-51.337	-0.049	0.023
-515.872	-109.888	-0.177	-0.037
-514.858	-137.872	-0.133	-0.015
-513.843	800.000	0.055	-0.194
-512.829	-49.969	0.117	-0.056
-511.814	800.000	-0.099	-0.277
-510.799	-92.997	-0.034	0.009
-509.785	61.000	-0.168	0.168
-508.770	-200.000	0.008	0.296
-507.756	112.298	-0.143	-0.174
-506.741	51.788	-0.142	-0.136
-505.726	-169.270	-0.114	-0.004
-504.712	121.159	-0.193	0.243
-503.697	199.296	0.153	0.237
-502.683	48.560	-0.253	0.239
-501.668	14.239	0.086	0.067
-500.653	-200.000	0.003	-0.326
-499.639	192.613	-0.014	0.021
-498.624	142.129	0.127	0.169
-497.610	-34.083	-0.166	0.092
-496.595	29.123	0.048	-0.041
-495.581	80.249	0.163	0.178
-494.566	-15.159	-0.168	0.109
-493.551	800.000	-0.044	0.187
-492.537	-6.844	-0.173	0.119
-491.522	629.599	0.033	0.083
-490.508	-140.915	0.252	-0.026
-489.493	211.465	0.181	0.288
-488.478	7.438	0.263	-0.199
-487.464	116.419	-0.068	-0.084
-486.449	-4.857	-0.242	-0.168
-485.435	-200.000	-0.038	0.277
-484.420	-98.297	-0.129	0.033
-483.405	800.000	0.050	-0.173
-482.391	-36.897	-0.176	-0.095
-481.376	-15.262	-0.263	-0.170
-480.362	2.712	0.040	0.029
-479.347	240.708	0.019	0.033
-478.332	800.000	0.051	0.199
-477.318	-54.578	0.110	0.050
-476.303	42.122	-0.369	-0.338
-475.289	-30.965	-0.370	-0.211
-474.274	443.095	0.085	0.187
-473.259	-49.805	-0.014	0.007
-472.245	800.000	0.106	-0.338
-471.230	-200.000	0.008	-0.328
-470.216	-88.508	0.204	-0.061
-469.201	92.025	0.014	-0.015
-468.186	-200.000	0.020	0.125
-467.172	-200.000	-0.030	0.365
-466.157	-131.867	0.205	-0.027
-465.143	-200.000	0.010	-0.167
-464.128	-76.717	0.129	-0.046
-463.113	-200.000	0.061	-0.273
-462.099	800.000	-0.065	-0.233
-461.084	-200.000	0.042	-0.186
-460.070	-200.000	0.016	0.093
-459.055	-85.056	-0.255	-0.080
-458.040	-45.693	-0.235	0.117
-457.026	-96.854	0.251	0.066
-456.011	-200.000	-0.009	-0.128
-454.997	328.276	-0.030	0.058
-453.982	81.748	0.242	0.264
-452.968	-140.585	0.324	-0.034
-451.953	-188.770	0.231	-0.003
-450.938	403.390	-0.056	-0.118
-449.924	800.000	0.031	-0.114
-448.909	-115.148	0.213	-0.041
-447.895	-200.000	0.014	0.348
-446.880	145.416	0.031	-0.041
-445.865	-118.347	0.305	-0.055
-444.851	800.000	0.024	-0.076
-443.836	-152.665	-0.303	0.022
-442.822	-200.000	0.003	-0.070
-441.807	-200.000	0.034	-0.275
-440.792	509.535	0.105	0.246
-439.778	486.691	-0.092	0.211
-438.763	-200.000	0.010	0.049
-437.749	-27.528	0.129	0.075
-436.734	20.271	-0.283	0.230
-435.719	348.852	0.145	-0.289
-434.705	123.098	-0.051	-0.064
-433.690	-118.438	-0.120	-0.021
-432.676	-146.653	0.145	0.013
-431.661	25.064	0.190	-0.159
-430.646	-121.693	-0.300	-0.050
-429.632	302.245	0.081	-0.152
-428.617	-193.173	0.144	-0.001
-427.603	-101.384	0.414	0.102
-426.588	219.764	-0.118	-0.189
-425.573	89.173	0.031	0.035
-424.559	-56.996	-0.180	-0.080
-423.544	-78.949	-0.021	0.007
-422.530	-169.108	-0.112	0.004
-421.515	-98.848	0.377	0.096
-420.500	201.877	-0.113	0.175
-419.486	800.000	-0.106	-0.360
-418.471	-29.562	0.132	-0.076
-417.457	-61.813	0.057	0.024
-416.442	-200.000	0.014	0.124
-415.428	-79.815	-0.160	-0.054
-414.413	-121.241	-0.258	-0.043
-413.398	274.290	0.120	-0.213
-412.384	-62.319	0.155	0.065
-411.369	33.780	-0.100	0.087
-410.355	-146.546	0.182	0.016
-409.340	-200.000	0.066	0.637
-408.325	12.600	-0.238	0.185
-407.311	-200.000	-0.041	0.405
-406.296	244.448	0.236	0.399
-405.282	-200.000	0.000	0.226
-404.267	-104.546	-0.274	-0.064
-403.252	-142.962	-0.372	-0.036
-402.238	-200.000	0.039	0.241
-401.223	240.712	0.109	0.183
-400.209	-69.461	0.187	-0.072
-399.194	60.605	0.301	0.299
-398.179	-200.000	-0.040	0.279
-397.165	-200.000	0.015	0.350
-396.150	-116.778	0.097	0.018
-395.136	-161.930	0.313	-0.016
-394.121	292.911	0.100	-0.183
-393.106	371.991	0.166	-0.339
-392.092	4.736	-0.237	0.175
-391.077	-60.922	0.143	0.061
-390.063	800.000	0.106	0.302
-389.048	-63.921	-0.161	0.066
-388.033	104.999	-0.172	-0.204
-387.019	-118.382	-0.064	0.011
-386.004	79.910	0.110	-0.119
-384.990	-200.000	0.091	0.437
-383.975	18.842	0.164	0.132
-382.960	638.805	0.102	0.261
-381.946	800.000	-0.056	-0.187
-380.931	80.387	-0.220	-0.238
-379.917	139.747	-0.086	0.114
-378.902	14.830	0.138	0.109
-377.888	105.493	-0.039	-0.046
-376.873	81.835	-0.127	-0.139
-375.858	-91.316	0.315	-0.090
-374.844	-200.000	0.015	0.294
-373.829	276.074	0.110	0.196
-372.815	-19.657	-0.105	-0.065
-371.800	-200.000	0.041	0.244
-370.785	800.000	-0.098	-0.321
-369.771	-200.000	-0.087	-0.388
-368.756	35.386	-0.354	-0.312
-367.742	-200.000	0.002	-0.257
-366.727	248.557	0.105	-0.178
-365.712	-85.266	-0.296	0.093
-364.698	800.000	-0.021	0.080
-363.683	800.000	-0.082	-0.288
-362.669	19.765	-0.240	-0.194
-361.654	46.649	-0.230	-0.214
-360.639	-110.829	-0.251	0.052
-359.625	78.157	0.248	-0.266
-358.610	163.492	-0.079	0.112
-357.596	282.972	-0.004	-0.008
-356.581	88.905	-0.219	0.245
-355.566	-118.272	-0.154	-0.028
-354.552	-200.000	0.003	0.239
-353.537	-200.000	0.011	-0.112
-352.523	800.000	0.064	-0.243
-351.508	148.388	0.218	0.295
-350.493	-113.839	-0.388	-0.076
-349.479	-200.000	0.002	-0.154
-348.464	54.039	0.200	-0.193
-347.450	131.789	-0.031	0.041
-346.435	800.000	-0.083	-0.297
-345.420	-200.000	-0.036	-0.284
-344.406	-119.849	0.173	0.030
-343.391	26.498	-0.296	-0.249
-342.377	-42.442	-0.316	-0.162
-341.362	72.610	-0.075	0.079
-340.348	-129.982	0.396	-0.054
-339.333	-6.541	0.154	0.105
-338.318	-200.000	-0.038	0.269
-337.304	-200.000	-0.006	0.525
-336.289	63.478	0.101	0.101
-335.275	-59.874	-0.261	0.112
-334.260	-200.000	0.335	-0.001
-333.245	356.626	0.230	-0.459
-332.231	800.000	0.051	-0.224
-331.216	-96.011	-0.160	-0.043
-330.202	217.706	0.037	0.059
-329.187	-2.574	-0.108	0.076
-328.172	-165.257	0.148	-0.007
-327.158	-200.000	-0.004	0.062
-326.143	800.000	-0.035	-0.152
-325.129	-17.127	0.076	-0.048
-324.114	800.000	-0.066	-0.206
-323.099	576.376	0.102	-0.250
-322.085	-103.562	-0.235	-0.055
-321.070	-200.000	-0.261	0.001
-320.056	-200.000	-0.014	0.223
-319.041	-200.000	0.045	0.201
-318.026	568.386	0.102	0.248
-317.012	-164.082	0.261	-0.012
-315.997	29.884	0.316	0.270
-314.983	108.410	-0.028	0.033
-313.968	-34.027	-0.338	-0.186
-312.953	-200.000	-0.004	0.110
-311.939	-33.766	0.263	0.145
-310.924	-28.987	0.167	0.096
-309.910	-200.000	0.031	-0.430
-308.895	-200.000	-0.007	-0.065
-307.880	29.282	-0.164	-0.139
-306.866	-36.147	-0.117	-0.063
-305.851	-63.212	0.112	0.046
-304.837	309.401	0.068	-0.127
-303.822	-200.000	0.001	-0.037
-302.807	800.000	-0.024	0.101
-301.793	-85.125	-0.172	-0.054
-300.778	-200.000	0.010	0.215
-299.764	-200.000	-0.067	-0.450
-298.749	270.409	-0.106	-0.187
-297.735	800.000	0.083	0.262
-296.720	800.000	0.041	0.123
-295.705	219.817	0.028	-0.045
-294.691	-200.000	0.090	-0.393
-293.676	-115.195	0.138	0.026
-292.662	32.459	0.195	-0.169
-291.647	92.476	0.169	-0.191
-290.632	102.796	0.120	0.140
-289.618	-103.275	0.173	-0.041
-288.603	-24.097	0.160	0.096
-287.589	-200.000	-0.001	-0.161
-286.574	-200.000	0.007	0.231
-285.559	-98.436	0.120	-0.031
-284.545	34.290	-0.142	0.124
-283.530	662.524	0.066	-0.171
-282.516	136.208	0.260	0.339
-281.501	-200.000	0.003	0.259
-280.486	800.000	-0.071	0.207
-279.472	95.947	0.187	-0.214
-278.457	-51.973	0.168	0.078
-277.443	-171.984	-0.282	0.009
-276.428	55.593	0.111	0.108
-275.413	-200.000	0.032	0.222
-274.399	440.351	0.112	-0.246
-273.384	-80.453	0.198	-0.066
-272.370	800.000	-0.076	0.290
-271.355	92.171	-0.080	0.090
-270.340	-48.251	0.150	-0.072
-269.326	-12.970	-0.371	-0.241
-268.311	-141.797	-0.190	0.019
-267.297	34.186	-0.083	0.073
-266.282	183.470	-0.165	-0.244
-265.267	-133.365	0.365	0.046
-264.253	-31.120	0.076	0.043
-263.238	-6.138	0.082	0.056
-262.224	-141.958	0.149	0.015
-261.209	235.981	-0.043	-0.072
-260.195	800.000	-0.070	0.281
-259.180	-200.000	-0.021	-0.100
-258.165	-200.000	0.043	0.223
-257.151	-131.579	-0.161	-0.021
-256.136	-200.000	0.044	-0.281
-255.122	16.122	0.240	0.189
-254.107	-125.556	-0.365	0.056
-253.092	162.182	0.197	-0.276
-252.078	-33.490	0.559	0.309
-251.063	-181.516	0.181	0.004
-250.049	1.779	0.137	0.099
-249.034	287.766	0.064	0.116
-248.019	-75.473	-0.310	-0.110
-247.005	800.000	0.087	0.255
-245.990	-200.000	0.034	-0.197
-244.976	-53.603	0.152	-0.069
-243.961	-100.466	-0.201	-0.050
-242.946	242.732	0.130	-0.218
-241.932	279.399	0.098	0.175
-240.917	-2.707	-0.211	-0.148
-239.903	-172.932	-0.160	0.005
-238.888	-200.000	0.003	-0.136
-237.873	-200.000	0.015	-0.070
-236.859	471.640	-0.127	0.286
-235.844	35.991	0.187	0.164
-234.830	-200.000	0.043	0.286
-233.815	-83.173	-0.397	0.127
-232.800	-65.456	0.108	0.043
-231.786	-30.392	0.214	0.122
-230.771	800.000	-0.078	0.281
-229.757	800.000	0.109	0.434
-228.742	-200.000	0.175	-0.000
-227.727	-164.381	-0.152	-0.007
-226.713	-200.000	0.008	0.091
-225.698	-62.829	-0.312	-0.129
-224.684	800.000	-0.010	-0.038
-223.669	-74.004	0.390	-0.141
-222.655	-16.032	-0.117	-0.074
-221.640	768.089	0.072	0.196
-220.625	800.000	0.063	0.257
-219.611	-200.000	-0.055	-0.242
-218.596	314.369	-0.078	0.147
-217.582	142.253	-0.145	-0.192
-216.567	-200.000	0.025	-0.196
-215.552	114.081	0.075	0.091
-214.538	123.760	0.075	0.094
-213.523	235.248	0.055	-0.091
-212.509	51.020	-0.286	-0.271
-211.494	-200.000	-0.050	-0.443
-210.479	28.481	0.207	-0.174
-209.465	114.448	0.197	-0.239
-208.450	-43.091	0.153	0.077
-207.436	-200.000	0.002	-0.218
-206.421	47.275	0.204	-0.190
-205.406	-200.000	-0.001	-0.056
-204.392	800.000	0.025	0.090
-203.377	-57.017	0.229	-0.101
-202.363	593.199	0.038	0.093
-201.348	258.464	-0.111	-0.190
-200.333	215.461	-0.059	-0.094
-199.319	-127.180	0.101	0.015
-198.304	152.011	-0.101	-0.138
-197.290	-200.000	0.004	-0.087
-196.275	-7.142	-0.230	0.156
-195.260	27.270	-0.040	0.033
-194.246	248.683	0.216	0.366
-193.231	-146.672	0.225	0.019
-192.217	-200.000	-0.005	0.208
-191.202	800.000	-0.050	0.215
-190.187	-71.498	-0.139	-0.052
-189.173	-20.418	-0.045	-0.028
-188.158	-152.154	-0.289	-0.021
-187.144	-200.000	0.001	0.011
-186.129	162.769	-0.037	-0.051
-185.114	1.870	-0.216	0.155
-184.100	244.805	0.100	0.167
-183.085	800.000	0.129	0.398
-182.071	-160.835	0.205	0.011
-181.056	-200.000	-0.017	-0.154
-180.042	-117.122	-0.272	0.049
-179.027	-14.326	0.111	0.071
-178.012	300.764	0.080	-0.148
-176.998	387.992	-0.069	0.142
-175.983	5.607	-0.133	0.098
-174.969	36.239	0.272	0.239
-173.954	-22.702	0.009	-0.005
-172.939	-124.220	0.305	-0.048
-171.925	800.000	0.060	-0.191
-170.910	800.000	0.066	-0.197
-169.896	137.849	-0.042	-0.055
-168.881	-200.000	0.000	0.143
-167.866	517.775	0.101	0.236
-166.852	19.021	0.246	0.197
-165.837	11.992	-0.134	0.103
-164.823	165.151	0.159	0.223
-163.808	-110.092	0.143	-0.030
-162.793	-200.000	-0.046	0.322
-161.779	-34.558	0.143	-0.078
-160.764	800.000	-0.043	-0.181
-159.750	53.088	0.129	-0.123
-158.735	800.000	0.060	0.181
-157.720	28.271	-0.107	0.090
-156.706	128.773	0.066	0.084
-155.691	578.004	0.040	0.098
-154.677	469.045	0.103	0.230
-153.662	324.769	0.047	-0.089
-152.647	-200.000	-0.031	-0.275
-151.633	800.000	-0.037	0.103
-150.618	-78.167	0.329	0.113
-149.604	212.448	-0.038	0.059
-148.589	-92.449	-0.239	0.067
-147.574	191.174	-0.157	0.235
-146.560	467.248	0.083	-0.185
-145.545	-130.305	-0.226	-0.031
-144.531	-116.473	0.116	0.021
-143.516	-133.148	-0.198	-0.025
-142.502	-200.000	-0.014	0.167
-141.487	268.630	-0.212	0.370
-140.472	-200.000	0.026	-0.182
-139.458	230.014	-0.099	0.161
-138.443	800.000	-0.091	-0.306
-137.429	-200.000	-0.009	-0.078
-136.414	-20.165	0.072	0.044
-135.399	-137.310	0.156	0.018
-134.385	-89.365	-0.083	0.024
-133.370	-8.813	-0.375	-0.250
-132.356	-87.411	0.251	0.076
-131.341	78.439	0.064	0.068
-130.326	-32.819	0.197	-0.109
-129.312	-200.000	-0.029	-0.176
-128.297	800.000	-0.034	-0.101
-127.283	-88.589	0.263	0.078
-126.268	83.533	-0.098	-0.107
-125.253	-103.717	0.258	-0.060
-124.239	-89.710	-0.191	0.056
-123.224	726.815	-0.085	0.226
-122.210	-170.266	-0.252	-0.009
-121.195	54.337	-0.069	0.067
-120.180	61.539	-0.042	-0.042
-119.166	-100.845	0.395	-0.097
-118.151	418.861	-0.141	0.299
-117.137	800.000	-0.080	0.229
-116.122	0.823	-0.327	-0.233
-115.107	64.165	0.074	0.074
-114.093	63.484	0.068	0.068
-113.078	37.449	0.160	0.141
-112.064	-164.918	0.296	-0.013
-111.049	479.063	-0.145	0.328
-110.034	51.160	-0.044	-0.042
-109.020	-67.844	0.067	-0.026
-108.005	-75.055	0.162	0.058
-106.991	-117.048	0.146	-0.026
-105.976	-157.353	0.296	-0.018
-104.962	-112.924	-0.237	0.047
-103.947	89.268	-0.186	-0.206
-102.932	206.776	-0.040	-0.063
-101.918	-200.000	-0.000	-0.162
-100.903	292.289	0.033	-0.061
-99.889	-200.000	0.009	0.263
-98.874	-200.000	0.082	0.364
-97.859	278.408	0.098	-0.173
-96.845	109.192	0.386	-0.459
-95.830	-71.486	0.181	-0.067
-94.816	-98.451	0.020	-0.005
-93.801	710.753	-0.177	-0.464
-92.786	81.620	-0.147	-0.159
-91.772	-16.279	-0.158	0.099
-90.757	-2.341	-0.172	-0.120
-89.743	-109.652	0.301	0.063
-88.728	-92.598	-0.102	0.028
-87.713	-11.022	0.213	-0.139
-86.699	384.081	0.027	-0.055
-85.684	-21.247	0.103	0.063
-84.670	800.000	-0.056	-0.162
-83.655	-147.182	-0.163	0.014
-82.640	126.622	0.186	0.234
-81.626	-200.000	0.087	0.429
-80.611	-183.060	0.410	0.007
-79.597	-118.043	0.289	-0.051
-78.582	154.250	-0.081	0.110
-77.567	455.067	0.237	-0.522
-76.553	-200.000	0.050	0.311
-75.538	800.000	0.094	0.300
-74.524	-170.412	0.342	-0.012
-73.509	-6.239	0.196	-0.133
-72.494	222.132	0.058	0.093
-71.480	713.444	0.104	-0.273
-70.465	-44.921	-0.290	-0.143
-69.451	208.328	-0.171	0.265
-68.436	-36.118	-0.251	0.134
-67.422	-72.208	0.194	-0.072
-66.407	-200.000	0.035	-0.389
-65.392	-200.000	0.024	-0.249
-64.378	40.129	-0.064	-0.057
-63.363	-118.176	0.405	-0.072
-62.349	387.535	0.060	0.123
-61.334	112.297	-0.932	-1.118
-60.319	-107.483	0.553	0.120
-59.305	800.000	-0.288	-1.131
-58.290	206.610	0.492	0.761
-57.276	252.006	0.693	1.171
-56.261	-200.000	94.176	556.662
-55.246	630.025	1381.355	3466.715
-54.232	185.841	2601.305	3835.973
-53.217	121.317	2216.817	2739.033
-52.203	45.670	1749.385	1603.648
-51.188	38.378	1558.222	1377.255
-50.173	35.928	1530.253	1335.508
-49.159	53.532	1579.958	1503.435
-48.144	57.209	1599.194	1547.621
-47.130	38.777	1554.488	1376.534
-46.115	35.603	1538.837	1340.518
-45.100	35.297	1535.978	1335.846
-44.086	35.288	1534.282	1334.255
-43.071	35.175	1532.191	1331.598
-42.057	35.256	1530.382	1330.534
-41.042	35.218	1529.141	1329.136
-40.027	35.118	1527.508	1326.970
-39.013	35.214	1526.138	1326.397
-37.998	35.149	1525.336	1325.197
-36.984	35.325	1523.326	1324.613
-35.969	35.226	1522.133	1322.839
-34.954	35.285	1520.735	1321.976
-33.940	35.178	1519.705	1320.292
-32.925	35.348	1517.451	1319.451
-31.911	35.263	1516.789	1318.241
-30.896	35.371	1515.518	1317.827
-29.881	35.327	1514.187	1316.311
-28.867	35.444	1512.156	1315.297
-27.852	35.237	1511.216	1313.013
-26.838	35.313	1509.504	1311.994
-25.823	35.298	1508.146	1310.654
-24.809	35.311	1506.641	1309.384
-23.794	35.269	1505.017	1307.637
-22.779	35.252	1503.972	1306.561
-21.765	35.245	1503.339	1305.910
-20.750	35.301	1501.642	1304.766
-19.736	35.292	1500.490	1303.653
-18.721	35.319	1499.565	1302.980
-17.706	35.284	1498.233	1301.535
-16.692	35.227	1497.367	1300.341
-15.677	35.375	1496.108	1300.201
-14.663	35.293	1495.064	1298.686
-13.648	35.204	1494.372	1297.428
-12.633	35.318	1493.068	1297.019
-11.619	35.203	1492.366	1295.578
-10.604	35.216	1491.889	1295.201
-9.590	35.153	1491.011	1293.964
-8.575	35.259	1490.119	1293.850
-7.560	35.345	1488.999	1293.409
-6.546	35.312	1488.166	1292.412
-5.531	35.119	1487.829	1290.765
-4.517	35.266	1486.003	1290.122
-3.502	35.163	1485.337	1288.795
-2.487	35.208	1484.121	1287.992
-1.473	35.187	1483.146	1286.954
-0.458	35.277	1481.802	1286.344
0.556	37.334	1472.634	1274.972
1.571	33.943	1444.499	1228.631
2.586	29.658	1379.240	1146.505
3.600	27.105	1294.566	1061.131
4.615	24.961	1245.805	1009.008
5.629	21.020	1189.002	941.683
6.644	12.765	1102.648	831.703
7.659	5.830	1060.782	766.270
8.673	4.818	1054.997	757.108
9.688	4.594	1051.822	753.676
10.702	4.348	1050.425	751.418
11.717	4.630	1049.088	751.757
12.731	7.702	1051.940	768.606
13.746	15.921	1063.668	817.143
14.761	21.720	1070.326	850.413
15.775	22.184	1069.968	852.304
16.790	21.470	1068.332	847.469
17.804	20.373	1066.443	840.589
18.819	19.558	1064.659	835.165
19.834	19.119	1063.072	831.728
20.848	19.091	1062.082	830.742
21.863	18.781	1061.958	829.076
22.877	18.706	1060.469	827.479
23.892	18.459	1060.100	825.927
24.907	18.421	1059.383	825.115
25.921	18.357	1058.760	824.250
26.936	18.388	1057.541	823.377
27.950	18.505	1056.461	823.021
28.965	18.365	1055.414	821.463
29.980	18.551	1054.502	821.574
30.994	18.680	1053.512	821.345
32.009	18.830	1052.131	820.915
33.023	18.705	1052.171	820.274
34.038	18.844	1050.964	819.922
35.053	18.679	1050.353	818.589
36.067	18.578	1049.243	817.170
37.082	18.485	1048.361	815.966
38.096	18.644	1047.111	815.678
39.111	18.661	1046.967	815.573
40.126	18.695	1046.410	815.232
41.140	18.594	1044.893	813.495
42.155	18.382	1043.502	811.339
43.169	18.177	1042.278	809.344
44.184	18.150	1041.491	808.534
45.199	18.148	1040.018	807.308
46.213	18.116	1039.566	806.736
47.228	18.141	1038.292	805.794
48.242	18.453	1037.531	806.599
49.257	18.560	1036.886	806.529
50.271	18.563	1035.547	805.435
51.286	18.515	1035.150	804.825
52.301	18.530	1034.464	804.295
53.315	18.615	1033.188	803.629
54.330	18.469	1032.307	802.186
55.344	18.302	1031.249	800.513
56.359	18.287	1029.838	799.278
57.374	18.223	1029.366	798.541
58.388	18.249	1028.660	798.046
59.403	18.242	1027.839	797.306
60.417	18.024	1027.403	795.883
61.432	18.288	1026.210	796.117
62.447	18.031	1025.826	794.552
63.461	18.097	1024.597	793.836
64.476	18.054	1023.696	792.868
65.490	17.797	1023.240	791.254
66.505	17.868	1022.157	790.675
67.520	17.946	1021.268	790.278
68.534	17.994	1020.815	790.078
69.549	18.079	1019.606	789.467
70.563	17.974	1018.992	788.437
71.578	18.005	1018.041	787.772
72.593	17.834	1017.099	786.188
73.607	17.775	1016.103	785.074
74.622	17.664	1015.417	783.966
75.636	17.731	1014.364	783.393
76.651	17.776	1013.878	783.155
77.666	17.787	1012.937	782.410
78.680	17.827	1012.474	782.164
79.695	17.988	1011.378	781.986
80.709	17.970	1011.080	781.602
81.724	17.970	1010.602	781.164
82.739	18.151	1009.222	780.856
83.753	18.220	1008.900	780.852
84.768	18.364	1008.580	781.191
85.782	18.612	1007.848	781.688
86.797	18.858	1007.255	782.278
87.812	18.904	1006.261	781.643
88.826	18.607	1005.411	779.565
89.841	18.656	1004.238	778.812
90.855	18.614	1003.649	778.096
91.870	18.806	1002.866	778.291
92.884	18.869	1002.096	777.909
93.899	18.798	1001.634	777.157
94.914	18.646	1001.125	776.005
95.928	18.782	999.898	775.600
96.943	18.854	999.172	775.296
97.957	18.762	998.773	774.503
98.972	18.679	998.099	773.537
99.987	18.513	997.343	772.134
101.001	18.696	996.525	772.255
102.016	18.750	995.691	771.786
103.030	18.651	994.380	770.255
104.045	18.646	993.698	769.636
105.060	18.788	992.441	769.233
106.074	18.566	991.252	767.246
107.089	18.242	990.880	765.443
108.103	18.121	989.752	763.964
109.118	18.079	988.432	762.692
110.133	17.962	987.595	761.454
111.147	18.026	986.608	760.910
112.162	17.972	985.944	760.092
113.176	18.040	985.069	759.654
114.191	18.168	984.477	759.696
115.206	18.244	983.819	759.462
116.220	18.275	982.782	758.730
117.235	18.064	982.297	757.352
118.249	18.061	981.411	756.591
119.264	18.030	980.474	755.662
120.279	18.076	979.083	754.726
121.293	18.032	978.577	754.077
122.308	18.045	977.861	753.514
123.322	17.941	976.941	752.283
124.337	17.749	975.618	750.353
125.352	17.777	974.496	749.544
126.366	17.846	973.240	748.818
127.381	17.775	972.407	747.797
128.395	17.771	971.384	746.928
129.410	17.884	970.624	746.770
130.424	17.834	970.079	746.067
131.439	17.876	969.284	745.574
132.454	18.078	968.321	745.646
133.468	18.168	967.975	745.706
134.483	18.159	967.347	745.120
135.497	18.152	966.338	744.246
136.512	18.196	965.655	743.843
137.527	18.142	965.272	743.250
138.541	18.158	964.763	742.860
139.556	18.284	963.630	742.468
140.570	18.217	962.961	741.597
141.585	18.370	961.786	741.290
142.600	18.546	961.714	741.932
143.614	18.505	960.927	741.082
144.629	18.713	960.315	741.441
145.643	18.714	959.567	740.800
146.658	18.799	958.419	740.218
147.673	18.633	957.309	738.580
148.687	18.437	956.500	737.047
149.702	18.327	955.545	735.772
150.716	18.173	954.880	734.535
151.731	18.132	953.994	733.611
152.746	18.178	953.058	733.025
153.760	18.275	952.492	732.940
154.775	18.267	951.541	732.108
155.789	18.341	951.146	732.055
156.804	18.469	950.379	731.951
157.819	18.421	949.318	730.861
158.833	18.494	948.732	730.657
159.848	18.657	947.857	730.612
160.862	18.728	947.830	730.830
161.877	18.714	946.897	729.988
162.892	18.372	945.778	727.608
163.906	18.279	944.572	726.220
164.921	18.019	944.080	724.675
165.935	18.145	942.820	724.175
166.950	18.331	941.737	724.066
167.964	18.447	940.797	723.770
168.979	18.436	940.058	723.093
169.994	18.380	938.964	721.948
171.008	18.201	938.304	720.626
172.023	18.274	937.830	720.505
173.037	18.506	936.829	720.645
174.052	18.670	936.499	721.019
175.067	18.514	935.797	719.759
176.081	18.396	934.410	718.133
177.096	18.150	933.577	716.401
178.110	18.303	932.697	716.302
179.125	18.318	931.807	715.615
180.140	18.360	931.142	715.218
181.154	18.283	930.580	714.402
182.169	18.491	929.935	714.711
183.183	18.623	929.288	714.699
184.198	18.584	929.248	714.443
185.213	18.760	927.877	714.059
186.227	18.654	927.708	713.426
187.242	18.749	926.955	713.178
188.256	18.859	926.044	712.870
189.271	18.964	925.655	712.941
190.286	18.930	925.081	712.297
191.300	18.793	923.901	710.760
192.315	18.216	923.177	707.754
193.329	18.089	922.376	706.551
194.344	18.052	921.606	705.747
195.359	18.310	921.079	706.344
196.373	18.321	920.732	706.060
197.388	18.587	920.218	706.700
198.402	18.760	919.797	707.026
199.417	18.907	919.654	707.457
200.432	18.916	919.245	707.118
201.446	19.047	918.675	707.156
202.461	19.147	918.355	707.258
203.475	19.069	918.408	706.915
204.490	19.179	917.201	706.376
205.504	18.927	916.205	704.513
206.519	18.963	915.123	703.765
207.534	18.852	914.192	702.533
208.548	18.688	913.460	701.238
209.563	18.812	912.884	701.242
210.577	18.865	912.401	701.024
211.592	18.853	911.791	700.447
212.607	18.961	911.252	700.408
213.621	19.238	910.731	701.074
214.636	18.975	910.203	699.535
215.650	18.893	909.891	698.901
216.665	19.088	908.660	698.686
217.680	19.134	908.387	698.602
218.694	19.251	907.648	698.444
219.709	19.309	907.499	698.501
220.723	19.244	906.907	697.722
221.738	19.290	906.075	697.206
222.753	19.226	905.077	696.119
223.767	19.183	904.634	695.541
224.782	19.247	903.606	694.948
225.796	19.315	903.256	694.893
226.811	19.387	902.444	694.497
227.826	19.344	901.853	693.807
228.840	19.186	901.186	692.597
229.855	19.049	900.432	691.404
230.869	19.037	899.699	690.734
231.884	19.172	898.986	690.665
232.899	19.027	898.636	689.754
233.913	18.994	897.788	688.909
234.928	18.890	896.715	687.611
235.942	18.863	896.136	686.999
236.957	18.858	895.530	686.451
237.972	18.814	894.904	685.735
238.986	18.895	894.334	685.563
240.001	18.944	893.848	685.323
241.015	18.990	892.816	684.654
242.030	18.972	892.209	684.056
243.045	19.334	891.177	684.645
244.059	19.256	890.902	684.064
245.074	19.122	890.257	682.976
246.088	19.253	889.835	683.111
247.103	19.319	889.396	682.974
248.117	19.393	888.536	682.547
249.132	19.430	888.263	682.421
250.147	19.722	888.078	683.374
251.161	19.753	887.695	683.144
252.176	20.082	886.676	683.594
253.190	19.927	886.398	682.708
254.205	19.937	886.202	682.539
255.220	20.161	885.510	682.827
256.234	20.160	884.582	682.047
257.249	20.111	884.133	681.446
258.263	20.012	883.602	680.588
259.278	20.108	882.673	680.190
260.293	19.974	882.244	679.274
261.307	20.183	881.444	679.415
262.322	20.282	880.966	679.376
263.336	20.129	881.096	678.814
264.351	20.337	880.148	678.841
265.366	20.411	879.379	678.477
266.380	20.189	879.047	677.291
267.395	20.239	878.266	676.825
268.409	20.273	877.238	676.107
269.424	20.066	876.256	674.482
270.439	20.102	875.668	674.110
271.453	20.123	875.272	673.827
272.468	19.834	874.666	672.178
273.482	19.882	873.610	671.493
274.497	19.964	872.907	671.212
275.512	19.896	872.543	670.611
276.526	19.877	871.602	669.755
277.541	19.931	871.090	669.508
278.555	20.010	870.605	669.382
279.570	20.203	869.999	669.605
280.585	20.267	869.702	669.561
281.599	20.240	869.354	669.131
282.614	20.080	868.859	668.075
283.628	20.100	867.509	667.054
284.643	20.013	866.966	666.244
285.657	20.013	866.638	665.933
286.672	20.043	866.340	665.761
287.687	20.196	865.774	665.852
288.701	20.186	865.070	665.213
289.716	20.063	864.629	664.345
290.730	20.180	864.018	664.266
291.745	20.219	863.455	663.921
292.760	20.189	862.785	663.233
293.774	20.239	862.216	662.930
294.789	20.459	861.955	663.508
295.803	20.356	861.187	662.468
296.818	20.244	860.649	661.569
297.833	20.063	860.158	660.443
298.847	20.140	859.335	660.043
299.862	20.214	858.263	659.445
300.876	20.307	857.631	659.252
301.891	20.371	857.063	659.001
302.906	20.371	856.904	658.819
303.920	20.435	856.384	658.605
304.935	20.524	856.031	658.612
305.949	20.845	855.137	659.080
306.964	20.761	854.397	658.136
307.979	20.735	853.291	657.128
308.993	20.631	853.067	656.504
310.008	20.547	852.714	655.859
311.022	20.758	851.770	655.870
312.037	20.642	851.469	655.142
313.052	20.637	851.026	654.723
314.066	20.412	850.003	653.033
315.081	20.245	849.713	652.123
316.095	20.223	848.592	651.123
317.110	20.294	848.378	651.171
318.125	20.325	847.995	650.933
319.139	20.145	847.370	649.722
320.154	20.194	846.899	649.485
321.168	20.240	846.449	649.256
322.183	20.180	846.024	648.648
323.197	20.304	845.559	648.698
324.212	20.463	844.916	648.740
325.227	20.457	844.197	648.108
326.241	20.365	843.906	647.485
327.256	20.411	843.128	647.003
328.270	20.393	842.530	646.417
329.285	20.221	842.423	645.641
330.300	20.437	841.234	645.473
331.314	20.270	841.161	644.739
332.329	20.411	840.253	644.512
333.343	20.475	839.652	644.229
334.358	20.694	839.191	644.631
335.373	20.628	838.749	643.989
336.387	20.637	838.181	643.530
337.402	20.774	837.715	643.622
338.416	20.884	837.151	643.536
339.431	20.853	836.714	643.031
340.446	21.005	836.171	643.117
341.460	21.173	835.753	643.357
342.475	21.270	835.211	643.241
343.489	21.182	834.641	642.420
344.504	21.327	834.073	642.461
345.519	21.319	833.477	641.915
346.533	21.282	833.422	641.680
347.548	21.235	832.912	641.056
348.562	21.257	832.070	640.432
349.577	21.145	831.305	639.378
350.592	20.920	830.604	637.958
351.606	20.715	830.475	637.051
352.621	20.852	829.564	636.798
353.635	20.750	829.198	636.088
354.650	20.780	829.101	636.067
355.665	21.026	828.316	636.308
356.679	21.002	827.902	635.846
357.694	20.970	827.858	635.637
358.708	21.212	827.207	635.962
359.723	20.991	826.217	634.342
360.738	20.998	826.032	634.171
361.752	21.120	825.438	634.101
362.767	21.265	824.682	633.991
363.781	21.226	824.741	633.839
364.796	21.482	824.110	634.226
365.810	21.411	823.678	633.580
366.825	21.600	823.579	634.132
367.840	21.641	823.505	634.168
368.854	21.416	822.926	632.851
369.869	21.440	822.570	632.609
370.883	21.338	821.613	631.445
371.898	21.340	820.828	630.794
372.913	21.366	820.604	630.662
373.927	21.553	820.041	630.845
374.942	21.377	819.400	629.664
375.956	21.353	819.037	629.243
376.971	21.662	817.881	629.409
377.986	21.601	817.820	629.086
379.000	21.753	817.294	629.173
380.015	21.865	816.581	628.971
381.029	21.862	815.776	628.283
382.044	21.702	815.703	627.600
383.059	21.696	815.352	627.253
384.073	21.753	814.769	626.951
385.088	21.880	813.720	626.543
386.102	21.540	813.016	624.732
387.117	21.495	812.520	624.133
388.132	21.424	812.203	623.581
389.146	21.390	811.523	622.883
390.161	21.323	811.350	622.457
391.175	21.461	811.322	622.874
392.190	21.735	810.645	623.274
393.205	21.762	809.942	622.773
394.219	21.643	809.386	621.868
395.234	21.461	809.454	621.218
396.248	21.543	808.606	620.805
397.263	21.396	807.520	619.395
398.278	21.369	806.996	618.843
399.292	21.155	807.279	618.247
400.307	21.352	806.394	618.213
401.321	21.280	806.270	617.808
402.336	21.411	805.754	617.820
403.350	21.584	805.252	617.991
404.365	21.467	805.080	617.391
405.380	21.658	804.673	617.697
406.394	21.786	804.260	617.776
407.409	21.817	804.016	617.643
408.423	22.084	803.338	618.006
409.438	22.001	802.886	617.314
410.453	22.038	802.737	617.273
411.467	22.052	802.470	617.064
412.482	22.208	801.616	616.901
413.496	22.319	801.190	616.908
414.511	22.254	801.039	616.507
415.526	22.233	801.052	616.390
416.540	22.200	800.461	615.767
417.555	22.052	799.905	614.767
418.569	22.024	799.415	614.237
419.584	22.066	798.894	613.929
420.599	22.114	798.291	613.580
421.613	158.598	1367.838	1788.266
422.628	137.601	1450.849	1788.406
