DTS Sentinel unit serial number:	SN413079Multiplexer serial number:	ORYXHardware model number:	OX4-SRSoftware version number:	ORYX F/W v4.00 Oryx Data Collector v3.7.2.0data status	okinstallation	princeton_trtdifferential loss correction	single-endedforward channel	channel 3reverse channel	N/Adate	2019/09/18time	07:32:35forward acquisition time	60.00reverse acquisition time	0.00gamma	496.2192k internal	0.2343k external	0.2343temperature offset calibration	0.9949default loss term (dB/km)	0.3790temperature slope calibration	1.0000multiplexer offset coefficient	1.0000multiplexer slope coefficient	1.0000fibre end	0.00T internal ref (°C)	23.19T ext. ref 1 (°C)	0.19T ext. ref 2 (°C)	17.59length (m)	temperature (°C)	Stokes	anti-Stokes-747.200	-21.514	0.024	-0.015
-746.185	149.830	-0.193	-0.261
-745.171	8.464	-0.169	-0.128
-744.156	114.360	-0.415	0.507
-743.142	336.123	0.080	-0.155
-742.127	-200.000	0.006	0.399
-741.112	-64.916	-0.034	0.014
-740.098	-174.287	-0.331	-0.010
-739.083	300.267	-0.160	-0.295
-738.069	134.612	-0.132	0.172
-737.054	800.000	0.124	-0.369
-736.039	701.039	-0.103	0.271
-735.025	189.995	-0.111	0.167
-734.010	20.309	-0.069	0.055
-732.996	188.369	-0.177	-0.265
-731.981	41.402	-0.104	0.094
-730.966	-59.735	-0.268	-0.115
-729.952	-54.740	0.048	-0.022
-728.937	437.513	-0.050	0.110
-727.923	-169.897	-0.212	0.008
-726.908	78.119	0.043	0.046
-725.894	85.961	-0.144	-0.158
-724.879	32.553	0.196	0.169
-723.864	-32.082	-0.090	-0.051
-722.850	161.429	-0.093	-0.131
-721.835	-45.252	0.152	0.076
-720.821	800.000	0.075	-0.222
-719.806	88.004	0.057	0.063
-718.791	22.710	0.237	0.194
-717.777	66.728	0.420	-0.428
-716.762	-1.924	-0.347	0.244
-715.748	-89.704	0.070	-0.021
-714.733	155.189	0.134	-0.184
-713.718	17.235	-0.361	0.286
-712.704	29.395	-0.175	0.149
-711.689	105.885	-0.165	-0.195
-710.675	-79.349	0.220	0.075
-709.660	-172.098	-0.241	0.008
-708.645	262.667	-0.130	0.226
-707.631	149.201	0.141	-0.191
-706.616	-96.486	0.166	0.044
-705.602	785.503	-0.030	-0.081
-704.587	102.080	-0.073	0.086
-703.572	552.978	0.129	0.309
-702.558	-102.426	0.162	0.039
-701.543	-20.962	0.107	0.065
-700.529	-50.368	0.335	0.158
-699.514	-200.000	-0.022	-0.332
-698.499	-86.023	-0.279	-0.086
-697.485	-51.682	-0.353	0.164
-696.470	31.031	0.246	-0.211
-695.456	51.846	0.157	-0.149
-694.441	-200.000	-0.034	0.159
-693.426	86.844	0.215	-0.237
-692.412	-200.000	-0.083	-0.448
-691.397	-200.000	-0.029	-0.544
-690.383	414.304	-0.117	-0.249
-689.368	694.213	0.104	-0.272
-688.354	214.975	0.054	-0.085
-687.339	-71.019	-0.085	-0.032
-686.324	-195.504	-0.167	-0.001
-685.310	240.376	-0.194	-0.323
-684.295	-109.358	0.479	-0.101
-683.281	-147.621	0.323	-0.027
-682.266	-200.000	0.049	0.387
-681.251	800.000	-0.032	-0.140
-680.237	494.183	0.135	0.310
-679.222	-76.915	0.349	-0.122
-678.208	112.171	0.128	0.155
-677.193	800.000	-0.039	-0.119
-676.178	-200.000	-0.041	-0.264
-675.164	-200.000	-0.053	-0.248
-674.149	82.467	0.246	-0.267
-673.135	68.260	0.288	0.295
-672.120	16.228	-0.267	0.210
-671.105	-143.902	0.239	0.022
-670.091	-56.196	0.239	-0.106
-669.076	-37.803	0.134	-0.071
-668.062	2.441	0.059	-0.043
-667.047	-29.183	0.166	-0.095
-666.032	-52.792	0.468	-0.215
-665.018	-101.825	-0.492	0.119
-664.003	252.061	0.101	0.172
-662.989	-200.000	0.043	-0.256
-661.974	-200.000	0.003	-0.330
-660.959	800.000	-0.064	-0.229
-659.945	290.220	-0.133	-0.240
-658.930	-54.091	0.260	0.118
-657.916	-200.000	0.002	0.211
-656.901	138.852	-0.207	-0.271
-655.886	168.359	0.156	0.222
-654.872	-59.141	0.157	-0.068
-653.857	305.262	-0.107	-0.199
-652.843	323.774	0.100	0.191
-651.828	317.840	0.238	-0.449
-650.814	-57.661	0.207	0.090
-649.799	-200.000	0.049	0.327
-648.784	105.195	-0.177	0.208
-647.770	-20.124	0.232	0.143
-646.755	-74.037	-0.226	0.082
-645.741	106.406	-0.058	0.069
-644.726	-145.181	0.258	0.023
-643.711	272.107	-0.165	0.289
-642.697	800.000	0.006	0.016
-641.682	13.349	-0.085	0.065
-640.668	-200.000	-0.026	-0.312
-639.653	-175.819	0.226	0.006
-638.638	19.916	0.276	-0.222
-637.624	-200.000	-0.024	0.185
-636.609	50.942	-0.109	0.103
-635.595	-44.920	0.325	0.162
-634.580	23.793	-0.052	0.043
-633.565	800.000	0.079	0.269
-632.551	192.815	0.063	0.095
-631.536	-183.323	-0.198	-0.003
-630.522	-30.106	0.157	-0.089
-629.507	154.565	-0.015	0.021
-628.492	-62.767	-0.234	0.097
-627.478	208.626	-0.155	-0.241
-626.463	-200.000	0.037	0.204
-625.449	-200.000	0.011	-0.131
-624.434	-200.000	0.038	-0.174
-623.419	104.586	-0.020	0.024
-622.405	7.323	0.241	-0.179
-621.390	27.839	0.133	-0.112
-620.376	-158.651	0.301	0.017
-619.361	800.000	-0.025	0.085
-618.346	138.963	-0.152	-0.199
-617.332	-111.725	-0.247	-0.050
-616.317	800.000	0.045	0.151
-615.303	-116.025	-0.112	-0.021
-614.288	-173.244	-0.296	-0.009
-613.273	-200.000	-0.020	0.154
-612.259	-144.617	0.085	-0.008
-611.244	326.260	-0.173	0.331
-610.230	84.769	-0.091	0.099
-609.215	-17.748	-0.260	0.162
-608.201	-147.813	-0.345	0.029
-607.186	388.248	0.101	-0.209
-606.171	-53.021	0.123	-0.056
-605.157	-57.680	0.112	-0.049
-604.142	-65.359	-0.160	0.064
-603.128	-2.773	-0.137	0.096
-602.113	-34.195	0.415	-0.227
-601.098	169.248	0.100	0.142
-600.084	-93.664	-0.161	-0.044
-599.069	26.579	-0.080	-0.067
-598.055	-200.000	0.020	-0.106
-597.040	-200.000	-0.015	-0.169
-596.025	-122.503	0.305	0.049
-595.011	287.848	-0.089	-0.160
-593.996	-200.000	-0.025	0.194
-592.982	250.182	0.093	-0.156
-591.967	286.644	-0.159	0.286
-590.952	-93.861	0.131	-0.036
-589.938	-20.443	0.335	0.205
-588.923	800.000	0.032	0.105
-587.909	-88.880	-0.229	0.068
-586.894	256.866	-0.195	0.334
-585.879	156.280	-0.072	0.099
-584.865	-200.000	0.053	-0.341
-583.850	800.000	0.048	-0.176
-582.836	-200.000	0.004	0.253
-581.821	-59.079	-0.196	-0.084
-580.806	800.000	-0.022	0.084
-579.792	-68.144	0.203	-0.079
-578.777	-60.964	-0.228	-0.096
-577.763	-42.671	0.133	-0.067
-576.748	800.000	-0.039	0.132
-575.733	-124.564	-0.339	0.052
-574.719	575.135	0.033	0.081
-573.704	116.426	-0.094	0.114
-572.690	-200.000	0.027	0.397
-571.675	-52.325	-0.123	-0.057
-570.661	800.000	-0.013	-0.054
-569.646	-62.315	-0.137	-0.057
-568.631	-25.168	0.120	-0.071
-567.617	28.929	0.240	-0.203
-566.602	-200.000	-0.085	-0.435
-565.588	-120.046	-0.401	0.068
-564.573	35.997	-0.113	0.099
-563.558	-200.000	0.003	-0.031
-562.544	742.856	-0.045	0.119
-561.529	-140.109	-0.295	-0.031
-560.515	253.011	-0.138	-0.234
-559.500	-200.000	-0.041	0.212
-558.485	93.494	0.177	0.200
-557.471	-200.000	0.216	0.000
-556.456	104.108	0.261	0.305
-555.442	356.503	-0.129	0.256
-554.427	261.199	0.119	0.205
-553.412	-69.293	-0.256	0.098
-552.398	-166.579	-0.293	0.012
-551.383	20.184	-0.342	-0.274
-550.369	-200.000	0.034	0.228
-549.354	-37.753	-0.284	-0.150
-548.339	40.027	0.120	-0.107
-547.325	403.589	-0.020	-0.041
-546.310	-200.000	0.005	0.144
-545.296	-95.298	0.018	-0.005
-544.281	-200.000	-0.025	-0.228
-543.266	-100.553	-0.121	0.030
-542.252	-76.417	-0.261	-0.091
-541.237	800.000	0.062	-0.176
-540.223	15.467	0.039	-0.030
-539.208	800.000	0.037	-0.122
-538.193	-75.743	0.197	-0.069
-537.179	409.924	0.033	-0.069
-536.164	-12.142	0.185	-0.120
-535.150	-37.593	-0.093	0.049
-534.135	-70.882	0.176	0.066
-533.121	-31.258	-0.161	0.090
-532.106	-29.132	-0.443	0.252
-531.091	93.095	0.229	0.257
-530.077	234.492	-0.146	0.240
-529.062	800.000	0.054	-0.163
-528.048	-66.791	0.133	0.052
-527.033	-200.000	-0.008	0.270
-526.018	781.190	0.059	0.160
-525.004	-107.639	0.237	0.051
-523.989	121.213	-0.111	-0.137
-522.975	153.299	-0.149	0.202
-521.960	-143.898	-0.172	0.016
-520.945	800.000	0.084	-0.349
-519.931	-2.270	0.324	-0.225
-518.916	-122.002	-0.103	-0.017
-517.902	90.612	-0.129	-0.144
-516.887	-74.605	0.352	0.126
-515.872	-200.000	-0.138	0.620
-514.858	-25.356	0.112	-0.066
-513.843	-16.227	0.161	0.101
-512.829	-12.834	-0.181	0.117
-511.814	-38.941	0.246	-0.129
-510.799	-29.891	-0.069	0.039
-509.785	-200.000	0.008	0.063
-508.770	84.780	0.041	0.045
-507.756	-200.000	-0.116	-0.593
-506.741	66.459	-0.207	0.209
-505.726	-200.000	0.005	-0.095
-504.712	-174.343	0.302	0.009
-503.697	474.062	0.096	0.215
-502.683	-39.952	0.364	-0.189
-501.668	19.446	0.138	-0.110
-500.653	97.590	0.150	-0.171
-499.639	-200.000	-0.003	-0.033
-498.624	61.806	0.151	-0.149
-497.610	724.313	-0.172	-0.454
-496.595	85.136	-0.037	-0.040
-495.581	-54.350	-0.223	0.100
-494.566	-200.000	-0.004	-0.197
-493.551	87.180	0.070	-0.077
-492.537	-200.000	0.044	-0.257
-491.522	-155.805	0.542	-0.034
-490.508	41.678	0.147	-0.132
-489.493	157.005	-0.103	-0.142
-488.478	-90.528	-0.065	0.019
-487.464	-104.694	-0.199	0.045
-486.449	-87.815	-0.251	-0.075
-485.435	800.000	-0.071	-0.233
-484.420	128.392	0.051	-0.065
-483.405	-46.496	-0.177	0.086
-482.391	-81.083	0.373	-0.122
-481.376	146.301	-0.130	0.173
-480.362	94.744	-0.108	0.122
-479.347	590.361	0.132	0.322
-478.332	188.420	0.142	0.210
-477.318	179.007	0.128	-0.186
-476.303	-200.000	0.005	-0.096
-475.289	-29.146	-0.096	0.055
-474.274	-15.522	-0.124	-0.078
-473.259	-57.516	0.125	-0.055
-472.245	227.335	-0.040	0.065
-471.230	-200.000	0.012	0.143
-470.216	-128.202	-0.235	-0.033
-469.201	-121.706	-0.375	-0.061
-468.186	722.187	0.050	0.132
-467.172	-200.000	-0.016	0.095
-466.157	746.101	0.039	0.104
-465.143	52.685	-0.170	0.161
-464.128	-143.779	-0.110	-0.010
-463.113	-200.000	0.017	0.109
-462.099	800.000	0.010	0.041
-461.084	-49.187	-0.018	0.009
-460.070	-200.000	0.042	0.204
-459.055	-200.000	-0.042	-0.363
-458.040	-200.000	-0.001	-0.167
-457.026	206.063	-0.115	0.177
-456.011	-200.000	-0.027	0.122
-454.997	800.000	0.020	-0.084
-453.982	800.000	0.072	0.311
-452.968	-113.041	-0.190	0.037
-451.953	236.838	0.148	0.243
-450.938	12.347	0.106	-0.081
-449.924	-99.501	0.090	-0.023
-448.909	-7.894	-0.504	-0.337
-447.895	-84.712	-0.136	-0.042
-446.880	18.551	0.076	0.060
-445.865	-200.000	0.002	0.015
-444.851	34.489	-0.502	-0.434
-443.836	-200.000	-0.026	-0.116
-442.822	-166.613	-0.114	0.005
-441.807	-11.287	0.293	0.191
-440.792	-166.904	-0.465	-0.019
-439.778	314.952	0.193	-0.359
-438.763	141.934	0.168	-0.221
-437.749	-21.543	0.165	-0.099
-436.734	481.521	0.123	0.276
-435.719	29.200	-0.207	0.174
-434.705	-81.810	-0.113	-0.037
-433.690	98.601	0.229	0.261
-432.676	28.280	0.092	-0.077
-431.661	-38.945	0.219	0.114
-430.646	-71.008	0.171	0.064
-429.632	362.121	-0.056	-0.110
-428.617	78.780	0.066	0.070
-427.603	-79.965	-0.350	-0.116
-426.588	-13.775	0.015	-0.009
-425.573	535.134	0.053	-0.124
-424.559	-89.186	-0.074	-0.022
-423.544	291.506	0.128	-0.231
-422.530	-17.932	0.081	-0.050
-421.515	800.000	-0.067	0.270
-420.500	800.000	0.063	-0.223
-419.486	800.000	-0.067	-0.257
-418.471	53.154	-0.303	-0.287
-417.457	-1.074	0.097	-0.068
-416.442	-48.134	-0.218	-0.104
-415.428	-18.718	0.337	0.208
-414.413	537.364	0.158	0.370
-413.398	-55.189	0.144	0.064
-412.384	35.530	0.135	0.117
-411.369	156.246	0.130	0.177
-410.355	49.322	0.220	-0.205
-409.340	-43.717	-0.270	-0.135
-408.325	290.790	-0.100	-0.180
-407.311	800.000	-0.018	0.066
-406.296	-103.188	-0.387	0.090
-405.282	-116.225	0.140	0.026
-404.267	-200.000	0.012	-0.067
-403.252	71.095	-0.114	0.117
-402.238	-46.405	0.143	0.069
-401.223	62.803	-0.191	-0.189
-400.209	-149.024	0.439	-0.035
-399.194	-200.000	0.014	-0.102
-398.179	-24.262	-0.232	0.137
-397.165	174.392	0.210	0.301
-396.150	165.253	0.064	0.089
-395.136	345.594	0.045	0.088
-394.121	-94.999	-0.440	-0.118
-393.106	-35.819	0.133	-0.071
-392.092	-200.000	0.022	-0.196
-391.077	-200.000	0.052	-0.427
-390.063	-71.384	-0.252	0.093
-389.048	28.897	-0.189	-0.158
-388.033	-200.000	0.007	0.288
-387.019	800.000	0.028	0.108
-386.004	220.343	0.263	-0.416
-384.990	-37.041	-0.229	0.121
-383.975	-63.050	0.022	0.009
-382.960	216.487	-0.248	0.390
-381.946	-107.836	-0.298	-0.064
-380.931	-200.000	-0.053	0.496
-379.917	87.496	-0.150	0.164
-378.902	553.561	-0.124	-0.295
-377.888	-59.680	0.104	-0.044
-376.873	31.111	0.337	-0.285
-375.858	230.507	-0.165	-0.267
-374.844	-19.990	0.029	-0.017
-373.829	-78.430	-0.021	0.007
-372.815	26.286	0.251	0.207
-371.800	116.577	0.124	0.150
-370.785	159.391	-0.143	0.196
-369.771	2.263	0.328	0.234
-368.756	62.727	-0.046	-0.045
-367.742	-141.589	-0.138	0.014
-366.727	800.000	0.089	-0.250
-365.712	429.526	0.087	0.185
-364.698	-200.000	0.042	0.468
-363.683	-200.000	0.027	0.146
-362.669	-98.223	0.160	-0.041
-361.654	-200.000	-0.008	0.255
-360.639	-39.808	-0.236	0.122
-359.625	-17.064	0.072	0.045
-358.610	-200.000	0.025	0.121
-357.596	634.990	-0.039	0.098
-356.581	93.932	-0.233	-0.261
-355.566	-200.000	-0.017	-0.228
-354.552	-6.495	-0.328	-0.220
-353.537	-22.837	0.239	-0.142
-352.523	102.086	-0.212	0.244
-351.508	-98.976	-0.255	-0.064
-350.493	-78.501	0.114	0.039
-349.479	4.317	0.121	0.087
-348.464	134.479	0.116	-0.148
-347.450	614.254	-0.094	-0.232
-346.435	-200.000	-0.009	0.094
-345.420	-136.674	-0.352	0.040
-344.406	-200.000	-0.014	-0.099
-343.391	800.000	0.076	0.293
-342.377	-200.000	0.004	-0.061
-341.362	517.532	0.090	0.207
-340.348	-200.000	-0.028	0.219
-339.333	532.155	0.120	-0.280
-338.318	440.847	0.104	-0.223
-337.304	160.553	-0.134	-0.185
-336.289	-96.653	-0.153	0.040
-335.275	-200.000	-0.075	-0.379
-334.260	-26.840	0.326	0.188
-333.245	-200.000	0.032	0.269
-332.231	-200.000	-0.104	-0.584
-331.216	-71.577	0.159	-0.059
-330.202	80.378	-0.080	0.084
-329.187	-37.090	-0.182	0.096
-328.172	800.000	0.033	-0.099
-327.158	-50.612	-0.095	0.044
-326.143	-78.148	0.107	0.036
-325.129	82.369	0.212	-0.227
-324.114	-133.691	0.332	0.041
-323.099	188.908	0.172	-0.253
-322.085	-107.614	-0.210	-0.045
-321.070	-150.136	0.233	0.018
-320.056	-71.859	-0.180	-0.066
-319.041	161.664	0.065	0.090
-318.026	-16.651	-0.257	0.160
-317.012	-7.231	0.232	0.155
-315.997	-200.000	0.029	0.469
-314.983	207.269	0.043	0.066
-313.968	79.640	0.050	0.053
-312.953	-113.047	0.473	-0.092
-311.939	86.351	-0.223	0.242
-310.924	-36.600	-0.205	0.109
-309.910	154.613	0.280	-0.379
-308.895	43.242	0.184	0.165
-307.880	-81.535	-0.014	0.005
-306.866	324.581	-0.079	-0.149
-305.851	71.929	0.109	-0.111
-304.837	-103.302	-0.271	-0.063
-303.822	-200.000	-0.042	0.203
-302.807	-83.976	0.359	0.112
-301.793	11.528	-0.107	0.081
-300.778	191.965	0.114	-0.169
-299.764	-10.350	0.117	0.076
-298.749	-200.000	0.053	-0.271
-297.735	267.985	0.052	-0.090
-296.720	349.620	0.089	0.174
-295.705	455.753	-0.187	0.408
-294.691	-37.460	-0.060	0.032
-293.676	-200.000	0.007	-0.092
-292.662	-83.252	-0.411	-0.130
-291.647	800.000	-0.062	0.195
-290.632	80.836	-0.317	-0.337
-289.618	-200.000	0.000	-0.090
-288.603	-43.929	0.391	-0.194
-287.589	-74.878	0.422	-0.149
-286.574	-200.000	-0.008	-0.070
-285.559	201.171	-0.022	-0.033
-284.545	17.134	-0.239	0.186
-283.530	-200.000	0.015	-0.232
-282.516	-95.637	-0.138	-0.036
-281.501	-129.521	0.127	-0.017
-280.486	-127.897	-0.228	0.032
-279.472	388.636	-0.083	0.169
-278.457	-58.950	-0.102	-0.043
-277.443	-48.168	-0.031	-0.014
-276.428	-100.154	0.095	-0.023
-275.413	-45.884	0.184	0.089
-274.399	78.061	-0.209	-0.219
-273.384	109.551	0.108	-0.127
-272.370	800.000	-0.087	0.295
-271.355	254.188	0.092	0.154
-270.340	-95.760	-0.359	0.094
-269.326	5.116	-0.236	0.171
-268.311	-161.045	0.653	0.034
-267.297	-200.000	0.030	-0.135
-266.282	-200.000	0.012	-0.087
-265.267	-83.608	-0.385	0.121
-264.253	-105.144	0.054	0.012
-263.238	-77.816	-0.083	0.028
-262.224	67.038	-0.213	0.213
-261.209	-92.777	0.363	0.100
-260.195	-87.471	-0.031	-0.009
-259.180	-158.692	0.067	0.004
-258.165	-160.902	0.167	-0.009
-257.151	-200.000	0.024	0.110
-256.136	396.475	-0.129	0.264
-255.122	-85.776	0.152	-0.046
-254.107	-41.070	-0.126	0.064
-253.092	-36.437	0.029	-0.015
-252.078	-186.800	-0.154	-0.002
-251.063	78.771	0.279	0.293
-250.049	-97.467	0.168	-0.043
-249.034	-105.938	-0.117	0.026
-248.019	-171.477	0.167	0.005
-247.005	-43.043	0.285	-0.142
-245.990	63.445	0.275	-0.271
-244.976	-200.000	0.016	0.155
-243.961	14.948	0.091	-0.070
-242.946	1.072	0.182	-0.128
-241.932	-23.481	0.068	0.040
-240.917	100.400	0.360	-0.410
-239.903	9.512	0.261	-0.194
-238.888	-109.916	0.057	-0.012
-237.873	-200.000	0.058	-0.342
-236.859	54.367	0.172	-0.163
-235.844	164.661	-0.134	0.186
-234.830	59.901	-0.186	0.180
-233.815	-200.000	0.055	0.408
-232.800	800.000	0.062	0.218
-231.786	-152.156	-0.168	0.012
-230.771	-200.000	-0.058	-0.284
-229.757	800.000	-0.013	0.047
-228.742	-77.692	-0.186	-0.063
-227.727	28.462	0.161	-0.133
-226.713	-6.520	0.148	-0.099
-225.698	558.663	-0.148	-0.351
-224.684	396.321	-0.162	-0.333
-223.669	-62.263	0.321	-0.131
-222.655	-106.694	-0.170	-0.037
-221.640	135.660	0.159	0.203
-220.625	-200.000	-0.005	-0.188
-219.611	73.976	0.099	-0.102
-218.596	39.251	0.125	0.110
-217.582	275.727	0.024	-0.042
-216.567	-170.812	-0.156	0.005
-215.552	360.807	0.053	-0.103
-214.538	448.197	0.061	0.132
-213.523	72.919	-0.068	-0.070
-212.509	-82.737	-0.273	-0.086
-211.494	-127.885	0.377	0.053
-210.479	82.482	-0.268	0.286
-209.465	-148.455	-0.256	0.021
-208.450	207.879	-0.142	-0.218
-207.436	0.907	-0.193	0.135
-206.421	-35.361	0.151	-0.080
-205.406	355.822	-0.078	0.152
-204.392	-148.511	0.199	-0.016
-203.377	73.936	0.060	-0.061
-202.363	-94.551	-0.078	0.021
-201.348	133.407	-0.062	-0.078
-200.333	-200.000	0.031	-0.241
-199.319	-134.678	0.175	-0.021
-198.304	-85.753	-0.119	-0.036
-197.290	-64.192	0.398	0.159
-196.275	-108.882	-0.480	0.101
-195.260	121.579	0.200	-0.244
-194.246	12.649	-0.178	0.134
-193.231	47.504	-0.040	0.037
-192.217	-5.104	-0.166	0.112
-191.202	-60.010	0.210	0.088
-190.187	-43.472	0.228	-0.113
-189.173	-39.870	0.113	-0.058
-188.158	774.660	0.172	-0.460
-187.144	-200.000	-0.017	-0.139
-186.129	-200.000	0.025	-0.210
-185.114	316.630	0.131	-0.242
-184.100	186.079	0.093	0.135
-183.085	-200.000	0.011	0.050
-182.071	221.747	0.156	-0.245
-181.056	-109.084	0.201	-0.042
-180.042	-1.708	0.325	-0.224
-179.027	243.284	-0.030	0.049
-178.012	-27.957	-0.182	-0.103
-176.998	38.100	0.223	0.194
-175.983	239.449	0.114	0.186
-174.969	649.189	0.027	-0.067
-173.954	-77.644	-0.115	0.039
-172.939	159.891	0.039	-0.053
-171.925	0.440	-0.102	-0.071
-170.910	-200.000	0.029	0.374
-169.896	17.982	-0.163	-0.127
-168.881	800.000	-0.054	0.232
-167.866	191.106	-0.184	-0.271
-166.852	172.187	0.150	0.212
-165.837	484.939	0.176	0.393
-164.823	-86.711	0.310	-0.093
-163.808	37.327	-0.027	-0.023
-162.793	-85.987	-0.114	0.035
-161.779	-51.837	0.048	0.022
-160.764	-59.893	-0.093	-0.039
-159.750	-83.722	0.062	-0.019
-158.735	-116.094	-0.295	-0.054
-157.720	10.765	-0.212	-0.158
-156.706	-200.000	0.042	-0.200
-155.691	-168.427	-0.196	-0.007
-154.677	-200.000	-0.027	-0.148
-153.662	123.566	-0.239	0.293
-152.647	198.034	-0.091	-0.136
-151.633	-200.000	0.027	0.130
-150.618	-199.763	0.337	-0.002
-149.604	28.370	0.153	-0.126
-148.589	-200.000	0.030	-0.271
-147.574	-115.759	0.132	-0.024
-146.560	-66.088	0.429	0.167
-145.545	258.487	0.198	0.333
-144.531	116.264	-0.318	0.381
-143.516	-200.000	0.001	0.042
-142.502	329.144	0.110	-0.206
-141.487	-3.411	0.244	0.166
-140.472	-24.560	-0.222	0.129
-139.458	-83.850	0.288	0.090
-138.443	152.941	-0.081	0.108
-137.429	-104.134	0.329	-0.075
-136.414	-200.000	-0.014	-0.156
-135.399	-38.126	-0.205	-0.106
-134.385	-169.075	0.248	0.009
-133.370	-200.000	-0.016	0.339
-132.356	85.904	0.120	0.129
-131.341	14.570	-0.058	0.044
-130.326	89.556	-0.077	0.084
-129.312	-200.000	-0.006	-0.081
-128.297	-35.571	-0.174	-0.092
-127.283	-85.932	0.237	0.072
-126.268	800.000	-0.186	-0.606
-125.253	147.983	0.058	0.076
-124.239	84.259	0.117	0.125
-123.224	-200.000	-0.019	0.134
-122.210	13.468	-0.159	0.121
-121.195	450.031	0.101	-0.218
-120.180	-200.000	0.008	0.099
-119.166	207.301	0.033	-0.050
-118.151	-33.829	0.263	-0.141
-117.137	-172.512	-0.085	-0.003
-116.122	1.224	0.264	0.185
-115.107	53.171	-0.017	0.016
-114.093	-147.371	0.317	0.026
-113.078	-200.000	-0.041	0.265
-112.064	421.542	-0.077	0.162
-111.049	-35.225	0.095	0.050
-110.034	-143.377	0.158	-0.015
-109.020	-200.000	0.023	0.122
-108.005	-200.000	0.073	0.312
-106.991	117.248	-0.116	-0.139
-105.976	-200.000	0.050	0.378
-104.962	147.848	0.150	0.197
-103.947	-108.946	0.172	0.036
-102.932	-80.654	0.066	0.021
-101.918	-123.147	0.391	-0.061
-100.903	298.489	-0.207	0.371
-99.889	28.637	0.089	0.074
-98.874	800.000	-0.074	-0.298
-97.859	-96.790	0.187	-0.048
-96.845	90.024	0.172	-0.188
-95.830	-59.967	-0.136	-0.057
-94.816	-72.134	0.346	-0.125
-93.801	78.648	0.095	0.099
-92.786	290.942	0.107	0.190
-91.772	122.454	-0.284	-0.347
-90.757	-139.967	-0.389	0.040
-89.743	86.282	0.031	0.033
-88.728	-200.000	0.210	0.000
-87.713	-200.000	-0.006	-0.259
-86.699	800.000	0.096	0.326
-85.684	-200.000	0.021	-0.240
-84.670	67.382	0.202	0.202
-83.655	16.973	-0.150	0.116
-82.640	-109.378	0.349	-0.072
-81.626	750.449	-0.071	-0.186
-80.611	-151.643	-0.125	-0.009
-79.597	497.907	0.120	-0.270
-78.582	226.188	0.083	-0.131
-77.567	-200.000	-0.006	0.113
-76.553	-200.000	-0.006	-0.060
-75.538	15.911	-0.158	-0.121
-74.524	177.205	-0.067	-0.095
-73.509	-127.255	0.047	0.007
-72.494	65.147	-0.208	-0.205
-71.480	-103.083	0.046	-0.011
-70.465	-6.988	0.140	-0.093
-69.451	-44.516	-0.051	-0.025
-68.436	17.350	-0.094	-0.073
-67.422	-50.625	0.407	-0.187
-66.407	-103.410	0.357	0.082
-65.392	72.342	0.063	0.064
-64.378	-151.792	0.351	0.025
-63.363	17.083	0.197	0.152
-62.349	800.000	-0.034	0.118
-61.334	128.641	-0.801	-0.995
-60.319	44.343	0.692	0.619
-59.305	149.936	-0.767	-1.014
-58.290	393.591	0.693	1.407
-57.276	800.000	0.608	1.854
-56.261	-200.000	125.010	646.872
-55.246	402.728	1578.025	3233.940
-54.232	141.664	2738.118	3534.942
-53.217	94.055	2190.438	2421.512
-52.203	33.612	1706.021	1445.061
-51.188	26.192	1523.389	1239.603
-50.173	24.302	1499.914	1207.661
-49.159	48.171	1571.689	1432.349
-48.144	45.435	1584.174	1424.649
-47.130	26.349	1532.925	1248.248
-46.115	23.431	1517.083	1215.322
-45.100	23.287	1513.663	1211.553
-44.086	23.213	1511.856	1209.553
-43.071	23.213	1509.760	1207.825
-42.057	23.177	1507.645	1205.844
-41.042	23.034	1506.305	1203.745
-40.027	23.190	1505.028	1203.739
-39.013	23.161	1503.729	1202.458
-37.998	23.133	1502.518	1201.248
-36.984	23.141	1501.767	1200.659
-35.969	23.237	1499.312	1199.298
-34.954	23.181	1497.919	1197.755
-33.940	23.126	1497.117	1196.698
-32.925	23.178	1495.531	1195.733
-31.911	23.234	1494.267	1195.052
-30.896	23.240	1493.038	1194.065
-29.881	23.279	1492.122	1193.547
-28.867	23.283	1490.479	1192.212
-27.852	23.223	1488.680	1190.322
-26.838	23.228	1487.640	1189.477
-25.823	23.189	1486.240	1188.049
-24.809	23.206	1484.542	1186.753
-23.794	23.199	1482.658	1185.159
-22.779	23.316	1481.785	1185.194
-21.765	23.270	1480.004	1183.416
-20.750	23.224	1479.478	1182.642
-19.736	23.215	1478.491	1181.742
-18.721	23.148	1477.434	1180.408
-17.706	23.215	1475.720	1179.437
-16.692	23.229	1475.141	1179.021
-15.677	23.133	1474.522	1177.842
-14.663	23.174	1473.516	1177.263
-13.648	23.139	1472.544	1176.202
-12.633	23.187	1471.471	1175.618
-11.619	23.177	1470.947	1175.092
-10.604	23.168	1469.749	1174.027
-9.590	23.198	1468.808	1173.427
-8.575	23.084	1468.123	1172.073
-7.560	23.075	1467.191	1171.228
-6.546	23.178	1466.631	1171.412
-5.531	23.218	1465.233	1170.518
-4.517	23.134	1464.538	1169.360
-3.502	23.119	1463.546	1168.419
-2.487	23.209	1462.304	1167.975
-1.473	23.248	1461.400	1167.468
-0.458	23.208	1459.894	1165.952
0.556	21.542	1450.088	1154.832
1.571	18.434	1426.294	1115.583
2.586	15.264	1364.753	1047.574
3.600	13.734	1281.192	974.363
4.615	12.763	1237.949	935.880
5.629	11.283	1180.562	884.392
6.644	5.439	1099.627	794.093
7.659	0.893	1063.288	745.429
8.673	0.348	1057.777	738.827
9.688	0.198	1055.182	736.216
10.702	0.101	1053.354	734.403
11.717	0.103	1051.140	732.803
12.731	1.904	1051.824	741.984
13.746	8.131	1060.088	778.219
14.761	14.221	1067.927	813.764
15.775	16.580	1070.494	827.196
16.790	16.332	1069.218	824.927
17.804	15.450	1067.385	819.136
18.819	14.590	1065.317	813.288
19.834	14.199	1064.142	810.415
20.848	13.951	1063.246	808.454
21.863	13.630	1062.694	806.402
22.877	13.501	1061.318	804.656
23.892	13.155	1060.599	802.359
24.907	13.307	1059.551	802.233
25.921	13.170	1058.838	800.959
26.936	13.280	1058.433	801.116
27.950	13.196	1057.866	800.211
28.965	13.291	1057.089	800.009
29.980	13.288	1056.219	799.266
30.994	13.410	1055.349	799.129
32.009	13.433	1054.096	798.220
33.023	13.329	1054.134	797.672
34.038	13.291	1053.374	796.847
35.053	13.490	1052.026	796.714
36.067	13.409	1050.951	795.440
37.082	13.368	1050.387	794.743
38.096	13.307	1049.691	793.857
39.111	13.526	1048.745	794.122
40.126	13.442	1048.026	793.102
41.140	13.269	1047.426	791.748
42.155	13.210	1046.316	790.561
43.169	13.168	1045.243	789.478
44.184	13.182	1044.505	788.918
45.199	13.224	1043.326	788.156
46.213	13.253	1042.148	787.335
47.228	13.190	1041.335	786.354
48.242	13.334	1039.856	785.849
49.257	13.244	1039.054	784.747
50.271	13.242	1038.241	784.055
51.286	13.348	1037.161	783.672
52.301	13.301	1036.253	782.692
53.315	13.294	1035.960	782.370
54.330	13.328	1035.047	781.770
55.344	13.166	1033.857	780.037
56.359	13.217	1032.580	779.248
57.374	13.194	1032.065	778.682
58.388	13.160	1031.112	777.732
59.403	13.144	1030.675	777.258
60.417	13.145	1029.634	776.411
61.432	13.243	1028.824	776.191
62.447	13.148	1028.343	775.312
63.461	13.104	1027.645	774.514
64.476	13.146	1026.355	773.669
65.490	13.071	1025.370	772.504
66.505	13.154	1024.616	772.256
67.520	13.091	1024.276	771.638
68.534	13.129	1023.325	771.034
69.549	13.148	1022.349	770.316
70.563	13.147	1021.701	769.754
71.578	13.159	1020.887	769.130
72.593	13.180	1019.868	768.391
73.607	13.177	1018.856	767.548
74.622	13.103	1017.839	766.368
75.636	12.939	1017.737	765.464
76.651	13.100	1016.512	765.220
77.666	13.106	1015.839	764.676
78.680	13.154	1014.795	764.042
79.695	13.153	1014.799	763.975
80.709	13.082	1014.352	763.240
81.724	13.269	1012.551	762.680
82.739	13.311	1012.145	762.502
83.753	13.134	1011.777	761.341
84.768	13.292	1010.637	761.143
85.782	13.319	1010.051	760.760
86.797	13.461	1009.118	760.644
87.812	13.358	1008.342	759.517
88.826	13.215	1007.353	758.046
89.841	13.243	1006.803	757.695
90.855	13.346	1005.589	757.186
91.870	13.274	1005.457	756.693
92.884	13.433	1004.253	756.443
93.899	13.438	1003.407	755.762
94.914	13.458	1002.744	755.287
95.928	13.450	1001.830	754.495
96.943	13.496	1001.623	754.482
97.957	13.513	1000.570	753.699
98.972	13.347	999.809	752.305
99.987	13.411	999.232	752.095
101.001	13.512	998.217	751.726
102.016	13.375	997.826	750.743
103.030	13.377	996.753	749.878
104.045	13.394	995.548	748.984
105.060	13.449	994.093	748.070
106.074	13.322	993.867	747.261
107.089	13.297	993.051	746.467
108.103	13.311	992.167	745.801
109.118	13.273	991.466	745.034
110.133	13.217	990.535	744.017
111.147	13.306	989.760	743.768
112.162	13.152	988.674	742.197
113.176	13.331	987.710	742.211
114.191	13.449	986.789	741.983
115.206	13.379	985.910	740.943
116.220	13.159	985.777	739.790
117.235	13.307	984.381	739.340
118.249	13.266	983.673	738.560
119.264	13.288	982.713	737.870
120.279	13.349	981.978	737.526
121.293	13.286	980.861	736.341
122.308	13.395	980.137	736.217
123.322	13.363	979.305	735.386
124.337	13.263	978.442	734.227
125.352	13.235	977.419	733.271
126.366	13.211	976.455	732.377
127.381	13.271	975.079	731.547
128.395	13.262	974.513	731.018
129.410	13.179	973.380	729.735
130.424	13.259	972.339	729.242
131.439	13.246	971.397	728.416
132.454	13.351	970.443	728.096
133.468	13.342	970.182	727.799
134.483	13.288	969.256	726.799
135.497	13.363	968.397	726.424
136.512	13.486	967.398	726.150
137.527	13.378	966.856	725.201
138.541	13.284	966.371	724.365
139.556	13.289	965.531	723.693
140.570	13.316	964.678	723.104
141.585	13.399	963.875	722.802
142.600	13.379	963.279	722.204
143.614	13.527	962.476	722.186
144.629	13.437	962.023	721.388
145.643	13.472	961.081	720.771
146.658	13.526	960.183	720.267
147.673	13.455	959.157	719.127
148.687	13.495	958.387	718.661
149.702	13.502	957.460	717.930
150.716	13.374	956.627	716.686
151.731	13.521	955.610	716.498
152.746	13.530	955.158	716.137
153.760	13.446	954.307	715.071
154.775	13.551	953.646	714.968
155.789	13.602	952.748	714.448
156.804	13.558	952.283	713.847
157.819	13.579	951.260	713.109
158.833	13.554	950.842	712.624
159.848	13.680	949.780	712.306
160.862	13.712	949.579	712.229
161.877	13.738	948.690	711.613
162.892	13.762	947.439	710.713
163.906	13.571	946.835	709.380
164.921	13.513	946.029	708.465
165.935	13.466	945.497	707.803
166.950	13.639	944.125	707.453
167.964	13.746	942.986	706.993
168.979	13.664	942.311	706.072
169.994	13.720	941.510	705.651
171.008	13.495	940.893	704.168
172.023	13.706	939.552	704.000
173.037	13.723	938.967	703.569
174.052	13.777	938.416	703.323
175.067	13.695	937.740	702.407
176.081	13.654	936.989	701.608
177.096	13.614	936.211	700.793
178.110	13.611	935.375	700.092
179.125	13.732	934.300	699.739
180.140	13.692	933.398	698.832
181.154	13.752	932.994	698.720
182.169	13.619	932.750	697.916
183.183	13.815	931.471	697.722
184.198	13.746	931.172	697.145
185.213	13.837	930.139	696.694
186.227	13.933	929.605	696.633
187.242	14.008	929.181	696.570
188.256	13.912	928.679	695.728
189.271	13.909	927.920	695.087
190.286	13.909	927.178	694.470
191.300	13.893	926.208	693.613
192.315	13.726	925.701	692.477
193.329	13.837	924.999	692.355
194.344	13.827	924.115	691.589
195.359	13.657	924.220	690.897
196.373	13.809	923.505	690.933
197.388	13.958	922.599	690.816
198.402	13.939	922.490	690.594
199.417	14.137	921.662	690.734
200.432	14.175	920.831	690.207
201.446	14.221	920.474	690.071
202.461	14.115	920.497	689.585
203.475	14.246	919.738	689.499
204.490	14.233	918.797	688.682
205.504	14.199	917.974	687.860
206.519	14.055	917.600	686.925
207.534	14.244	916.669	686.947
208.548	14.117	916.047	685.897
209.563	14.223	915.360	685.761
210.577	14.115	914.752	684.798
211.592	14.191	914.037	684.513
212.607	14.279	913.326	684.284
213.621	14.242	912.795	683.674
214.636	14.322	911.969	683.323
215.650	14.295	911.615	682.885
216.665	14.209	911.228	682.183
217.680	14.286	910.646	682.002
218.694	14.415	909.675	681.740
219.709	14.495	909.321	681.742
220.723	14.421	908.654	680.882
221.738	14.362	908.418	680.404
222.753	14.357	907.361	679.529
223.767	14.283	906.862	678.794
224.782	14.385	905.897	678.428
225.796	14.470	904.913	677.979
226.811	14.504	904.196	677.519
227.826	14.530	903.553	677.081
228.840	14.479	902.722	676.193
229.855	14.518	902.349	676.013
230.869	14.400	901.680	674.971
231.884	14.396	901.132	674.487
232.899	14.452	900.432	674.128
233.913	14.504	899.965	673.931
234.928	14.448	899.305	673.150
235.942	14.351	898.751	672.282
236.957	14.513	897.552	671.980
237.972	14.470	897.001	671.336
238.986	14.447	896.400	670.732
240.001	14.467	895.982	670.444
241.015	14.450	895.244	669.762
242.030	14.582	894.232	669.478
243.045	14.630	893.635	669.161
244.059	14.629	893.074	668.678
245.074	14.543	892.811	668.077
246.088	14.655	891.949	667.821
247.103	14.636	891.341	667.232
248.117	14.645	890.676	666.712
249.132	14.868	889.931	666.985
250.147	14.745	889.759	666.303
251.161	14.875	888.586	665.884
252.176	14.672	887.886	664.496
253.190	14.877	887.063	664.633
254.205	15.151	886.561	665.288
255.220	14.974	886.602	664.558
256.234	14.937	885.240	663.333
257.249	14.915	885.074	663.059
258.263	14.935	884.738	662.831
259.278	14.990	883.713	662.220
260.293	14.973	883.545	661.969
261.307	14.902	883.022	661.236
262.322	15.159	881.769	661.254
263.336	15.124	881.716	661.017
264.351	15.137	880.784	660.312
265.366	15.097	880.150	659.620
266.380	15.187	879.292	659.273
267.395	15.236	879.074	659.245
268.409	15.159	878.599	658.527
269.424	15.213	877.413	657.793
270.439	15.133	877.139	657.216
271.453	15.131	876.391	656.591
272.468	15.261	875.314	656.231
273.482	15.194	874.716	655.465
274.497	15.120	874.161	654.702
275.512	15.255	873.062	654.348
276.526	15.214	872.498	653.705
277.541	15.179	871.949	653.102
278.555	15.274	871.355	652.969
279.570	15.333	871.304	653.101
280.585	15.385	870.494	652.639
281.599	15.460	869.627	652.223
282.614	15.416	868.956	651.492
283.628	15.373	868.430	650.872
284.643	15.351	868.152	650.521
285.657	15.400	867.296	650.012
286.672	15.446	866.957	649.879
287.687	15.459	866.395	649.450
288.701	15.477	866.065	649.215
289.716	15.380	865.204	648.139
290.730	15.571	864.612	648.372
291.745	15.369	864.018	647.094
292.760	15.508	863.320	647.046
293.774	15.416	862.861	646.293
294.789	15.549	862.102	646.177
295.803	15.591	861.352	645.719
296.818	15.620	860.985	645.500
297.833	15.641	860.204	644.938
298.847	15.613	859.552	644.284
299.862	15.773	858.588	644.117
300.876	15.790	857.832	643.560
301.891	15.611	857.718	642.732
302.906	15.622	856.770	642.004
303.920	15.842	855.712	641.995
304.935	15.881	855.462	641.899
305.949	15.836	855.186	641.466
306.964	15.782	854.943	641.020
307.979	15.903	853.916	640.652
308.993	15.690	853.682	639.612
310.008	15.760	852.930	639.258
311.022	15.853	852.301	639.080
312.037	15.916	852.104	639.116
313.052	15.971	851.215	638.601
314.066	15.878	850.682	637.793
315.081	15.663	850.317	636.648
316.095	15.836	849.350	636.524
317.110	15.938	848.823	636.456
318.125	15.897	848.061	635.676
319.139	15.864	847.866	635.349
320.154	15.912	847.481	635.184
321.168	15.910	846.344	634.268
322.183	15.983	846.006	634.235
323.197	15.940	845.684	633.773
324.212	16.008	845.200	633.610
325.227	15.940	844.466	632.750
326.241	15.879	844.224	632.284
327.256	15.982	843.507	632.077
328.270	15.942	842.870	631.392
329.285	15.991	842.667	631.370
330.300	16.009	841.685	630.646
331.314	15.950	841.107	629.936
332.329	16.154	840.483	630.174
333.343	16.007	840.105	629.285
334.358	16.181	839.311	629.283
335.373	16.140	838.453	628.433
336.387	16.290	837.958	628.564
337.402	16.094	838.052	627.851
338.416	16.177	837.261	627.510
339.431	16.313	836.772	627.594
340.446	16.436	835.577	627.099
341.460	16.312	835.113	626.234
342.475	16.343	834.479	625.821
343.489	16.536	834.271	626.322
344.504	16.377	833.764	625.298
345.519	16.380	833.130	624.779
346.533	16.435	832.741	624.636
347.548	16.478	832.186	624.324
348.562	16.318	831.975	623.518
349.577	16.429	831.101	623.219
350.592	16.459	830.246	622.633
351.606	16.352	830.388	622.290
352.621	16.319	830.091	621.891
353.635	16.346	829.636	621.594
354.650	16.395	829.193	621.386
355.665	16.454	828.508	621.033
356.679	16.398	828.243	620.575
357.694	16.616	827.341	620.646
358.708	16.589	827.042	620.268
359.723	16.581	826.279	619.608
360.738	16.533	825.613	618.881
361.752	16.643	825.270	618.970
362.767	16.673	825.098	618.895
363.781	16.738	824.455	618.598
364.796	16.584	824.082	617.701
365.810	16.737	823.432	617.716
366.825	16.624	823.494	617.294
367.840	16.724	822.850	617.121
368.854	16.841	822.271	617.060
369.869	16.778	821.852	616.463
370.883	16.615	821.496	615.548
371.898	16.732	820.800	615.398
372.913	16.842	820.077	615.200
373.927	16.737	819.677	614.464
374.942	16.959	818.562	614.379
375.956	16.742	818.447	613.451
376.971	17.048	817.612	613.879
377.986	16.922	817.090	612.975
379.000	17.003	816.581	612.833
380.015	17.008	816.155	612.477
381.029	16.891	816.009	611.891
382.044	17.022	815.187	611.692
383.059	17.019	814.212	610.894
384.073	17.034	813.977	610.718
385.088	16.987	813.635	610.240
386.102	16.848	813.016	609.222
387.117	17.080	812.487	609.604
388.132	17.112	811.671	609.053
389.146	16.943	811.729	608.435
390.161	16.964	811.598	608.360
391.175	17.075	811.299	608.481
392.190	17.127	810.534	608.038
393.205	17.080	809.812	607.275
394.219	17.152	809.671	607.372
395.234	17.129	809.008	606.738
396.248	17.148	808.525	606.393
397.263	17.062	807.836	605.514
398.278	16.936	807.765	604.957
399.292	16.946	807.245	604.552
400.307	17.012	806.900	604.473
401.321	17.060	806.532	604.315
402.336	17.156	805.743	604.013
403.350	17.152	805.535	603.789
404.365	17.157	805.242	603.535
405.380	17.135	804.933	603.171
406.394	17.339	804.231	603.313
407.409	17.302	803.932	602.908
408.423	17.329	803.150	602.364
409.438	17.264	802.738	601.771
410.453	17.274	802.687	601.713
411.467	17.444	801.743	601.554
412.482	17.377	801.330	600.954
413.496	17.537	800.812	601.078
414.511	17.656	800.320	601.076
415.526	17.459	800.277	600.294
416.540	17.496	800.128	600.258
417.555	17.544	799.435	599.856
418.569	17.491	798.874	599.194
419.584	17.583	798.273	599.014
420.599	17.623	797.939	598.850
421.613	113.750	1297.609	1487.979
422.628	98.002	1370.365	1488.047
