DTS Sentinel unit serial number:	SN413079Multiplexer serial number:	ORYXHardware model number:	OX4-SRSoftware version number:	ORYX F/W v4.00 Oryx Data Collector v3.7.2.0data status	okinstallation	princeton_trtdifferential loss correction	single-endedforward channel	channel 3reverse channel	N/Adate	2019/09/12time	20:52:35forward acquisition time	60.00reverse acquisition time	0.00gamma	496.2192k internal	0.2324k external	0.2324temperature offset calibration	1.0130default loss term (dB/km)	0.3790temperature slope calibration	1.0000multiplexer offset coefficient	1.0000multiplexer slope coefficient	1.0000fibre end	0.00T internal ref (°C)	30.94T ext. ref 1 (°C)	3.60T ext. ref 2 (°C)	25.54length (m)	temperature (°C)	Stokes	anti-Stokes-747.200	230.282	0.102	-0.168
-746.185	-200.000	-0.101	0.492
-745.171	107.533	0.043	0.052
-744.156	-36.254	-0.108	0.059
-743.142	168.940	-0.194	0.280
-742.127	-108.665	0.180	-0.039
-741.112	-35.078	-0.149	-0.082
-740.098	385.344	-0.094	0.196
-739.083	312.844	-0.090	0.171
-738.069	166.652	0.049	0.071
-737.054	-160.952	0.202	-0.011
-736.039	103.956	0.088	-0.104
-735.025	-0.710	-0.205	-0.147
-734.010	-200.000	-0.071	-0.436
-732.996	800.000	-0.137	-0.483
-731.981	361.652	0.076	0.153
-730.966	-11.030	-0.077	0.051
-729.952	705.568	-0.122	-0.324
-728.937	-200.000	0.041	-0.494
-727.923	54.706	-0.032	0.031
-726.908	-136.201	-0.241	0.028
-725.894	-200.000	0.018	-0.284
-724.879	147.390	-0.239	-0.325
-723.864	127.252	-0.200	-0.256
-722.850	690.183	-0.150	-0.395
-721.835	314.480	0.139	-0.265
-720.821	501.293	0.147	0.342
-719.806	180.179	-0.053	-0.078
-718.791	800.000	-0.045	0.136
-717.777	-59.835	-0.220	-0.095
-716.762	-200.000	0.021	-0.152
-715.748	-36.074	0.079	0.043
-714.733	19.609	-0.142	0.115
-713.718	352.873	0.080	0.160
-712.704	-200.000	0.015	-0.070
-711.689	549.779	-0.099	-0.240
-710.675	-200.000	-0.064	-0.533
-709.660	-123.717	0.229	-0.037
-708.645	186.899	0.082	-0.123
-707.631	5.298	0.072	-0.054
-706.616	-86.288	0.182	0.056
-705.602	-17.453	-0.160	-0.102
-704.587	46.527	-0.209	0.195
-703.572	-200.000	-0.007	-0.267
-702.558	800.000	0.106	0.333
-701.543	-50.374	0.049	-0.023
-700.529	-200.000	0.041	-0.358
-699.514	252.874	0.062	-0.107
-698.499	88.161	0.019	0.021
-697.485	-19.947	0.223	-0.139
-696.470	52.916	-0.159	-0.153
-695.456	-78.255	0.119	-0.041
-694.441	-117.506	-0.270	0.049
-693.426	12.776	0.247	-0.192
-692.412	-129.211	0.011	0.002
-691.397	270.147	0.159	0.281
-690.383	-200.000	0.021	-0.188
-689.368	-43.351	-0.423	-0.216
-688.354	189.493	-0.149	0.225
-687.339	17.912	0.074	-0.059
-686.324	-30.170	0.077	-0.044
-685.310	353.168	0.176	0.351
-684.295	-9.037	-0.177	-0.119
-683.281	-39.192	-0.253	-0.134
-682.266	-119.541	0.079	-0.014
-681.251	-68.961	0.134	-0.052
-680.237	-25.720	-0.383	-0.228
-679.222	-38.791	0.063	-0.033
-678.208	-105.043	0.075	-0.017
-677.193	-95.348	-0.204	-0.055
-676.178	-45.544	0.124	0.062
-675.164	61.669	-0.156	0.157
-674.149	33.290	0.272	-0.238
-673.135	88.393	-0.075	-0.084
-672.120	146.396	-0.108	-0.146
-671.105	-28.671	0.144	0.083
-670.091	684.104	-0.026	-0.067
-669.076	-71.877	-0.346	0.130
-668.062	-200.000	0.028	-0.172
-667.047	-80.912	0.328	-0.109
-666.032	800.000	0.047	0.134
-665.018	-200.000	0.020	-0.125
-664.003	93.974	-0.206	0.235
-662.989	-152.750	0.280	0.020
-661.974	193.163	-0.135	-0.206
-660.959	461.664	0.098	-0.219
-659.945	-200.000	-0.004	-0.148
-658.930	-159.780	-0.562	0.031
-657.916	12.487	-0.026	-0.020
-656.901	238.505	0.061	-0.102
-655.886	562.840	-0.146	-0.355
-654.872	326.880	0.076	0.147
-653.857	-6.627	0.134	0.092
-652.843	-200.000	0.053	-0.239
-651.828	-23.133	0.572	-0.347
-650.814	-152.014	-0.134	-0.010
-649.799	-200.000	0.002	0.223
-648.784	108.958	0.091	0.110
-647.770	344.650	-0.129	0.255
-646.755	-129.205	-0.119	0.017
-645.741	-136.417	-0.327	0.038
-644.726	-178.318	-0.225	0.005
-643.711	-17.647	0.121	-0.077
-642.697	-16.874	-0.293	0.186
-641.682	-108.555	0.317	-0.068
-640.668	-200.000	-0.055	0.286
-639.653	-106.369	0.208	-0.047
-638.638	800.000	-0.105	-0.363
-637.624	-157.412	0.329	-0.020
-636.609	-9.106	-0.245	0.165
-635.595	-200.000	-0.038	0.173
-634.580	498.650	-0.162	0.375
-633.565	-0.567	-0.178	0.127
-632.551	-41.880	-0.351	0.181
-631.536	-91.662	0.160	-0.046
-630.522	297.569	-0.112	0.207
-629.507	-138.776	-0.229	-0.025
-628.492	-165.404	0.343	0.015
-627.478	-106.998	-0.146	0.032
-626.463	800.000	-0.019	0.059
-625.449	-200.000	0.034	-0.199
-624.434	-200.000	-0.012	0.063
-623.419	-88.700	0.170	-0.051
-622.405	-200.000	-0.059	-0.259
-621.390	54.997	0.209	-0.203
-620.376	595.695	0.064	-0.158
-619.361	115.622	-0.161	0.197
-618.346	747.842	0.037	0.101
-617.332	-200.000	0.007	-0.055
-616.317	152.581	0.198	-0.271
-615.303	-200.000	0.016	0.273
-614.288	-150.107	-0.315	-0.025
-613.273	-180.263	0.156	-0.003
-612.259	-98.640	-0.368	0.094
-611.244	-178.738	-0.245	0.006
-610.230	-180.409	-0.275	0.006
-609.215	205.726	0.256	-0.400
-608.201	-98.119	-0.150	-0.039
-607.186	-53.807	0.284	0.130
-606.171	413.383	-0.121	0.259
-605.157	-37.677	-0.029	-0.015
-604.142	-101.847	0.363	-0.088
-603.128	-66.078	-0.138	0.055
-602.113	92.922	0.076	0.086
-601.098	100.416	0.204	-0.238
-600.084	-187.780	0.128	-0.002
-599.069	158.060	0.089	-0.124
-598.055	-200.000	-0.002	0.382
-597.040	679.145	-0.043	0.113
-596.025	800.000	0.035	0.124
-595.011	-95.150	0.153	0.041
-593.996	-88.938	-0.346	-0.103
-592.982	-12.418	0.056	-0.037
-591.967	-37.026	-0.231	-0.124
-590.952	307.419	0.069	-0.128
-589.938	-100.157	0.071	0.018
-588.923	-200.000	0.064	-0.307
-587.909	-63.343	-0.201	0.083
-586.894	-200.000	0.047	-0.346
-585.879	218.230	0.096	-0.153
-584.865	145.203	0.248	-0.333
-583.850	-146.345	-0.452	-0.040
-582.836	-29.845	-0.245	0.140
-581.821	-7.644	-0.103	-0.070
-580.806	-52.396	0.105	0.049
-579.792	-68.049	0.289	-0.113
-578.777	-200.000	-0.009	-0.093
-577.763	-200.000	0.002	-0.053
-576.748	-20.099	-0.101	0.062
-575.733	93.044	0.068	0.077
-574.719	431.784	0.050	-0.108
-573.704	138.120	-0.075	-0.098
-572.690	-157.506	0.098	0.006
-571.675	-21.120	-0.236	0.145
-570.661	-200.000	0.002	-0.276
-569.646	83.034	0.010	-0.010
-568.631	-111.948	0.237	-0.048
-567.617	-61.428	-0.216	-0.091
-566.602	-200.000	0.028	0.204
-565.588	9.275	0.262	-0.199
-564.573	-200.000	-0.025	-0.170
-563.558	135.802	0.121	0.158
-562.544	303.196	0.104	0.193
-561.529	83.471	-0.189	0.206
-560.515	43.755	-0.149	-0.136
-559.500	-200.000	0.042	-0.296
-558.485	-97.548	-0.094	-0.024
-557.471	373.747	0.091	0.185
-556.456	800.000	0.038	-0.138
-555.442	-200.000	0.110	-0.000
-554.427	800.000	0.037	-0.140
-553.412	410.268	0.271	-0.576
-552.398	87.465	0.255	0.283
-551.383	212.895	0.021	0.033
-550.369	800.000	0.090	0.297
-549.354	-35.664	-0.053	-0.029
-548.339	223.106	0.037	-0.060
-547.325	35.846	0.142	-0.125
-546.310	64.527	0.120	0.121
-545.296	7.703	0.208	0.156
-544.281	-144.874	0.157	0.014
-543.266	-200.000	-0.024	0.201
-542.252	800.000	-0.069	-0.260
-541.237	-133.118	-0.059	-0.007
-540.223	-68.408	0.153	0.060
-539.208	-135.963	-0.161	0.019
-538.193	481.455	-0.090	0.204
-537.179	-200.000	0.003	0.042
-536.164	800.000	0.054	0.164
-535.150	218.160	-0.065	-0.104
-534.135	60.997	0.020	-0.020
-533.121	0.297	-0.307	-0.219
-532.106	434.848	0.145	0.315
-531.091	-144.120	-0.335	0.031
-530.077	86.896	0.145	0.160
-529.062	-113.384	0.149	0.029
-528.048	-16.664	0.251	-0.159
-527.033	163.013	0.063	0.089
-526.018	-200.000	0.049	-0.244
-525.004	59.912	0.228	0.225
-523.989	-86.582	-0.148	-0.045
-522.975	54.570	0.206	-0.199
-521.960	72.833	-0.228	0.238
-520.945	-108.604	0.050	-0.011
-519.931	40.504	0.078	-0.070
-518.916	-182.378	-0.110	0.002
-517.902	-84.518	0.143	-0.045
-516.887	13.708	0.233	0.181
-515.872	800.000	0.047	0.192
-514.858	800.000	0.016	0.049
-513.843	-64.778	0.266	-0.108
-512.829	800.000	0.021	-0.079
-511.814	-200.000	-0.057	0.311
-510.799	167.579	0.343	-0.488
-509.785	136.648	-0.239	-0.311
-508.770	-94.330	-0.070	-0.019
-507.756	-156.974	0.151	-0.009
-506.741	-81.071	-0.176	-0.058
-505.726	-66.873	-0.032	-0.012
-504.712	-71.091	0.163	-0.061
-503.697	82.234	0.045	0.049
-502.683	-73.987	-0.683	0.248
-501.668	-172.476	-0.301	-0.010
-500.653	-105.533	0.226	0.051
-499.639	96.897	-0.052	-0.060
-498.624	-26.884	-0.119	-0.070
-497.610	-39.884	-0.045	-0.024
-496.595	-10.800	0.160	-0.106
-495.581	-122.861	-0.247	-0.040
-494.566	-143.530	0.383	0.036
-493.551	800.000	0.122	0.416
-492.537	275.719	0.190	0.337
-491.522	21.558	0.065	0.053
-490.508	368.462	-0.059	-0.119
-489.493	11.928	0.060	0.046
-488.478	-43.013	-0.084	0.043
-487.464	800.000	-0.057	0.160
-486.449	63.417	-0.174	-0.174
-485.435	-76.958	-0.093	-0.033
-484.420	-200.000	-0.032	-0.504
-483.405	-175.214	-0.252	0.007
-482.391	318.049	0.079	-0.149
-481.376	800.000	0.159	-0.528
-480.362	-49.146	0.153	-0.073
-479.347	-200.000	-0.019	0.333
-478.332	12.459	0.138	0.106
-477.318	-1.539	-0.115	-0.081
-476.303	-99.465	-0.218	0.055
-475.289	298.157	-0.152	-0.279
-474.274	383.505	-0.115	-0.237
-473.259	-179.481	0.347	-0.008
-472.245	-169.378	-0.177	0.006
-471.230	-84.949	0.165	-0.052
-470.216	121.716	-0.007	0.009
-469.201	382.926	-0.080	0.164
-468.186	-200.000	0.014	0.217
-467.172	-200.000	0.018	-0.197
-466.157	-84.705	-0.254	-0.080
-465.143	-97.869	-0.036	-0.009
-464.128	435.769	0.125	0.271
-463.113	99.929	-0.158	-0.183
-462.099	-143.412	0.371	0.035
-461.084	-179.286	-0.323	-0.007
-460.070	-200.000	0.002	0.068
-459.055	800.000	-0.087	0.332
-458.040	6.029	-0.090	-0.066
-457.026	-127.251	-0.230	0.034
-456.011	-14.139	-0.295	-0.190
-454.997	12.282	0.122	-0.094
-453.982	-128.376	0.225	-0.032
-452.968	-200.000	-0.024	0.314
-451.953	-200.000	0.045	-0.260
-450.938	218.654	0.008	-0.013
-449.924	-182.315	0.187	-0.003
-448.909	-6.541	-0.229	0.155
-447.895	-45.875	0.090	0.044
-446.880	800.000	-0.053	-0.157
-445.865	278.432	-0.115	0.205
-444.851	117.473	0.092	-0.113
-443.836	-126.004	-0.249	-0.037
-442.822	196.753	-0.119	0.181
-441.807	292.469	-0.191	-0.346
-440.792	-61.309	0.140	0.059
-439.778	106.684	0.285	-0.337
-438.763	416.889	-0.046	-0.099
-437.749	-200.000	0.079	-0.368
-436.734	2.933	0.105	0.076
-435.719	-44.124	0.139	-0.070
-434.705	-177.759	0.260	-0.006
-433.690	-130.485	-0.237	-0.032
-432.676	-200.000	0.010	-0.098
-431.661	-50.258	-0.133	-0.063
-430.646	-37.687	-0.269	-0.143
-429.632	102.545	-0.091	-0.106
-428.617	-145.576	0.191	-0.017
-427.603	-200.000	-0.044	-0.193
-426.588	189.491	-0.137	0.205
-425.573	36.958	0.116	-0.102
-424.559	-180.924	-0.046	-0.001
-423.544	220.783	-0.041	-0.066
-422.530	-33.438	0.088	-0.048
-421.515	9.153	-0.152	-0.114
-420.500	-200.000	0.001	0.252
-419.486	-50.990	-0.159	-0.075
-418.471	145.560	-0.050	0.067
-417.457	51.861	0.194	-0.184
-416.442	-11.956	0.186	-0.122
-415.428	-62.786	-0.162	0.067
-414.413	384.018	0.117	-0.241
-413.398	-100.236	-0.238	-0.059
-412.384	800.000	0.034	-0.133
-411.369	800.000	-0.094	0.289
-410.355	-146.741	-0.110	0.009
-409.340	-33.796	0.091	-0.050
-408.325	-179.541	-0.224	0.005
-407.311	81.563	0.050	0.054
-406.296	-7.803	-0.195	0.131
-405.282	-200.000	-0.006	-0.237
-404.267	-156.593	-0.281	-0.017
-403.252	800.000	0.034	-0.123
-402.238	-62.653	0.313	-0.129
-401.223	567.228	-0.038	-0.092
-400.209	32.227	0.063	0.054
-399.194	-200.000	0.001	0.022
-398.179	104.086	-0.094	0.110
-397.165	493.444	0.089	0.204
-396.150	-200.000	0.079	0.381
-395.136	123.341	-0.095	0.119
-394.121	800.000	0.052	-0.195
-393.106	130.071	0.079	0.100
-392.092	229.241	0.118	0.191
-391.077	800.000	-0.086	-0.269
-390.063	301.922	-0.167	-0.308
-389.048	4.348	0.367	-0.268
-388.033	-116.373	-0.575	0.106
-387.019	-170.384	0.203	0.007
-386.004	-120.291	0.249	-0.042
-384.990	179.808	0.334	0.487
-383.975	800.000	0.103	0.347
-382.960	28.576	-0.144	0.121
-381.946	-200.000	0.042	-0.275
-380.931	-102.951	0.338	-0.080
-379.917	-200.000	-0.032	-0.169
-378.902	-117.726	0.381	-0.068
-377.888	-20.406	-0.115	-0.071
-376.873	-200.000	0.053	0.314
-375.858	-200.000	0.025	0.246
-374.844	197.344	-0.221	0.335
-373.829	800.000	-0.047	0.150
-372.815	-200.000	-0.010	0.183
-371.800	-200.000	-0.028	0.172
-370.785	-160.635	0.099	-0.005
-369.771	-200.000	-0.064	0.367
-368.756	39.594	-0.146	-0.130
-367.742	-86.048	0.103	-0.032
-366.727	346.603	-0.101	0.198
-365.712	-200.000	0.019	0.110
-364.698	-104.685	0.118	0.027
-363.683	464.246	0.055	-0.123
-362.669	253.378	-0.038	-0.065
-361.654	10.100	-0.106	0.080
-360.639	-200.000	-0.056	0.291
-359.625	238.841	0.118	0.195
-358.610	-70.283	0.281	-0.106
-357.596	-52.447	0.273	0.126
-356.581	-65.036	-0.175	-0.070
-355.566	239.997	-0.096	-0.159
-354.552	-200.000	-0.058	0.270
-353.537	-136.172	-0.216	-0.025
-352.523	-174.305	-0.466	-0.013
-351.508	-135.984	0.376	-0.044
-350.493	-13.533	-0.241	-0.155
-349.479	333.469	0.088	0.169
-348.464	-200.000	0.010	-0.161
-347.450	800.000	0.120	0.341
-346.435	-200.000	-0.044	-0.197
-345.420	800.000	-0.045	-0.128
-344.406	414.029	0.180	-0.381
-343.391	164.683	0.161	0.225
-342.377	800.000	-0.089	-0.372
-341.362	-200.000	-0.009	0.076
-340.348	128.118	-0.088	-0.111
-339.333	-1.865	0.065	-0.045
-338.318	28.068	-0.177	-0.149
-337.304	800.000	0.071	-0.302
-336.289	398.252	0.112	-0.233
-335.275	485.901	-0.072	0.163
-334.260	-200.000	0.010	0.092
-333.245	-74.428	-0.324	0.116
-332.231	66.139	0.168	0.169
-331.216	541.580	0.098	-0.231
-330.202	43.177	0.346	0.314
-329.187	-133.221	-0.222	0.028
-328.172	-200.000	0.038	0.210
-327.158	-166.114	0.367	-0.015
-326.143	-134.034	-0.247	-0.030
-325.129	-78.034	-0.321	0.110
-324.114	-68.065	0.187	-0.072
-323.099	-139.731	0.196	-0.021
-322.085	127.029	0.078	-0.099
-321.070	-133.431	-0.281	-0.035
-320.056	-200.000	-0.025	0.170
-319.041	-200.000	-0.039	-0.303
-318.026	94.917	-0.260	0.294
-317.012	31.660	-0.102	-0.087
-315.997	-171.120	-0.143	-0.005
-314.983	-200.000	-0.024	-0.279
-313.968	-0.310	-0.073	0.051
-312.953	-82.885	-0.213	0.068
-311.939	-200.000	-0.018	-0.098
-310.924	129.833	-0.024	0.031
-309.910	800.000	0.074	-0.219
-308.895	-7.904	0.106	0.071
-307.880	-200.000	-0.031	0.301
-306.866	105.625	-0.222	-0.261
-305.851	-183.705	0.295	0.005
-304.837	-200.000	0.010	-0.126
-303.822	-200.000	0.008	0.240
-302.807	10.636	-0.125	-0.094
-301.793	12.956	0.207	0.159
-300.778	422.654	0.120	-0.255
-299.764	51.641	-0.130	0.123
-298.749	-200.000	-0.014	-0.079
-297.735	-136.416	0.213	0.025
-296.720	24.841	-0.252	0.207
-295.705	51.676	0.345	0.325
-294.691	570.615	0.023	0.055
-293.676	98.910	0.274	-0.314
-292.662	-73.520	0.383	0.138
-291.647	-200.000	-0.015	-0.069
-290.632	-69.367	0.124	0.047
-289.618	-200.000	-0.062	0.289
-288.603	-200.000	-0.036	0.188
-287.589	-200.000	0.020	-0.134
-286.574	461.209	0.096	0.212
-285.559	-115.963	-0.102	-0.019
-284.545	-35.159	-0.238	-0.129
-283.530	189.347	-0.052	-0.077
-282.516	-121.455	0.266	-0.044
-281.501	-77.682	-0.247	-0.085
-280.486	-74.513	-0.151	-0.054
-279.472	36.402	-0.365	0.319
-278.457	800.000	0.050	-0.196
-277.443	-35.298	-0.341	-0.184
-276.428	-34.006	-0.041	0.022
-275.413	118.445	0.262	-0.321
-274.399	-172.578	-0.365	0.011
-273.384	800.000	-0.049	0.197
-272.370	-101.754	-0.322	-0.077
-271.355	-78.193	-0.180	0.061
-270.340	800.000	-0.016	-0.069
-269.326	92.846	-0.096	0.108
-268.311	-173.160	-0.317	0.010
-267.297	800.000	-0.027	0.110
-266.282	-200.000	0.029	0.146
-265.267	-117.639	-0.115	-0.021
-264.253	-200.000	-0.003	-0.116
-263.238	177.938	-0.094	-0.136
-262.224	-22.043	0.182	-0.110
-261.209	-125.640	0.219	0.033
-260.195	-4.156	-0.106	0.073
-259.180	12.273	0.195	0.149
-258.165	800.000	0.078	0.301
-257.151	81.167	0.334	0.357
-256.136	-200.000	-0.005	0.270
-255.122	334.553	0.052	-0.099
-254.107	88.232	0.198	-0.218
-253.092	317.865	0.115	-0.215
-252.078	146.121	-0.154	-0.205
-251.063	95.223	-0.066	0.075
-250.049	800.000	0.094	-0.350
-249.034	-168.875	0.221	-0.008
-248.019	30.978	0.180	-0.153
-247.005	39.907	0.028	-0.025
-245.990	561.864	-0.118	0.282
-244.976	-200.000	0.013	0.167
-243.961	135.361	-0.147	-0.190
-242.946	162.284	0.045	-0.062
-241.932	-200.000	0.016	0.142
-240.917	800.000	-0.059	-0.190
-239.903	-200.000	0.044	-0.225
-238.888	-143.307	0.104	-0.010
-237.873	-2.707	-0.092	0.064
-236.859	-200.000	0.009	0.117
-235.844	605.178	0.054	-0.133
-234.830	-105.487	0.253	-0.057
-233.815	86.605	-0.148	0.161
-232.800	226.862	-0.039	-0.062
-231.786	185.190	0.123	0.181
-230.771	222.592	-0.078	0.124
-229.757	-200.000	0.013	-0.253
-228.742	78.746	0.125	-0.132
-227.727	800.000	-0.041	0.153
-226.713	800.000	-0.088	0.297
-225.698	-123.112	-0.028	0.004
-224.684	-200.000	-0.009	0.225
-223.669	-200.000	0.004	0.230
-222.655	-88.327	0.342	0.101
-221.640	800.000	-0.051	-0.198
-220.625	280.955	-0.154	-0.272
-219.611	4.191	-0.296	0.215
-218.596	800.000	-0.017	-0.057
-217.582	52.887	-0.145	0.137
-216.567	532.802	0.100	0.234
-215.552	-127.415	-0.247	0.036
-214.538	178.765	0.127	0.183
-213.523	513.563	-0.194	-0.446
-212.509	195.300	-0.078	-0.118
-211.494	285.833	-0.057	-0.101
-210.479	176.420	-0.096	0.138
-209.465	-200.000	-0.025	0.112
-208.450	-49.226	0.332	0.157
-207.436	800.000	0.071	0.234
-206.421	-200.000	0.006	-0.099
-205.406	146.573	0.121	-0.160
-204.392	-200.000	0.007	-0.377
-203.377	-111.240	-0.215	-0.043
-202.363	-200.000	0.009	0.079
-201.348	-93.326	-0.251	0.069
-200.333	-200.000	-0.021	-0.149
-199.319	-200.000	0.065	-0.334
-198.304	373.528	0.081	-0.162
-197.290	-8.116	0.186	-0.124
-196.275	-200.000	-0.015	0.166
-195.260	800.000	-0.028	-0.109
-194.246	-93.772	0.102	0.028
-193.231	-200.000	0.028	0.198
-192.217	558.256	-0.061	0.146
-191.202	222.580	-0.056	0.088
-190.187	-67.085	0.286	-0.111
-189.173	-123.430	-0.292	0.046
-188.158	86.775	-0.080	-0.087
-187.144	-200.000	0.014	-0.254
-186.129	-46.849	-0.110	0.053
-185.114	-200.000	0.022	0.326
-184.100	-130.285	-0.234	0.031
-183.085	-153.737	-0.158	-0.011
-182.071	-200.000	-0.063	0.369
-181.056	9.177	0.076	0.056
-180.042	223.212	0.253	-0.404
-179.027	-17.363	-0.147	0.091
-178.012	-150.770	0.218	-0.016
-176.998	-175.427	0.423	0.011
-175.983	-125.864	0.076	-0.011
-174.969	-11.160	-0.120	0.078
-173.954	-16.163	0.119	0.075
-172.939	86.739	0.113	0.123
-171.925	-138.593	0.131	-0.014
-170.910	346.996	0.151	-0.293
-169.896	42.505	0.113	0.102
-168.881	73.346	0.105	-0.108
-167.866	137.827	-0.101	0.131
-166.852	-9.751	-0.097	0.064
-165.837	26.136	-0.052	-0.043
-164.823	0.462	0.327	-0.230
-163.808	316.998	0.141	0.263
-162.793	800.000	-0.037	-0.103
-161.779	-38.626	-0.289	-0.151
-160.764	221.129	-0.065	-0.103
-159.750	289.169	0.127	0.228
-158.735	95.378	0.216	-0.243
-157.720	-53.886	-0.192	-0.086
-156.706	-200.000	-0.077	0.390
-155.691	390.608	0.043	-0.087
-154.677	105.947	-0.015	-0.018
-153.662	-164.236	-0.130	0.006
-152.647	121.495	0.257	0.316
-151.633	-165.680	0.110	0.005
-150.618	150.747	0.241	0.323
-149.604	-17.903	0.218	-0.135
-148.589	800.000	-0.129	0.426
-147.574	800.000	0.009	0.025
-146.560	800.000	-0.005	0.020
-145.545	-151.563	-0.440	-0.032
-144.531	-50.771	-0.112	0.052
-143.516	79.207	-0.447	0.472
-142.502	-200.000	0.010	0.211
-141.487	-14.680	-0.097	0.061
-140.472	-0.640	-0.183	0.128
-139.458	212.249	-0.078	0.121
-138.443	-77.344	0.269	-0.092
-137.429	33.400	0.046	0.039
-136.414	-88.790	-0.228	-0.067
-135.399	-77.102	0.420	-0.144
-134.385	403.068	-0.159	-0.329
-133.370	528.157	0.006	0.015
-132.356	-145.818	-0.246	-0.022
-131.341	-82.079	-0.189	-0.061
-130.326	328.215	-0.196	-0.371
-129.312	-100.558	-0.065	-0.016
-128.297	71.346	0.084	0.086
-127.283	-58.707	-0.548	0.234
-126.268	-168.379	-0.197	-0.007
-125.253	408.792	0.101	0.210
-124.239	-112.694	0.386	0.076
-123.224	72.440	0.150	0.154
-122.210	24.464	0.223	-0.181
-121.195	-107.046	-0.315	0.069
-120.180	34.373	0.160	-0.137
-119.166	99.222	0.087	0.099
-118.151	-35.948	0.189	-0.101
-117.137	-200.000	-0.012	0.064
-116.122	79.329	0.084	0.089
-115.107	399.523	-0.077	-0.160
-114.093	800.000	-0.055	-0.154
-113.078	140.468	0.039	-0.050
-112.064	-146.575	-0.281	0.024
-111.049	-155.127	0.246	0.016
-110.034	-145.875	0.012	0.001
-109.020	33.492	0.240	0.205
-108.005	125.385	0.080	0.099
-106.991	663.944	-0.165	0.418
-105.976	-200.000	-0.015	-0.261
-104.962	195.174	0.088	-0.131
-103.947	-200.000	-0.029	0.165
-102.932	-187.129	-0.279	-0.004
-101.918	-151.867	-0.168	0.012
-100.903	-163.960	0.090	0.004
-99.889	5.259	-0.278	0.201
-98.874	-34.661	0.483	-0.260
-97.859	-200.000	-0.007	0.078
-96.845	-87.422	-0.154	-0.046
-95.830	-159.044	-0.206	-0.011
-94.816	661.337	0.038	-0.097
-93.801	23.082	0.097	-0.078
-92.786	-200.000	0.054	-0.255
-91.772	-92.871	0.392	0.108
-90.757	-67.448	-0.171	0.066
-89.743	220.127	0.094	-0.149
-88.728	-15.647	0.268	-0.168
-87.713	87.501	0.025	0.027
-86.699	-200.000	0.007	0.131
-85.684	337.002	0.105	-0.201
-84.670	257.961	0.172	-0.291
-83.655	-178.799	0.246	-0.006
-82.640	53.896	-0.170	0.161
-81.626	26.354	-0.179	0.148
-80.611	267.524	0.071	0.123
-79.597	204.667	-0.163	0.249
-78.582	189.533	0.241	0.355
-77.567	127.817	0.186	0.232
-76.553	53.596	-0.122	-0.115
-75.538	-75.092	-0.042	0.015
-74.524	-200.000	-0.064	-0.336
-73.509	-87.797	-0.191	0.057
-72.494	-71.020	0.143	-0.053
-71.480	94.292	0.166	-0.185
-70.465	227.160	-0.091	0.145
-69.451	284.368	-0.184	0.326
-68.436	17.064	0.169	-0.132
-67.422	-166.590	0.048	-0.002
-66.407	-200.000	0.028	0.275
-65.392	7.447	0.118	-0.087
-64.378	107.637	0.139	0.163
-63.363	337.298	-0.034	-0.065
-62.349	-112.471	-0.384	-0.075
-61.334	170.281	-0.754	-1.061
-60.319	-5.145	0.444	0.300
-59.305	800.000	-0.413	-1.314
-58.290	195.004	0.817	1.219
-57.276	-200.000	0.130	1.594
-56.261	-200.000	101.319	593.985
-55.246	577.970	1412.206	3393.847
-54.232	192.547	2591.188	3843.433
-53.217	116.390	2152.474	2592.201
-52.203	41.530	1688.789	1502.033
-51.188	34.112	1499.903	1284.155
-50.173	31.665	1473.244	1245.030
-49.159	51.906	1526.191	1427.326
-48.144	53.140	1543.939	1452.228
-47.130	34.180	1501.868	1286.095
-46.115	31.171	1487.029	1253.169
-45.100	30.977	1483.525	1248.863
-44.086	31.059	1480.924	1247.175
-43.071	30.959	1478.926	1244.777
-42.057	30.931	1477.537	1243.368
-41.042	30.877	1476.087	1241.737
-40.027	30.940	1474.750	1240.985
-39.013	30.951	1473.094	1239.614
-37.998	30.844	1472.064	1237.987
-36.984	30.904	1470.379	1236.923
-35.969	30.939	1469.145	1236.067
-34.954	30.924	1467.994	1234.952
-33.940	30.893	1466.240	1233.221
-32.925	30.937	1465.307	1232.677
-31.911	30.970	1463.936	1231.689
-30.896	31.068	1462.592	1231.158
-29.881	31.047	1461.701	1230.221
-28.867	31.084	1459.838	1228.847
-27.852	30.935	1459.211	1227.294
-26.838	30.960	1457.589	1226.042
-25.823	31.054	1455.813	1225.120
-24.809	30.958	1454.547	1223.376
-23.794	30.911	1452.934	1221.664
-22.779	30.969	1451.813	1221.052
-21.765	30.995	1450.738	1220.265
-20.750	30.979	1449.774	1219.301
-19.736	30.924	1448.564	1217.874
-18.721	30.940	1447.533	1217.068
-17.706	30.882	1446.478	1215.753
-16.692	30.987	1445.145	1215.267
-15.677	30.955	1444.160	1214.181
-14.663	30.996	1442.998	1213.427
-13.648	30.856	1442.413	1211.977
-12.633	30.888	1441.414	1211.295
-11.619	30.904	1440.436	1210.527
-10.604	30.828	1440.077	1209.684
-9.590	30.879	1439.033	1209.093
-8.575	30.988	1438.122	1208.983
-7.560	30.955	1436.953	1207.742
-6.546	30.900	1436.165	1206.677
-5.531	30.898	1435.521	1206.070
-4.517	30.958	1434.483	1205.539
-3.502	30.888	1433.646	1204.335
-2.487	30.912	1432.750	1203.694
-1.473	30.849	1431.351	1202.060
-0.458	30.927	1429.849	1201.253
0.556	32.444	1420.777	1189.740
1.571	29.357	1395.464	1149.237
2.586	25.701	1337.433	1079.470
3.600	23.807	1257.811	1004.421
4.615	22.438	1211.621	959.991
5.629	19.570	1155.830	900.769
6.644	11.260	1073.261	795.931
7.659	4.716	1033.809	735.743
8.673	3.924	1028.197	727.960
9.688	3.520	1025.342	723.976
10.702	3.469	1023.461	722.348
11.717	3.488	1022.078	721.395
12.731	6.560	1024.482	737.412
13.746	14.898	1036.145	785.036
14.761	22.060	1045.570	825.916
15.775	24.188	1046.493	836.575
16.790	23.763	1045.760	833.922
17.804	23.174	1044.412	830.012
18.819	22.605	1042.882	826.055
19.834	22.398	1042.234	824.501
20.848	22.637	1041.158	824.694
21.863	22.690	1041.416	825.075
22.877	22.666	1040.718	824.333
23.892	22.542	1039.670	822.853
24.907	22.250	1038.956	820.854
25.921	22.265	1038.283	820.316
26.936	22.177	1037.365	819.108
27.950	22.116	1036.382	817.977
28.965	22.047	1035.148	816.607
29.980	22.074	1034.148	815.874
30.994	22.369	1033.009	816.273
32.009	22.482	1032.592	816.394
33.023	22.492	1031.758	815.711
34.038	22.546	1030.725	815.071
35.053	22.364	1030.486	813.966
36.067	22.310	1029.022	812.488
37.082	22.222	1028.207	811.366
38.096	22.200	1027.253	810.441
39.111	22.366	1026.694	810.693
40.126	22.445	1025.783	810.266
41.140	22.266	1024.902	808.676
42.155	21.836	1023.624	805.621
43.169	21.688	1022.604	804.066
44.184	21.639	1021.355	802.789
45.199	21.498	1020.350	801.283
46.213	21.542	1019.706	800.909
47.228	21.662	1019.016	800.842
48.242	22.086	1018.582	802.370
49.257	22.220	1018.229	802.629
50.271	22.400	1017.128	802.515
51.286	22.330	1016.463	801.599
52.301	22.498	1015.949	801.888
53.315	22.545	1015.199	801.440
54.330	22.437	1014.311	800.177
55.344	22.166	1013.447	798.191
56.359	22.053	1012.219	796.645
57.374	22.115	1011.254	796.091
58.388	21.953	1010.640	794.807
59.403	21.846	1009.612	793.444
60.417	21.703	1008.992	792.241
61.432	21.601	1008.605	791.405
62.447	21.651	1007.876	790.988
63.461	21.676	1006.909	790.270
64.476	21.668	1005.736	789.247
65.490	21.462	1005.825	788.318
66.505	21.337	1004.684	786.791
67.520	21.536	1003.880	786.987
68.534	21.636	1002.855	786.563
69.549	21.483	1002.413	785.457
70.563	21.430	1001.133	784.150
71.578	21.218	1000.823	782.884
72.593	21.107	999.103	780.976
73.607	20.894	998.155	779.210
74.622	20.755	997.238	777.806
75.636	20.907	996.771	778.053
76.651	21.005	995.981	777.805
77.666	21.054	995.207	777.349
78.680	21.334	994.498	777.974
79.695	21.275	994.107	777.337
80.709	21.112	993.801	776.304
81.724	21.452	992.463	776.701
82.739	21.554	992.346	776.990
83.753	21.538	991.801	776.423
84.768	22.013	991.068	777.889
85.782	22.364	991.144	779.434
86.797	22.888	990.509	781.185
87.812	22.883	989.701	780.454
88.826	22.668	988.499	778.489
89.841	22.526	987.688	777.154
90.855	22.573	987.181	776.893
91.870	22.677	986.544	776.781
92.884	22.689	985.934	776.288
93.899	22.609	985.052	775.172
94.914	22.541	984.148	774.092
95.928	22.489	983.859	773.567
96.943	22.681	982.680	773.415
97.957	22.510	981.548	771.707
98.972	22.323	980.490	769.989
99.987	22.313	980.198	769.647
101.001	22.540	979.616	770.115
102.016	22.363	978.834	768.657
103.030	22.361	977.498	767.533
104.045	22.393	976.894	767.130
105.060	22.679	975.597	767.289
106.074	22.409	974.917	765.512
107.089	22.240	973.792	763.826
108.103	22.132	972.217	762.055
109.118	21.762	971.790	760.047
110.133	21.417	970.499	757.476
111.147	21.333	969.556	756.311
112.162	21.188	968.892	755.100
113.176	21.315	967.892	754.803
114.191	21.535	967.168	755.119
115.206	21.640	966.492	754.976
116.220	21.676	965.372	754.191
117.235	21.452	965.001	752.869
118.249	21.400	964.122	751.894
119.264	21.304	963.036	750.570
120.279	21.143	962.364	749.286
121.293	21.218	961.569	748.925
122.308	20.988	960.769	747.247
123.322	20.960	960.184	746.610
124.337	21.021	958.614	745.580
125.352	20.832	957.658	743.965
126.366	20.711	956.987	742.861
127.381	20.908	955.751	742.676
128.395	21.114	954.941	742.859
129.410	21.232	954.372	742.851
130.424	21.330	953.363	742.416
131.439	21.377	952.751	742.075
132.454	21.557	952.155	742.309
133.468	21.707	951.434	742.316
134.483	21.628	950.718	741.357
135.497	21.783	949.823	741.250
136.512	21.474	949.802	739.860
137.527	21.731	948.571	739.922
138.541	21.648	948.003	739.064
139.556	21.695	947.286	738.635
140.570	21.790	946.533	738.385
141.585	21.874	946.272	738.469
142.600	22.281	945.859	739.795
143.614	22.406	944.897	739.499
144.629	22.601	944.482	739.929
145.643	22.631	944.067	739.665
146.658	22.624	942.783	738.563
147.673	22.301	941.419	736.079
148.687	22.030	940.466	734.134
149.702	21.760	939.335	732.060
150.716	21.790	938.189	731.225
151.731	21.744	936.929	729.990
152.746	21.812	936.423	729.812
153.760	21.860	936.111	729.704
154.775	22.054	935.225	729.757
155.789	22.223	934.731	730.007
156.804	22.258	934.012	729.527
157.819	22.149	932.976	728.203
158.833	22.148	932.391	727.678
159.848	22.320	932.045	728.052
160.862	22.414	932.069	728.398
161.877	22.453	930.404	727.193
162.892	22.147	929.197	724.922
163.906	21.716	928.460	722.505
164.921	21.676	927.225	721.317
165.935	21.506	926.194	719.751
166.950	21.706	925.401	719.896
167.964	21.775	924.808	719.654
168.979	21.872	923.577	719.030
169.994	21.797	922.142	717.541
171.008	21.870	921.260	717.089
172.023	21.830	920.725	716.446
173.037	22.178	920.293	717.465
174.052	22.438	919.632	717.946
175.067	22.326	918.942	716.892
176.081	21.954	917.542	714.220
177.096	21.431	916.558	711.265
178.110	21.474	915.640	710.666
179.125	21.515	914.825	710.134
180.140	21.576	914.220	709.852
181.154	21.642	913.594	709.570
182.169	21.878	913.628	710.491
183.183	22.211	913.265	711.492
184.198	22.200	913.008	711.185
185.213	22.059	912.306	710.005
186.227	22.226	911.303	709.833
187.242	22.142	911.209	709.360
188.256	22.336	910.468	709.502
189.271	22.547	909.589	709.606
190.286	22.595	909.107	709.358
191.300	22.301	908.391	707.555
192.315	21.692	906.969	703.938
193.329	21.287	905.840	701.374
194.344	21.324	905.271	701.019
195.359	21.448	905.168	701.376
196.373	21.786	904.476	702.131
197.388	21.935	904.370	702.583
198.402	22.060	904.255	702.934
199.417	22.378	904.059	703.991
200.432	22.735	903.492	704.912
201.446	22.768	903.588	705.058
202.461	22.928	903.005	705.178
203.475	23.059	902.276	705.069
204.490	22.779	901.844	703.555
205.504	22.418	900.102	700.696
206.519	22.133	899.271	698.853
207.534	22.285	898.640	698.904
208.548	22.136	898.062	697.802
209.563	22.275	897.479	697.839
210.577	22.258	896.799	697.183
211.592	22.154	896.487	696.467
212.607	22.574	896.301	697.921
213.621	22.746	896.139	698.417
214.636	22.635	895.288	697.251
215.650	22.522	894.820	696.380
216.665	22.403	893.842	695.084
217.680	22.609	893.152	695.299
218.694	22.716	893.219	695.715
219.709	22.797	892.442	695.364
220.723	22.629	891.761	694.112
221.738	22.687	890.617	693.389
222.753	22.250	890.304	691.365
223.767	22.404	889.603	691.366
224.782	22.452	888.783	690.853
225.796	22.693	888.369	691.418
226.811	22.862	887.841	691.608
227.826	22.809	886.716	690.461
228.840	22.365	886.098	688.184
229.855	22.281	885.177	687.081
230.869	22.384	884.547	686.930
231.884	22.223	883.868	685.716
232.899	22.194	883.434	685.206
233.913	22.169	882.654	684.443
234.928	21.994	882.186	683.338
235.942	21.895	881.098	682.050
236.957	21.799	880.208	680.927
237.972	21.784	879.815	680.505
238.986	21.786	879.282	680.040
240.001	21.836	878.266	679.388
241.015	21.822	878.252	679.262
242.030	21.896	877.445	678.866
243.045	22.188	876.973	679.569
244.059	22.247	876.363	679.265
245.074	22.266	875.966	678.968
246.088	22.319	875.434	678.701
247.103	22.524	875.089	679.165
248.117	22.557	874.803	679.009
249.132	22.910	874.390	679.987
250.147	23.120	874.858	681.100
251.161	23.653	874.253	682.618
252.176	23.782	873.801	682.703
253.190	23.680	873.478	681.996
254.205	23.905	872.792	682.264
255.220	23.966	872.083	681.883
256.234	23.671	871.654	680.356
257.249	23.598	871.135	679.614
258.263	23.554	870.122	678.595
259.278	23.539	869.605	678.072
260.293	23.515	868.765	677.267
261.307	23.460	869.050	677.218
262.322	23.815	867.892	677.610
263.336	23.599	867.868	676.708
264.351	23.589	867.227	676.108
265.366	23.517	866.287	675.044
266.380	23.442	865.880	674.383
267.395	23.683	864.639	674.270
268.409	23.602	864.517	673.807
269.424	23.401	863.695	672.346
270.439	23.491	862.730	671.874
271.453	23.550	862.437	671.813
272.468	23.266	861.590	670.019
273.482	23.286	860.649	669.301
274.497	23.279	860.297	668.944
275.512	23.257	859.257	667.990
276.526	23.253	858.693	667.478
277.541	23.075	858.852	666.874
278.555	23.239	858.201	666.928
279.570	23.594	857.388	667.571
280.585	23.844	857.517	668.552
281.599	23.766	856.665	667.536
282.614	23.587	855.955	666.253
283.628	23.309	854.786	664.240
284.643	23.043	854.105	662.654
285.657	23.274	853.562	663.043
286.672	23.224	853.294	662.587
287.687	23.012	853.210	661.669
288.701	23.206	852.553	661.828
289.716	23.260	852.087	661.609
290.730	23.303	851.407	661.184
291.745	23.144	850.973	660.194
292.760	23.374	850.390	660.542
293.774	23.403	850.069	660.341
294.789	23.816	849.270	661.197
295.803	24.012	848.783	661.492
296.818	23.562	847.871	659.048
297.833	23.405	847.244	657.922
298.847	23.303	846.475	656.886
299.862	23.259	845.770	656.117
300.876	23.295	845.552	656.026
301.891	23.623	844.896	656.671
302.906	23.726	844.869	656.972
303.920	23.935	844.213	657.178
304.935	24.213	843.645	657.706
305.949	24.225	843.589	657.645
306.964	24.090	842.712	656.407
307.979	23.874	841.713	654.777
308.993	23.509	841.128	652.920
310.008	23.693	840.786	653.273
311.022	23.789	840.502	653.346
312.037	23.916	839.631	653.077
313.052	23.686	839.103	651.764
314.066	23.349	838.373	649.906
315.081	23.251	837.286	648.645
316.095	22.908	836.745	646.912
317.110	23.138	836.243	647.309
318.125	23.172	836.023	647.208
319.139	23.096	835.493	646.462
320.154	23.040	834.648	645.545
321.168	22.838	833.808	644.101
322.183	23.106	833.508	644.789
323.197	23.190	833.490	645.025
324.212	23.297	832.321	644.454
325.227	23.369	831.961	644.379
326.241	23.177	831.745	643.456
327.256	23.070	831.088	642.504
328.270	23.151	830.233	642.079
329.285	23.098	829.788	641.485
330.300	23.058	829.118	640.765
331.314	23.108	828.476	640.395
332.329	22.971	828.090	639.543
333.343	23.333	827.509	640.346
334.358	23.479	827.645	640.923
335.373	23.578	827.226	640.901
336.387	23.554	826.607	640.276
337.402	23.814	825.876	640.591
338.416	23.816	825.778	640.466
339.431	24.078	824.941	640.704
340.446	24.307	824.718	641.297
341.460	24.405	824.381	641.330
342.475	24.399	823.997	640.953
343.489	24.656	823.319	641.291
344.504	24.493	823.341	640.666
345.519	24.608	822.558	640.415
346.533	24.885	822.269	641.123
347.548	24.630	821.858	639.834
348.562	24.324	821.039	638.045
349.577	24.163	819.797	636.448
350.592	23.938	819.106	635.052
351.606	23.778	818.615	634.046
352.621	23.609	818.105	632.991
353.635	23.567	818.002	632.704
354.650	23.752	817.436	632.871
355.665	23.819	816.879	632.622
356.679	23.790	816.376	632.074
357.694	23.788	816.343	631.984
358.708	24.058	815.502	632.235
359.723	23.913	814.812	631.131
360.738	23.779	814.635	630.462
361.752	23.763	813.889	629.774
362.767	23.799	813.758	629.743
363.781	24.299	813.133	630.974
364.796	24.429	813.261	631.479
365.810	24.443	813.145	631.380
366.825	24.809	812.446	632.075
367.840	24.850	812.330	632.075
368.854	24.744	811.737	631.181
369.869	24.490	811.160	629.782
370.883	24.314	810.294	628.435
371.898	24.281	809.907	627.962
372.913	24.506	808.854	627.883
373.927	24.659	808.711	628.254
374.942	24.468	808.183	627.116
375.956	24.384	806.890	625.761
376.971	24.581	806.831	626.353
377.986	24.648	806.541	626.305
379.000	24.949	806.049	626.924
380.015	24.914	805.923	626.648
381.029	24.797	804.986	625.453
382.044	24.827	804.646	625.241
383.059	24.751	804.072	624.473
384.073	24.893	803.585	624.535
385.088	24.862	802.863	623.811
386.102	24.525	801.838	621.786
387.117	24.290	800.666	620.005
388.132	24.190	800.249	619.281
389.146	24.104	799.801	618.580
390.161	24.165	799.512	618.513
391.175	24.539	799.268	619.567
392.190	24.811	799.267	620.454
393.205	24.738	798.458	619.521
394.219	24.309	797.899	617.544
395.234	24.019	796.807	615.644
396.248	23.860	796.845	615.066
397.263	23.908	795.739	614.326
398.278	23.909	795.850	614.360
399.292	23.914	795.100	613.742
400.307	23.566	794.812	612.267
401.321	23.787	794.422	612.675
402.336	23.722	794.018	612.085
403.350	23.973	793.556	612.537
404.365	24.335	793.879	613.980
405.380	24.578	793.483	614.454
406.394	24.764	793.251	614.861
407.409	25.042	792.572	615.233
408.423	25.115	792.625	615.472
409.438	25.171	791.714	614.903
410.453	25.397	791.449	615.416
411.467	25.277	791.361	614.880
412.482	25.289	790.551	614.238
413.496	25.074	790.329	613.275
414.511	25.368	790.089	614.042
415.526	25.351	789.592	613.544
416.540	25.294	788.754	612.643
417.555	25.084	788.371	611.574
418.569	25.078	787.564	610.875
419.584	25.050	787.526	610.696
420.599	25.145	786.815	610.414
421.613	162.922	1369.122	1796.451
422.628	141.090	1453.963	1796.563
