DTS Sentinel unit serial number:	SN413079Multiplexer serial number:	ORYXHardware model number:	OX4-SRSoftware version number:	ORYX F/W v4.00 Oryx Data Collector v3.7.2.0data status	okinstallation	princeton_trtdifferential loss correction	single-endedforward channel	channel 3reverse channel	N/Adate	2019/09/19time	09:08:34forward acquisition time	60.00reverse acquisition time	0.00gamma	496.2192k internal	0.2346k external	0.2346temperature offset calibration	0.9967default loss term (dB/km)	0.3790temperature slope calibration	1.0000multiplexer offset coefficient	1.0000multiplexer slope coefficient	1.0000fibre end	0.00T internal ref (°C)	21.84T ext. ref 1 (°C)	0.61T ext. ref 2 (°C)	18.98length (m)	temperature (°C)	Stokes	anti-Stokes-747.200	21.941	-0.259	-0.211
-746.185	-40.490	-0.252	0.131
-745.171	30.218	-0.141	0.120
-744.156	166.999	-0.223	0.317
-743.142	6.289	0.099	-0.073
-742.127	-200.000	-0.009	0.133
-741.112	-40.772	-0.179	0.093
-740.098	-158.525	-0.271	-0.016
-739.083	-113.041	0.380	0.075
-738.069	-200.000	0.005	0.451
-737.054	-200.000	-0.021	-0.153
-736.039	-99.546	-0.222	-0.056
-735.025	-151.354	-0.270	-0.020
-734.010	-151.327	-0.275	0.021
-732.996	108.567	-0.135	0.161
-731.981	-200.000	0.050	-0.274
-730.966	-200.000	-0.041	-0.561
-729.952	800.000	-0.059	-0.247
-728.937	-200.000	-0.013	-0.220
-727.923	-62.126	-0.261	-0.109
-726.908	-57.634	-0.166	0.073
-725.894	-200.000	-0.002	-0.137
-724.879	129.788	-0.210	-0.268
-723.864	592.893	0.080	-0.198
-722.850	-200.000	0.015	-0.201
-721.835	-200.000	-0.326	0.002
-720.821	360.089	-0.084	-0.168
-719.806	-140.207	-0.413	0.043
-718.791	-74.467	0.224	-0.081
-717.777	800.000	-0.090	-0.312
-716.762	-51.582	-0.086	-0.040
-715.748	143.850	0.061	0.081
-714.733	452.011	-0.130	-0.288
-713.718	-85.685	0.224	0.069
-712.704	20.808	0.243	-0.196
-711.689	800.000	-0.048	-0.187
-710.675	-200.000	-0.018	-0.113
-709.660	51.174	-0.161	-0.153
-708.645	40.454	-0.059	0.053
-707.631	-52.477	0.296	0.137
-706.616	193.348	0.133	0.201
-705.602	-47.373	0.044	-0.021
-704.587	62.485	-0.215	-0.215
-703.572	375.188	-0.091	0.185
-702.558	-10.904	0.045	-0.030
-701.543	-200.000	-0.012	-0.290
-700.529	-200.000	-0.007	0.088
-699.514	-149.782	-0.398	0.031
-698.499	800.000	-0.046	0.144
-697.485	-48.533	0.323	-0.155
-696.470	407.616	-0.097	-0.204
-695.456	-155.754	0.113	0.007
-694.441	-138.949	-0.173	-0.019
-693.426	-32.200	-0.196	-0.109
-692.412	800.000	0.054	-0.191
-691.397	800.000	-0.011	-0.034
-690.383	-0.152	0.083	0.059
-689.368	-113.075	0.040	0.008
-688.354	-116.134	-0.431	-0.080
-687.339	-200.000	-0.081	-0.373
-686.324	800.000	-0.097	-0.310
-685.310	-138.685	-0.173	-0.019
-684.295	-81.711	0.132	-0.043
-683.281	5.862	-0.493	-0.364
-682.266	-74.023	-0.301	-0.109
-681.251	430.948	0.273	-0.590
-680.237	707.372	0.037	0.097
-679.222	-200.000	0.008	-0.087
-678.208	-145.985	0.137	0.012
-677.193	-136.097	-0.205	0.024
-676.178	-147.502	0.150	0.013
-675.164	784.750	-0.057	-0.155
-674.149	724.432	0.028	-0.073
-673.135	-5.439	0.093	-0.064
-672.120	-83.239	0.147	0.047
-671.105	800.000	0.038	-0.108
-670.091	-200.000	0.003	0.077
-669.076	590.096	0.122	-0.300
-668.062	-200.000	0.061	-0.360
-667.047	-6.977	0.046	-0.031
-666.032	-41.623	-0.078	-0.040
-665.018	-200.000	0.009	-0.267
-664.003	-200.000	0.089	0.401
-662.989	-65.333	0.075	-0.030
-661.974	156.467	-0.118	0.162
-660.959	-26.686	0.247	-0.144
-659.945	-200.000	0.000	0.024
-658.930	-109.785	-0.101	-0.021
-657.916	-62.184	0.182	0.076
-656.901	42.199	0.155	-0.140
-655.886	233.155	-0.147	-0.241
-654.872	583.241	-0.066	-0.161
-653.857	285.218	-0.092	0.165
-652.843	800.000	0.040	0.139
-651.828	178.131	-0.209	-0.304
-650.814	-51.748	-0.200	0.093
-649.799	-139.538	0.198	0.021
-648.784	-200.000	-0.033	0.489
-647.770	-65.499	-0.385	0.154
-646.755	43.944	-0.156	-0.143
-645.741	127.367	-0.277	-0.350
-644.726	280.528	0.233	-0.416
-643.711	-16.831	0.184	-0.116
-642.697	-123.066	0.218	-0.035
-641.682	800.000	0.054	0.200
-640.668	800.000	0.038	0.138
-639.653	-138.274	-0.197	0.022
-638.638	-159.839	0.115	-0.006
-637.624	-66.547	-0.096	0.038
-636.609	-138.894	0.194	0.021
-635.595	45.048	0.102	-0.093
-634.580	-6.622	0.222	-0.151
-633.565	-134.907	0.186	-0.022
-632.551	-119.893	-0.154	0.026
-631.536	3.534	-0.284	-0.206
-630.522	-200.000	-0.030	0.169
-629.507	25.550	-0.183	-0.152
-628.492	9.212	-0.100	-0.075
-627.478	800.000	-0.079	0.220
-626.463	22.731	-0.165	-0.134
-625.449	185.304	-0.076	0.113
-624.434	-137.612	0.149	0.017
-623.419	-200.000	-0.034	0.170
-622.405	-91.220	0.086	0.025
-621.390	-200.000	0.003	0.127
-620.376	-127.658	-0.072	0.010
-619.361	73.936	-0.123	-0.128
-618.346	-62.636	-0.073	-0.030
-617.332	-200.000	0.020	-0.149
-616.317	-89.362	-0.021	0.006
-615.303	-57.050	-0.055	0.024
-614.288	19.064	-0.232	0.185
-613.273	-136.352	0.058	0.007
-612.259	207.221	-0.261	-0.405
-611.244	149.092	0.125	-0.168
-610.230	19.207	-0.144	0.115
-609.215	187.061	-0.180	-0.267
-608.201	-65.318	-0.226	0.090
-607.186	-127.303	0.140	-0.020
-606.171	-41.889	-0.276	-0.141
-605.157	-200.000	0.007	0.258
-604.142	-200.000	-0.024	-0.149
-603.128	-200.000	-0.024	-0.150
-602.113	-91.026	0.381	-0.109
-601.098	-105.396	0.352	0.080
-600.084	-200.000	-0.037	-0.261
-599.069	-200.000	-0.037	0.169
-598.055	44.310	-0.060	0.054
-597.040	-104.357	0.244	0.056
-596.025	78.916	0.151	-0.160
-595.011	-200.000	-0.069	-0.345
-593.996	-82.127	0.093	0.030
-592.982	66.340	-0.131	0.132
-591.967	292.426	-0.045	0.082
-590.952	-200.000	-0.011	0.083
-589.938	38.346	0.039	0.034
-588.923	-118.611	-0.136	-0.024
-587.909	565.467	-0.041	0.099
-586.894	35.062	-0.222	0.194
-585.879	800.000	-0.055	0.201
-584.865	-200.000	0.018	0.295
-583.850	-200.000	0.002	0.081
-582.836	-116.039	0.113	0.021
-581.821	-131.530	-0.335	-0.044
-580.806	-35.655	-0.080	0.043
-579.792	-69.853	-0.110	-0.042
-578.777	-200.000	0.003	-0.078
-577.763	-200.000	0.032	0.234
-576.748	75.523	0.290	-0.304
-575.733	-200.000	-0.010	-0.046
-574.719	-28.731	-0.124	0.071
-573.704	-12.780	0.163	0.106
-572.690	800.000	-0.058	-0.177
-571.675	152.201	-0.138	0.187
-570.661	-160.602	-0.165	-0.009
-569.646	-200.000	-0.010	-0.076
-568.631	94.590	0.039	0.044
-567.617	-60.644	0.273	0.115
-566.602	-43.683	0.144	-0.072
-565.588	-159.405	-0.322	0.018
-564.573	-68.695	-0.215	0.083
-563.558	-125.441	0.130	-0.020
-562.544	55.508	-0.175	-0.168
-561.529	-200.000	0.025	-0.240
-560.515	-128.063	-0.489	-0.070
-559.500	179.015	0.191	0.277
-558.485	-200.000	0.013	0.275
-557.471	280.065	0.084	0.149
-556.456	-200.000	-0.012	0.127
-555.442	6.653	0.259	-0.192
-554.427	-147.947	0.131	0.011
-553.412	24.622	-0.197	-0.162
-552.398	-101.334	0.351	-0.085
-551.383	18.699	0.160	0.127
-550.369	65.916	0.183	0.184
-549.354	319.813	0.065	0.123
-548.339	-43.621	0.163	-0.081
-547.325	31.476	-0.368	0.314
-546.310	-23.860	-0.263	0.156
-545.296	120.882	-0.162	-0.199
-544.281	-61.999	0.143	0.059
-543.266	1.223	0.225	-0.161
-542.252	-200.000	0.043	-0.216
-541.237	-200.000	-0.008	0.040
-540.223	-200.000	0.012	0.084
-539.208	-200.000	0.001	0.168
-538.193	-200.000	0.042	-0.258
-537.179	438.483	-0.059	-0.128
-536.164	118.332	-0.036	-0.044
-535.150	800.000	-0.033	-0.098
-534.135	-122.602	0.223	-0.036
-533.121	21.225	-0.120	-0.096
-532.106	-40.096	-0.375	-0.194
-531.091	-200.000	-0.028	-0.154
-530.077	-33.792	-0.185	-0.101
-529.062	-200.000	-0.026	0.404
-528.048	800.000	-0.105	-0.299
-527.033	103.584	0.208	-0.242
-526.018	-99.704	0.242	0.060
-525.004	153.767	-0.100	0.136
-523.989	-200.000	-0.038	0.214
-522.975	286.068	-0.099	-0.178
-521.960	-124.334	0.170	-0.026
-520.945	800.000	-0.055	0.186
-519.931	317.400	-0.224	-0.419
-518.916	-200.000	-0.030	0.224
-517.902	-200.000	0.070	-0.424
-516.887	94.609	0.145	-0.164
-515.872	-108.601	-0.163	0.035
-514.858	107.432	0.075	0.088
-513.843	-200.000	0.026	0.134
-512.829	-199.550	0.189	-0.001
-511.814	-162.826	-0.203	0.010
-510.799	-51.306	-0.316	-0.146
-509.785	-154.930	0.199	-0.013
-508.770	57.729	0.157	0.153
-507.756	-200.000	0.024	0.264
-506.741	800.000	-0.068	-0.206
-505.726	-176.244	0.039	-0.001
-504.712	-127.660	0.272	0.039
-503.697	8.695	0.253	0.189
-502.683	210.509	-0.116	0.181
-501.668	171.254	-0.078	-0.111
-500.653	-76.954	-0.055	-0.019
-499.639	800.000	0.075	0.238
-498.624	800.000	-0.047	-0.188
-497.610	475.914	0.009	0.020
-496.595	-101.827	0.258	-0.062
-495.581	-127.058	0.220	0.032
-494.566	-71.680	0.385	0.142
-493.551	-15.370	0.315	0.199
-492.537	800.000	-0.035	-0.141
-491.522	-78.889	0.558	0.188
-490.508	-67.623	0.176	0.068
-489.493	-200.000	-0.044	0.203
-488.478	35.882	-0.087	-0.076
-487.464	-35.601	0.266	0.143
-486.449	86.791	-0.051	-0.056
-485.435	387.071	0.115	0.236
-484.420	-200.000	0.005	0.182
-483.405	18.141	-0.121	0.096
-482.391	-200.000	0.017	0.126
-481.376	-99.357	-0.045	0.011
-480.362	-72.005	0.289	0.106
-479.347	54.140	0.200	-0.191
-478.332	-10.673	-0.098	-0.064
-477.318	-3.391	-0.202	-0.139
-476.303	-200.000	0.003	-0.086
-475.289	-200.000	0.036	0.284
-474.274	-64.625	0.377	0.151
-473.259	155.219	0.192	-0.262
-472.245	800.000	-0.057	-0.237
-471.230	-200.000	-0.010	0.094
-470.216	409.236	0.135	0.284
-469.201	-115.078	-0.084	-0.016
-468.186	49.693	0.122	0.114
-467.172	-188.297	-0.074	0.001
-466.157	-200.000	0.062	0.476
-465.143	-64.903	-0.280	-0.112
-464.128	-67.798	0.162	0.063
-463.113	-87.915	-0.053	0.016
-462.099	701.749	0.100	-0.260
-461.084	13.432	0.106	0.081
-460.070	-200.000	-0.024	0.178
-459.055	188.513	0.021	0.031
-458.040	-167.395	-0.054	0.002
-457.026	132.697	0.096	-0.123
-456.011	-102.997	-0.148	0.035
-454.997	188.630	-0.114	0.169
-453.982	-200.000	-0.011	-0.140
-452.968	190.175	-0.181	0.268
-451.953	50.712	-0.289	-0.271
-450.938	545.609	-0.102	0.242
-449.924	-21.460	-0.228	0.137
-448.909	-11.193	0.040	0.026
-447.895	712.535	-0.044	-0.114
-446.880	-200.000	-0.032	0.195
-445.865	94.771	0.181	-0.203
-444.851	-193.636	-0.286	0.002
-443.836	191.393	-0.110	0.163
-442.822	51.317	-0.086	-0.081
-441.807	188.204	-0.089	0.132
-440.792	-71.743	-0.036	-0.013
-439.778	201.054	0.031	0.048
-438.763	-58.409	-0.220	-0.094
-437.749	35.887	-0.248	0.216
-436.734	-137.715	-0.200	-0.022
-435.719	10.906	-0.261	0.197
-434.705	48.721	-0.028	-0.026
-433.690	92.825	-0.182	-0.203
-432.676	231.400	0.066	0.106
-431.661	126.196	-0.252	0.315
-430.646	507.038	0.025	0.058
-429.632	21.329	-0.358	-0.287
-428.617	236.724	-0.076	0.124
-427.603	79.955	-0.065	0.069
-426.588	-10.625	0.228	0.149
-425.573	-200.000	0.014	0.372
-424.559	-200.000	-0.005	0.309
-423.544	800.000	0.122	-0.395
-422.530	800.000	0.068	0.193
-421.515	800.000	-0.052	0.154
-420.500	-20.820	0.180	0.109
-419.486	157.142	-0.196	0.268
-418.471	-190.347	-0.017	0.000
-417.457	800.000	-0.017	-0.061
-416.442	-45.059	-0.328	0.161
-415.428	576.438	-0.069	-0.166
-414.413	110.473	0.023	0.027
-413.398	800.000	-0.113	-0.334
-412.384	-200.000	-0.019	-0.140
-411.369	168.026	0.118	0.166
-410.355	-200.000	-0.006	0.073
-409.340	106.092	0.125	0.146
-408.325	-200.000	0.016	0.336
-407.311	-112.119	-0.434	-0.086
-406.296	800.000	0.099	0.296
-405.282	-200.000	-0.052	0.250
-404.267	-29.898	0.069	0.039
-403.252	375.583	-0.029	-0.059
-402.238	-200.000	-0.059	-0.266
-401.223	143.239	0.180	0.236
-400.209	-200.000	-0.033	0.193
-399.194	-200.000	-0.013	0.144
-398.179	35.536	-0.008	0.007
-397.165	-157.738	0.034	-0.002
-396.150	343.296	0.116	0.223
-395.136	37.975	0.283	-0.248
-394.121	205.945	-0.391	-0.600
-393.106	800.000	-0.019	-0.074
-392.092	-98.002	-0.136	-0.035
-391.077	401.847	0.082	-0.170
-390.063	574.057	0.208	-0.500
-389.048	-94.689	0.111	-0.030
-388.033	-92.340	-0.137	0.038
-387.019	121.851	-0.262	0.322
-386.004	247.372	0.096	0.159
-384.990	-118.589	0.135	0.024
-383.975	800.000	-0.039	0.157
-382.960	800.000	-0.006	0.020
-381.946	152.910	0.171	-0.231
-380.931	108.338	0.123	-0.145
-379.917	520.091	0.040	0.093
-378.902	32.661	0.304	0.259
-377.888	-200.000	-0.008	0.045
-376.873	-200.000	0.014	-0.153
-375.858	-91.159	0.186	0.053
-374.844	-5.243	-0.166	-0.112
-373.829	216.896	-0.101	-0.159
-372.815	-20.638	0.036	-0.022
-371.800	-160.652	0.209	-0.011
-370.785	-200.000	0.034	0.165
-369.771	61.667	0.033	0.032
-368.756	287.175	0.149	-0.266
-367.742	800.000	-0.055	-0.167
-366.727	-200.000	0.012	0.247
-365.712	800.000	-0.106	0.357
-364.698	-200.000	-0.034	-0.386
-363.683	51.911	0.231	-0.217
-362.669	-107.472	0.267	0.058
-361.654	488.971	-0.047	0.105
-360.639	800.000	-0.003	-0.012
-359.625	-200.000	0.023	0.331
-358.610	800.000	0.156	0.508
-357.596	-14.080	0.218	-0.138
-356.581	279.221	-0.235	-0.412
-355.566	-67.582	0.145	-0.056
-354.552	24.472	-0.160	-0.130
-353.537	128.378	0.036	0.045
-352.523	69.405	0.208	0.211
-351.508	-27.972	0.212	0.121
-350.493	179.299	0.166	0.239
-349.479	130.645	0.366	0.462
-348.464	-63.459	-0.084	-0.034
-347.450	361.843	-0.058	0.114
-346.435	-109.145	-0.165	0.034
-345.420	800.000	0.044	-0.185
-344.406	158.636	-0.148	-0.202
-343.391	-78.480	-0.029	0.010
-342.377	-47.170	-0.094	0.045
-341.362	-86.507	0.151	-0.045
-340.348	800.000	0.078	-0.314
-339.333	-80.642	-0.255	0.083
-338.318	-49.070	0.205	0.097
-337.304	120.470	-0.129	0.157
-336.289	-200.000	-0.007	0.283
-335.275	800.000	-0.109	-0.330
-334.260	220.851	0.058	-0.091
-333.245	-200.000	0.020	0.276
-332.231	-200.000	-0.077	-0.491
-331.216	476.730	0.242	-0.538
-330.202	-1.267	0.123	0.086
-329.187	-62.374	0.129	-0.053
-328.172	-110.329	-0.224	-0.046
-327.158	40.032	0.320	0.283
-326.143	-149.964	-0.088	0.007
-325.129	-200.000	-0.034	-0.188
-324.114	-159.543	0.091	-0.005
-323.099	319.382	0.143	-0.267
-322.085	-12.799	0.268	0.172
-321.070	-120.214	-0.315	-0.053
-320.056	500.706	-0.045	0.103
-319.041	-45.524	-0.121	0.059
-318.026	800.000	-0.074	0.269
-317.012	-200.000	-0.053	-0.348
-315.997	-12.877	0.077	0.050
-314.983	-40.975	-0.026	0.013
-313.968	299.880	0.195	0.353
-312.953	94.393	-0.134	0.150
-311.939	100.505	-0.152	-0.173
-310.924	-171.755	0.270	-0.009
-309.910	-114.809	-0.160	-0.030
-308.895	80.825	0.072	-0.076
-307.880	207.349	-0.127	-0.194
-306.866	800.000	0.063	-0.237
-305.851	-60.741	-0.424	-0.177
-304.837	-36.905	0.314	-0.166
-303.822	386.439	0.053	-0.108
-302.807	555.249	0.061	-0.145
-301.793	138.135	-0.083	0.107
-300.778	-200.000	0.037	0.207
-299.764	469.749	-0.049	0.109
-298.749	162.385	0.119	-0.164
-297.735	219.469	0.197	-0.310
-296.720	-60.403	-0.290	-0.121
-295.705	62.848	-0.141	-0.139
-294.691	-200.000	-0.028	-0.291
-293.676	-42.405	0.287	-0.144
-292.662	-115.057	-0.133	0.025
-291.647	356.075	0.062	0.122
-290.632	-200.000	-0.015	-0.101
-289.618	800.000	-0.085	0.232
-288.603	-146.647	0.071	-0.006
-287.589	369.607	-0.035	0.069
-286.574	280.208	0.176	-0.309
-285.559	283.832	-0.192	-0.339
-284.545	-5.702	-0.052	0.035
-283.530	-65.242	-0.227	0.090
-282.516	800.000	0.058	-0.215
-281.501	-142.598	0.198	-0.019
-280.486	719.360	-0.107	0.278
-279.472	-181.022	-0.523	-0.010
-278.457	270.843	0.095	0.164
-277.443	-64.351	0.341	-0.136
-276.428	-200.000	0.013	-0.263
-275.413	-42.848	-0.217	0.108
-274.399	-200.000	0.008	0.052
-273.384	-200.000	0.011	0.222
-272.370	98.562	-0.221	0.250
-271.355	200.416	0.103	0.156
-270.340	800.000	0.080	-0.340
-269.326	-200.000	0.025	0.164
-268.311	355.867	0.094	-0.184
-267.297	-32.695	-0.060	0.033
-266.282	-16.769	0.251	-0.156
-265.267	-200.000	0.007	0.078
-264.253	-71.242	0.179	0.066
-263.238	800.000	-0.039	-0.113
-262.224	-109.451	0.216	-0.045
-261.209	-51.322	-0.155	0.071
-260.195	-81.369	0.013	0.004
-259.180	-200.000	-0.030	0.497
-258.165	-200.000	-0.022	0.207
-257.151	800.000	-0.155	-0.422
-256.136	-63.820	-0.103	-0.041
-255.122	584.071	0.039	-0.095
-254.107	-126.022	-0.205	0.030
-253.092	-114.300	0.374	-0.071
-252.078	542.392	0.032	0.075
-251.063	-90.762	0.274	-0.078
-250.049	53.465	0.097	-0.091
-249.034	-91.719	-0.036	0.010
-248.019	147.534	-0.184	-0.244
-247.005	273.212	-0.122	0.212
-245.990	-200.000	0.024	-0.193
-244.976	800.000	-0.015	0.062
-243.961	47.274	0.042	-0.039
-242.946	-44.845	-0.223	0.109
-241.932	339.356	-0.076	0.146
-240.917	267.903	0.100	-0.171
-239.903	-200.000	-0.008	-0.082
-238.888	-97.242	0.348	0.089
-237.873	-79.964	-0.244	-0.080
-236.859	-55.694	0.239	0.105
-235.844	108.435	-0.034	0.039
-234.830	268.064	0.066	-0.114
-233.815	-136.431	0.398	-0.045
-232.800	358.101	0.114	-0.224
-231.786	415.225	-0.138	-0.289
-230.771	-2.124	-0.287	-0.198
-229.757	-43.053	0.408	-0.203
-228.742	-200.000	-0.001	0.130
-227.727	-8.839	0.150	-0.098
-226.713	800.000	-0.069	0.201
-225.698	-147.594	0.139	0.011
-224.684	-200.000	0.035	0.206
-223.669	800.000	-0.049	-0.183
-222.655	-38.701	0.072	-0.037
-221.640	-52.655	-0.356	0.161
-220.625	-139.478	0.091	-0.010
-219.611	800.000	0.087	-0.288
-218.596	-127.326	-0.222	0.032
-217.582	-200.000	0.014	-0.099
-216.567	160.685	0.229	-0.313
-215.552	-38.493	-0.186	0.096
-214.538	-102.193	-0.022	-0.005
-213.523	-15.188	0.136	0.085
-212.509	-182.996	-0.361	-0.006
-211.494	-115.223	0.263	0.049
-210.479	127.854	0.219	0.273
-209.465	46.755	-0.417	0.380
-208.450	731.133	0.020	-0.053
-207.436	-149.353	-0.280	0.022
-206.421	-200.000	0.049	-0.262
-205.406	170.635	-0.260	0.364
-204.392	-52.342	-0.174	-0.079
-203.377	-200.000	-0.037	0.244
-202.363	72.113	-0.224	-0.229
-201.348	46.634	-0.162	-0.148
-200.333	800.000	-0.071	0.230
-199.319	241.750	-0.176	0.289
-198.304	-53.603	-0.121	0.054
-197.290	232.805	-0.106	0.170
-196.275	477.790	0.022	-0.048
-195.260	-138.874	-0.187	0.020
-194.246	-114.897	0.159	0.030
-193.231	-200.000	-0.014	-0.295
-192.217	-21.713	-0.130	-0.077
-191.202	255.798	0.161	-0.271
-190.187	279.693	0.239	-0.418
-189.173	307.724	-0.138	-0.252
-188.158	72.201	0.134	0.136
-187.144	-75.704	-0.084	-0.029
-186.129	-126.111	0.285	0.042
-185.114	800.000	-0.075	0.245
-184.100	-200.000	-0.026	-0.138
-183.085	-137.037	-0.374	0.042
-182.071	7.361	0.054	-0.040
-181.056	-115.691	-0.295	0.054
-180.042	-49.391	0.320	-0.149
-179.027	-200.000	-0.010	-0.279
-178.012	106.125	-0.181	-0.209
-176.998	99.197	0.129	-0.146
-175.983	-200.000	-0.045	-0.251
-174.969	226.622	0.065	0.104
-173.954	-64.565	0.139	-0.055
-172.939	127.600	0.189	0.234
-171.925	-63.775	0.102	-0.041
-170.910	721.798	-0.052	0.134
-169.896	-105.701	0.137	-0.030
-168.881	22.499	0.095	-0.076
-167.866	-20.182	-0.081	0.049
-166.852	-42.993	0.239	0.118
-165.837	79.289	0.118	0.123
-164.823	-37.715	-0.152	-0.079
-163.808	60.405	0.242	-0.234
-162.793	800.000	-0.137	-0.371
-161.779	-109.086	0.277	-0.058
-160.764	-200.000	0.027	0.276
-159.750	-7.722	0.175	0.116
-158.735	800.000	0.109	0.310
-157.720	800.000	-0.193	-0.582
-156.706	2.682	-0.141	-0.100
-155.691	-56.366	-0.403	0.175
-154.677	-200.000	-0.011	0.054
-153.662	-114.377	-0.164	-0.031
-152.647	-104.998	0.216	0.048
-151.633	-200.000	-0.013	0.214
-150.618	20.233	0.224	0.177
-149.604	-33.366	0.041	0.022
-148.589	-39.209	0.152	0.078
-147.574	30.533	-0.165	0.138
-146.560	-144.422	0.162	-0.015
-145.545	-200.000	-0.020	0.109
-144.531	262.503	0.020	0.034
-143.516	-6.511	0.107	0.071
-142.502	800.000	0.101	0.393
-141.487	-48.638	0.219	0.103
-140.472	-200.000	-0.074	-0.344
-139.458	89.465	0.225	0.245
-138.443	62.111	-0.141	-0.137
-137.429	-76.749	-0.410	-0.140
-136.414	-200.000	0.003	0.067
-135.399	116.504	-0.031	-0.037
-134.385	-200.000	-0.007	0.226
-133.370	-200.000	-0.011	0.220
-132.356	34.638	-0.284	-0.242
-131.341	168.753	-0.115	-0.160
-130.326	-200.000	-0.086	-0.492
-129.312	-92.811	-0.126	0.034
-128.297	81.416	-0.252	0.265
-127.283	-200.000	-0.026	0.137
-126.268	-200.000	-0.004	-0.399
-125.253	-200.000	0.002	-0.153
-124.239	-164.525	-0.106	-0.005
-123.224	410.615	-0.103	0.213
-122.210	61.188	-0.241	-0.233
-121.195	800.000	0.065	-0.181
-120.180	-88.392	0.191	0.056
-119.166	-95.399	0.343	-0.090
-118.151	-0.582	0.302	0.209
-117.137	-142.492	-0.278	0.027
-116.122	173.975	-0.149	-0.210
-115.107	-71.193	-0.144	-0.053
-114.093	74.729	-0.199	0.204
-113.078	177.807	0.112	0.159
-112.064	301.247	0.116	-0.209
-111.049	-200.000	-0.026	0.186
-110.034	800.000	-0.088	0.310
-109.020	23.730	-0.238	0.192
-108.005	-200.000	0.022	0.441
-106.991	151.197	0.300	0.398
-105.976	-200.000	0.020	0.125
-104.962	17.432	-0.263	0.204
-103.947	33.893	0.242	0.205
-102.932	800.000	-0.035	-0.120
-101.918	-200.000	-0.014	0.184
-100.903	66.200	0.295	-0.292
-99.889	-200.000	0.010	-0.200
-98.874	7.394	0.096	-0.070
-97.859	-129.579	0.202	-0.027
-96.845	387.533	0.138	-0.279
-95.830	-102.774	-0.165	0.038
-94.816	-200.000	-0.043	0.201
-93.801	-105.094	0.290	-0.065
-92.786	-161.498	-0.309	-0.016
-91.772	-147.346	0.418	0.035
-90.757	702.878	-0.159	-0.408
-89.743	-24.562	-0.417	0.242
-88.728	-13.566	0.189	-0.120
-87.713	207.630	0.164	0.250
-86.699	580.481	0.069	0.166
-85.684	-16.282	-0.107	0.066
-84.670	-78.469	0.462	0.154
-83.655	324.589	0.139	-0.259
-82.640	-2.365	-0.217	-0.148
-81.626	-19.451	0.054	0.032
-80.611	7.106	0.195	-0.142
-79.597	-200.000	0.023	0.153
-78.582	-200.000	-0.028	0.294
-77.567	148.575	-0.046	-0.060
-76.553	-184.380	-0.088	0.001
-75.538	335.239	0.082	-0.156
-74.524	-200.000	0.076	0.382
-73.509	172.520	0.294	0.412
-72.494	-111.801	0.421	0.083
-71.480	1.301	0.309	0.216
-70.465	-88.801	0.232	-0.067
-69.451	368.486	0.099	0.195
-68.436	-4.563	-0.212	-0.142
-67.422	57.870	0.291	0.277
-66.407	800.000	0.106	0.296
-65.392	-139.830	-0.107	0.011
-64.378	587.591	0.006	-0.014
-63.363	-22.012	-0.090	-0.053
-62.349	452.011	0.033	-0.071
-61.334	125.491	-1.060	-1.302
-60.319	31.989	0.869	0.729
-59.305	800.000	-0.418	-1.511
-58.290	324.215	0.701	1.303
-57.276	291.122	0.659	1.166
-56.261	-200.000	128.642	630.855
-55.246	351.418	1641.795	3163.568
-54.232	133.337	2810.666	3536.159
-53.217	89.366	2216.048	2404.241
-52.203	32.241	1724.032	1447.865
-51.188	24.855	1540.488	1242.610
-50.173	23.013	1516.466	1210.579
-49.159	46.601	1590.744	1436.887
-48.144	43.575	1602.932	1426.533
-47.130	24.944	1550.434	1251.052
-46.115	22.067	1534.153	1217.949
-45.100	21.972	1530.031	1213.974
-44.086	21.849	1528.503	1211.864
-43.071	21.818	1526.887	1210.315
-42.057	21.734	1525.294	1208.431
-41.042	21.810	1523.392	1207.397
-40.027	21.788	1521.945	1206.047
-39.013	21.719	1520.459	1204.352
-37.998	21.702	1519.332	1203.294
-36.984	21.698	1518.317	1202.414
-35.969	21.802	1516.279	1201.468
-34.954	21.822	1515.127	1200.642
-33.940	21.755	1513.611	1198.934
-32.925	21.718	1512.967	1198.127
-31.911	21.857	1511.208	1197.631
-30.896	21.946	1509.215	1196.610
-29.881	21.935	1508.467	1195.898
-28.867	21.868	1507.521	1194.646
-27.852	21.875	1506.239	1193.630
-26.838	21.799	1505.153	1192.199
-25.823	21.838	1503.431	1191.054
-24.809	21.841	1501.390	1189.414
-23.794	21.823	1500.054	1188.182
-22.779	21.910	1499.249	1188.091
-21.765	21.898	1497.631	1186.676
-20.750	21.996	1496.138	1186.108
-19.736	21.860	1495.678	1184.783
-18.721	21.921	1494.020	1183.830
-17.706	21.851	1493.395	1182.819
-16.692	21.937	1491.799	1182.084
-15.677	21.852	1491.696	1181.387
-14.663	21.856	1489.925	1179.965
-13.648	21.748	1489.645	1178.969
-12.633	21.936	1488.168	1179.012
-11.619	21.887	1487.725	1178.290
-10.604	21.847	1486.665	1177.134
-9.590	21.841	1486.074	1176.575
-8.575	21.913	1484.821	1176.024
-7.560	21.855	1484.277	1175.157
-6.546	21.916	1483.077	1174.567
-5.531	21.892	1481.907	1173.437
-4.517	21.895	1480.998	1172.685
-3.502	21.785	1480.183	1171.260
-2.487	21.745	1479.431	1170.354
-1.473	21.723	1478.257	1169.229
-0.458	21.770	1477.044	1168.540
0.556	20.713	1467.282	1159.352
1.571	18.243	1443.512	1124.261
2.586	15.442	1381.964	1058.590
3.600	14.309	1297.234	986.889
4.615	13.003	1253.509	946.055
5.629	11.157	1196.596	892.914
6.644	5.732	1113.982	803.445
7.659	1.226	1078.617	755.465
8.673	0.824	1072.570	749.175
9.688	0.573	1069.815	745.947
10.702	0.535	1068.537	744.800
11.717	0.498	1066.090	742.845
12.731	2.383	1067.015	752.704
13.746	8.252	1074.709	787.079
14.761	14.134	1082.420	821.798
15.775	16.814	1085.860	837.602
16.790	16.821	1084.501	836.517
17.804	15.763	1082.295	829.524
18.819	14.908	1080.962	824.216
19.834	14.479	1079.450	820.879
20.848	14.243	1078.183	818.682
21.863	13.925	1077.833	816.782
22.877	13.748	1076.799	815.055
23.892	13.596	1075.743	813.439
24.907	13.486	1074.631	811.989
25.921	13.485	1074.350	811.695
26.936	13.501	1073.369	810.961
27.950	13.639	1072.760	811.106
28.965	13.432	1072.629	809.924
29.980	13.513	1071.651	809.506
30.994	13.574	1070.484	808.853
32.009	13.627	1069.704	808.448
33.023	13.694	1069.203	808.328
34.038	13.822	1068.029	807.990
35.053	13.698	1067.688	807.060
36.067	13.672	1066.232	805.762
37.082	13.716	1065.411	805.280
38.096	13.548	1064.901	804.008
39.111	13.624	1064.437	803.957
40.126	13.722	1062.848	803.159
41.140	13.681	1061.826	802.116
42.155	13.597	1060.571	800.692
43.169	13.489	1059.913	799.604
44.184	13.409	1058.718	798.244
45.199	13.332	1058.050	797.303
46.213	13.574	1056.790	797.444
47.228	13.551	1055.260	796.111
48.242	13.625	1054.347	795.706
49.257	13.537	1053.686	794.716
50.271	13.528	1052.636	793.807
51.286	13.630	1051.698	793.520
52.301	13.599	1050.697	792.548
53.315	13.590	1050.153	792.025
54.330	13.580	1049.206	791.194
55.344	13.579	1048.475	790.566
56.359	13.565	1047.414	789.629
57.374	13.480	1046.413	788.399
58.388	13.533	1045.235	787.693
59.403	13.503	1045.063	787.352
60.417	13.502	1043.965	786.453
61.432	13.424	1043.197	785.434
62.447	13.526	1042.666	785.444
63.461	13.496	1041.462	784.327
64.476	13.437	1040.800	783.482
65.490	13.379	1039.622	782.250
66.505	13.485	1038.863	782.112
67.520	13.462	1038.463	781.630
68.534	13.554	1037.478	781.256
69.549	13.447	1036.918	780.263
70.563	13.529	1036.077	779.945
71.578	13.521	1035.312	779.263
72.593	13.478	1034.331	778.253
73.607	13.423	1033.427	777.248
74.622	13.368	1032.509	776.229
75.636	13.483	1031.416	775.876
76.651	13.369	1030.794	774.808
77.666	13.482	1029.641	774.398
78.680	13.548	1029.044	774.189
79.695	13.494	1028.323	773.326
80.709	13.458	1028.218	773.010
81.724	13.378	1027.355	771.923
82.739	13.498	1026.437	771.724
83.753	13.520	1025.879	771.336
84.768	13.509	1024.773	770.387
85.782	13.609	1024.291	770.420
86.797	13.663	1023.136	769.734
87.812	13.601	1022.075	768.579
88.826	13.681	1021.019	768.087
89.841	13.618	1020.277	767.173
90.855	13.698	1019.557	766.933
91.870	13.622	1019.033	766.121
92.884	13.699	1018.039	765.658
93.899	13.594	1017.624	764.796
94.914	13.702	1016.374	764.288
95.928	13.773	1016.172	764.395
96.943	13.714	1015.396	763.470
97.957	13.651	1014.941	762.770
98.972	13.755	1013.684	762.239
99.987	13.673	1013.136	761.380
101.001	13.633	1012.538	760.679
102.016	13.660	1011.090	759.647
103.030	13.780	1009.986	759.303
104.045	13.751	1009.271	758.564
105.060	13.695	1008.696	757.809
106.074	13.775	1007.408	757.139
107.089	13.740	1006.553	756.270
108.103	13.577	1005.965	755.020
109.118	13.530	1005.020	754.029
110.133	13.626	1003.984	753.622
111.147	13.617	1003.435	753.101
112.162	13.476	1002.599	751.766
113.176	13.437	1002.316	751.312
114.191	13.628	1000.898	751.048
115.206	13.525	999.957	749.810
116.220	13.610	999.252	749.600
117.235	13.653	998.261	748.984
118.249	13.692	997.586	748.588
119.264	13.605	996.736	747.489
120.279	13.591	995.960	746.780
121.293	13.406	995.382	745.446
122.308	13.551	994.352	745.263
123.322	13.531	993.346	744.354
124.337	13.664	992.324	744.117
125.352	13.575	991.057	742.701
126.366	13.490	990.069	741.517
127.381	13.493	988.939	740.618
128.395	13.640	987.739	740.311
129.410	13.585	986.954	739.409
130.424	13.562	986.474	738.883
131.439	13.615	985.162	738.071
132.454	13.643	984.127	737.354
133.468	13.548	983.975	736.750
134.483	13.559	983.302	736.234
135.497	13.699	982.014	735.825
136.512	13.571	981.890	735.098
137.527	13.490	981.176	734.141
138.541	13.627	979.809	733.657
139.556	13.623	979.217	733.133
140.570	13.660	978.411	732.630
141.585	13.656	977.366	731.763
142.600	13.687	977.260	731.755
143.614	13.840	975.735	731.224
144.629	13.721	975.156	730.202
145.643	13.864	974.138	730.001
146.658	13.909	973.688	729.798
147.673	13.812	972.656	728.535
148.687	13.832	971.614	727.779
149.702	13.730	971.537	727.208
150.716	13.756	970.760	726.677
151.731	13.705	969.532	725.470
152.746	13.686	969.027	724.946
153.760	13.842	967.666	724.541
154.775	13.834	967.043	723.976
155.789	13.965	966.007	723.710
156.804	13.774	965.532	722.459
157.819	13.812	964.574	721.840
158.833	13.788	964.232	721.417
159.848	14.004	963.787	721.960
160.862	13.834	962.739	720.373
161.877	13.949	961.849	720.142
162.892	13.848	961.040	719.035
163.906	13.773	960.640	718.346
164.921	13.830	959.594	717.747
165.935	13.899	958.426	717.106
166.950	13.902	957.391	716.282
167.964	14.027	956.447	716.053
168.979	13.873	955.506	714.622
169.994	13.902	955.133	714.406
171.008	13.980	953.838	713.706
172.023	13.982	953.047	713.061
173.037	13.963	952.192	712.275
174.052	14.003	951.548	711.904
175.067	14.061	950.801	711.531
176.081	13.982	950.068	710.581
177.096	13.955	948.993	709.599
178.110	14.001	948.136	709.091
179.125	13.934	947.594	708.336
180.140	14.116	946.787	708.445
181.154	14.039	946.152	707.580
182.169	14.090	945.370	707.151
183.183	14.137	944.506	706.643
184.198	14.071	944.397	706.217
185.213	14.079	943.158	705.263
186.227	14.120	942.958	705.222
187.242	14.206	942.139	704.915
188.256	14.172	941.805	704.456
189.271	14.372	940.426	704.211
190.286	14.268	939.789	703.231
191.300	14.061	939.170	701.832
192.315	14.135	938.217	701.369
193.329	14.037	937.939	700.684
194.344	14.166	937.104	700.544
195.359	14.189	936.358	700.019
196.373	14.258	936.061	700.029
197.388	14.241	935.068	699.150
198.402	14.264	935.043	699.168
199.417	14.224	934.821	698.771
200.432	14.407	933.973	698.843
201.446	14.540	933.492	698.980
202.461	14.509	933.115	698.504
203.475	14.378	932.668	697.559
204.490	14.630	931.482	697.664
205.504	14.620	930.286	696.664
206.519	14.465	930.085	695.806
207.534	14.436	929.500	695.186
208.548	14.570	928.188	694.699
209.563	14.437	927.843	693.828
210.577	14.484	927.152	693.445
211.592	14.564	926.868	693.504
212.607	14.596	926.306	693.156
213.621	14.550	925.611	692.385
214.636	14.586	924.676	691.771
215.650	14.503	924.344	691.116
216.665	14.507	923.405	690.369
217.680	14.633	923.081	690.589
218.694	14.664	922.642	690.329
219.709	14.757	922.000	690.172
220.723	14.632	921.527	689.240
221.738	14.564	920.963	688.476
222.753	14.740	919.660	688.168
223.767	14.728	918.678	687.321
224.782	14.778	918.046	686.994
225.796	14.772	917.635	686.599
226.811	14.726	917.012	685.883
227.826	14.864	915.848	685.519
228.840	14.650	915.736	684.498
229.855	14.819	914.708	684.361
230.869	14.820	914.055	683.814
231.884	14.764	913.369	683.010
232.899	14.835	912.716	682.752
233.913	14.862	911.979	682.254
234.928	14.907	911.322	681.883
235.942	14.895	910.431	681.106
236.957	14.879	909.865	680.558
237.972	14.887	908.907	679.817
238.986	14.752	908.676	679.032
240.001	14.744	908.148	678.546
241.015	14.766	907.524	678.110
242.030	14.838	906.536	677.604
243.045	14.858	906.133	677.323
244.059	14.880	905.952	677.215
245.074	14.964	904.938	676.737
246.088	15.068	903.876	676.306
247.103	14.982	903.887	675.904
248.117	14.964	903.203	675.260
249.132	15.125	902.549	675.364
250.147	15.053	901.929	674.550
251.161	15.114	901.321	674.281
252.176	15.172	900.314	673.701
253.190	15.357	899.578	673.834
254.205	15.246	899.283	673.109
255.220	15.308	898.545	672.743
256.234	15.250	897.772	671.874
257.249	15.410	897.265	672.073
258.263	15.286	896.783	671.156
259.278	15.478	895.670	671.033
260.293	15.182	895.967	670.013
261.307	15.294	895.198	669.824
262.322	15.346	894.613	669.537
263.336	15.323	894.072	668.978
264.351	15.489	892.971	668.759
265.366	15.435	892.535	668.158
266.380	15.477	891.941	667.822
267.395	15.466	891.142	667.119
268.409	15.550	890.322	666.781
269.424	15.528	889.555	666.058
270.439	15.492	889.082	665.502
271.453	15.513	888.447	665.054
272.468	15.531	887.461	664.328
273.482	15.610	886.855	664.127
274.497	15.486	886.128	663.035
275.512	15.451	885.907	662.673
276.526	15.542	884.488	661.909
277.541	15.532	884.311	661.682
278.555	15.527	883.564	661.043
279.570	15.572	883.131	660.837
280.585	15.760	882.242	660.852
281.599	15.703	881.958	660.357
282.614	15.728	881.562	660.101
283.628	15.547	880.762	658.733
284.643	15.667	880.396	658.870
285.657	15.811	879.610	658.788
286.672	15.746	879.246	658.202
287.687	15.747	878.720	657.756
288.701	15.763	877.979	657.207
289.716	15.743	877.572	656.764
290.730	15.710	877.068	656.200
291.745	15.809	875.945	655.686
292.760	15.857	875.278	655.319
293.774	15.934	874.556	655.018
294.789	15.802	874.310	654.264
295.803	15.911	873.519	654.035
296.818	15.832	872.987	653.274
297.833	15.917	872.443	653.140
298.847	15.835	871.591	652.124
299.862	15.809	870.967	651.500
300.876	16.000	870.471	651.811
301.891	15.965	869.584	650.955
302.906	16.017	868.800	650.510
303.920	16.049	868.503	650.354
304.935	16.036	867.727	649.665
305.949	16.184	866.653	649.375
306.964	15.999	866.540	648.518
307.979	16.176	865.994	648.734
308.993	16.190	865.583	648.423
310.008	16.070	864.997	647.465
311.022	16.341	863.996	647.697
312.037	16.231	863.732	647.020
313.052	16.237	863.358	646.705
314.066	16.250	862.618	646.146
315.081	16.228	862.092	645.608
316.095	16.067	861.822	644.734
317.110	16.269	860.792	644.679
318.125	16.164	860.259	643.819
319.139	16.238	859.748	643.664
320.154	16.296	859.268	643.470
321.168	16.249	858.994	643.026
322.183	16.292	858.082	642.453
323.197	16.388	857.639	642.426
324.212	16.386	856.996	641.881
325.227	16.412	856.470	641.528
326.241	16.438	855.985	641.207
327.256	16.403	855.272	640.484
328.270	16.247	855.197	639.782
329.285	16.317	854.690	639.609
330.300	16.394	853.838	639.208
331.314	16.332	853.384	638.576
332.329	16.334	852.989	638.230
333.343	16.360	851.922	637.474
334.358	16.331	851.402	636.919
335.373	16.443	850.610	636.692
336.387	16.578	850.147	636.798
337.402	16.462	849.704	635.975
338.416	16.554	849.296	635.959
339.431	16.655	848.182	635.447
340.446	16.694	847.910	635.333
341.460	16.643	847.643	634.884
342.475	16.611	846.835	634.105
343.489	16.615	846.359	633.708
344.504	16.692	845.819	633.536
345.519	16.735	845.336	633.279
346.533	16.697	844.345	632.339
347.548	16.799	843.883	632.316
348.562	16.802	843.587	632.048
349.577	16.750	843.182	631.496
350.592	16.835	842.163	630.993
351.606	16.727	841.921	630.354
352.621	16.757	841.481	630.082
353.635	16.829	841.225	630.101
354.650	16.796	841.015	629.765
355.665	16.655	840.962	629.147
356.679	16.803	839.893	628.841
357.694	16.793	839.699	628.603
358.708	16.860	839.158	628.390
359.723	16.774	838.391	627.440
360.738	16.924	837.540	627.302
361.752	16.853	837.287	626.796
362.767	16.758	837.129	626.271
363.781	16.972	836.210	626.318
364.796	16.950	835.998	626.022
365.810	17.083	835.667	626.209
366.825	17.086	835.102	625.742
367.840	17.077	834.566	625.251
368.854	16.944	834.345	624.543
369.869	17.040	834.274	624.789
370.883	17.147	833.093	624.242
371.898	16.934	832.518	622.972
372.913	17.254	831.751	623.519
373.927	17.349	831.186	623.386
374.942	17.119	831.049	622.387
375.956	17.189	830.085	621.864
376.971	17.146	829.525	621.232
377.986	17.413	828.775	621.594
379.000	17.393	828.264	621.081
380.015	17.262	828.183	620.487
381.029	17.290	827.508	620.027
382.044	17.192	827.075	619.293
383.059	17.309	826.465	619.205
384.073	17.468	825.765	619.205
385.088	17.391	825.084	618.362
386.102	17.457	824.921	618.425
387.117	17.306	824.415	617.442
388.132	17.276	824.167	617.092
389.146	17.277	823.660	616.661
390.161	17.349	823.095	616.447
391.175	17.331	822.966	616.227
392.190	17.506	822.190	616.225
393.205	17.506	821.610	615.737
394.219	17.416	821.302	615.127
395.234	17.508	820.771	615.006
396.248	17.460	820.064	614.248
397.263	17.471	819.923	614.129
398.278	17.348	819.804	613.541
399.292	17.368	818.846	612.844
400.307	17.471	818.410	612.832
401.321	17.393	818.339	612.444
402.336	17.409	817.813	612.053
403.350	17.495	817.255	611.891
404.365	17.657	816.507	611.859
405.380	17.562	816.269	611.287
406.394	17.580	816.024	611.111
407.409	17.731	815.253	611.023
408.423	17.791	814.495	610.615
409.438	17.713	814.271	610.114
410.453	17.781	813.808	609.956
411.467	17.823	813.276	609.654
412.482	17.807	812.898	609.258
413.496	17.792	812.402	608.781
414.511	17.766	812.031	608.355
415.526	17.861	811.679	608.377
416.540	17.922	811.168	608.158
417.555	17.971	810.826	608.023
418.569	17.877	810.282	607.224
419.584	17.704	810.004	606.347
420.599	18.045	809.078	606.811
421.613	114.579	1299.410	1489.461
422.628	99.062	1370.814	1489.541
