DTS Sentinel unit serial number:	SN413079Multiplexer serial number:	ORYXHardware model number:	OX4-SRSoftware version number:	ORYX F/W v4.00 Oryx Data Collector v3.7.2.0data status	okinstallation	princeton_trtdifferential loss correction	single-endedforward channel	channel 3reverse channel	N/Adate	2019/09/12time	18:23:03forward acquisition time	15.00reverse acquisition time	0.00gamma	496.2192k internal	0.2317k external	0.2317temperature offset calibration	1.0093default loss term (dB/km)	0.3790temperature slope calibration	1.0000multiplexer offset coefficient	1.0000multiplexer slope coefficient	1.0000fibre end	0.00T internal ref (°C)	33.37T ext. ref 1 (°C)	2.90T ext. ref 2 (°C)	28.03length (m)	temperature (°C)	Stokes	anti-Stokes-747.200	147.673	0.035	0.048
-746.185	346.406	-0.094	0.188
-745.171	72.284	-0.309	-0.326
-744.156	167.237	0.462	-0.665
-743.142	-75.300	0.335	-0.121
-742.127	108.400	0.564	-0.681
-741.112	642.748	-0.329	-0.849
-740.098	-5.337	-0.574	-0.399
-739.083	-186.089	0.822	-0.012
-738.069	-57.455	-1.211	-0.538
-737.054	800.000	-0.214	-0.774
-736.039	-63.994	0.334	0.138
-735.025	612.107	-0.064	0.161
-734.010	110.584	-0.298	-0.363
-732.996	-200.000	-0.069	-0.647
-731.981	-193.530	-0.185	0.002
-730.966	-94.437	-0.539	-0.149
-729.952	60.657	0.373	0.374
-728.937	800.000	0.201	0.631
-727.923	-52.723	0.440	-0.206
-726.908	800.000	-0.083	-0.255
-725.894	578.302	-0.152	-0.377
-724.879	-29.623	0.174	0.100
-723.864	12.578	-0.450	0.351
-722.850	800.000	0.132	-0.567
-721.835	-161.940	-0.364	0.019
-720.821	-84.793	0.279	0.089
-719.806	150.017	-0.245	0.336
-718.791	-28.076	-0.291	-0.170
-717.777	19.278	0.300	-0.243
-716.762	-154.018	0.361	0.025
-715.748	-33.063	-0.114	-0.064
-714.733	-200.000	0.044	0.793
-713.718	-50.247	0.201	0.096
-712.704	207.777	-0.041	-0.065
-711.689	-149.136	-0.811	0.066
-710.675	11.273	0.412	-0.319
-709.660	308.232	-0.073	0.138
-708.645	282.359	0.459	-0.832
-707.631	-106.424	-0.409	0.092
-706.616	-130.178	0.256	0.035
-705.602	-106.858	0.420	0.094
-704.587	253.957	-0.497	0.858
-703.572	69.519	0.678	-0.706
-702.558	128.561	-0.074	0.095
-701.543	-200.000	0.065	-0.401
-700.529	800.000	-0.122	-0.383
-699.514	-200.000	0.088	-0.797
-698.499	365.091	0.236	-0.481
-697.485	-45.410	0.486	-0.243
-696.470	-0.689	-0.600	0.430
-695.456	311.896	-0.151	0.286
-694.441	-172.450	-0.994	0.032
-693.426	-132.746	0.883	-0.114
-692.412	20.072	-0.187	0.153
-691.397	-61.001	-0.506	-0.216
-690.383	53.524	-0.542	0.525
-689.368	221.327	-0.100	-0.163
-688.354	119.763	-0.405	-0.507
-687.339	-96.509	0.253	-0.067
-686.324	-200.000	0.040	0.503
-685.310	800.000	-0.099	0.315
-684.295	2.055	-0.683	-0.498
-683.281	-48.592	-0.314	0.153
-682.266	-10.999	-0.322	-0.215
-681.251	800.000	0.154	0.460
-680.237	-200.000	-0.006	-0.538
-679.222	420.716	0.091	-0.197
-678.208	-200.000	-0.148	0.750
-677.193	-38.781	-0.597	-0.318
-676.178	-21.277	-0.334	-0.206
-675.164	-61.955	-0.454	-0.192
-674.149	-137.267	0.778	-0.089
-673.135	-134.351	0.441	-0.055
-672.120	183.150	-0.409	0.610
-671.105	-116.350	-0.276	-0.051
-670.091	-200.000	-0.003	-0.453
-669.076	681.554	-0.282	-0.742
-668.062	-200.000	0.048	-0.660
-667.047	229.990	-0.096	0.158
-666.032	184.467	0.341	0.510
-665.018	321.289	0.341	-0.654
-664.003	-88.326	-0.445	-0.134
-662.989	172.032	-0.138	-0.200
-661.974	-99.953	-0.554	-0.140
-660.959	-15.750	-0.706	-0.454
-659.945	-127.183	0.521	-0.077
-658.930	800.000	0.234	-0.687
-657.916	518.807	0.119	-0.281
-656.901	90.366	0.234	0.264
-655.886	800.000	0.146	0.426
-654.872	-23.156	0.259	0.158
-653.857	-200.000	0.048	-0.382
-652.843	800.000	-0.188	-0.562
-651.828	-200.000	-0.095	0.504
-650.814	9.261	-0.568	-0.433
-649.799	196.325	0.117	0.179
-648.784	-50.205	0.270	-0.129
-647.770	66.207	-0.332	0.340
-646.755	-115.573	0.425	-0.081
-645.741	800.000	-0.063	-0.233
-644.726	800.000	0.148	-0.420
-643.711	800.000	-0.111	-0.349
-642.697	-100.262	0.806	-0.202
-641.682	800.000	-0.219	0.628
-640.668	704.222	-0.107	-0.285
-639.653	-71.517	-1.056	0.398
-638.638	-74.022	0.803	-0.293
-637.624	701.417	0.114	-0.301
-636.609	-200.000	-0.906	0.002
-635.595	800.000	0.116	-0.417
-634.580	-40.833	-0.901	0.470
-633.565	206.973	-0.383	0.602
-632.551	-131.562	-0.428	0.057
-631.536	21.411	-0.310	0.254
-630.522	156.173	0.513	0.713
-629.507	-32.596	-0.621	0.348
-628.492	226.774	-0.288	0.471
-627.478	49.906	-0.308	0.293
-626.463	47.716	-0.482	0.453
-625.449	800.000	0.172	-0.525
-624.434	-30.698	-0.711	-0.405
-623.419	158.910	0.162	-0.226
-622.405	-18.809	0.575	0.361
-621.390	-200.000	0.043	-0.641
-620.376	27.313	0.382	0.324
-619.361	528.308	0.135	-0.322
-618.346	569.601	-0.285	-0.699
-617.332	44.495	-0.386	-0.357
-616.317	-148.285	-1.058	0.088
-615.303	800.000	0.289	0.964
-614.288	-200.000	0.331	1.477
-613.273	78.510	-0.815	0.877
-612.259	-90.155	0.851	-0.249
-611.244	-200.000	0.001	-0.041
-610.230	800.000	-0.295	-1.002
-609.215	13.263	-0.066	0.051
-608.201	-83.011	0.056	0.018
-607.186	-96.880	0.842	-0.223
-606.171	-200.000	0.074	0.514
-605.157	30.411	-0.377	-0.325
-604.142	175.164	-0.082	-0.119
-603.128	-91.465	0.648	0.186
-602.113	720.023	0.282	0.754
-601.098	800.000	-0.146	0.516
-600.084	21.001	-0.669	-0.546
-599.069	-73.097	0.131	0.048
-598.055	-90.140	-0.265	-0.078
-597.040	-183.246	0.645	0.011
-596.025	107.032	-0.055	0.066
-595.011	408.870	0.082	0.174
-593.996	-4.724	-0.218	-0.152
-592.982	-122.858	-0.924	-0.150
-591.967	57.304	0.170	-0.167
-590.952	135.245	0.440	0.576
-589.938	800.000	-0.167	-0.466
-588.923	32.859	0.643	0.560
-587.909	614.320	0.314	0.790
-586.894	13.880	-0.536	0.419
-585.879	-41.565	-0.482	0.249
-584.865	-200.000	0.118	-0.655
-583.850	620.962	-0.103	-0.260
-582.836	299.704	-0.434	0.804
-581.821	-200.000	0.027	-0.369
-580.806	131.321	0.198	-0.256
-579.792	-200.000	-0.031	0.159
-578.777	-14.925	-1.012	0.653
-577.763	-200.000	-0.011	-0.471
-576.748	17.998	1.023	-0.820
-575.733	-14.721	-0.341	0.220
-574.719	-80.118	-0.843	-0.284
-573.704	54.179	-0.501	-0.485
-572.690	-200.000	-0.071	0.358
-571.675	109.817	0.178	0.214
-570.661	276.578	-0.358	-0.639
-569.646	239.190	-0.206	0.344
-568.631	13.619	-0.508	-0.397
-567.617	-83.166	0.554	0.179
-566.602	-200.000	0.045	0.565
-565.588	748.420	-0.256	0.694
-564.573	53.332	0.472	0.455
-563.558	693.564	-0.126	0.332
-562.544	-89.793	0.348	0.102
-561.529	86.417	-0.296	0.328
-560.515	-200.000	0.018	0.354
-559.500	-159.322	0.398	0.022
-558.485	-200.000	0.009	-0.406
-557.471	-10.195	0.354	0.236
-556.456	216.162	0.279	-0.446
-555.442	-200.000	0.032	0.605
-554.427	4.912	-0.594	0.439
-553.412	-67.772	-0.198	-0.078
-552.398	35.578	-0.119	-0.105
-551.383	355.398	0.350	-0.700
-550.369	107.480	0.411	-0.491
-549.354	800.000	0.188	0.681
-548.339	-146.043	0.322	-0.029
-547.325	-124.954	-0.526	0.081
-546.310	-63.457	0.508	0.210
-545.296	430.504	0.211	-0.460
-544.281	-148.618	0.664	0.054
-543.266	747.943	0.219	-0.594
-542.252	-80.506	-0.373	0.125
-541.237	-111.245	-0.934	0.192
-540.223	-200.000	-0.001	-0.641
-539.208	-200.000	0.095	-0.670
-538.193	318.164	-0.054	0.103
-537.179	-89.652	-0.437	0.129
-536.164	-107.091	0.196	0.043
-535.150	-200.000	-0.126	0.580
-534.135	-2.247	-0.341	-0.240
-533.121	-92.655	0.268	-0.075
-532.106	-94.184	0.483	0.133
-531.091	9.319	0.526	-0.400
-530.077	-43.686	0.347	0.175
-529.062	-200.000	0.015	-0.407
-528.048	-82.295	-0.273	-0.089
-527.033	800.000	-0.120	0.378
-526.018	-55.802	0.871	-0.391
-525.004	424.746	-0.203	0.438
-523.989	-200.000	0.012	0.943
-522.975	-200.000	0.151	-0.975
-521.960	111.270	0.571	-0.691
-520.945	770.746	0.142	0.388
-519.931	-200.000	0.017	0.281
-518.916	33.072	-0.630	0.548
-517.902	352.568	-0.410	0.815
-516.887	-72.601	-0.544	0.202
-515.872	622.759	0.295	0.745
-514.858	-10.786	-0.340	0.226
-513.843	443.045	0.213	-0.468
-512.829	29.261	-0.638	0.544
-511.814	-94.794	-0.797	0.217
-510.799	22.036	-0.171	0.140
-509.785	-175.971	-0.541	0.014
-508.770	53.607	-0.178	0.172
-507.756	800.000	0.082	0.284
-506.741	754.459	-0.158	-0.427
-505.726	-200.000	0.038	0.278
-504.712	-200.000	-0.086	-0.417
-503.697	287.716	-0.181	0.328
-502.683	-136.553	0.448	-0.052
-501.668	33.400	-0.457	-0.398
-500.653	-200.000	0.004	0.133
-499.639	-116.575	0.783	-0.145
-498.624	218.600	0.184	-0.294
-497.610	155.808	0.355	0.490
-496.595	226.746	0.565	0.920
-495.581	224.019	-0.522	0.845
-494.566	392.040	-0.340	0.709
-493.551	35.984	-0.653	0.576
-492.537	105.661	0.527	0.624
-491.522	625.188	0.197	0.499
-490.508	288.718	-0.050	-0.090
-489.493	-62.174	0.503	0.210
-488.478	92.425	0.245	-0.276
-487.464	-74.568	-0.807	0.291
-486.449	-21.075	-0.745	0.457
-485.435	318.956	0.220	0.418
-484.420	-85.239	-0.799	0.250
-483.405	-112.522	-0.270	-0.054
-482.391	-42.668	0.618	0.315
-481.376	123.962	0.050	0.063
-480.362	55.859	-0.094	0.091
-479.347	162.150	-0.075	-0.105
-478.332	-90.408	-0.300	0.087
-477.318	-108.206	1.127	-0.244
-476.303	-6.501	-0.393	0.268
-475.289	163.871	0.201	-0.284
-474.274	39.234	0.510	0.457
-473.259	373.498	-0.077	-0.158
-472.245	-91.405	-0.295	-0.085
-471.230	-41.381	0.606	0.313
-470.216	-200.000	-0.013	-0.070
-469.201	800.000	0.123	-0.468
-468.186	151.114	0.159	-0.217
-467.172	-161.664	-0.042	0.002
-466.157	-200.000	-0.142	0.797
-465.143	-200.000	0.306	-0.001
-464.128	44.356	-0.590	-0.543
-463.113	49.089	0.609	0.573
-462.099	-50.717	0.467	-0.220
-461.084	800.000	-0.358	-1.265
-460.070	295.742	0.241	-0.442
-459.055	122.079	-0.265	-0.331
-458.040	-200.000	-0.041	0.254
-457.026	-196.595	-0.852	0.006
-456.011	800.000	0.015	-0.062
-454.997	-102.136	0.177	0.043
-453.982	314.670	0.326	0.614
-452.968	-32.697	-0.273	0.152
-451.953	130.762	0.468	-0.601
-450.938	17.940	0.119	0.095
-449.924	-79.937	-0.790	0.266
-448.909	-117.330	-0.833	-0.151
-447.895	-200.000	-0.047	-0.516
-446.880	472.281	0.178	0.402
-445.865	-53.241	0.450	-0.207
-444.851	-24.013	-0.232	0.139
-443.836	36.508	0.638	-0.563
-442.822	-102.119	-0.587	0.141
-441.807	-200.000	0.120	0.762
-440.792	142.857	0.685	-0.911
-439.778	81.303	-0.090	0.097
-438.763	-25.209	0.532	0.315
-437.749	-62.512	-0.484	0.201
-436.734	-154.608	0.582	0.039
-435.719	-200.000	-0.013	-0.073
-434.705	-30.079	0.292	0.166
-433.690	800.000	-0.114	0.489
-432.676	568.241	-0.184	0.448
-431.661	-179.489	0.688	0.015
-430.646	47.829	1.002	0.935
-429.632	89.743	0.368	-0.411
-428.617	336.574	-0.393	0.763
-427.603	-200.000	0.062	-0.606
-426.588	-200.000	0.040	0.694
-425.573	146.823	-0.395	-0.531
-424.559	-200.000	-0.052	0.419
-423.544	800.000	-0.094	0.391
-422.530	218.917	0.330	0.528
-421.515	-200.000	0.036	-0.640
-420.500	-43.217	0.366	-0.185
-419.486	-167.516	-0.472	0.019
-418.471	19.079	-0.054	0.043
-417.457	53.162	-0.676	0.647
-416.442	-97.545	0.237	0.062
-415.428	551.913	0.130	0.313
-414.413	800.000	0.161	-0.568
-413.398	360.582	-0.169	-0.338
-412.384	-90.169	-0.063	0.018
-411.369	252.932	0.086	-0.146
-410.355	-200.000	-0.009	-0.797
-409.340	186.065	0.257	0.382
-408.325	152.136	0.343	-0.468
-407.311	36.414	0.421	-0.371
-406.296	786.716	-0.067	-0.183
-405.282	800.000	0.280	-0.872
-404.267	800.000	-0.228	0.651
-403.252	107.386	0.264	0.313
-402.238	-56.821	0.794	0.351
-401.223	800.000	0.065	-0.278
-400.209	-200.000	-0.078	-0.407
-399.194	-70.040	-0.708	0.269
-398.179	-156.304	-0.170	-0.011
-397.165	-200.000	0.184	-0.887
-396.150	-62.298	-0.596	0.248
-395.136	250.429	0.135	-0.230
-394.121	800.000	-0.095	0.324
-393.106	124.191	0.817	1.025
-392.092	29.241	-0.361	-0.306
-391.077	-155.050	-1.140	-0.075
-390.063	329.339	0.030	-0.058
-389.048	634.511	0.155	-0.392
-388.033	93.358	0.425	0.480
-387.019	800.000	-0.169	0.538
-386.004	616.930	-0.227	-0.568
-384.990	413.470	0.410	0.871
-383.975	-200.000	-0.042	-0.271
-382.960	800.000	0.260	-1.025
-381.946	-144.256	0.252	0.023
-380.931	-111.676	0.066	-0.013
-379.917	-81.255	0.352	0.116
-378.902	-10.910	-0.321	-0.212
-377.888	800.000	-0.099	0.385
-376.873	-43.842	-0.187	0.094
-375.858	335.600	-0.447	-0.866
-374.844	-95.161	0.394	-0.106
-373.829	-180.341	-0.735	-0.015
-372.815	-200.000	-0.044	0.784
-371.800	78.831	0.313	0.335
-370.785	-159.728	-0.096	0.005
-369.771	-163.833	0.979	-0.046
-368.756	-200.000	0.070	-0.484
-367.742	278.292	0.284	0.504
-366.727	571.212	0.167	0.405
-365.712	800.000	0.180	0.775
-364.698	-52.821	0.506	0.232
-363.683	-200.000	-0.014	-0.445
-362.669	-108.908	0.958	-0.204
-361.654	-7.037	0.268	-0.181
-360.639	-200.000	-0.025	0.160
-359.625	-200.000	0.045	-0.459
-358.610	113.099	0.187	-0.226
-357.596	-12.599	-0.220	-0.143
-356.581	17.064	-0.152	0.120
-355.566	-117.881	-0.605	0.108
-354.552	-81.391	0.759	-0.249
-353.537	-43.408	0.418	-0.211
-352.523	-200.000	0.017	0.325
-351.508	-146.419	0.359	-0.031
-350.493	612.189	-0.125	0.311
-349.479	236.699	0.261	-0.430
-348.464	309.283	-0.225	0.420
-347.450	13.795	-0.442	-0.342
-346.435	309.023	-0.184	-0.343
-345.420	593.233	0.185	-0.455
-344.406	-142.294	0.393	0.039
-343.391	-200.000	0.004	-0.214
-342.377	-11.686	-0.690	-0.452
-341.362	33.455	0.591	-0.512
-340.348	418.286	0.087	-0.186
-339.333	283.772	0.286	-0.512
-338.318	88.229	-0.435	-0.481
-337.304	-125.808	-0.627	0.094
-336.289	800.000	0.286	-0.939
-335.275	394.813	-0.148	0.307
-334.260	800.000	-0.147	0.494
-333.245	-131.876	0.090	-0.012
-332.231	378.145	-0.335	0.683
-331.216	435.088	0.335	-0.726
-330.202	118.249	0.452	-0.555
-329.187	-4.332	-0.416	0.286
-328.172	31.568	0.388	-0.333
-327.158	-200.000	0.016	0.209
-326.143	-200.000	-0.011	-0.105
-325.129	-38.970	0.917	-0.481
-324.114	188.787	0.482	-0.718
-323.099	674.324	0.254	-0.656
-322.085	130.904	-0.376	-0.480
-321.070	-87.392	0.141	0.043
-320.056	-36.059	-0.469	-0.253
-319.041	-121.126	-0.430	-0.072
-318.026	139.686	-0.076	-0.099
-317.012	-85.525	0.548	-0.170
-315.997	-200.000	0.016	0.225
-314.983	201.196	-0.329	0.505
-313.968	338.055	0.406	-0.787
-312.953	25.730	0.184	0.152
-311.939	-200.000	-0.004	0.139
-310.924	-200.000	-0.020	0.225
-309.910	-53.769	0.932	0.423
-308.895	73.106	-0.058	-0.060
-307.880	118.130	0.333	-0.409
-306.866	-200.000	0.048	-0.234
-305.851	-16.017	-0.497	-0.315
-304.837	269.934	0.306	-0.535
-303.822	-28.747	-0.259	-0.148
-302.807	800.000	-0.148	0.527
-301.793	-95.805	-0.601	0.160
-300.778	24.533	-0.422	-0.348
-299.764	-114.794	-0.044	0.008
-298.749	-22.795	0.435	-0.261
-297.735	40.979	-0.749	-0.673
-296.720	-30.371	0.556	0.314
-295.705	51.169	-0.301	0.284
-294.691	-68.540	-0.468	0.180
-293.676	191.487	-0.250	0.375
-292.662	-96.498	0.190	0.050
-291.647	334.415	0.286	-0.550
-290.632	186.642	-0.428	-0.635
-289.618	-147.108	0.797	0.068
-288.603	-47.860	-0.252	-0.122
-287.589	-68.690	-0.639	0.246
-286.574	76.068	0.242	-0.254
-285.559	-98.078	-0.324	-0.083
-284.545	41.023	0.380	0.341
-283.530	-163.969	-0.735	0.034
-282.516	-95.060	-0.409	-0.110
-281.501	-42.154	-0.318	-0.162
-280.486	180.252	-0.426	-0.622
-279.472	-143.447	0.188	0.018
-278.457	-200.000	-0.069	-0.727
-277.443	-164.212	1.180	-0.054
-276.428	139.301	0.370	0.483
-275.413	-93.120	0.301	0.083
-274.399	-57.393	0.983	0.429
-273.384	210.211	0.258	0.402
-272.370	-200.000	0.054	0.594
-271.355	-200.000	-0.078	-0.407
-270.340	-115.116	0.427	-0.081
-269.326	45.795	0.361	0.332
-268.311	-52.700	-0.717	0.329
-267.297	35.457	0.186	0.162
-266.282	386.294	0.308	-0.631
-265.267	-176.752	-0.605	0.015
-264.253	-16.687	-0.202	0.127
-263.238	107.057	-0.062	-0.074
-262.224	-128.312	-0.416	-0.059
-261.209	-142.831	-0.412	0.040
-260.195	-0.849	-0.914	-0.643
-259.180	-130.787	0.487	0.065
-258.165	125.903	0.269	-0.338
-257.151	95.798	0.645	-0.731
-256.136	39.617	-0.169	0.151
-255.122	101.212	0.272	-0.314
-254.107	134.111	-0.118	-0.152
-253.092	-121.081	-0.728	0.121
-252.078	800.000	0.205	0.701
-251.063	800.000	0.047	-0.184
-250.049	-200.000	-0.059	0.324
-249.034	-200.000	-0.018	-0.245
-248.019	-75.567	0.724	0.256
-247.005	46.949	-0.195	-0.180
-245.990	-200.000	0.007	-0.238
-244.976	-200.000	0.041	-0.349
-243.961	-138.142	0.438	0.048
-242.946	481.223	0.431	-0.972
-241.932	-200.000	-0.139	-1.089
-240.917	205.846	-0.344	0.531
-239.903	258.305	0.345	-0.590
-238.888	-126.147	0.206	-0.031
-237.873	-160.124	0.573	0.031
-236.859	-24.672	0.759	0.448
-235.844	-30.903	-0.774	-0.434
-234.830	-115.282	-0.344	-0.065
-233.815	2.490	-0.314	-0.226
-232.800	-20.215	0.302	0.184
-231.786	-105.424	0.268	-0.061
-230.771	-62.528	0.535	0.220
-229.757	-59.793	0.353	0.150
-228.742	-103.868	-0.226	0.052
-227.727	49.482	-0.691	0.646
-226.713	-92.234	0.347	0.097
-225.698	800.000	-0.100	0.388
-224.684	-161.758	0.226	-0.011
-223.669	-26.496	0.597	-0.347
-222.655	800.000	0.116	0.427
-221.640	-200.000	0.112	-0.536
-220.625	800.000	-0.052	-0.216
-219.611	-108.839	0.141	0.030
-218.596	-200.000	0.104	0.524
-217.582	-200.000	0.064	0.392
-216.567	-126.499	-0.374	0.055
-215.552	-50.107	-0.836	0.393
-214.538	-79.179	-0.354	0.119
-213.523	20.168	0.552	0.441
-212.509	-130.075	0.555	0.075
-211.494	-17.221	0.177	0.110
-210.479	383.779	0.179	0.366
-209.465	-200.000	-0.121	-0.675
-208.450	-160.599	0.273	-0.014
-207.436	525.218	-0.295	-0.688
-206.421	29.394	-0.565	-0.476
-205.406	388.893	0.229	-0.470
-204.392	-58.639	-0.354	0.152
-203.377	-200.000	-0.007	-0.635
-202.363	-18.677	-0.094	-0.058
-201.348	-109.143	-1.099	-0.232
-200.333	800.000	-0.030	-0.114
-199.319	47.905	-0.553	0.512
-198.304	-200.000	-0.080	-0.803
-197.290	478.854	-0.316	-0.709
-196.275	-117.180	0.649	0.117
-195.260	800.000	-0.161	-0.665
-194.246	760.371	-0.157	-0.421
-193.231	169.001	0.253	-0.358
-192.217	-160.497	0.591	0.031
-191.202	-104.608	0.563	0.129
-190.187	-66.367	-0.631	-0.248
-189.173	-151.486	0.070	0.005
-188.158	-99.167	0.494	-0.124
-187.144	181.800	0.370	-0.539
-186.129	-200.000	0.178	0.946
-185.114	-84.030	-0.522	0.164
-184.100	-51.696	0.142	0.065
-183.085	-48.028	-1.065	-0.510
-182.071	262.493	-0.262	-0.451
-181.056	800.000	0.352	1.044
-180.042	-200.000	0.021	0.535
-179.027	-200.000	-0.181	0.918
-178.012	158.173	-0.317	-0.435
-176.998	-132.009	0.663	-0.085
-175.983	-200.000	-0.077	-0.384
-174.969	525.768	-0.345	0.803
-173.954	-28.777	-0.572	0.326
-172.939	-150.358	-1.084	0.083
-171.925	27.878	0.417	-0.348
-170.910	-200.000	0.045	0.463
-169.896	419.142	-0.080	-0.170
-168.881	-200.000	-0.020	-0.800
-167.866	47.997	-0.469	-0.433
-166.852	-53.614	-0.408	0.185
-165.837	695.229	-0.017	-0.043
-164.823	-93.525	0.219	0.060
-163.808	12.863	-0.255	0.195
-162.793	800.000	0.130	-0.379
-161.779	-84.623	0.734	0.229
-160.764	-180.016	-0.198	0.004
-159.750	-200.000	0.125	0.631
-158.735	-99.308	-1.277	0.319
-157.720	111.343	0.551	0.657
-156.706	673.529	0.381	-0.979
-155.691	-200.000	0.016	0.089
-154.677	-4.698	-0.219	-0.150
-153.662	115.529	-0.585	-0.707
-152.647	113.892	-0.133	-0.160
-151.633	-126.845	0.475	0.069
-150.618	-81.391	0.455	-0.148
-149.604	-200.000	-0.075	1.085
-148.589	141.301	-0.378	-0.495
-147.574	163.201	-0.072	0.100
-146.560	-34.191	-0.654	0.355
-145.545	28.974	0.618	-0.518
-144.531	-24.944	-0.541	0.317
-143.516	-45.117	-1.209	-0.595
-142.502	-143.810	0.493	-0.046
-141.487	-60.233	0.531	-0.224
-140.472	-112.779	-0.377	-0.074
-139.458	-103.960	-0.293	0.068
-138.443	-81.851	0.201	0.065
-137.429	688.527	0.020	-0.052
-136.414	11.896	-0.590	0.448
-135.399	8.546	-0.289	-0.215
-134.385	-200.000	-0.015	-0.448
-133.370	184.883	-0.272	0.399
-132.356	-64.076	1.348	0.544
-131.341	800.000	-0.104	-0.385
-130.326	80.778	-0.416	-0.444
-129.312	-35.891	-0.642	0.343
-128.297	48.871	-0.328	-0.305
-127.283	107.028	-0.609	-0.715
-126.268	-155.963	-0.347	0.022
-125.253	-109.005	0.476	0.100
-124.239	340.915	0.117	-0.226
-123.224	-135.121	1.022	-0.121
-122.210	-200.000	-0.053	-0.729
-121.195	-113.062	-0.412	0.080
-120.180	-200.000	-0.029	0.562
-119.166	-19.790	-0.220	-0.134
-118.151	324.813	-0.096	0.182
-117.137	174.487	-0.223	-0.319
-116.122	-19.811	-0.673	0.411
-115.107	-113.893	-0.234	0.045
-114.093	-61.811	-1.095	0.453
-113.078	-200.000	0.028	-0.519
-112.064	327.732	0.169	-0.321
-111.049	252.346	0.560	-0.942
-110.034	-174.935	0.598	-0.017
-109.020	141.643	-0.684	0.895
-108.005	-61.571	0.567	0.235
-106.991	153.926	-0.274	0.371
-105.976	425.584	0.326	0.693
-104.962	-5.017	0.649	0.441
-103.947	-69.334	-0.309	0.117
-102.932	-101.201	-0.831	0.201
-101.918	-97.017	-0.609	-0.157
-100.903	226.158	-0.577	-0.924
-99.889	-97.068	-0.167	0.043
-98.874	719.518	-0.205	0.537
-97.859	270.408	0.327	0.568
-96.845	-200.000	-0.139	-0.628
-95.830	-122.262	0.791	-0.128
-94.816	-166.957	-0.651	0.026
-93.801	-130.052	-0.369	-0.050
-92.786	-0.944	-0.775	-0.541
-91.772	58.835	0.133	0.129
-90.757	800.000	-0.268	0.876
-89.743	-162.406	-0.451	0.022
-88.728	-200.000	-0.095	0.764
-87.713	336.336	-0.264	0.506
-86.699	222.863	-0.125	0.198
-85.684	-47.677	-0.605	-0.290
-84.670	-97.846	0.707	-0.180
-83.655	52.314	-0.368	-0.347
-82.640	306.908	-0.209	0.384
-81.626	-125.321	0.177	0.027
-80.611	131.382	0.610	-0.773
-79.597	74.144	-0.742	0.768
-78.582	800.000	0.103	0.314
-77.567	-191.222	0.136	0.001
-76.553	-56.952	-0.740	0.322
-75.538	99.275	0.177	0.202
-74.524	572.485	0.204	0.491
-73.509	205.985	-0.510	0.782
-72.494	106.242	-0.530	-0.619
-71.480	800.000	-0.176	0.580
-70.465	-200.000	0.028	1.085
-69.451	35.006	0.274	0.236
-68.436	545.787	-0.443	-1.044
-67.422	181.960	0.170	0.247
-66.407	112.321	-0.166	-0.198
-65.392	-200.000	0.134	0.935
-64.378	-200.000	-0.493	-0.000
-63.363	800.000	-0.302	-1.269
-62.349	-200.000	0.283	-1.293
-61.334	-37.178	-2.015	-1.063
-60.319	375.271	0.247	0.495
-59.305	-200.000	-0.109	-0.641
-58.290	153.968	0.709	0.958
-57.276	600.273	0.503	1.230
-56.261	-200.000	96.080	569.646
-55.246	628.624	1373.966	3421.865
-54.232	199.079	2542.337	3838.170
-53.217	116.518	2151.666	2599.912
-52.203	43.710	1699.211	1532.263
-51.188	36.640	1513.980	1317.247
-50.173	34.202	1488.243	1278.454
-49.159	54.395	1538.205	1459.603
-48.144	54.976	1557.568	1481.893
-47.130	36.760	1514.088	1317.951
-46.115	33.567	1500.717	1284.667
-45.100	33.316	1497.359	1280.041
-44.086	33.453	1495.530	1279.356
-43.071	33.455	1493.277	1277.389
-42.057	33.331	1492.116	1275.511
-41.042	33.443	1489.768	1274.203
-40.027	33.385	1488.074	1272.316
-39.013	33.431	1486.850	1271.527
-37.998	33.311	1486.056	1269.992
-36.984	33.245	1485.239	1268.804
-35.969	33.507	1482.239	1267.945
-34.954	33.488	1482.469	1267.962
-33.940	33.289	1481.101	1265.410
-32.925	33.368	1479.317	1264.365
-31.911	33.409	1478.058	1263.512
-30.896	33.365	1477.393	1262.598
-29.881	33.460	1475.365	1261.449
-28.867	33.383	1474.177	1259.872
-27.852	33.568	1472.084	1259.260
-26.838	33.440	1471.242	1257.639
-25.823	33.438	1469.586	1256.163
-24.809	33.535	1468.566	1255.885
-23.794	33.418	1467.309	1253.986
-22.779	33.355	1465.118	1251.643
-21.765	33.382	1465.178	1251.823
-20.750	33.389	1463.134	1250.076
-19.736	33.356	1462.620	1249.370
-18.721	33.569	1461.353	1249.640
-17.706	33.365	1460.543	1247.556
-16.692	33.328	1458.941	1245.891
-15.677	33.318	1457.637	1244.663
-14.663	33.315	1457.391	1244.384
-13.648	33.356	1456.528	1243.872
-12.633	33.242	1454.940	1241.717
-11.619	33.304	1455.467	1242.525
-10.604	33.409	1453.701	1241.654
-9.590	33.236	1452.932	1239.812
-8.575	33.465	1452.252	1240.687
-7.560	33.187	1451.287	1237.988
-6.546	33.364	1450.437	1238.378
-5.531	33.403	1448.468	1236.898
-4.517	33.328	1448.398	1236.301
-3.502	33.256	1447.403	1234.933
-2.487	33.092	1446.486	1233.035
-1.473	33.287	1445.482	1233.400
-0.458	33.507	1443.558	1233.142
0.556	34.323	1434.165	1220.891
1.571	31.010	1409.262	1178.681
2.586	27.726	1348.956	1108.234
3.600	25.426	1269.089	1029.362
4.615	24.365	1221.841	985.096
5.629	20.777	1165.362	920.545
6.644	11.339	1081.215	807.482
7.659	4.236	1039.651	742.462
8.673	3.022	1034.611	733.008
9.688	2.906	1031.252	730.013
10.702	2.864	1029.002	728.157
11.717	2.808	1027.196	726.550
12.731	6.217	1029.852	744.521
13.746	15.446	1043.777	798.621
14.761	23.211	1052.337	842.197
15.775	25.674	1055.986	856.787
16.790	25.537	1055.184	855.407
17.804	25.376	1053.168	852.935
18.819	25.687	1053.131	854.306
19.834	25.261	1052.915	852.032
20.848	25.742	1052.178	853.641
21.863	25.696	1052.465	853.580
22.877	25.629	1052.196	852.973
23.892	25.585	1051.178	851.861
24.907	25.512	1049.961	850.452
25.921	25.493	1049.586	849.983
26.936	25.520	1048.426	849.098
27.950	25.406	1048.051	848.180
28.965	25.402	1047.130	847.343
29.980	25.540	1044.582	845.855
30.994	25.480	1043.879	844.927
32.009	25.423	1044.046	844.723
33.023	25.312	1043.889	843.995
34.038	25.259	1042.824	842.812
35.053	25.576	1041.730	843.342
36.067	25.567	1040.299	842.065
37.082	25.497	1038.819	840.467
38.096	25.627	1038.681	840.886
39.111	25.537	1038.537	840.273
40.126	25.662	1036.701	839.300
41.140	25.583	1036.814	838.946
42.155	25.377	1034.923	836.387
43.169	25.389	1033.233	835.003
44.184	25.093	1033.155	833.487
45.199	25.342	1031.959	833.606
46.213	25.204	1031.114	832.207
47.228	25.272	1030.813	832.207
48.242	25.391	1029.806	831.872
49.257	25.466	1028.789	831.324
50.271	25.377	1028.392	830.519
51.286	25.509	1027.083	829.995
52.301	25.470	1026.789	829.507
53.315	25.718	1026.131	830.044
54.330	25.693	1025.156	829.069
55.344	25.462	1025.016	827.815
56.359	25.406	1023.790	826.495
57.374	25.632	1023.082	826.889
58.388	25.264	1022.075	824.311
59.403	25.569	1020.630	824.471
60.417	25.343	1021.283	823.892
61.432	24.960	1021.281	822.057
62.447	25.188	1019.060	821.241
63.461	25.332	1019.197	821.937
64.476	25.461	1016.727	820.463
65.490	25.444	1016.778	820.353
66.505	25.357	1015.294	818.685
67.520	25.274	1016.173	818.947
68.534	25.438	1014.725	818.455
69.549	25.021	1014.120	815.992
70.563	25.201	1012.155	815.157
71.578	24.982	1012.079	814.030
72.593	24.918	1011.410	813.131
73.607	24.625	1010.010	810.605
74.622	24.581	1009.352	809.802
75.636	24.677	1009.166	810.017
76.651	25.258	1007.706	811.401
77.666	24.998	1006.737	809.377
78.680	24.989	1006.873	809.372
79.695	24.957	1005.785	808.282
80.709	25.310	1004.833	809.036
81.724	25.165	1004.520	808.058
82.739	25.482	1002.687	807.941
83.753	25.028	1002.549	805.716
84.768	25.626	1002.091	807.965
85.782	25.812	1001.151	807.968
86.797	25.949	1000.434	807.930
87.812	25.861	1000.418	807.455
88.826	25.512	999.875	805.378
89.841	25.522	998.857	804.532
90.855	25.873	997.827	805.202
91.870	25.974	997.050	804.955
92.884	25.964	996.396	804.309
93.899	26.075	996.122	804.515
94.914	25.887	994.453	802.258
95.928	25.843	993.884	801.533
96.943	26.236	992.777	802.315
97.957	25.752	991.363	798.952
98.972	25.656	990.789	797.995
99.987	25.593	990.357	797.297
101.001	25.399	989.831	795.944
102.016	25.886	988.715	797.128
103.030	25.750	988.031	795.907
104.045	26.031	986.556	795.889
105.060	25.535	986.946	793.941
106.074	25.543	985.338	792.613
107.089	25.967	984.126	793.435
108.103	25.488	983.823	791.014
109.118	25.272	984.103	790.216
110.133	25.283	982.538	788.938
111.147	25.253	982.025	788.324
112.162	25.426	980.261	787.599
113.176	25.255	978.404	785.289
114.191	25.033	979.371	785.024
115.206	25.229	978.198	784.868
116.220	24.973	977.282	782.948
117.235	24.959	976.038	781.822
118.249	24.942	975.721	781.423
119.264	25.281	974.826	782.115
120.279	25.167	973.077	780.147
121.293	25.018	972.603	779.051
122.308	24.769	972.399	777.736
123.322	24.946	970.813	777.164
124.337	25.135	969.658	776.990
125.352	25.011	969.755	776.462
126.366	24.553	967.767	772.820
127.381	24.567	966.495	771.796
128.395	24.967	966.109	773.148
129.410	25.583	966.135	775.760
130.424	25.335	966.175	774.654
131.439	25.788	963.728	774.572
132.454	25.857	963.424	774.553
133.468	25.817	961.680	772.912
134.483	25.561	962.361	772.294
135.497	25.394	962.137	771.327
136.512	25.518	961.985	771.667
137.527	25.629	960.533	770.912
138.541	25.742	958.830	769.960
139.556	25.699	959.133	769.953
140.570	25.655	958.030	768.810
141.585	25.532	957.852	768.072
142.600	25.995	956.508	768.903
143.614	26.297	954.470	768.481
144.629	26.063	954.345	767.318
145.643	26.352	953.750	767.998
146.658	26.418	952.281	767.026
147.673	25.744	952.152	763.997
148.687	25.724	950.540	762.550
149.702	25.751	949.095	761.436
150.716	25.884	948.180	761.198
151.731	25.488	947.618	759.008
152.746	25.824	946.419	759.396
153.760	25.987	947.163	760.617
154.775	26.006	945.411	759.220
155.789	25.551	946.041	757.743
156.804	25.993	944.672	758.436
157.819	25.863	943.624	756.982
158.833	26.224	942.173	757.268
159.848	26.121	942.621	757.126
160.862	26.435	941.897	757.797
161.877	25.994	941.519	755.575
162.892	25.997	939.211	753.669
163.906	25.932	938.021	752.376
164.921	25.868	937.489	751.618
165.935	25.975	937.204	751.768
166.950	25.898	935.878	750.316
167.964	26.139	935.035	750.579
168.979	26.063	933.871	749.263
169.994	26.121	933.259	748.945
171.008	25.722	932.671	746.749
172.023	25.993	931.573	746.930
173.037	26.051	930.991	746.635
174.052	26.292	929.332	746.234
175.067	25.973	929.304	744.828
176.081	25.924	927.895	743.433
177.096	25.716	927.837	742.463
178.110	25.938	926.197	741.998
179.125	26.007	925.248	741.457
180.140	25.691	924.364	739.383
181.154	25.544	924.226	738.605
182.169	25.701	923.377	738.505
183.183	25.748	924.269	739.345
184.198	26.028	923.215	739.584
185.213	26.096	922.080	738.887
186.227	26.078	921.712	738.454
187.242	25.976	921.748	738.001
188.256	26.150	920.614	737.737
189.271	26.187	919.465	736.905
190.286	26.375	918.635	736.939
191.300	26.009	917.804	734.715
192.315	25.508	917.723	732.548
193.329	24.662	915.039	726.901
194.344	24.695	913.445	725.703
195.359	25.415	914.000	729.002
196.373	25.993	914.159	731.411
197.388	26.091	914.755	732.221
198.402	25.941	914.388	731.252
199.417	26.122	913.568	731.267
200.432	26.055	912.998	730.476
201.446	26.190	912.738	730.747
202.461	25.776	911.383	727.926
203.475	25.928	911.401	728.489
204.490	25.596	909.410	725.494
205.504	24.462	908.250	719.936
206.519	24.686	908.640	721.083
207.534	25.717	908.017	724.676
208.548	26.036	907.186	725.233
209.563	25.816	907.693	724.691
210.577	26.290	906.238	725.369
211.592	25.612	906.574	722.848
212.607	26.182	905.615	724.305
213.621	26.401	904.503	724.232
214.636	26.339	904.713	724.085
215.650	26.199	903.191	722.245
216.665	26.270	903.521	722.727
217.680	26.038	903.316	721.573
218.694	26.502	901.940	722.263
219.709	26.027	901.539	719.983
220.723	25.605	900.297	717.244
221.738	25.818	900.650	718.312
222.753	26.470	899.749	720.127
223.767	26.120	899.225	718.247
224.782	26.381	897.445	717.798
225.796	26.196	897.629	717.150
226.811	26.366	897.017	717.272
227.826	26.008	895.089	714.251
228.840	25.544	894.985	712.266
229.855	25.315	893.685	710.262
230.869	25.470	893.609	710.750
231.884	25.155	892.630	708.664
232.899	25.391	891.785	708.862
233.913	25.759	892.420	710.760
234.928	26.097	891.434	711.243
235.942	25.847	891.484	710.236
236.957	25.973	890.517	709.898
237.972	25.422	889.956	707.221
238.986	25.554	889.610	707.401
240.001	25.852	888.979	708.007
241.015	25.703	887.764	706.393
242.030	25.941	887.332	706.918
243.045	26.199	886.920	707.541
244.059	25.841	887.073	706.197
245.074	26.413	885.762	707.329
246.088	26.313	885.257	706.473
247.103	26.013	884.391	704.545
248.117	25.893	884.082	703.767
249.132	26.466	884.199	706.036
250.147	26.922	882.810	706.642
251.161	26.731	883.377	706.288
252.176	27.102	882.475	706.949
253.190	27.024	882.591	706.673
254.205	27.552	881.618	707.884
255.220	27.226	881.100	706.141
256.234	27.088	881.105	705.548
257.249	26.822	879.965	703.540
258.263	27.074	879.372	703.979
259.278	27.178	878.259	703.430
260.293	26.999	878.326	702.728
261.307	27.273	877.395	702.979
262.322	27.270	876.771	702.406
263.336	27.379	876.865	702.838
264.351	26.439	875.162	697.788
265.366	25.690	873.589	693.589
266.380	25.222	872.727	691.040
267.395	26.042	872.550	693.996
268.409	27.103	873.056	698.415
269.424	26.717	872.667	696.561
270.439	26.905	872.558	697.133
271.453	26.925	871.852	696.587
272.468	26.898	870.907	695.664
273.482	26.888	870.211	695.009
274.497	27.027	869.549	694.950
275.512	26.607	869.325	693.101
276.526	26.650	867.734	691.938
277.541	26.475	868.267	691.635
278.555	26.920	867.832	692.924
279.570	27.186	865.937	692.363
280.585	27.172	864.772	691.318
281.599	26.931	865.906	691.244
282.614	27.112	864.371	690.646
283.628	26.848	863.662	689.015
284.643	26.430	863.417	687.172
285.657	26.693	863.168	687.912
286.672	26.299	862.624	685.920
287.687	26.136	860.764	683.766
288.701	26.306	861.052	684.577
289.716	26.698	860.458	685.528
290.730	26.503	859.999	684.366
291.745	26.099	859.463	682.352
292.760	26.185	858.382	681.756
293.774	25.751	858.789	680.381
294.789	26.586	859.169	683.776
295.803	27.169	859.494	686.175
296.818	27.925	857.244	687.162
297.833	27.582	856.980	685.601
298.847	27.414	855.760	683.933
299.862	26.926	854.626	681.136
300.876	26.949	855.360	681.746
301.891	27.635	853.639	682.886
302.906	27.446	853.669	682.139
303.920	27.181	853.277	680.775
304.935	27.027	853.220	680.091
305.949	27.278	852.240	680.190
306.964	27.391	852.300	680.601
307.979	26.992	851.033	678.038
308.993	26.949	850.543	677.425
310.008	27.273	850.637	678.651
311.022	27.647	850.259	679.683
312.037	27.576	848.992	678.348
313.052	27.077	848.728	676.219
314.066	27.020	847.937	675.315
315.081	26.441	846.461	671.930
316.095	26.164	845.138	669.792
317.110	26.402	845.434	670.852
318.125	26.608	846.507	672.407
319.139	26.660	844.812	671.196
320.154	25.871	843.192	666.931
321.168	25.537	841.853	664.579
322.183	25.705	842.896	665.965
323.197	26.696	842.566	669.307
324.212	27.152	841.614	670.174
325.227	27.390	841.470	670.879
326.241	26.748	842.031	668.896
327.256	26.557	842.097	668.185
328.270	27.031	840.336	668.472
329.285	26.698	839.997	666.919
330.300	26.583	839.708	666.208
331.314	26.466	837.889	664.276
332.329	26.670	837.259	664.465
333.343	26.912	837.469	665.462
334.358	27.162	836.847	665.825
335.373	27.299	836.576	666.052
336.387	27.412	836.525	666.366
337.402	27.755	834.865	666.237
338.416	27.574	835.409	665.951
339.431	27.443	835.396	665.404
340.446	27.926	834.367	666.287
341.460	28.228	833.276	666.458
342.475	27.854	834.005	665.618
343.489	27.938	832.784	664.888
344.504	27.982	831.459	663.934
345.519	27.871	832.832	664.567
346.533	28.166	831.100	664.196
347.548	28.360	830.792	664.595
348.562	28.284	829.651	663.349
349.577	28.089	829.862	662.752
350.592	27.899	829.470	661.691
351.606	28.036	828.633	661.461
352.621	27.932	827.975	660.503
353.635	27.709	828.776	660.276
354.650	27.807	826.938	659.106
355.665	27.515	826.142	657.360
356.679	26.783	824.203	653.123
357.694	26.268	824.355	651.328
358.708	27.369	823.516	654.572
359.723	27.368	823.735	654.685
360.738	27.270	822.843	653.567
361.752	27.697	823.351	655.446
362.767	27.781	823.344	655.685
363.781	27.822	823.005	655.501
364.796	28.341	822.646	657.021
365.810	28.452	822.123	656.943
366.825	28.775	821.805	657.790
367.840	28.580	821.512	656.796
368.854	28.160	820.685	654.575
369.869	27.914	820.285	653.318
370.883	27.812	818.652	651.597
371.898	27.570	818.574	650.615
372.913	27.769	817.772	650.627
373.927	27.877	817.557	650.783
374.942	28.148	816.762	651.060
375.956	28.065	816.309	650.344
376.971	28.328	816.059	651.024
377.986	28.253	815.505	650.256
379.000	28.419	814.885	650.294
380.015	28.321	814.434	649.530
381.029	28.533	813.310	649.326
382.044	28.249	813.670	648.549
383.059	28.579	813.333	649.390
384.073	28.663	812.249	648.766
385.088	28.453	812.505	648.170
386.102	28.326	811.509	646.868
387.117	28.425	810.376	646.260
388.132	28.246	810.041	645.303
389.146	27.996	809.117	643.630
390.161	27.398	808.942	641.329
391.175	27.621	808.288	641.536
392.190	28.134	809.248	644.050
393.205	28.269	807.932	643.419
394.219	27.544	806.025	639.302
395.234	25.775	803.292	630.884
396.248	24.843	802.682	627.087
397.263	26.167	803.117	632.008
398.278	27.793	804.928	639.078
399.292	28.430	803.928	640.453
400.307	27.846	803.661	638.144
401.321	27.380	803.788	636.560
402.336	27.248	804.096	636.285
403.350	27.744	802.859	636.981
404.365	28.288	803.773	639.549
405.380	28.517	802.821	639.534
406.394	28.968	802.194	640.550
407.409	29.279	801.749	641.221
408.423	29.120	801.289	640.241
409.438	28.939	800.953	639.288
410.453	29.029	800.211	638.952
411.467	28.802	800.608	638.424
412.482	28.332	800.545	636.684
413.496	28.844	798.906	637.098
414.511	29.264	798.367	638.069
415.526	28.728	798.176	636.001
416.540	28.864	797.887	636.187
417.555	28.924	797.364	635.922
418.569	28.759	796.271	634.422
419.584	28.983	796.276	635.143
420.599	28.429	796.288	633.184
421.613	159.301	1370.150	1792.441
422.628	138.112	1453.778	1792.512
