DTS Sentinel unit serial number:	SN413079Multiplexer serial number:	ORYXHardware model number:	OX4-SRSoftware version number:	ORYX F/W v4.00 Oryx Data Collector v3.7.2.0data status	okinstallation	princeton_trtdifferential loss correction	single-endedforward channel	channel 3reverse channel	N/Adate	2019/09/12time	18:37:03forward acquisition time	15.00reverse acquisition time	0.00gamma	496.2192k internal	0.2318k external	0.2318temperature offset calibration	1.0087default loss term (dB/km)	0.3790temperature slope calibration	1.0000multiplexer offset coefficient	1.0000multiplexer slope coefficient	1.0000fibre end	0.00T internal ref (°C)	33.12T ext. ref 1 (°C)	2.91T ext. ref 2 (°C)	27.68length (m)	temperature (°C)	Stokes	anti-Stokes-747.200	47.169	0.059	0.056
-746.185	-64.485	-0.115	0.047
-745.171	38.154	-0.177	0.160
-744.156	-0.854	-0.154	-0.111
-743.142	18.919	0.629	0.510
-742.127	315.481	-0.131	0.250
-741.112	-147.724	0.389	-0.033
-740.098	-8.312	-0.125	0.085
-739.083	800.000	-0.235	0.925
-738.069	800.000	-0.209	0.800
-737.054	27.132	-0.591	-0.502
-736.039	-200.000	-0.125	-0.712
-735.025	-27.152	0.293	-0.173
-734.010	-200.000	0.093	0.535
-732.996	800.000	-0.136	0.405
-731.981	115.652	0.458	0.567
-730.966	62.617	0.555	-0.561
-729.952	-38.576	0.290	-0.155
-728.937	-120.388	-0.855	-0.147
-727.923	800.000	0.015	-0.050
-726.908	762.794	-0.173	-0.475
-725.894	-123.461	0.611	0.098
-724.879	800.000	-0.091	0.270
-723.864	-200.000	-0.019	-0.087
-722.850	22.516	0.208	0.172
-721.835	-17.409	-0.322	0.205
-720.821	193.645	0.027	0.041
-719.806	-200.000	-0.022	-0.667
-718.791	-58.086	-0.337	-0.149
-717.777	-92.243	-0.909	0.259
-716.762	-48.547	0.898	0.437
-715.748	-12.685	-0.778	0.513
-714.733	-200.000	0.045	-0.449
-713.718	-149.788	-0.177	0.014
-712.704	299.962	0.249	0.464
-711.689	15.256	-0.301	0.238
-710.675	261.347	-0.154	0.270
-709.660	151.149	0.474	0.652
-708.645	60.933	0.312	-0.313
-707.631	-17.164	0.529	0.337
-706.616	800.000	0.024	-0.072
-705.602	-43.686	0.175	0.089
-704.587	-155.601	0.311	0.020
-703.572	800.000	-0.100	0.314
-702.558	29.844	0.312	-0.269
-701.543	263.033	-0.320	-0.562
-700.529	456.956	0.177	-0.397
-699.514	-18.811	-0.434	0.273
-698.499	-32.519	-0.812	-0.457
-697.485	-34.950	0.732	0.404
-696.470	-31.341	-0.430	-0.245
-695.456	166.222	-0.269	0.385
-694.441	3.142	-0.518	0.381
-693.426	-24.736	-0.546	-0.328
-692.412	23.662	-0.532	0.442
-691.397	337.194	-0.318	-0.624
-690.383	23.284	0.296	-0.245
-689.368	-167.712	0.673	-0.027
-688.354	-153.659	-1.012	0.070
-687.339	112.823	0.371	0.454
-686.324	-8.965	-0.480	0.325
-685.310	-98.606	0.358	0.092
-684.295	517.229	-0.196	0.463
-683.281	131.241	-0.362	0.469
-682.266	800.000	0.101	-0.353
-681.251	-40.138	0.471	-0.248
-680.237	-141.007	0.682	-0.071
-679.222	800.000	0.092	-0.352
-678.208	112.964	-0.308	-0.377
-677.193	-200.000	-0.121	0.661
-676.178	-35.855	0.433	0.237
-675.164	-200.000	-0.021	-0.317
-674.149	-200.000	-0.086	-0.432
-673.135	405.644	-0.206	-0.439
-672.120	434.317	0.271	-0.594
-671.105	-60.848	0.638	-0.272
-670.091	315.868	0.283	0.540
-669.076	130.342	-0.316	0.409
-668.062	634.257	-0.136	-0.349
-667.047	47.401	-0.550	-0.517
-666.032	-19.646	0.975	0.609
-665.018	-109.002	-1.075	-0.231
-664.003	-92.741	-0.553	0.156
-662.989	183.725	0.289	-0.432
-661.974	248.065	0.107	-0.183
-660.959	-110.565	0.970	0.203
-659.945	-82.367	-0.542	0.178
-658.930	129.942	-0.499	-0.644
-657.916	-38.414	0.716	-0.382
-656.901	-52.262	-0.243	0.114
-655.886	5.957	-0.253	-0.189
-654.872	165.515	-0.071	0.101
-653.857	-102.268	-0.992	-0.240
-652.843	-15.367	-0.718	-0.463
-651.828	-200.000	-0.173	-0.804
-650.814	274.834	0.178	-0.318
-649.799	-4.841	0.338	0.235
-648.784	-10.559	-0.493	-0.329
-647.770	-36.836	-0.453	-0.245
-646.755	1.253	-0.468	-0.339
-645.741	800.000	0.156	0.586
-644.726	39.709	0.350	0.317
-643.711	-31.611	0.426	-0.241
-642.697	-4.006	-0.436	-0.305
-641.682	3.418	-0.417	0.306
-640.668	73.853	0.789	0.834
-639.653	-107.045	-0.286	0.064
-638.638	567.453	0.085	-0.208
-637.624	46.232	-0.042	0.039
-636.609	-200.000	-0.027	0.268
-635.595	34.048	-0.470	-0.413
-634.580	-200.000	0.073	0.659
-633.565	8.670	0.173	0.132
-632.551	-51.141	-0.282	0.133
-631.536	800.000	0.215	0.841
-630.522	-89.779	-0.442	0.130
-629.507	25.481	-0.602	-0.505
-628.492	-112.901	-0.611	0.122
-627.478	-200.000	0.013	0.269
-626.463	19.650	-0.302	0.245
-625.449	-197.798	0.976	-0.006
-624.434	63.754	0.152	0.154
-623.419	57.552	-0.422	0.416
-622.405	405.662	0.112	0.238
-621.390	4.623	-0.702	-0.519
-620.376	156.449	0.356	-0.496
-619.361	659.045	-0.126	0.327
-618.346	-16.342	0.189	0.121
-617.332	-53.836	0.336	-0.154
-616.317	-200.000	-0.544	-0.002
-615.303	134.552	0.314	-0.410
-614.288	-200.000	-0.005	0.424
-613.273	-163.465	-0.573	-0.027
-612.259	63.011	-0.751	0.757
-611.244	-111.762	1.102	-0.225
-610.230	130.033	0.268	0.346
-609.215	-141.445	-0.760	0.077
-608.201	-200.000	0.005	0.051
-607.186	419.958	-0.368	-0.794
-606.171	-117.003	-0.520	0.096
-605.157	85.839	-0.090	0.100
-604.142	26.069	0.112	0.094
-603.128	-2.377	-0.453	0.320
-602.113	131.721	0.492	-0.637
-601.098	-10.359	-0.561	0.374
-600.084	800.000	-0.306	1.017
-599.069	-102.641	-0.031	-0.007
-598.055	335.858	-0.107	-0.208
-597.040	-58.529	-0.693	0.302
-596.025	201.195	0.117	0.181
-595.011	66.007	-0.230	0.235
-593.996	-135.096	-0.707	-0.086
-592.982	-158.201	0.595	-0.035
-591.967	-62.135	-0.085	-0.036
-590.952	-178.998	-0.479	0.011
-589.938	-200.000	-0.011	-0.388
-588.923	-87.234	-0.468	0.143
-587.909	34.784	-0.668	0.588
-586.894	-75.653	-0.287	-0.103
-585.879	-200.000	0.077	-0.485
-584.865	-104.377	0.888	0.207
-583.850	-78.709	0.954	0.328
-582.836	0.514	-0.649	0.467
-581.821	101.767	-0.052	0.061
-580.806	-16.696	-0.569	-0.362
-579.792	800.000	0.083	-0.340
-578.777	-81.790	-0.860	0.284
-577.763	-9.422	-0.367	-0.247
-576.748	-200.000	-0.080	-0.806
-575.733	-13.668	-0.210	-0.136
-574.719	-176.794	-1.221	-0.031
-573.704	349.221	-0.409	0.811
-572.690	12.456	-0.145	0.112
-571.675	-31.100	-0.508	-0.288
-570.661	-147.635	0.768	-0.065
-569.646	-200.000	-0.179	0.873
-568.631	226.361	0.504	-0.822
-567.617	67.635	0.853	-0.876
-566.602	-132.629	-0.470	0.061
-565.588	234.107	0.618	-1.024
-564.573	-200.000	0.017	0.131
-563.558	-89.410	-0.246	-0.073
-562.544	-200.000	0.146	0.728
-561.529	741.529	-0.234	0.632
-560.515	-32.710	0.499	-0.279
-559.500	-200.000	-0.169	-0.766
-558.485	-77.077	-0.140	-0.049
-557.471	216.694	0.161	0.257
-556.456	-30.553	0.882	0.502
-555.442	800.000	-0.067	-0.285
-554.427	-200.000	-0.023	-0.787
-553.412	64.396	-0.294	0.297
-552.398	-105.700	-0.309	-0.070
-551.383	-7.064	0.388	0.264
-550.369	58.111	0.188	0.185
-549.354	-36.020	0.348	-0.189
-548.339	300.543	-0.351	-0.650
-547.325	-200.000	-0.111	0.693
-546.310	-168.456	0.403	-0.016
-545.296	-200.000	0.034	-0.602
-544.281	-200.000	-0.003	-0.839
-543.266	-200.000	0.116	-0.698
-542.252	370.890	0.137	0.279
-541.237	-126.020	-0.475	-0.072
-540.223	100.502	0.119	0.139
-539.208	2.421	0.604	0.439
-538.193	-173.035	-0.196	0.006
-537.179	493.535	0.102	-0.236
-536.164	228.998	-0.087	-0.143
-535.150	401.672	-0.272	-0.573
-534.135	800.000	-0.295	-0.869
-533.121	-10.512	-1.091	0.725
-532.106	-168.181	-0.793	-0.031
-531.091	-20.605	-0.050	-0.031
-530.077	-178.823	-0.905	0.021
-529.062	800.000	0.084	-0.262
-528.048	-161.260	-0.865	-0.045
-527.033	268.350	-0.143	-0.251
-526.018	-65.604	0.357	-0.144
-525.004	-200.000	-0.060	-0.386
-523.989	800.000	-0.094	-0.328
-522.975	-200.000	0.057	-0.405
-521.960	-52.864	0.818	-0.378
-520.945	-200.000	-0.064	-0.458
-519.931	214.809	-0.595	0.947
-518.916	-64.740	0.257	-0.105
-517.902	126.964	0.328	-0.417
-516.887	-200.000	0.003	-0.600
-515.872	5.371	0.408	-0.302
-514.858	79.991	0.164	0.177
-513.843	-200.000	-0.054	0.343
-512.829	-109.717	-0.714	-0.151
-511.814	-110.532	-0.558	-0.116
-510.799	4.685	-0.452	0.333
-509.785	47.884	0.528	0.494
-508.770	-10.134	0.782	-0.521
-507.756	-84.106	1.348	-0.429
-506.741	-200.000	-0.124	-0.605
-505.726	28.037	0.450	-0.381
-504.712	345.727	0.346	0.683
-503.697	-119.138	-0.576	-0.101
-502.683	276.322	-0.127	0.225
-501.668	-167.446	-0.608	0.024
-500.653	-77.372	-0.587	-0.204
-499.639	94.030	0.418	0.475
-498.624	800.000	0.076	-0.273
-497.610	-200.000	-0.164	-0.859
-496.595	-35.063	-0.644	-0.352
-495.581	-46.189	0.513	0.253
-494.566	204.828	-0.233	-0.362
-493.551	800.000	0.222	0.866
-492.537	130.837	-0.212	-0.273
-491.522	-170.401	0.662	0.023
-490.508	-7.210	-0.388	-0.264
-489.493	-200.000	0.026	-0.526
-488.478	-200.000	0.015	-0.540
-487.464	60.710	-0.445	-0.442
-486.449	602.476	-0.291	0.725
-485.435	800.000	0.102	-0.439
-484.420	-4.085	0.411	0.285
-483.405	-55.979	0.229	-0.102
-482.391	-96.229	0.478	-0.127
-481.376	-3.553	-0.180	-0.126
-480.362	337.954	-0.052	-0.100
-479.347	800.000	0.194	-0.734
-478.332	-200.000	-0.100	-0.806
-477.318	332.871	0.180	-0.348
-476.303	480.423	-0.129	-0.292
-475.289	-109.915	-1.133	-0.238
-474.274	692.216	-0.068	0.178
-473.259	-200.000	-0.040	0.338
-472.245	43.318	-0.732	-0.670
-471.230	-42.336	0.257	0.131
-470.216	-7.371	-0.310	0.210
-469.201	800.000	0.240	0.747
-468.186	-149.869	0.238	-0.019
-467.172	-118.985	-0.914	0.160
-466.157	800.000	-0.275	-0.991
-465.143	46.575	-0.604	0.561
-464.128	287.692	0.239	-0.432
-463.113	-89.109	0.544	-0.161
-462.099	800.000	0.019	-0.054
-461.084	265.367	-0.072	0.125
-460.070	-19.468	-0.274	-0.170
-459.055	27.915	-0.339	-0.286
-458.040	546.522	0.140	0.336
-457.026	-5.091	0.487	-0.336
-456.011	800.000	-0.155	-0.601
-454.997	-17.764	-0.522	0.328
-453.982	-146.399	0.335	-0.029
-452.968	-200.000	-0.047	-0.362
-451.953	2.369	0.303	0.219
-450.938	-43.388	0.764	-0.386
-449.924	467.759	0.070	0.156
-448.909	246.035	0.131	0.221
-447.895	371.930	-0.059	0.120
-446.880	334.038	-0.560	1.084
-445.865	800.000	0.257	1.119
-444.851	-200.000	-0.053	0.736
-443.836	462.434	0.274	0.613
-442.822	-58.009	0.413	-0.180
-441.807	162.706	0.472	0.663
-440.792	461.521	0.148	-0.329
-439.778	-126.691	-0.975	0.144
-438.763	-107.315	0.443	0.097
-437.749	800.000	-0.080	-0.291
-436.734	144.067	0.148	-0.198
-435.719	113.947	-0.212	-0.258
-434.705	266.299	-0.166	-0.290
-433.690	14.975	-0.638	-0.499
-432.676	800.000	0.086	0.326
-431.661	408.518	-0.131	-0.277
-430.646	24.811	-0.781	-0.647
-429.632	-135.912	-0.652	0.077
-428.617	-53.773	-0.039	0.018
-427.603	-62.708	0.178	0.074
-426.588	-92.805	0.075	0.021
-425.573	-20.014	0.743	-0.458
-424.559	-53.122	0.785	0.361
-423.544	800.000	-0.213	-0.601
-422.530	-200.000	0.046	0.315
-421.515	-54.090	0.609	0.277
-420.500	-200.000	-0.071	-0.441
-419.486	-94.314	0.227	0.062
-418.471	-200.000	-0.106	1.211
-417.457	800.000	0.155	0.533
-416.442	-135.267	-0.222	-0.027
-415.428	2.377	0.217	0.157
-414.413	119.993	0.377	-0.467
-413.398	-64.026	-0.545	0.222
-412.384	125.129	0.371	-0.467
-411.369	-21.475	-0.270	0.165
-410.355	-200.000	0.035	0.284
-409.340	-61.999	-0.971	-0.405
-408.325	-200.000	-0.003	-0.150
-407.311	800.000	0.227	0.826
-406.296	-200.000	-0.007	-0.290
-405.282	-89.134	-0.886	0.261
-404.267	-172.767	0.441	0.014
-403.252	166.655	-0.539	0.764
-402.238	-30.491	-0.114	0.065
-401.223	186.100	0.153	-0.228
-400.209	-125.981	0.654	-0.098
-399.194	-132.741	-0.955	-0.122
-398.179	171.793	-0.292	0.418
-397.165	-38.898	0.748	-0.393
-396.150	30.581	0.160	0.137
-395.136	800.000	-0.196	-0.556
-394.121	-81.702	-0.610	0.200
-393.106	-94.000	0.375	-0.103
-392.092	-4.039	0.711	0.492
-391.077	169.710	-0.489	-0.697
-390.063	332.475	-0.060	-0.115
-389.048	-79.719	0.570	0.192
-388.033	-200.000	-0.011	0.365
-387.019	-101.541	0.244	0.059
-386.004	-200.000	0.067	-0.498
-384.990	800.000	0.263	0.917
-383.975	-200.000	-0.030	1.088
-382.960	-200.000	-0.002	-0.287
-381.946	-49.535	-0.401	-0.191
-380.931	800.000	-0.057	-0.214
-379.917	-6.926	-0.436	-0.296
-378.902	96.102	-0.458	0.522
-377.888	-200.000	0.014	0.082
-376.873	-93.458	0.313	-0.086
-375.858	-49.644	0.655	0.311
-374.844	-81.195	-0.815	0.269
-373.829	-75.720	0.147	-0.052
-372.815	800.000	-0.163	-0.450
-371.800	-200.000	0.027	-0.393
-370.785	-45.197	0.115	-0.057
-369.771	-71.136	0.677	0.254
-368.756	-200.000	-0.049	-0.654
-367.742	43.488	0.102	-0.093
-366.727	-200.000	-0.023	1.036
-365.712	61.700	0.496	0.492
-364.698	-91.905	1.156	0.327
-363.683	-200.000	0.199	-1.071
-362.669	25.535	0.109	0.091
-361.654	529.833	0.269	-0.634
-360.639	44.908	-0.276	-0.253
-359.625	312.826	-0.500	-0.937
-358.610	493.615	0.152	0.348
-357.596	-6.359	0.482	-0.328
-356.581	264.678	0.236	0.410
-355.566	-200.000	0.013	-0.313
-354.552	-36.059	0.246	0.132
-353.537	199.443	-0.579	-0.885
-352.523	138.543	-0.239	0.312
-351.508	-36.356	-0.294	-0.158
-350.493	800.000	0.057	0.197
-349.479	27.627	-0.444	-0.373
-348.464	-51.749	-0.731	0.340
-347.450	83.592	0.154	0.168
-346.435	116.247	-0.244	-0.297
-345.420	-120.568	-0.301	0.051
-344.406	-200.000	0.045	0.640
-343.391	-66.080	-0.350	-0.139
-342.377	-101.273	0.445	-0.108
-341.362	-200.000	0.058	0.323
-340.348	-82.229	0.824	0.267
-339.333	82.304	0.340	-0.368
-338.318	64.406	-0.109	-0.109
-337.304	56.042	-0.554	-0.535
-336.289	-168.086	0.827	0.032
-335.275	173.969	-0.282	0.406
-334.260	800.000	0.220	0.837
-333.245	-191.793	-0.791	0.008
-332.231	103.129	-0.367	0.429
-331.216	-56.483	0.518	-0.229
-330.202	800.000	-0.154	0.565
-329.187	187.704	0.186	-0.277
-328.172	-200.000	0.148	-0.877
-327.158	91.404	-0.656	-0.734
-326.143	-44.744	0.349	0.174
-325.129	-94.709	0.608	-0.164
-324.114	-17.861	-0.441	-0.275
-323.099	-94.308	-1.236	0.336
-322.085	800.000	-0.047	-0.164
-321.070	-81.324	-0.087	0.029
-320.056	67.224	-0.197	0.200
-319.041	746.140	-0.291	0.780
-318.026	-200.000	0.053	-0.264
-317.012	-200.000	-0.072	0.374
-315.997	-200.000	0.002	-0.074
-314.983	91.023	0.439	-0.490
-313.968	-57.253	0.918	0.402
-312.953	-68.050	1.412	0.548
-311.939	-111.324	0.376	-0.076
-310.924	86.072	-0.154	-0.168
-309.910	800.000	-0.191	-0.597
-308.895	-152.491	0.601	0.043
-307.880	126.296	-0.355	-0.447
-306.866	-200.000	0.089	-0.427
-305.851	800.000	-0.203	-0.803
-304.837	-138.802	-0.591	-0.064
-303.822	-21.703	-0.257	-0.156
-302.807	675.190	-0.171	0.443
-301.793	747.114	0.206	0.551
-300.778	-24.474	0.677	0.401
-299.764	-101.511	0.792	-0.192
-298.749	-200.000	-0.037	-0.668
-297.735	-167.284	0.307	-0.012
-296.720	-200.000	0.121	0.562
-295.705	-106.029	-0.857	0.192
-294.691	-200.000	-0.001	0.244
-293.676	486.472	-0.245	0.556
-292.662	-200.000	0.012	0.213
-291.647	66.571	-0.217	0.219
-290.632	-115.327	0.355	-0.067
-289.618	800.000	0.035	-0.151
-288.603	-9.247	0.483	0.321
-287.589	-162.864	-0.783	-0.038
-286.574	-67.599	0.685	0.267
-285.559	34.665	0.946	-0.822
-284.545	241.005	-0.387	0.643
-283.530	800.000	0.227	-0.743
-282.516	6.287	0.315	0.232
-281.501	-200.000	-0.010	0.943
-280.486	792.216	0.071	-0.195
-279.472	-158.615	0.657	-0.038
-278.457	-107.664	-1.198	0.260
-277.443	-74.918	0.489	-0.174
-276.428	-134.439	-0.161	-0.020
-275.413	18.683	0.417	-0.331
-274.399	-200.000	-0.017	0.548
-273.384	325.055	-0.425	-0.808
-272.370	350.154	-0.209	-0.411
-271.355	-29.830	0.234	-0.133
-270.340	47.943	0.512	0.475
-269.326	-20.276	0.720	0.441
-268.311	-129.577	-0.310	0.043
-267.297	-40.945	-0.213	-0.109
-266.282	0.211	0.440	-0.312
-265.267	559.625	0.220	-0.527
-264.253	-22.817	-0.736	0.441
-263.238	-147.757	-0.620	0.052
-262.224	126.991	0.124	-0.156
-261.209	-72.921	0.306	0.112
-260.195	774.269	-0.122	0.330
-259.180	-113.202	0.284	-0.056
-258.165	-100.076	-0.848	-0.210
-257.151	-200.000	0.098	-0.974
-256.136	-200.000	0.033	-0.203
-255.122	-74.857	-0.827	0.295
-254.107	-123.913	-0.690	0.108
-253.092	221.554	0.580	0.925
-252.078	121.781	0.261	0.323
-251.063	91.413	-0.192	-0.214
-250.049	-118.568	1.229	-0.216
-249.034	-58.427	-0.069	-0.030
-248.019	-165.186	-0.816	0.036
-247.005	136.978	-0.306	-0.397
-245.990	-89.430	-0.105	-0.031
-244.976	643.430	-0.203	-0.514
-243.961	5.546	-0.292	-0.214
-242.946	201.309	0.105	0.161
-241.932	-177.980	-0.755	-0.018
-240.917	333.671	-0.201	0.386
-239.903	-200.000	-0.024	-0.599
-238.888	-197.966	0.580	-0.003
-237.873	-107.205	-0.860	-0.188
-236.859	32.499	0.187	-0.160
-235.844	131.926	-0.171	0.219
-234.830	13.010	0.140	0.107
-233.815	-171.153	0.324	0.011
-232.800	576.373	-0.239	-0.580
-231.786	800.000	0.210	0.635
-230.771	-33.803	-0.740	-0.404
-229.757	-69.764	-0.875	-0.332
-228.742	-200.000	-0.093	0.527
-227.727	228.569	0.377	0.610
-226.713	-200.000	-0.055	0.721
-225.698	61.182	0.225	-0.222
-224.684	-118.981	-0.718	-0.125
-223.669	-200.000	0.070	-0.492
-222.655	800.000	0.379	1.336
-221.640	-200.000	-0.012	0.065
-220.625	-133.427	-0.665	-0.083
-219.611	233.550	0.580	-0.947
-218.596	-96.594	1.111	-0.290
-217.582	230.261	-0.127	0.206
-216.567	-140.162	-0.497	-0.052
-215.552	800.000	-0.214	-0.756
-214.538	291.778	0.185	-0.333
-213.523	174.954	0.389	0.559
-212.509	166.373	-0.421	0.592
-211.494	531.806	0.315	-0.739
-210.479	126.436	0.656	-0.823
-209.465	-43.379	-1.121	0.562
-208.450	-200.000	-0.007	0.047
-207.436	76.606	0.393	0.413
-206.421	532.463	0.246	0.577
-205.406	-200.000	-0.031	-0.401
-204.392	147.531	-0.482	-0.644
-203.377	-32.006	-0.482	0.267
-202.363	234.526	0.321	0.524
-201.348	800.000	0.185	0.694
-200.333	-150.885	0.715	-0.054
-199.319	201.829	-0.235	-0.358
-198.304	-118.130	0.521	-0.092
-197.290	-200.000	-0.025	0.872
-196.275	115.076	0.012	-0.014
-195.260	37.960	0.520	0.458
-194.246	-2.324	0.414	-0.287
-193.231	104.932	0.272	0.318
-192.217	109.965	0.234	0.278
-191.202	-111.156	-0.143	0.029
-190.187	84.411	0.406	-0.440
-189.173	-65.483	0.277	-0.110
-188.158	434.465	0.351	0.756
-187.144	116.213	-0.182	0.221
-186.129	78.690	0.344	0.364
-185.114	-200.000	1.024	-0.004
-184.100	414.024	-0.436	0.920
-183.085	-200.000	-0.177	1.532
-182.071	627.799	-0.090	0.224
-181.056	-93.501	0.956	-0.262
-180.042	110.218	-0.151	-0.179
-179.027	705.654	-0.169	-0.440
-178.012	58.962	-0.081	0.078
-176.998	-93.323	-0.446	-0.123
-175.983	-76.797	1.053	0.365
-174.969	362.369	0.361	0.718
-173.954	-76.907	0.762	-0.264
-172.939	800.000	0.162	-0.690
-171.925	7.309	-0.685	-0.507
-170.910	800.000	0.269	0.920
-169.896	25.364	-0.435	-0.358
-168.881	-150.867	0.399	-0.030
-167.866	-105.492	0.862	0.194
-166.852	-35.216	1.201	-0.647
-165.837	93.546	0.842	-0.944
-164.823	124.560	0.112	0.139
-163.808	13.259	0.147	-0.113
-162.793	-56.246	0.650	0.286
-161.779	-33.169	-0.051	0.028
-160.764	15.110	0.516	-0.400
-159.750	70.037	0.575	0.588
-158.735	-87.836	0.393	-0.117
-157.720	-99.374	-0.380	-0.095
-156.706	-143.725	0.418	0.039
-155.691	-12.226	0.483	0.313
-154.677	192.853	-0.238	0.356
-153.662	-200.000	-0.003	0.393
-152.647	61.795	0.192	0.189
-151.633	49.208	0.305	0.283
-150.618	-200.000	-0.123	0.676
-149.604	7.344	0.111	-0.082
-148.589	800.000	0.218	0.814
-147.574	-101.348	-0.209	-0.050
-146.560	-153.160	0.423	-0.029
-145.545	-6.331	0.192	-0.130
-144.531	203.618	-0.270	0.413
-143.516	207.529	-0.191	0.295
-142.502	304.721	-0.352	-0.645
-141.487	-200.000	-0.186	-0.820
-140.472	55.001	-0.052	0.049
-139.458	16.105	0.721	0.562
-138.443	75.997	-0.195	-0.204
-137.429	181.991	-0.207	0.301
-136.414	-49.528	-0.335	-0.158
-135.399	-19.214	0.391	-0.240
-134.385	-200.000	0.030	-0.664
-133.370	-200.000	-0.035	-0.758
-132.356	-97.075	-0.545	0.141
-131.341	-200.000	-0.031	0.211
-130.326	-80.936	1.137	0.372
-129.312	-131.492	-0.429	-0.056
-128.297	-130.713	-0.516	-0.069
-127.283	27.414	-0.044	0.037
-126.268	13.848	-0.762	-0.586
-125.253	541.094	0.194	-0.457
-124.239	485.478	-0.498	1.121
-123.224	-200.000	-0.099	0.585
-122.210	36.126	0.372	-0.324
-121.195	-75.075	0.164	0.058
-120.180	-74.797	0.380	0.135
-119.166	92.446	0.489	0.545
-118.151	-64.308	-1.352	0.544
-117.137	3.742	0.303	-0.219
-116.122	-59.163	-0.709	-0.302
-115.107	-10.790	-0.418	0.273
-114.093	111.823	0.254	-0.303
-113.078	-174.077	-0.578	0.017
-112.064	-200.000	0.002	0.487
-111.049	742.456	0.142	0.376
-110.034	800.000	-0.186	-0.524
-109.020	317.159	-0.384	0.717
-108.005	129.398	-0.337	-0.425
-106.991	-67.135	0.605	0.235
-105.976	-200.000	-0.066	0.601
-104.962	-200.000	0.087	0.838
-103.947	-4.496	-0.260	-0.177
-102.932	777.021	-0.119	0.320
-101.918	-200.000	0.201	1.011
-100.903	130.590	-0.162	0.205
-99.889	118.765	0.187	-0.228
-98.874	52.955	0.263	-0.249
-97.859	18.296	-0.270	0.213
-96.845	-12.340	0.617	0.398
-95.830	37.695	-0.406	-0.355
-94.816	-27.897	-0.246	0.141
-93.801	-148.079	-0.428	-0.035
-92.786	77.152	0.095	0.099
-91.772	-15.730	0.260	-0.163
-90.757	-91.539	-0.398	-0.112
-89.743	463.673	0.222	-0.490
-88.728	389.644	0.056	-0.114
-87.713	102.005	-0.590	-0.680
-86.699	-119.127	0.418	0.072
-85.684	684.537	-0.363	-0.935
-84.670	-107.747	0.757	0.163
-83.655	-39.383	0.251	-0.130
-82.640	-200.000	-0.026	-0.494
-81.626	270.383	0.341	-0.592
-80.611	53.035	-0.213	0.201
-79.597	-200.000	0.001	0.644
-78.582	400.064	0.337	0.697
-77.567	624.378	0.200	0.496
-76.553	-61.150	-0.245	0.102
-75.538	-150.103	0.323	-0.025
-74.524	-200.000	0.036	-0.725
-73.509	-200.000	-0.062	0.634
-72.494	322.875	-0.113	0.213
-71.480	8.337	0.469	0.347
-70.465	90.732	-0.153	-0.169
-69.451	1.279	0.772	0.547
-68.436	-144.736	0.503	-0.046
-67.422	-115.147	0.453	0.085
-66.407	-48.243	0.226	0.108
-65.392	800.000	-0.177	0.539
-64.378	800.000	-0.141	0.468
-63.363	164.374	0.440	-0.611
-62.349	800.000	0.093	-0.400
-61.334	302.190	-0.873	-1.592
-60.319	-164.264	1.023	0.046
-59.305	-200.000	-0.147	-1.071
-58.290	443.630	0.332	0.717
-57.276	-200.000	-0.220	1.807
-56.261	-200.000	95.107	565.105
-55.246	639.617	1365.227	3422.121
-54.232	201.119	2531.520	3838.496
-53.217	116.370	2150.331	2596.593
-52.203	43.324	1699.301	1529.159
-51.188	36.303	1512.099	1313.097
-50.173	33.954	1485.799	1274.473
-49.159	53.643	1537.139	1453.273
-48.144	54.898	1554.554	1478.235
-47.130	36.636	1512.875	1315.828
-46.115	33.467	1497.875	1281.337
-45.100	33.085	1494.852	1276.125
-44.086	33.298	1493.397	1276.268
-43.071	33.265	1491.766	1274.597
-42.057	33.147	1489.359	1271.695
-41.042	33.174	1488.485	1271.083
-40.027	33.158	1486.684	1269.384
-39.013	32.998	1485.950	1267.633
-37.998	33.055	1483.551	1265.921
-36.984	33.112	1483.469	1266.185
-35.969	33.138	1482.032	1265.079
-34.954	33.011	1481.451	1263.682
-33.940	33.169	1478.693	1262.338
-32.925	33.263	1477.645	1262.019
-31.911	33.222	1476.642	1260.840
-30.896	33.422	1474.081	1259.935
-29.881	33.328	1473.747	1258.971
-28.867	33.196	1471.820	1256.398
-27.852	33.289	1471.141	1256.388
-26.838	33.357	1469.447	1255.345
-25.823	33.093	1468.438	1252.680
-24.809	32.938	1466.542	1249.986
-23.794	33.329	1464.314	1250.622
-22.779	33.242	1463.485	1249.290
-21.765	33.135	1461.869	1247.155
-20.750	33.286	1461.395	1247.696
-19.736	33.061	1460.526	1245.424
-18.721	33.003	1459.857	1244.419
-17.706	33.124	1457.984	1243.568
-16.692	32.879	1458.316	1242.192
-15.677	33.177	1455.268	1241.507
-14.663	32.907	1456.004	1240.311
-13.648	33.109	1454.466	1240.274
-12.633	33.037	1453.642	1239.053
-11.619	33.235	1452.234	1239.098
-10.604	33.110	1451.763	1237.832
-9.590	33.001	1451.013	1236.425
-8.575	33.056	1449.526	1235.471
-7.560	32.926	1449.921	1234.908
-6.546	33.180	1448.742	1235.515
-5.531	33.105	1447.413	1233.846
-4.517	32.841	1446.931	1231.660
-3.502	33.107	1444.844	1231.570
-2.487	33.110	1444.753	1231.458
-1.473	32.814	1444.171	1228.988
-0.458	33.020	1442.744	1229.066
0.556	34.001	1431.783	1217.277
1.571	30.807	1406.819	1175.817
2.586	27.265	1346.509	1103.858
3.600	25.232	1267.058	1027.006
4.615	23.940	1219.202	981.009
5.629	20.595	1164.167	918.999
6.644	11.360	1077.486	805.115
7.659	4.318	1037.232	741.414
8.673	3.286	1031.004	731.995
9.688	3.002	1027.705	728.239
10.702	2.668	1026.997	726.091
11.717	2.686	1025.433	725.009
12.731	5.994	1027.455	742.023
13.746	15.403	1041.700	797.140
14.761	22.940	1051.154	840.292
15.775	24.787	1053.055	850.525
16.790	25.091	1051.368	850.532
17.804	24.589	1051.438	848.129
18.819	24.401	1050.437	846.357
19.834	24.848	1049.911	847.978
20.848	24.833	1049.413	847.426
21.863	24.870	1048.536	846.821
22.877	25.128	1048.175	847.672
23.892	24.835	1048.041	846.104
24.907	24.636	1046.579	843.909
25.921	24.765	1046.341	844.250
26.936	24.854	1045.389	843.830
27.950	24.686	1044.405	842.169
28.965	24.482	1044.247	841.006
29.980	24.853	1041.948	840.824
30.994	24.804	1040.621	839.447
32.009	24.880	1040.101	839.310
33.023	25.006	1039.336	839.208
34.038	24.607	1039.680	837.546
35.053	24.705	1037.308	836.019
36.067	24.789	1037.684	836.639
37.082	24.799	1036.513	835.666
38.096	24.761	1035.531	834.622
39.111	24.813	1035.717	834.942
40.126	25.093	1033.552	834.427
41.140	24.623	1033.185	831.872
42.155	24.554	1032.783	831.151
43.169	24.254	1031.625	828.753
44.184	24.626	1028.832	828.158
45.199	24.767	1028.573	828.528
46.213	24.542	1027.708	826.721
47.228	24.559	1026.851	826.034
48.242	24.605	1026.921	826.231
49.257	24.641	1025.649	825.302
50.271	24.839	1025.501	826.021
51.286	24.912	1024.363	825.370
52.301	25.082	1023.421	825.319
53.315	24.873	1022.926	823.885
54.330	24.954	1022.619	823.939
55.344	24.852	1021.603	822.579
56.359	24.752	1020.877	821.461
57.374	25.005	1020.113	821.936
58.388	24.824	1018.941	820.090
59.403	24.869	1018.250	819.665
60.417	24.649	1017.668	818.119
61.432	24.511	1016.722	816.653
62.447	24.547	1016.320	816.423
63.461	24.780	1016.007	817.164
64.476	24.672	1015.010	815.796
65.490	24.580	1014.285	814.722
66.505	24.466	1013.559	813.548
67.520	24.414	1013.388	813.102
68.534	24.917	1011.142	813.513
69.549	24.422	1011.629	811.582
70.563	24.444	1010.524	810.724
71.578	24.323	1010.357	809.972
72.593	24.643	1008.133	809.563
73.607	24.145	1007.271	806.547
74.622	23.916	1007.029	805.245
75.636	24.311	1006.110	806.227
76.651	24.660	1005.178	806.984
77.666	24.487	1004.424	805.528
78.680	24.824	1003.540	806.265
79.695	24.583	1002.248	804.071
80.709	24.368	1003.828	804.298
81.724	24.582	1002.655	804.252
82.739	24.706	1000.960	803.379
83.753	24.654	1000.693	802.856
84.768	24.644	1000.238	802.375
85.782	25.261	999.049	804.118
86.797	25.167	998.916	803.517
87.812	25.209	997.937	802.848
88.826	24.920	996.606	800.416
89.841	25.441	995.536	801.808
90.855	25.399	995.280	801.345
91.870	25.209	995.166	800.334
92.884	25.011	994.952	799.211
93.899	25.041	993.554	798.148
94.914	25.069	992.543	797.389
95.928	25.062	991.891	796.763
96.943	25.172	990.904	796.391
97.957	24.942	990.351	794.856
98.972	24.691	989.672	793.124
99.987	24.941	987.643	792.538
101.001	24.991	987.472	792.551
102.016	24.951	986.716	791.695
103.030	25.005	985.876	791.192
104.045	24.910	984.866	789.891
105.060	25.123	983.799	789.905
106.074	24.881	983.240	788.321
107.089	25.001	981.938	787.733
108.103	24.828	981.751	786.752
109.118	25.005	980.544	786.492
110.133	24.746	980.575	785.311
111.147	24.964	977.825	783.993
112.162	24.694	977.628	782.587
113.176	24.121	977.845	780.181
114.191	24.824	976.001	781.714
115.206	25.064	974.973	781.869
116.220	24.511	973.252	778.007
117.235	24.186	974.310	777.370
118.249	24.477	972.478	777.104
119.264	24.590	971.293	776.581
120.279	24.422	970.710	775.314
121.293	24.239	970.797	774.521
122.308	24.583	969.330	774.773
123.322	24.419	968.980	773.716
124.337	24.311	969.009	773.203
125.352	24.519	966.195	771.787
126.366	24.058	964.411	768.306
127.381	23.774	963.766	766.496
128.395	24.311	963.934	768.881
129.410	25.122	962.717	771.333
130.424	25.320	961.539	771.171
131.439	24.868	961.871	769.426
132.454	24.929	960.792	768.758
133.468	24.677	960.920	767.708
134.483	24.353	960.653	766.036
135.497	25.295	957.838	767.755
136.512	24.961	958.743	766.981
137.527	25.208	957.800	767.215
138.541	25.186	956.246	765.809
139.556	25.167	955.729	765.249
140.570	25.024	954.533	763.614
141.585	24.956	954.576	763.291
142.600	25.267	953.754	763.887
143.614	24.938	953.227	761.998
144.629	25.218	952.644	762.657
145.643	25.560	951.111	762.813
146.658	25.220	950.867	761.108
147.673	25.329	948.668	759.743
148.687	24.958	946.994	756.768
149.702	25.052	947.265	757.315
150.716	24.769	947.260	756.048
151.731	25.147	945.050	755.809
152.746	25.128	943.953	754.787
153.760	25.494	942.843	755.371
154.775	25.357	942.204	754.215
155.789	25.539	941.638	754.458
156.804	25.362	941.587	753.610
157.819	25.128	941.144	752.207
158.833	24.990	940.059	750.696
159.848	25.686	938.770	752.510
160.862	25.161	938.621	750.129
161.877	25.233	937.286	749.294
162.892	25.345	936.334	748.935
163.906	25.403	935.983	748.828
164.921	24.879	935.637	746.304
165.935	25.473	934.409	747.732
166.950	25.330	932.378	745.444
167.964	25.414	931.428	744.969
168.979	25.308	931.375	744.421
169.994	25.278	929.620	742.826
171.008	24.917	929.940	741.522
172.023	25.103	928.658	741.205
173.037	25.490	927.580	741.876
174.052	25.515	927.454	741.812
175.067	25.128	926.304	739.232
176.081	25.377	925.467	739.525
177.096	25.424	924.132	738.583
178.110	24.923	924.327	736.617
179.125	25.036	922.613	735.646
180.140	24.881	921.602	734.142
181.154	24.587	920.682	732.138
182.169	24.875	920.142	732.822
183.183	25.129	919.608	733.374
184.198	25.383	920.272	734.877
185.213	25.490	919.106	734.318
186.227	25.404	918.094	733.094
187.242	25.422	918.832	733.693
188.256	25.282	918.023	732.407
189.271	25.610	916.778	732.687
190.286	25.359	916.473	731.354
191.300	25.075	915.628	729.463
192.315	25.124	914.169	728.435
193.329	24.324	912.306	723.641
194.344	24.095	910.858	721.499
195.359	24.804	911.141	724.531
196.373	25.257	912.042	727.018
197.388	25.488	911.305	727.302
198.402	25.554	910.850	727.141
199.417	25.744	909.314	726.617
200.432	25.496	910.449	726.461
201.446	25.060	910.984	725.058
202.461	25.552	908.318	724.859
203.475	25.362	908.548	724.210
204.490	24.712	907.656	720.816
205.504	24.263	905.388	717.146
206.519	24.550	905.341	718.200
207.534	24.912	905.067	719.371
208.548	25.097	904.970	719.974
209.563	25.559	904.332	721.255
210.577	25.135	903.522	718.846
211.592	25.323	902.069	718.381
212.607	25.869	902.181	720.591
213.621	25.733	902.469	720.213
214.636	25.527	900.876	718.053
215.650	25.447	901.275	717.988
216.665	25.324	900.739	717.008
217.680	25.126	900.857	716.246
218.694	25.427	900.023	716.722
219.709	25.557	899.490	716.750
220.723	25.176	898.215	714.156
221.738	25.423	897.167	714.243
222.753	25.203	896.860	713.059
223.767	25.109	896.294	712.175
224.782	25.720	894.236	712.897
225.796	25.425	894.819	712.129
226.811	25.815	894.272	713.176
227.826	25.443	892.887	710.534
228.840	24.791	892.112	707.278
229.855	24.702	891.361	706.270
230.869	25.107	890.849	707.399
231.884	24.745	889.317	704.693
232.899	24.953	889.101	705.280
233.913	25.253	889.310	706.565
234.928	25.312	889.265	706.701
235.942	25.186	888.212	705.306
236.957	25.253	887.090	704.613
237.972	24.814	887.400	703.075
238.986	25.119	885.436	702.650
240.001	24.978	886.634	702.985
241.015	24.874	884.528	700.848
242.030	24.692	885.766	701.054
243.045	25.382	884.446	702.645
244.059	25.616	883.392	702.662
245.074	25.269	883.796	701.564
246.088	25.297	882.398	700.501
247.103	25.290	881.903	700.021
248.117	25.525	880.358	699.645
249.132	25.691	881.336	701.008
250.147	26.066	881.008	702.144
251.161	25.994	880.169	701.135
252.176	26.152	879.883	701.456
253.190	26.191	878.933	700.791
254.205	26.300	879.126	701.305
255.220	26.699	878.272	702.109
256.234	26.488	878.107	701.097
257.249	26.251	876.584	698.902
258.263	25.889	877.069	697.826
259.278	26.184	875.791	697.887
260.293	26.216	876.092	698.190
261.307	25.801	875.422	695.989
262.322	26.094	873.592	695.602
263.336	26.217	874.187	696.488
264.351	25.832	872.611	693.689
265.366	25.170	871.813	690.444
266.380	24.910	871.133	688.845
267.395	25.280	871.396	690.417
268.409	25.996	870.954	692.759
269.424	25.785	869.490	690.723
270.439	26.030	868.697	690.970
271.453	26.194	869.145	691.895
272.468	26.211	867.257	690.395
273.482	26.358	866.544	690.328
274.497	26.507	866.540	690.831
275.512	25.972	866.383	688.604
276.526	25.695	865.051	686.426
277.541	25.851	865.015	686.930
278.555	26.090	864.649	687.491
279.570	26.124	863.532	686.672
280.585	26.075	862.863	685.893
281.599	25.910	862.830	685.179
282.614	25.993	861.822	684.634
283.628	25.495	861.518	682.439
284.643	25.452	861.122	681.905
285.657	25.692	860.049	681.901
286.672	25.581	859.875	681.283
287.687	25.710	859.343	681.291
288.701	25.696	858.476	680.490
289.716	25.710	858.557	680.547
290.730	25.978	856.883	680.171
291.745	25.874	856.340	679.286
292.760	25.679	856.739	678.809
293.774	25.641	855.015	677.239
294.789	26.368	855.519	680.315
295.803	26.450	855.496	680.547
296.818	26.565	854.566	680.177
297.833	26.567	853.633	679.382
298.847	25.980	853.660	677.139
299.862	25.919	852.629	676.034
300.876	26.189	851.898	676.405
301.891	26.252	851.549	676.304
302.906	26.508	851.282	676.992
303.920	26.128	851.055	675.328
304.935	26.180	850.073	674.684
305.949	26.541	849.760	675.724
306.964	26.202	849.769	674.405
307.979	26.256	848.644	673.653
308.993	26.197	847.692	672.621
310.008	26.121	848.021	672.538
311.022	26.595	846.954	673.397
312.037	26.203	847.254	672.114
313.052	26.067	846.313	670.803
314.066	26.179	845.153	670.239
315.081	25.612	844.049	667.204
316.095	25.464	841.933	664.925
317.110	25.705	841.690	665.565
318.125	26.465	842.679	669.101
319.139	25.721	842.677	666.288
320.154	25.344	840.600	663.195
321.168	24.596	840.294	660.129
322.183	24.900	840.908	661.678
323.197	25.647	840.011	663.673
324.212	26.143	838.890	664.552
325.227	26.045	839.354	664.501
326.241	25.870	838.278	662.946
327.256	25.993	837.337	662.596
328.270	25.864	836.987	661.788
329.285	25.844	836.783	661.494
330.300	25.886	835.127	660.277
331.314	25.973	834.550	660.083
332.329	25.846	833.948	659.084
333.343	25.717	834.875	659.286
334.358	26.187	833.884	660.163
335.373	25.945	834.443	659.662
336.387	25.800	833.111	658.022
337.402	26.391	831.996	659.237
338.416	26.471	832.237	659.662
339.431	26.045	831.628	657.567
340.446	26.555	831.469	659.241
341.460	26.895	830.029	659.278
342.475	26.735	829.843	658.491
343.489	26.708	829.288	657.894
344.504	27.054	828.963	658.833
345.519	26.877	827.474	656.950
346.533	26.854	827.686	656.978
347.548	26.804	827.898	656.905
348.562	26.684	827.883	656.401
349.577	26.361	827.105	654.557
350.592	26.660	825.553	654.351
351.606	26.510	825.353	653.595
352.621	26.178	825.274	652.275
353.635	26.416	824.738	652.653
354.650	26.338	824.444	652.081
355.665	26.223	823.638	650.971
356.679	25.715	822.098	647.867
357.694	26.156	821.190	648.679
358.708	26.155	822.372	649.551
359.723	26.453	821.011	649.492
360.738	26.443	819.937	648.546
361.752	26.589	819.864	648.957
362.767	26.308	819.747	647.799
363.781	26.633	819.895	649.024
364.796	26.727	819.236	648.779
365.810	26.991	818.445	649.040
366.825	26.674	818.523	647.910
367.840	27.156	817.264	648.578
368.854	26.846	817.705	647.763
369.869	26.663	817.048	646.534
370.883	26.259	816.301	644.444
371.898	26.424	815.997	644.734
372.913	26.661	815.080	644.798
373.927	26.686	814.691	644.522
374.942	26.968	813.082	644.193
375.956	26.403	813.679	642.600
376.971	26.740	812.769	643.020
377.986	26.586	812.372	642.104
379.000	26.918	811.259	642.343
380.015	27.072	811.251	642.826
381.029	26.391	810.931	640.103
382.044	26.996	809.268	640.871
383.059	26.728	809.830	640.314
384.073	27.138	808.573	640.707
385.088	27.171	807.667	640.051
386.102	26.785	807.134	638.212
387.117	26.662	806.057	636.872
388.132	26.122	806.698	635.423
389.146	26.366	805.824	635.536
390.161	25.998	805.133	633.641
391.175	26.579	805.650	636.034
392.190	27.092	804.400	636.790
393.205	26.783	804.970	636.101
394.219	26.503	802.761	633.319
395.234	25.494	801.591	628.812
396.248	24.855	800.861	625.950
397.263	25.548	801.352	628.702
398.278	26.347	801.575	631.615
399.292	26.194	801.110	630.656
400.307	26.211	800.844	630.451
401.321	25.982	799.954	628.897
402.336	25.808	799.763	628.084
403.350	26.358	799.164	629.474
404.365	26.639	799.044	630.304
405.380	27.154	798.755	631.810
406.394	26.849	798.564	630.542
407.409	27.328	798.004	631.706
408.423	27.053	797.839	630.566
409.438	27.221	797.438	630.778
410.453	27.458	795.604	630.089
411.467	27.131	795.890	629.129
412.482	27.151	795.086	628.505
413.496	27.033	795.484	628.356
414.511	27.063	795.006	628.030
415.526	27.201	794.364	627.942
416.540	26.912	794.394	626.914
417.555	27.093	793.927	627.113
418.569	27.139	792.920	626.421
419.584	27.014	793.045	626.033
420.599	26.741	792.461	624.574
421.613	159.266	1370.028	1792.814
422.628	137.943	1454.189	1792.825
