DTS Sentinel unit serial number:	SN413079Multiplexer serial number:	ORYXHardware model number:	OX4-SRSoftware version number:	ORYX F/W v4.00 Oryx Data Collector v3.7.2.0data status	okinstallation	princeton_trtdifferential loss correction	single-endedforward channel	channel 3reverse channel	N/Adate	2019/09/17time	18:44:35forward acquisition time	60.00reverse acquisition time	0.00gamma	496.2192k internal	0.2290k external	0.2290temperature offset calibration	0.9953default loss term (dB/km)	0.3790temperature slope calibration	1.0000multiplexer offset coefficient	1.0000multiplexer slope coefficient	1.0000fibre end	0.00T internal ref (°C)	42.28T ext. ref 1 (°C)	0.31T ext. ref 2 (°C)	33.15length (m)	temperature (°C)	Stokes	anti-Stokes-747.200	-43.832	0.161	-0.083
-746.185	48.898	0.307	0.295
-745.171	-200.000	-0.024	-0.313
-744.156	452.729	-0.115	0.261
-743.142	800.000	0.032	-0.130
-742.127	73.411	0.088	-0.095
-741.112	176.917	-0.104	-0.155
-740.098	-200.000	-0.052	0.410
-739.083	148.113	-0.088	0.121
-738.069	-200.000	0.026	0.249
-737.054	-200.000	0.019	0.213
-736.039	-49.137	-0.177	-0.087
-735.025	-200.000	-0.006	-0.133
-734.010	-77.751	-0.196	-0.069
-732.996	-134.328	-0.194	0.024
-731.981	-200.000	-0.020	0.257
-730.966	228.080	-0.146	0.243
-729.952	-30.222	-0.104	-0.061
-728.937	-54.424	-0.396	0.184
-727.923	-200.000	-0.061	-0.492
-726.908	-57.521	-0.364	-0.164
-725.894	800.000	-0.125	-0.390
-724.879	208.161	0.193	0.308
-723.864	-73.972	-0.082	-0.031
-722.850	-112.972	-0.095	0.019
-721.835	11.700	0.272	0.214
-720.821	32.442	-0.088	0.078
-719.806	80.638	0.186	-0.205
-718.791	-1.151	-0.221	-0.160
-717.777	326.891	0.153	-0.300
-716.762	253.563	-0.074	0.129
-715.748	-49.562	-0.155	-0.075
-714.733	-71.618	-0.251	-0.096
-713.718	-200.000	-0.082	-0.402
-712.704	-200.000	-0.008	-0.469
-711.689	-115.934	-0.290	-0.055
-710.675	-200.000	-0.015	-0.212
-709.660	229.535	0.117	-0.196
-708.645	-200.000	0.042	-0.329
-707.631	-106.832	0.215	0.049
-706.616	280.355	-0.021	-0.038
-705.602	95.600	-0.140	-0.163
-704.587	35.888	0.189	0.170
-703.572	-113.927	0.084	-0.017
-702.558	30.210	0.146	0.127
-701.543	227.729	-0.026	-0.044
-700.529	-92.856	0.175	-0.050
-699.514	-200.000	-0.045	-0.205
-698.499	166.064	-0.065	-0.094
-697.485	-0.838	-0.044	-0.032
-696.470	-200.000	0.032	-0.198
-695.456	444.527	0.100	-0.225
-694.441	-39.313	0.130	-0.070
-693.426	348.431	0.137	-0.276
-692.412	-200.000	0.014	-0.070
-691.397	-200.000	0.002	0.012
-690.383	477.580	-0.144	0.333
-689.368	-67.726	-0.237	-0.095
-688.354	-200.000	0.018	0.160
-687.339	-140.596	-0.158	-0.017
-686.324	375.955	-0.125	-0.261
-685.310	-200.000	-0.057	-0.279
-684.295	-53.499	0.147	-0.069
-683.281	-200.000	-0.019	0.102
-682.266	-152.467	0.332	-0.024
-681.251	-200.000	0.082	0.418
-680.237	-161.446	0.273	0.014
-679.222	-63.184	0.335	-0.141
-678.208	-110.560	-0.218	-0.046
-677.193	800.000	0.091	-0.314
-676.178	800.000	-0.021	0.088
-675.164	143.553	0.154	-0.210
-674.149	21.378	-0.194	-0.161
-673.135	-65.584	0.239	0.098
-672.120	-142.938	-0.229	0.023
-671.105	-47.377	0.141	-0.070
-670.091	-200.000	-0.033	-0.154
-669.076	-200.000	-0.012	0.267
-668.062	800.000	-0.093	-0.293
-667.047	77.366	-0.170	-0.185
-666.032	-40.838	0.055	-0.029
-665.018	531.358	-0.153	0.368
-664.003	-200.000	-0.009	-0.086
-662.989	-43.862	0.140	0.072
-661.974	-200.000	0.030	-0.194
-660.959	79.684	0.081	-0.089
-659.945	41.543	0.244	-0.226
-658.930	123.949	-0.119	0.152
-657.916	-200.000	-0.040	0.356
-656.901	-13.831	0.188	-0.124
-655.886	-79.294	-0.342	-0.118
-654.872	800.000	0.077	0.295
-653.857	229.083	0.067	0.112
-652.843	224.989	0.043	0.071
-651.828	41.000	0.093	-0.086
-650.814	360.386	-0.124	0.254
-649.799	17.557	0.133	0.108
-648.784	304.362	0.084	0.159
-647.770	-46.671	0.337	-0.169
-646.755	3.803	0.228	0.170
-645.741	-135.668	0.214	0.026
-644.726	-200.000	-0.005	0.068
-643.711	-200.000	-0.019	-0.097
-642.697	358.121	0.104	-0.213
-641.682	28.707	-0.118	0.102
-640.668	-100.984	0.299	-0.075
-639.653	118.086	0.189	0.237
-638.638	112.505	0.196	0.242
-637.624	-200.000	-0.016	0.213
-636.609	-62.437	0.148	-0.063
-635.595	-200.000	-0.038	0.182
-634.580	-157.808	-0.266	-0.016
-633.565	-99.453	-0.046	-0.012
-632.551	-88.528	0.202	0.061
-631.536	166.433	0.063	0.092
-630.522	800.000	-0.033	0.118
-629.507	-91.727	0.434	0.126
-628.492	-1.226	0.292	0.210
-627.478	-44.693	-0.378	-0.192
-626.463	38.979	-0.332	-0.303
-625.449	14.402	-0.077	-0.062
-624.434	86.211	0.166	0.187
-623.419	-154.621	0.227	0.015
-622.405	-12.400	-0.286	0.191
-621.390	-99.636	-0.172	-0.044
-620.376	-146.395	-0.167	0.015
-619.361	-94.452	-0.081	-0.023
-618.346	-200.000	-0.028	0.183
-617.332	374.467	-0.181	-0.376
-616.317	174.611	-0.047	-0.070
-615.303	35.440	-0.110	0.098
-614.288	800.000	0.064	-0.217
-613.273	186.094	-0.067	0.102
-612.259	-139.844	0.350	0.038
-611.244	800.000	-0.088	0.283
-610.230	-108.053	0.389	-0.086
-609.215	126.649	0.182	-0.235
-608.201	-40.274	-0.257	0.136
-607.186	99.855	0.286	-0.338
-606.171	12.541	-0.052	0.041
-605.157	-24.424	-0.266	-0.162
-604.142	108.639	0.165	0.201
-603.128	800.000	-0.034	0.136
-602.113	325.691	-0.165	0.322
-601.098	-200.000	0.063	0.307
-600.084	800.000	0.034	0.111
-599.069	586.210	0.163	0.408
-598.055	258.916	-0.205	-0.360
-597.040	-107.324	-0.098	-0.022
-596.025	111.429	-0.089	-0.109
-595.011	98.763	-0.188	0.221
-593.996	-54.120	0.221	-0.102
-592.982	-200.000	0.037	-0.236
-591.967	-200.000	0.020	-0.209
-590.952	-200.000	0.016	0.242
-589.938	-200.000	-0.001	0.133
-588.923	-200.000	-0.001	-0.117
-587.909	-85.089	0.285	0.091
-586.894	-18.332	-0.442	0.281
-585.879	-141.385	0.245	0.025
-584.865	-62.764	0.239	0.101
-583.850	6.076	0.107	0.080
-582.836	-32.725	-0.383	0.217
-581.821	-107.556	-0.237	-0.053
-580.806	800.000	0.090	-0.357
-579.792	-144.291	-0.109	0.010
-578.777	29.159	-0.229	0.198
-577.763	184.185	-0.146	-0.219
-576.748	-200.000	-0.029	-0.136
-575.733	800.000	-0.066	-0.204
-574.719	-200.000	-0.032	0.378
-573.704	800.000	-0.041	0.174
-572.690	572.456	0.085	-0.211
-571.675	51.107	0.116	-0.112
-570.661	-33.475	0.256	0.144
-569.646	58.991	-0.192	-0.192
-568.631	-42.255	-0.138	-0.072
-567.617	129.482	-0.309	-0.402
-566.602	30.064	0.107	-0.093
-565.588	-110.074	-0.139	-0.030
-564.573	158.856	-0.099	0.140
-563.558	186.228	-0.060	-0.091
-562.544	-3.983	0.114	0.081
-561.529	-85.132	-0.102	0.033
-560.515	782.841	0.048	-0.133
-559.500	800.000	-0.111	-0.375
-558.485	71.931	0.202	-0.213
-557.471	74.435	-0.123	-0.131
-556.456	-114.785	0.071	-0.014
-555.442	170.688	-0.124	-0.181
-554.427	-49.604	-0.099	0.048
-553.412	-69.545	-0.185	0.072
-552.398	1.945	0.174	0.128
-551.383	-74.419	-0.382	0.140
-550.369	-200.000	-0.004	-0.334
-549.354	151.190	0.117	-0.162
-548.339	-200.000	0.024	-0.212
-547.325	27.777	0.184	-0.158
-546.310	-109.054	0.250	0.054
-545.296	-200.000	0.066	0.308
-544.281	26.554	-0.100	0.085
-543.266	7.882	-0.220	-0.168
-542.252	-200.000	-0.025	-0.238
-541.237	20.738	0.078	0.064
-540.223	39.953	-0.061	0.056
-539.208	-190.559	0.184	-0.002
-538.193	-200.000	-0.009	-0.241
-537.179	-7.892	0.318	-0.218
-536.164	-156.472	0.188	-0.012
-535.150	-200.000	-0.021	-0.108
-534.135	326.766	0.053	0.104
-533.121	-61.829	0.101	-0.043
-532.106	-200.000	-0.008	-0.138
-531.091	-200.000	-0.151	0.000
-530.077	381.183	0.118	0.247
-529.062	-60.695	0.258	-0.111
-528.048	-18.538	-0.073	0.046
-527.033	-50.980	0.263	0.126
-526.018	11.410	0.093	-0.072
-525.004	-114.898	0.201	-0.039
-523.989	800.000	0.131	-0.417
-522.975	168.748	-0.057	0.083
-521.960	307.343	-0.150	-0.284
-520.945	136.717	0.165	-0.219
-519.931	162.503	0.284	-0.405
-518.916	-55.207	-0.066	-0.030
-517.902	-31.480	0.381	0.217
-516.887	512.731	-0.104	0.246
-515.872	100.871	0.133	0.157
-514.858	135.466	-0.172	-0.227
-513.843	-200.000	-0.075	0.000
-512.829	366.914	0.085	0.175
-511.814	55.664	0.164	-0.161
-510.799	355.436	-0.028	-0.056
-509.785	-22.003	0.155	-0.095
-508.770	-131.459	-0.366	0.049
-507.756	139.152	-0.252	0.336
-506.741	-44.017	0.254	-0.130
-505.726	17.177	-0.318	-0.256
-504.712	348.019	-0.160	-0.319
-503.697	800.000	-0.137	-0.437
-502.683	800.000	0.103	-0.297
-501.668	-2.595	-0.178	0.127
-500.653	151.991	0.143	0.198
-499.639	-183.522	0.248	-0.004
-498.624	-80.004	0.129	-0.044
-497.610	553.135	0.041	-0.101
-496.595	379.956	0.166	-0.346
-495.581	-121.330	-0.212	-0.036
-494.566	-200.000	-0.030	-0.225
-493.551	93.601	-0.141	0.162
-492.537	716.733	-0.149	-0.400
-491.522	352.249	-0.098	-0.197
-490.508	48.164	0.198	0.188
-489.493	-79.308	0.143	0.049
-488.478	36.536	-0.245	0.220
-487.464	106.616	-0.134	0.161
-486.449	-97.710	-0.186	0.049
-485.435	800.000	0.054	-0.201
-484.420	-56.027	-0.219	0.099
-483.405	491.407	0.085	0.197
-482.391	-200.000	-0.027	0.131
-481.376	53.882	0.082	-0.080
-480.362	-86.191	0.119	-0.037
-479.347	73.304	0.181	0.193
-478.332	-200.000	-0.039	-0.401
-477.318	-116.868	0.223	0.041
-476.303	347.707	-0.020	0.039
-475.289	-200.000	-0.004	0.268
-474.274	53.070	-0.271	0.263
-473.259	318.788	-0.055	-0.105
-472.245	-45.014	-0.206	-0.104
-471.230	31.202	0.347	-0.302
-470.216	-85.522	0.073	0.023
-469.201	800.000	-0.065	-0.247
-468.186	271.523	0.098	-0.175
-467.172	-103.901	0.344	0.081
-466.157	-95.440	-0.256	-0.070
-465.143	411.911	-0.027	-0.059
-464.128	-20.509	0.281	-0.175
-463.113	-137.373	-0.166	0.019
-462.099	-50.756	-0.139	0.066
-461.084	-200.000	-0.054	0.356
-460.070	-200.000	-0.030	-0.144
-459.055	-200.000	-0.018	-0.103
-458.040	-26.539	0.176	-0.104
-457.026	21.911	-0.297	0.245
-456.011	119.447	-0.152	-0.191
-454.997	-75.793	-0.433	-0.155
-453.982	-200.000	0.016	0.314
-452.968	288.633	-0.095	-0.173
-451.953	-146.236	-0.086	-0.008
-450.938	-62.456	0.045	0.019
-449.924	715.502	0.153	-0.410
-448.909	398.281	0.213	-0.452
-447.895	-61.789	0.276	-0.117
-446.880	-60.585	-0.219	0.094
-445.865	11.891	0.151	-0.117
-444.851	266.950	-0.138	0.245
-443.836	-64.425	-0.309	-0.127
-442.822	-63.038	0.200	0.084
-441.807	-46.999	-0.232	-0.115
-440.792	-9.255	0.153	-0.104
-439.778	608.895	0.027	0.067
-438.763	11.978	-0.055	0.043
-437.749	-103.971	0.056	0.013
-436.734	356.104	-0.074	-0.149
-435.719	-176.883	-0.153	0.004
-434.705	-139.432	0.130	-0.014
-433.690	50.632	-0.278	0.267
-432.676	-145.804	-0.042	0.004
-431.661	-97.082	0.160	-0.042
-430.646	119.919	0.215	0.270
-429.632	-15.437	-0.026	0.017
-428.617	-58.305	-0.176	0.077
-427.603	800.000	0.024	0.081
-426.588	-65.261	0.095	0.039
-425.573	-21.557	0.136	0.084
-424.559	-45.908	-0.252	0.126
-423.544	172.116	0.029	0.043
-422.530	5.175	-0.089	-0.067
-421.515	234.715	0.155	0.259
-420.500	288.419	0.006	0.011
-419.486	-83.723	-0.255	0.082
-418.471	-124.708	0.315	-0.049
-417.457	-199.526	-0.100	-0.001
-416.442	-146.598	-0.246	-0.022
-415.428	-15.334	0.285	0.184
-414.413	800.000	0.064	-0.232
-413.398	49.120	0.260	0.247
-412.384	-200.000	-0.011	-0.167
-411.369	800.000	-0.051	-0.193
-410.355	-148.593	-0.273	0.023
-409.340	800.000	-0.077	0.290
-408.325	-82.422	-0.071	-0.023
-407.311	-99.866	-0.260	-0.066
-406.296	6.323	-0.151	0.113
-405.282	88.616	-0.199	0.224
-404.267	-200.000	0.006	-0.027
-403.252	109.547	0.225	-0.272
-402.238	-200.000	0.013	-0.234
-401.223	102.217	-0.017	-0.020
-400.209	-200.000	-0.003	0.136
-399.194	-200.000	-0.001	0.016
-398.179	-146.008	0.154	0.014
-397.165	102.958	-0.171	-0.202
-396.150	-49.830	-0.272	0.131
-395.136	800.000	-0.079	-0.325
-394.121	-189.569	0.321	-0.004
-393.106	400.737	-0.093	0.198
-392.092	77.896	0.100	-0.108
-391.077	-110.862	0.186	0.039
-390.063	58.914	0.060	0.060
-389.048	94.826	-0.175	-0.201
-388.033	-150.711	-0.402	-0.031
-387.019	-200.000	0.066	-0.451
-386.004	81.356	0.274	0.299
-384.990	365.214	0.031	-0.064
-383.975	-133.404	-0.111	0.014
-382.960	-100.462	-0.180	0.045
-381.946	-125.388	-0.341	-0.052
-380.931	-71.076	0.157	-0.059
-379.917	428.545	-0.134	-0.293
-378.902	-200.000	0.044	0.435
-377.888	421.856	0.102	0.221
-376.873	-200.000	-0.008	0.073
-375.858	-138.003	0.221	0.025
-374.844	-51.453	0.174	0.082
-373.829	-141.881	-0.368	-0.037
-372.815	79.705	-0.074	0.080
-371.800	137.633	0.211	0.279
-370.785	177.803	-0.059	-0.087
-369.771	69.613	0.151	-0.157
-368.756	-116.810	0.202	0.037
-367.742	-90.374	-0.114	0.034
-366.727	462.106	0.048	0.108
-365.712	38.688	-0.159	-0.144
-364.698	-200.000	0.060	-0.354
-363.683	-83.743	0.172	0.055
-362.669	356.792	0.104	-0.209
-361.654	-103.915	0.197	-0.047
-360.639	-145.487	0.170	-0.015
-359.625	-99.972	-0.180	0.045
-358.610	354.024	-0.152	0.305
-357.596	-28.362	0.304	-0.177
-356.581	-130.614	0.230	-0.031
-355.566	196.218	0.143	-0.219
-354.552	-172.903	0.112	-0.003
-353.537	-86.153	-0.263	0.082
-352.523	-132.521	-0.287	0.037
-351.508	-200.000	-0.080	0.485
-350.493	-57.400	0.236	0.105
-349.479	65.463	0.289	-0.295
-348.464	328.883	-0.078	-0.151
-347.450	-182.573	-0.328	0.006
-346.435	-200.000	-0.002	-0.045
-345.420	-128.888	-0.249	-0.035
-344.406	-10.330	0.131	0.087
-343.391	-78.996	0.136	0.047
-342.377	-98.276	0.112	-0.029
-341.362	-35.698	-0.054	0.029
-340.348	-31.356	0.090	0.051
-339.333	369.252	0.140	-0.285
-338.318	1.485	0.366	0.265
-337.304	-127.334	0.615	-0.090
-336.289	165.097	-0.194	0.276
-335.275	64.814	-0.140	-0.142
-334.260	-95.545	-0.039	0.011
-333.245	84.685	0.048	-0.053
-332.231	-200.000	-0.015	0.098
-331.216	-200.000	0.015	0.171
-330.202	-84.312	0.150	-0.048
-329.187	800.000	0.039	-0.114
-328.172	189.153	-0.022	-0.033
-327.158	800.000	0.079	-0.274
-326.143	-150.683	-0.233	0.018
-325.129	214.990	-0.115	0.185
-324.114	-200.000	0.002	0.018
-323.099	-114.488	0.303	-0.059
-322.085	-200.000	0.027	-0.140
-321.070	776.021	0.075	-0.207
-320.056	-37.582	-0.282	0.152
-319.041	210.524	-0.089	-0.141
-318.026	800.000	-0.036	0.107
-317.012	-200.000	0.032	0.305
-315.997	42.065	0.212	0.194
-314.983	-200.000	-0.026	-0.266
-313.968	42.496	-0.208	0.191
-312.953	-99.083	0.164	-0.042
-311.939	322.698	-0.048	0.093
-310.924	-50.801	-0.176	0.084
-309.910	35.053	0.307	0.270
-308.895	-71.931	-0.287	0.108
-307.880	-168.936	0.124	-0.005
-306.866	402.748	-0.017	0.036
-305.851	-70.073	-0.095	0.036
-304.837	-200.000	0.022	0.250
-303.822	291.631	0.139	-0.255
-302.807	-134.947	-0.082	-0.010
-301.793	-78.651	-0.294	0.101
-300.778	800.000	0.025	0.100
-299.764	207.883	0.173	-0.272
-298.749	7.410	0.106	-0.079
-297.735	65.356	-0.153	0.156
-296.720	-200.000	-0.014	-0.134
-295.705	453.412	0.112	0.250
-294.691	413.971	-0.116	-0.248
-293.676	-125.011	0.272	-0.042
-292.662	41.407	-0.147	-0.134
-291.647	49.195	-0.107	0.101
-290.632	-200.000	0.011	0.197
-289.618	-44.639	-0.045	-0.023
-288.603	206.121	0.097	-0.152
-287.589	-200.000	-0.018	-0.160
-286.574	-200.000	0.020	-0.135
-285.559	22.365	-0.108	0.089
-284.545	-200.000	-0.035	0.221
-283.530	-87.043	-0.381	0.117
-282.516	-96.693	-0.220	0.058
-281.501	-59.296	0.165	0.071
-280.486	-2.207	-0.245	-0.173
-279.472	112.900	-0.054	0.066
-278.457	121.339	0.064	-0.081
-277.443	69.929	-0.197	-0.205
-276.428	34.343	-0.202	-0.177
-275.413	-200.000	0.007	-0.176
-274.399	800.000	0.030	0.115
-273.384	-200.000	0.003	0.095
-272.370	-200.000	-0.041	0.294
-271.355	89.210	-0.261	0.293
-270.340	-45.458	-0.257	0.128
-269.326	-200.000	-0.008	0.133
-268.311	-200.000	-0.047	0.397
-267.297	263.965	0.111	-0.194
-266.282	-116.756	-0.142	0.026
-265.267	175.215	-0.124	-0.180
-264.253	-200.000	0.002	0.048
-263.238	332.123	-0.078	0.152
-262.224	47.729	0.422	-0.396
-261.209	-95.060	-0.259	0.070
-260.195	-103.451	0.286	-0.068
-259.180	800.000	-0.130	0.368
-258.165	148.018	0.127	0.172
-257.151	93.825	-0.212	0.242
-256.136	24.548	0.251	-0.209
-255.122	23.575	-0.131	-0.109
-254.107	68.957	0.095	-0.098
-253.092	-99.422	-0.135	0.034
-252.078	417.576	-0.088	0.190
-251.063	106.739	-0.077	0.092
-250.049	14.305	0.230	-0.180
-249.034	-99.405	0.143	0.036
-248.019	441.131	0.037	-0.082
-247.005	-177.110	0.204	-0.005
-245.990	-185.145	0.334	-0.005
-244.976	-179.942	-0.211	0.005
-243.961	251.959	0.170	-0.292
-242.946	-200.000	0.021	-0.413
-241.932	414.038	-0.113	0.242
-240.917	-200.000	-0.001	-0.208
-239.903	155.735	-0.180	0.249
-238.888	-69.480	-0.113	-0.044
-237.873	-179.753	-0.183	0.004
-236.859	-188.781	0.393	-0.005
-235.844	-200.000	-0.015	0.144
-234.830	68.934	-0.108	-0.112
-233.815	-200.000	0.031	0.159
-232.800	800.000	0.088	0.297
-231.786	-52.872	-0.131	-0.061
-230.771	-200.000	-0.001	0.254
-229.757	800.000	0.089	0.386
-228.742	316.182	0.048	0.091
-227.727	124.221	0.182	0.230
-226.713	-200.000	0.015	0.343
-225.698	68.671	0.051	0.053
-224.684	63.235	-0.170	-0.171
-223.669	97.379	0.201	0.231
-222.655	-158.643	-0.328	0.019
-221.640	507.546	-0.102	-0.237
-220.625	-200.000	0.004	0.111
-219.611	-134.462	-0.232	0.028
-218.596	800.000	-0.036	-0.142
-217.582	-200.000	-0.021	-0.172
-216.567	311.337	0.017	-0.032
-215.552	-111.507	0.337	0.069
-214.538	548.413	0.091	-0.219
-213.523	397.889	0.083	-0.175
-212.509	-72.857	0.058	0.021
-211.494	526.564	-0.057	0.135
-210.479	800.000	0.096	0.410
-209.465	-168.679	0.169	-0.006
-208.450	20.468	-0.038	-0.031
-207.436	-100.538	-0.223	-0.055
-206.421	-148.666	0.146	-0.012
-205.406	-55.403	-0.148	-0.066
-204.392	-150.248	0.265	-0.021
-203.377	-160.639	-0.144	0.008
-202.363	239.365	-0.054	-0.090
-201.348	-200.000	0.038	0.233
-200.333	800.000	0.042	-0.133
-199.319	-200.000	-0.033	-0.211
-198.304	680.343	0.033	-0.085
-197.290	800.000	-0.043	0.139
-196.275	-130.398	0.219	-0.030
-195.260	21.087	0.051	0.041
-194.246	12.006	0.116	0.090
-193.231	-106.046	-0.347	0.078
-192.217	779.729	-0.025	-0.067
-191.202	87.269	0.136	0.150
-190.187	314.690	-0.141	0.265
-189.173	16.504	0.085	0.067
-188.158	-144.169	0.212	-0.020
-187.144	509.028	-0.034	-0.079
-186.129	51.894	-0.257	0.245
-185.114	178.616	-0.107	-0.157
-184.100	53.227	-0.212	-0.204
-183.085	-21.103	-0.282	0.173
-182.071	-200.000	0.087	0.000
-181.056	-79.242	-0.077	-0.026
-180.042	-111.245	-0.466	0.096
-179.027	-78.648	-0.421	0.144
-178.012	370.922	0.079	0.161
-176.998	586.808	-0.082	-0.202
-175.983	14.955	-0.243	-0.191
-174.969	-48.271	0.079	-0.038
-173.954	-200.000	0.002	0.186
-172.939	648.731	-0.096	-0.246
-171.925	-43.406	0.144	0.073
-170.910	-133.199	0.198	0.025
-169.896	-200.000	0.016	-0.317
-168.881	35.474	-0.264	0.232
-167.866	204.490	0.250	-0.389
-166.852	-31.438	-0.294	0.166
-165.837	17.303	0.223	0.178
-164.823	76.011	0.188	0.199
-163.808	-98.993	-0.255	-0.065
-162.793	-26.248	0.158	0.093
-161.779	-200.000	-0.023	0.302
-160.764	721.094	-0.081	-0.216
-159.750	482.863	-0.025	-0.057
-158.735	-200.000	-0.005	-0.067
-157.720	-112.856	0.206	0.041
-156.706	-12.372	-0.121	0.079
-155.691	-85.222	0.459	0.144
-154.677	-200.000	0.051	0.265
-153.662	91.644	-0.213	0.240
-152.647	340.647	0.086	-0.168
-151.633	-136.631	0.416	-0.048
-150.618	10.234	-0.224	-0.171
-149.604	-200.000	-0.094	-0.509
-148.589	-27.352	0.169	-0.099
-147.574	-200.000	0.063	0.309
-146.560	800.000	-0.025	0.072
-145.545	-200.000	0.258	0.001
-144.531	276.090	0.062	0.110
-143.516	5.344	0.229	0.169
-142.502	-200.000	0.022	0.235
-141.487	-137.012	0.060	0.007
-140.472	-137.980	0.394	0.044
-139.458	60.895	-0.117	-0.116
-138.443	-111.786	-0.096	0.019
-137.429	346.097	0.030	-0.060
-136.414	-22.009	0.307	0.187
-135.399	-200.000	0.032	-0.404
-134.385	-32.837	0.153	0.085
-133.370	800.000	-0.109	0.305
-132.356	530.781	-0.149	0.352
-131.341	-200.000	0.063	0.383
-130.326	-68.812	-0.032	0.012
-129.312	188.060	-0.056	0.084
-128.297	800.000	0.058	0.213
-127.283	800.000	0.073	0.286
-126.268	-88.773	-0.184	-0.055
-125.253	-145.082	0.265	-0.024
-124.239	-63.016	-0.247	0.102
-123.224	800.000	0.012	0.039
-122.210	-187.307	0.244	-0.003
-121.195	214.171	-0.188	0.297
-120.180	218.598	-0.245	0.391
-119.166	262.743	-0.128	0.221
-118.151	206.285	-0.142	-0.221
-117.137	-99.801	-0.284	-0.071
-116.122	800.000	-0.026	-0.087
-115.107	-200.000	0.014	0.107
-114.093	-71.071	0.173	-0.065
-113.078	54.960	-0.098	0.095
-112.064	800.000	-0.064	0.221
-111.049	-200.000	-0.001	-0.010
-110.034	-200.000	-0.032	0.167
-109.020	-12.018	0.320	-0.210
-108.005	800.000	0.142	-0.466
-106.991	-200.000	0.029	-0.325
-105.976	-24.701	-0.079	0.047
-104.962	800.000	-0.067	0.193
-103.947	66.822	-0.109	-0.111
-102.932	-90.675	-0.092	0.026
-101.918	66.698	0.191	0.194
-100.903	-34.373	-0.266	-0.146
-99.889	310.959	0.074	0.139
-98.874	-17.875	-0.099	0.062
-97.859	-47.527	0.161	0.078
-96.845	-200.000	0.024	0.142
-95.830	-200.000	0.004	-0.083
-94.816	800.000	0.021	0.069
-93.801	324.290	-0.023	-0.043
-92.786	581.267	0.128	-0.314
-91.772	-10.013	-0.081	-0.054
-90.757	-200.000	0.017	0.285
-89.743	56.656	-0.127	0.123
-88.728	12.448	-0.141	0.108
-87.713	217.291	-0.023	-0.036
-86.699	-200.000	0.029	-0.246
-85.684	800.000	-0.066	-0.217
-84.670	-200.000	0.009	0.250
-83.655	-171.323	0.061	0.002
-82.640	567.656	-0.068	-0.164
-81.626	-105.560	-0.273	0.062
-80.611	-60.606	-0.207	-0.088
-79.597	-200.000	-0.015	-0.208
-78.582	379.445	0.130	0.266
-77.567	-200.000	-0.042	0.495
-76.553	-161.473	-0.339	0.017
-75.538	107.532	0.163	0.194
-74.524	-192.213	0.087	-0.001
-73.509	11.929	-0.081	-0.062
-72.494	148.420	0.246	-0.331
-71.480	77.097	-0.306	-0.325
-70.465	68.113	-0.208	-0.213
-69.451	311.169	-0.209	0.391
-68.436	84.527	0.261	0.285
-67.422	-102.371	0.477	0.114
-66.407	800.000	-0.081	-0.248
-65.392	192.802	0.078	-0.118
-64.378	800.000	0.073	0.297
-63.363	-152.752	-0.181	-0.013
-62.349	455.134	0.115	0.253
-61.334	-50.018	-0.833	-0.394
-60.319	-91.026	0.300	-0.086
-59.305	800.000	-0.211	-0.642
-58.290	62.242	0.711	0.707
-57.276	800.000	0.406	1.350
-56.261	-200.000	76.377	546.834
-55.246	554.013	1315.616	3155.549
-54.232	146.633	2535.817	3397.882
-53.217	120.331	2245.500	2780.168
-52.203	53.635	1767.387	1691.567
-51.188	45.803	1562.578	1440.752
-50.173	42.997	1533.083	1394.119
-49.159	59.839	1568.882	1544.487
-48.144	65.960	1588.934	1606.804
-47.130	46.278	1552.454	1434.506
-46.115	42.600	1537.908	1395.523
-45.100	42.404	1534.452	1390.977
-44.086	42.323	1532.709	1388.780
-43.071	42.186	1531.438	1386.625
-42.057	42.193	1528.979	1384.393
-41.042	42.210	1527.229	1382.867
-40.027	42.233	1526.067	1381.920
-39.013	42.229	1524.331	1380.267
-37.998	42.246	1523.093	1379.204
-36.984	42.273	1522.012	1378.359
-35.969	42.223	1520.570	1376.657
-34.954	42.227	1519.564	1375.716
-33.940	42.305	1517.625	1374.442
-32.925	42.248	1516.143	1372.653
-31.911	42.316	1514.533	1371.612
-30.896	42.323	1513.674	1370.823
-29.881	42.468	1511.663	1369.938
-28.867	42.409	1510.354	1368.294
-27.852	42.287	1509.445	1366.588
-26.838	42.254	1508.148	1365.133
-25.823	42.429	1505.600	1363.962
-24.809	42.417	1504.128	1362.494
-23.794	42.290	1502.737	1360.319
-22.779	42.205	1502.072	1359.083
-21.765	42.332	1500.559	1358.525
-20.750	42.320	1499.910	1357.800
-19.736	42.282	1498.864	1356.544
-18.721	42.422	1497.333	1356.047
-17.706	42.433	1496.012	1354.872
-16.692	42.313	1494.991	1353.087
-15.677	42.284	1494.189	1352.108
-14.663	42.192	1493.551	1350.856
-13.648	42.239	1492.254	1349.944
-12.633	42.218	1491.559	1349.121
-11.619	42.237	1490.505	1348.247
-10.604	42.228	1489.541	1347.260
-9.590	42.137	1488.591	1345.733
-8.575	42.258	1487.807	1345.785
-7.560	42.239	1486.919	1344.801
-6.546	42.288	1486.155	1344.382
-5.531	42.244	1485.085	1343.069
-4.517	42.262	1484.216	1342.348
-3.502	42.284	1483.077	1341.412
-2.487	42.283	1482.072	1340.448
-1.473	42.297	1481.362	1339.843
-0.458	42.295	1479.571	1338.159
0.556	40.358	1469.590	1324.462
1.571	35.588	1438.567	1265.073
2.586	29.350	1371.321	1166.516
3.600	25.480	1284.029	1069.195
4.615	22.883	1234.915	1013.325
5.629	19.130	1178.314	946.210
6.644	9.879	1089.412	827.522
7.659	1.975	1044.100	754.080
8.673	0.595	1037.973	742.800
9.688	0.301	1035.150	739.272
10.702	0.212	1033.688	737.730
11.717	0.124	1032.530	736.405
12.731	2.623	1034.997	750.346
13.746	10.709	1045.432	797.702
14.761	16.783	1052.949	833.334
15.775	17.472	1052.428	836.232
16.790	16.711	1050.751	831.094
17.804	15.690	1048.499	824.235
18.819	14.865	1046.418	818.491
19.834	14.286	1045.137	814.582
20.848	13.888	1044.399	811.990
21.863	13.669	1043.635	810.256
22.877	13.407	1042.734	808.203
23.892	13.269	1041.898	806.808
24.907	13.137	1041.039	805.428
25.921	13.181	1040.040	804.802
26.936	13.200	1039.754	804.599
27.950	13.185	1039.392	804.177
28.965	13.293	1038.401	803.864
29.980	13.160	1037.583	802.512
30.994	13.279	1036.697	802.333
32.009	13.381	1035.384	801.743
33.023	13.434	1034.631	801.343
34.038	13.386	1033.861	800.442
35.053	13.361	1033.322	799.835
36.067	13.290	1032.295	798.629
37.082	13.282	1031.341	797.777
38.096	13.361	1030.728	797.618
39.111	13.336	1029.565	796.523
40.126	13.428	1028.778	796.290
41.140	13.335	1027.874	795.071
42.155	13.308	1026.657	793.928
43.169	13.091	1026.310	792.547
44.184	13.088	1025.222	791.625
45.199	13.167	1023.577	790.661
46.213	13.139	1022.869	789.911
47.228	13.003	1021.984	788.509
48.242	13.137	1020.897	788.237
49.257	13.210	1020.301	788.058
50.271	13.110	1019.321	786.757
51.286	13.167	1018.472	786.300
52.301	13.241	1017.460	785.803
53.315	13.335	1016.387	785.351
54.330	13.116	1015.755	783.752
55.344	13.138	1015.071	783.259
56.359	13.109	1014.109	782.310
57.374	13.255	1012.704	781.847
58.388	13.246	1012.039	781.224
59.403	13.076	1011.681	780.074
60.417	13.089	1011.159	779.664
61.432	13.056	1010.223	778.718
62.447	13.151	1009.320	778.402
63.461	12.991	1008.574	777.002
64.476	12.952	1007.728	776.100
65.490	13.096	1006.421	775.699
66.505	13.028	1005.852	774.875
67.520	12.958	1005.175	773.957
68.534	13.027	1004.409	773.622
69.549	13.074	1003.613	773.159
70.563	13.131	1002.452	772.463
71.578	13.145	1001.950	772.073
72.593	13.062	1001.367	771.171
73.607	12.989	1000.562	770.141
74.622	13.082	999.202	769.460
75.636	12.946	998.802	768.449
76.651	12.964	998.252	768.041
77.666	12.942	997.178	767.042
78.680	12.971	996.357	766.479
79.695	13.001	996.040	766.310
80.709	12.963	995.382	765.557
81.724	13.102	994.466	765.428
82.739	13.158	993.642	764.987
83.753	13.233	992.901	764.699
84.768	13.275	992.124	764.222
85.782	13.292	991.306	763.603
86.797	13.269	990.589	762.881
87.812	13.308	989.300	762.000
88.826	13.197	988.715	760.969
89.841	13.287	988.017	760.779
90.855	13.215	987.519	759.999
91.870	13.316	986.419	759.548
92.884	13.218	985.683	758.463
93.899	13.143	985.743	758.099
94.914	13.360	984.452	758.035
95.928	13.356	983.518	757.228
96.943	13.349	982.863	756.626
97.957	13.386	981.927	756.008
98.972	13.311	981.552	755.309
99.987	13.197	981.211	754.460
101.001	13.310	980.085	754.042
102.016	13.283	979.452	753.362
103.030	13.374	978.207	752.755
104.045	13.244	977.360	751.445
105.060	13.284	976.501	750.899
106.074	13.287	975.432	750.027
107.089	13.307	974.430	749.277
108.103	13.192	973.716	748.145
109.118	13.158	973.362	747.650
110.133	13.142	972.531	746.873
111.147	13.188	971.158	745.960
112.162	13.146	970.262	745.016
113.176	13.152	969.603	744.473
114.191	13.148	968.739	743.727
115.206	13.200	968.174	743.459
116.220	13.346	966.980	743.132
117.235	13.175	966.313	741.787
118.249	13.255	965.284	741.290
119.264	13.254	964.459	740.588
120.279	13.056	964.036	739.311
121.293	13.066	963.437	738.831
122.308	13.122	961.975	737.894
123.322	13.120	961.319	737.317
124.337	13.216	960.104	736.748
125.352	13.172	959.048	735.677
126.366	13.185	958.075	734.923
127.381	13.203	956.924	734.055
128.395	13.096	956.562	733.237
129.410	13.092	955.224	732.127
130.424	13.191	954.185	731.706
131.439	13.262	953.449	731.392
132.454	13.332	952.555	730.948
133.468	13.265	951.972	730.142
134.483	13.263	951.311	729.559
135.497	13.275	950.725	729.101
136.512	13.277	949.865	728.384
137.527	13.172	949.671	727.711
138.541	13.366	948.146	727.329
139.556	13.330	947.853	726.880
140.570	13.242	947.122	725.871
141.585	13.300	946.844	725.847
142.600	13.334	945.941	725.242
143.614	13.378	945.169	724.779
144.629	13.435	944.151	724.181
145.643	13.610	943.168	724.131
146.658	13.436	942.751	722.985
147.673	13.507	941.157	722.007
148.687	13.367	940.598	720.903
149.702	13.327	940.151	720.325
150.716	13.410	938.978	719.722
151.731	13.317	938.776	719.098
152.746	13.321	937.941	718.412
153.760	13.380	936.893	717.802
154.775	13.368	936.178	717.138
155.789	13.315	935.040	715.975
156.804	13.330	934.875	715.850
157.819	13.540	933.719	715.810
158.833	13.558	932.872	715.175
159.848	13.438	932.778	714.520
160.862	13.450	931.738	713.712
161.877	13.528	930.796	713.265
162.892	13.421	929.983	712.119
163.906	13.258	929.839	711.245
164.921	13.447	928.605	711.050
165.935	13.273	927.727	709.566
166.950	13.246	926.650	708.566
167.964	13.442	925.750	708.654
168.979	13.415	924.486	707.509
169.994	13.390	923.612	706.670
171.008	13.401	922.939	706.137
172.023	13.568	922.035	706.097
173.037	13.467	921.568	705.248
174.052	13.567	920.926	705.117
175.067	13.384	920.598	704.024
176.081	13.531	919.379	703.654
177.096	13.408	918.706	702.555
178.110	13.544	917.467	702.124
179.125	13.512	917.042	701.602
180.140	13.559	916.217	701.107
181.154	13.535	915.822	700.640
182.169	13.561	914.902	699.982
183.183	13.634	914.455	699.889
184.198	13.587	913.733	699.076
185.213	13.604	913.077	698.584
186.227	13.746	912.500	698.677
187.242	13.738	911.933	698.148
188.256	13.696	911.316	697.440
189.271	13.694	910.847	697.010
190.286	13.662	909.915	696.098
191.300	13.658	909.250	695.514
192.315	13.517	908.594	694.360
193.329	13.564	907.695	693.806
194.344	13.491	907.248	693.097
195.359	13.501	906.620	692.599
196.373	13.594	906.116	692.540
197.388	13.752	905.306	692.522
198.402	13.713	905.008	692.070
199.417	13.700	904.866	691.845
200.432	13.834	904.293	691.903
201.446	13.839	903.880	691.547
202.461	14.095	903.003	691.882
203.475	14.018	902.686	691.257
204.490	13.888	902.284	690.349
205.504	13.997	900.985	689.744
206.519	13.974	900.185	688.977
207.534	13.963	899.615	688.431
208.548	13.841	899.194	687.545
209.563	13.928	898.129	687.030
210.577	14.068	897.439	687.020
211.592	13.980	896.838	686.135
212.607	13.985	896.336	685.708
213.621	14.034	895.735	685.391
214.636	14.186	895.016	685.406
215.650	14.054	894.803	684.641
216.665	14.203	894.011	684.588
217.680	14.202	893.613	684.218
218.694	14.186	893.041	683.655
219.709	14.211	892.785	683.501
220.723	14.253	891.658	682.750
221.738	14.222	891.028	682.077
222.753	14.183	890.280	681.288
223.767	14.152	889.733	680.680
224.782	14.194	888.799	680.076
225.796	14.263	888.148	679.799
226.811	14.201	887.581	679.054
227.826	14.362	887.034	679.233
228.840	14.397	886.205	678.678
229.855	14.373	885.658	678.104
230.869	14.264	885.362	677.372
231.884	14.295	884.828	677.030
232.899	14.114	884.040	675.633
233.913	14.212	883.019	675.190
234.928	14.200	882.621	674.777
235.942	14.297	881.686	674.393
236.957	14.224	881.280	673.729
237.972	14.232	880.346	672.988
238.986	14.356	879.753	672.974
240.001	14.306	879.177	672.272
241.015	14.244	878.630	671.545
242.030	14.298	877.621	670.935
243.045	14.471	876.835	670.970
244.059	14.402	876.489	670.369
245.074	14.331	876.109	669.730
246.088	14.318	875.376	669.060
247.103	14.386	874.844	668.868
248.117	14.481	874.040	668.573
249.132	14.534	873.508	668.323
250.147	14.591	872.881	668.008
251.161	14.565	872.406	667.482
252.176	14.566	871.633	666.837
253.190	14.741	871.066	667.041
254.205	14.858	870.658	667.140
255.220	14.853	869.829	666.423
256.234	14.769	869.135	665.499
257.249	14.803	868.593	665.162
258.263	15.044	867.703	665.377
259.278	14.827	867.732	664.479
260.293	14.824	867.276	664.060
261.307	14.805	866.456	663.297
262.322	14.914	865.785	663.156
263.336	14.981	865.384	663.057
264.351	14.922	864.849	662.356
265.366	15.133	863.937	662.434
266.380	14.825	863.666	660.948
267.395	15.026	863.078	661.234
268.409	14.937	862.346	660.263
269.424	14.929	861.416	659.462
270.439	15.002	860.917	659.308
271.453	14.876	860.296	658.277
272.468	14.954	859.239	657.716
273.482	15.090	858.511	657.637
274.497	14.993	858.118	656.897
275.512	14.841	857.442	655.725
276.526	15.014	856.882	655.916
277.541	15.036	856.058	655.314
278.555	15.030	855.636	654.911
279.570	15.129	854.706	654.527
280.585	15.199	854.031	654.226
281.599	15.334	853.623	654.380
282.614	15.153	853.530	653.548
283.628	15.347	852.061	653.118
284.643	15.206	851.672	652.213
285.657	15.170	851.618	651.976
286.672	15.238	851.162	651.835
287.687	15.244	850.483	651.278
288.701	15.326	850.135	651.271
289.716	15.244	849.593	650.481
290.730	15.274	848.957	650.053
291.745	15.337	848.293	649.732
292.760	15.277	847.581	648.896
293.774	15.394	846.908	648.776
294.789	15.441	846.640	648.694
295.803	15.200	845.996	647.214
296.818	15.436	845.120	647.397
297.833	15.348	844.585	646.591
298.847	15.390	843.879	646.153
299.862	15.429	843.369	645.857
300.876	15.410	842.459	645.030
301.891	15.493	841.728	644.731
302.906	15.437	841.326	644.153
303.920	15.545	840.749	644.067
304.935	15.490	840.125	643.323
305.949	15.550	839.707	643.173
306.964	15.751	838.829	643.212
307.979	15.631	838.185	642.203
308.993	15.646	837.846	641.945
310.008	15.657	837.456	641.631
311.022	15.676	836.868	641.196
312.037	15.658	836.734	640.969
313.052	15.660	836.123	640.450
314.066	15.653	835.399	639.816
315.081	15.487	834.741	638.622
316.095	15.531	834.377	638.455
317.110	15.670	833.601	638.332
318.125	15.650	833.148	637.853
319.139	15.669	832.624	637.467
320.154	15.588	832.541	637.040
321.168	15.680	831.611	636.620
322.183	15.627	830.999	635.895
323.197	15.685	830.814	635.918
324.212	15.743	830.007	635.463
325.227	15.618	829.686	634.687
326.241	15.707	829.293	634.666
327.256	15.744	828.438	634.097
328.270	15.876	827.521	633.835
329.285	15.842	827.322	633.496
330.300	15.773	826.556	632.597
331.314	15.885	826.102	632.612
332.329	15.893	825.323	631.990
333.343	15.793	824.850	631.197
334.358	15.934	824.403	631.329
335.373	15.862	823.694	630.460
336.387	16.045	823.273	630.768
337.402	15.961	822.849	630.074
338.416	15.934	822.151	629.382
339.431	16.095	821.709	629.589
340.446	16.130	821.106	629.200
341.460	16.096	820.660	628.676
342.475	16.081	820.124	628.155
343.489	16.282	819.522	628.387
344.504	16.121	818.879	627.240
345.519	16.276	818.113	627.171
346.533	16.118	818.152	626.561
347.548	16.158	817.704	626.310
348.562	16.222	816.711	625.732
349.577	16.126	816.458	625.128
350.592	16.049	815.729	624.228
351.606	16.047	815.271	623.815
352.621	16.122	814.786	623.664
353.635	16.074	814.329	623.082
354.650	16.084	813.947	622.772
355.665	16.193	813.466	622.752
356.679	16.204	813.330	622.633
357.694	16.221	812.457	621.972
358.708	16.257	812.060	621.747
359.723	16.208	811.560	621.129
360.738	16.243	810.605	620.470
361.752	16.228	810.258	620.096
362.767	16.304	810.513	620.513
363.781	16.370	809.705	620.083
364.796	16.372	809.508	619.884
365.810	16.478	808.829	619.698
366.825	16.546	808.320	619.502
367.840	16.410	808.185	618.848
368.854	16.446	808.104	618.861
369.869	16.439	807.500	618.319
370.883	16.468	806.700	617.757
371.898	16.529	805.811	617.244
372.913	16.518	805.313	616.769
373.927	16.525	805.194	616.647
374.942	16.587	804.349	616.172
375.956	16.651	803.221	615.488
376.971	16.624	802.720	614.950
377.986	16.626	802.541	614.767
379.000	16.635	802.077	614.390
380.015	16.799	801.603	614.566
381.029	16.753	801.136	613.987
382.044	16.808	800.691	613.792
383.059	16.845	799.886	613.255
384.073	16.791	799.735	612.887
385.088	16.619	799.332	611.903
386.102	16.689	798.428	611.411
387.117	16.850	797.903	611.534
388.132	16.759	797.622	610.936
389.146	16.793	796.973	610.510
390.161	16.768	796.942	610.339
391.175	16.879	796.446	610.306
392.190	16.912	795.758	609.845
393.205	16.859	795.733	609.581
394.219	16.809	794.946	608.744
395.234	16.841	794.522	608.481
396.248	16.881	793.786	608.006
397.263	16.794	793.575	607.476
398.278	16.832	793.049	607.156
399.292	16.695	792.815	606.435
400.307	16.821	792.625	606.685
401.321	16.759	792.000	605.932
402.336	16.861	791.488	605.853
403.350	16.827	790.918	605.242
404.365	17.135	790.384	605.879
405.380	17.024	790.153	605.251
406.394	17.193	789.573	605.355
407.409	17.094	789.071	604.565
408.423	17.016	788.864	604.076
409.438	17.208	788.123	604.137
410.453	17.231	787.837	603.946
411.467	17.147	787.544	603.368
412.482	17.366	786.627	603.389
413.496	17.220	786.844	602.985
414.511	17.168	786.264	602.303
415.526	17.179	786.124	602.180
416.540	17.353	785.530	602.291
417.555	17.214	785.128	601.436
418.569	17.312	784.501	601.250
419.584	17.208	784.121	600.537
420.599	17.332	783.662	600.569
421.613	88.855	1256.876	1349.793
422.628	75.319	1325.857	1349.922
