DTS Sentinel unit serial number:	SN413079Multiplexer serial number:	ORYXHardware model number:	OX4-SRSoftware version number:	ORYX F/W v4.00 Oryx Data Collector v3.7.2.0data status	okinstallation	princeton_trtdifferential loss correction	single-endedforward channel	channel 3reverse channel	N/Adate	2019/09/19time	07:28:35forward acquisition time	60.00reverse acquisition time	0.00gamma	496.2192k internal	0.2348k external	0.2348temperature offset calibration	0.9979default loss term (dB/km)	0.3790temperature slope calibration	1.0000multiplexer offset coefficient	1.0000multiplexer slope coefficient	1.0000fibre end	0.00T internal ref (°C)	19.22T ext. ref 1 (°C)	0.55T ext. ref 2 (°C)	13.96length (m)	temperature (°C)	Stokes	anti-Stokes-747.200	-67.318	0.133	-0.052
-746.185	-200.000	-0.032	0.244
-745.171	44.335	0.156	-0.143
-744.156	186.825	-0.137	0.203
-743.142	-114.263	0.155	0.030
-742.127	-200.000	-0.053	0.351
-741.112	6.321	-0.158	-0.117
-740.098	-11.092	-0.206	-0.136
-739.083	-200.000	-0.047	0.360
-738.069	-83.912	-0.058	-0.018
-737.054	-188.423	-0.270	-0.003
-736.039	-200.000	-0.067	-0.502
-735.025	-88.051	-0.232	0.069
-734.010	-84.856	0.293	-0.092
-732.996	-113.799	-0.593	0.115
-731.981	-42.660	-0.389	0.198
-730.966	-200.000	0.018	-0.101
-729.952	296.864	-0.155	-0.284
-728.937	800.000	0.026	0.105
-727.923	-65.994	0.211	-0.084
-726.908	13.456	-0.224	-0.174
-725.894	800.000	0.061	0.179
-724.879	-200.000	0.010	0.316
-723.864	-31.234	0.144	0.081
-722.850	800.000	-0.038	0.125
-721.835	-87.740	-0.075	-0.023
-720.821	-100.729	0.402	-0.099
-719.806	122.242	-0.134	-0.167
-718.791	517.319	0.042	-0.098
-717.777	-200.000	0.034	-0.230
-716.762	758.249	-0.047	-0.127
-715.748	123.799	-0.334	-0.418
-714.733	83.519	-0.142	-0.155
-713.718	65.785	-0.160	-0.162
-712.704	289.273	0.080	-0.145
-711.689	-139.041	-0.065	0.007
-710.675	143.354	0.199	0.265
-709.660	-51.552	-0.263	-0.123
-708.645	-113.837	-0.066	-0.013
-707.631	104.101	0.088	-0.103
-706.616	77.728	0.032	0.034
-705.602	-156.124	0.169	0.011
-704.587	-200.000	0.003	-0.562
-703.572	139.427	-0.152	-0.200
-702.558	118.265	0.119	0.147
-701.543	-78.152	-0.157	-0.054
-700.529	-19.986	0.432	-0.266
-699.514	72.749	-0.298	0.311
-698.499	-200.000	-0.023	-0.137
-697.485	-163.735	-0.293	0.014
-696.470	-73.142	-0.100	-0.036
-695.456	-30.373	-0.231	0.131
-694.441	800.000	0.016	-0.066
-693.426	542.973	-0.109	-0.258
-692.412	409.706	0.125	-0.265
-691.397	151.983	0.087	0.118
-690.383	22.352	0.121	0.098
-689.368	-120.660	0.111	0.019
-688.354	-19.453	-0.176	-0.109
-687.339	-89.164	0.246	-0.073
-686.324	-200.000	-0.001	-0.234
-685.310	450.372	-0.008	0.018
-684.295	-101.581	-0.206	-0.050
-683.281	800.000	-0.090	0.329
-682.266	767.743	-0.041	-0.110
-681.251	57.781	0.200	0.195
-680.237	199.901	0.073	-0.111
-679.222	-0.151	0.091	0.065
-678.208	98.387	-0.174	0.200
-677.193	42.065	-0.224	0.203
-676.178	-151.487	-0.436	0.032
-675.164	-8.589	-0.082	-0.055
-674.149	291.132	0.094	0.171
-673.135	-103.415	-0.210	-0.049
-672.120	800.000	0.063	0.175
-671.105	-6.785	-0.089	0.060
-670.091	-191.325	-0.450	-0.005
-669.076	124.164	-0.177	0.222
-668.062	115.888	-0.186	-0.227
-667.047	-200.000	0.016	0.151
-666.032	32.270	0.121	-0.104
-665.018	-200.000	-0.024	0.106
-664.003	-200.000	0.475	0.001
-662.989	-173.389	-0.168	-0.005
-661.974	4.094	-0.057	-0.042
-660.959	-200.000	0.006	0.086
-659.945	-44.316	-0.294	-0.147
-658.930	-200.000	0.182	0.000
-657.916	800.000	-0.143	-0.402
-656.901	-149.955	-0.178	-0.014
-655.886	76.109	-0.194	-0.204
-654.872	-28.287	0.206	-0.118
-653.857	800.000	-0.057	0.228
-652.843	-158.868	-0.415	0.024
-651.828	26.711	0.106	-0.088
-650.814	-33.874	-0.069	0.038
-649.799	130.411	0.127	0.162
-648.784	-75.323	0.256	0.091
-647.770	566.142	-0.037	-0.088
-646.755	-200.000	-0.001	-0.304
-645.741	800.000	0.083	0.257
-644.726	-132.002	0.411	-0.053
-643.711	715.529	0.097	-0.255
-642.697	265.168	0.037	0.065
-641.682	-64.392	-0.228	0.092
-640.668	336.753	0.111	0.214
-639.653	-1.038	-0.255	0.180
-638.638	-200.000	-0.006	0.103
-637.624	442.968	0.054	-0.117
-636.609	-18.265	0.255	0.158
-635.595	800.000	-0.050	0.149
-634.580	-12.645	-0.256	-0.166
-633.565	-26.794	-0.275	-0.160
-632.551	-13.267	-0.190	-0.123
-631.536	-78.530	0.378	0.129
-630.522	93.177	-0.149	-0.168
-629.507	-120.000	0.203	-0.035
-628.492	800.000	-0.047	-0.186
-627.478	-93.338	0.049	-0.014
-626.463	-85.190	-0.167	0.052
-625.449	29.108	-0.211	-0.178
-624.434	163.286	0.248	-0.347
-623.419	613.237	-0.057	-0.142
-622.405	-48.290	0.090	0.043
-621.390	49.450	0.210	-0.197
-620.376	-76.757	-0.086	-0.030
-619.361	-81.822	-0.278	0.091
-618.346	34.781	0.151	0.131
-617.332	-124.976	-0.229	0.035
-616.317	-200.000	-0.051	0.311
-615.303	59.406	0.139	-0.136
-614.288	-42.750	0.321	0.162
-613.273	-160.463	0.233	-0.012
-612.259	800.000	0.042	-0.127
-611.244	298.458	-0.137	0.250
-610.230	416.969	0.084	0.178
-609.215	-120.233	-0.224	0.038
-608.201	660.957	-0.138	-0.354
-607.186	-115.252	-0.199	0.037
-606.171	630.750	0.097	-0.243
-605.157	156.370	-0.110	-0.151
-604.142	167.167	0.192	0.271
-603.128	208.526	-0.061	0.094
-602.113	202.398	-0.078	-0.119
-601.098	-99.027	-0.096	-0.024
-600.084	-59.310	-0.176	-0.075
-599.069	-59.657	0.189	-0.080
-598.055	800.000	0.052	-0.157
-597.040	-126.275	-0.375	0.056
-596.025	-200.000	0.001	-0.093
-595.011	-200.000	0.005	-0.264
-593.996	1.312	-0.061	0.043
-592.982	30.066	0.130	0.110
-591.967	800.000	-0.069	-0.215
-590.952	122.083	0.186	-0.231
-589.938	23.470	0.060	0.049
-588.923	-200.000	-0.001	0.020
-587.909	200.564	-0.129	-0.196
-586.894	-25.131	-0.201	-0.118
-585.879	-200.000	-0.013	-0.172
-584.865	800.000	0.062	0.219
-583.850	132.268	-0.230	-0.294
-582.836	-91.000	0.198	-0.057
-581.821	119.501	-0.084	-0.104
-580.806	-122.925	0.246	0.039
-579.792	292.145	0.156	0.281
-578.777	-44.400	0.155	-0.077
-577.763	800.000	-0.084	-0.243
-576.748	18.114	0.144	-0.114
-575.733	93.461	-0.135	0.152
-574.719	-77.101	-0.256	-0.088
-573.704	800.000	-0.067	0.213
-572.690	-65.546	0.068	0.027
-571.675	800.000	0.018	0.069
-570.661	-38.279	0.079	0.042
-569.646	-66.269	-0.140	-0.055
-568.631	-60.521	-0.065	0.027
-567.617	307.808	0.108	-0.200
-566.602	198.350	-0.261	0.397
-565.588	491.762	0.117	0.266
-564.573	-7.374	0.281	-0.189
-563.558	-200.000	0.030	0.233
-562.544	800.000	0.016	0.047
-561.529	-149.052	-0.357	0.028
-560.515	800.000	0.027	-0.082
-559.500	26.507	0.204	-0.169
-558.485	24.288	-0.478	0.392
-557.471	694.143	-0.097	-0.252
-556.456	509.845	0.161	0.370
-555.442	-118.251	0.133	-0.023
-554.427	126.445	-0.281	-0.353
-553.412	47.909	-0.162	-0.151
-552.398	526.066	-0.048	-0.112
-551.383	-200.000	-0.015	0.086
-550.369	-56.645	-0.195	-0.086
-549.354	800.000	0.018	0.079
-548.339	-200.000	-0.031	0.256
-547.325	-28.858	-0.218	-0.124
-546.310	-47.312	-0.218	-0.105
-545.296	186.392	0.124	-0.183
-544.281	-200.000	0.047	-0.321
-543.266	0.959	0.077	-0.055
-542.252	-200.000	0.075	-0.377
-541.237	-200.000	0.014	0.096
-540.223	-48.087	0.298	0.143
-539.208	66.332	0.166	-0.167
-538.193	261.782	-0.055	-0.095
-537.179	-73.311	-0.106	-0.039
-536.164	-153.007	-0.072	-0.005
-535.150	-93.249	-0.109	0.030
-534.135	-45.961	0.214	-0.105
-533.121	-1.702	0.057	-0.040
-532.106	563.983	-0.072	0.174
-531.091	800.000	-0.071	-0.197
-530.077	800.000	-0.150	0.562
-529.062	-52.780	-0.095	-0.043
-528.048	-7.166	-0.162	0.109
-527.033	17.241	-0.101	0.080
-526.018	28.405	0.090	-0.076
-525.004	-200.000	0.021	-0.221
-523.989	-103.646	-0.286	-0.067
-522.975	-34.197	-0.119	-0.065
-521.960	-200.000	0.063	-0.306
-520.945	-58.650	-0.230	0.099
-519.931	362.436	-0.233	0.463
-518.916	-3.631	-0.144	0.099
-517.902	605.548	-0.045	-0.111
-516.887	-200.000	0.032	-0.166
-515.872	45.248	0.104	-0.095
-514.858	-130.522	0.207	-0.028
-513.843	252.222	-0.131	0.221
-512.829	-124.607	-0.155	-0.024
-511.814	-194.803	-0.131	-0.001
-510.799	-200.000	0.024	-0.110
-509.785	-200.000	-0.025	0.233
-508.770	682.046	-0.150	0.386
-507.756	-62.201	0.437	-0.180
-506.741	-18.342	0.257	0.159
-505.726	19.728	0.158	-0.126
-504.712	-69.808	-0.348	-0.131
-503.697	-200.000	-0.076	0.342
-502.683	-150.008	-0.198	-0.015
-501.668	-200.000	-0.009	-0.074
-500.653	-61.380	0.156	-0.065
-499.639	385.865	-0.124	0.253
-498.624	-39.799	-0.077	0.040
-497.610	-92.492	0.427	-0.119
-496.595	-128.689	0.150	0.021
-495.581	140.164	-0.132	-0.172
-494.566	-200.000	-0.079	-0.350
-493.551	-200.000	0.006	0.062
-492.537	-178.074	-0.093	0.002
-491.522	4.500	0.405	-0.294
-490.508	89.040	0.101	-0.111
-489.493	2.569	0.197	0.141
-488.478	-200.000	0.004	0.100
-487.464	-200.000	-0.017	-0.318
-486.449	800.000	-0.102	0.364
-485.435	-87.415	0.093	-0.028
-484.420	-91.847	0.150	0.042
-483.405	796.120	-0.114	-0.312
-482.391	-69.161	-0.189	0.072
-481.376	-200.000	0.028	0.159
-480.362	-8.804	-0.151	-0.100
-479.347	108.560	-0.086	0.101
-478.332	13.273	-0.174	-0.133
-477.318	-117.307	0.203	0.037
-476.303	-13.428	0.103	-0.066
-475.289	-159.462	-0.221	0.012
-474.274	-83.945	0.350	-0.110
-473.259	679.384	-0.017	-0.045
-472.245	-144.363	-0.175	-0.016
-471.230	22.389	-0.213	-0.172
-470.216	800.000	-0.082	-0.275
-469.201	12.740	0.341	-0.260
-468.186	-127.361	0.215	0.031
-467.172	373.787	-0.093	-0.187
-466.157	-20.200	-0.149	0.091
-465.143	-200.000	0.031	-0.286
-464.128	-29.329	0.113	-0.064
-463.113	47.164	-0.199	-0.183
-462.099	-97.869	0.012	-0.003
-461.084	95.791	0.129	0.145
-460.070	-200.000	-0.006	0.184
-459.055	-200.000	-0.011	0.084
-458.040	-130.505	0.088	-0.012
-457.026	800.000	0.048	0.179
-456.011	-12.148	-0.272	0.176
-454.997	-125.880	-0.118	0.018
-453.982	-200.000	0.023	-0.137
-452.968	219.338	0.071	-0.113
-451.953	582.247	-0.043	-0.103
-450.938	-200.000	0.042	-0.245
-449.924	445.939	0.071	0.155
-448.909	-48.857	0.040	-0.019
-447.895	-146.860	-0.255	-0.022
-446.880	-65.674	-0.194	0.077
-445.865	6.200	0.089	0.065
-444.851	-114.089	-0.293	0.056
-443.836	-194.949	0.278	-0.002
-442.822	225.944	0.129	0.207
-441.807	212.522	-0.061	0.095
-440.792	-200.000	0.082	-0.391
-439.778	446.962	0.081	-0.177
-438.763	-175.153	0.267	0.007
-437.749	-149.377	-0.171	0.013
-436.734	-79.061	0.479	-0.161
-435.719	-191.523	0.131	0.001
-434.705	134.688	-0.132	-0.169
-433.690	-50.393	-0.139	0.065
-432.676	14.613	0.137	-0.105
-431.661	285.392	0.089	-0.158
-430.646	800.000	-0.161	0.444
-429.632	-200.000	0.018	0.272
-428.617	-64.765	0.181	-0.072
-427.603	-80.063	-0.494	-0.163
-426.588	26.784	-0.060	-0.049
-425.573	359.853	0.210	0.414
-424.559	-159.591	-0.094	-0.005
-423.544	74.790	-0.165	0.171
-422.530	186.081	0.215	0.315
-421.515	-8.329	-0.029	-0.019
-420.500	-90.120	-0.421	0.121
-419.486	800.000	0.044	0.119
-418.471	-200.000	-0.006	0.057
-417.457	-79.536	-0.198	0.066
-416.442	144.352	-0.184	0.243
-415.428	-200.000	0.028	0.519
-414.413	207.347	0.080	0.123
-413.398	224.410	0.161	-0.257
-412.384	800.000	-0.036	-0.146
-411.369	-93.947	-0.222	0.060
-410.355	411.227	-0.046	0.095
-409.340	-200.000	0.009	-0.364
-408.325	20.284	0.248	-0.198
-407.311	800.000	0.051	0.146
-406.296	-200.000	0.031	0.156
-405.282	-200.000	-0.004	0.213
-404.267	-13.848	0.119	-0.076
-403.252	-19.400	-0.250	0.153
-402.238	-200.000	0.013	-0.174
-401.223	68.311	0.159	-0.161
-400.209	-0.677	0.184	0.129
-399.194	26.623	0.202	0.167
-398.179	37.556	0.112	0.098
-397.165	427.148	0.081	0.172
-396.150	69.629	-0.138	-0.140
-395.136	-200.000	0.069	-0.436
-394.121	-163.890	0.310	0.014
-393.106	328.636	-0.098	0.186
-392.092	-200.000	-0.061	-0.372
-391.077	-70.604	-0.163	0.061
-390.063	-153.401	0.113	0.008
-389.048	31.821	0.149	0.127
-388.033	-70.297	-0.086	0.032
-387.019	709.381	0.095	0.248
-386.004	-17.924	-0.174	0.108
-384.990	-200.000	0.207	0.000
-383.975	800.000	0.044	0.159
-382.960	-186.428	0.013	-0.000
-381.946	138.505	0.194	-0.251
-380.931	-120.500	-0.196	-0.033
-379.917	51.659	-0.076	-0.071
-378.902	132.058	-0.215	0.272
-377.888	288.949	0.188	-0.335
-376.873	-132.743	0.339	-0.043
-375.858	36.368	0.188	0.163
-374.844	290.520	0.125	0.224
-373.829	307.312	0.127	-0.233
-372.815	-60.085	-0.160	-0.067
-371.800	-42.318	0.069	0.035
-370.785	338.084	0.052	-0.100
-369.771	-92.641	-0.179	-0.049
-368.756	-155.284	0.391	0.025
-367.742	-200.000	0.033	0.383
-366.727	-159.063	0.215	0.012
-365.712	-119.740	0.563	0.096
-364.698	-3.434	-0.361	-0.248
-363.683	800.000	0.133	0.385
-362.669	-200.000	0.014	0.215
-361.654	723.581	-0.097	-0.255
-360.639	-60.027	-0.320	-0.134
-359.625	98.333	0.072	0.082
-358.610	-17.059	-0.266	-0.166
-357.596	72.594	0.091	0.094
-356.581	-200.000	0.011	-0.207
-355.566	-43.247	0.084	-0.042
-354.552	297.692	-0.075	0.136
-353.537	-145.288	0.124	0.011
-352.523	471.040	-0.089	0.197
-351.508	465.861	-0.036	-0.079
-350.493	138.711	0.198	-0.256
-349.479	-200.000	-0.038	-0.232
-348.464	536.725	-0.097	-0.226
-347.450	42.327	-0.128	0.114
-346.435	89.418	-0.095	0.104
-345.420	127.980	0.125	0.157
-344.406	30.891	0.117	0.098
-343.391	-200.000	-0.018	-0.114
-342.377	-200.000	-0.021	0.285
-341.362	-49.135	0.437	0.206
-340.348	-200.000	0.001	0.044
-339.333	131.578	-0.071	0.090
-338.318	380.811	0.051	0.102
-337.304	-123.311	0.196	0.031
-336.289	-69.302	-0.120	0.045
-335.275	-95.787	0.090	-0.024
-334.260	-200.000	0.010	0.184
-333.245	30.056	-0.021	-0.017
-332.231	42.940	-0.179	0.161
-331.216	-143.128	-0.316	0.030
-330.202	-18.953	0.116	0.071
-329.187	800.000	0.056	0.222
-328.172	-37.687	0.258	0.135
-327.158	34.403	-0.350	0.301
-326.143	151.060	0.081	-0.108
-325.129	191.480	-0.138	-0.204
-324.114	226.263	0.106	0.169
-323.099	392.819	-0.145	0.297
-322.085	650.568	0.122	-0.307
-321.070	334.313	0.058	0.111
-320.056	800.000	0.051	-0.152
-319.041	-83.579	-0.173	0.054
-318.026	-138.157	-0.181	-0.020
-317.012	166.789	-0.156	-0.217
-315.997	24.315	0.275	-0.223
-314.983	-89.128	-0.359	-0.104
-313.968	445.312	0.057	-0.123
-312.953	-57.449	-0.168	-0.073
-311.939	8.590	-0.203	0.150
-310.924	-66.407	0.179	-0.070
-309.910	-75.217	-0.294	0.103
-308.895	53.350	0.025	-0.024
-307.880	143.260	-0.121	0.158
-306.866	160.238	0.098	0.135
-305.851	-47.809	0.110	-0.053
-304.837	70.821	0.195	0.198
-303.822	55.507	-0.311	0.296
-302.807	26.480	0.147	0.121
-301.793	-70.237	-0.211	0.079
-300.778	-200.000	0.014	-0.250
-299.764	-23.681	0.197	-0.116
-298.749	-126.662	0.466	0.068
-297.735	-79.627	0.085	-0.028
-296.720	641.323	0.067	0.166
-295.705	-200.000	-0.052	-0.266
-294.691	-158.003	-0.266	-0.015
-293.676	-11.116	-0.227	-0.147
-292.662	-168.530	-0.329	0.012
-291.647	150.953	-0.220	-0.293
-290.632	269.519	0.161	0.278
-289.618	-186.875	0.301	0.004
-288.603	265.163	-0.108	0.185
-287.589	800.000	-0.036	0.143
-286.574	272.338	-0.078	0.135
-285.559	800.000	0.074	-0.237
-284.545	-161.519	0.077	0.004
-283.530	276.355	-0.185	0.322
-282.516	-200.000	0.046	0.275
-281.501	-60.224	-0.287	0.120
-280.486	8.898	-0.350	-0.259
-279.472	213.116	0.124	0.193
-278.457	-76.155	0.285	0.099
-277.443	-85.717	-0.256	-0.078
-276.428	716.919	-0.130	0.340
-275.413	-200.000	-0.052	0.298
-274.399	7.126	-0.326	0.239
-273.384	-19.660	-0.288	-0.175
-272.370	-200.000	-0.008	0.088
-271.355	164.643	0.153	-0.212
-270.340	15.215	0.107	-0.082
-269.326	800.000	0.027	0.098
-268.311	260.210	-0.140	-0.238
-267.297	138.920	0.051	-0.065
-266.282	106.933	-0.196	-0.228
-265.267	351.204	-0.170	0.331
-264.253	130.477	-0.341	-0.428
-263.238	383.916	-0.076	-0.153
-262.224	-104.303	-0.254	0.058
-261.209	800.000	-0.042	-0.137
-260.195	-66.794	-0.248	0.096
-259.180	-69.978	-0.068	-0.025
-258.165	-89.891	-0.473	0.135
-257.151	-5.385	0.304	-0.205
-256.136	121.731	-0.045	-0.055
-255.122	-200.000	0.019	-0.112
-254.107	546.866	-0.047	-0.110
-253.092	-76.726	-0.227	0.078
-252.078	208.329	0.181	-0.278
-251.063	-84.634	0.400	-0.123
-250.049	6.308	0.100	-0.073
-249.034	-138.815	-0.345	-0.037
-248.019	-138.097	0.496	0.054
-247.005	-37.070	0.308	0.161
-245.990	-100.124	0.058	-0.014
-244.976	49.552	-0.271	-0.250
-243.961	152.588	-0.087	-0.116
-242.946	485.894	0.088	-0.195
-241.932	-119.756	-0.049	-0.008
-240.917	42.236	0.276	0.246
-239.903	207.050	-0.064	-0.098
-238.888	-98.277	0.122	-0.031
-237.873	-119.291	0.256	-0.044
-236.859	-7.216	0.154	0.102
-235.844	183.579	-0.169	0.244
-234.830	31.652	-0.291	-0.245
-233.815	388.542	0.158	-0.320
-232.800	-200.000	-0.019	0.156
-231.786	502.839	-0.133	0.301
-230.771	-200.000	0.004	0.258
-229.757	800.000	0.059	-0.237
-228.742	800.000	-0.022	0.062
-227.727	-26.924	-0.067	-0.039
-226.713	-26.404	-0.192	0.110
-225.698	800.000	-0.019	-0.067
-224.684	800.000	0.059	-0.252
-223.669	-200.000	-0.015	-0.361
-222.655	-200.000	0.045	-0.384
-221.640	-1.329	-0.404	0.279
-220.625	7.401	0.236	0.173
-219.611	-69.691	0.422	0.158
-218.596	800.000	-0.063	-0.180
-217.582	-122.583	-0.240	-0.038
-216.567	800.000	-0.113	0.337
-215.552	-122.876	-0.130	0.020
-214.538	-200.000	0.297	0.000
-213.523	60.614	0.106	0.102
-212.509	-200.000	0.006	0.259
-211.494	-20.219	0.151	-0.091
-210.479	64.458	-0.053	0.052
-209.465	213.978	0.111	-0.172
-208.450	800.000	-0.092	0.272
-207.436	-21.769	-0.195	0.116
-206.421	-38.903	0.221	-0.114
-205.406	800.000	-0.044	0.130
-204.392	800.000	0.063	0.207
-203.377	48.642	-0.258	0.237
-202.363	8.229	-0.202	-0.149
-201.348	34.007	0.176	-0.150
-200.333	19.429	-0.102	-0.080
-199.319	800.000	0.140	0.444
-198.304	-142.561	0.162	0.016
-197.290	105.312	-0.152	-0.176
-196.275	-102.409	0.278	-0.065
-195.260	24.404	-0.307	0.248
-194.246	94.966	0.170	0.189
-193.231	-79.989	0.062	-0.020
-192.217	62.423	0.032	-0.031
-191.202	232.161	-0.116	0.186
-190.187	-147.666	0.189	0.016
-189.173	-200.000	0.040	-0.358
-188.158	-200.000	-0.014	-0.257
-187.144	142.047	-0.016	-0.020
-186.129	298.353	0.066	-0.119
-185.114	4.971	0.225	0.162
-184.100	-185.957	-0.131	0.002
-183.085	-80.017	0.228	-0.075
-182.071	615.352	0.046	0.114
-181.056	-141.558	0.314	-0.031
-180.042	154.176	0.131	-0.175
-179.027	-33.752	0.146	0.079
-178.012	14.972	0.339	0.260
-176.998	72.917	-0.018	-0.018
-175.983	80.011	0.058	-0.061
-174.969	-92.578	-0.164	0.045
-173.954	-118.090	0.079	-0.014
-172.939	216.104	0.075	-0.116
-171.925	-200.000	-0.032	0.303
-170.910	800.000	-0.079	0.290
-169.896	32.828	0.123	0.104
-168.881	-155.066	0.269	0.017
-167.866	-1.805	-0.256	-0.176
-166.852	207.150	0.150	-0.228
-165.837	315.135	0.111	-0.204
-164.823	800.000	0.087	0.362
-163.808	-91.967	0.055	0.015
-162.793	644.209	-0.119	-0.297
-161.779	-200.000	0.021	0.142
-160.764	-134.135	-0.250	0.030
-159.750	18.130	0.163	0.127
-158.735	800.000	-0.037	-0.136
-157.720	145.097	0.080	-0.105
-156.706	87.101	0.153	-0.166
-155.691	-81.101	0.328	-0.106
-154.677	-146.892	-0.173	0.015
-153.662	-200.000	0.007	0.173
-152.647	454.596	0.180	-0.389
-151.633	-81.499	0.151	0.049
-150.618	-200.000	-0.034	0.170
-149.604	500.487	-0.095	-0.214
-148.589	-53.346	0.447	0.200
-147.574	-44.806	-0.273	0.133
-146.560	176.557	-0.253	-0.359
-145.545	-84.528	0.269	-0.083
-144.531	144.082	0.167	-0.217
-143.516	800.000	-0.079	0.237
-142.502	800.000	-0.084	-0.264
-141.487	16.870	0.080	0.062
-140.472	558.390	-0.098	-0.232
-139.458	-61.855	0.260	0.106
-138.443	-5.128	-0.103	0.069
-137.429	-14.244	-0.241	-0.152
-136.414	69.860	-0.138	0.139
-135.399	-200.000	-0.076	0.434
-134.385	-200.000	-0.017	-0.112
-133.370	395.102	-0.226	-0.461
-132.356	800.000	0.122	0.440
-131.341	-152.736	-0.337	0.023
-130.326	-200.000	0.008	0.139
-129.312	-41.567	-0.227	-0.114
-128.297	-172.210	0.309	0.010
-127.283	-54.750	-0.201	0.089
-126.268	107.337	-0.196	0.228
-125.253	-89.710	0.199	0.057
-124.239	63.489	-0.119	0.117
-123.224	800.000	-0.018	0.058
-122.210	192.622	0.178	-0.262
-121.195	-20.700	0.159	-0.095
-120.180	-200.000	-0.006	0.254
-119.166	716.098	-0.072	0.186
-118.151	-132.278	-0.084	-0.011
-117.137	-200.000	0.011	-0.168
-116.122	246.139	0.105	0.173
-115.107	659.378	-0.119	-0.298
-114.093	-200.000	0.029	0.210
-113.078	784.177	-0.093	0.248
-112.064	-200.000	-0.028	-0.316
-111.049	-65.953	-0.364	-0.142
-110.034	41.032	-0.210	0.184
-109.020	5.469	-0.111	0.080
-108.005	-112.523	-0.146	-0.028
-106.991	42.258	0.226	-0.200
-105.976	80.143	-0.116	0.122
-104.962	-200.000	-0.004	-0.056
-103.947	-145.489	0.172	-0.015
-102.932	164.023	-0.042	-0.057
-101.918	201.834	0.242	0.364
-100.903	-6.216	0.073	-0.049
-99.889	-200.000	0.034	-0.217
-98.874	-87.154	-0.135	-0.040
-97.859	-51.552	0.107	0.049
-96.845	-156.780	0.178	-0.011
-95.830	800.000	0.037	0.140
-94.816	100.454	0.105	0.118
-93.801	-116.558	-0.394	0.071
-92.786	-71.974	0.060	0.022
-91.772	800.000	-0.151	0.487
-90.757	-31.912	-0.204	0.111
-89.743	443.853	-0.101	0.215
-88.728	204.618	0.186	0.281
-87.713	159.479	-0.140	-0.189
-86.699	-2.862	0.251	0.171
-85.684	-117.335	-0.267	-0.047
-84.670	800.000	0.059	-0.165
-83.655	-16.484	-0.477	0.294
-82.640	27.781	-0.215	0.176
-81.626	255.774	-0.066	0.110
-80.611	126.013	-0.047	-0.058
-79.597	-0.917	0.135	0.093
-78.582	800.000	-0.061	-0.231
-77.567	403.043	0.123	0.252
-76.553	207.167	0.153	0.232
-75.538	301.329	-0.116	0.208
-74.524	310.765	-0.088	-0.161
-73.509	-200.000	-0.015	0.092
-72.494	-48.538	-0.155	-0.072
-71.480	-76.073	0.369	0.127
-70.465	171.646	0.182	0.255
-69.451	-200.000	-0.039	0.332
-68.436	201.617	-0.090	0.135
-67.422	800.000	-0.051	0.152
-66.407	-200.000	-0.041	0.235
-65.392	-125.480	0.328	0.049
-64.378	-200.000	-0.018	0.125
-63.363	206.583	0.201	0.305
-62.349	457.072	0.127	0.275
-61.334	185.142	-0.968	-1.397
-60.319	170.115	0.521	0.726
-59.305	244.011	-0.800	-1.307
-58.290	605.444	0.615	1.491
-57.276	203.655	0.747	1.125
-56.261	-200.000	136.865	622.633
-55.246	336.092	1649.049	3112.815
-54.232	136.598	2786.050	3537.305
-53.217	81.290	2184.799	2296.189
-52.203	28.976	1701.946	1403.606
-51.188	22.083	1527.183	1212.047
-50.173	20.482	1507.408	1185.390
-49.159	43.939	1585.018	1412.344
-48.144	40.043	1593.963	1392.880
-47.130	22.095	1543.158	1224.610
-46.115	19.495	1527.364	1194.068
-45.100	19.320	1523.608	1189.878
-44.086	19.301	1521.884	1188.353
-43.071	19.254	1519.864	1186.405
-42.057	19.197	1518.460	1184.869
-41.042	19.251	1516.900	1183.976
-40.027	19.197	1515.463	1182.437
-39.013	19.183	1513.918	1181.087
-37.998	19.151	1512.592	1179.787
-36.984	19.150	1511.806	1179.117
-35.969	19.236	1509.816	1178.112
-34.954	19.241	1508.475	1177.047
-33.940	19.160	1507.344	1175.567
-32.925	19.147	1506.067	1174.439
-31.911	19.207	1505.224	1174.142
-30.896	19.164	1503.949	1172.806
-29.881	19.166	1502.604	1171.728
-28.867	19.130	1501.349	1170.454
-27.852	19.293	1499.467	1170.052
-26.838	19.346	1498.222	1169.393
-25.823	19.215	1496.827	1167.365
-24.809	19.264	1495.314	1166.470
-23.794	19.308	1493.484	1165.300
-22.779	19.236	1493.029	1164.410
-21.765	19.260	1491.350	1163.216
-20.750	19.309	1490.456	1162.805
-19.736	19.217	1489.133	1161.102
-18.721	19.210	1488.426	1160.460
-17.706	19.201	1487.132	1159.345
-16.692	19.192	1485.876	1158.257
-15.677	19.251	1485.005	1157.933
-14.663	19.237	1483.573	1156.672
-13.648	19.169	1483.027	1155.747
-12.633	19.207	1482.029	1155.180
-11.619	19.176	1481.041	1154.156
-10.604	19.268	1479.660	1153.650
-9.590	19.338	1479.112	1153.643
-8.575	19.232	1478.527	1152.430
-7.560	19.232	1478.042	1152.006
-6.546	19.232	1477.033	1151.173
-5.531	19.330	1475.426	1150.534
-4.517	19.207	1474.772	1149.152
-3.502	19.121	1474.048	1147.971
-2.487	19.128	1473.223	1147.331
-1.473	19.251	1472.190	1147.299
-0.458	19.276	1470.598	1146.176
0.556	18.162	1460.631	1135.106
1.571	15.252	1437.004	1097.615
2.586	12.033	1376.375	1030.995
3.600	10.675	1292.275	959.889
4.615	9.793	1248.787	922.462
5.629	8.808	1192.569	875.478
6.644	4.550	1112.522	794.898
7.659	1.066	1079.249	753.748
8.673	0.636	1074.029	747.908
9.688	0.561	1070.561	745.056
10.702	0.519	1069.259	743.879
11.717	0.484	1066.549	741.754
12.731	1.815	1066.789	748.394
13.746	6.954	1073.591	778.456
14.761	13.311	1081.706	815.717
15.775	16.640	1086.406	835.653
16.790	16.781	1085.195	835.338
17.804	15.878	1082.515	828.761
18.819	14.883	1081.283	822.851
19.834	14.509	1079.798	819.809
20.848	14.231	1079.194	817.911
21.863	14.040	1077.878	815.902
22.877	13.823	1077.313	814.338
23.892	13.691	1076.476	812.988
24.907	13.467	1075.287	810.921
25.921	13.492	1074.701	810.528
26.936	13.507	1074.438	810.332
27.950	13.583	1073.375	809.829
28.965	13.623	1072.548	809.330
29.980	13.720	1071.430	808.890
30.994	13.765	1070.763	808.534
32.009	13.825	1069.577	807.859
33.023	13.946	1069.133	808.039
34.038	13.661	1068.509	806.112
35.053	13.748	1067.705	805.856
36.067	13.657	1066.702	804.586
37.082	13.710	1065.461	803.835
38.096	13.684	1065.105	803.371
39.111	13.723	1064.051	802.691
40.126	13.709	1062.914	801.695
41.140	13.552	1062.379	800.462
42.155	13.585	1061.120	799.602
43.169	13.682	1060.313	799.393
44.184	13.600	1059.026	797.955
45.199	13.550	1058.577	797.304
46.213	13.544	1057.505	796.400
47.228	13.595	1056.261	795.636
48.242	13.589	1055.402	794.893
49.257	13.614	1054.690	794.403
50.271	13.690	1053.166	793.548
51.286	13.678	1052.343	792.803
52.301	13.741	1051.905	792.703
53.315	13.619	1051.017	791.383
54.330	13.685	1049.879	790.767
55.344	13.560	1049.229	789.612
56.359	13.615	1048.111	788.965
57.374	13.639	1047.470	788.524
58.388	13.571	1046.492	787.397
59.403	13.518	1045.872	786.610
60.417	13.545	1044.579	785.695
61.432	13.649	1043.627	785.402
62.447	13.580	1042.364	784.055
63.461	13.636	1041.733	783.775
64.476	13.542	1041.313	782.948
65.490	13.632	1040.041	782.348
66.505	13.534	1039.696	781.554
67.520	13.567	1038.820	780.984
68.534	13.507	1038.200	780.164
69.549	13.621	1037.343	779.989
70.563	13.628	1036.671	779.448
71.578	13.522	1035.881	778.287
72.593	13.509	1035.001	777.497
73.607	13.375	1034.263	776.245
74.622	13.438	1033.010	775.530
75.636	13.434	1031.658	774.426
76.651	13.385	1031.388	773.925
77.666	13.549	1030.350	773.846
78.680	13.505	1029.720	773.096
79.695	13.496	1029.490	772.816
80.709	13.564	1028.446	772.278
81.724	13.494	1027.782	771.387
82.739	13.453	1027.333	770.790
83.753	13.675	1026.181	770.891
84.768	13.775	1024.955	770.365
85.782	13.708	1024.224	769.438
86.797	13.716	1023.622	768.955
87.812	13.737	1023.006	768.521
88.826	13.684	1021.747	767.261
89.841	13.618	1021.235	766.503
90.855	13.544	1020.512	765.553
91.870	13.717	1019.905	765.829
92.884	13.662	1019.423	765.143
93.899	13.800	1018.357	764.912
94.914	13.767	1017.175	763.805
95.928	13.787	1016.671	763.452
96.943	13.919	1015.607	763.191
97.957	13.789	1015.045	762.106
98.972	13.711	1014.876	761.550
99.987	13.779	1014.027	761.159
101.001	13.799	1012.949	760.374
102.016	13.670	1012.131	759.103
103.030	13.670	1011.462	758.532
104.045	13.807	1009.738	757.797
105.060	13.673	1009.485	756.932
106.074	13.774	1008.294	756.433
107.089	13.778	1007.249	755.597
108.103	13.778	1005.981	754.578
109.118	13.635	1005.678	753.637
110.133	13.617	1004.948	752.943
111.147	13.557	1003.888	751.806
112.162	13.716	1002.946	751.754
113.176	13.578	1002.179	750.492
114.191	13.739	1001.088	750.334
115.206	13.617	1000.667	749.404
116.220	13.669	999.950	749.034
117.235	13.605	999.202	748.117
118.249	13.744	997.692	747.547
119.264	13.712	996.771	746.647
120.279	13.585	996.255	745.623
121.293	13.622	995.986	745.524
122.308	13.543	995.111	744.447
123.322	13.690	993.820	744.077
124.337	13.599	992.836	742.866
125.352	13.719	991.442	742.291
126.366	13.686	990.347	741.259
127.381	13.703	989.053	740.302
128.395	13.570	988.424	739.174
129.410	13.698	987.508	738.990
130.424	13.712	986.233	738.034
131.439	13.677	985.409	737.199
132.454	13.652	984.829	736.587
133.468	13.745	984.031	736.335
134.483	13.718	983.478	735.739
135.497	13.667	982.801	734.941
136.512	13.607	982.100	734.085
137.527	13.775	980.742	733.749
138.541	13.742	980.200	733.132
139.556	13.688	979.880	732.588
140.570	13.629	978.837	731.486
141.585	13.707	977.933	731.087
142.600	13.835	976.814	730.751
143.614	13.959	976.319	730.863
144.629	13.892	975.683	730.028
145.643	13.893	974.915	729.393
146.658	13.869	974.101	728.613
147.673	13.813	973.187	727.620
148.687	13.911	972.181	727.232
149.702	13.997	971.163	726.783
150.716	13.811	970.571	725.464
151.731	13.884	969.488	724.906
152.746	13.963	968.618	724.537
153.760	13.762	968.086	723.199
154.775	13.806	967.514	722.898
155.789	13.837	966.255	722.027
156.804	13.842	965.685	721.561
157.819	13.954	964.877	721.379
158.833	14.072	964.416	721.485
159.848	14.006	963.922	720.763
160.862	14.046	962.729	719.980
161.877	13.853	963.061	719.328
162.892	14.041	961.717	719.075
163.906	13.936	960.823	717.892
164.921	13.960	959.894	717.234
165.935	13.949	958.460	716.052
166.950	14.055	957.427	715.676
167.964	13.943	956.629	714.534
168.979	14.098	955.448	714.254
169.994	14.040	954.751	713.421
171.008	13.949	953.953	712.372
172.023	14.070	952.813	711.973
173.037	14.164	952.016	711.719
174.052	14.082	951.491	710.911
175.067	14.132	950.639	710.425
176.081	14.103	949.993	709.756
177.096	14.174	948.996	709.253
178.110	14.197	948.003	708.543
179.125	14.061	947.780	707.735
180.140	14.076	946.687	706.921
181.154	14.229	946.161	707.116
182.169	14.160	945.640	706.371
183.183	14.201	944.920	705.945
184.198	14.334	944.212	705.916
185.213	14.281	943.368	705.000
186.227	14.193	943.299	704.514
187.242	14.290	942.243	704.072
188.256	14.287	941.835	703.693
189.271	14.306	941.080	703.145
190.286	14.351	939.950	702.429
191.300	14.285	939.378	701.660
192.315	14.188	938.609	700.618
193.329	14.233	937.943	700.247
194.344	14.186	937.316	699.518
195.359	14.178	937.190	699.329
196.373	14.231	936.540	699.004
197.388	14.309	935.458	698.464
198.402	14.354	935.323	698.491
199.417	14.469	934.886	698.582
200.432	14.537	934.297	698.364
201.446	14.544	933.916	698.047
202.461	14.597	933.069	697.575
203.475	14.635	932.320	697.111
204.490	14.620	931.855	696.639
205.504	14.601	931.083	695.924
206.519	14.612	930.199	695.248
207.534	14.604	929.908	694.934
208.548	14.404	929.033	693.386
209.563	14.448	928.253	692.928
210.577	14.519	927.535	692.622
211.592	14.662	926.800	692.605
212.607	14.664	926.223	692.122
213.621	14.772	926.019	692.357
214.636	14.648	925.739	691.572
215.650	14.585	924.852	690.586
216.665	14.584	924.214	690.046
217.680	14.692	923.404	689.826
218.694	14.780	923.186	689.966
219.709	14.700	922.768	689.264
220.723	14.809	921.841	688.960
221.738	14.757	921.021	688.072
222.753	14.805	920.265	687.643
223.767	14.842	919.446	687.120
224.782	14.731	919.079	686.329
225.796	14.690	918.511	685.678
226.811	14.876	917.583	685.688
227.826	14.830	916.897	684.925
228.840	14.937	916.181	684.766
229.855	14.798	915.597	683.700
230.869	14.909	914.751	683.464
231.884	14.880	913.999	682.723
232.899	14.924	913.483	682.455
233.913	14.827	912.918	681.577
234.928	14.852	912.252	681.121
235.942	14.807	911.267	680.144
236.957	14.831	910.716	679.767
237.972	14.926	910.140	679.665
238.986	14.914	909.639	679.182
240.001	14.917	908.965	678.630
241.015	14.903	907.770	677.622
242.030	15.036	907.169	677.654
243.045	14.953	906.474	676.736
244.059	15.000	905.960	676.484
245.074	15.031	905.279	676.039
246.088	15.123	904.427	675.717
247.103	15.171	903.761	675.351
248.117	15.122	903.480	674.883
249.132	15.066	903.101	674.317
250.147	15.132	902.562	674.120
251.161	15.162	901.597	673.460
252.176	15.310	900.681	673.311
253.190	15.292	900.300	672.896
254.205	15.286	899.796	672.434
255.220	15.398	898.787	672.070
256.234	15.391	898.143	671.501
257.249	15.373	897.707	671.041
258.263	15.329	897.179	670.410
259.278	15.564	896.324	670.651
260.293	15.326	896.206	669.556
261.307	15.561	895.109	669.612
262.322	15.581	894.682	669.313
263.336	15.476	894.238	668.503
264.351	15.506	893.388	667.929
265.366	15.475	893.033	667.481
266.380	15.644	892.113	667.407
267.395	15.620	891.628	666.889
268.409	15.639	890.992	666.428
269.424	15.439	890.462	665.179
270.439	15.705	889.513	665.468
271.453	15.678	888.712	664.703
272.468	15.663	887.648	663.788
273.482	15.625	887.280	663.302
274.497	15.618	886.699	662.782
275.512	15.763	885.846	662.660
276.526	15.628	885.430	661.757
277.541	15.562	884.856	661.012
278.555	15.847	883.956	661.400
279.570	15.749	883.341	660.495
280.585	15.787	882.969	660.307
281.599	15.908	882.206	660.153
282.614	15.771	881.918	659.342
283.628	15.897	880.629	658.811
284.643	15.820	880.575	658.415
285.657	15.776	880.057	657.798
286.672	15.877	879.569	657.768
287.687	15.872	878.952	657.229
288.701	16.051	878.350	657.419
289.716	15.976	877.711	656.590
290.730	15.926	877.233	655.981
291.745	15.898	876.755	655.455
292.760	15.908	875.829	654.745
293.774	15.967	875.548	654.704
294.789	15.992	874.745	654.144
295.803	15.980	874.279	653.691
296.818	15.875	873.227	652.438
297.833	15.995	872.774	652.507
298.847	16.131	871.736	652.202
299.862	15.880	871.616	651.081
300.876	15.938	870.704	650.566
301.891	16.044	869.678	650.153
302.906	16.150	869.156	650.112
303.920	16.349	868.518	650.345
304.935	16.072	867.964	648.808
305.949	16.162	867.374	648.654
306.964	16.150	866.794	648.115
307.979	16.212	866.030	647.727
308.993	16.252	865.501	647.425
310.008	16.191	864.988	646.752
311.022	16.436	864.385	647.181
312.037	16.294	864.109	646.376
313.052	16.319	863.408	645.888
314.066	16.219	862.803	644.996
315.081	16.398	862.039	645.051
316.095	16.380	861.354	644.414
317.110	16.448	860.833	644.227
318.125	16.300	860.306	643.212
319.139	16.358	859.954	643.112
320.154	16.123	860.121	642.284
321.168	16.401	858.513	642.085
322.183	16.315	858.318	641.555
323.197	16.248	858.058	641.049
324.212	16.406	857.336	641.053
325.227	16.402	856.442	640.309
326.241	16.335	855.914	639.608
327.256	16.400	855.469	639.465
328.270	16.418	854.631	638.847
329.285	16.385	854.313	638.429
330.300	16.248	854.182	637.758
331.314	16.526	853.094	637.936
332.329	16.502	852.649	637.459
333.343	16.541	851.730	636.863
334.358	16.551	851.309	636.529
335.373	16.440	850.934	635.772
336.387	16.612	850.201	635.815
337.402	16.563	849.880	635.334
338.416	16.645	849.197	635.078
339.431	16.424	848.722	633.835
340.446	16.684	848.143	634.323
341.460	16.745	847.625	634.108
342.475	16.712	847.390	633.751
343.489	16.613	846.777	632.865
344.504	16.729	845.834	632.539
345.519	16.797	845.413	632.420
346.533	16.796	845.012	632.061
347.548	16.820	844.407	631.644
348.562	16.799	843.800	631.054
349.577	16.786	843.224	630.520
350.592	16.645	842.780	629.608
351.606	16.685	842.274	629.324
352.621	16.797	841.691	629.247
353.635	16.912	841.253	629.290
354.650	16.917	841.103	629.144
355.665	16.814	840.582	628.314
356.679	16.816	840.083	627.895
357.694	16.870	839.570	627.655
358.708	16.890	838.851	627.136
359.723	16.924	838.276	626.777
360.738	16.897	837.778	626.246
361.752	16.993	837.054	626.007
362.767	17.006	836.792	625.802
363.781	17.059	836.269	625.551
364.796	16.976	835.883	624.902
365.810	17.108	835.277	624.880
366.825	17.213	834.872	624.907
367.840	17.068	835.068	624.466
368.854	17.106	834.544	624.158
369.869	17.162	833.525	623.547
370.883	17.111	833.439	623.241
371.898	17.191	832.353	622.666
372.913	17.295	831.478	622.336
373.927	17.248	831.303	621.980
374.942	17.336	830.377	621.553
375.956	17.326	830.028	621.198
376.971	17.256	829.574	620.551
377.986	17.224	828.841	619.827
379.000	17.400	828.636	620.261
380.015	17.309	827.954	619.365
381.029	17.240	827.461	618.690
382.044	17.477	826.382	618.692
383.059	17.486	826.266	618.583
384.073	17.351	825.646	617.573
385.088	17.330	825.394	617.254
386.102	17.473	824.694	617.193
387.117	17.297	824.537	616.383
388.132	17.471	823.721	616.351
389.146	17.448	823.241	615.851
390.161	17.260	823.415	615.250
391.175	17.334	822.916	615.086
392.190	17.576	822.058	615.268
393.205	17.645	821.431	614.994
394.219	17.602	820.936	614.410
395.234	17.625	820.675	614.247
396.248	17.451	820.310	613.290
397.263	17.530	819.691	613.056
398.278	17.527	819.204	612.627
399.292	17.680	818.663	612.720
400.307	17.529	818.365	611.900
401.321	17.501	817.839	611.352
402.336	17.609	817.458	611.401
403.350	17.485	817.332	610.806
404.365	17.616	816.889	610.892
405.380	17.637	815.999	610.246
406.394	17.702	815.741	610.233
407.409	17.839	815.239	610.293
408.423	17.790	815.070	609.937
409.438	17.744	814.588	609.360
410.453	17.805	813.978	609.067
411.467	17.862	813.442	608.817
412.482	17.926	812.871	608.560
413.496	17.851	812.487	607.952
414.511	17.955	812.148	608.018
415.526	17.913	811.822	607.568
416.540	17.879	811.555	607.194
417.555	17.871	810.957	606.663
418.569	17.966	810.282	606.442
419.584	17.987	810.013	606.262
420.599	17.888	809.887	605.763
421.613	115.932	1300.012	1494.094
422.628	100.325	1371.357	1494.156
