DTS Sentinel unit serial number:	SN413079Multiplexer serial number:	ORYXHardware model number:	OX4-SRSoftware version number:	ORYX F/W v4.00 Oryx Data Collector v3.7.2.0data status	okinstallation	princeton_trtdifferential loss correction	single-endedforward channel	channel 3reverse channel	N/Adate	2019/09/16time	00:24:34forward acquisition time	60.00reverse acquisition time	0.00gamma	496.2192k internal	0.2337k external	0.2337temperature offset calibration	0.9945default loss term (dB/km)	0.3790temperature slope calibration	1.0000multiplexer offset coefficient	1.0000multiplexer slope coefficient	1.0000fibre end	0.00T internal ref (°C)	27.62T ext. ref 1 (°C)	9.53T ext. ref 2 (°C)	21.59length (m)	temperature (°C)	Stokes	anti-Stokes-747.200	-9.934	0.158	-0.105
-746.185	377.307	-0.072	-0.149
-745.171	621.856	0.088	0.222
-744.156	-25.939	-0.326	0.193
-743.142	478.504	-0.049	0.112
-742.127	-12.463	-0.334	0.219
-741.112	-43.936	0.026	0.013
-740.098	800.000	0.099	0.279
-739.083	67.600	0.188	0.193
-738.069	-70.019	-0.219	-0.084
-737.054	800.000	-0.136	-0.395
-736.039	-96.559	-0.231	-0.061
-735.025	-74.614	0.163	-0.059
-734.010	-98.493	-0.132	-0.034
-732.996	151.396	-0.084	-0.115
-731.981	-37.758	-0.149	-0.080
-730.966	39.463	-0.297	-0.267
-729.952	18.518	0.161	-0.129
-728.937	-200.000	0.062	-0.348
-727.923	27.597	-0.291	0.245
-726.908	148.995	0.135	0.183
-725.894	559.151	-0.115	0.279
-724.879	-31.883	-0.234	0.132
-723.864	800.000	0.054	0.216
-722.850	98.706	-0.076	0.088
-721.835	129.501	0.132	0.169
-720.821	160.772	0.366	0.513
-719.806	-167.678	-0.022	-0.001
-718.791	-200.000	0.025	0.243
-717.777	17.124	0.070	-0.055
-716.762	-200.000	0.043	-0.566
-715.748	50.163	-0.085	0.080
-714.733	-71.457	-0.152	0.057
-713.718	-200.000	0.022	-0.182
-712.704	-52.185	-0.397	-0.184
-711.689	208.879	-0.252	-0.396
-710.675	14.521	0.266	0.208
-709.660	56.201	0.086	-0.084
-708.645	-2.248	0.175	0.123
-707.631	-200.000	-0.014	0.189
-706.616	147.647	0.123	-0.165
-705.602	461.178	0.095	0.213
-704.587	-151.152	-0.047	0.004
-703.572	800.000	0.083	-0.260
-702.558	-200.000	0.048	0.264
-701.543	-200.000	0.012	-0.065
-700.529	100.366	-0.040	-0.046
-699.514	-66.174	-0.128	-0.051
-698.499	-200.000	-0.021	-0.216
-697.485	-117.333	-0.116	0.021
-696.470	24.241	-0.096	0.079
-695.456	-137.872	0.367	-0.041
-694.441	-43.293	0.104	-0.053
-693.426	446.827	0.040	0.089
-692.412	-20.276	0.115	0.071
-691.397	32.316	-0.127	0.109
-690.383	551.761	0.157	0.378
-689.368	800.000	0.077	-0.262
-688.354	800.000	-0.122	-0.480
-687.339	800.000	0.080	-0.226
-686.324	-200.000	-0.066	-0.298
-685.310	-16.190	0.251	-0.160
-684.295	-58.732	0.384	0.166
-683.281	51.782	-0.155	0.148
-682.266	128.375	0.200	0.255
-681.251	-45.388	0.052	0.026
-680.237	17.314	-0.230	0.183
-679.222	800.000	-0.100	0.339
-678.208	-3.654	-0.207	0.144
-677.193	183.664	0.065	-0.096
-676.178	800.000	0.055	-0.213
-675.164	-62.177	-0.298	-0.124
-674.149	-144.467	-0.261	0.024
-673.135	146.728	0.093	0.126
-672.120	225.546	-0.073	-0.118
-671.105	466.653	0.067	-0.150
-670.091	-200.000	-0.003	0.200
-669.076	112.408	-0.231	0.280
-668.062	-85.664	-0.231	0.072
-667.047	-200.000	0.008	0.093
-666.032	29.449	0.183	-0.156
-665.018	-86.597	0.131	0.040
-664.003	165.738	-0.152	0.215
-662.989	165.841	0.150	0.213
-661.974	35.505	-0.170	-0.149
-660.959	59.842	0.259	-0.256
-659.945	800.000	0.058	-0.231
-658.930	-171.929	0.219	0.007
-657.916	-200.000	0.010	-0.199
-656.901	800.000	0.064	-0.200
-655.886	-200.000	-0.062	0.278
-654.872	112.401	0.130	-0.157
-653.857	-200.000	-0.037	0.180
-652.843	107.245	-0.135	-0.160
-651.828	-71.146	-0.177	0.066
-650.814	413.396	0.084	-0.179
-649.799	3.387	0.250	-0.182
-648.784	-131.557	0.101	0.013
-647.770	35.388	-0.157	-0.137
-646.755	390.833	0.046	-0.095
-645.741	-181.298	-0.338	-0.007
-644.726	-200.000	0.041	0.269
-643.711	-38.072	0.077	0.041
-642.697	526.974	0.074	-0.175
-641.682	-40.366	0.067	0.035
-640.668	-18.939	-0.167	-0.104
-639.653	-200.000	0.036	0.156
-638.638	-87.283	-0.412	0.125
-637.624	91.526	0.225	0.252
-636.609	486.298	0.064	-0.146
-635.595	-200.000	-0.035	-0.227
-634.580	471.783	0.116	0.261
-633.565	16.715	-0.143	0.113
-632.551	17.637	0.156	-0.124
-631.536	-114.231	-0.431	-0.083
-630.522	-123.964	-0.345	-0.054
-629.507	-71.120	-0.456	0.171
-628.492	-1.898	0.165	0.116
-627.478	-200.000	0.032	-0.201
-626.463	-200.000	0.035	0.321
-625.449	6.994	0.134	-0.100
-624.434	451.272	0.147	0.325
-623.419	169.263	0.352	0.502
-622.405	125.173	-0.085	0.107
-621.390	379.886	-0.113	0.231
-620.376	388.977	-0.210	0.434
-619.361	800.000	-0.016	-0.048
-618.346	-118.970	-0.332	0.058
-617.332	-107.702	-0.107	-0.023
-616.317	-135.000	-0.244	-0.029
-615.303	20.845	-0.227	-0.183
-614.288	-200.000	-0.009	-0.065
-613.273	-110.153	-0.236	0.049
-612.259	800.000	-0.063	-0.178
-611.244	-86.627	-0.189	-0.058
-610.230	22.930	0.311	0.255
-609.215	-200.000	0.021	-0.103
-608.201	46.249	-0.136	-0.126
-607.186	-132.154	-0.294	-0.038
-606.171	263.787	0.186	0.323
-605.157	-24.702	0.158	-0.094
-604.142	-122.459	0.068	-0.011
-603.128	89.298	-0.047	0.052
-602.113	-200.000	-0.025	-0.276
-601.098	-37.824	0.232	-0.123
-600.084	-200.000	-0.057	-0.376
-599.069	-142.525	0.070	-0.007
-598.055	800.000	-0.079	0.318
-597.040	197.230	0.292	0.444
-596.025	-200.000	0.028	-0.186
-595.011	-76.997	0.292	0.102
-593.996	34.100	-0.195	0.170
-592.982	368.499	-0.178	0.359
-591.967	-200.000	-0.010	0.179
-590.952	254.056	0.113	0.193
-589.938	-123.452	-0.232	0.037
-588.923	248.489	-0.240	0.406
-587.909	138.216	0.132	-0.172
-586.894	197.485	0.122	-0.186
-585.879	-90.093	0.244	0.071
-584.865	376.204	0.047	-0.095
-583.850	184.775	0.040	-0.058
-582.836	-7.280	-0.116	-0.078
-581.821	118.201	0.159	-0.196
-580.806	-72.351	-0.262	0.097
-579.792	-121.422	0.092	-0.015
-578.777	314.065	0.159	-0.298
-577.763	58.710	-0.084	0.082
-576.748	-67.324	-0.295	0.116
-575.733	-169.130	0.196	0.007
-574.719	-96.434	0.152	-0.040
-573.704	-27.474	0.070	-0.041
-572.690	4.442	0.146	-0.107
-571.675	-200.000	0.042	0.196
-570.661	-200.000	-0.014	0.238
-569.646	160.366	-0.114	0.159
-568.631	-127.834	0.094	-0.013
-567.617	153.092	0.150	0.205
-566.602	-138.084	-0.104	-0.012
-565.588	800.000	0.027	-0.093
-564.573	180.986	-0.114	0.166
-563.558	170.830	0.066	-0.095
-562.544	-200.000	-0.052	0.368
-561.529	800.000	-0.125	0.425
-560.515	-183.934	0.477	-0.008
-559.500	-200.000	-0.023	0.495
-558.485	123.006	-0.135	0.168
-557.471	55.729	0.144	0.139
-556.456	193.048	0.124	0.187
-555.442	-127.269	0.370	-0.054
-554.427	-200.000	-0.001	-0.102
-553.412	-33.015	-0.265	0.146
-552.398	-71.313	-0.199	0.074
-551.383	800.000	0.061	0.225
-550.369	16.446	0.030	0.024
-549.354	71.721	0.146	-0.151
-548.339	-118.524	0.082	0.014
-547.325	-46.309	0.096	0.047
-546.310	260.241	-0.218	-0.375
-545.296	800.000	-0.151	-0.439
-544.281	-104.929	0.295	-0.067
-543.266	-200.000	-0.020	0.117
-542.252	-200.000	0.015	-0.218
-541.237	-157.295	-0.310	-0.019
-540.223	9.636	-0.142	0.107
-539.208	255.512	0.153	-0.260
-538.193	164.429	0.149	-0.210
-537.179	-91.086	-0.276	-0.079
-536.164	-97.256	-0.277	0.072
-535.150	-113.679	0.228	-0.044
-534.135	-200.000	-0.083	-0.383
-533.121	-195.408	0.342	-0.003
-532.106	800.000	-0.034	0.095
-531.091	-68.041	-0.366	-0.142
-530.077	-117.061	0.297	0.054
-529.062	-85.247	-0.083	-0.026
-528.048	11.691	0.424	-0.324
-527.033	167.933	-0.124	0.175
-526.018	-61.487	-0.269	-0.112
-525.004	-51.410	-0.144	0.067
-523.989	119.623	-0.061	-0.076
-522.975	-200.000	-0.007	0.266
-521.960	166.495	0.097	0.136
-520.945	-155.932	-0.117	-0.007
-519.931	-200.000	0.014	-0.075
-518.916	-124.761	-0.128	0.020
-517.902	-170.704	0.181	-0.006
-516.887	-36.050	0.204	0.110
-515.872	800.000	0.076	0.248
-514.858	-200.000	-0.001	0.113
-513.843	33.978	0.228	0.197
-512.829	800.000	0.104	-0.287
-511.814	77.587	0.168	0.178
-510.799	264.568	-0.156	0.270
-509.785	-58.394	-0.146	0.063
-508.770	-200.000	0.015	0.084
-507.756	403.118	0.011	-0.024
-506.741	-91.114	0.318	-0.091
-505.726	-155.198	0.117	0.008
-504.712	111.744	0.073	0.088
-503.697	230.763	0.053	0.086
-502.683	67.029	-0.221	-0.224
-501.668	4.997	0.250	-0.183
-500.653	87.609	-0.126	0.138
-499.639	800.000	0.055	0.199
-498.624	-4.976	-0.355	-0.243
-497.610	-200.000	-0.019	-0.174
-496.595	-41.339	0.408	0.209
-495.581	8.943	0.258	0.194
-494.566	-78.566	-0.270	-0.092
-493.551	-44.206	0.216	0.108
-492.537	34.947	0.132	-0.114
-491.522	-132.030	-0.122	0.016
-490.508	239.095	0.104	-0.171
-489.493	-114.342	-0.270	0.052
-488.478	-87.608	-0.117	0.035
-487.464	174.609	-0.103	0.147
-486.449	-200.000	-0.012	-0.312
-485.435	151.821	-0.174	0.236
-484.420	-200.000	0.019	0.232
-483.405	-24.186	0.184	-0.109
-482.391	-143.992	0.232	-0.022
-481.376	178.116	0.236	0.343
-480.362	-196.357	0.153	0.001
-479.347	244.597	-0.143	-0.239
-478.332	-37.554	0.124	0.066
-477.318	290.519	-0.051	-0.092
-476.303	-72.938	0.130	-0.048
-475.289	800.000	0.012	0.037
-474.274	41.724	-0.047	-0.042
-473.259	-136.244	-0.142	-0.016
-472.245	-60.948	0.141	-0.059
-471.230	-115.854	0.355	-0.066
-470.216	-125.107	-0.184	0.028
-469.201	-7.532	0.177	0.119
-468.186	-58.567	0.114	0.049
-467.172	-142.906	0.092	-0.009
-466.157	-200.000	0.037	-0.514
-465.143	39.355	-0.073	-0.065
-464.128	170.665	-0.031	-0.044
-463.113	35.007	-0.197	0.171
-462.099	48.634	-0.319	-0.297
-461.084	650.246	0.045	-0.114
-460.070	3.214	0.224	-0.162
-459.055	-200.000	0.087	-0.421
-458.040	353.755	0.070	-0.138
-457.026	-118.997	-0.158	-0.027
-456.011	-55.884	-0.236	-0.105
-454.997	79.585	0.049	-0.052
-453.982	19.169	-0.225	-0.179
-452.968	213.555	-0.059	0.092
-451.953	81.103	0.448	-0.480
-450.938	-48.631	-0.264	0.126
-449.924	-139.492	0.214	-0.023
-448.909	178.654	-0.189	0.274
-447.895	266.567	0.170	0.294
-446.880	561.181	-0.126	-0.302
-445.865	9.118	0.242	-0.181
-444.851	-152.564	-0.274	0.019
-443.836	-200.000	0.009	-0.044
-442.822	-200.000	0.009	-0.313
-441.807	52.330	0.461	-0.436
-440.792	800.000	0.037	-0.129
-439.778	800.000	0.174	-0.610
-438.763	305.528	-0.051	0.094
-437.749	-38.891	0.358	0.187
-436.734	434.314	0.073	0.157
-435.719	-97.509	-0.114	0.029
-434.705	-41.243	-0.258	-0.132
-433.690	214.712	0.192	0.301
-432.676	-200.000	0.132	0.001
-431.661	63.745	-0.202	0.201
-430.646	-147.112	-0.054	-0.005
-429.632	42.517	0.246	0.222
-428.617	73.439	-0.112	-0.116
-427.603	349.457	0.209	0.409
-426.588	-125.645	0.211	0.032
-425.573	-162.590	0.243	-0.012
-424.559	106.198	-0.087	0.102
-423.544	-50.883	0.105	-0.049
-422.530	90.300	-0.183	-0.203
-421.515	426.271	0.033	0.070
-420.500	218.984	0.157	-0.249
-419.486	242.629	-0.064	0.106
-418.471	-115.713	0.244	0.045
-417.457	-55.709	0.153	-0.068
-416.442	-33.553	-0.244	0.133
-415.428	161.897	-0.110	0.153
-414.413	800.000	-0.024	-0.096
-413.398	-93.090	-0.257	0.071
-412.384	269.832	0.091	-0.158
-411.369	-86.789	-0.169	-0.051
-410.355	-200.000	-0.008	0.096
-409.340	0.192	0.096	0.068
-408.325	-19.508	-0.191	0.117
-407.311	140.091	0.040	0.052
-406.296	800.000	-0.027	-0.082
-405.282	-172.428	0.127	0.004
-404.267	-119.306	-0.472	-0.081
-403.252	-69.364	0.100	-0.038
-402.238	-200.000	-0.050	-0.252
-401.223	-22.393	0.166	-0.100
-400.209	-200.000	0.015	0.095
-399.194	13.891	0.216	-0.167
-398.179	-53.348	0.346	-0.157
-397.165	-200.000	0.004	0.153
-396.150	-168.220	-0.178	-0.007
-395.136	800.000	-0.116	-0.321
-394.121	-90.116	-0.122	0.035
-393.106	-55.126	-0.108	-0.048
-392.092	410.581	0.094	-0.198
-391.077	154.444	-0.159	-0.216
-390.063	110.443	-0.180	0.214
-389.048	-200.000	-0.024	0.338
-388.033	-41.903	-0.279	-0.142
-387.019	169.317	-0.134	0.190
-386.004	277.989	-0.045	0.079
-384.990	87.475	-0.051	0.055
-383.975	-155.031	0.276	-0.018
-382.960	800.000	-0.037	-0.133
-381.946	-148.659	0.120	0.010
-380.931	91.170	0.177	-0.196
-379.917	-37.064	-0.371	0.196
-378.902	-21.917	0.075	0.045
-377.888	-148.108	-0.172	0.014
-376.873	-137.081	0.186	0.021
-375.858	196.764	0.036	0.054
-374.844	-145.985	0.146	0.013
-373.829	-200.000	0.066	-0.327
-372.815	265.976	-0.052	-0.090
-371.800	38.460	-0.063	-0.056
-370.785	38.757	0.481	-0.425
-369.771	2.316	0.072	-0.052
-368.756	429.513	-0.143	0.306
-367.742	-21.185	0.107	0.065
-366.727	-46.227	0.047	-0.023
-365.712	-15.167	-0.311	-0.197
-364.698	-152.401	0.092	-0.007
-363.683	-107.482	0.291	-0.063
-362.669	-119.181	-0.176	-0.030
-361.654	-97.668	0.050	-0.013
-360.639	275.834	-0.083	-0.145
-359.625	-200.000	0.008	-0.370
-358.610	-49.112	-0.242	0.114
-357.596	800.000	0.135	-0.485
-356.581	-200.000	0.006	0.266
-355.566	200.939	0.035	0.053
-354.552	280.192	-0.172	0.304
-353.537	-42.043	-0.092	-0.047
-352.523	-200.000	-0.053	0.346
-351.508	-91.318	-0.078	0.022
-350.493	800.000	0.048	0.138
-349.479	-144.897	0.126	-0.011
-348.464	-127.478	-0.307	0.044
-347.450	-193.546	0.209	-0.002
-346.435	26.803	0.243	0.202
-345.420	41.484	0.196	0.175
-344.406	477.426	0.055	-0.123
-343.391	800.000	-0.156	-0.504
-342.377	34.418	0.158	-0.136
-341.362	-141.717	-0.252	-0.025
-340.348	206.448	-0.146	-0.225
-339.333	29.095	0.256	0.215
-338.318	89.552	-0.107	0.118
-337.304	-200.000	-0.089	0.396
-336.289	-150.028	0.164	0.013
-335.275	-104.340	-0.184	-0.042
-334.260	-36.931	0.277	-0.147
-333.245	64.469	-0.205	-0.204
-332.231	775.004	-0.087	-0.234
-331.216	-93.283	0.087	-0.024
-330.202	58.376	0.196	0.190
-329.187	610.271	-0.081	0.200
-328.172	-89.489	-0.401	-0.116
-327.158	-200.000	0.002	-0.094
-326.143	-123.576	0.166	-0.026
-325.129	-200.000	0.023	-0.154
-324.114	-200.000	0.032	0.202
-323.099	163.160	0.035	-0.049
-322.085	800.000	-0.015	-0.062
-321.070	-142.577	-0.054	-0.005
-320.056	135.582	0.221	0.284
-319.041	18.284	-0.245	0.193
-318.026	-67.008	-0.054	0.021
-317.012	-200.000	-0.047	-0.215
-315.997	-200.000	-0.010	0.106
-314.983	454.604	0.145	-0.318
-313.968	65.362	0.128	0.128
-312.953	491.682	-0.213	0.482
-311.939	50.918	0.115	0.108
-310.924	-200.000	-0.016	-0.115
-309.910	472.298	0.052	0.114
-308.895	-200.000	0.004	0.131
-307.880	-200.000	-0.020	0.290
-306.866	338.487	0.091	0.175
-305.851	176.901	0.087	-0.125
-304.837	800.000	0.100	-0.354
-303.822	-100.126	0.171	0.042
-302.807	-89.176	0.224	-0.065
-301.793	800.000	-0.016	-0.062
-300.778	32.543	-0.029	0.024
-299.764	-106.684	0.158	0.035
-298.749	-88.702	0.305	-0.090
-297.735	152.576	-0.177	-0.239
-296.720	105.591	0.224	-0.261
-295.705	54.359	-0.158	0.150
-294.691	-48.998	0.201	0.095
-293.676	595.848	-0.084	-0.205
-292.662	-200.000	0.032	0.326
-291.647	-11.969	-0.066	0.042
-290.632	800.000	0.023	0.077
-289.618	306.751	0.066	-0.121
-288.603	-140.239	0.148	0.015
-287.589	250.960	-0.091	0.153
-286.574	-59.304	-0.149	-0.063
-285.559	69.023	-0.199	-0.201
-284.545	179.589	0.115	-0.165
-283.530	-4.808	-0.456	-0.310
-282.516	800.000	-0.039	-0.139
-281.501	-116.078	-0.301	-0.055
-280.486	-85.836	-0.166	-0.051
-279.472	50.591	-0.115	0.108
-278.457	-200.000	0.001	0.147
-277.443	-90.453	0.116	0.033
-276.428	800.000	0.092	0.272
-275.413	-65.697	0.288	-0.114
-274.399	13.685	-0.188	0.144
-273.384	641.387	0.053	-0.134
-272.370	-200.000	-0.023	-0.145
-271.355	333.678	-0.186	-0.354
-270.340	-200.000	-0.027	-0.178
-269.326	-169.817	0.222	0.008
-268.311	-138.097	-0.065	0.007
-267.297	-145.272	-0.145	0.013
-266.282	208.410	0.147	0.226
-265.267	-40.707	0.117	-0.060
-264.253	47.285	0.085	0.078
-263.238	-200.000	-0.058	0.324
-262.224	-200.000	-0.007	0.100
-261.209	-200.000	0.021	-0.326
-260.195	12.395	0.416	0.316
-259.180	-96.352	-0.102	-0.027
-258.165	35.264	0.212	0.183
-257.151	-185.548	-0.238	-0.004
-256.136	40.676	0.267	-0.237
-255.122	376.361	0.125	-0.251
-254.107	-37.184	-0.231	-0.122
-253.092	89.154	0.162	-0.178
-252.078	-200.000	0.032	0.342
-251.063	76.650	0.066	0.069
-250.049	800.000	-0.037	-0.118
-249.034	54.354	-0.335	-0.318
-248.019	-29.248	0.193	0.109
-247.005	-19.086	-0.219	-0.134
-245.990	-200.000	0.022	-0.120
-244.976	-158.072	-0.575	0.033
-243.961	-122.045	-0.449	0.073
-242.946	-118.991	-0.108	0.019
-241.932	43.469	-0.048	-0.043
-240.917	-11.750	-0.457	0.295
-239.903	-80.736	-0.116	-0.038
-238.888	56.256	-0.072	0.069
-237.873	-41.871	0.160	0.081
-236.859	-200.000	0.024	0.103
-235.844	-46.514	0.221	-0.107
-234.830	106.311	-0.240	-0.280
-233.815	-109.007	0.118	0.025
-232.800	-200.000	0.033	-0.418
-231.786	800.000	0.011	0.040
-230.771	800.000	0.036	0.153
-229.757	-59.579	-0.251	0.106
-228.742	-200.000	-0.018	0.188
-227.727	-200.000	0.013	0.077
-226.713	-200.000	0.039	-0.203
-225.698	-166.274	0.139	0.006
-224.684	-70.210	-0.246	-0.092
-223.669	611.438	-0.224	-0.550
-222.655	451.380	0.050	0.109
-221.640	-200.000	0.001	0.238
-220.625	-143.655	-0.118	-0.011
-219.611	800.000	0.020	-0.074
-218.596	-31.930	0.071	0.039
-217.582	-157.267	0.306	-0.018
-216.567	-147.210	0.276	0.023
-215.552	122.835	0.127	-0.156
-214.538	102.478	-0.101	-0.116
-213.523	-141.754	0.374	0.037
-212.509	800.000	-0.148	0.416
-211.494	205.929	-0.071	0.108
-210.479	-200.000	-0.024	0.258
-209.465	33.411	0.016	-0.013
-208.450	-131.515	0.213	0.028
-207.436	-59.666	-0.215	0.091
-206.421	-0.174	-0.244	0.171
-205.406	7.168	-0.194	0.143
-204.392	135.165	-0.149	0.190
-203.377	-141.399	-0.341	-0.034
-202.363	591.804	0.080	0.194
-201.348	-107.169	-0.203	-0.044
-200.333	-65.564	0.197	-0.078
-199.319	389.548	0.071	0.144
-198.304	-200.000	-0.008	-0.039
-197.290	-58.323	0.344	0.147
-196.275	248.728	-0.188	-0.312
-195.260	-200.000	-0.055	0.291
-194.246	379.147	-0.207	-0.416
-193.231	-4.626	-0.133	-0.090
-192.217	-200.000	0.012	-0.107
-191.202	-200.000	0.035	0.197
-190.187	-148.041	0.404	0.033
-189.173	-66.438	0.138	0.054
-188.158	381.608	-0.097	0.195
-187.144	-169.414	0.091	-0.003
-186.129	-155.047	0.258	-0.017
-185.114	-200.000	-0.018	-0.242
-184.100	-87.923	0.293	0.086
-183.085	184.738	-0.113	-0.165
-182.071	800.000	-0.037	0.142
-181.056	-179.173	0.291	0.006
-180.042	-110.962	-0.222	-0.045
-179.027	-134.047	0.107	-0.013
-178.012	800.000	-0.020	0.082
-176.998	119.803	-0.231	-0.281
-175.983	-200.000	0.017	-0.098
-174.969	800.000	0.032	-0.135
-173.954	-153.142	0.095	0.007
-172.939	-6.757	0.267	0.178
-171.925	199.151	-0.083	0.125
-170.910	181.291	0.172	0.248
-169.896	-200.000	-0.014	-0.096
-168.881	38.568	-0.022	0.019
-167.866	800.000	0.052	-0.208
-166.852	727.169	-0.026	0.068
-165.837	-31.087	-0.141	0.078
-164.823	-107.671	-0.200	0.043
-163.808	-142.364	0.120	0.012
-162.793	800.000	-0.002	0.009
-161.779	-200.000	0.004	0.055
-160.764	120.988	0.047	-0.057
-159.750	-200.000	-0.019	0.209
-158.735	261.309	-0.160	-0.272
-157.720	-200.000	-0.028	-0.164
-156.706	-184.323	-0.267	0.004
-155.691	-42.986	-0.236	0.117
-154.677	800.000	-0.055	-0.157
-153.662	83.686	-0.299	-0.320
-152.647	-200.000	-0.006	0.193
-151.633	-200.000	-0.001	-0.074
-150.618	-82.123	-0.303	0.097
-149.604	21.937	-0.291	0.233
-148.589	-200.000	0.015	-0.088
-147.574	17.964	-0.270	0.211
-146.560	-157.993	-0.100	0.006
-145.545	249.719	-0.171	0.285
-144.531	-157.946	-0.128	0.007
-143.516	108.781	0.051	0.059
-142.502	233.514	0.151	0.244
-141.487	-200.000	0.002	-0.082
-140.472	-78.231	0.151	-0.051
-139.458	-88.053	-0.037	0.011
-138.443	168.914	0.117	0.163
-137.429	-107.406	0.248	-0.053
-136.414	60.445	-0.098	-0.095
-135.399	-200.000	0.013	0.127
-134.385	168.226	0.037	-0.052
-133.370	391.814	0.050	-0.102
-132.356	-13.360	0.268	-0.171
-131.341	-109.472	-0.182	0.038
-130.326	181.823	0.080	0.116
-129.312	-79.392	0.121	0.040
-128.297	-117.983	-0.334	-0.059
-127.283	-200.000	-0.024	0.259
-126.268	640.041	0.044	0.109
-125.253	-60.730	-0.118	0.049
-124.239	-63.692	-0.257	0.103
-123.224	-48.574	-0.188	0.089
-122.210	800.000	0.015	-0.064
-121.195	-78.591	-0.227	-0.076
-120.180	-62.260	0.258	0.105
-119.166	800.000	0.046	-0.131
-118.151	148.435	0.149	0.197
-117.137	-64.908	-0.312	-0.124
-116.122	-110.153	0.316	-0.065
-115.107	-109.862	-0.224	-0.046
-114.093	-200.000	0.006	-0.163
-113.078	800.000	0.011	-0.038
-112.064	-17.635	0.108	0.067
-111.049	800.000	-0.069	0.257
-110.034	245.103	0.107	-0.176
-109.020	-42.246	0.264	0.132
-108.005	70.962	0.016	-0.016
-106.991	194.176	0.184	0.273
-105.976	-200.000	-0.059	0.503
-104.962	-200.000	-0.024	-0.108
-103.947	-200.000	0.022	0.218
-102.932	31.406	0.092	0.077
-101.918	-152.429	0.262	0.018
-100.903	800.000	0.055	0.217
-99.889	285.215	-0.087	-0.153
-98.874	800.000	0.041	-0.129
-97.859	1.018	-0.081	-0.057
-96.845	12.865	-0.367	-0.278
-95.830	97.963	0.142	-0.160
-94.816	-60.265	0.285	0.119
-93.801	645.533	-0.102	0.254
-92.786	-200.000	0.003	0.153
-91.772	550.714	0.039	0.092
-90.757	-28.780	-0.179	-0.101
-89.743	16.484	0.047	-0.036
-88.728	-200.000	0.057	0.320
-87.713	145.588	-0.078	0.102
-86.699	279.975	-0.196	0.342
-85.684	265.961	0.072	0.123
-84.670	43.201	0.147	0.132
-83.655	-7.796	0.175	-0.116
-82.640	-200.000	0.014	-0.158
-81.626	-200.000	0.005	0.128
-80.611	800.000	-0.046	0.189
-79.597	-200.000	0.021	-0.171
-78.582	-146.144	0.255	-0.022
-77.567	800.000	-0.034	-0.099
-76.553	-105.861	0.194	0.043
-75.538	-37.646	0.172	-0.090
-74.524	-200.000	-0.057	0.580
-73.509	6.565	-0.183	0.133
-72.494	-200.000	0.024	0.303
-71.480	-127.653	-0.057	-0.008
-70.465	134.237	-0.315	0.399
-69.451	-70.944	0.270	0.099
-68.436	-157.634	0.175	0.010
-67.422	34.981	0.168	0.144
-66.407	316.420	0.066	0.122
-65.392	663.454	0.158	0.398
-64.378	-43.596	-0.261	0.129
-63.363	-125.730	-0.324	-0.048
-62.349	-148.220	0.430	0.035
-61.334	41.346	-1.067	-0.943
-60.319	-15.980	0.712	0.443
-59.305	222.769	-0.479	-0.754
-58.290	364.279	0.464	0.912
-57.276	800.000	0.441	1.559
-56.261	-200.000	112.662	643.257
-55.246	485.935	1490.341	3318.146
-54.232	151.262	2651.511	3525.440
-53.217	103.441	2159.663	2475.194
-52.203	37.870	1693.076	1469.728
-51.188	30.739	1511.145	1263.545
-50.173	28.444	1487.640	1228.482
-49.159	52.142	1544.410	1437.712
-48.144	51.118	1560.476	1445.628
-47.130	30.966	1517.529	1270.227
-46.115	27.913	1501.981	1236.534
-45.100	27.747	1498.809	1232.754
-44.086	27.717	1496.566	1230.653
-43.071	27.556	1495.478	1228.626
-42.057	27.615	1493.010	1226.948
-41.042	27.487	1492.042	1225.239
-40.027	27.615	1490.300	1224.622
-39.013	27.608	1488.708	1223.219
-37.998	27.487	1488.247	1221.979
-36.984	27.548	1486.773	1221.129
-35.969	27.662	1485.058	1220.435
-34.954	27.553	1484.007	1218.797
-33.940	27.602	1482.474	1217.818
-32.925	27.680	1480.711	1216.837
-31.911	27.662	1479.747	1215.877
-30.896	27.683	1478.275	1214.762
-29.881	27.694	1477.120	1213.834
-28.867	27.677	1475.953	1212.714
-27.852	27.696	1474.608	1211.690
-26.838	27.693	1473.023	1210.318
-25.823	27.702	1471.450	1209.037
-24.809	27.605	1470.036	1207.183
-23.794	27.670	1468.732	1206.499
-22.779	27.716	1467.287	1205.568
-21.765	27.618	1466.776	1204.449
-20.750	27.707	1465.536	1203.976
-19.736	27.639	1464.347	1202.499
-18.721	27.633	1463.267	1201.524
-17.706	27.487	1462.553	1199.933
-16.692	27.558	1461.246	1199.276
-15.677	27.615	1460.478	1198.973
-14.663	27.679	1459.013	1198.142
-13.648	27.614	1458.158	1196.969
-12.633	27.661	1457.290	1196.515
-11.619	27.640	1456.545	1195.718
-10.604	27.601	1456.125	1195.074
-9.590	27.642	1454.974	1194.345
-8.575	27.708	1454.176	1194.076
-7.560	27.586	1453.277	1192.496
-6.546	27.571	1452.467	1191.681
-5.531	27.595	1451.484	1190.989
-4.517	27.635	1450.178	1190.126
-3.502	27.538	1449.576	1188.957
-2.487	27.625	1448.572	1188.652
-1.473	27.641	1447.192	1187.573
-0.458	27.662	1445.518	1186.293
0.556	25.906	1435.883	1175.249
1.571	22.671	1411.705	1134.579
2.586	19.331	1350.433	1064.648
3.600	17.710	1268.271	990.379
4.615	16.508	1223.513	948.605
5.629	15.849	1170.739	904.065
6.644	12.723	1095.098	829.852
7.659	9.902	1061.596	790.598
8.673	9.661	1055.739	784.993
9.688	9.553	1052.702	782.140
10.702	9.415	1051.006	780.142
11.717	9.502	1048.867	778.907
12.731	10.620	1048.880	784.251
13.746	13.845	1052.882	802.798
14.761	16.854	1056.434	820.014
15.775	17.632	1056.549	823.791
16.790	16.898	1054.493	818.575
17.804	15.809	1052.495	811.699
18.819	14.994	1050.562	806.213
19.834	14.303	1049.387	801.912
20.848	14.010	1048.316	799.614
21.863	13.808	1047.714	798.115
22.877	13.656	1046.459	796.359
23.892	13.561	1045.552	795.142
24.907	13.410	1044.819	793.789
25.921	13.314	1044.602	793.092
26.936	13.418	1043.605	792.762
27.950	13.415	1042.965	792.194
28.965	13.519	1041.326	791.373
29.980	13.635	1040.109	790.932
30.994	13.749	1038.476	790.163
32.009	13.696	1038.197	789.630
33.023	13.716	1037.507	789.130
34.038	13.617	1036.909	788.134
35.053	13.786	1035.319	787.660
36.067	13.602	1034.679	786.228
37.082	13.597	1033.718	785.405
38.096	13.473	1033.254	784.398
39.111	13.569	1032.087	783.898
40.126	13.582	1031.303	783.295
41.140	13.344	1030.849	781.753
42.155	13.449	1029.255	780.970
43.169	13.343	1028.795	780.053
44.184	13.414	1027.108	779.041
45.199	13.455	1026.023	778.339
46.213	13.422	1025.007	777.345
47.228	13.489	1024.277	777.039
48.242	13.450	1023.335	776.070
49.257	13.533	1022.482	775.743
50.271	13.467	1021.540	774.654
51.286	13.530	1020.650	774.204
52.301	13.542	1019.958	773.667
53.315	13.604	1018.559	772.825
54.330	13.549	1017.909	772.009
55.344	13.442	1017.314	770.988
56.359	13.590	1016.224	770.784
57.374	13.456	1015.396	769.464
58.388	13.450	1014.518	768.704
59.403	13.404	1013.707	767.809
60.417	13.252	1013.320	766.741
61.432	13.472	1012.095	766.767
62.447	13.410	1011.583	766.024
63.461	13.414	1010.484	765.144
64.476	13.282	1009.637	763.821
65.490	13.312	1008.806	763.265
66.505	13.265	1008.136	762.475
67.520	13.350	1007.065	761.990
68.534	13.434	1005.817	761.363
69.549	13.316	1005.586	760.579
70.563	13.407	1004.766	760.310
71.578	13.411	1004.173	759.811
72.593	13.244	1003.354	758.357
73.607	13.282	1002.041	757.472
74.622	13.090	1001.417	756.056
75.636	13.261	1000.802	756.308
76.651	13.241	999.755	755.358
77.666	13.262	998.640	754.545
78.680	13.193	998.368	753.958
79.695	13.191	998.123	753.693
80.709	13.250	997.247	753.234
81.724	13.459	996.199	753.329
82.739	13.429	995.399	752.521
83.753	13.508	994.987	752.499
84.768	13.567	994.334	752.209
85.782	13.577	993.606	751.636
86.797	13.666	993.013	751.525
87.812	13.581	992.331	750.557
88.826	13.448	991.319	749.126
89.841	13.464	990.609	748.594
90.855	13.586	989.603	748.317
91.870	13.710	988.473	747.956
92.884	13.653	988.216	747.439
93.899	13.629	987.435	746.674
94.914	13.463	987.010	745.538
95.928	13.763	985.655	745.798
96.943	13.701	985.066	745.010
97.957	13.664	983.984	743.959
98.972	13.668	983.696	743.695
99.987	13.568	982.641	742.383
101.001	13.571	981.918	741.782
102.016	13.742	981.072	741.842
103.030	13.517	980.479	740.323
104.045	13.716	979.017	740.041
105.060	13.679	978.329	739.292
106.074	13.607	977.517	738.294
107.089	13.465	976.515	736.839
108.103	13.359	975.827	735.784
109.118	13.413	974.416	734.891
110.133	13.486	973.327	734.331
111.147	13.351	973.259	733.616
112.162	13.408	972.170	732.983
113.176	13.384	971.724	732.476
114.191	13.473	970.777	732.090
115.206	13.595	969.447	731.560
116.220	13.460	969.125	730.656
117.235	13.535	968.326	730.320
118.249	13.433	967.513	729.193
119.264	13.485	966.406	728.526
120.279	13.408	966.011	727.821
121.293	13.443	965.144	727.257
122.308	13.399	964.433	726.467
123.322	13.271	963.461	725.109
124.337	13.341	962.310	724.482
125.352	13.230	961.515	723.338
126.366	13.405	960.133	722.996
127.381	13.360	959.417	722.199
128.395	13.343	958.385	721.284
129.410	13.471	956.851	720.622
130.424	13.430	956.175	719.870
131.439	13.158	955.938	718.446
132.454	13.492	954.717	718.915
133.468	13.439	954.284	718.296
134.483	13.522	953.202	717.777
135.497	13.381	952.797	716.799
136.512	13.381	952.001	716.134
137.527	13.471	951.266	715.908
138.541	13.599	950.175	715.577
139.556	13.579	949.498	714.916
140.570	13.552	948.697	714.132
141.585	13.494	948.009	713.304
142.600	13.651	947.621	713.626
143.614	13.787	946.830	713.550
144.629	13.666	946.236	712.519
145.643	13.713	945.224	711.897
146.658	13.671	944.437	711.060
147.673	13.659	943.464	710.212
148.687	13.558	942.607	709.071
149.702	13.541	941.783	708.319
150.716	13.584	940.990	707.843
151.731	13.548	940.019	706.895
152.746	13.529	939.361	706.257
153.760	13.664	938.353	706.013
154.775	13.575	937.912	705.241
155.789	13.676	937.014	704.929
156.804	13.753	936.188	704.573
157.819	13.625	935.831	703.701
158.833	13.613	935.416	703.275
159.848	13.799	934.561	703.359
160.862	13.779	933.614	702.497
161.877	13.835	932.945	702.171
162.892	13.777	932.094	701.221
163.906	13.545	930.988	699.347
164.921	13.585	930.732	699.264
165.935	13.628	929.256	698.273
166.950	13.666	928.204	697.582
167.964	13.702	927.538	697.171
168.979	13.772	926.381	696.532
169.994	13.805	925.678	696.080
171.008	13.700	924.958	695.038
172.023	13.842	924.065	694.900
173.037	13.838	923.400	694.321
174.052	13.912	922.809	694.124
175.067	13.908	921.670	693.189
176.081	13.714	921.237	691.995
177.096	13.596	920.519	690.902
178.110	13.697	919.870	690.772
179.125	13.798	918.874	690.386
180.140	13.783	917.657	689.346
181.154	13.957	916.994	689.508
182.169	13.831	916.918	688.869
183.183	13.923	916.330	688.748
184.198	13.864	915.511	687.826
185.213	13.973	914.478	687.439
186.227	13.974	914.223	687.192
187.242	14.007	913.736	686.903
188.256	13.908	913.118	685.967
189.271	14.054	912.455	686.013
190.286	14.157	911.530	685.679
191.300	13.984	910.590	684.199
192.315	13.981	909.673	683.438
193.329	13.771	909.347	682.270
194.344	13.877	908.271	681.839
195.359	13.797	908.575	681.675
196.373	13.936	907.409	681.313
197.388	14.018	907.034	681.307
198.402	14.060	906.663	681.137
199.417	14.119	906.442	681.153
200.432	14.290	905.513	681.094
201.446	14.384	905.224	681.204
202.461	14.300	904.614	680.339
203.475	14.375	904.407	680.430
204.490	14.273	903.859	679.540
205.504	14.246	903.055	678.765
206.519	14.172	902.165	677.735
207.534	14.268	901.219	677.355
208.548	14.253	900.346	676.581
209.563	14.262	899.801	676.146
210.577	14.175	899.621	675.599
211.592	14.223	898.691	675.035
212.607	14.364	897.915	674.965
213.621	14.403	897.676	674.880
214.636	14.408	896.888	674.250
215.650	14.362	896.098	673.411
216.665	14.429	895.718	673.335
217.680	14.413	895.259	672.866
218.694	14.421	894.619	672.357
219.709	14.508	894.021	672.199
220.723	14.381	893.483	671.224
221.738	14.383	893.051	670.849
222.753	14.610	891.743	670.720
223.767	14.497	890.974	669.630
224.782	14.625	890.301	669.575
225.796	14.509	889.550	668.486
226.811	14.570	889.010	668.268
227.826	14.670	888.308	668.079
228.840	14.544	887.955	667.250
229.855	14.586	886.585	666.333
230.869	14.480	886.545	665.819
231.884	14.602	885.847	665.724
232.899	14.516	884.937	664.637
233.913	14.508	884.342	664.101
234.928	14.541	884.042	663.947
235.942	14.510	883.260	663.176
236.957	14.496	882.353	662.382
237.972	14.535	881.337	661.714
238.986	14.531	880.818	661.250
240.001	14.385	880.891	660.667
241.015	14.676	879.534	660.744
242.030	14.557	879.346	660.072
243.045	14.677	878.520	659.869
244.059	14.605	877.644	658.870
245.074	14.659	877.202	658.691
246.088	14.634	876.587	658.075
247.103	14.802	875.938	658.191
248.117	14.677	875.454	657.274
249.132	14.897	874.732	657.540
250.147	14.998	874.459	657.675
251.161	15.053	873.853	657.375
252.176	15.113	872.824	656.778
253.190	14.965	872.531	655.920
254.205	15.077	871.983	655.891
255.220	15.088	871.334	655.387
256.234	15.096	870.600	654.805
257.249	15.148	869.840	654.382
258.263	15.047	869.804	653.901
259.278	15.137	868.982	653.578
260.293	15.191	868.296	653.213
261.307	15.320	867.770	653.261
262.322	15.268	867.014	652.433
263.336	15.223	866.864	652.089
264.351	15.338	865.930	651.773
265.366	15.292	865.544	651.247
266.380	15.373	864.634	650.818
267.395	15.313	863.811	649.910
268.409	15.054	863.497	648.613
269.424	15.379	862.326	648.933
270.439	15.384	861.528	648.292
271.453	15.365	861.004	647.769
272.468	15.317	860.715	647.311
273.482	15.213	860.387	646.602
274.497	15.302	859.380	646.133
275.512	15.308	858.520	645.451
276.526	15.337	857.625	644.836
277.541	15.306	857.142	644.294
278.555	15.399	856.459	644.081
279.570	15.352	856.010	643.504
280.585	15.466	855.423	643.443
281.599	15.652	854.775	643.611
282.614	15.600	854.191	642.915
283.628	15.445	854.010	642.133
284.643	15.427	853.379	641.530
285.657	15.517	852.998	641.532
286.672	15.516	852.264	640.918
287.687	15.509	851.384	640.176
288.701	15.596	851.385	640.451
289.716	15.550	850.417	639.489
290.730	15.517	850.125	639.088
291.745	15.624	849.554	639.008
292.760	15.556	849.154	638.392
293.774	15.581	848.211	637.721
294.789	15.644	847.906	637.677
295.803	15.566	847.048	636.680
296.818	15.744	846.092	636.578
297.833	15.737	845.434	636.002
298.847	15.537	845.483	635.224
299.862	15.676	844.462	634.925
300.876	15.588	843.765	634.015
301.891	15.902	842.952	634.531
302.906	15.886	842.314	633.933
303.920	15.773	841.888	633.129
304.935	15.909	841.350	633.181
305.949	15.867	840.564	632.376
306.964	15.867	840.384	632.184
307.979	15.904	839.567	631.654
308.993	15.913	839.116	631.291
310.008	15.920	838.347	630.686
311.022	16.011	837.859	630.601
312.037	15.871	837.457	629.720
313.052	15.833	837.200	629.329
314.066	16.011	836.085	629.101
315.081	15.933	835.650	628.426
316.095	15.779	835.297	627.531
317.110	15.813	834.981	627.366
318.125	15.818	834.330	626.837
319.139	16.025	833.534	626.953
320.154	15.868	833.269	626.116
321.168	15.850	832.727	625.587
322.183	15.963	832.279	625.612
323.197	15.884	831.780	624.889
324.212	16.052	830.887	624.787
325.227	16.164	830.301	624.707
326.241	15.946	829.847	623.504
327.256	16.123	829.241	623.646
328.270	16.141	828.659	623.221
329.285	15.970	828.176	622.169
330.300	15.959	827.712	621.726
331.314	16.033	827.210	621.565
332.329	16.079	826.296	620.993
333.343	16.249	825.860	621.237
334.358	16.153	825.367	620.456
335.373	16.158	824.976	620.129
336.387	16.182	824.304	619.657
337.402	16.220	823.782	619.349
338.416	16.348	822.964	619.149
339.431	16.382	822.812	619.102
340.446	16.338	822.500	618.654
341.460	16.399	821.618	618.158
342.475	16.399	821.334	617.889
343.489	16.547	820.298	617.594
344.504	16.641	819.979	617.645
345.519	16.489	819.507	616.679
346.533	16.495	819.267	616.464
347.548	16.641	818.334	616.241
348.562	16.571	818.209	615.837
349.577	16.479	817.745	615.100
350.592	16.372	816.832	613.970
351.606	16.310	816.660	613.562
352.621	16.339	816.225	613.283
353.635	16.437	815.607	613.123
354.650	16.488	815.187	612.934
355.665	16.386	815.314	612.607
356.679	16.397	814.598	612.054
357.694	16.535	813.780	611.886
358.708	16.679	813.069	611.819
359.723	16.662	812.447	611.234
360.738	16.466	812.320	610.378
361.752	16.684	811.779	610.703
362.767	16.623	811.437	610.170
363.781	16.788	810.756	610.198
364.796	16.769	810.524	609.903
365.810	16.732	810.079	609.381
366.825	16.825	810.166	609.727
367.840	16.906	809.601	609.539
368.854	16.880	809.064	608.986
369.869	16.876	808.624	608.589
370.883	16.760	808.055	607.688
371.898	16.878	807.520	607.657
372.913	16.712	806.790	606.460
373.927	16.979	806.059	606.812
374.942	16.828	805.641	605.904
375.956	16.846	804.992	605.427
376.971	16.900	804.557	605.238
377.986	16.928	803.830	604.737
379.000	16.839	803.702	604.270
380.015	17.132	802.969	604.710
381.029	17.080	802.544	604.149
382.044	17.153	801.643	603.679
383.059	17.176	800.872	603.127
384.073	17.145	800.831	602.930
385.088	17.075	800.329	602.250
386.102	17.093	799.816	601.874
387.117	17.003	798.871	600.791
388.132	16.958	798.757	600.496
389.146	17.011	798.067	600.109
390.161	16.988	797.991	599.919
391.175	17.151	797.570	600.126
392.190	17.160	797.398	599.973
393.205	17.216	796.630	599.542
394.219	17.162	795.861	598.720
395.234	17.215	795.710	598.740
396.248	17.058	795.280	597.811
397.263	17.200	794.257	597.487
398.278	17.070	794.301	597.009
399.292	17.027	793.822	596.447
400.307	16.981	793.434	595.938
401.321	16.993	793.127	595.699
402.336	17.190	792.278	595.699
403.350	17.143	792.521	595.664
404.365	17.286	791.808	595.578
405.380	17.127	791.668	594.861
406.394	17.334	790.909	594.965
407.409	17.450	790.331	594.883
408.423	17.345	790.143	594.319
409.438	17.361	789.887	594.130
410.453	17.418	789.022	593.627
411.467	17.623	788.590	593.964
412.482	17.530	788.217	593.308
413.496	17.624	787.684	593.182
414.511	17.555	787.869	593.029
415.526	17.506	787.319	592.391
416.540	17.659	786.985	592.617
417.555	17.685	785.981	591.901
418.569	17.599	785.799	591.411
419.584	17.573	785.369	590.947
420.599	17.720	784.475	590.729
421.613	111.905	1293.050	1477.789
422.628	95.994	1367.135	1477.906
