DTS Sentinel unit serial number:	SN413079Multiplexer serial number:	ORYXHardware model number:	OX4-SRSoftware version number:	ORYX F/W v4.00 Oryx Data Collector v3.7.2.0data status	okinstallation	princeton_trtdifferential loss correction	single-endedforward channel	channel 3reverse channel	N/Adate	2019/09/15time	05:56:35forward acquisition time	60.00reverse acquisition time	0.00gamma	496.2192k internal	0.2324k external	0.2324temperature offset calibration	0.9981default loss term (dB/km)	0.3790temperature slope calibration	1.0000multiplexer offset coefficient	1.0000multiplexer slope coefficient	1.0000fibre end	0.00T internal ref (°C)	30.62T ext. ref 1 (°C)	4.87T ext. ref 2 (°C)	25.33length (m)	temperature (°C)	Stokes	anti-Stokes-747.200	-139.033	-0.130	-0.014
-746.185	-136.770	0.153	-0.018
-745.171	-171.689	-0.106	0.004
-744.156	-135.086	0.119	-0.014
-743.142	800.000	-0.126	-0.371
-742.127	101.799	0.084	0.099
-741.112	388.973	-0.101	0.212
-740.098	76.202	-0.253	0.270
-739.083	-200.000	-0.047	0.239
-738.069	179.571	-0.119	0.176
-737.054	-148.395	0.240	-0.020
-736.039	-184.808	-0.076	-0.001
-735.025	-200.000	0.006	-0.151
-734.010	-200.000	0.017	-0.170
-732.996	-200.000	0.093	-0.477
-731.981	-200.000	-0.022	0.332
-730.966	-12.734	-0.178	0.117
-729.952	-200.000	0.000	0.071
-728.937	-200.000	0.046	-0.443
-727.923	-164.153	0.240	-0.011
-726.908	43.684	-0.086	0.079
-725.894	474.217	0.034	0.077
-724.879	-200.000	0.031	-0.302
-723.864	195.926	0.138	0.212
-722.850	-137.580	0.062	0.007
-721.835	342.464	-0.053	0.105
-720.821	-200.000	-0.012	0.097
-719.806	170.982	0.133	0.192
-718.791	202.007	0.243	0.378
-717.777	-120.740	0.146	-0.025
-716.762	-200.000	0.034	-0.265
-715.748	90.523	-0.184	0.208
-714.733	57.487	0.016	-0.016
-713.718	800.000	-0.061	0.264
-712.704	-137.778	-0.174	-0.020
-711.689	73.205	0.190	-0.200
-710.675	-49.969	-0.110	0.053
-709.660	-23.448	-0.322	-0.195
-708.645	-150.020	-0.057	-0.004
-707.631	-1.436	0.072	-0.051
-706.616	-117.374	0.212	-0.039
-705.602	347.260	-0.087	-0.173
-704.587	800.000	-0.091	-0.253
-703.572	160.248	-0.051	0.071
-702.558	-178.862	-0.473	0.011
-701.543	-200.000	-0.031	-0.177
-700.529	-54.818	0.127	0.058
-699.514	-61.862	-0.058	0.025
-698.499	279.051	-0.242	-0.435
-697.485	-50.684	-0.298	-0.141
-696.470	-165.503	0.521	-0.023
-695.456	764.327	-0.130	-0.356
-694.441	-90.191	-0.126	-0.037
-693.426	219.022	0.076	-0.123
-692.412	-170.800	-0.172	-0.006
-691.397	-6.424	0.220	0.151
-690.383	-200.000	-0.035	0.278
-689.368	-30.368	-0.304	0.174
-688.354	-200.000	-0.042	-0.259
-687.339	509.363	-0.156	-0.364
-686.324	658.376	0.103	0.267
-685.310	-76.496	0.469	-0.166
-684.295	-200.000	-0.008	0.202
-683.281	-170.626	-0.273	-0.010
-682.266	679.051	0.216	-0.565
-681.251	-40.400	-0.173	-0.091
-680.237	-35.799	0.255	0.139
-679.222	303.206	0.073	-0.136
-678.208	-28.769	-0.059	-0.034
-677.193	0.970	0.057	-0.041
-676.178	21.027	0.147	0.120
-675.164	20.033	0.137	-0.111
-674.149	-152.586	0.293	-0.021
-673.135	457.890	-0.073	-0.162
-672.120	-200.000	0.003	-0.039
-671.105	85.683	0.051	-0.056
-670.091	5.853	-0.134	-0.100
-669.076	800.000	0.035	0.152
-668.062	61.273	-0.255	-0.255
-667.047	177.584	0.082	0.120
-666.032	-19.484	0.309	-0.193
-665.018	800.000	-0.047	0.206
-664.003	-165.849	-0.271	0.012
-662.989	-38.908	-0.082	-0.044
-661.974	315.728	0.074	0.141
-660.959	226.000	0.028	-0.045
-659.945	-0.550	-0.161	0.115
-658.930	-200.000	0.005	-0.224
-657.916	-200.000	-0.013	-0.093
-656.901	-200.000	-0.044	-0.329
-655.886	-200.000	0.059	0.272
-654.872	-31.489	-0.121	-0.068
-653.857	-113.469	0.328	0.065
-652.843	800.000	-0.114	-0.380
-651.828	267.889	-0.157	-0.276
-650.814	-48.460	-0.134	0.065
-649.799	456.859	0.023	-0.052
-648.784	123.842	-0.120	0.152
-647.770	-60.369	0.294	0.126
-646.755	-147.186	-0.424	-0.036
-645.741	800.000	0.028	0.083
-644.726	220.303	0.195	0.315
-643.711	111.672	-0.022	-0.026
-642.697	-36.983	-0.398	-0.214
-641.682	800.000	0.033	0.093
-640.668	-7.266	-0.213	-0.145
-639.653	-114.195	-0.124	-0.024
-638.638	-107.347	0.325	-0.072
-637.624	62.041	0.137	0.137
-636.609	799.959	0.095	-0.263
-635.595	-74.084	0.067	-0.024
-634.580	-200.000	-0.091	-0.492
-633.565	-200.000	0.020	-0.290
-632.551	219.161	-0.142	-0.228
-631.536	501.881	0.066	0.154
-630.522	-37.619	0.200	-0.107
-629.507	-39.614	-0.219	0.115
-628.492	-2.747	0.298	0.209
-627.478	-128.055	-0.162	-0.023
-626.463	-200.000	0.007	0.112
-625.449	-117.164	0.210	-0.038
-624.434	-149.549	0.353	0.028
-623.419	257.072	0.141	-0.244
-622.405	800.000	-0.166	-0.466
-621.390	153.194	-0.047	0.064
-620.376	135.900	0.078	0.102
-619.361	-200.000	-0.029	0.206
-618.346	66.320	-0.092	0.094
-617.332	94.702	0.097	0.111
-616.317	-53.858	0.200	0.092
-615.303	-92.676	-0.270	-0.076
-614.288	-200.000	-0.029	0.172
-613.273	19.215	0.076	-0.061
-612.259	-110.756	0.132	0.027
-611.244	48.535	-0.191	0.180
-610.230	-200.000	0.055	0.249
-609.215	-200.000	-0.024	0.255
-608.201	-72.350	0.282	-0.105
-607.186	510.296	0.053	0.124
-606.171	160.304	0.151	0.211
-605.157	-134.592	0.117	0.014
-604.142	99.830	-0.068	-0.079
-603.128	-200.000	-0.025	-0.228
-602.113	-50.596	0.393	0.186
-601.098	-31.701	-0.179	0.101
-600.084	-96.365	0.167	-0.044
-599.069	-83.859	0.208	-0.067
-598.055	250.898	-0.179	-0.305
-597.040	477.838	0.038	-0.085
-596.025	-200.000	0.022	-0.253
-595.011	-200.000	0.050	-0.230
-593.996	-200.000	0.026	0.159
-592.982	70.468	-0.268	0.278
-591.967	55.843	0.294	-0.286
-590.952	-91.095	0.359	0.103
-589.938	-51.091	-0.294	-0.138
-588.923	-200.000	0.008	-0.252
-587.909	-171.846	0.099	0.003
-586.894	62.927	0.073	0.073
-585.879	800.000	-0.100	-0.317
-584.865	60.705	-0.189	0.188
-583.850	-82.431	-0.256	0.084
-582.836	28.485	0.381	-0.323
-581.821	-108.892	0.184	-0.039
-580.806	157.871	-0.249	0.346
-579.792	-51.020	-0.186	-0.088
-578.777	7.193	-0.238	-0.178
-577.763	-120.474	-0.156	-0.027
-576.748	18.819	0.224	0.180
-575.733	-18.947	0.115	0.072
-574.719	114.757	-0.131	-0.161
-573.704	-86.273	-0.179	0.055
-572.690	150.989	0.103	-0.141
-571.675	-90.421	0.264	0.077
-570.661	-61.884	-0.226	-0.095
-569.646	-200.000	0.016	-0.077
-568.631	-200.000	-0.023	-0.656
-567.617	-93.249	-0.078	-0.022
-566.602	286.481	-0.094	0.170
-565.588	-200.000	-0.008	0.193
-564.573	-111.190	0.234	0.048
-563.558	-163.578	0.298	-0.014
-562.544	800.000	-0.053	0.165
-561.529	-100.174	-0.374	0.093
-560.515	-185.811	0.259	-0.004
-559.500	-142.405	0.093	0.009
-558.485	-0.697	-0.116	-0.083
-557.471	-200.000	-0.007	-0.268
-556.456	-108.878	0.039	0.008
-555.442	-87.955	-0.290	-0.087
-554.427	-200.000	-0.011	-0.120
-553.412	5.041	0.157	-0.116
-552.398	-52.335	-0.362	-0.168
-551.383	-50.863	0.141	0.066
-550.369	60.080	0.060	0.059
-549.354	-200.000	-0.030	-0.143
-548.339	-200.000	-0.012	-0.468
-547.325	-127.937	0.085	0.012
-546.310	800.000	-0.064	0.238
-545.296	-175.194	0.149	0.004
-544.281	170.561	-0.087	0.124
-543.266	-143.597	0.180	-0.017
-542.252	-147.780	0.234	-0.020
-541.237	-14.046	-0.087	-0.056
-540.223	-23.720	0.329	-0.197
-539.208	6.229	0.326	-0.242
-538.193	-52.845	-0.057	0.026
-537.179	-200.000	0.025	-0.269
-536.164	-53.454	0.094	-0.043
-535.150	-4.403	0.305	0.211
-534.135	65.595	-0.140	-0.142
-533.121	-26.098	-0.074	0.044
-532.106	307.223	-0.107	-0.200
-531.091	212.484	-0.123	-0.194
-530.077	-200.000	0.034	0.261
-529.062	-48.606	0.116	0.056
-528.048	36.712	0.224	-0.198
-527.033	79.742	-0.153	-0.164
-526.018	331.869	-0.104	-0.200
-525.004	-109.051	0.178	0.038
-523.989	85.107	-0.207	-0.227
-522.975	-200.000	-0.057	-0.628
-521.960	-200.000	0.237	-0.001
-520.945	-200.000	0.024	0.120
-519.931	-200.000	-0.038	-0.233
-518.916	800.000	-0.031	0.123
-517.902	-200.000	0.029	-0.295
-516.887	-0.858	0.251	-0.178
-515.872	-7.168	-0.059	-0.040
-514.858	800.000	0.102	-0.371
-513.843	489.503	-0.085	0.193
-512.829	117.712	-0.215	0.264
-511.814	46.008	0.026	0.024
-510.799	691.970	0.011	0.028
-509.785	17.635	-0.153	0.121
-508.770	-62.002	-0.337	-0.141
-507.756	632.272	-0.093	-0.235
-506.741	-114.745	-0.270	0.052
-505.726	-119.188	-0.335	-0.058
-504.712	-140.478	0.236	-0.025
-503.697	83.224	-0.132	0.143
-502.683	103.336	0.257	0.301
-501.668	-200.000	-0.016	-0.082
-500.653	-200.000	-0.051	-0.237
-499.639	-126.659	0.090	0.013
-498.624	25.245	-0.153	0.127
-497.610	-200.000	-0.036	0.330
-496.595	-158.221	0.200	0.012
-495.581	-200.000	-0.004	-0.129
-494.566	278.721	0.145	0.259
-493.551	-126.058	-0.056	-0.008
-492.537	-200.000	0.033	-0.290
-491.522	139.474	0.169	-0.223
-490.508	-116.737	-0.027	-0.005
-489.493	351.539	-0.080	0.159
-488.478	-2.583	0.070	-0.049
-487.464	-133.849	-0.307	0.038
-486.449	-91.075	-0.436	0.125
-485.435	-200.000	0.004	0.069
-484.420	3.308	-0.201	0.146
-483.405	80.415	0.024	-0.026
-482.391	-55.936	-0.529	-0.236
-481.376	175.545	0.261	0.378
-480.362	83.151	0.205	0.223
-479.347	-31.345	-0.094	-0.053
-478.332	60.821	-0.061	-0.061
-477.318	-135.601	0.454	-0.054
-476.303	-24.379	-0.251	-0.149
-475.289	8.970	0.169	-0.127
-474.274	6.392	0.234	-0.173
-473.259	-30.932	0.178	0.100
-472.245	207.963	-0.242	0.378
-471.230	-107.726	-0.126	0.027
-470.216	-200.000	-0.090	0.424
-469.201	-132.850	-0.107	0.014
-468.186	-200.000	0.076	-0.401
-467.172	10.574	0.372	-0.283
-466.157	-200.000	0.013	0.103
-465.143	-87.069	-0.112	-0.034
-464.128	15.620	0.142	0.111
-463.113	501.062	-0.034	0.078
-462.099	800.000	-0.092	-0.269
-461.084	36.766	0.238	0.210
-460.070	-156.543	-0.141	0.009
-459.055	-34.491	-0.059	0.032
-458.040	-23.370	0.175	0.105
-457.026	-200.000	-0.024	-0.140
-456.011	-200.000	-0.023	0.215
-454.997	-137.515	-0.212	0.024
-453.982	-165.537	-0.469	-0.020
-452.968	668.825	-0.123	0.317
-451.953	303.997	0.030	0.055
-450.938	-86.886	0.333	0.101
-449.924	70.177	0.136	0.140
-448.909	7.038	-0.252	0.187
-447.895	-200.000	0.009	-0.300
-446.880	181.989	-0.022	-0.033
-445.865	46.624	0.134	-0.124
-444.851	-125.002	0.303	0.046
-443.836	-155.928	0.116	0.007
-442.822	279.290	0.124	-0.221
-441.807	-141.314	-0.158	0.016
-440.792	-9.849	0.108	-0.071
-439.778	409.138	-0.085	-0.179
-438.763	800.000	-0.033	-0.100
-437.749	152.899	-0.162	0.221
-436.734	19.963	0.273	-0.220
-435.719	133.908	-0.157	-0.203
-434.705	88.709	0.050	-0.055
-433.690	52.585	-0.152	-0.145
-432.676	355.401	-0.095	-0.188
-431.661	-71.939	0.059	-0.022
-430.646	5.788	-0.062	-0.046
-429.632	-19.356	0.120	0.074
-428.617	-200.000	0.020	0.269
-427.603	371.298	-0.092	-0.186
-426.588	-21.567	0.275	-0.167
-425.573	273.762	-0.107	0.188
-424.559	-114.806	0.157	0.030
-423.544	-200.000	0.007	0.144
-422.530	-9.839	-0.195	0.130
-421.515	-200.000	-0.044	0.423
-420.500	-200.000	0.034	-0.213
-419.486	64.795	0.242	-0.243
-418.471	-107.601	0.171	0.037
-417.457	-2.406	-0.140	0.098
-416.442	219.586	-0.120	0.192
-415.428	466.411	-0.135	-0.301
-414.413	272.304	0.116	0.203
-413.398	-101.552	-0.220	-0.053
-412.384	-200.000	-0.060	-0.401
-411.369	-200.000	-0.046	0.370
-410.355	-103.659	-0.269	-0.063
-409.340	-200.000	-0.001	-0.136
-408.325	85.926	-0.264	0.289
-407.311	-200.000	-0.006	-0.037
-406.296	480.265	0.109	-0.245
-405.282	-23.804	0.188	0.112
-404.267	220.156	-0.185	0.295
-403.252	-127.015	-0.207	-0.030
-402.238	-200.000	-0.003	0.072
-401.223	-200.000	-0.024	0.322
-400.209	-82.985	-0.148	0.047
-399.194	154.336	-0.071	-0.097
-398.179	-124.310	-0.290	-0.045
-397.165	-75.332	0.251	0.089
-396.150	-200.000	-0.029	0.280
-395.136	34.697	-0.307	-0.267
-394.121	53.520	-0.183	0.175
-393.106	-102.276	0.135	0.032
-392.092	800.000	-0.048	-0.178
-391.077	-200.000	0.002	-0.168
-390.063	465.135	-0.159	0.354
-389.048	10.608	0.164	-0.124
-388.033	-174.238	-0.158	0.005
-387.019	800.000	0.068	0.209
-386.004	800.000	-0.114	-0.436
-384.990	29.991	0.120	-0.102
-383.975	-0.310	0.109	-0.077
-382.960	128.229	-0.128	0.163
-381.946	-200.000	0.006	0.084
-380.931	-14.449	-0.114	-0.073
-379.917	103.404	-0.172	-0.201
-378.902	135.809	0.120	-0.155
-377.888	114.921	0.216	0.262
-376.873	324.811	0.113	0.214
-375.858	-171.588	-0.157	0.005
-374.844	-200.000	0.048	0.383
-373.829	-200.000	0.016	-0.262
-372.815	-75.765	0.210	-0.074
-371.800	225.220	0.157	-0.253
-370.785	-200.000	0.027	0.337
-369.771	-200.000	0.018	0.084
-368.756	-200.000	-0.054	-0.246
-367.742	-200.000	0.012	0.065
-366.727	-200.000	-0.011	-0.127
-365.712	-116.395	0.279	-0.051
-364.698	-80.398	0.176	0.058
-363.683	93.381	-0.160	-0.180
-362.669	-116.818	-0.161	-0.029
-361.654	-200.000	-0.076	-0.490
-360.639	-200.000	-0.036	0.293
-359.625	-74.209	-0.190	-0.068
-358.610	71.181	0.169	-0.174
-357.596	-57.962	-0.158	-0.068
-356.581	-200.000	0.007	0.099
-355.566	-200.000	-0.015	0.118
-354.552	119.596	-0.047	-0.058
-353.537	-81.323	-0.365	-0.119
-352.523	-1.021	0.344	0.242
-351.508	-145.357	0.088	-0.008
-350.493	-111.920	0.157	-0.031
-349.479	194.309	-0.066	-0.099
-348.464	-85.053	-0.148	0.046
-347.450	10.579	0.069	0.052
-346.435	-93.113	-0.479	-0.132
-345.420	-18.800	-0.105	0.065
-344.406	800.000	0.087	0.276
-343.391	76.419	-0.117	0.123
-342.377	-122.852	-0.295	-0.047
-341.362	-185.194	0.354	0.005
-340.348	24.929	-0.115	-0.095
-339.333	10.100	0.065	0.049
-338.318	631.151	-0.080	-0.202
-337.304	65.576	-0.167	0.168
-336.289	-156.628	-0.057	0.004
-335.275	-134.094	0.288	0.035
-334.260	-160.544	0.305	-0.016
-333.245	-132.319	-0.413	-0.053
-332.231	279.015	-0.024	-0.043
-331.216	800.000	0.029	-0.081
-330.202	39.354	0.153	0.136
-329.187	20.304	-0.184	0.148
-328.172	-120.645	-0.197	-0.033
-327.158	263.015	-0.041	0.070
-326.143	-24.924	0.166	-0.098
-325.129	800.000	0.097	0.323
-324.114	800.000	0.123	0.414
-323.099	800.000	-0.071	-0.291
-322.085	38.516	0.154	0.136
-321.070	-14.070	0.101	-0.065
-320.056	-200.000	-0.057	0.410
-319.041	119.115	-0.143	-0.176
-318.026	250.292	-0.050	-0.084
-317.012	-200.000	0.014	0.159
-315.997	-200.000	0.021	0.351
-314.983	-102.614	-0.475	0.113
-313.968	-35.998	-0.129	0.069
-312.953	-82.476	-0.190	0.061
-311.939	-108.376	-0.431	0.092
-310.924	84.322	0.093	-0.101
-309.910	-42.311	0.307	0.155
-308.895	294.473	-0.026	-0.047
-307.880	-90.652	0.149	-0.043
-306.866	-95.790	-0.216	0.057
-305.851	743.864	-0.072	0.192
-304.837	236.759	-0.032	-0.053
-303.822	-46.774	-0.275	-0.134
-302.807	83.053	-0.121	0.130
-301.793	-44.663	0.170	-0.084
-300.778	-200.000	0.011	0.067
-299.764	134.898	-0.186	0.239
-298.749	-126.542	-0.234	-0.034
-297.735	-140.493	-0.152	0.016
-296.720	450.046	0.147	-0.322
-295.705	-31.766	0.039	-0.022
-294.691	98.220	-0.150	-0.172
-293.676	-64.010	0.162	0.066
-292.662	428.938	0.050	-0.108
-291.647	-185.135	-0.424	-0.007
-290.632	-5.335	-0.027	-0.019
-289.618	62.893	0.207	-0.205
-288.603	-94.278	0.023	-0.006
-287.589	11.656	0.235	-0.179
-286.574	7.888	-0.072	0.053
-285.559	800.000	-0.036	0.131
-284.545	783.860	-0.121	0.329
-283.530	227.258	-0.039	0.062
-282.516	111.691	-0.190	-0.228
-281.501	-143.868	-0.115	0.011
-280.486	350.713	-0.020	-0.038
-279.472	800.000	-0.043	-0.183
-278.457	289.419	0.082	-0.148
-277.443	4.064	-0.027	0.020
-276.428	-65.637	-0.132	-0.053
-275.413	197.897	-0.120	0.182
-274.399	454.546	-0.142	0.312
-273.384	-45.117	-0.089	-0.044
-272.370	-139.033	-0.099	0.011
-271.355	-2.356	-0.298	-0.207
-270.340	544.953	-0.092	-0.219
-269.326	-200.000	-0.025	-0.119
-268.311	-200.000	0.016	0.505
-267.297	126.265	0.246	-0.308
-266.282	242.088	0.166	0.274
-265.267	562.102	0.044	-0.105
-264.253	59.038	-0.130	0.127
-263.238	-11.172	-0.155	0.101
-262.224	148.113	0.053	0.071
-261.209	-200.000	-0.007	0.041
-260.195	96.823	-0.226	-0.257
-259.180	800.000	-0.019	0.064
-258.165	194.564	-0.102	-0.153
-257.151	-182.978	0.313	-0.006
-256.136	-26.033	-0.266	0.155
-255.122	53.404	0.280	-0.266
-254.107	167.831	-0.126	0.177
-253.092	-200.000	-0.044	-0.454
-252.078	-11.127	-0.205	-0.134
-251.063	129.959	0.061	0.077
-250.049	-68.805	0.386	-0.148
-249.034	-200.000	-0.103	0.475
-248.019	-85.536	-0.344	-0.106
-247.005	39.412	0.113	0.100
-245.990	-24.102	0.101	0.060
-244.976	446.588	-0.084	0.184
-243.961	44.029	0.153	-0.139
-242.946	-200.000	-0.003	-0.016
-241.932	-109.368	0.159	0.033
-240.917	-26.667	0.256	0.149
-239.903	-171.043	-0.247	0.008
-238.888	-200.000	0.013	-0.144
-237.873	-108.825	0.412	-0.087
-236.859	135.523	-0.090	-0.116
-235.844	-13.452	0.246	0.158
-234.830	633.805	-0.198	-0.498
-233.815	-5.429	0.133	0.090
-232.800	-129.967	0.137	0.019
-231.786	800.000	0.078	-0.226
-230.771	7.949	0.080	0.059
-229.757	-200.000	-0.017	-0.128
-228.742	-114.529	-0.186	-0.035
-227.727	-69.262	0.097	-0.037
-226.713	-79.397	0.177	-0.059
-225.698	24.143	-0.183	-0.149
-224.684	-200.000	-0.048	-0.529
-223.669	15.572	0.025	0.019
-222.655	193.378	0.164	0.245
-221.640	-200.000	0.045	-0.320
-220.625	39.535	0.039	0.035
-219.611	-140.249	0.091	-0.009
-218.596	-97.921	-0.205	-0.052
-217.582	-200.000	0.293	0.001
-216.567	-84.139	0.188	0.059
-215.552	-200.000	0.003	0.223
-214.538	-200.000	0.083	0.495
-213.523	-34.511	0.184	0.100
-212.509	-9.113	0.132	-0.087
-211.494	-99.989	0.161	0.040
-210.479	-87.661	0.195	0.058
-209.465	-125.507	0.157	0.024
-208.450	-200.000	0.041	0.362
-207.436	188.003	-0.110	0.163
-206.421	-120.998	-0.183	-0.030
-205.406	-30.773	0.343	0.192
-204.392	-200.000	0.002	0.198
-203.377	92.293	0.214	0.238
-202.363	-177.921	0.278	-0.007
-201.348	-192.093	0.091	0.001
-200.333	23.401	0.328	0.266
-199.319	269.556	0.306	0.531
-198.304	-184.900	-0.287	-0.004
-197.290	85.480	0.092	0.100
-196.275	312.848	-0.340	0.631
-195.260	70.208	0.088	0.090
-194.246	-74.602	0.171	-0.061
-193.231	800.000	-0.041	-0.113
-192.217	-7.727	-0.236	-0.157
-191.202	-200.000	-0.038	0.275
-190.187	35.218	0.103	0.089
-189.173	-59.587	0.172	0.073
-188.158	-70.849	-0.065	0.024
-187.144	-200.000	-0.008	0.739
-186.129	235.301	0.032	0.052
-185.114	800.000	-0.068	0.204
-184.100	-109.282	0.274	-0.057
-183.085	489.255	-0.102	0.230
-182.071	18.472	-0.234	0.185
-181.056	270.987	-0.030	-0.052
-180.042	-200.000	-0.006	0.266
-179.027	-144.783	0.244	-0.022
-178.012	-200.000	-0.010	0.200
-176.998	67.938	-0.196	-0.198
-175.983	-35.082	-0.102	-0.055
-174.969	-57.441	0.127	0.055
-173.954	-200.000	0.028	-0.282
-172.939	516.707	-0.099	-0.229
-171.925	-174.553	-0.080	-0.002
-170.910	-42.319	0.029	-0.014
-169.896	232.557	0.115	-0.186
-168.881	-45.803	0.223	-0.109
-167.866	26.965	-0.121	0.100
-166.852	425.998	0.173	0.368
-165.837	-39.654	-0.215	-0.111
-164.823	-200.000	-0.008	-0.083
-163.808	800.000	-0.028	-0.085
-162.793	800.000	0.056	-0.189
-161.779	51.210	0.041	-0.038
-160.764	-58.025	0.223	-0.096
-159.750	-200.000	0.025	0.339
-158.735	-200.000	0.084	0.412
-157.720	7.490	-0.214	-0.158
-156.706	-200.000	0.015	-0.097
-155.691	-68.116	0.425	-0.163
-154.677	-200.000	0.017	-0.124
-153.662	256.543	-0.120	-0.203
-152.647	-200.000	0.073	-0.342
-151.633	-200.000	0.022	0.128
-150.618	343.843	-0.028	0.054
-149.604	413.875	0.141	-0.296
-148.589	459.108	-0.118	-0.260
-147.574	-200.000	-0.021	0.123
-146.560	237.755	0.055	0.091
-145.545	68.691	-0.058	0.059
-144.531	114.563	0.185	0.222
-143.516	-27.615	-0.120	-0.069
-142.502	-200.000	-0.021	-0.092
-141.487	75.813	0.072	-0.075
-140.472	-48.727	0.142	0.067
-139.458	-84.260	0.524	-0.164
-138.443	166.473	-0.133	-0.186
-137.429	768.097	0.130	-0.349
-136.414	800.000	-0.127	0.435
-135.399	800.000	-0.070	-0.210
-134.385	-149.837	0.317	0.024
-133.370	-120.413	0.428	0.072
-132.356	-69.374	0.031	0.012
-131.341	-200.000	0.009	-0.248
-130.326	57.586	0.216	-0.208
-129.312	-55.594	-0.172	0.076
-128.297	84.175	0.031	0.033
-127.283	-122.835	-0.151	0.024
-126.268	144.281	0.221	-0.290
-125.253	-200.000	-0.012	-0.186
-124.239	-12.267	0.339	0.218
-123.224	80.163	-0.079	0.083
-122.210	26.209	0.193	-0.159
-121.195	16.129	0.077	-0.060
-120.180	8.740	-0.073	0.054
-119.166	511.239	-0.199	0.455
-118.151	-171.056	-0.320	-0.011
-117.137	800.000	0.036	0.115
-116.122	-125.356	-0.145	0.022
-115.107	-166.518	0.273	0.011
-114.093	-112.942	0.233	-0.045
-113.078	191.279	0.164	0.244
-112.064	152.367	-0.094	-0.126
-111.049	56.657	-0.069	0.066
-110.034	-66.966	0.120	0.047
-109.020	136.472	-0.232	-0.297
-108.005	-124.617	0.204	-0.031
-106.991	800.000	-0.083	-0.250
-105.976	67.944	0.050	-0.050
-104.962	26.208	0.108	-0.089
-103.947	104.270	-0.157	-0.182
-102.932	-32.290	0.065	0.036
-101.918	-200.000	0.027	-0.121
-100.903	-200.000	-0.161	-0.001
-99.889	22.475	0.300	0.242
-98.874	259.864	-0.135	0.230
-97.859	-107.920	-0.400	-0.086
-96.845	-200.000	-0.011	-0.141
-95.830	-200.000	0.036	-0.223
-94.816	-132.578	-0.343	0.043
-93.801	800.000	-0.014	-0.053
-92.786	216.714	-0.046	-0.073
-91.772	-77.579	-0.360	-0.123
-90.757	31.384	0.042	-0.035
-89.743	-150.451	0.090	0.007
-88.728	-128.824	0.167	0.023
-87.713	-20.827	0.231	0.139
-86.699	110.421	-0.116	-0.137
-85.684	-26.884	-0.140	-0.081
-84.670	-79.543	-0.147	-0.049
-83.655	107.371	-0.091	-0.106
-82.640	477.782	0.031	-0.068
-81.626	-200.000	0.033	0.240
-80.611	-142.486	-0.039	-0.004
-79.597	187.121	-0.090	0.131
-78.582	86.927	0.076	-0.083
-77.567	134.399	0.144	-0.183
-76.553	74.476	-0.137	-0.141
-75.538	130.916	-0.134	-0.170
-74.524	-200.000	-0.007	0.144
-73.509	51.563	0.193	0.180
-72.494	374.443	0.069	0.138
-71.480	516.383	-0.086	0.198
-70.465	-133.410	-0.244	-0.030
-69.451	554.754	0.066	0.156
-68.436	-182.324	-0.229	-0.004
-67.422	-172.686	-0.307	0.009
-66.407	-94.537	0.282	0.075
-65.392	-146.429	-0.084	0.007
-64.378	421.214	-0.153	-0.323
-63.363	-73.033	-0.188	-0.068
-62.349	-13.685	0.197	0.125
-61.334	139.580	-0.869	-1.124
-60.319	99.991	0.290	0.331
-59.305	-200.000	-0.196	-1.322
-58.290	201.865	0.726	1.100
-57.276	613.062	0.638	1.569
-56.261	-200.000	102.651	588.340
-55.246	552.286	1433.740	3383.562
-54.232	187.122	2623.244	3842.318
-53.217	115.246	2169.368	2602.695
-52.203	41.233	1697.448	1507.453
-51.188	33.757	1506.603	1287.447
-50.173	31.319	1479.433	1247.922
-49.159	51.838	1532.899	1433.102
-48.144	52.961	1550.203	1456.862
-47.130	33.971	1507.513	1289.475
-46.115	30.823	1492.813	1255.663
-45.100	30.580	1489.523	1251.208
-44.086	30.582	1487.421	1249.407
-43.071	30.575	1485.268	1247.504
-42.057	30.471	1483.636	1245.388
-41.042	30.568	1482.168	1244.751
-40.027	30.571	1480.898	1243.659
-39.013	30.621	1479.149	1242.476
-37.998	30.526	1478.231	1241.021
-36.984	30.510	1476.762	1239.626
-35.969	30.611	1474.996	1238.771
-34.954	30.555	1473.866	1237.397
-33.940	30.543	1472.273	1235.935
-32.925	30.732	1470.801	1235.906
-31.911	30.626	1469.915	1234.405
-30.896	30.610	1468.773	1233.291
-29.881	30.791	1467.105	1233.044
-28.867	30.694	1465.757	1231.217
-27.852	30.706	1464.636	1230.308
-26.838	30.729	1463.129	1229.146
-25.823	30.678	1461.700	1227.558
-24.809	30.733	1459.866	1226.330
-23.794	30.720	1458.515	1225.060
-22.779	30.676	1457.763	1224.090
-21.765	30.620	1456.528	1222.640
-20.750	30.704	1455.416	1222.209
-19.736	30.716	1453.869	1220.941
-18.721	30.528	1453.372	1219.240
-17.706	30.669	1451.969	1218.943
-16.692	30.592	1451.107	1217.662
-15.677	30.655	1449.817	1216.946
-14.663	30.607	1449.277	1216.130
-13.648	30.647	1448.007	1215.274
-12.633	30.543	1447.158	1213.839
-11.619	30.669	1446.349	1213.934
-10.604	30.498	1445.862	1212.362
-9.590	30.663	1444.436	1212.194
-8.575	30.605	1443.691	1211.141
-7.560	30.627	1442.643	1210.356
-6.546	30.529	1442.292	1209.379
-5.531	30.560	1441.284	1208.686
-4.517	30.537	1440.567	1207.887
-3.502	30.544	1439.529	1207.011
-2.487	30.607	1437.979	1206.077
-1.473	30.492	1437.729	1205.073
-0.458	30.643	1436.010	1204.560
0.556	29.495	1426.170	1192.996
1.571	26.510	1401.719	1153.443
2.586	23.160	1343.809	1085.186
3.600	21.525	1263.263	1010.617
4.615	20.119	1217.783	966.311
5.629	17.550	1162.910	908.993
6.644	10.799	1081.076	811.348
7.659	5.684	1042.953	757.973
8.673	5.080	1037.431	750.990
9.688	4.894	1034.736	748.080
10.702	4.739	1033.099	746.087
11.717	4.756	1031.411	744.884
12.731	6.740	1032.569	755.147
13.746	13.320	1041.430	793.214
14.761	18.253	1047.315	821.364
15.775	18.550	1046.635	822.183
16.790	17.500	1044.743	815.595
17.804	16.404	1042.557	808.574
18.819	15.582	1040.717	803.145
19.834	15.123	1039.086	799.626
20.848	14.908	1038.224	797.864
21.863	14.563	1037.818	795.839
22.877	14.306	1037.041	793.944
23.892	14.226	1035.908	792.625
24.907	14.171	1035.437	791.936
25.921	14.014	1034.784	790.619
26.936	14.111	1033.844	790.290
27.950	14.071	1033.308	789.622
28.965	14.100	1032.007	788.698
29.980	14.233	1030.768	788.309
30.994	14.215	1030.010	787.576
32.009	14.446	1028.461	787.412
33.023	14.409	1028.492	787.193
34.038	14.436	1027.130	786.205
35.053	14.453	1025.926	785.296
36.067	14.305	1025.051	783.861
37.082	14.281	1024.216	783.037
38.096	14.181	1023.787	782.173
39.111	14.268	1023.487	782.282
40.126	14.353	1021.726	781.266
41.140	14.281	1020.702	780.077
42.155	14.138	1019.864	778.695
43.169	14.017	1019.126	777.499
44.184	13.986	1017.804	776.274
45.199	13.956	1016.535	775.098
46.213	14.082	1015.333	774.700
47.228	14.035	1014.998	774.159
48.242	14.076	1014.061	773.566
49.257	14.184	1013.279	773.406
50.271	14.201	1011.987	772.427
51.286	14.162	1010.976	771.408
52.301	14.250	1010.382	771.293
53.315	14.219	1009.781	770.623
54.330	14.136	1008.838	769.452
55.344	14.213	1007.596	768.792
56.359	14.081	1006.981	767.644
57.374	14.073	1006.307	767.028
58.388	14.080	1005.556	766.418
59.403	14.024	1004.792	765.510
60.417	14.006	1003.616	764.461
61.432	13.983	1002.993	763.817
62.447	13.906	1002.578	763.080
63.461	13.911	1001.492	762.206
64.476	13.885	1000.349	761.150
65.490	13.927	999.488	760.621
66.505	13.964	998.416	759.907
67.520	13.914	998.157	759.413
68.534	14.013	997.011	758.924
69.549	14.064	996.588	758.772
70.563	14.016	995.758	757.850
71.578	13.978	995.010	757.045
72.593	13.881	993.940	755.721
73.607	13.846	993.305	755.010
74.622	13.776	992.238	753.815
75.636	13.666	991.919	753.008
76.651	13.789	990.983	752.786
77.666	13.772	990.112	751.981
78.680	13.928	989.272	751.985
79.695	13.894	988.803	751.409
80.709	13.945	988.236	751.140
81.724	13.886	987.715	750.413
82.739	14.006	986.866	750.244
83.753	14.160	986.028	750.235
84.768	14.187	985.362	749.780
85.782	14.286	984.335	749.380
86.797	14.412	983.871	749.525
87.812	14.378	982.653	748.378
88.826	14.224	982.303	747.353
89.841	14.157	981.803	746.606
90.855	14.281	980.553	746.148
91.870	14.356	979.802	745.844
92.884	14.333	979.271	745.272
93.899	14.444	978.523	745.133
94.914	14.370	977.798	744.187
95.928	14.459	976.872	743.813
96.943	14.509	976.402	743.609
97.957	14.259	975.699	741.895
98.972	14.279	974.798	741.235
99.987	14.314	974.072	740.771
101.001	14.292	973.435	740.124
102.016	14.338	972.526	739.571
103.030	14.393	971.231	738.767
104.045	14.257	970.968	737.896
105.060	14.351	969.994	737.509
106.074	14.337	969.162	736.748
107.089	14.159	968.292	735.237
108.103	14.080	967.370	734.121
109.118	14.085	966.279	733.251
110.133	14.041	965.650	732.516
111.147	14.016	964.648	731.582
112.162	14.198	963.627	731.540
113.176	14.119	962.821	730.518
114.191	14.162	962.234	730.197
115.206	14.195	961.296	729.563
116.220	14.145	960.463	728.649
117.235	14.065	960.219	728.048
118.249	13.999	959.282	726.984
119.264	14.118	958.083	726.530
120.279	14.071	957.232	725.615
121.293	14.039	956.730	725.031
122.308	13.913	956.298	724.091
123.322	13.964	955.048	723.301
124.337	14.052	953.905	722.755
125.352	13.893	953.309	721.552
126.366	13.987	951.899	720.826
127.381	13.981	950.872	719.959
128.395	13.975	949.645	718.939
129.410	14.176	948.739	719.061
130.424	13.948	948.172	717.580
131.439	13.915	947.798	717.095
132.454	14.070	946.363	716.613
133.468	14.023	945.943	716.029
134.483	14.234	945.165	716.284
135.497	14.112	944.539	715.220
136.512	14.130	943.619	714.538
137.527	14.098	942.945	713.828
138.541	14.205	942.231	713.685
139.556	14.257	941.193	713.057
140.570	14.133	940.768	712.139
141.585	14.189	940.078	711.794
142.600	14.395	939.242	711.979
143.614	14.385	938.697	711.458
144.629	14.445	937.926	711.070
145.643	14.453	937.023	710.357
146.658	14.356	936.582	709.543
147.673	14.487	935.553	709.259
148.687	14.334	934.648	707.861
149.702	14.250	934.066	707.001
150.716	14.032	933.231	705.380
151.731	14.259	932.299	705.575
152.746	14.127	931.934	704.681
153.760	14.171	930.524	703.738
154.775	14.333	930.097	704.034
155.789	14.403	929.249	703.626
156.804	14.291	928.635	702.628
157.819	14.304	928.179	702.274
158.833	14.501	927.306	702.381
159.848	14.353	926.579	701.146
160.862	14.563	925.783	701.367
161.877	14.405	925.205	700.203
162.892	14.511	924.268	699.876
163.906	14.303	923.436	698.312
164.921	14.371	922.637	697.928
165.935	14.312	921.974	697.120
166.950	14.286	921.001	696.215
167.964	14.243	920.240	695.396
168.979	14.387	919.141	695.107
169.994	14.333	917.982	693.942
171.008	14.434	917.065	693.608
172.023	14.468	916.262	693.082
173.037	14.391	915.810	692.358
174.052	14.549	914.636	692.064
175.067	14.504	914.272	691.543
176.081	14.472	913.470	690.742
177.096	14.317	912.448	689.268
178.110	14.294	911.908	688.702
179.125	14.355	910.979	688.191
180.140	14.436	910.016	687.739
181.154	14.455	909.817	687.604
182.169	14.444	909.132	686.980
183.183	14.640	908.168	686.997
184.198	14.501	907.782	686.074
185.213	14.618	907.241	686.084
186.227	14.538	906.544	685.168
187.242	14.590	906.243	685.096
188.256	14.732	905.243	684.861
189.271	14.847	904.221	684.497
190.286	14.769	904.330	684.198
191.300	14.661	903.225	682.863
192.315	14.399	902.423	681.124
193.329	14.254	902.082	680.215
194.344	14.259	900.787	679.196
195.359	14.405	900.223	679.308
196.373	14.541	899.949	679.596
197.388	14.546	899.523	679.235
198.402	14.733	898.960	679.508
199.417	14.918	898.508	679.861
200.432	14.840	897.692	678.865
201.446	14.893	897.936	679.203
202.461	14.951	897.648	679.162
203.475	15.017	896.798	678.726
204.490	14.956	896.388	678.109
205.504	14.802	895.467	676.730
206.519	14.752	894.703	675.888
207.534	14.811	893.746	675.347
208.548	14.930	892.982	675.187
209.563	14.822	892.286	674.166
210.577	14.944	891.708	674.163
211.592	14.921	890.722	673.265
212.607	14.977	890.680	673.397
213.621	14.958	890.340	673.005
214.636	15.075	889.220	672.568
215.650	14.912	888.561	671.355
216.665	15.059	888.150	671.577
217.680	14.917	888.006	670.838
218.694	15.066	887.236	670.794
219.709	15.188	886.548	670.703
220.723	15.231	885.748	670.210
221.738	15.117	885.542	669.540
222.753	15.033	884.854	668.624
223.767	15.216	883.960	668.620
224.782	15.135	883.149	667.624
225.796	15.187	882.569	667.337
226.811	15.264	881.808	667.009
227.826	15.218	881.373	666.437
228.840	15.091	880.749	665.399
229.855	15.167	879.967	665.052
230.869	15.244	879.152	664.684
231.884	15.204	878.453	663.938
232.899	15.098	878.204	663.270
233.913	15.152	876.852	662.406
234.928	15.133	876.709	662.163
235.942	15.019	875.971	661.095
236.957	15.160	875.171	660.992
237.972	15.126	874.501	660.291
238.986	15.119	873.780	659.660
240.001	15.151	873.095	659.211
241.015	15.165	872.655	658.875
242.030	15.126	872.191	658.314
243.045	15.064	871.721	657.657
244.059	15.210	870.940	657.582
245.074	15.365	870.137	657.528
246.088	15.355	869.462	656.921
247.103	15.337	869.125	656.538
248.117	15.506	868.628	656.762
249.132	15.439	867.961	655.940
250.147	15.601	867.604	656.244
251.161	15.658	867.255	656.146
252.176	15.822	866.064	655.823
253.190	15.740	865.314	654.878
254.205	15.839	864.947	654.929
255.220	15.794	864.604	654.438
256.234	15.894	863.447	653.890
257.249	15.766	862.966	652.970
258.263	15.855	862.714	653.069
259.278	15.775	862.234	652.339
260.293	15.770	862.074	652.141
261.307	15.822	860.968	651.447
262.322	16.035	860.514	651.869
263.336	15.907	859.984	650.917
264.351	15.906	859.565	650.537
265.366	15.974	859.035	650.341
266.380	15.995	858.001	649.580
267.395	15.918	857.818	649.090
268.409	15.954	856.854	648.440
269.424	15.879	855.964	647.422
270.439	15.868	855.300	646.821
271.453	15.895	854.519	646.274
272.468	15.878	853.630	645.481
273.482	15.879	852.810	644.808
274.497	15.906	852.849	644.883
275.512	15.901	852.092	644.236
276.526	15.911	851.354	643.656
277.541	15.882	850.757	643.037
278.555	15.921	850.201	642.709
279.570	15.958	849.537	642.291
280.585	15.982	849.553	642.337
281.599	16.191	848.951	642.624
282.614	16.154	847.854	641.594
283.628	15.869	847.819	640.426
284.643	16.092	847.053	640.639
285.657	16.059	846.346	639.923
286.672	16.100	845.522	639.398
287.687	16.217	844.818	639.254
288.701	16.138	844.791	638.876
289.716	16.185	843.910	638.333
290.730	16.051	843.872	637.741
291.745	16.082	842.903	637.069
292.760	16.163	842.172	636.765
293.774	16.223	841.922	636.747
294.789	16.183	841.328	636.090
295.803	16.359	840.242	635.875
296.818	16.195	839.848	634.904
297.833	16.115	839.278	634.115
298.847	16.179	838.426	633.658
299.862	16.453	837.734	634.105
300.876	16.284	837.565	633.286
301.891	16.379	836.678	632.917
302.906	16.342	836.185	632.349
303.920	16.551	835.393	632.474
304.935	16.592	834.759	632.092
305.949	16.638	833.949	631.597
306.964	16.522	833.797	630.993
307.979	16.430	833.051	630.029
308.993	16.560	832.895	630.338
310.008	16.622	832.164	629.959
311.022	16.693	831.624	629.761
312.037	16.677	831.261	629.372
313.052	16.415	831.075	628.202
314.066	16.453	829.988	627.464
315.081	16.475	829.336	626.997
316.095	16.525	828.679	626.630
317.110	16.473	828.286	626.084
318.125	16.315	828.054	625.271
319.139	16.402	827.334	624.992
320.154	16.395	827.259	624.856
321.168	16.458	826.339	624.339
322.183	16.557	825.461	623.983
323.197	16.474	825.803	623.880
324.212	16.539	824.715	623.245
325.227	16.632	823.971	622.968
326.241	16.690	823.582	622.832
327.256	16.623	823.031	622.113
328.270	16.539	822.249	621.160
329.285	16.577	821.801	620.905
330.300	16.572	821.458	620.573
331.314	16.778	820.590	620.617
332.329	16.590	820.085	619.494
333.343	16.771	819.628	619.756
334.358	16.777	818.819	619.110
335.373	16.814	818.442	618.904
336.387	16.620	818.293	618.028
337.402	16.770	817.449	617.886
338.416	16.767	817.187	617.619
339.431	16.845	816.544	617.363
340.446	16.895	816.236	617.259
341.460	16.962	815.378	616.797
342.475	17.068	814.905	616.770
343.489	17.073	814.596	616.500
344.504	17.114	814.023	616.162
345.519	17.141	813.287	615.650
346.533	17.138	812.913	615.300
347.548	17.151	812.553	615.019
348.562	17.019	811.853	613.957
349.577	16.979	811.234	613.291
350.592	16.924	811.114	612.948
351.606	17.020	810.237	612.576
352.621	16.804	810.317	611.804
353.635	16.880	809.514	611.417
354.650	17.041	808.863	611.451
355.665	16.968	808.859	611.130
356.679	16.973	808.231	610.620
357.694	17.246	807.553	611.036
358.708	17.124	806.899	610.049
359.723	16.988	806.816	609.444
360.738	17.168	806.098	609.495
361.752	17.112	805.752	608.977
362.767	17.140	805.163	608.578
363.781	17.170	805.068	608.558
364.796	17.315	804.297	608.440
365.810	17.371	803.977	608.346
366.825	17.493	803.626	608.462
367.840	17.331	803.410	607.665
368.854	17.560	802.329	607.613
369.869	17.465	802.327	607.219
370.883	17.440	801.501	606.452
371.898	17.304	801.068	605.584
372.913	17.433	800.457	605.528
373.927	17.421	800.228	605.258
374.942	17.503	799.236	604.745
375.956	17.482	798.882	604.350
376.971	17.492	798.338	603.920
377.986	17.463	797.831	603.381
379.000	17.758	796.877	603.650
380.015	17.712	796.693	603.295
381.029	17.678	796.625	603.071
382.044	17.576	795.823	602.049
383.059	17.660	794.997	601.667
384.073	17.702	794.782	601.600
385.088	17.673	794.243	601.034
386.102	17.483	793.746	599.936
387.117	17.606	793.000	599.752
388.132	17.669	792.258	599.361
389.146	17.476	792.134	598.533
390.161	17.606	792.065	598.886
391.175	17.706	791.348	598.643
392.190	17.694	791.121	598.376
393.205	17.619	790.588	597.656
394.219	17.903	790.005	598.157
395.234	17.750	789.517	597.202
396.248	17.731	788.908	596.620
397.263	17.469	788.659	595.464
398.278	17.486	788.232	595.146
399.292	17.519	787.612	594.741
400.307	17.642	787.217	594.821
401.321	17.546	787.260	594.463
402.336	17.647	786.415	594.126
403.350	17.676	786.238	594.041
404.365	17.746	785.845	593.935
405.380	17.822	785.201	593.660
406.394	17.790	784.744	593.150
407.409	18.010	784.306	593.534
408.423	17.927	784.224	593.129
409.438	17.934	783.782	592.767
410.453	18.117	783.298	592.984
411.467	17.938	782.936	592.036
412.482	18.121	782.381	592.199
413.496	18.269	781.695	592.138
414.511	18.095	781.766	591.538
415.526	18.243	780.881	591.327
416.540	18.031	780.799	590.478
417.555	18.144	780.559	590.638
418.569	18.095	779.765	589.816
419.584	18.254	779.319	589.974
420.599	18.177	778.941	589.368
421.613	157.011	1369.418	1795.272
422.628	135.484	1455.439	1795.383
