DTS Sentinel unit serial number:	SN413079Multiplexer serial number:	ORYXHardware model number:	OX4-SRSoftware version number:	ORYX F/W v4.00 Oryx Data Collector v3.7.2.0data status	okinstallation	princeton_trtdifferential loss correction	single-endedforward channel	channel 3reverse channel	N/Adate	2019/09/19time	01:08:35forward acquisition time	60.00reverse acquisition time	0.00gamma	496.2192k internal	0.2347k external	0.2347temperature offset calibration	0.9993default loss term (dB/km)	0.3790temperature slope calibration	1.0000multiplexer offset coefficient	1.0000multiplexer slope coefficient	1.0000fibre end	0.00T internal ref (°C)	21.81T ext. ref 1 (°C)	0.72T ext. ref 2 (°C)	15.31length (m)	temperature (°C)	Stokes	anti-Stokes-747.200	-91.451	0.118	-0.034
-746.185	-54.456	-0.189	0.085
-745.171	-33.166	0.225	0.125
-744.156	-54.642	-0.174	0.079
-743.142	267.958	0.164	0.287
-742.127	-200.000	0.001	-0.007
-741.112	-84.079	0.159	0.050
-740.098	-200.000	-0.007	-0.181
-739.083	239.707	-0.113	0.188
-738.069	98.933	-0.071	0.082
-737.054	54.105	-0.169	0.162
-736.039	-75.502	-0.180	-0.064
-735.025	46.163	-0.058	0.054
-734.010	-200.000	0.057	-0.329
-732.996	-150.771	-0.233	0.018
-731.981	48.279	-0.088	-0.082
-730.966	39.969	-0.256	-0.230
-729.952	-117.545	0.027	0.005
-728.937	281.582	-0.191	-0.342
-727.923	-64.962	-0.367	-0.148
-726.908	-9.716	0.205	-0.136
-725.894	4.959	-0.216	0.159
-724.879	39.406	-0.342	-0.306
-723.864	-200.000	0.001	0.040
-722.850	41.047	-0.116	-0.104
-721.835	-200.000	-0.076	-0.396
-720.821	800.000	0.036	-0.114
-719.806	114.585	-0.111	0.135
-718.791	-12.746	-0.093	-0.061
-717.777	201.960	0.046	0.071
-716.762	-148.468	0.499	-0.041
-715.748	261.757	-0.091	0.158
-714.733	-74.854	-0.066	-0.024
-713.718	452.399	0.115	-0.253
-712.704	3.129	0.200	0.145
-711.689	21.200	-0.148	-0.120
-710.675	-16.617	0.058	-0.037
-709.660	98.633	0.139	0.160
-708.645	800.000	0.056	-0.196
-707.631	-20.431	-0.311	-0.191
-706.616	800.000	0.071	-0.289
-705.602	-97.296	-0.239	-0.062
-704.587	154.140	-0.366	-0.501
-703.572	-158.019	0.092	-0.005
-702.558	-167.572	-0.064	0.003
-701.543	143.879	-0.264	-0.351
-700.529	-200.000	0.045	-0.211
-699.514	-47.893	0.084	-0.041
-698.499	-89.240	0.266	-0.078
-697.485	-66.862	-0.323	-0.127
-696.470	-20.712	0.041	0.025
-695.456	54.260	0.199	0.191
-694.441	44.541	-0.202	-0.185
-693.426	289.404	0.011	0.020
-692.412	-200.000	0.012	0.205
-691.397	-200.000	0.128	0.001
-690.383	53.598	-0.353	0.338
-689.368	-40.980	0.214	-0.110
-688.354	213.583	-0.034	-0.053
-687.339	80.527	0.301	0.324
-686.324	113.724	-0.238	-0.288
-685.310	145.354	0.195	-0.260
-684.295	-152.945	0.095	-0.007
-683.281	-19.675	0.149	0.092
-682.266	-200.000	0.015	0.190
-681.251	29.817	-0.220	-0.187
-680.237	-125.966	-0.144	0.022
-679.222	-140.419	-0.218	0.023
-678.208	-182.223	-0.087	-0.002
-677.193	-112.895	-0.260	-0.051
-676.178	551.509	0.107	-0.255
-675.164	2.230	-0.366	-0.263
-674.149	-84.362	-0.410	-0.129
-673.135	-43.429	0.202	-0.102
-672.120	281.864	0.085	-0.151
-671.105	800.000	-0.069	-0.209
-670.091	-200.000	-0.053	0.251
-669.076	436.663	0.098	0.213
-668.062	-48.687	0.067	0.032
-667.047	-87.574	-0.158	0.048
-666.032	349.156	0.055	-0.108
-665.018	-161.838	0.435	-0.022
-664.003	158.572	-0.160	0.221
-662.989	629.450	0.081	-0.203
-661.974	-14.081	-0.219	-0.141
-660.959	319.130	0.149	-0.280
-659.945	60.618	0.164	0.162
-658.930	113.184	0.160	-0.193
-657.916	189.575	-0.106	-0.159
-656.901	-200.000	0.011	0.111
-655.886	-21.707	-0.249	0.151
-654.872	800.000	-0.074	-0.261
-653.857	731.387	-0.105	-0.279
-652.843	800.000	0.017	0.063
-651.828	273.139	0.073	0.128
-650.814	-200.000	0.006	-0.040
-649.799	170.782	0.038	0.054
-648.784	584.281	0.054	-0.131
-647.770	120.935	0.182	-0.226
-646.755	-200.000	-0.013	-0.433
-645.741	-200.000	0.018	-0.153
-644.726	74.277	0.141	-0.147
-643.711	207.670	0.164	0.254
-642.697	-89.915	-0.287	-0.083
-641.682	-130.545	0.416	0.056
-640.668	29.180	0.207	0.175
-639.653	-143.294	-0.074	-0.007
-638.638	164.206	-0.123	-0.173
-637.624	-142.191	-0.348	0.034
-636.609	22.030	0.302	-0.246
-635.595	-138.216	0.089	0.010
-634.580	52.346	0.033	0.032
-633.565	-49.758	-0.207	-0.098
-632.551	800.000	-0.013	-0.056
-631.536	-16.928	-0.138	0.087
-630.522	378.428	-0.190	0.386
-629.507	5.335	0.072	-0.053
-628.492	-9.165	-0.267	-0.178
-627.478	168.682	0.032	-0.045
-626.463	-163.556	-0.373	-0.018
-625.449	364.554	-0.188	0.377
-624.434	104.581	0.158	-0.185
-623.419	-200.000	-0.018	0.156
-622.405	800.000	0.092	0.324
-621.390	-33.165	0.140	0.077
-620.376	-116.198	-0.248	0.046
-619.361	256.048	0.058	-0.099
-618.346	-174.281	-0.348	0.010
-617.332	-153.667	0.281	-0.019
-616.317	-118.497	-0.024	-0.004
-615.303	493.047	0.037	0.084
-614.288	-200.000	-0.014	0.157
-613.273	383.451	0.080	0.164
-612.259	-200.000	0.019	-0.301
-611.244	800.000	0.045	0.190
-610.230	-120.908	-0.154	-0.026
-609.215	-150.658	0.094	-0.007
-608.201	-55.334	-0.139	-0.062
-607.186	800.000	-0.071	0.254
-606.171	-200.000	0.370	0.001
-605.157	-200.000	0.004	0.163
-604.142	-162.471	0.146	-0.007
-603.128	239.648	0.097	-0.161
-602.113	336.980	0.052	0.101
-601.098	-200.000	-0.042	-0.193
-600.084	800.000	-0.035	-0.121
-599.069	-20.284	-0.103	-0.063
-598.055	-19.021	0.173	0.107
-597.040	-45.047	-0.322	0.159
-596.025	339.777	0.166	-0.321
-595.011	-78.742	-0.334	0.113
-593.996	-200.000	-0.012	0.243
-592.982	-100.753	-0.198	0.049
-591.967	-200.000	0.016	0.078
-590.952	-200.000	-0.008	0.319
-589.938	81.114	-0.193	0.207
-588.923	-86.468	0.125	0.038
-587.909	-113.627	0.236	0.046
-586.894	75.166	-0.297	-0.311
-585.879	-70.553	0.117	0.044
-584.865	-200.000	0.008	-0.329
-583.850	-67.504	0.244	0.095
-582.836	-69.127	-0.196	-0.075
-581.821	-15.572	0.101	-0.064
-580.806	-190.530	-0.248	-0.003
-579.792	126.223	-0.188	-0.236
-578.777	-150.043	-0.267	-0.021
-577.763	275.225	-0.106	-0.187
-576.748	-200.000	-0.022	0.423
-575.733	172.115	0.058	-0.083
-574.719	-152.101	-0.386	-0.028
-573.704	-6.407	0.259	-0.176
-572.690	184.607	-0.082	0.121
-571.675	15.568	0.140	0.109
-570.661	124.254	0.130	0.162
-569.646	243.502	-0.189	-0.315
-568.631	-200.000	0.006	0.110
-567.617	-148.496	-0.271	-0.022
-566.602	-29.904	0.066	0.038
-565.588	-124.171	-0.111	0.017
-564.573	570.926	-0.074	-0.179
-563.558	242.730	0.101	0.168
-562.544	171.099	0.102	-0.145
-561.529	-177.849	0.048	0.001
-560.515	-200.000	-0.032	-0.346
-559.500	417.701	0.081	0.172
-558.485	800.000	-0.060	-0.194
-557.471	-119.323	0.214	-0.037
-556.456	-200.000	0.007	-0.323
-555.442	13.163	0.286	-0.220
-554.427	-148.131	-0.293	0.024
-553.412	13.372	-0.067	-0.051
-552.398	-69.176	-0.115	0.044
-551.383	-38.442	-0.359	-0.188
-550.369	575.435	-0.173	-0.418
-549.354	113.677	-0.193	0.233
-548.339	-32.571	-0.174	0.096
-547.325	552.096	0.201	0.479
-546.310	-64.670	0.159	-0.064
-545.296	-200.000	-0.004	-0.424
-544.281	800.000	-0.093	-0.313
-543.266	-200.000	0.108	-0.545
-542.252	-58.625	0.399	-0.171
-541.237	-46.593	-0.500	0.243
-540.223	-55.313	0.011	0.005
-539.208	776.786	-0.047	-0.126
-538.193	800.000	0.099	0.305
-537.179	-200.000	-0.009	0.106
-536.164	800.000	-0.091	-0.300
-535.150	-95.245	0.357	-0.095
-534.135	653.222	0.144	-0.366
-533.121	550.651	0.098	0.232
-532.106	-171.146	0.200	0.007
-531.091	-45.710	-0.286	-0.140
-530.077	155.090	0.242	-0.329
-529.062	3.177	-0.011	-0.008
-528.048	92.699	0.137	0.153
-527.033	-200.000	0.039	-0.286
-526.018	-200.000	-0.001	-0.215
-525.004	-74.008	-0.266	0.096
-523.989	44.836	-0.210	-0.191
-522.975	800.000	0.073	0.311
-521.960	-200.000	0.059	-0.298
-520.945	-200.000	0.052	0.248
-519.931	68.720	0.118	-0.120
-518.916	403.138	-0.089	-0.185
-517.902	-32.778	-0.242	0.133
-516.887	-200.000	0.037	0.360
-515.872	89.527	-0.060	-0.066
-514.858	-200.000	0.026	0.183
-513.843	-99.410	-0.445	0.111
-512.829	-200.000	-0.015	-0.077
-511.814	-200.000	-0.010	0.144
-510.799	82.385	0.092	-0.099
-509.785	-102.949	0.145	0.034
-508.770	-200.000	-0.005	0.030
-507.756	105.007	0.109	0.127
-506.741	112.607	-0.096	-0.115
-505.726	150.785	-0.288	0.388
-504.712	-69.131	-0.408	-0.156
-503.697	-31.891	0.039	0.022
-502.683	-200.000	-0.009	0.093
-501.668	-200.000	0.022	0.391
-500.653	749.223	-0.063	0.167
-499.639	-69.479	0.160	0.061
-498.624	800.000	0.026	0.108
-497.610	-71.202	-0.240	-0.089
-496.595	-40.243	0.227	0.117
-495.581	156.111	-0.030	-0.041
-494.566	800.000	-0.141	0.398
-493.551	95.001	-0.138	-0.155
-492.537	-49.721	0.231	0.109
-491.522	117.139	0.189	0.230
-490.508	800.000	-0.121	0.497
-489.493	100.468	-0.032	-0.037
-488.478	229.069	0.054	-0.088
-487.464	-200.000	0.009	0.170
-486.449	-1.966	0.111	0.077
-485.435	366.906	0.059	-0.117
-484.420	108.299	-0.313	-0.369
-483.405	-151.107	0.128	0.010
-482.391	-200.000	-0.043	-0.241
-481.376	21.721	-0.113	0.091
-480.362	-65.045	-0.102	-0.041
-479.347	339.211	0.147	0.284
-478.332	-79.937	-0.282	0.094
-477.318	77.426	0.100	-0.105
-476.303	800.000	-0.117	-0.406
-475.289	-13.749	-0.176	0.112
-474.274	800.000	0.076	0.268
-473.259	800.000	-0.068	0.272
-472.245	-190.337	0.310	0.003
-471.230	153.346	-0.255	0.345
-470.216	800.000	-0.093	-0.367
-469.201	-80.602	0.408	-0.134
-468.186	-102.382	0.129	0.031
-467.172	57.834	0.126	-0.122
-466.157	391.062	0.075	-0.154
-465.143	-14.451	0.241	-0.154
-464.128	55.710	0.156	0.150
-463.113	-200.000	-0.004	-0.095
-462.099	-82.034	-0.302	0.097
-461.084	800.000	-0.080	-0.249
-460.070	-200.000	-0.002	0.192
-459.055	-104.545	-0.201	-0.046
-458.040	610.155	-0.059	-0.145
-457.026	-80.348	-0.090	-0.030
-456.011	-27.640	-0.161	0.093
-454.997	55.905	0.052	0.050
-453.982	-151.768	0.205	-0.015
-452.968	779.245	-0.084	-0.226
-451.953	246.762	0.027	-0.045
-450.938	113.244	0.107	0.128
-449.924	-45.587	0.185	-0.091
-448.909	-100.660	-0.243	-0.059
-447.895	-22.681	0.163	0.097
-446.880	373.054	0.029	-0.059
-445.865	-49.118	0.149	-0.070
-444.851	-136.228	-0.470	0.054
-443.836	657.637	-0.042	0.106
-442.822	-25.617	-0.081	0.047
-441.807	377.778	-0.064	-0.130
-440.792	-200.000	-0.066	-0.427
-439.778	-180.287	-0.182	-0.004
-438.763	-71.039	0.104	-0.039
-437.749	-200.000	0.014	0.146
-436.734	-100.586	0.136	-0.033
-435.719	-123.108	0.208	0.033
-434.705	-1.688	0.248	0.172
-433.690	-200.000	0.017	0.227
-432.676	800.000	-0.064	-0.201
-431.661	44.301	0.014	-0.012
-430.646	-190.615	0.100	0.001
-429.632	-193.172	0.346	-0.003
-428.617	-168.142	-0.225	0.009
-427.603	-92.441	0.067	0.018
-426.588	-85.882	0.338	0.103
-425.573	15.859	-0.115	-0.090
-424.559	-110.814	-0.269	0.055
-423.544	-89.623	-0.236	0.068
-422.530	-43.262	-0.081	-0.041
-421.515	-200.000	0.018	-0.079
-420.500	-200.000	0.083	-0.407
-419.486	37.035	0.211	0.184
-418.471	-37.818	-0.198	-0.104
-417.457	161.392	0.023	0.032
-416.442	-61.318	-0.200	-0.083
-415.428	16.824	-0.182	0.142
-414.413	800.000	-0.075	0.228
-413.398	147.465	0.104	-0.138
-412.384	602.084	0.047	-0.115
-411.369	-200.000	0.035	-0.164
-410.355	21.811	0.345	-0.277
-409.340	-159.580	-0.193	-0.011
-408.325	-174.527	0.248	0.007
-407.311	-169.873	-0.200	0.007
-406.296	-147.892	-0.283	-0.023
-405.282	304.643	-0.220	0.402
-404.267	-38.373	-0.309	0.161
-403.252	360.067	0.052	0.103
-402.238	188.577	-0.016	-0.024
-401.223	629.877	-0.142	-0.355
-400.209	343.151	0.143	-0.277
-399.194	-70.131	0.255	-0.096
-398.179	591.140	-0.036	-0.087
-397.165	-0.950	0.114	0.080
-396.150	-29.128	-0.099	-0.056
-395.136	216.980	-0.118	0.185
-394.121	253.744	-0.033	-0.055
-393.106	-104.035	-0.182	-0.042
-392.092	39.640	0.393	0.347
-391.077	800.000	-0.113	0.426
-390.063	-117.857	0.273	-0.048
-389.048	-29.655	0.313	-0.176
-388.033	772.219	0.103	0.278
-387.019	-200.000	0.021	-0.208
-386.004	496.821	0.148	0.335
-384.990	-142.044	-0.281	0.028
-383.975	-108.386	-0.326	-0.069
-382.960	-200.000	-0.039	0.306
-381.946	-200.000	-0.019	-0.191
-380.931	-54.312	0.240	-0.107
-379.917	258.750	-0.077	0.131
-378.902	-101.657	-0.378	0.090
-377.888	483.981	-0.017	0.039
-376.873	96.000	-0.036	0.041
-375.858	-20.273	0.053	0.032
-374.844	800.000	0.023	-0.093
-373.829	-22.060	0.087	-0.052
-372.815	79.618	-0.245	0.259
-371.800	-14.961	0.165	-0.104
-370.785	-200.000	-0.010	0.112
-369.771	-87.135	-0.178	-0.053
-368.756	-141.203	-0.094	-0.009
-367.742	636.523	0.104	0.259
-366.727	-145.911	-0.276	0.024
-365.712	497.815	0.117	-0.264
-364.698	800.000	0.106	-0.293
-363.683	-125.345	-0.167	0.025
-362.669	800.000	0.064	0.211
-361.654	112.329	0.074	0.088
-360.639	-200.000	-0.009	0.319
-359.625	-64.052	-0.117	0.047
-358.610	-119.207	-0.093	-0.016
-357.596	748.333	0.066	-0.174
-356.581	30.093	-0.279	-0.234
-355.566	-111.339	0.301	0.060
-354.552	-37.626	-0.162	-0.085
-353.537	-200.000	-0.008	-0.210
-352.523	-104.185	0.168	-0.038
-351.508	244.938	0.068	-0.113
-350.493	-200.000	0.049	0.253
-349.479	168.633	0.076	-0.107
-348.464	173.058	-0.295	-0.419
-347.450	-194.408	0.115	0.001
-346.435	298.857	-0.054	-0.098
-345.420	269.424	0.153	0.264
-344.406	-142.195	0.221	-0.022
-343.391	401.791	0.064	-0.132
-342.377	710.172	-0.112	-0.291
-341.362	-46.571	-0.083	-0.040
-340.348	437.477	-0.116	-0.248
-339.333	-177.439	-0.165	-0.004
-338.318	-57.856	-0.325	0.140
-337.304	17.540	0.194	0.152
-336.289	83.589	0.013	-0.014
-335.275	800.000	0.063	0.181
-334.260	423.443	-0.035	0.073
-333.245	419.652	-0.120	-0.252
-332.231	141.334	0.222	0.289
-331.216	800.000	-0.023	-0.085
-330.202	199.734	0.223	0.336
-329.187	-11.883	0.208	-0.134
-328.172	686.786	-0.068	-0.175
-327.158	-53.140	-0.100	0.045
-326.143	39.395	0.058	0.051
-325.129	-62.632	-0.029	-0.012
-324.114	-121.979	-0.168	-0.027
-323.099	800.000	-0.084	0.262
-322.085	-159.963	-0.051	0.003
-321.070	3.477	-0.150	0.107
-320.056	21.890	0.105	0.084
-319.041	103.394	-0.335	0.386
-318.026	157.614	0.284	0.387
-317.012	364.679	-0.113	0.223
-315.997	55.548	0.060	-0.057
-314.983	-75.018	0.088	-0.031
-313.968	207.680	0.203	-0.312
-312.953	-52.617	-0.450	-0.204
-311.939	450.411	0.038	0.081
-310.924	800.000	-0.064	0.224
-309.910	-200.000	0.341	-0.001
-308.895	741.247	0.135	0.355
-307.880	19.108	-0.118	-0.093
-306.866	-200.000	0.051	0.221
-305.851	325.116	-0.149	0.280
-304.837	-200.000	0.086	0.375
-303.822	-200.000	-0.012	0.097
-302.807	-200.000	0.003	-0.456
-301.793	212.773	0.084	-0.130
-300.778	-200.000	0.014	-0.119
-299.764	195.557	-0.193	-0.288
-298.749	-156.753	-0.191	0.012
-297.735	-185.461	0.162	-0.002
-296.720	-200.000	0.024	-0.273
-295.705	-200.000	-0.024	-0.158
-294.691	210.686	0.093	-0.144
-293.676	-192.896	-0.211	0.002
-292.662	-92.411	-0.408	-0.113
-291.647	214.016	0.149	0.231
-290.632	451.084	0.067	-0.145
-289.618	57.305	0.091	-0.087
-288.603	-200.000	-0.010	0.060
-287.589	91.656	0.222	-0.245
-286.574	-80.281	-0.144	-0.047
-285.559	298.270	-0.083	-0.149
-284.545	-200.000	-0.007	0.250
-283.530	95.974	-0.047	-0.053
-282.516	-7.318	0.140	-0.093
-281.501	96.817	-0.109	0.123
-280.486	-140.501	0.174	-0.018
-279.472	5.632	-0.100	-0.072
-278.457	-200.000	-0.002	-0.134
-277.443	-105.298	-0.195	0.044
-276.428	-7.758	0.128	0.085
-275.413	-200.000	-0.055	0.269
-274.399	-123.328	0.223	-0.035
-273.384	-200.000	-0.008	0.177
-272.370	231.522	0.182	-0.293
-271.355	279.739	0.148	-0.259
-270.340	800.000	0.073	0.209
-269.326	-94.736	0.224	-0.060
-268.311	-200.000	0.008	-0.244
-267.297	382.733	-0.081	-0.164
-266.282	-182.500	-0.264	0.005
-265.267	-169.893	0.311	0.011
-264.253	62.781	0.232	0.227
-263.238	-12.394	0.151	0.097
-262.224	-200.000	0.017	0.138
-261.209	-34.696	0.214	-0.115
-260.195	-200.000	0.024	0.201
-259.180	119.958	0.212	0.258
-258.165	56.714	0.133	-0.127
-257.151	-11.892	-0.109	-0.070
-256.136	323.877	0.089	-0.167
-255.122	-70.473	-0.030	0.011
-254.107	98.300	-0.229	0.258
-253.092	218.292	0.054	0.085
-252.078	-136.013	0.106	0.012
-251.063	-138.464	0.265	-0.029
-250.049	39.252	0.063	-0.055
-249.034	28.408	0.140	0.116
-248.019	-93.456	0.147	-0.040
-247.005	-175.158	0.204	-0.006
-245.990	-200.000	0.018	-0.339
-244.976	-141.196	-0.342	-0.034
-243.961	199.414	0.096	0.144
-242.946	386.615	0.152	0.308
-241.932	634.639	-0.118	0.293
-240.917	-182.119	0.271	0.005
-239.903	-200.000	0.029	-0.362
-238.888	800.000	-0.075	-0.216
-237.873	570.624	0.119	0.284
-236.859	244.286	-0.077	-0.126
-235.844	-200.000	-0.021	0.197
-234.830	326.092	0.047	-0.088
-233.815	-200.000	-0.007	0.092
-232.800	800.000	-0.063	0.229
-231.786	-77.142	0.302	-0.103
-230.771	-143.270	0.111	-0.010
-229.757	160.175	-0.150	0.205
-228.742	800.000	0.031	-0.089
-227.727	-200.000	-0.006	-0.285
-226.713	-177.111	-0.155	0.004
-225.698	796.521	0.053	-0.142
-224.684	-200.000	-0.050	-0.232
-223.669	124.862	-0.117	-0.144
-222.655	-144.306	-0.043	-0.004
-221.640	-29.645	-0.200	-0.112
-220.625	212.869	0.029	-0.045
-219.611	-55.894	-0.113	-0.049
-218.596	271.019	0.216	0.373
-217.582	-123.667	0.133	0.021
-216.567	-58.854	-0.043	0.018
-215.552	54.794	0.069	-0.065
-214.538	164.573	0.192	0.265
-213.523	-56.525	0.101	0.044
-212.509	91.353	0.305	-0.336
-211.494	135.295	-0.194	0.247
-210.479	190.207	-0.156	0.229
-209.465	-117.090	-0.112	0.020
-208.450	-64.763	-0.076	-0.030
-207.436	-121.125	0.181	0.030
-206.421	599.246	-0.079	0.192
-205.406	-200.000	0.015	-0.486
-204.392	262.488	-0.098	0.167
-203.377	-200.000	0.101	0.502
-202.363	-200.000	-0.043	0.336
-201.348	432.676	0.120	0.254
-200.333	277.317	-0.068	0.118
-199.319	51.696	0.134	-0.125
-198.304	800.000	-0.046	0.139
-197.290	-142.070	0.091	-0.009
-196.275	123.319	0.163	0.200
-195.260	-200.000	0.031	0.454
-194.246	-193.964	0.231	0.002
-193.231	-200.000	0.016	0.193
-192.217	-49.891	0.167	0.078
-191.202	94.095	-0.086	0.096
-190.187	-7.189	-0.132	0.087
-189.173	-7.232	0.225	-0.149
-188.158	-123.482	-0.287	0.045
-187.144	253.541	0.094	-0.157
-186.129	7.024	-0.110	0.080
-185.114	50.152	0.009	0.008
-184.100	-104.242	0.297	0.067
-183.085	-7.411	0.124	-0.082
-182.071	-200.000	0.000	-0.126
-181.056	123.149	-0.072	0.089
-180.042	-40.362	0.251	-0.127
-179.027	766.520	-0.085	-0.225
-178.012	-26.901	0.251	-0.143
-176.998	-56.130	0.074	-0.032
-175.983	-34.133	-0.257	-0.138
-174.969	-200.000	0.019	0.232
-173.954	-144.991	-0.370	-0.033
-172.939	225.126	0.199	0.314
-171.925	286.136	0.074	-0.130
-170.910	-155.583	0.147	0.009
-169.896	-54.704	-0.224	-0.099
-168.881	-14.221	0.160	0.101
-167.866	-145.021	-0.117	-0.010
-166.852	-140.188	-0.281	-0.029
-165.837	-120.588	0.154	-0.026
-164.823	-134.221	0.276	0.033
-163.808	-107.951	0.194	-0.041
-162.793	-70.929	0.060	-0.022
-161.779	-200.000	0.054	-0.334
-160.764	-78.799	0.069	0.023
-159.750	-141.274	-0.299	-0.030
-158.735	-89.178	-0.300	-0.087
-157.720	247.642	0.143	-0.237
-156.706	-139.579	-0.128	-0.013
-155.691	-115.870	-0.185	-0.034
-154.677	-157.139	0.359	-0.021
-153.662	800.000	0.060	-0.174
-152.647	-24.257	-0.232	-0.135
-151.633	220.577	0.217	-0.340
-150.618	363.050	-0.191	0.374
-149.604	177.779	0.169	0.241
-148.589	6.126	0.116	-0.084
-147.574	181.606	0.209	-0.300
-146.560	-200.000	0.006	0.126
-145.545	435.677	0.125	-0.265
-144.531	-122.875	0.172	-0.027
-143.516	-49.288	-0.235	-0.110
-142.502	298.913	0.077	0.139
-141.487	-121.125	-0.229	0.037
-140.472	-25.838	0.056	-0.032
-139.458	-147.016	0.102	0.009
-138.443	-94.400	-0.105	-0.028
-137.429	-200.000	-0.038	-0.166
-136.414	-200.000	-0.030	0.465
-135.399	-71.952	0.258	0.094
-134.385	-56.295	0.218	-0.095
-133.370	-146.895	-0.112	0.009
-132.356	-59.774	0.365	-0.152
-131.341	-115.446	0.281	0.052
-130.326	800.000	0.029	0.125
-129.312	-0.186	0.306	0.213
-128.297	-111.565	0.494	0.098
-127.283	-200.000	-0.021	-0.417
-126.268	-159.331	0.193	0.011
-125.253	-200.000	0.047	-0.448
-124.239	-200.000	-0.232	0.001
-123.224	-200.000	-0.002	-0.089
-122.210	-200.000	0.116	0.524
-121.195	-200.000	-0.019	0.244
-120.180	-200.000	0.120	0.000
-119.166	-112.880	-0.179	0.035
-118.151	545.911	0.052	0.122
-117.137	-91.187	0.336	-0.094
-116.122	-200.000	0.013	-0.269
-115.107	-53.672	0.218	-0.097
-114.093	67.374	0.258	-0.256
-113.078	82.261	0.122	-0.129
-112.064	-200.000	-0.034	0.152
-111.049	236.246	-0.025	-0.040
-110.034	25.009	0.230	-0.186
-109.020	-4.942	-0.031	-0.021
-108.005	-86.357	0.165	-0.050
-106.991	800.000	-0.026	0.101
-105.976	-84.136	0.453	0.140
-104.962	800.000	0.082	-0.308
-103.947	-174.268	0.236	-0.007
-102.932	19.013	-0.209	0.163
-101.918	88.135	-0.067	0.072
-100.903	-200.000	0.004	0.090
-99.889	-180.855	0.279	0.006
-98.874	223.321	0.080	-0.125
-97.859	191.385	0.111	-0.163
-96.845	563.098	-0.097	0.229
-95.830	-78.666	0.351	0.117
-94.816	800.000	0.097	-0.315
-93.801	-166.676	0.169	0.007
-92.786	359.904	-0.148	0.288
-91.772	-200.000	0.024	-0.119
-90.757	-75.531	0.333	-0.115
-89.743	0.839	-0.010	0.007
-88.728	82.856	0.149	-0.158
-87.713	257.959	-0.136	-0.228
-86.699	-127.030	0.348	-0.050
-85.684	-104.947	-0.165	0.037
-84.670	-39.505	-0.070	-0.036
-83.655	800.000	-0.075	-0.267
-82.640	800.000	-0.124	0.338
-81.626	-156.577	0.258	0.016
-80.611	30.491	-0.207	0.172
-79.597	-72.959	-0.097	0.035
-78.582	-135.887	-0.307	-0.035
-77.567	-75.735	0.072	0.025
-76.553	135.912	-0.185	-0.235
-75.538	20.820	0.111	-0.087
-74.524	146.158	-0.113	-0.148
-73.509	176.769	0.096	-0.136
-72.494	90.426	-0.128	-0.140
-71.480	322.425	0.072	-0.134
-70.465	315.307	0.026	0.047
-69.451	-71.199	-0.401	-0.147
-68.436	-37.471	-0.102	-0.053
-67.422	-200.000	0.027	-0.337
-66.407	90.600	0.095	0.104
-65.392	-47.917	0.203	0.096
-64.378	21.534	0.032	-0.026
-63.363	286.211	-0.188	0.330
-62.349	-43.566	-0.122	0.060
-61.334	54.501	-1.370	-1.284
-60.319	91.364	0.863	0.943
-59.305	370.578	-0.791	-1.561
-58.290	162.978	0.926	1.265
-57.276	301.926	0.775	1.394
-56.261	-200.000	134.846	688.404
-55.246	354.895	1665.665	3222.010
-54.232	134.939	2799.930	3537.703
-53.217	90.121	2190.507	2382.049
-52.203	31.961	1705.090	1429.070
-51.188	24.938	1526.389	1231.155
-50.173	23.040	1504.822	1200.835
-49.159	47.370	1580.684	1432.370
-48.144	44.111	1590.854	1418.789
-47.130	24.990	1538.526	1241.110
-46.115	22.094	1522.900	1208.560
-45.100	21.908	1518.951	1204.103
-44.086	21.857	1517.160	1202.290
-43.071	21.806	1515.656	1200.697
-42.057	21.704	1514.327	1198.900
-41.042	21.697	1512.699	1197.517
-40.027	21.757	1510.696	1196.293
-39.013	21.756	1509.551	1195.331
-37.998	21.749	1508.304	1194.246
-36.984	21.768	1507.147	1193.415
-35.969	21.756	1505.996	1192.372
-34.954	21.809	1504.641	1191.615
-33.940	21.819	1503.271	1190.551
-32.925	21.770	1501.838	1189.038
-31.911	21.824	1500.370	1188.191
-30.896	21.894	1499.183	1187.680
-29.881	21.856	1498.444	1186.789
-28.867	21.851	1496.748	1185.362
-27.852	21.894	1495.183	1184.367
-26.838	21.834	1493.401	1182.503
-25.823	21.741	1492.147	1180.841
-24.809	21.820	1490.794	1180.254
-23.794	21.893	1489.289	1179.509
-22.779	21.848	1488.235	1178.322
-21.765	21.775	1487.207	1176.974
-20.750	21.825	1485.977	1176.284
-19.736	21.928	1484.581	1175.825
-18.721	21.913	1483.625	1174.923
-17.706	21.862	1483.121	1174.135
-16.692	21.803	1481.808	1172.653
-15.677	21.866	1480.586	1172.058
-14.663	21.772	1479.941	1170.872
-13.648	21.744	1479.255	1170.102
-12.633	21.838	1478.205	1169.849
-11.619	21.772	1477.360	1168.694
-10.604	21.803	1476.422	1168.115
-9.590	21.798	1475.461	1167.273
-8.575	21.884	1474.465	1167.012
-7.560	21.814	1473.876	1166.034
-6.546	21.872	1472.996	1165.674
-5.531	21.689	1472.674	1164.155
-4.517	21.850	1470.700	1163.621
-3.502	21.702	1470.127	1162.138
-2.487	21.838	1468.806	1161.950
-1.473	21.777	1467.762	1160.675
-0.458	21.786	1466.778	1159.909
0.556	20.801	1456.298	1147.726
1.571	17.443	1431.485	1106.276
2.586	13.914	1368.065	1035.212
3.600	12.229	1283.674	961.403
4.615	11.505	1239.924	924.456
5.629	10.129	1183.597	874.944
6.644	5.293	1102.669	790.622
7.659	1.368	1068.172	746.556
8.673	0.778	1063.180	740.110
9.688	0.642	1059.829	737.050
10.702	0.702	1058.408	736.290
11.717	0.749	1055.927	734.725
12.731	2.289	1056.395	742.468
13.746	7.820	1064.315	774.974
14.761	14.166	1072.173	811.680
15.775	17.020	1075.531	828.098
16.790	17.041	1073.919	826.885
17.804	16.084	1071.904	820.605
18.819	15.113	1070.631	814.833
19.834	14.717	1069.021	811.612
20.848	14.530	1068.054	809.896
21.863	14.126	1067.858	807.714
22.877	13.994	1066.677	806.110
23.892	13.891	1065.708	804.806
24.907	13.776	1064.567	803.318
25.921	13.656	1063.945	802.196
26.936	13.711	1063.531	802.082
27.950	13.816	1062.711	801.896
28.965	13.717	1062.295	801.035
29.980	13.842	1061.241	800.773
30.994	13.812	1060.200	799.771
32.009	13.980	1059.081	799.667
33.023	13.978	1058.713	799.306
34.038	13.885	1057.971	798.229
35.053	13.924	1056.810	797.472
36.067	13.843	1055.993	796.397
37.082	13.883	1055.291	795.986
38.096	13.835	1054.635	795.189
39.111	13.933	1053.541	794.765
40.126	13.956	1052.986	794.386
41.140	13.938	1051.566	793.161
42.155	13.721	1050.804	791.479
43.169	13.878	1049.501	791.174
44.184	13.821	1048.626	790.176
45.199	13.862	1047.632	789.549
46.213	13.619	1047.188	787.991
47.228	13.716	1046.085	787.552
48.242	13.819	1044.594	786.848
49.257	13.828	1043.869	786.275
50.271	13.787	1043.100	785.431
51.286	13.740	1041.613	784.019
52.301	13.831	1041.252	784.108
53.315	13.899	1040.080	783.479
54.330	13.911	1039.606	783.109
55.344	13.805	1038.658	781.825
56.359	13.773	1037.548	780.771
57.374	13.772	1037.056	780.324
58.388	13.771	1036.071	779.511
59.403	13.703	1035.454	778.657
60.417	13.795	1034.440	778.258
61.432	13.740	1033.793	777.445
62.447	13.699	1033.208	776.746
63.461	13.774	1032.296	776.342
64.476	13.722	1031.637	775.533
65.490	13.631	1031.138	774.662
66.505	13.631	1030.093	773.811
67.520	13.775	1029.003	773.596
68.534	13.670	1028.385	772.573
69.549	13.803	1027.369	772.359
70.563	13.806	1026.728	771.823
71.578	13.856	1025.949	771.402
72.593	13.709	1024.869	769.839
73.607	13.650	1024.187	768.984
74.622	13.645	1023.217	768.164
75.636	13.645	1022.302	767.412
76.651	13.651	1021.093	766.465
77.666	13.695	1020.555	766.197
78.680	13.628	1020.186	765.538
79.695	13.676	1019.411	765.114
80.709	13.614	1019.016	764.463
81.724	13.742	1017.945	764.183
82.739	13.801	1017.139	763.781
83.753	13.790	1016.309	763.039
84.768	13.828	1015.195	762.310
85.782	13.784	1014.944	761.850
86.797	13.881	1014.126	761.614
87.812	13.926	1012.853	760.799
88.826	13.841	1012.063	759.750
89.841	13.727	1011.795	758.957
90.855	13.822	1010.819	758.592
91.870	13.765	1010.474	758.005
92.884	13.871	1009.391	757.612
93.899	13.774	1008.703	756.583
94.914	13.951	1007.823	756.665
95.928	14.020	1007.092	756.364
96.943	14.009	1006.500	755.801
97.957	13.878	1005.669	754.517
98.972	13.935	1004.570	753.883
99.987	13.847	1004.325	753.231
101.001	14.085	1002.877	753.159
102.016	13.859	1002.340	751.667
103.030	13.926	1001.262	751.092
104.045	14.078	999.737	750.569
105.060	13.966	999.578	749.876
106.074	13.945	998.864	749.180
107.089	13.894	997.821	748.101
108.103	13.675	997.346	746.695
109.118	13.797	996.274	746.376
110.133	13.741	995.496	745.472
111.147	13.850	994.305	745.006
112.162	13.791	993.608	744.154
113.176	13.910	992.501	743.793
114.191	13.912	991.626	743.079
115.206	13.862	990.579	742.002
116.220	13.913	989.839	741.614
117.235	13.740	989.371	740.425
118.249	13.828	988.423	740.041
119.264	13.883	987.641	739.636
120.279	13.800	986.803	738.572
121.293	13.895	985.693	738.100
122.308	13.934	984.960	737.660
123.322	13.770	984.478	736.503
124.337	13.914	982.765	735.794
125.352	13.747	982.194	734.561
126.366	13.773	980.807	733.578
127.381	13.754	980.181	732.959
128.395	13.770	979.092	732.152
129.410	13.967	977.192	731.533
130.424	13.755	977.046	730.426
131.439	13.837	976.058	729.983
132.454	13.900	975.226	729.574
133.468	13.843	974.597	728.788
134.483	13.904	973.680	728.304
135.497	13.820	973.305	727.592
136.512	13.918	972.791	727.571
137.527	13.872	971.571	726.394
138.541	13.861	970.875	725.759
139.556	13.831	970.369	725.188
140.570	13.884	969.364	724.604
141.585	13.793	968.825	723.741
142.600	14.040	968.129	724.233
143.614	14.027	967.291	723.486
144.629	14.121	966.062	722.909
145.643	14.072	965.856	722.478
146.658	14.019	964.902	721.469
147.673	13.935	964.096	720.438
148.687	14.027	963.279	720.167
149.702	13.873	962.364	718.749
150.716	14.094	961.243	718.805
151.731	14.005	960.542	717.831
152.746	13.915	960.089	717.041
153.760	13.960	959.441	716.691
154.775	14.027	958.915	716.521
155.789	14.058	957.770	715.734
156.804	14.020	957.068	714.983
157.819	14.084	956.235	714.574
158.833	14.139	955.634	714.299
159.848	14.166	955.020	713.891
160.862	14.071	954.642	713.138
161.877	14.265	953.336	712.931
162.892	14.240	952.746	712.319
163.906	14.152	951.918	711.262
164.921	14.138	951.069	710.506
165.935	14.216	949.983	709.963
166.950	14.275	949.154	709.531
167.964	14.341	948.269	709.090
168.979	14.248	947.246	707.867
169.994	14.203	946.215	706.842
171.008	14.302	945.299	706.512
172.023	14.252	944.206	705.423
173.037	14.293	943.742	705.188
174.052	14.327	943.274	704.920
175.067	14.370	942.631	704.558
176.081	14.337	941.537	703.539
177.096	14.222	940.604	702.295
178.110	14.213	940.117	701.831
179.125	14.302	939.102	701.384
180.140	14.253	938.311	700.525
181.154	14.275	937.772	700.155
182.169	14.338	936.966	699.756
183.183	14.382	936.237	699.336
184.198	14.492	935.455	699.150
185.213	14.451	935.077	698.634
186.227	14.430	934.302	697.907
187.242	14.485	934.158	697.965
188.256	14.554	933.245	697.510
189.271	14.552	932.277	696.717
190.286	14.552	931.511	696.083
191.300	14.453	930.802	695.078
192.315	14.434	930.012	694.346
193.329	14.348	929.321	693.411
194.344	14.495	928.159	693.094
195.359	14.403	928.318	692.770
196.373	14.334	927.994	692.179
197.388	14.622	927.052	692.612
198.402	14.506	926.863	691.927
199.417	14.459	926.360	691.296
200.432	14.820	925.318	691.952
201.446	14.571	925.573	691.050
202.461	14.798	924.735	691.302
203.475	14.764	924.169	690.677
204.490	14.681	923.682	689.909
205.504	14.713	922.776	689.305
206.519	14.643	922.066	688.425
207.534	14.678	921.301	687.937
208.548	14.741	920.121	687.254
209.563	14.717	919.739	686.811
210.577	14.627	919.095	685.897
211.592	14.611	918.855	685.594
212.607	14.726	918.389	685.655
213.621	14.944	917.374	685.732
214.636	14.877	916.804	684.968
215.650	14.824	915.639	683.823
216.665	14.976	915.458	684.250
217.680	14.989	914.713	683.685
218.694	14.882	914.628	683.124
219.709	14.940	913.939	682.784
220.723	14.904	913.049	681.912
221.738	14.940	912.114	681.300
222.753	14.963	911.568	680.926
223.767	15.013	910.741	680.452
224.782	15.028	909.755	679.716
225.796	15.045	909.412	679.468
226.811	15.059	908.367	678.683
227.826	15.109	907.964	678.524
228.840	15.167	907.090	678.047
229.855	14.974	906.783	676.976
230.869	15.085	906.061	676.826
231.884	15.168	905.153	676.421
232.899	15.048	904.627	675.485
233.913	15.010	904.025	674.824
234.928	15.116	903.021	674.443
235.942	15.050	902.767	673.924
236.957	14.931	902.388	673.103
237.972	15.021	901.352	672.636
238.986	15.246	900.539	672.872
240.001	15.151	899.921	671.969
241.015	14.898	900.013	670.962
242.030	15.189	898.706	671.093
243.045	15.075	897.914	669.987
244.059	15.187	897.472	670.047
245.074	15.101	897.202	669.443
246.088	15.176	896.101	668.861
247.103	15.259	895.660	668.805
248.117	15.303	894.711	668.211
249.132	15.375	894.500	668.283
250.147	15.430	893.683	667.832
251.161	15.421	892.754	667.043
252.176	15.396	892.540	666.724
253.190	15.476	891.564	666.254
254.205	15.570	891.174	666.275
255.220	15.485	890.622	665.465
256.234	15.578	889.899	665.235
257.249	15.536	889.275	664.545
258.263	15.488	888.741	663.896
259.278	15.626	888.278	664.036
260.293	15.596	887.679	663.413
261.307	15.686	886.920	663.140
262.322	15.623	886.594	662.592
263.336	15.529	886.032	661.744
264.351	15.656	885.293	661.630
265.366	15.678	884.455	661.034
266.380	15.747	883.874	660.812
267.395	15.796	883.058	660.337
268.409	15.702	882.526	659.508
269.424	15.818	881.980	659.498
270.439	15.826	881.183	658.875
271.453	15.887	880.170	658.299
272.468	15.839	879.720	657.718
273.482	15.870	878.678	657.000
274.497	15.748	879.085	656.770
275.512	15.842	877.635	655.995
276.526	15.905	876.917	655.645
277.541	15.780	876.204	654.568
278.555	15.930	875.547	654.602
279.570	15.923	875.375	654.387
280.585	15.898	874.555	653.619
281.599	15.999	873.894	653.460
282.614	15.989	873.497	653.068
283.628	15.933	872.907	652.350
284.643	15.958	872.071	651.766
285.657	15.955	871.740	651.450
286.672	15.945	871.268	651.000
287.687	15.932	870.935	650.642
288.701	15.971	870.068	650.090
289.716	16.117	869.562	650.215
290.730	16.137	868.693	649.586
291.745	15.998	868.361	648.744
292.760	16.058	867.513	648.284
293.774	16.116	867.467	648.415
294.789	16.086	866.527	647.539
295.803	16.075	865.841	646.927
296.818	16.104	865.034	646.379
297.833	16.240	864.409	646.376
298.847	16.191	863.719	645.616
299.862	16.068	863.169	644.678
300.876	16.098	862.752	644.424
301.891	16.102	861.830	643.691
302.906	16.270	860.866	643.557
303.920	16.281	860.078	642.951
304.935	16.455	859.330	642.998
305.949	16.427	859.154	642.702
306.964	16.399	858.580	642.111
307.979	16.360	858.047	641.505
308.993	16.496	857.474	641.538
310.008	16.526	856.572	640.918
311.022	16.461	856.429	640.508
312.037	16.398	855.994	639.889
313.052	16.575	855.119	639.846
314.066	16.430	854.853	639.044
315.081	16.362	854.058	638.137
316.095	16.448	853.509	637.995
317.110	16.405	853.071	637.449
318.125	16.434	852.279	636.910
319.139	16.396	852.097	636.575
320.154	16.504	851.669	636.605
321.168	16.436	851.084	635.854
322.183	16.538	850.680	635.880
323.197	16.572	849.957	635.413
324.212	16.623	849.502	635.206
325.227	16.566	848.907	634.491
326.241	16.508	848.605	633.991
327.256	16.520	847.844	633.413
328.270	16.500	847.281	632.861
329.285	16.489	846.526	632.201
330.300	16.548	846.108	632.054
331.314	16.677	845.706	632.178
332.329	16.622	844.595	631.087
333.343	16.612	844.259	630.741
334.358	16.772	843.189	630.480
335.373	16.677	843.155	630.047
336.387	16.784	842.354	629.790
337.402	16.889	841.585	629.549
338.416	16.821	841.243	628.986
339.431	16.859	840.865	628.788
340.446	16.870	840.391	628.422
341.460	16.927	839.774	628.113
342.475	16.867	839.493	627.626
343.489	16.874	838.658	626.971
344.504	16.884	838.361	626.730
345.519	17.071	837.568	626.774
346.533	16.914	837.298	625.937
347.548	16.946	836.687	625.542
348.562	16.950	836.096	625.059
349.577	16.972	835.498	624.638
350.592	16.945	834.768	623.938
351.606	16.820	834.796	623.443
352.621	16.901	834.240	623.272
353.635	16.999	833.681	623.161
354.650	17.099	833.404	623.263
355.665	16.999	832.838	622.418
356.679	17.077	832.330	622.269
357.694	17.064	832.065	621.970
358.708	17.147	831.153	621.538
359.723	17.157	830.627	621.126
360.738	17.080	830.475	620.673
361.752	17.055	829.697	619.946
362.767	17.126	829.097	619.703
363.781	17.089	829.325	619.685
364.796	17.201	828.476	619.402
365.810	17.325	828.034	619.467
366.825	17.290	827.254	618.704
367.840	17.384	827.303	619.028
368.854	17.223	827.159	618.280
369.869	17.243	826.455	617.772
370.883	17.271	825.782	617.313
371.898	17.308	824.944	616.769
372.913	17.312	824.806	616.625
373.927	17.301	823.795	615.774
374.942	17.389	823.158	615.563
375.956	17.457	822.612	615.344
376.971	17.413	822.029	614.696
377.986	17.470	821.505	614.454
379.000	17.609	820.995	614.521
380.015	17.504	820.756	613.908
381.029	17.599	820.077	613.689
382.044	17.580	819.414	613.068
383.059	17.704	818.601	612.853
384.073	17.643	818.375	612.410
385.088	17.601	817.661	611.672
386.102	17.589	817.033	611.103
387.117	17.579	816.983	610.977
388.132	17.721	815.867	610.595
389.146	17.669	815.906	610.386
390.161	17.614	815.477	609.815
391.175	17.618	815.308	609.649
392.190	17.730	814.707	609.545
393.205	17.687	814.249	608.994
394.219	17.704	813.613	608.527
395.234	17.701	813.221	608.167
396.248	17.596	812.901	607.502
397.263	17.719	812.434	607.536
398.278	17.639	811.922	606.816
399.292	17.756	811.150	606.601
400.307	17.805	810.926	606.555
401.321	17.756	810.563	606.053
402.336	17.873	810.102	606.072
403.350	17.911	809.723	605.869
404.365	17.800	809.193	605.024
405.380	17.893	808.653	604.897
406.394	17.924	808.219	604.628
407.409	17.993	807.815	604.518
408.423	17.959	807.229	603.905
409.438	18.049	806.755	603.814
410.453	17.971	806.646	603.405
411.467	18.034	806.316	603.326
412.482	17.958	805.654	602.509
413.496	18.022	805.253	602.384
414.511	18.157	804.631	602.338
415.526	18.133	804.542	602.134
416.540	18.084	803.855	601.395
417.555	18.085	803.584	601.143
418.569	18.106	803.162	600.846
419.584	18.224	802.606	600.793
420.599	17.947	802.737	599.865
421.613	115.877	1299.248	1491.060
422.628	100.076	1371.527	1491.133
