DTS Sentinel unit serial number:	SN413079Multiplexer serial number:	ORYXHardware model number:	OX4-SRSoftware version number:	ORYX F/W v4.00 Oryx Data Collector v3.7.2.0data status	okinstallation	princeton_trtdifferential loss correction	single-endedforward channel	channel 3reverse channel	N/Adate	2019/09/16time	05:00:35forward acquisition time	60.00reverse acquisition time	0.00gamma	496.2192k internal	0.2336k external	0.2336temperature offset calibration	0.9957default loss term (dB/km)	0.3790temperature slope calibration	1.0000multiplexer offset coefficient	1.0000multiplexer slope coefficient	1.0000fibre end	0.00T internal ref (°C)	27.17T ext. ref 1 (°C)	11.00T ext. ref 2 (°C)	21.91length (m)	temperature (°C)	Stokes	anti-Stokes-747.200	-138.585	0.353	-0.039
-746.185	800.000	0.049	0.153
-745.171	33.397	0.161	0.141
-744.156	-62.226	0.052	-0.022
-743.142	-8.729	0.364	-0.245
-742.127	34.522	-0.241	0.212
-741.112	800.000	-0.126	0.476
-740.098	-200.000	0.028	0.335
-739.083	-58.648	-0.296	-0.129
-738.069	348.976	0.113	0.224
-737.054	-200.000	0.051	0.242
-736.039	355.695	0.017	0.035
-735.025	737.563	0.035	-0.095
-734.010	-135.537	-0.456	0.054
-732.996	-178.413	-0.213	-0.005
-731.981	1.838	-0.185	-0.134
-730.966	-200.000	0.009	0.129
-729.952	800.000	-0.167	0.537
-728.937	206.218	0.047	-0.074
-727.923	-90.649	-0.198	-0.057
-726.908	-129.078	-0.201	-0.028
-725.894	107.931	0.220	-0.263
-724.879	-6.959	-0.181	-0.123
-723.864	494.770	0.016	-0.038
-722.850	37.819	0.068	-0.061
-721.835	-162.700	-0.498	0.024
-720.821	-200.000	-0.006	-0.308
-719.806	-53.486	0.218	-0.100
-718.791	-200.000	0.009	-0.119
-717.777	4.800	0.127	-0.094
-716.762	-114.631	-0.489	0.094
-715.748	-200.000	0.033	-0.203
-714.733	-200.000	-0.027	0.212
-713.718	-200.000	0.008	-0.366
-712.704	46.940	0.246	-0.230
-711.689	-200.000	-0.024	0.139
-710.675	-46.999	-0.192	0.094
-709.660	-200.000	0.036	-0.616
-708.645	-57.641	-0.189	-0.083
-707.631	18.630	-0.194	-0.156
-706.616	-66.472	0.101	0.040
-705.602	-2.757	0.196	0.138
-704.587	156.209	0.157	-0.217
-703.572	-200.000	-0.003	0.130
-702.558	-0.692	-0.343	-0.244
-701.543	-200.000	0.050	-0.412
-700.529	-27.640	0.323	-0.188
-699.514	33.776	-0.186	0.162
-698.499	-120.833	-0.203	-0.034
-697.485	551.347	0.047	0.114
-696.470	-137.688	-0.355	0.040
-695.456	-200.000	0.011	0.080
-694.441	-36.121	-0.111	-0.060
-693.426	-200.000	0.017	-0.234
-692.412	-144.767	-0.157	0.014
-691.397	13.255	-0.040	-0.031
-690.383	-134.870	0.351	-0.043
-689.368	-83.096	-0.175	0.057
-688.354	28.028	-0.216	-0.183
-687.339	-68.765	-0.172	0.067
-686.324	-8.888	-0.092	-0.062
-685.310	239.747	0.086	0.143
-684.295	87.326	-0.040	-0.044
-683.281	800.000	0.018	-0.078
-682.266	-137.062	0.076	-0.009
-681.251	-46.102	0.179	-0.088
-680.237	488.014	0.080	0.182
-679.222	80.515	0.209	-0.225
-678.208	62.801	-0.305	-0.306
-677.193	-95.336	0.176	-0.047
-676.178	17.715	0.205	-0.164
-675.164	35.859	-0.009	-0.008
-674.149	55.270	-0.250	0.242
-673.135	58.408	-0.146	0.143
-672.120	-10.132	0.331	-0.220
-671.105	-37.342	-0.260	-0.139
-670.091	469.493	-0.117	-0.263
-669.076	-200.000	0.083	-0.424
-668.062	417.046	0.158	-0.337
-667.047	-180.198	-0.182	-0.004
-666.032	-56.973	-0.223	-0.099
-665.018	156.981	-0.072	0.100
-664.003	-200.000	-0.004	-0.097
-662.989	16.677	-0.138	-0.109
-661.974	-36.358	-0.242	-0.130
-660.959	15.081	0.093	-0.073
-659.945	575.141	-0.074	0.180
-658.930	800.000	-0.072	-0.246
-657.916	71.773	-0.209	0.217
-656.901	27.377	0.086	0.072
-655.886	-72.546	-0.218	0.081
-654.872	-200.000	0.000	0.068
-653.857	640.044	0.045	0.114
-652.843	426.529	0.137	0.296
-651.828	117.401	-0.248	-0.305
-650.814	-80.875	0.281	-0.093
-649.799	-73.866	-0.356	-0.130
-648.784	-200.000	0.033	-0.157
-647.770	-24.670	-0.348	0.207
-646.755	-52.407	-0.295	0.136
-645.741	367.632	-0.171	-0.345
-644.726	-200.000	0.012	0.103
-643.711	-200.000	0.009	0.211
-642.697	69.705	-0.214	-0.221
-641.682	339.173	0.118	-0.229
-640.668	800.000	-0.020	-0.063
-639.653	-92.910	0.475	0.133
-638.638	153.195	-0.225	0.308
-637.624	291.217	0.096	0.174
-636.609	58.540	-0.107	0.105
-635.595	-55.832	0.108	0.048
-634.580	-200.000	-0.000	-0.198
-633.565	148.632	0.217	-0.293
-632.551	9.716	-0.356	-0.270
-631.536	800.000	0.124	-0.490
-630.522	111.751	-0.193	-0.233
-629.507	116.920	-0.254	-0.312
-628.492	-96.416	-0.247	-0.065
-627.478	31.958	0.099	-0.086
-626.463	-73.830	0.072	0.026
-625.449	-200.000	0.017	0.196
-624.434	-101.456	-0.250	-0.061
-623.419	-104.182	0.082	-0.019
-622.405	-93.253	-0.174	-0.048
-621.390	124.850	0.059	0.074
-620.376	166.873	-0.089	-0.126
-619.361	262.436	0.147	-0.255
-618.346	788.816	-0.090	-0.247
-617.332	-59.658	-0.212	0.091
-616.317	-150.575	0.326	0.025
-615.303	-157.496	0.073	0.004
-614.288	-53.319	0.339	-0.155
-613.273	52.415	0.313	0.298
-612.259	-200.000	0.013	0.497
-611.244	-109.755	0.178	-0.037
-610.230	42.700	0.277	0.252
-609.215	-91.627	-0.311	0.089
-608.201	-200.000	0.012	-0.140
-607.186	-200.000	-0.006	-0.074
-606.171	33.190	0.106	-0.092
-605.157	-21.264	-0.287	0.175
-604.142	-200.000	-0.012	-0.176
-603.128	-95.928	-0.159	-0.042
-602.113	118.555	0.135	-0.166
-601.098	-139.749	-0.263	0.028
-600.084	-31.861	-0.109	0.061
-599.069	4.240	0.260	0.190
-598.055	-62.384	0.104	0.043
-597.040	77.178	-0.220	0.234
-596.025	113.863	-0.111	0.135
-595.011	-13.666	-0.108	0.070
-593.996	74.637	-0.070	0.074
-592.982	-29.778	-0.226	0.129
-591.967	-28.928	0.021	0.012
-590.952	34.238	0.159	-0.139
-589.938	783.181	-0.066	-0.182
-588.923	64.848	-0.122	-0.123
-587.909	117.948	0.034	-0.042
-586.894	-200.000	-0.036	0.166
-585.879	258.443	-0.120	-0.206
-584.865	800.000	-0.087	-0.365
-583.850	331.421	0.140	0.269
-582.836	102.221	-0.042	-0.049
-581.821	171.168	0.164	-0.234
-580.806	-70.986	-0.267	-0.100
-579.792	-87.976	-0.211	0.063
-578.777	-85.797	-0.237	0.073
-577.763	-95.199	0.099	0.027
-576.748	-200.000	0.004	-0.206
-575.733	254.311	-0.094	0.161
-574.719	350.668	-0.107	0.211
-573.704	-25.715	0.031	-0.018
-572.690	181.189	-0.168	-0.246
-571.675	-110.446	0.172	0.036
-570.661	96.452	0.114	0.130
-569.646	377.501	-0.136	0.278
-568.631	488.157	0.118	-0.270
-567.617	21.164	0.164	0.133
-566.602	329.260	0.193	-0.370
-565.588	-200.000	0.032	0.141
-564.573	-200.000	-0.014	0.289
-563.558	-97.242	-0.225	0.059
-562.544	-57.112	-0.178	-0.078
-561.529	-110.949	0.285	-0.058
-560.515	151.136	0.306	-0.415
-559.500	800.000	0.083	0.257
-558.485	800.000	-0.047	0.193
-557.471	-200.000	-0.006	-0.073
-556.456	-132.318	-0.217	0.028
-555.442	16.905	0.086	-0.068
-554.427	338.512	-0.163	0.317
-553.412	-200.000	0.015	0.101
-552.398	259.799	0.046	0.079
-551.383	800.000	-0.079	-0.251
-550.369	230.785	0.108	0.177
-549.354	-87.729	0.103	0.031
-548.339	235.307	-0.188	-0.309
-547.325	800.000	0.074	-0.207
-546.310	-91.283	-0.204	0.058
-545.296	-111.013	-0.289	0.059
-544.281	251.936	-0.050	-0.085
-543.266	-41.742	-0.153	-0.078
-542.252	324.494	0.077	-0.147
-541.237	648.119	0.110	-0.281
-540.223	32.403	0.178	0.153
-539.208	-200.000	-0.022	0.290
-538.193	798.686	0.037	0.100
-537.179	-8.554	-0.173	0.116
-536.164	77.162	0.065	0.069
-535.150	-48.825	0.279	0.133
-534.135	-200.000	0.008	0.152
-533.121	-200.000	0.043	-0.198
-532.106	104.680	0.153	-0.180
-531.091	381.947	0.112	-0.229
-530.077	-56.537	-0.062	0.027
-529.062	-200.000	0.019	0.171
-528.048	-22.912	0.152	-0.091
-527.033	320.714	-0.259	-0.490
-526.018	-200.000	-0.024	0.171
-525.004	122.412	-0.145	-0.180
-523.989	39.121	-0.479	0.427
-522.975	-40.699	-0.304	-0.157
-521.960	37.096	0.223	-0.197
-520.945	-137.272	0.240	-0.027
-519.931	-38.221	-0.257	-0.135
-518.916	774.514	0.074	-0.200
-517.902	-110.437	-0.163	-0.034
-516.887	263.293	0.056	0.097
-515.872	-200.000	0.004	-0.365
-514.858	60.188	-0.238	-0.234
-513.843	190.213	-0.085	0.128
-512.829	-117.992	-0.295	0.053
-511.814	180.146	0.132	-0.192
-510.799	76.213	0.134	-0.141
-509.785	-200.000	-0.011	0.182
-508.770	-200.000	-0.015	0.308
-507.756	800.000	0.032	0.122
-506.741	-200.000	-0.007	0.045
-505.726	87.502	-0.054	0.060
-504.712	415.771	0.095	0.202
-503.697	-200.000	0.007	0.157
-502.683	40.496	0.128	0.114
-501.668	-38.432	-0.216	0.114
-500.653	-10.991	0.262	-0.172
-499.639	257.040	0.178	0.305
-498.624	153.715	0.126	-0.172
-497.610	-57.707	0.053	0.023
-496.595	-83.905	-0.293	0.093
-495.581	-141.770	0.346	-0.034
-494.566	14.092	0.050	-0.039
-493.551	42.400	0.197	-0.178
-492.537	800.000	-0.023	0.077
-491.522	270.595	-0.032	-0.055
-490.508	-196.405	-0.308	0.002
-489.493	58.420	0.128	0.124
-488.478	91.213	-0.131	0.147
-487.464	325.223	-0.177	-0.336
-486.449	198.038	-0.099	0.150
-485.435	178.886	0.128	0.186
-484.420	-29.969	0.162	0.092
-483.405	-139.552	-0.332	0.035
-482.391	-77.502	0.387	0.133
-481.376	-5.297	0.176	0.120
-480.362	790.939	-0.018	0.048
-479.347	-74.227	-0.212	0.076
-478.332	326.679	0.150	-0.287
-477.318	274.965	-0.092	-0.162
-476.303	-200.000	-0.003	-0.022
-475.289	-83.370	-0.134	-0.043
-474.274	62.304	0.360	-0.357
-473.259	800.000	-0.080	0.325
-472.245	146.817	0.047	-0.062
-471.230	-6.666	0.060	-0.040
-470.216	-77.511	0.104	0.036
-469.201	238.253	-0.203	0.336
-468.186	-58.822	-0.210	-0.090
-467.172	-200.000	-0.010	0.189
-466.157	-200.000	0.012	0.179
-465.143	-200.000	0.010	0.221
-464.128	-200.000	-0.004	-0.261
-463.113	529.045	0.180	-0.422
-462.099	-125.301	0.315	0.048
-461.084	210.711	-0.196	-0.306
-460.070	721.118	-0.140	0.371
-459.055	-94.564	-0.279	0.076
-458.040	16.781	-0.134	0.105
-457.026	-114.048	-0.420	0.081
-456.011	-35.235	-0.435	-0.235
-454.997	-200.000	0.021	-0.250
-453.982	67.704	0.155	-0.158
-452.968	-200.000	-0.008	-0.175
-451.953	-46.340	0.132	0.064
-450.938	-109.726	0.223	-0.047
-449.924	-156.559	-0.375	-0.023
-448.909	67.797	0.100	-0.102
-447.895	41.665	0.369	0.332
-446.880	66.404	0.237	0.239
-445.865	-15.295	-0.240	0.152
-444.851	164.368	-0.214	-0.299
-443.836	800.000	-0.097	0.316
-442.822	-32.014	0.168	0.093
-441.807	709.167	0.135	0.355
-440.792	666.110	-0.065	-0.167
-439.778	-117.053	-0.200	0.036
-438.763	83.592	0.212	0.229
-437.749	109.659	0.079	-0.093
-436.734	-27.812	-0.046	0.026
-435.719	60.951	-0.184	0.181
-434.705	-181.167	0.371	0.007
-433.690	-73.744	0.219	-0.079
-432.676	-75.370	0.181	-0.064
-431.661	-200.000	-0.017	0.090
-430.646	19.918	-0.101	-0.081
-429.632	-118.804	-0.252	0.044
-428.617	63.481	-0.213	-0.212
-427.603	-200.000	-0.040	-0.494
-426.588	747.976	0.092	-0.246
-425.573	21.684	0.210	0.170
-424.559	-56.342	0.395	-0.174
-423.544	-200.000	0.007	-0.050
-422.530	-200.000	-0.008	0.123
-421.515	800.000	-0.089	-0.263
-420.500	-97.378	0.225	-0.058
-419.486	410.820	-0.018	-0.037
-418.471	88.635	0.151	-0.166
-417.457	800.000	-0.051	-0.173
-416.442	123.536	-0.031	0.039
-415.428	-142.339	0.145	-0.014
-414.413	99.589	0.204	-0.234
-413.398	-200.000	0.033	0.256
-412.384	89.250	-0.073	-0.080
-411.369	-143.259	-0.068	-0.007
-410.355	-200.000	0.000	-0.129
-409.340	-200.000	0.037	0.179
-408.325	-200.000	-0.001	0.132
-407.311	0.860	-0.378	-0.268
-406.296	800.000	-0.062	0.225
-405.282	91.102	-0.224	0.249
-404.267	-200.000	0.071	-0.357
-403.252	116.587	-0.055	-0.067
-402.238	-36.130	-0.259	-0.139
-401.223	-16.828	-0.200	-0.125
-400.209	-158.376	0.187	0.011
-399.194	-51.171	0.193	-0.089
-398.179	425.800	0.009	0.019
-397.165	800.000	-0.047	0.159
-396.150	-33.021	-0.182	-0.100
-395.136	-84.070	-0.072	0.023
-394.121	-93.863	-0.268	0.073
-393.106	34.200	0.224	-0.193
-392.092	-200.000	-0.026	0.275
-391.077	-131.470	0.200	-0.026
-390.063	-80.097	0.181	-0.060
-389.048	218.646	-0.100	0.159
-388.033	-101.928	0.151	0.036
-387.019	430.925	-0.212	0.454
-386.004	800.000	-0.048	0.150
-384.990	-33.364	0.337	0.185
-383.975	29.309	-0.129	-0.108
-382.960	154.656	-0.152	-0.206
-381.946	-200.000	0.034	0.239
-380.931	-121.252	0.063	0.010
-379.917	18.363	-0.149	-0.118
-378.902	-200.000	0.053	-0.289
-377.888	220.578	-0.182	-0.289
-376.873	30.147	0.077	-0.065
-375.858	-82.091	0.208	0.067
-374.844	-200.000	-0.013	-0.093
-373.829	75.899	-0.090	-0.094
-372.815	107.624	-0.252	0.297
-371.800	-200.000	-0.054	-0.261
-370.785	46.713	-0.184	0.169
-369.771	704.723	0.077	-0.202
-368.756	101.370	-0.121	-0.140
-367.742	-103.286	0.352	-0.082
-366.727	-123.419	-0.525	-0.083
-365.712	-37.516	-0.231	-0.122
-364.698	744.215	-0.043	-0.113
-363.683	-119.359	-0.407	0.070
-362.669	91.593	0.301	0.335
-361.654	-200.000	0.007	0.485
-360.639	-200.000	-0.044	-0.195
-359.625	-50.881	-0.206	0.096
-358.610	-200.000	0.014	-0.164
-357.596	-63.927	-0.127	-0.051
-356.581	-53.288	-0.274	-0.124
-355.566	-115.054	0.116	0.022
-354.552	-187.181	-0.252	-0.003
-353.537	-22.611	-0.165	-0.099
-352.523	800.000	-0.038	-0.113
-351.508	58.859	-0.121	-0.118
-350.493	-70.148	-0.099	-0.037
-349.479	60.184	-0.206	-0.201
-348.464	103.330	-0.257	-0.298
-347.450	-122.976	0.272	0.043
-346.435	126.292	-0.130	-0.163
-345.420	13.986	0.044	0.034
-344.406	-94.299	0.071	0.019
-343.391	-61.720	-0.087	-0.036
-342.377	-200.000	0.041	-0.327
-341.362	95.096	-0.071	0.080
-340.348	-149.820	-0.136	-0.011
-339.333	-24.471	0.108	0.064
-338.318	-145.554	-0.256	-0.023
-337.304	151.544	0.126	0.170
-336.289	-200.000	0.035	-0.175
-335.275	-40.135	0.381	0.196
-334.260	-3.029	-0.149	0.103
-333.245	800.000	0.032	-0.139
-332.231	800.000	-0.062	-0.188
-331.216	-18.197	-0.131	-0.081
-330.202	-53.618	-0.083	0.038
-329.187	296.451	-0.018	0.033
-328.172	-50.694	0.255	-0.119
-327.158	-164.515	0.233	-0.010
-326.143	-134.265	-0.239	0.029
-325.129	299.990	0.174	0.317
-324.114	-56.252	0.412	0.181
-323.099	-101.385	0.346	0.083
-322.085	-200.000	-0.015	-0.219
-321.070	-67.272	0.167	-0.065
-320.056	800.000	-0.034	-0.110
-319.041	-12.452	0.167	0.108
-318.026	-25.018	-0.241	0.141
-317.012	-48.401	-0.178	-0.085
-315.997	-200.000	0.063	0.450
-314.983	350.574	-0.152	-0.296
-313.968	273.574	0.124	0.217
-312.953	378.607	-0.127	-0.257
-311.939	800.000	-0.045	0.176
-310.924	105.446	0.231	0.269
-309.910	205.718	0.185	-0.284
-308.895	-200.000	-0.057	-0.296
-307.880	118.184	-0.185	0.225
-306.866	149.910	0.066	0.088
-305.851	615.649	-0.044	-0.109
-304.837	-25.401	0.352	-0.205
-303.822	167.667	-0.123	-0.172
-302.807	16.485	0.267	0.208
-301.793	-200.000	-0.003	0.038
-300.778	-65.401	0.159	0.063
-299.764	-165.807	0.241	0.010
-298.749	-3.124	-0.293	0.201
-297.735	201.765	0.181	0.276
-296.720	-103.691	0.329	-0.076
-295.705	-52.876	0.167	-0.076
-294.691	-14.636	-0.015	0.009
-293.676	14.083	0.167	0.128
-292.662	-108.937	-0.371	0.078
-291.647	380.319	-0.067	0.135
-290.632	53.255	-0.046	-0.043
-289.618	800.000	-0.093	-0.294
-288.603	16.856	-0.048	-0.037
-287.589	97.448	0.121	0.137
-286.574	190.932	-0.174	0.258
-285.559	-27.971	0.255	0.146
-284.545	-6.208	-0.151	-0.102
-283.530	130.244	-0.122	-0.154
-282.516	-200.000	-0.032	-0.161
-281.501	67.817	0.044	0.044
-280.486	380.123	0.174	-0.352
-279.472	176.969	-0.111	0.160
-278.457	800.000	-0.021	-0.070
-277.443	-90.280	-0.022	-0.006
-276.428	-6.538	-0.188	0.127
-275.413	37.024	0.158	-0.138
-274.399	-200.000	0.014	0.224
-273.384	-176.987	-0.245	-0.006
-272.370	-79.597	-0.242	0.081
-271.355	126.983	0.112	-0.140
-270.340	85.213	0.180	-0.195
-269.326	172.585	0.145	0.206
-268.311	-90.466	0.322	-0.092
-267.297	97.309	-0.112	-0.127
-266.282	-74.339	0.159	0.057
-265.267	-30.115	-0.085	0.048
-264.253	564.014	-0.054	-0.129
-263.238	-200.000	-0.013	-0.165
-262.224	382.864	0.136	-0.276
-261.209	-87.864	-0.093	0.028
-260.195	23.128	-0.202	-0.163
-259.180	800.000	-0.040	-0.138
-258.165	-141.737	0.121	-0.012
-257.151	-15.751	0.181	-0.114
-256.136	-49.060	0.259	-0.122
-255.122	-123.451	0.089	0.014
-254.107	-81.199	0.430	-0.140
-253.092	-200.000	-0.039	-0.231
-252.078	28.123	-0.235	-0.195
-251.063	-31.190	0.123	-0.068
-250.049	-114.725	-0.198	0.037
-249.034	-43.361	-0.313	-0.156
-248.019	-200.000	-0.030	0.160
-247.005	190.369	0.098	-0.144
-245.990	241.899	0.228	0.376
-244.976	-143.995	-0.388	0.036
-243.961	47.572	-0.344	0.315
-242.946	-60.925	0.149	0.062
-241.932	-200.000	-0.032	0.264
-240.917	26.581	-0.183	-0.151
-239.903	800.000	-0.030	-0.090
-238.888	242.873	-0.175	-0.288
-237.873	-68.424	-0.421	0.161
-236.859	200.930	0.245	-0.371
-235.844	141.767	0.100	-0.131
-234.830	-71.491	0.246	0.090
-233.815	-127.936	0.135	0.019
-232.800	9.682	-0.056	0.042
-231.786	257.732	-0.110	0.186
-230.771	800.000	0.017	0.051
-229.757	265.039	-0.072	-0.123
-228.742	-5.852	-0.109	0.073
-227.727	-56.972	0.226	-0.098
-226.713	233.098	0.183	0.296
-225.698	177.767	-0.101	-0.145
-224.684	580.696	-0.063	0.152
-223.669	101.097	0.114	0.131
-222.655	-30.686	0.222	0.124
-221.640	463.704	-0.051	0.113
-220.625	-125.821	0.391	0.058
-219.611	-99.495	-0.188	0.047
-218.596	-200.000	0.012	-0.214
-217.582	672.630	-0.150	0.383
-216.567	-103.125	0.251	0.058
-215.552	393.197	0.150	-0.308
-214.538	55.493	-0.144	-0.137
-213.523	-200.000	0.018	-0.350
-212.509	-88.402	0.318	0.093
-211.494	125.050	0.137	0.170
-210.479	-200.000	0.014	0.284
-209.465	607.664	-0.113	0.277
-208.450	728.407	-0.131	-0.343
-207.436	43.597	-0.263	0.236
-206.421	-200.000	-0.002	0.286
-205.406	-128.188	0.130	-0.018
-204.392	595.771	-0.050	-0.122
-203.377	800.000	-0.127	0.378
-202.363	-200.000	-0.027	0.417
-201.348	-124.010	0.138	0.021
-200.333	-44.139	0.208	0.103
-199.319	100.494	-0.064	-0.073
-198.304	-132.438	0.109	-0.014
-197.290	-123.068	0.138	-0.022
-196.275	480.466	-0.056	0.124
-195.260	-200.000	-0.007	-0.096
-194.246	-200.000	0.022	0.176
-193.231	94.510	0.194	-0.217
-192.217	-200.000	0.012	0.519
-191.202	-200.000	-0.031	0.283
-190.187	-200.000	0.042	0.310
-189.173	78.555	0.189	-0.198
-188.158	800.000	-0.030	-0.130
-187.144	145.766	-0.096	-0.127
-186.129	800.000	0.107	-0.301
-185.114	-129.688	0.071	0.010
-184.100	69.015	0.222	-0.224
-183.085	67.169	-0.279	0.279
-182.071	-120.735	0.249	0.041
-181.056	-101.363	0.306	-0.073
-180.042	-88.325	0.163	0.048
-179.027	122.834	0.223	-0.274
-178.012	-115.323	0.193	-0.036
-176.998	-92.257	-0.082	-0.023
-175.983	670.033	-0.068	-0.172
-174.969	205.542	0.137	-0.209
-173.954	-128.065	0.361	-0.051
-172.939	496.452	0.135	0.305
-171.925	-200.000	0.002	0.143
-170.910	571.347	-0.026	-0.063
-169.896	-200.000	-0.028	-0.175
-168.881	-200.000	0.029	0.287
-167.866	429.201	0.076	0.161
-166.852	251.104	0.146	0.243
-165.837	-22.708	-0.097	-0.057
-164.823	113.425	0.176	0.209
-163.808	-31.513	0.598	0.330
-162.793	-200.000	0.026	0.393
-161.779	-200.000	-0.018	0.202
-160.764	-89.238	-0.362	0.105
-159.750	-95.489	-0.066	0.018
-158.735	357.850	0.142	-0.279
-157.720	-25.682	-0.337	0.195
-156.706	-43.128	-0.289	0.143
-155.691	-164.303	0.263	-0.012
-154.677	531.356	0.122	0.284
-153.662	214.751	-0.042	0.065
-152.647	-200.000	0.018	0.131
-151.633	-1.676	0.420	0.290
-150.618	800.000	0.079	-0.230
-149.604	-131.237	-0.230	0.030
-148.589	-9.699	-0.145	-0.095
-147.574	-200.000	0.237	0.000
-146.560	463.605	-0.101	-0.221
-145.545	-200.000	-0.015	-0.569
-144.531	-32.948	-0.247	-0.135
-143.516	232.339	-0.193	-0.311
-142.502	800.000	0.062	-0.216
-141.487	3.259	-0.309	0.221
-140.472	28.240	-0.072	-0.059
-139.458	345.424	0.057	0.110
-138.443	800.000	-0.110	0.369
-137.429	588.586	-0.068	-0.164
-136.414	-128.129	-0.046	0.006
-135.399	54.813	0.115	-0.109
-134.385	-35.882	0.212	-0.112
-133.370	-135.745	-0.143	-0.017
-132.356	-71.541	-0.340	0.125
-131.341	-75.108	0.012	-0.004
-130.326	-200.000	-0.027	0.160
-129.312	19.501	-0.133	-0.105
-128.297	800.000	-0.061	0.198
-127.283	-76.653	-0.251	0.086
-126.268	-102.670	-0.162	0.038
-125.253	106.601	-0.125	0.145
-124.239	-200.000	-0.057	0.257
-123.224	351.277	0.144	0.279
-122.210	800.000	-0.072	-0.265
-121.195	-103.785	0.087	0.020
-120.180	-200.000	0.024	0.141
-119.166	-200.000	-0.032	0.154
-118.151	139.530	-0.194	-0.251
-117.137	124.718	0.288	-0.355
-116.122	800.000	-0.040	0.154
-115.107	-186.074	0.350	-0.005
-114.093	-41.518	-0.214	0.108
-113.078	800.000	-0.057	0.202
-112.064	90.309	-0.081	-0.088
-111.049	237.952	0.076	0.124
-110.034	148.649	-0.122	-0.162
-109.020	102.422	-0.198	-0.226
-108.005	120.171	0.143	0.174
-106.991	-200.000	-0.013	-0.096
-105.976	800.000	0.031	0.101
-104.962	334.102	-0.255	-0.484
-103.947	-200.000	-0.008	-0.457
-102.932	-66.932	-0.181	-0.070
-101.918	-62.099	-0.234	-0.096
-100.903	800.000	0.021	0.081
-99.889	223.333	0.186	-0.293
-98.874	-65.650	-0.149	0.059
-97.859	-124.332	-0.231	0.035
-96.845	532.610	-0.037	-0.085
-95.830	-112.779	0.357	-0.069
-94.816	-145.960	0.342	-0.030
-93.801	-108.038	-0.149	-0.032
-92.786	-15.973	0.266	-0.166
-91.772	-150.061	-0.186	-0.014
-90.757	800.000	0.095	0.261
-89.743	358.412	-0.047	-0.092
-88.728	141.588	0.257	0.333
-87.713	800.000	0.094	0.307
-86.699	-130.817	0.257	0.034
-85.684	157.341	-0.072	0.098
-84.670	-9.874	-0.198	-0.129
-83.655	77.045	-0.150	-0.156
-82.640	27.326	0.196	-0.161
-81.626	800.000	-0.091	0.316
-80.611	41.942	0.182	0.161
-79.597	340.634	-0.095	-0.181
-78.582	-150.638	-0.310	0.023
-77.567	-200.000	-0.042	-0.294
-76.553	-200.000	-0.039	0.200
-75.538	-200.000	0.016	-0.491
-74.524	7.430	-0.072	0.053
-73.509	-47.374	0.196	-0.093
-72.494	677.639	0.226	0.575
-71.480	24.845	-0.145	-0.117
-70.465	211.727	0.155	-0.239
-69.451	188.438	-0.100	0.146
-68.436	-142.963	0.130	0.012
-67.422	800.000	0.080	-0.250
-66.407	-123.978	-0.056	-0.009
-65.392	184.449	-0.145	-0.210
-64.378	800.000	-0.035	0.107
-63.363	800.000	0.043	0.179
-62.349	56.891	0.109	-0.104
-61.334	61.504	-1.165	-1.133
-60.319	169.045	0.261	0.363
-59.305	675.575	-0.402	-1.021
-58.290	324.358	0.743	1.387
-57.276	428.320	0.702	1.482
-56.261	-200.000	114.550	646.323
-55.246	470.609	1511.791	3322.794
-54.232	147.167	2679.978	3524.977
-53.217	102.400	2174.707	2484.791
-52.203	37.571	1699.957	1474.292
-51.188	30.156	1517.176	1265.343
-50.173	28.090	1491.795	1230.249
-49.159	51.921	1550.535	1442.760
-48.144	50.388	1565.532	1446.158
-47.130	30.442	1522.142	1271.243
-46.115	27.459	1506.634	1237.996
-45.100	27.233	1503.315	1233.691
-44.086	27.213	1501.374	1231.911
-43.071	27.088	1499.468	1229.451
-42.057	27.152	1497.942	1228.588
-41.042	27.132	1496.777	1227.445
-40.027	27.164	1494.811	1226.004
-39.013	27.147	1493.113	1224.446
-37.998	27.019	1492.462	1223.001
-36.984	27.125	1491.290	1222.708
-35.969	27.177	1489.355	1221.421
-34.954	27.159	1488.126	1220.245
-33.940	27.143	1486.805	1219.002
-32.925	27.178	1485.607	1218.205
-31.911	27.121	1484.612	1216.959
-30.896	27.226	1482.842	1216.166
-29.881	27.251	1481.683	1215.334
-28.867	27.195	1480.484	1213.927
-27.852	27.137	1479.908	1213.017
-26.838	27.204	1477.658	1211.575
-25.823	27.236	1476.394	1210.705
-24.809	27.300	1474.140	1209.229
-23.794	27.228	1473.292	1208.006
-22.779	27.254	1472.012	1207.084
-21.765	27.239	1470.969	1206.082
-20.750	27.317	1470.011	1205.764
-19.736	27.271	1468.381	1204.076
-18.721	27.249	1467.369	1203.053
-17.706	27.161	1466.826	1201.980
-16.692	27.160	1465.615	1200.929
-15.677	27.183	1464.534	1200.151
-14.663	27.201	1463.244	1199.164
-13.648	27.148	1462.580	1198.221
-12.633	27.113	1461.960	1197.433
-11.619	27.101	1461.389	1196.841
-10.604	27.151	1459.882	1195.891
-9.590	27.129	1459.444	1195.341
-8.575	27.215	1457.734	1194.454
-7.560	27.164	1457.363	1193.769
-6.546	27.044	1456.784	1192.460
-5.531	27.125	1456.010	1192.313
-4.517	27.149	1454.373	1191.080
-3.502	27.176	1453.496	1190.490
-2.487	27.131	1452.756	1189.541
-1.473	27.159	1451.757	1188.860
-0.458	27.091	1450.572	1187.398
0.556	25.656	1440.547	1176.744
1.571	22.790	1416.875	1138.839
2.586	19.578	1357.766	1071.343
3.600	18.145	1275.470	997.960
4.615	17.048	1230.802	956.743
5.629	16.472	1178.263	912.715
6.644	13.844	1102.163	840.400
7.659	11.396	1068.247	802.443
8.673	11.123	1063.401	797.392
9.688	10.989	1060.093	794.190
10.702	10.968	1058.600	792.898
11.717	10.910	1056.810	791.207
12.731	12.004	1055.794	795.688
13.746	14.720	1058.956	811.211
14.761	17.090	1061.863	824.898
15.775	17.841	1061.830	828.444
16.790	17.136	1060.257	823.727
17.804	16.018	1057.894	816.406
18.819	15.062	1056.201	810.399
19.834	14.453	1054.725	806.250
20.848	14.260	1053.579	804.369
21.863	14.081	1052.966	802.968
22.877	13.839	1051.991	800.985
23.892	13.660	1051.188	799.440
24.907	13.470	1050.618	798.018
25.921	13.649	1049.617	798.052
26.936	13.584	1049.121	797.291
27.950	13.560	1048.355	796.523
28.965	13.654	1046.889	795.787
29.980	13.604	1045.912	794.735
30.994	13.792	1044.463	794.464
32.009	13.919	1043.061	793.937
33.023	13.894	1043.068	793.752
34.038	13.875	1042.382	793.065
35.053	13.840	1041.409	792.091
36.067	13.888	1039.976	791.158
37.082	13.703	1039.595	789.919
38.096	13.707	1038.908	789.347
39.111	13.777	1037.996	788.915
40.126	13.788	1037.257	788.336
41.140	13.772	1035.965	787.207
42.155	13.660	1034.924	785.815
43.169	13.590	1033.712	784.498
44.184	13.486	1033.169	783.524
45.199	13.489	1031.726	782.371
46.213	13.411	1031.216	781.550
47.228	13.557	1030.044	781.280
48.242	13.661	1028.987	780.898
49.257	13.700	1027.793	780.107
50.271	13.691	1026.769	779.219
51.286	13.770	1025.719	778.725
52.301	13.840	1024.413	777.992
53.315	13.828	1024.360	777.826
54.330	13.605	1023.848	776.322
55.344	13.612	1022.369	775.164
56.359	13.688	1021.259	774.612
57.374	13.716	1020.455	774.062
58.388	13.537	1019.921	772.754
59.403	13.578	1018.947	772.137
60.417	13.603	1018.299	771.694
61.432	13.552	1017.924	771.106
62.447	13.518	1016.769	770.005
63.461	13.532	1015.970	769.397
64.476	13.406	1015.285	768.227
65.490	13.400	1014.226	767.328
66.505	13.472	1013.544	767.077
67.520	13.515	1012.517	766.432
68.534	13.664	1011.435	766.235
69.549	13.448	1011.103	764.917
70.563	13.592	1009.872	764.583
71.578	13.505	1009.548	763.867
72.593	13.410	1008.625	762.663
73.607	13.410	1007.359	761.641
74.622	13.376	1006.677	760.900
75.636	13.301	1005.810	759.833
76.651	13.505	1004.516	759.726
77.666	13.376	1003.957	758.645
78.680	13.522	1003.210	758.679
79.695	13.376	1003.134	757.886
80.709	13.518	1002.346	757.873
81.724	13.507	1001.448	757.078
82.739	13.539	1000.693	756.588
83.753	13.633	1000.064	756.472
84.768	13.724	998.920	755.956
85.782	13.646	998.892	755.514
86.797	13.837	997.882	755.551
87.812	13.865	996.641	754.672
88.826	13.683	995.797	753.137
89.841	13.702	995.114	752.644
90.855	13.709	994.319	752.003
91.870	13.742	993.823	751.714
92.884	13.840	992.707	751.246
93.899	13.905	992.073	750.995
94.914	13.716	991.585	749.704
95.928	13.880	990.629	749.654
96.943	13.830	989.806	748.742
97.957	13.788	989.088	747.942
98.972	13.923	987.768	747.487
99.987	13.736	987.423	746.318
101.001	13.589	986.687	745.034
102.016	13.721	985.791	744.885
103.030	13.795	984.723	744.343
104.045	13.776	984.003	743.648
105.060	13.806	983.153	743.072
106.074	13.796	981.778	741.922
107.089	13.730	981.168	741.101
108.103	13.659	980.147	739.950
109.118	13.718	979.264	739.478
110.133	13.557	978.399	738.042
111.147	13.551	977.456	737.241
112.162	13.564	976.419	736.451
113.176	13.606	975.965	736.231
114.191	13.489	975.294	735.139
115.206	13.711	974.251	735.274
116.220	13.661	973.494	734.413
117.235	13.577	972.850	733.491
118.249	13.688	972.101	733.354
119.264	13.622	971.266	732.368
120.279	13.641	970.204	731.584
121.293	13.671	969.448	731.084
122.308	13.605	968.689	730.155
123.322	13.625	967.883	729.573
124.337	13.511	966.963	728.312
125.352	13.552	965.670	727.453
126.366	13.512	964.424	726.275
127.381	13.501	963.343	725.348
128.395	13.507	962.581	724.736
129.410	13.527	961.539	723.976
130.424	13.544	960.794	723.425
131.439	13.448	960.249	722.532
132.454	13.574	959.209	722.232
133.468	13.713	958.279	722.077
134.483	13.744	957.663	721.684
135.497	13.709	956.809	720.823
136.512	13.747	956.419	720.630
137.527	13.626	955.461	719.322
138.541	13.807	954.831	719.568
139.556	13.851	953.934	719.016
140.570	13.781	953.068	717.999
141.585	13.659	952.317	716.840
142.600	13.876	952.036	717.503
143.614	13.833	950.982	716.461
144.629	13.802	950.278	715.735
145.643	13.973	949.363	715.717
146.658	13.922	948.395	714.705
147.673	13.816	947.674	713.643
148.687	13.779	946.888	712.828
149.702	13.853	945.960	712.383
150.716	13.790	945.043	711.363
151.731	13.750	944.448	710.677
152.746	13.780	943.301	709.882
153.760	13.822	942.716	709.559
154.775	13.762	942.137	708.804
155.789	13.821	941.538	708.541
156.804	13.838	941.002	708.149
157.819	13.864	940.020	707.455
158.833	13.901	939.375	707.065
159.848	13.916	939.039	706.814
160.862	13.899	938.186	706.040
161.877	14.066	937.435	706.120
162.892	13.767	936.670	704.213
163.906	13.791	935.470	703.350
164.921	13.954	934.822	703.491
165.935	13.840	933.930	702.274
166.950	13.870	933.023	701.655
167.964	13.810	932.247	700.756
168.979	13.883	931.252	700.257
169.994	13.904	930.680	699.851
171.008	13.951	929.291	698.942
172.023	14.010	928.536	698.563
173.037	14.041	927.712	698.013
174.052	14.079	926.875	697.479
175.067	14.109	926.215	697.048
176.081	14.080	925.455	696.291
177.096	13.902	925.026	695.160
178.110	13.892	924.103	694.363
179.125	13.916	923.298	693.800
180.140	13.943	922.770	693.454
181.154	14.025	921.890	693.071
182.169	14.072	921.422	692.856
183.183	14.122	920.627	692.404
184.198	14.290	919.789	692.410
185.213	14.123	919.160	691.183
186.227	14.281	918.373	691.186
187.242	14.217	918.228	690.749
188.256	14.220	917.298	690.001
189.271	14.260	916.588	689.570
190.286	14.292	916.249	689.388
191.300	14.256	914.676	687.994
192.315	13.914	914.639	686.491
193.329	14.027	913.654	686.161
194.344	13.988	912.973	685.427
195.359	14.112	912.332	685.396
196.373	14.053	911.913	684.778
197.388	14.207	911.336	684.919
198.402	14.292	911.143	685.063
199.417	14.458	910.330	685.070
200.432	14.530	910.132	685.156
201.446	14.470	909.827	684.624
202.461	14.498	909.029	684.073
203.475	14.521	908.668	683.839
204.490	14.503	907.724	682.995
205.504	14.471	907.227	682.426
206.519	14.507	906.069	681.644
207.534	14.368	905.224	680.381
208.548	14.360	904.900	680.041
209.563	14.504	904.193	680.040
210.577	14.391	903.462	678.968
211.592	14.393	903.080	678.628
212.607	14.440	902.560	678.370
213.621	14.655	901.713	678.548
214.636	14.601	900.951	677.695
215.650	14.546	900.539	677.100
216.665	14.621	899.886	676.854
217.680	14.489	899.742	676.153
218.694	14.708	898.828	676.292
219.709	14.700	898.564	676.000
220.723	14.799	897.896	675.839
221.738	14.659	897.298	674.764
222.753	14.684	896.209	673.987
223.767	14.763	895.223	673.503
224.782	14.683	894.666	672.701
225.796	14.725	893.991	672.303
226.811	14.853	893.371	672.293
227.826	14.750	892.782	671.375
228.840	14.630	892.347	670.506
229.855	14.799	891.242	670.298
230.869	14.704	890.677	669.431
231.884	14.862	889.877	669.401
232.899	14.695	889.599	668.468
233.913	14.842	888.722	668.336
234.928	14.727	887.825	667.143
235.942	14.619	887.643	666.515
236.957	14.678	886.841	666.092
237.972	14.704	885.975	665.484
238.986	14.760	885.381	665.202
240.001	14.760	884.516	664.493
241.015	14.781	884.240	664.311
242.030	14.762	883.270	663.449
243.045	14.945	882.380	663.448
244.059	15.033	882.371	663.729
245.074	14.927	881.561	662.641
246.088	14.961	880.511	661.931
247.103	15.007	879.969	661.646
248.117	15.068	879.536	661.502
249.132	15.126	879.001	661.269
250.147	15.111	879.005	661.154
251.161	15.211	877.892	660.652
252.176	15.250	877.231	660.251
253.190	15.158	876.789	659.497
254.205	15.273	876.199	659.448
255.220	15.229	875.526	658.709
256.234	15.327	875.054	658.683
257.249	15.437	874.339	658.518
258.263	15.385	873.717	657.786
259.278	15.426	873.132	657.450
260.293	15.352	872.755	656.818
261.307	15.296	872.075	656.029
262.322	15.612	871.267	656.596
263.336	15.443	870.780	655.513
264.351	15.446	869.988	654.868
265.366	15.502	869.701	654.815
266.380	15.583	869.014	654.554
267.395	15.488	868.215	653.525
268.409	15.586	867.657	653.429
269.424	15.459	867.005	652.384
270.439	15.515	865.947	651.747
271.453	15.424	865.662	651.125
272.468	15.584	864.751	651.002
273.482	15.384	864.203	649.755
274.497	15.503	863.645	649.742
275.512	15.578	863.038	649.515
276.526	15.499	862.037	648.399
277.541	15.581	861.668	648.380
278.555	15.711	860.629	648.044
279.570	15.724	860.379	647.846
280.585	15.693	859.712	647.168
281.599	15.643	859.293	646.605
282.614	15.866	858.361	646.702
283.628	15.631	857.687	645.235
284.643	15.821	857.112	645.476
285.657	15.640	856.760	644.459
286.672	15.709	856.371	644.372
287.687	15.700	855.795	643.846
288.701	15.663	855.838	643.682
289.716	15.808	854.890	643.465
290.730	15.668	854.759	642.774
291.745	15.724	853.954	642.325
292.760	15.741	852.698	641.389
293.774	15.880	851.922	641.279
294.789	15.971	851.676	641.384
295.803	15.912	851.515	640.982
296.818	15.865	850.691	640.125
297.833	15.767	850.095	639.247
298.847	15.847	848.756	638.490
299.862	15.931	848.661	638.680
300.876	15.844	848.067	637.846
301.891	15.905	847.185	637.359
302.906	15.954	846.510	636.979
303.920	16.066	845.912	636.894
304.935	16.037	845.440	636.374
305.949	16.020	845.081	635.984
306.964	16.135	844.275	635.755
307.979	16.154	843.387	635.100
308.993	16.056	843.514	634.769
310.008	16.167	842.762	634.566
311.022	16.185	842.384	634.295
312.037	16.130	841.984	633.728
313.052	16.161	841.491	633.419
314.066	16.122	840.466	632.443
315.081	16.059	839.850	631.690
316.095	16.061	839.628	631.475
317.110	16.112	839.035	631.162
318.125	16.247	838.184	630.970
319.139	16.026	838.142	630.059
320.154	16.074	837.342	629.579
321.168	16.142	836.553	629.184
322.183	16.116	836.128	628.711
323.197	16.181	835.783	628.639
324.212	16.227	835.113	628.253
325.227	16.239	834.426	627.722
326.241	16.168	834.261	627.280
327.256	16.274	833.939	627.376
328.270	16.090	833.424	626.249
329.285	16.210	832.647	626.054
330.300	16.284	832.066	625.838
331.314	16.267	831.259	625.114
332.329	16.253	830.767	624.634
333.343	16.298	829.985	624.159
334.358	16.389	829.238	623.880
335.373	16.364	828.710	623.332
336.387	16.348	828.537	623.088
337.402	16.249	828.406	622.568
338.416	16.436	827.457	622.492
339.431	16.439	827.461	622.448
340.446	16.520	826.597	622.042
341.460	16.636	825.998	621.963
342.475	16.403	825.733	620.851
343.489	16.572	825.011	620.874
344.504	16.766	824.179	620.906
345.519	16.787	823.779	620.625
346.533	16.773	823.104	620.011
347.548	16.769	822.714	619.648
348.562	16.771	822.026	619.083
349.577	16.701	821.329	618.246
350.592	16.596	820.991	617.553
351.606	16.710	820.339	617.425
352.621	16.538	820.319	616.726
353.635	16.726	819.550	616.781
354.650	16.619	819.335	616.173
355.665	16.658	819.160	616.130
356.679	16.768	818.471	615.958
357.694	16.740	817.916	615.383
358.708	16.803	816.965	614.842
359.723	16.875	816.738	614.878
360.738	16.709	816.428	613.988
361.752	16.860	815.459	613.752
362.767	16.872	815.425	613.715
363.781	16.884	814.968	613.359
364.796	16.923	814.904	613.397
365.810	16.964	814.154	612.930
366.825	17.075	813.590	612.851
367.840	17.040	813.429	612.548
368.854	16.979	813.064	611.998
369.869	16.983	812.475	611.517
370.883	16.994	811.499	610.769
371.898	16.991	811.098	610.401
372.913	16.959	810.756	609.975
373.927	17.150	809.870	609.941
374.942	17.102	809.280	609.270
375.956	17.168	808.638	608.969
376.971	17.284	807.848	608.736
377.986	17.245	807.814	608.517
379.000	17.234	807.766	608.387
380.015	17.348	806.809	608.020
381.029	17.331	806.144	607.402
382.044	17.257	805.944	606.936
383.059	17.235	805.124	606.187
384.073	17.313	804.847	606.201
385.088	17.374	804.181	605.864
386.102	17.308	803.088	604.751
387.117	17.158	803.104	604.178
388.132	17.327	802.464	604.244
389.146	17.209	802.193	603.564
390.161	17.247	801.787	603.343
391.175	17.462	801.104	603.537
392.190	17.345	801.084	603.052
393.205	17.332	800.573	602.569
394.219	17.321	800.033	602.071
395.234	17.413	799.286	601.779
396.248	17.293	798.909	601.019
397.263	17.374	798.538	600.971
398.278	17.266	798.006	600.137
399.292	17.325	797.483	599.902
400.307	17.281	797.191	599.473
401.321	17.475	796.620	599.675
402.336	17.280	796.711	599.000
403.350	17.198	796.164	598.248
404.365	17.125	795.544	597.472
405.380	17.463	795.120	598.290
406.394	17.551	794.509	598.088
407.409	17.531	794.257	597.774
408.423	17.718	793.743	597.990
409.438	17.560	793.448	597.160
410.453	17.668	793.044	597.182
411.467	17.687	792.181	596.547
412.482	17.730	791.809	596.363
413.496	17.681	791.591	595.975
414.511	17.731	791.098	595.726
415.526	17.820	790.536	595.560
416.540	17.769	790.436	595.256
417.555	17.917	789.874	595.294
418.569	17.738	789.592	594.405
419.584	17.747	789.106	594.019
420.599	17.877	788.136	593.690
421.613	111.878	1293.477	1477.281
422.628	96.058	1367.124	1477.377
