DTS Sentinel unit serial number:	SN413079Multiplexer serial number:	ORYXHardware model number:	OX4-SRSoftware version number:	ORYX F/W v4.00 Oryx Data Collector v3.7.2.0data status	okinstallation	princeton_trtdifferential loss correction	single-endedforward channel	channel 3reverse channel	N/Adate	2019/09/13time	06:12:34forward acquisition time	60.00reverse acquisition time	0.00gamma	496.2192k internal	0.2338k external	0.2338temperature offset calibration	1.0138default loss term (dB/km)	0.3790temperature slope calibration	1.0000multiplexer offset coefficient	1.0000multiplexer slope coefficient	1.0000fibre end	0.00T internal ref (°C)	26.12T ext. ref 1 (°C)	4.09T ext. ref 2 (°C)	20.91length (m)	temperature (°C)	Stokes	anti-Stokes-747.200	56.654	-0.115	0.113
-746.185	39.930	0.246	-0.221
-745.171	77.128	-0.154	0.164
-744.156	94.134	-0.040	0.045
-743.142	-26.810	0.161	0.094
-742.127	408.601	-0.112	0.238
-741.112	-200.000	0.049	0.299
-740.098	279.019	-0.049	-0.088
-739.083	-200.000	-0.002	0.109
-738.069	138.602	-0.064	0.084
-737.054	245.543	0.036	-0.060
-736.039	128.416	0.134	-0.172
-735.025	396.970	-0.080	0.167
-734.010	46.611	-0.082	0.076
-732.996	800.000	-0.058	-0.167
-731.981	-95.593	-0.111	0.030
-730.966	-31.480	0.282	0.159
-729.952	-200.000	-0.005	-0.106
-728.937	-121.250	0.208	-0.035
-727.923	33.604	0.089	-0.077
-726.908	-200.000	-0.473	-0.001
-725.894	800.000	-0.100	-0.357
-724.879	-122.690	-0.195	0.032
-723.864	47.143	0.112	0.104
-722.850	800.000	-0.061	-0.181
-721.835	-113.003	0.064	-0.013
-720.821	45.512	-0.178	0.164
-719.806	-73.436	-0.354	0.130
-718.791	800.000	0.091	-0.352
-717.777	277.482	-0.117	0.209
-716.762	-41.907	-0.113	0.058
-715.748	-150.201	0.328	-0.025
-714.733	800.000	-0.031	0.128
-713.718	800.000	-0.021	-0.083
-712.704	-11.702	0.081	0.053
-711.689	366.366	-0.073	-0.148
-710.675	711.593	0.032	-0.085
-709.660	-46.878	-0.108	-0.053
-708.645	-109.037	0.471	0.101
-707.631	-17.688	-0.259	-0.163
-706.616	-109.059	-0.029	0.006
-705.602	10.596	-0.218	-0.166
-704.587	-109.557	0.267	-0.056
-703.572	-200.000	-0.004	0.131
-702.558	-200.000	-0.015	-0.110
-701.543	44.397	0.182	0.167
-700.529	561.467	-0.056	0.137
-699.514	-39.366	-0.120	-0.063
-698.499	-93.759	0.219	0.060
-697.485	-200.000	-0.014	0.237
-696.470	171.990	-0.230	0.331
-695.456	74.800	-0.030	0.032
-694.441	-48.306	0.200	0.097
-693.426	-152.661	0.256	0.018
-692.412	-200.000	-0.039	0.283
-691.397	-200.000	0.056	0.000
-690.383	-166.781	0.154	0.006
-689.368	222.791	-0.222	-0.358
-688.354	-200.000	-0.051	-0.309
-687.339	-41.644	-0.209	0.108
-686.324	-67.043	0.084	-0.033
-685.310	-200.000	0.022	0.139
-684.295	111.797	0.061	0.074
-683.281	-142.541	0.157	-0.015
-682.266	-16.261	-0.283	0.180
-681.251	233.259	-0.080	0.132
-680.237	527.330	0.080	-0.188
-679.222	800.000	-0.068	0.272
-678.208	137.618	-0.164	0.215
-677.193	30.337	-0.145	0.124
-676.178	-200.000	-0.046	-0.235
-675.164	82.052	0.056	-0.061
-674.149	800.000	0.062	-0.204
-673.135	21.148	0.275	0.223
-672.120	-87.655	-0.136	-0.041
-671.105	-37.617	-0.256	0.136
-670.091	-50.043	0.423	-0.200
-669.076	118.949	0.124	0.153
-668.062	209.738	-0.156	-0.245
-667.047	-74.150	0.250	0.090
-666.032	124.241	0.070	-0.088
-665.018	-200.000	-0.004	0.076
-664.003	-157.626	0.487	-0.029
-662.989	380.263	-0.133	-0.273
-661.974	216.021	-0.042	0.066
-660.959	-1.311	0.069	0.049
-659.945	72.671	0.080	-0.083
-658.930	800.000	-0.146	0.440
-657.916	351.461	0.024	0.047
-656.901	-75.337	-0.174	0.062
-655.886	167.648	0.172	0.244
-654.872	-103.910	-0.200	0.047
-653.857	148.179	0.140	0.189
-652.843	800.000	-0.043	-0.139
-651.828	-84.907	0.153	0.048
-650.814	-74.442	0.245	-0.088
-649.799	-85.890	0.154	0.048
-648.784	800.000	-0.064	0.274
-647.770	69.341	-0.097	0.100
-646.755	-120.821	-0.149	-0.025
-645.741	98.970	-0.056	0.064
-644.726	-94.829	0.089	-0.024
-643.711	202.695	0.212	-0.328
-642.697	114.030	-0.085	-0.103
-641.682	27.865	-0.086	0.072
-640.668	95.580	0.097	0.111
-639.653	-148.620	0.446	0.036
-638.638	-200.000	0.024	0.247
-637.624	800.000	0.063	0.207
-636.609	49.632	0.195	0.183
-635.595	95.004	-0.207	0.236
-634.580	-200.000	0.056	-0.329
-633.565	123.798	-0.106	-0.133
-632.551	-20.910	-0.139	0.085
-631.536	-28.334	-0.228	-0.132
-630.522	-17.652	0.127	-0.079
-629.507	-84.048	-0.355	0.113
-628.492	339.880	0.087	-0.170
-627.478	-44.416	-0.349	-0.175
-626.463	-200.000	0.044	0.524
-625.449	204.130	0.142	0.220
-624.434	-200.000	-0.065	-0.464
-623.419	-95.012	-0.348	0.094
-622.405	12.530	0.128	0.099
-621.390	399.239	0.069	-0.145
-620.376	-46.342	-0.046	-0.023
-619.361	-112.945	-0.300	-0.059
-618.346	-105.749	-0.141	0.032
-617.332	182.731	-0.049	0.072
-616.317	211.255	0.052	-0.082
-615.303	-9.083	0.214	-0.143
-614.288	-100.980	0.279	-0.068
-613.273	577.037	0.086	0.210
-612.259	-200.000	0.005	-0.162
-611.244	116.453	-0.153	-0.187
-610.230	-122.039	-0.052	-0.009
-609.215	200.431	0.133	-0.203
-608.201	-55.835	-0.112	-0.050
-607.186	-200.000	0.054	-0.244
-606.171	-200.000	-0.015	-0.357
-605.157	-45.650	-0.296	-0.146
-604.142	-200.000	0.047	-0.207
-603.128	60.761	-0.291	-0.288
-602.113	125.462	0.085	0.107
-601.098	-200.000	0.035	0.209
-600.084	-200.000	-0.008	0.196
-599.069	-200.000	-0.004	-0.105
-598.055	186.205	0.068	-0.101
-597.040	537.035	0.071	-0.169
-596.025	-66.346	-0.199	0.079
-595.011	800.000	-0.083	-0.233
-593.996	-200.000	-0.001	0.040
-592.982	459.696	-0.099	0.219
-591.967	-73.535	-0.188	-0.068
-590.952	-72.452	-0.171	-0.063
-589.938	800.000	0.026	0.081
-588.923	-47.799	-0.142	0.069
-587.909	-134.130	-0.255	-0.031
-586.894	187.451	0.179	0.266
-585.879	94.932	-0.195	0.221
-584.865	105.230	-0.135	0.159
-583.850	406.659	-0.076	0.159
-582.836	151.299	0.045	0.061
-581.821	-93.423	-0.254	-0.070
-580.806	23.400	-0.257	-0.211
-579.792	-116.265	0.109	-0.020
-578.777	-43.750	0.186	-0.093
-577.763	17.105	0.223	0.176
-576.748	-18.160	-0.217	-0.135
-575.733	121.844	-0.147	-0.182
-574.719	-108.505	-0.290	0.062
-573.704	273.566	0.044	0.077
-572.690	103.532	0.041	0.047
-571.675	124.108	0.151	0.189
-570.661	251.837	-0.052	0.088
-569.646	-200.000	-0.012	-0.269
-568.631	-200.000	0.021	0.126
-567.617	-152.935	0.263	-0.018
-566.602	79.769	0.083	-0.089
-565.588	-200.000	0.035	0.312
-564.573	295.381	-0.078	0.142
-563.558	272.923	-0.081	-0.142
-562.544	93.736	0.035	-0.039
-561.529	-29.206	-0.139	-0.080
-560.515	194.815	-0.032	0.049
-559.500	-117.891	0.302	-0.054
-558.485	51.599	0.139	-0.131
-557.471	-109.730	0.200	-0.042
-556.456	311.172	0.191	0.357
-555.442	-169.993	0.149	-0.005
-554.427	574.548	-0.059	-0.144
-553.412	-41.095	-0.236	-0.122
-552.398	251.373	0.208	0.352
-551.383	-200.000	-0.005	-0.177
-550.369	800.000	-0.122	-0.402
-549.354	72.626	-0.203	0.211
-548.339	-112.944	0.394	0.078
-547.325	-18.340	-0.095	0.059
-546.310	800.000	-0.089	-0.260
-545.296	-200.000	-0.017	0.250
-544.281	131.732	-0.119	-0.153
-543.266	-61.550	-0.202	0.085
-542.252	178.911	-0.048	-0.070
-541.237	-49.382	-0.102	-0.049
-540.223	-59.442	0.179	-0.077
-539.208	800.000	-0.058	-0.214
-538.193	800.000	-0.014	0.050
-537.179	577.665	-0.027	0.065
-536.164	-41.865	-0.347	0.177
-535.150	-25.573	-0.050	-0.029
-534.135	-122.614	-0.190	-0.031
-533.121	-57.643	0.030	0.013
-532.106	-143.959	0.158	0.015
-531.091	-111.142	0.137	0.028
-530.077	123.987	-0.134	0.167
-529.062	-52.176	0.095	-0.044
-528.048	477.253	-0.096	0.217
-527.033	-99.873	0.246	-0.061
-526.018	-109.218	0.133	-0.028
-525.004	-115.858	-0.261	-0.049
-523.989	79.734	-0.097	-0.104
-522.975	-59.624	-0.118	0.050
-521.960	658.297	-0.069	0.178
-520.945	-23.779	0.101	-0.060
-519.931	-200.000	0.000	-0.075
-518.916	231.858	0.069	-0.112
-517.902	-200.000	0.001	-0.297
-516.887	50.554	-0.132	0.125
-515.872	-16.032	0.383	0.242
-514.858	246.140	-0.095	-0.158
-513.843	152.627	0.156	0.212
-512.829	-200.000	-0.035	0.371
-511.814	800.000	0.075	0.286
-510.799	-94.186	0.241	0.066
-509.785	-188.372	0.131	0.002
-508.770	-120.817	-0.547	-0.092
-507.756	182.240	0.198	0.290
-506.741	213.051	-0.151	-0.237
-505.726	6.013	0.165	-0.121
-504.712	-118.839	0.427	-0.075
-503.697	-49.557	0.127	-0.060
-502.683	33.507	-0.084	-0.073
-501.668	-24.451	-0.387	-0.229
-500.653	-167.319	-0.288	-0.012
-499.639	-51.335	-0.412	-0.192
-498.624	62.635	0.132	-0.131
-497.610	249.428	-0.076	0.128
-496.595	170.134	0.165	-0.235
-495.581	-200.000	-0.057	-0.393
-494.566	-124.585	-0.089	-0.014
-493.551	800.000	0.051	0.156
-492.537	-200.000	0.020	0.130
-491.522	-105.119	0.157	-0.036
-490.508	-200.000	-0.044	-0.265
-489.493	299.342	-0.041	0.074
-488.478	-92.296	-0.045	-0.013
-487.464	169.447	0.065	-0.093
-486.449	466.114	-0.161	0.357
-485.435	193.450	-0.152	-0.228
-484.420	-49.389	-0.166	-0.079
-483.405	428.539	0.079	-0.170
-482.391	-200.000	0.065	-0.441
-481.376	-168.166	0.104	0.004
-480.362	-125.508	-0.357	-0.054
-479.347	-144.417	-0.153	0.014
-478.332	86.681	0.157	-0.172
-477.318	41.926	0.116	0.104
-476.303	192.767	0.099	0.149
-475.289	361.006	0.084	0.168
-474.274	-50.463	0.271	-0.127
-473.259	208.384	-0.180	0.279
-472.245	800.000	0.073	0.252
-471.230	734.538	0.068	0.181
-470.216	163.540	-0.057	0.079
-469.201	-200.000	-0.048	-0.321
-468.186	-84.433	0.501	0.157
-467.172	10.782	-0.054	-0.041
-466.157	-200.000	0.020	0.167
-465.143	-200.000	-0.012	-0.201
-464.128	-143.627	-0.238	0.022
-463.113	800.000	0.150	0.417
-462.099	-79.435	0.202	0.068
-461.084	511.901	0.064	-0.149
-460.070	-128.523	0.297	0.042
-459.055	-33.628	0.217	0.119
-458.040	166.299	0.118	0.166
-457.026	800.000	-0.064	0.266
-456.011	-200.000	-0.010	0.128
-454.997	111.368	-0.170	0.203
-453.982	-123.545	-0.161	-0.025
-452.968	-18.003	-0.267	-0.166
-451.953	-22.151	-0.256	-0.154
-450.938	-120.448	0.267	0.045
-449.924	493.328	-0.150	0.340
-448.909	-193.034	0.551	-0.005
-447.895	285.320	-0.156	-0.280
-446.880	-10.755	0.038	-0.025
-445.865	-127.068	0.444	-0.065
-444.851	102.962	-0.199	-0.231
-443.836	422.492	-0.045	-0.096
-442.822	99.440	-0.026	-0.030
-441.807	-37.802	-0.127	0.067
-440.792	-161.107	-0.140	0.007
-439.778	229.225	-0.103	0.166
-438.763	-0.144	0.125	0.088
-437.749	-28.542	-0.093	-0.053
-436.734	756.259	0.051	0.137
-435.719	114.350	0.117	0.141
-434.705	182.369	0.151	-0.220
-433.690	-65.501	0.215	0.085
-432.676	-200.000	0.042	0.284
-431.661	26.651	-0.141	-0.117
-430.646	76.375	-0.079	-0.083
-429.632	237.018	-0.100	0.164
-428.617	-104.741	0.148	-0.034
-427.603	-115.023	-0.406	-0.076
-426.588	-166.216	-0.064	0.003
-425.573	-200.000	0.055	-0.299
-424.559	-169.581	-0.124	0.004
-423.544	800.000	-0.160	0.453
-422.530	-200.000	-0.113	0.000
-421.515	-200.000	-0.005	-0.045
-420.500	-200.000	-0.037	0.164
-419.486	-7.306	0.047	0.031
-418.471	-200.000	-0.014	0.154
-417.457	-120.504	-0.188	0.032
-416.442	-200.000	-0.000	0.030
-415.428	260.449	0.048	-0.083
-414.413	-113.893	0.203	-0.039
-413.398	800.000	-0.073	-0.206
-412.384	44.301	0.268	-0.244
-411.369	-200.000	-0.006	-0.143
-410.355	-200.000	0.038	0.169
-409.340	-200.000	0.005	0.104
-408.325	-143.747	-0.272	-0.026
-407.311	192.603	-0.208	-0.311
-406.296	-114.756	0.124	0.023
-405.282	-126.169	-0.166	0.025
-404.267	-55.120	0.216	0.096
-403.252	800.000	0.083	0.270
-402.238	-109.420	0.210	0.044
-401.223	-179.644	0.171	-0.004
-400.209	205.358	-0.166	-0.255
-399.194	-95.584	0.208	-0.055
-398.179	800.000	0.032	0.094
-397.165	800.000	0.084	-0.355
-396.150	-200.000	0.053	-0.331
-395.136	-44.968	0.280	0.138
-394.121	-108.707	-0.208	0.044
-393.106	20.723	0.192	-0.154
-392.092	-200.000	-0.005	-0.184
-391.077	-121.579	-0.390	0.064
-390.063	-143.443	0.257	-0.024
-389.048	-138.676	0.300	-0.032
-388.033	800.000	0.053	0.147
-387.019	-200.000	-0.005	-0.118
-386.004	-200.000	0.009	0.321
-384.990	227.749	-0.053	0.086
-383.975	-200.000	-0.005	-0.166
-382.960	405.559	-0.189	0.393
-381.946	57.006	0.135	0.130
-380.931	-200.000	-0.027	0.143
-379.917	-63.834	0.212	-0.086
-378.902	-77.633	0.122	-0.042
-377.888	-200.000	-0.003	0.109
-376.873	48.642	0.294	0.272
-375.858	-60.324	-0.063	0.027
-374.844	352.842	-0.119	0.234
-373.829	-200.000	-0.030	0.342
-372.815	-200.000	0.032	0.312
-371.800	800.000	-0.064	0.187
-370.785	119.041	0.079	-0.096
-369.771	-164.508	-0.208	0.009
-368.756	289.992	0.076	-0.137
-367.742	-97.694	-0.060	0.015
-366.727	-145.230	-0.137	-0.012
-365.712	11.592	0.169	0.128
-364.698	-100.410	0.414	0.101
-363.683	329.374	0.100	-0.191
-362.669	51.543	0.144	-0.136
-361.654	-200.000	0.045	0.229
-360.639	69.807	0.180	-0.184
-359.625	29.875	0.247	0.208
-358.610	605.608	-0.031	0.076
-357.596	-200.000	0.077	0.379
-356.581	-56.136	-0.291	-0.128
-355.566	-200.000	0.010	-0.244
-354.552	800.000	0.124	-0.375
-353.537	147.488	0.254	-0.338
-352.523	-39.300	-0.432	0.224
-351.508	36.883	0.084	-0.073
-350.493	-39.958	-0.159	0.082
-349.479	-200.000	-0.238	-0.001
-348.464	-23.225	-0.241	-0.144
-347.450	-76.801	0.344	-0.119
-346.435	503.786	0.146	-0.334
-345.420	800.000	0.065	0.191
-344.406	181.797	0.033	-0.048
-343.391	4.583	0.249	0.181
-342.377	800.000	0.070	0.259
-341.362	-158.114	-0.289	-0.017
-340.348	-64.762	0.141	0.056
-339.333	-200.000	-0.005	-0.298
-338.318	-17.186	-0.079	0.049
-337.304	61.278	-0.160	0.157
-336.289	-200.000	-0.054	-0.560
-335.275	800.000	0.066	0.229
-334.260	-33.646	-0.351	0.191
-333.245	-200.000	-0.048	-0.418
-332.231	-77.466	-0.356	0.122
-331.216	-91.500	0.091	-0.026
-330.202	-200.000	-0.004	-0.217
-329.187	-200.000	0.037	-0.310
-328.172	-79.903	0.385	-0.128
-327.158	-28.407	-0.205	-0.117
-326.143	-51.273	-0.074	-0.034
-325.129	-23.910	-0.210	0.124
-324.114	-200.000	0.004	0.089
-323.099	97.370	-0.201	-0.228
-322.085	413.780	0.068	0.143
-321.070	-135.497	0.097	-0.011
-320.056	45.645	0.308	0.281
-319.041	-75.866	-0.405	-0.142
-318.026	534.271	-0.084	-0.196
-317.012	104.678	0.198	0.231
-315.997	677.410	-0.172	0.441
-314.983	-25.242	0.154	0.090
-313.968	511.475	-0.169	-0.387
-312.953	196.652	-0.072	0.108
-311.939	261.967	-0.199	0.341
-310.924	800.000	0.098	-0.328
-309.910	3.589	0.313	-0.225
-308.895	-200.000	-0.021	0.188
-307.880	197.504	-0.035	-0.052
-306.866	71.380	-0.262	-0.268
-305.851	786.745	-0.093	0.253
-304.837	58.943	0.243	0.236
-303.822	58.942	0.120	0.116
-302.807	-200.000	-0.023	-0.131
-301.793	13.376	-0.041	-0.032
-300.778	475.224	0.122	0.271
-299.764	-62.922	-0.150	-0.061
-298.749	203.784	0.207	0.316
-297.735	34.329	-0.293	-0.252
-296.720	-98.403	-0.238	0.060
-295.705	-137.797	0.216	0.024
-294.691	800.000	-0.149	0.443
-293.676	75.159	0.157	0.164
-292.662	-131.434	0.183	0.024
-291.647	800.000	-0.072	-0.218
-290.632	116.203	0.263	0.318
-289.618	800.000	-0.044	-0.128
-288.603	590.211	0.111	-0.270
-287.589	178.790	0.214	-0.309
-286.574	734.972	-0.107	-0.281
-285.559	800.000	0.039	0.154
-284.545	195.708	0.171	-0.256
-283.530	-27.879	-0.200	-0.114
-282.516	40.191	0.184	-0.163
-281.501	-6.866	0.284	0.190
-280.486	-117.486	0.087	-0.015
-279.472	-54.439	-0.140	0.062
-278.457	-200.000	-0.011	0.110
-277.443	-158.394	-0.246	-0.014
-276.428	-93.795	0.023	-0.006
-275.413	-83.833	0.260	-0.082
-274.399	229.014	-0.167	-0.268
-273.384	-77.359	0.263	-0.090
-272.370	-53.841	0.148	-0.067
-271.355	-155.757	0.576	-0.036
-270.340	-200.000	-0.002	-0.133
-269.326	-121.640	-0.357	0.058
-268.311	-83.540	0.153	-0.048
-267.297	-3.127	-0.052	0.036
-266.282	193.880	0.090	0.133
-265.267	4.770	0.222	0.160
-264.253	10.444	-0.300	-0.225
-263.238	5.167	-0.189	-0.137
-262.224	-200.000	-0.020	0.160
-261.209	-100.289	0.310	-0.076
-260.195	35.612	-0.138	0.120
-259.180	-139.596	0.427	0.045
-258.165	-38.317	-0.121	0.063
-257.151	3.604	0.369	0.265
-256.136	-106.265	0.315	0.069
-255.122	-72.668	0.020	0.007
-254.107	49.748	-0.164	0.152
-253.092	-124.845	0.136	0.021
-252.078	-4.781	-0.404	-0.274
-251.063	-104.439	-0.173	-0.039
-250.049	67.511	0.010	-0.010
-249.034	800.000	-0.020	0.082
-248.019	-61.281	0.042	-0.017
-247.005	-77.005	-0.263	-0.090
-245.990	-95.512	-0.424	0.112
-244.976	-19.542	0.205	0.125
-243.961	322.751	0.038	-0.072
-242.946	-170.891	0.274	0.009
-241.932	-200.000	0.009	-0.054
-240.917	-8.136	0.095	0.063
-239.903	-200.000	0.028	-0.287
-238.888	87.549	-0.134	-0.146
-237.873	27.016	0.261	-0.215
-236.859	140.889	-0.022	-0.029
-235.844	651.695	0.093	0.233
-234.830	15.562	-0.233	0.180
-233.815	-65.105	0.041	-0.016
-232.800	-200.000	-0.007	-0.228
-231.786	187.861	-0.047	-0.070
-230.771	-200.000	-0.035	-0.303
-229.757	-147.145	0.318	0.027
-228.742	127.270	-0.130	-0.162
-227.727	215.565	-0.144	0.225
-226.713	-92.832	0.296	0.081
-225.698	800.000	0.019	-0.061
-224.684	4.615	-0.281	0.203
-223.669	466.714	0.120	0.264
-222.655	-105.226	0.356	0.080
-221.640	-86.748	-0.386	0.116
-220.625	22.467	-0.256	-0.206
-219.611	111.197	-0.154	-0.183
-218.596	-200.000	0.010	0.048
-217.582	179.056	0.082	-0.117
-216.567	128.625	0.073	0.091
-215.552	-200.000	0.005	-0.381
-214.538	348.186	0.073	-0.141
-213.523	512.721	-0.097	0.222
-212.509	16.446	0.125	0.097
-211.494	-7.929	-0.232	-0.154
-210.479	-160.559	0.382	0.020
-209.465	-128.919	-0.230	0.032
-208.450	800.000	0.082	0.284
-207.436	-6.593	0.139	-0.093
-206.421	800.000	-0.063	0.230
-205.406	-200.000	0.026	0.242
-204.392	800.000	0.044	-0.156
-203.377	102.549	-0.123	0.142
-202.363	95.880	-0.046	0.052
-201.348	-105.667	0.219	0.049
-200.333	20.524	-0.307	-0.244
-199.319	386.452	0.147	0.299
-198.304	682.980	0.126	0.322
-197.290	-200.000	-0.033	-0.234
-196.275	346.347	0.068	-0.132
-195.260	208.568	-0.041	0.064
-194.246	-200.000	-0.048	0.236
-193.231	-80.974	-0.286	-0.093
-192.217	-53.551	-0.224	-0.101
-191.202	205.612	0.040	-0.061
-190.187	142.706	-0.210	0.275
-189.173	168.847	0.033	0.046
-188.158	-200.000	-0.002	0.035
-187.144	-113.935	0.284	0.054
-186.129	317.872	-0.108	-0.201
-185.114	24.168	0.098	-0.079
-184.100	800.000	0.058	0.158
-183.085	224.111	-0.116	0.185
-182.071	-200.000	-0.005	0.138
-181.056	-200.000	0.010	-0.092
-180.042	404.531	0.185	-0.383
-179.027	97.071	-0.084	0.094
-178.012	-25.274	0.251	0.146
-176.998	-108.611	0.034	-0.007
-175.983	41.833	-0.103	-0.091
-174.969	356.489	-0.048	0.094
-173.954	237.829	0.163	-0.266
-172.939	239.869	-0.033	-0.054
-171.925	-200.000	-0.016	-0.154
-170.910	-200.000	-0.008	0.134
-169.896	-77.497	-0.025	0.008
-168.881	-107.437	-0.089	-0.019
-167.866	-122.738	-0.234	0.037
-166.852	-11.283	0.284	-0.183
-165.837	-32.221	-0.187	-0.103
-164.823	800.000	0.155	-0.428
-163.808	323.035	0.125	0.234
-162.793	800.000	0.121	-0.334
-161.779	-86.627	-0.189	-0.057
-160.764	800.000	-0.025	-0.086
-159.750	17.362	-0.346	0.269
-158.735	-149.600	0.159	0.012
-157.720	-42.040	0.348	-0.175
-156.706	-125.048	-0.193	0.029
-155.691	-81.278	-0.374	0.121
-154.677	800.000	0.030	0.100
-153.662	-200.000	-0.006	-0.311
-152.647	-75.256	-0.205	0.072
-151.633	-200.000	-0.069	0.310
-150.618	20.571	-0.257	0.204
-149.604	-40.437	-0.179	0.091
-148.589	-41.601	-0.349	-0.176
-147.574	-200.000	0.002	-0.139
-146.560	-127.215	-0.200	0.029
-145.545	-93.906	-0.325	-0.087
-144.531	-200.000	-0.013	-0.282
-143.516	-200.000	-0.025	0.153
-142.502	800.000	0.121	-0.406
-141.487	-117.241	0.178	0.032
-140.472	-200.000	0.014	0.403
-139.458	182.260	-0.105	0.151
-138.443	98.900	0.086	0.098
-137.429	255.902	0.080	0.135
-136.414	-200.000	0.014	-0.081
-135.399	-15.314	-0.138	-0.086
-134.385	-29.371	0.285	-0.160
-133.370	570.329	0.064	-0.152
-132.356	47.628	-0.157	-0.144
-131.341	104.645	0.073	-0.084
-130.326	-200.000	0.008	0.230
-129.312	-200.000	-0.056	0.283
-128.297	-126.501	0.303	0.044
-127.283	-30.234	0.206	0.115
-126.268	53.513	0.085	-0.080
-125.253	83.991	0.151	0.161
-124.239	141.280	-0.199	-0.258
-123.224	-110.882	-0.104	-0.021
-122.210	199.917	0.130	-0.195
-121.195	-200.000	0.307	-0.001
-120.180	431.026	-0.046	0.098
-119.166	-47.721	-0.111	-0.053
-118.151	-10.872	0.177	0.114
-117.137	-158.055	-0.251	0.014
-116.122	-109.353	0.174	-0.036
-115.107	-40.068	0.238	-0.121
-114.093	-24.602	0.130	0.076
-113.078	800.000	-0.059	0.204
-112.064	19.647	0.060	0.048
-111.049	126.923	-0.111	-0.138
-110.034	-111.005	-0.085	0.017
-109.020	171.620	0.222	0.311
-108.005	-71.007	0.199	0.073
-106.991	-200.000	0.008	-0.054
-105.976	-200.000	-0.021	0.170
-104.962	-200.000	-0.009	0.104
-103.947	-200.000	-0.026	0.245
-102.932	47.757	0.209	0.191
-101.918	40.018	0.204	0.179
-100.903	-185.185	0.124	-0.002
-99.889	3.196	0.103	0.073
-98.874	-29.281	0.298	0.167
-97.859	-33.471	-0.287	-0.155
-96.845	-49.619	0.269	0.125
-95.830	-52.726	-0.351	-0.159
-94.816	-200.000	0.004	0.167
-93.801	-29.778	-0.219	-0.122
-92.786	-8.314	0.147	0.097
-91.772	800.000	-0.058	0.236
-90.757	800.000	0.110	-0.335
-89.743	269.534	-0.179	0.307
-88.728	-55.967	0.217	0.095
-87.713	-200.000	-0.086	0.388
-86.699	-184.571	-0.166	-0.003
-85.684	-54.738	-0.182	0.081
-84.670	-79.284	-0.061	0.020
-83.655	-122.739	0.173	-0.027
-82.640	103.696	0.108	0.124
-81.626	286.596	0.109	-0.192
-80.611	-200.000	-0.151	0.001
-79.597	-200.000	0.033	-0.206
-78.582	-97.041	-0.182	0.046
-77.567	249.266	0.074	0.122
-76.553	-3.321	-0.148	0.101
-75.538	28.072	-0.047	0.039
-74.524	-76.340	-0.345	-0.119
-73.509	-26.035	0.258	0.148
-72.494	-94.787	-0.299	-0.079
-71.480	461.427	0.064	-0.139
-70.465	0.153	-0.088	-0.062
-69.451	-1.523	-0.087	-0.060
-68.436	-73.836	0.022	-0.008
-67.422	142.607	-0.059	-0.077
-66.407	331.076	0.093	0.175
-65.392	48.064	0.223	0.204
-64.378	-179.025	-0.423	-0.009
-63.363	-130.051	-0.223	-0.030
-62.349	-58.407	-0.061	-0.026
-61.334	107.047	-0.862	-1.001
-60.319	106.695	0.376	0.436
-59.305	299.558	-0.487	-0.876
-58.290	800.000	0.390	1.118
-57.276	493.406	0.773	1.732
-56.261	-200.000	117.621	645.221
-55.246	485.659	1553.755	3457.053
-54.232	174.401	2720.492	3840.938
-53.217	102.812	2174.268	2485.403
-52.203	36.705	1690.055	1457.717
-51.188	29.312	1506.311	1249.309
-50.173	27.134	1481.275	1213.963
-49.159	49.045	1543.531	1415.381
-48.144	47.917	1557.544	1420.466
-47.130	29.263	1512.407	1253.831
-46.115	26.389	1497.405	1221.956
-45.100	26.196	1494.151	1217.951
-44.086	26.220	1491.667	1216.038
-43.071	26.129	1489.716	1213.790
-42.057	26.006	1488.847	1212.208
-41.042	26.132	1486.604	1211.177
-40.027	26.145	1485.057	1209.958
-39.013	26.037	1484.014	1208.334
-37.998	26.069	1482.680	1207.415
-36.984	26.183	1481.704	1207.334
-35.969	26.063	1480.426	1205.443
-34.954	26.091	1479.511	1204.835
-33.940	26.088	1477.521	1203.148
-32.925	26.133	1475.948	1202.123
-31.911	26.144	1474.807	1201.219
-30.896	26.144	1473.703	1200.266
-29.881	26.234	1472.292	1199.668
-28.867	26.182	1471.364	1198.519
-27.852	26.266	1469.525	1197.536
-26.838	26.183	1468.489	1196.094
-25.823	26.210	1466.641	1194.716
-24.809	26.240	1465.077	1193.596
-23.794	26.125	1464.181	1192.057
-22.779	26.048	1463.262	1190.755
-21.765	26.197	1461.615	1190.347
-20.750	26.128	1460.799	1189.181
-19.736	26.189	1459.390	1188.387
-18.721	26.166	1458.454	1187.429
-17.706	26.170	1457.298	1186.465
-16.692	26.203	1455.830	1185.443
-15.677	26.162	1454.919	1184.382
-14.663	26.133	1454.322	1183.657
-13.648	26.018	1453.603	1182.274
-12.633	26.069	1452.703	1181.825
-11.619	26.117	1451.665	1181.251
-10.604	26.109	1450.850	1180.487
-9.590	26.038	1449.971	1179.265
-8.575	26.034	1449.438	1178.758
-7.560	26.147	1448.081	1178.347
-6.546	26.061	1447.346	1177.139
-5.531	26.105	1446.134	1176.390
-4.517	26.166	1445.139	1175.935
-3.502	26.175	1444.139	1175.131
-2.487	26.062	1443.711	1174.002
-1.473	26.077	1442.370	1172.960
-0.458	26.119	1441.042	1172.111
0.556	27.871	1430.738	1160.730
1.571	24.664	1406.947	1121.245
2.586	21.337	1348.875	1054.828
3.600	19.766	1267.645	982.299
4.615	18.479	1222.770	940.382
5.629	16.423	1166.459	886.228
6.644	10.064	1085.567	793.565
7.659	4.892	1049.944	742.848
8.673	4.212	1044.351	735.601
9.688	4.063	1040.846	732.361
10.702	4.011	1038.971	730.732
11.717	4.064	1037.418	729.825
12.731	6.444	1039.174	742.219
13.746	13.532	1048.258	782.224
14.761	20.010	1057.081	819.490
15.775	22.206	1059.375	831.595
16.790	21.909	1058.254	829.237
17.804	21.030	1055.923	823.191
18.819	20.216	1054.328	818.035
19.834	19.741	1053.491	815.078
20.848	19.813	1052.245	814.380
21.863	19.716	1051.950	813.621
22.877	19.510	1051.445	812.191
23.892	19.394	1050.653	810.962
24.907	19.332	1049.691	809.857
25.921	19.290	1048.927	808.996
26.936	19.120	1048.208	807.577
27.950	19.362	1046.800	807.552
28.965	19.160	1046.176	806.053
29.980	19.404	1044.385	805.744
30.994	19.436	1043.894	805.440
32.009	19.616	1043.131	805.621
33.023	19.664	1042.565	805.337
34.038	19.781	1041.140	804.711
35.053	19.519	1040.484	802.912
36.067	19.411	1039.605	801.660
37.082	19.406	1038.379	800.621
38.096	19.269	1037.727	799.410
39.111	19.479	1037.249	799.947
40.126	19.692	1035.658	799.636
41.140	19.505	1034.906	798.118
42.155	19.198	1033.862	795.824
43.169	18.999	1032.277	793.617
44.184	18.985	1031.504	792.888
45.199	18.881	1030.267	791.388
46.213	18.852	1029.329	790.466
47.228	18.988	1028.797	790.610
48.242	19.325	1027.965	791.447
49.257	19.386	1027.372	791.202
50.271	19.361	1026.241	790.145
51.286	19.430	1025.442	789.777
52.301	19.406	1024.966	789.232
53.315	19.456	1024.434	788.980
54.330	19.368	1023.059	787.451
55.344	19.237	1022.092	786.035
56.359	19.114	1021.198	784.719
57.374	19.032	1020.768	783.946
58.388	18.988	1019.943	783.044
59.403	19.041	1018.497	782.103
60.417	18.875	1017.971	780.879
61.432	18.859	1017.397	780.297
62.447	18.841	1016.740	779.639
63.461	18.738	1015.750	778.346
64.476	18.763	1014.373	777.336
65.490	18.660	1013.704	776.289
66.505	18.819	1012.495	776.010
67.520	18.582	1012.346	774.757
68.534	18.725	1011.572	774.743
69.549	18.697	1010.823	773.974
70.563	18.771	1009.639	773.331
71.578	18.570	1009.347	772.134
72.593	18.546	1008.118	771.020
73.607	18.464	1007.110	769.810
74.622	18.360	1006.151	768.542
75.636	18.310	1005.789	767.977
76.651	18.571	1004.413	768.023
77.666	18.538	1004.279	767.707
78.680	18.647	1003.157	767.268
79.695	18.519	1003.133	766.611
80.709	18.652	1002.253	766.465
81.724	18.726	1001.624	766.246
82.739	18.901	1001.037	766.507
83.753	18.877	1000.368	765.824
84.768	19.298	999.203	766.735
85.782	19.555	999.146	767.768
86.797	19.934	998.368	768.786
87.812	19.890	997.427	767.796
88.826	19.540	996.918	765.787
89.841	19.549	995.816	764.911
90.855	19.708	994.824	764.785
91.870	19.612	994.669	764.175
92.884	19.661	994.163	763.933
93.899	19.723	993.218	763.415
94.914	19.669	992.296	762.399
95.928	19.711	991.507	761.908
96.943	19.760	990.637	761.391
97.957	19.745	989.751	760.575
98.972	19.541	988.762	758.851
99.987	19.448	988.229	757.968
101.001	19.704	987.665	758.593
102.016	19.671	986.492	757.478
103.030	19.564	985.714	756.345
104.045	19.519	984.924	755.474
105.060	19.523	984.388	755.017
106.074	19.398	982.935	753.289
107.089	19.213	982.259	751.897
108.103	18.934	980.809	749.505
109.118	18.998	979.577	748.774
110.133	18.782	978.794	747.169
111.147	18.759	977.861	746.289
112.162	18.851	976.809	745.820
113.176	18.745	976.426	745.004
114.191	19.055	975.515	745.587
115.206	19.135	974.394	745.008
116.220	18.937	974.389	744.083
117.235	18.965	973.133	743.179
118.249	18.916	972.359	742.312
119.264	18.840	971.417	741.198
120.279	18.733	970.768	740.176
121.293	18.812	969.399	739.407
122.308	18.746	968.960	738.725
123.322	18.587	967.994	737.240
124.337	18.456	966.817	735.713
125.352	18.441	965.778	734.794
126.366	18.476	964.900	734.209
127.381	18.495	963.838	733.420
128.395	18.418	962.970	732.364
129.410	18.479	962.523	732.219
130.424	18.613	961.069	731.621
131.439	18.659	960.618	731.409
132.454	18.829	959.803	731.445
133.468	18.776	959.564	730.976
134.483	18.913	959.083	731.127
135.497	18.978	958.130	730.612
136.512	18.898	957.602	729.805
137.527	19.018	956.532	729.432
138.541	19.027	955.984	728.991
139.556	18.897	955.161	727.747
140.570	18.993	954.349	727.469
141.585	19.151	953.717	727.590
142.600	19.298	953.441	727.936
143.614	19.431	952.494	727.713
144.629	19.505	952.105	727.663
145.643	19.654	951.594	727.834
146.658	19.515	950.460	726.319
147.673	19.421	949.225	724.916
148.687	19.302	948.209	723.576
149.702	19.059	947.143	721.677
150.716	19.058	946.469	721.095
151.731	18.901	945.728	719.809
152.746	18.923	945.465	719.642
153.760	19.120	944.546	719.698
154.775	19.043	943.651	718.633
155.789	19.239	942.667	718.636
156.804	19.209	942.333	718.195
157.819	19.435	940.909	717.986
158.833	19.409	940.556	717.546
159.848	19.396	940.640	717.491
160.862	19.666	939.533	717.704
161.877	19.632	938.534	716.736
162.892	19.341	937.448	714.639
163.906	18.846	937.130	712.284
164.921	19.033	935.907	712.061
165.935	18.990	934.617	710.842
166.950	19.077	933.804	710.520
167.964	19.241	932.737	710.321
168.979	19.204	931.730	709.337
169.994	19.200	930.639	708.428
171.008	19.007	930.083	707.149
172.023	19.126	929.489	707.123
173.037	19.327	929.009	707.523
174.052	19.674	928.190	708.259
175.067	19.534	927.791	707.317
176.081	19.098	926.663	704.608
177.096	18.975	925.231	702.955
178.110	18.832	924.661	701.875
179.125	18.872	923.904	701.404
180.140	19.053	923.344	701.653
181.154	19.147	922.510	701.341
182.169	19.374	922.450	702.158
183.183	19.352	922.121	701.755
184.198	19.322	921.544	701.134
185.213	19.584	920.375	701.243
186.227	19.586	919.747	700.712
187.242	19.466	919.861	700.250
188.256	19.639	918.832	700.107
189.271	19.707	918.398	699.989
190.286	19.967	917.641	700.403
191.300	19.617	916.396	697.976
192.315	19.191	914.948	695.092
193.329	18.852	914.527	693.344
194.344	18.834	913.758	692.627
195.359	19.053	913.415	693.187
196.373	19.261	912.923	693.591
197.388	19.306	912.739	693.572
198.402	19.604	912.242	694.329
199.417	19.783	912.107	694.884
200.432	19.888	912.115	695.249
201.446	20.038	911.081	695.003
202.461	20.044	910.904	694.832
203.475	20.214	910.628	695.239
204.490	20.207	909.595	694.363
205.504	19.864	908.557	692.135
206.519	19.674	907.561	690.555
207.534	19.589	906.966	689.705
208.548	19.695	906.133	689.433
209.563	19.650	905.619	688.801
210.577	19.718	904.716	688.323
211.592	19.747	904.140	687.939
212.607	19.847	904.274	688.379
213.621	20.030	903.499	688.457
214.636	19.984	902.539	687.480
215.650	19.790	902.076	686.299
216.665	19.732	901.863	685.844
217.680	19.950	901.225	686.161
218.694	20.204	900.853	686.826
219.709	20.282	900.161	686.543
220.723	20.046	899.782	685.261
221.738	20.020	898.833	684.376
222.753	20.064	897.891	683.771
223.767	20.112	897.204	683.376
224.782	20.030	896.530	682.482
225.796	20.149	895.911	682.417
226.811	20.310	895.344	682.559
227.826	20.161	894.867	681.550
228.840	20.028	893.547	679.960
229.855	20.009	892.848	679.293
230.869	19.951	892.601	678.817
231.884	19.932	891.712	678.010
232.899	19.863	891.128	677.235
233.913	19.783	890.697	676.532
234.928	19.634	889.447	674.942
235.942	19.542	888.475	673.786
236.957	19.552	887.903	673.331
237.972	19.598	887.182	672.906
238.986	19.531	886.906	672.374
240.001	19.645	886.105	672.150
241.015	19.632	885.672	671.712
242.030	19.719	884.618	671.192
243.045	19.819	884.445	671.391
244.059	19.814	883.947	670.932
245.074	19.876	883.544	670.809
246.088	19.821	882.741	669.926
247.103	20.108	882.442	670.749
248.117	20.029	881.909	669.978
249.132	20.297	881.714	670.809
250.147	20.727	881.036	671.892
251.161	20.884	880.634	672.136
252.176	21.000	880.209	672.197
253.190	21.070	879.399	671.788
254.205	21.050	878.876	671.251
255.220	21.160	878.241	671.132
256.234	21.011	877.934	670.265
257.249	21.010	877.077	669.547
258.263	21.006	876.381	668.940
259.278	20.960	876.190	668.560
260.293	20.952	875.496	667.940
261.307	21.104	874.904	668.013
262.322	21.056	874.804	667.693
263.336	21.168	873.982	667.436
264.351	21.237	873.131	666.987
265.366	21.056	872.831	666.008
266.380	21.279	871.814	666.024
267.395	21.156	871.628	665.354
268.409	20.959	870.442	663.641
269.424	21.011	869.768	663.265
270.439	20.957	868.836	662.293
271.453	20.915	868.385	661.728
272.468	20.800	867.552	660.600
273.482	20.678	866.936	659.610
274.497	20.731	866.325	659.287
275.512	20.691	865.688	658.595
276.526	20.724	864.702	657.911
277.541	20.661	864.509	657.466
278.555	20.718	863.848	657.120
279.570	21.006	863.508	657.891
280.585	21.073	863.254	657.892
281.599	21.247	862.706	658.071
282.614	21.052	861.580	656.421
283.628	20.953	860.844	655.431
284.643	20.761	860.565	654.439
285.657	20.958	859.985	654.677
286.672	20.838	859.402	653.725
287.687	20.871	858.995	653.485
288.701	20.908	858.928	653.514
289.716	20.899	858.104	652.795
290.730	20.962	857.724	652.684
291.745	20.982	856.735	651.947
292.760	20.935	855.989	651.147
293.774	21.052	855.661	651.276
294.789	21.258	855.363	651.760
295.803	21.322	854.519	651.298
296.818	21.076	854.070	649.983
297.833	20.982	852.952	648.724
298.847	21.088	852.083	648.399
299.862	21.086	851.812	648.129
300.876	21.094	850.842	647.363
301.891	21.258	850.443	647.610
302.906	21.449	849.975	647.906
303.920	21.501	849.701	647.829
304.935	21.519	849.290	647.525
305.949	21.765	848.668	647.904
306.964	21.720	848.006	647.176
307.979	21.406	847.084	645.256
308.993	21.300	847.038	644.773
310.008	21.435	846.431	644.750
311.022	21.456	845.900	644.368
312.037	21.542	844.934	643.892
313.052	21.362	844.733	643.020
314.066	20.958	843.857	640.812
315.081	20.828	843.288	639.844
316.095	20.835	842.678	639.349
317.110	21.076	841.767	639.487
318.125	21.180	840.877	639.136
319.139	21.026	840.522	638.243
320.154	21.038	840.179	637.972
321.168	20.944	839.692	637.203
322.183	21.034	839.562	637.374
323.197	21.171	838.638	637.117
324.212	21.141	838.411	636.777
325.227	21.293	837.323	636.452
326.241	21.067	837.305	635.557
327.256	21.039	836.475	634.769
328.270	20.936	836.379	634.266
329.285	21.008	835.670	633.934
330.300	21.014	835.009	633.396
331.314	20.980	834.298	632.678
332.329	21.058	833.973	632.660
333.343	21.361	833.230	633.138
334.358	21.483	832.901	633.274
335.373	21.436	832.340	632.620
336.387	21.468	831.954	632.387
337.402	21.484	831.725	632.215
338.416	21.710	831.207	632.580
339.431	21.886	830.445	632.579
340.446	21.811	830.411	632.228
341.460	21.960	830.041	632.428
342.475	22.023	829.149	631.917
343.489	22.136	828.979	632.140
344.504	22.154	827.898	631.324
345.519	22.148	827.801	631.171
346.533	22.286	827.400	631.305
347.548	22.254	826.793	630.670
348.562	21.866	826.128	628.717
349.577	21.743	825.466	627.719
350.592	21.751	824.291	626.797
351.606	21.580	823.998	625.909
352.621	21.421	823.656	625.024
353.635	21.521	822.952	624.790
354.650	21.550	822.847	624.760
355.665	21.470	822.435	624.108
356.679	21.636	822.042	624.345
357.694	21.849	821.565	624.687
358.708	21.934	820.812	624.362
359.723	21.828	820.078	623.370
360.738	21.721	819.750	622.688
361.752	21.869	819.100	622.663
362.767	21.787	819.125	622.336
363.781	22.016	818.676	622.753
364.796	22.053	818.623	622.787
365.810	22.236	818.451	623.249
366.825	22.602	817.697	623.918
367.840	22.450	817.488	623.164
368.854	22.400	816.930	622.506
369.869	22.318	816.286	621.672
370.883	22.154	815.732	620.615
371.898	22.019	815.116	619.614
372.913	22.328	814.250	619.990
373.927	22.515	813.590	620.092
374.942	22.363	813.185	619.194
375.956	22.247	812.684	618.349
376.971	22.366	812.127	618.291
377.986	22.472	811.936	618.461
379.000	22.588	811.051	618.138
380.015	22.740	810.784	618.413
381.029	22.667	809.888	617.421
382.044	22.415	809.567	616.241
383.059	22.503	809.221	616.227
384.073	22.666	808.592	616.266
385.088	22.493	807.929	615.101
386.102	22.174	807.332	613.478
387.117	22.206	806.490	612.896
388.132	21.977	806.131	611.772
389.146	22.073	805.862	611.848
390.161	22.025	805.417	611.288
391.175	22.308	805.226	612.072
392.190	22.592	804.841	612.714
393.205	22.380	804.327	611.531
394.219	22.228	803.576	610.380
395.234	22.329	802.778	610.071
396.248	22.139	802.330	609.016
397.263	22.023	801.552	607.970
398.278	21.976	800.966	607.309
399.292	21.941	800.572	606.836
400.307	21.856	800.658	606.554
401.321	21.941	799.988	606.289
402.336	21.973	799.578	606.034
403.350	22.048	799.527	606.200
404.365	22.168	798.955	606.126
405.380	22.328	798.864	606.554
406.394	22.482	798.271	606.581
407.409	22.599	798.174	606.858
408.423	22.668	797.905	606.836
409.438	22.887	796.972	606.826
410.453	22.915	796.659	606.631
411.467	22.944	796.211	606.334
412.482	23.004	795.755	606.138
413.496	23.012	795.586	605.985
414.511	23.207	795.369	606.433
415.526	23.196	794.997	606.058
416.540	22.980	794.595	604.959
417.555	22.955	793.820	604.231
418.569	22.979	793.248	603.823
419.584	22.995	792.735	603.434
420.599	22.997	792.346	603.090
421.613	165.196	1370.840	1796.723
422.628	143.298	1455.110	1796.801
