DTS Sentinel unit serial number:	SN413079Multiplexer serial number:	ORYXHardware model number:	OX4-SRSoftware version number:	ORYX F/W v4.00 Oryx Data Collector v3.7.2.0data status	okinstallation	princeton_trtdifferential loss correction	single-endedforward channel	channel 3reverse channel	N/Adate	2019/09/12time	19:08:04forward acquisition time	15.00reverse acquisition time	0.00gamma	496.2192k internal	0.2319k external	0.2319temperature offset calibration	1.0105default loss term (dB/km)	0.3790temperature slope calibration	1.0000multiplexer offset coefficient	1.0000multiplexer slope coefficient	1.0000fibre end	0.00T internal ref (°C)	32.62T ext. ref 1 (°C)	3.18T ext. ref 2 (°C)	27.24length (m)	temperature (°C)	Stokes	anti-Stokes-747.200	179.184	-0.515	0.763
-746.185	-60.514	-0.505	0.217
-745.171	103.368	0.702	0.833
-744.156	61.266	0.305	-0.306
-743.142	330.274	-0.198	-0.385
-742.127	-50.627	-0.366	-0.175
-741.112	-19.170	0.641	0.402
-740.098	-112.811	-0.089	-0.018
-739.083	-200.000	-0.120	-0.644
-738.069	-200.000	0.064	0.357
-737.054	800.000	-0.069	0.218
-736.039	61.563	0.277	0.279
-735.025	-90.651	-0.402	0.117
-734.010	-81.899	0.103	0.034
-732.996	-97.414	-0.067	-0.018
-731.981	37.892	0.429	-0.385
-730.966	-158.665	-0.875	0.051
-729.952	-61.070	0.230	-0.098
-728.937	179.082	-0.278	-0.411
-727.923	20.218	0.323	-0.264
-726.908	-25.642	-0.079	0.047
-725.894	-11.360	-0.293	-0.195
-724.879	-200.000	-0.039	-0.953
-723.864	323.265	-0.095	-0.183
-722.850	-200.000	-0.072	-0.551
-721.835	276.672	0.161	-0.289
-720.821	-200.000	-0.183	0.821
-719.806	210.154	0.309	-0.490
-718.791	284.644	-0.349	-0.635
-717.777	2.377	-0.349	-0.255
-716.762	-186.640	-0.552	0.008
-715.748	-131.631	0.292	-0.039
-714.733	152.646	0.205	0.282
-713.718	45.873	0.948	0.886
-712.704	-200.000	-0.042	-0.392
-711.689	479.719	-0.299	-0.685
-710.675	-200.000	0.089	-0.419
-709.660	-200.000	0.078	-0.590
-708.645	-200.000	-0.058	0.466
-707.631	297.181	-0.343	0.637
-706.616	35.735	-0.319	-0.283
-705.602	-200.000	-0.099	0.488
-704.587	51.998	-0.590	-0.567
-703.572	-4.818	-0.301	0.209
-702.558	75.902	0.760	-0.811
-701.543	6.508	0.135	0.101
-700.529	-3.216	0.341	-0.240
-699.514	-23.968	0.559	0.338
-698.499	133.198	0.248	0.323
-697.485	-200.000	-0.115	0.749
-696.470	-170.957	-0.226	0.008
-695.456	-159.507	-0.356	0.020
-694.441	135.516	-0.706	-0.927
-693.426	32.210	0.193	0.168
-692.412	-108.274	-0.570	0.124
-691.397	200.134	-0.202	-0.314
-690.383	-189.048	-0.966	0.012
-689.368	-200.000	-0.061	0.282
-688.354	146.200	0.116	-0.158
-687.339	-189.764	-0.840	0.010
-686.324	21.204	-0.578	-0.474
-685.310	-14.696	0.451	0.292
-684.295	-35.703	0.558	-0.305
-683.281	-70.749	0.267	0.102
-682.266	-147.798	0.326	0.028
-681.251	528.796	0.253	0.602
-680.237	-200.000	0.009	-0.737
-679.222	294.006	0.333	-0.614
-678.208	-126.794	0.394	0.059
-677.193	800.000	-0.416	-1.238
-676.178	-200.000	-0.046	-0.491
-675.164	-97.735	-0.687	0.179
-674.149	-200.000	-0.029	0.998
-673.135	800.000	-0.188	0.582
-672.120	375.944	-0.396	-0.815
-671.105	-45.980	0.087	0.043
-670.091	104.327	-0.651	-0.773
-669.076	212.633	-0.344	-0.548
-668.062	-10.454	-0.467	-0.312
-667.047	-79.512	0.703	0.239
-666.032	467.423	0.098	0.222
-665.018	-112.260	-0.607	-0.123
-664.003	-6.916	-0.568	0.389
-662.989	-168.178	0.161	0.006
-661.974	263.969	-0.273	-0.478
-660.959	216.658	-0.026	0.042
-659.945	267.040	0.123	0.216
-658.930	-182.689	0.871	0.016
-657.916	224.309	-0.156	0.255
-656.901	51.245	-0.344	0.329
-655.886	-109.835	-0.738	0.156
-654.872	46.675	0.263	0.246
-653.857	-59.832	0.401	-0.173
-652.843	-200.000	-0.124	-1.085
-651.828	560.978	-0.351	-0.855
-650.814	800.000	-0.068	-0.296
-649.799	-152.253	-0.970	0.071
-648.784	-40.066	0.808	0.425
-647.770	800.000	-0.157	0.582
-646.755	-39.084	0.753	-0.399
-645.741	19.564	-0.086	0.070
-644.726	38.693	-0.192	0.173
-643.711	430.649	-0.408	0.891
-642.697	76.453	-0.171	-0.183
-641.682	-110.305	-0.737	0.154
-640.668	307.700	-0.384	-0.722
-639.653	617.610	0.261	0.661
-638.638	-135.325	-1.126	0.136
-637.624	-85.799	0.397	0.124
-636.609	-52.077	0.348	-0.163
-635.595	6.770	-0.099	-0.074
-634.580	800.000	-0.187	-0.641
-633.565	-200.000	0.007	0.383
-632.551	-53.591	-0.964	0.444
-631.536	-200.000	-0.134	-0.686
-630.522	-47.788	0.600	-0.293
-629.507	800.000	-0.092	-0.351
-628.492	160.860	0.385	-0.542
-627.478	278.680	-0.247	-0.443
-626.463	-50.107	-0.320	-0.153
-625.449	-8.310	-0.229	-0.155
-624.434	-200.000	-0.106	-0.920
-623.419	-123.300	0.975	-0.157
-622.405	-58.265	-0.219	-0.096
-621.390	441.199	-0.113	-0.249
-620.376	-53.995	0.229	0.105
-619.361	-118.099	0.974	0.175
-618.346	8.688	-0.606	-0.460
-617.332	146.579	-0.410	-0.554
-616.317	-200.000	-0.036	0.886
-615.303	-130.867	0.343	-0.046
-614.288	110.823	0.225	0.273
-613.273	-168.273	-0.236	-0.009
-612.259	287.865	-0.115	0.210
-611.244	-200.000	0.050	0.500
-610.230	421.520	0.151	-0.325
-609.215	413.024	0.097	-0.208
-608.201	-2.848	-0.775	0.545
-607.186	800.000	-0.181	-0.504
-606.171	239.701	-0.212	0.355
-605.157	87.417	0.312	0.347
-604.142	-4.801	0.187	-0.130
-603.128	403.592	0.357	-0.756
-602.113	563.849	0.128	0.311
-601.098	2.826	-0.774	-0.565
-600.084	-57.248	0.335	-0.148
-599.069	69.782	0.593	-0.615
-598.055	291.257	-0.323	0.590
-597.040	59.302	0.266	-0.263
-596.025	1.505	0.468	0.338
-595.011	-165.534	0.256	-0.011
-593.996	-200.000	-0.006	-0.867
-592.982	105.122	-0.584	-0.693
-591.967	48.589	0.586	0.552
-590.952	-21.086	0.160	0.098
-589.938	800.000	0.120	0.342
-588.923	116.506	0.350	0.431
-587.909	-116.073	-0.304	-0.057
-586.894	59.677	0.225	-0.223
-585.879	103.314	0.510	0.601
-584.865	87.435	-0.556	-0.618
-583.850	800.000	-0.094	-0.296
-582.836	527.328	-0.295	0.699
-581.821	52.719	-0.113	0.108
-580.806	-43.078	0.174	-0.089
-579.792	19.650	0.117	-0.095
-578.777	800.000	0.125	0.400
-577.763	-122.351	0.593	0.097
-576.748	-6.982	0.826	-0.564
-575.733	-28.552	-0.789	0.457
-574.719	-43.416	0.255	0.129
-573.704	-70.444	0.280	0.107
-572.690	-129.969	0.641	-0.088
-571.675	-36.551	0.462	-0.250
-570.661	756.521	0.201	-0.546
-569.646	285.617	-0.105	0.190
-568.631	-89.958	-0.959	0.281
-567.617	17.322	-0.549	0.438
-566.602	300.750	0.306	-0.566
-565.588	-0.024	0.027	-0.019
-564.573	-118.237	-0.746	0.133
-563.558	800.000	0.143	0.591
-562.544	-19.164	0.392	-0.244
-561.529	168.327	-0.060	0.086
-560.515	70.471	-0.550	0.571
-559.500	42.040	-0.184	-0.167
-558.485	-177.010	-0.103	0.003
-557.471	542.387	-0.213	0.509
-556.456	800.000	0.191	-0.611
-555.442	-119.633	-0.664	-0.115
-554.427	800.000	0.132	0.520
-553.412	26.194	-0.472	-0.395
-552.398	12.945	-0.616	-0.478
-551.383	301.468	-0.321	-0.596
-550.369	-69.926	-0.641	0.245
-549.354	207.582	0.391	0.612
-548.339	113.154	-0.172	-0.209
-547.325	43.377	-0.529	0.485
-546.310	-15.655	-0.112	0.071
-545.296	-45.385	0.381	0.190
-544.281	-148.106	-0.567	-0.047
-543.266	-200.000	0.006	-0.593
-542.252	19.037	0.136	-0.109
-541.237	279.725	-0.219	-0.393
-540.223	-200.000	-0.038	0.250
-539.208	-83.164	-0.117	-0.038
-538.193	405.951	0.199	0.422
-537.179	541.470	0.215	-0.514
-536.164	167.806	-0.099	0.141
-535.150	-200.000	0.053	0.464
-534.135	633.314	-0.024	0.062
-533.121	-200.000	-0.058	-0.342
-532.106	-141.031	-0.602	0.062
-531.091	12.903	0.671	0.520
-530.077	-200.000	-0.456	-0.000
-529.062	252.820	-0.204	-0.349
-528.048	66.222	-0.577	0.588
-527.033	-122.435	0.567	0.093
-526.018	130.748	-0.436	-0.561
-525.004	-117.082	-0.335	0.061
-523.989	522.896	-0.233	-0.550
-522.975	-97.101	-0.802	-0.210
-521.960	-42.283	0.502	0.257
-520.945	800.000	0.063	-0.252
-519.931	16.212	0.184	-0.145
-518.916	-126.190	0.112	0.017
-517.902	368.840	0.180	0.364
-516.887	93.407	0.755	-0.857
-515.872	-50.165	0.374	-0.177
-514.858	-49.681	0.500	-0.238
-513.843	1.345	0.130	-0.093
-512.829	166.504	-0.304	0.431
-511.814	-67.521	-0.141	0.055
-510.799	721.967	0.282	-0.753
-509.785	-38.497	-0.578	-0.306
-508.770	-144.415	0.422	0.039
-507.756	-22.386	0.457	-0.278
-506.741	-3.127	-0.334	-0.233
-505.726	-141.773	0.619	0.062
-504.712	800.000	0.401	-1.200
-503.697	79.743	-0.580	0.624
-502.683	42.382	-0.562	-0.512
-501.668	44.548	-0.089	-0.082
-500.653	450.545	0.464	1.025
-499.639	194.951	-0.181	0.276
-498.624	250.122	0.312	-0.531
-497.610	-200.000	-0.017	-0.084
-496.595	115.845	0.098	0.120
-495.581	20.238	-0.703	-0.569
-494.566	5.426	0.614	-0.454
-493.551	-200.000	-0.031	0.237
-492.537	792.839	-0.288	0.793
-491.522	18.957	0.152	-0.122
-490.508	-12.626	-0.095	-0.062
-489.493	-135.553	0.359	-0.043
-488.478	-167.041	0.602	0.025
-487.464	-79.207	0.113	-0.038
-486.449	-65.853	1.098	0.440
-485.435	234.294	-0.177	0.292
-484.420	-97.601	-0.874	0.227
-483.405	-190.950	0.309	-0.003
-482.391	-200.000	-0.092	-0.514
-481.376	-54.547	-0.740	0.335
-480.362	-200.000	-0.134	-0.828
-479.347	-200.000	0.000	-0.454
-478.332	-59.404	0.988	0.425
-477.318	-200.000	0.002	0.189
-476.303	-121.761	-0.250	0.041
-475.289	800.000	0.230	0.950
-474.274	-75.333	0.939	-0.335
-473.259	47.223	0.443	0.413
-472.245	800.000	-0.050	0.201
-471.230	211.061	0.135	-0.212
-470.216	-40.079	-0.625	-0.326
-469.201	152.034	0.420	0.573
-468.186	-108.517	0.233	-0.050
-467.172	-132.746	1.000	-0.128
-466.157	-2.052	0.698	0.491
-465.143	800.000	0.170	-0.722
-464.128	104.065	-0.236	-0.278
-463.113	426.958	0.333	0.719
-462.099	207.454	0.454	-0.709
-461.084	21.653	0.967	-0.787
-460.070	20.913	0.638	0.517
-459.055	-39.514	1.036	0.543
-458.040	-40.178	0.164	0.086
-457.026	-200.000	-0.125	1.046
-456.011	800.000	0.195	0.800
-454.997	-200.000	-0.096	0.643
-453.982	412.909	-0.147	-0.312
-452.968	401.259	0.418	-0.878
-451.953	361.888	-0.322	-0.645
-450.938	-93.462	0.758	-0.210
-449.924	428.435	0.378	0.817
-448.909	104.753	0.514	0.606
-447.895	70.635	-0.261	-0.270
-446.880	-57.746	0.309	-0.135
-445.865	-200.000	-0.020	-0.465
-444.851	800.000	-0.146	-0.407
-443.836	-49.556	-0.389	-0.185
-442.822	-7.140	0.703	-0.477
-441.807	-97.239	0.273	0.071
-440.792	-200.000	-0.069	0.493
-439.778	-9.252	-0.600	0.401
-438.763	73.626	0.300	-0.314
-437.749	-103.462	-0.523	-0.123
-436.734	-200.000	-0.025	0.467
-435.719	140.260	-0.144	-0.190
-434.705	800.000	-0.103	-0.297
-433.690	-177.328	1.005	-0.025
-432.676	142.016	0.137	-0.182
-431.661	-7.852	-0.207	-0.139
-430.646	-121.760	0.125	-0.021
-429.632	47.567	-0.536	-0.500
-428.617	-200.000	-0.033	-0.270
-427.603	-155.512	0.228	0.015
-426.588	-80.029	-0.359	0.120
-425.573	800.000	0.201	-0.591
-424.559	-95.164	-0.551	-0.148
-423.544	-200.000	-0.020	0.241
-422.530	-200.000	-0.027	-0.534
-421.515	800.000	-0.282	-0.802
-420.500	-21.820	0.081	-0.049
-419.486	339.978	0.089	0.174
-418.471	116.157	0.201	-0.246
-417.457	-93.091	0.687	-0.191
-416.442	95.555	0.436	-0.496
-415.428	-200.000	0.059	-0.273
-414.413	67.113	-0.310	-0.316
-413.398	-128.215	0.370	0.053
-412.384	157.968	-0.301	0.416
-411.369	-84.425	-0.383	-0.121
-410.355	179.829	-0.395	-0.577
-409.340	287.188	0.075	0.135
-408.325	-200.000	-0.045	0.260
-407.311	-46.020	0.345	-0.170
-406.296	114.756	0.960	-1.168
-405.282	184.908	0.097	-0.144
-404.267	238.086	0.060	-0.099
-403.252	-200.000	0.071	0.440
-402.238	93.460	-0.221	0.250
-401.223	9.706	0.143	0.108
-400.209	-200.000	-0.062	0.463
-399.194	55.593	0.443	-0.429
-398.179	800.000	-0.279	0.830
-397.165	473.902	0.287	0.645
-396.150	-200.000	-0.138	0.744
-395.136	-69.604	0.213	-0.081
-394.121	-100.479	-1.180	0.291
-393.106	-63.329	-0.464	0.190
-392.092	256.813	0.149	0.255
-391.077	91.869	0.207	0.232
-390.063	795.616	0.429	-1.178
-389.048	-200.000	-0.034	0.624
-388.033	390.118	-0.157	0.325
-387.019	-74.232	0.103	0.037
-386.004	68.404	0.318	0.325
-384.990	-104.733	0.296	-0.068
-383.975	800.000	-0.180	-0.756
-382.960	64.308	-0.638	-0.640
-381.946	-170.209	-0.595	-0.021
-380.931	-37.923	0.237	-0.126
-379.917	800.000	0.211	-0.634
-378.902	390.373	-0.246	-0.509
-377.888	-101.854	0.273	-0.066
-376.873	692.910	-0.429	1.121
-375.858	-6.305	0.745	0.507
-374.844	22.714	-0.734	-0.599
-373.829	161.488	-0.310	-0.433
-372.815	29.982	-0.718	-0.610
-371.800	-200.000	-0.018	-0.750
-370.785	-44.640	0.676	0.337
-369.771	-131.140	-0.584	0.077
-368.756	32.574	0.555	-0.478
-367.742	1.731	-0.716	0.514
-366.727	-135.678	0.388	-0.046
-365.712	-111.103	-0.179	-0.036
-364.698	-200.000	0.015	0.359
-363.683	-105.435	0.341	0.077
-362.669	-102.025	-0.652	0.157
-361.654	-200.000	0.078	-0.463
-360.639	-85.692	-0.350	-0.108
-359.625	-73.844	0.409	-0.148
-358.610	-153.148	0.291	-0.020
-357.596	116.726	-0.553	0.676
-356.581	650.856	-0.316	-0.806
-355.566	91.418	0.666	0.745
-354.552	369.449	0.376	-0.758
-353.537	51.160	-0.488	-0.462
-352.523	0.687	0.888	0.633
-351.508	-200.000	-0.193	1.197
-350.493	-200.000	-0.056	-1.062
-349.479	82.427	0.462	0.499
-348.464	28.233	0.279	-0.235
-347.450	-200.000	0.092	-0.472
-346.435	-97.695	0.617	0.159
-345.420	553.658	-0.115	0.275
-344.406	16.228	0.402	-0.316
-343.391	-0.152	-0.495	0.351
-342.377	800.000	0.146	0.416
-341.362	270.951	0.293	-0.513
-340.348	43.037	0.067	0.061
-339.333	800.000	0.179	0.709
-338.318	-28.982	0.467	0.267
-337.304	-80.035	-0.787	0.263
-336.289	300.973	-0.535	0.983
-335.275	-200.000	0.069	0.761
-334.260	-167.467	0.535	-0.021
-333.245	107.121	-0.277	-0.328
-332.231	76.611	-0.304	-0.321
-331.216	-200.000	0.005	-0.180
-330.202	800.000	0.042	-0.165
-329.187	481.684	-0.155	-0.349
-328.172	-116.608	-0.543	-0.099
-327.158	-176.645	0.876	-0.022
-326.143	2.541	0.338	-0.244
-325.129	30.112	-0.698	-0.592
-324.114	-100.646	0.531	0.130
-323.099	-200.000	-0.483	0.001
-322.085	-200.000	0.040	0.214
-321.070	-159.906	-0.333	-0.018
-320.056	-200.000	-0.029	-0.150
-319.041	131.873	-0.590	0.755
-318.026	-83.346	-0.632	-0.202
-317.012	4.305	-0.482	-0.352
-315.997	-200.000	0.092	1.262
-314.983	406.110	0.310	0.651
-313.968	-54.492	-0.827	-0.373
-312.953	33.425	0.439	0.379
-311.939	-13.838	0.427	0.274
-310.924	-57.899	-0.343	-0.149
-309.910	251.989	0.456	-0.772
-308.895	800.000	0.175	0.509
-307.880	22.224	-0.193	0.157
-306.866	800.000	-0.206	0.849
-305.851	-167.998	-0.907	-0.035
-304.837	330.282	-0.226	0.432
-303.822	258.147	0.379	0.648
-302.807	385.223	-0.107	0.219
-301.793	-181.190	-0.670	-0.013
-300.778	-85.535	0.414	0.128
-299.764	184.435	0.241	0.354
-298.749	-200.000	0.060	-0.278
-297.735	-77.978	-1.103	-0.378
-296.720	-200.000	-0.014	0.161
-295.705	-19.462	-0.158	0.097
-294.691	-29.772	-0.565	0.320
-293.676	-7.341	-0.648	-0.436
-292.662	-126.771	0.300	-0.044
-291.647	-68.334	-0.663	0.256
-290.632	519.310	-0.122	-0.284
-289.618	37.772	0.649	-0.573
-288.603	152.954	0.580	-0.788
-287.589	800.000	0.154	-0.593
-286.574	800.000	-0.171	0.568
-285.559	70.532	-0.661	0.679
-284.545	52.766	0.363	0.345
-283.530	127.467	0.211	0.266
-282.516	779.506	0.253	0.688
-281.501	800.000	0.108	0.315
-280.486	800.000	0.274	0.981
-279.472	373.306	-0.353	0.714
-278.457	27.664	0.215	0.180
-277.443	-17.442	-0.821	0.513
-276.428	-146.200	0.436	-0.038
-275.413	66.979	0.259	0.262
-274.399	426.367	-0.279	0.596
-273.384	16.700	-0.925	-0.727
-272.370	-1.167	-0.224	-0.158
-271.355	216.886	-0.067	0.106
-270.340	-130.493	-0.507	0.068
-269.326	35.023	-0.541	0.470
-268.311	21.317	-0.340	-0.274
-267.297	-199.779	-0.785	0.004
-266.282	-200.000	0.076	-0.771
-265.267	386.680	-0.053	0.108
-264.253	-149.486	0.150	-0.012
-263.238	-200.000	0.044	-0.313
-262.224	74.906	0.532	-0.556
-261.209	-83.531	0.420	-0.133
-260.195	133.420	-0.355	-0.455
-259.180	-119.975	0.876	-0.149
-258.165	800.000	0.126	0.368
-257.151	800.000	0.035	0.137
-256.136	324.971	-0.190	0.360
-255.122	333.715	0.270	-0.518
-254.107	-42.363	0.452	-0.229
-253.092	-81.939	0.406	0.132
-252.078	-161.968	-0.367	-0.018
-251.063	-145.267	-0.230	-0.021
-250.049	-200.000	0.021	0.198
-249.034	800.000	-0.177	-0.741
-248.019	83.613	-0.770	-0.833
-247.005	-200.000	0.050	0.372
-245.990	20.779	-0.630	0.507
-244.976	-200.000	-0.001	-0.608
-243.961	-200.000	0.015	-0.378
-242.946	-200.000	-0.064	-0.457
-241.932	-146.127	1.055	-0.092
-240.917	-57.848	0.988	0.428
-239.903	-200.000	0.068	-1.169
-238.888	800.000	0.056	0.180
-237.873	83.270	-0.156	-0.169
-236.859	-200.000	-0.066	0.620
-235.844	25.763	-0.269	-0.222
-234.830	-100.061	-0.400	-0.099
-233.815	800.000	0.181	-0.534
-232.800	800.000	-0.213	0.601
-231.786	-200.000	-0.077	-0.803
-230.771	-200.000	-0.019	-0.206
-229.757	91.091	0.278	-0.309
-228.742	-19.813	0.397	-0.243
-227.727	162.787	-0.175	-0.243
-226.713	-177.397	-1.049	-0.026
-225.698	70.163	0.420	-0.430
-224.684	621.922	-0.181	0.451
-223.669	-200.000	0.167	-0.751
-222.655	800.000	0.207	-0.897
-221.640	800.000	0.113	0.388
-220.625	-18.641	-0.516	0.319
-219.611	-51.874	0.197	-0.091
-218.596	-38.812	0.245	0.128
-217.582	170.625	-0.186	-0.264
-216.567	31.669	-0.224	0.191
-215.552	104.533	-0.186	0.217
-214.538	-200.000	-0.025	0.257
-213.523	572.681	0.192	-0.464
-212.509	314.612	-0.135	-0.253
-211.494	-200.000	-0.137	0.846
-210.479	800.000	-0.197	0.718
-209.465	18.873	0.292	-0.232
-208.450	-54.487	0.168	0.076
-207.436	-20.498	0.082	-0.050
-206.421	-200.000	-0.141	-1.001
-205.406	800.000	0.150	-0.600
-204.392	426.323	0.176	0.375
-203.377	121.342	-0.253	0.312
-202.363	800.000	0.091	0.374
-201.348	-107.722	-0.228	0.049
-200.333	514.587	-0.416	0.962
-199.319	-200.000	0.045	0.545
-198.304	-35.935	-0.325	-0.174
-197.290	14.450	-0.047	-0.036
-196.275	90.453	0.320	0.354
-195.260	-200.000	-0.026	-0.627
-194.246	800.000	-0.418	-1.193
-193.231	-20.663	-0.156	0.095
-192.217	-130.499	-0.448	-0.060
-191.202	-97.918	-0.370	-0.095
-190.187	-56.594	-0.615	0.270
-189.173	-136.312	0.556	-0.064
-188.158	-3.824	0.421	0.289
-187.144	238.700	-0.226	0.371
-186.129	139.597	-0.161	0.209
-185.114	-99.859	-0.606	0.150
-184.100	-98.250	0.695	0.177
-183.085	800.000	-0.281	0.998
-182.071	-100.975	-0.418	-0.102
-181.056	-38.686	0.402	-0.210
-180.042	153.433	0.229	0.311
-179.027	697.452	0.405	1.053
-178.012	-97.446	-0.591	-0.152
-176.998	-157.973	-0.577	-0.034
-175.983	-200.000	0.112	0.517
-174.969	751.818	0.358	0.956
-173.954	627.448	-0.192	0.479
-172.939	2.562	0.397	0.285
-171.925	800.000	0.080	-0.311
-170.910	800.000	0.089	0.313
-169.896	-46.573	0.705	0.342
-168.881	-42.099	-0.414	-0.210
-167.866	800.000	-0.025	-0.106
-166.852	98.325	-0.317	-0.361
-165.837	70.514	0.487	0.498
-164.823	-20.547	-0.505	-0.307
-163.808	-88.251	1.058	0.313
-162.793	-57.660	-0.239	-0.103
-161.779	130.963	-0.330	-0.419
-160.764	35.225	0.453	0.393
-159.750	64.090	0.215	-0.214
-158.735	-53.280	0.847	0.384
-157.720	800.000	-0.230	0.824
-156.706	-110.807	0.541	0.110
-155.691	800.000	-0.066	0.248
-154.677	345.129	-0.268	-0.520
-153.662	118.929	-0.462	0.564
-152.647	-200.000	0.056	-0.927
-151.633	800.000	-0.018	-0.054
-150.618	691.699	-0.159	-0.412
-149.604	-200.000	0.026	-0.410
-148.589	800.000	0.208	-0.590
-147.574	-51.672	-0.515	0.237
-146.560	27.287	0.199	-0.165
-145.545	-79.546	-0.569	-0.190
-144.531	-33.493	0.996	-0.544
-143.516	-67.264	-1.138	-0.442
-142.502	-67.418	0.166	0.064
-141.487	137.415	-0.423	-0.546
-140.472	724.270	0.256	-0.673
-139.458	156.935	0.231	0.315
-138.443	393.920	0.139	-0.285
-137.429	-65.560	0.720	0.285
-136.414	-200.000	-0.069	-0.753
-135.399	-132.778	0.554	-0.070
-134.385	-139.651	0.567	0.060
-133.370	438.401	-0.184	0.397
-132.356	161.466	-0.362	0.500
-131.341	354.163	0.331	-0.649
-130.326	-118.818	-0.545	0.095
-129.312	-200.000	-0.026	0.389
-128.297	-200.000	0.030	0.356
-127.283	769.469	0.240	0.646
-126.268	-200.000	-0.002	-0.086
-125.253	-28.252	0.213	0.122
-124.239	-188.125	-0.775	0.010
-123.224	302.077	0.363	-0.662
-122.210	-117.619	-0.719	-0.128
-121.195	23.246	-0.136	-0.110
-120.180	224.953	0.169	-0.271
-119.166	-72.599	0.622	-0.226
-118.151	-71.998	0.186	0.068
-117.137	179.589	-0.133	-0.192
-116.122	59.023	0.429	-0.417
-115.107	-21.667	-0.407	0.245
-114.093	126.852	-0.466	-0.582
-113.078	316.662	-0.316	-0.588
-112.064	-200.000	-0.099	0.506
-111.049	-33.326	0.747	0.408
-110.034	800.000	-0.213	0.897
-109.020	190.804	-0.058	0.086
-108.005	-23.147	0.603	0.358
-106.991	267.586	0.119	-0.205
-105.976	6.157	-0.449	0.328
-104.962	11.616	0.336	-0.254
-103.947	-131.559	0.289	-0.037
-102.932	363.262	-0.751	1.488
-101.918	55.459	-0.263	-0.251
-100.903	82.840	0.211	-0.226
-99.889	-123.667	-0.745	0.116
-98.874	800.000	-0.244	0.977
-97.859	-51.650	1.012	0.466
-96.845	-200.000	0.203	0.907
-95.830	800.000	-0.178	-0.688
-94.816	-200.000	-0.031	0.408
-93.801	-85.624	-0.308	-0.094
-92.786	321.736	-0.037	0.069
-91.772	234.083	0.499	0.811
-90.757	325.153	-0.638	1.202
-89.743	333.048	-0.047	0.089
-88.728	-46.238	-0.078	-0.038
-87.713	455.719	-0.235	-0.515
-86.699	441.676	-0.076	-0.164
-85.684	97.327	0.416	0.471
-84.670	-94.479	-0.604	-0.162
-83.655	-200.000	0.111	0.950
-82.640	-200.000	0.019	0.683
-81.626	800.000	0.159	0.561
-80.611	-26.313	-0.669	0.387
-79.597	367.146	0.453	-0.901
-78.582	-13.981	-0.290	0.185
-77.567	-87.869	-0.270	-0.080
-76.553	-159.320	-0.671	-0.037
-75.538	34.792	-0.748	-0.644
-74.524	-33.070	-0.119	0.065
-73.509	-84.385	-0.213	0.067
-72.494	710.425	0.041	-0.106
-71.480	-104.884	0.806	0.182
-70.465	-107.636	0.345	0.074
-69.451	-186.138	0.625	0.009
-68.436	-96.146	-0.710	0.186
-67.422	-15.460	0.229	0.144
-66.407	-153.876	-0.739	-0.050
-65.392	-8.138	0.285	0.189
-64.378	800.000	-0.156	0.564
-63.363	-82.169	-0.465	0.149
-62.349	78.159	0.342	0.359
-61.334	-87.015	-0.737	-0.221
-60.319	207.937	0.646	0.993
-59.305	800.000	0.281	-0.837
-58.290	665.088	0.499	1.269
-57.276	320.566	0.300	0.561
-56.261	-200.000	95.881	587.322
-55.246	672.267	1356.969	3463.442
-54.232	203.949	2517.864	3838.844
-53.217	118.262	2141.680	2600.286
-52.203	43.163	1694.848	1522.859
-51.188	35.768	1508.757	1305.637
-50.173	33.430	1482.282	1267.056
-49.159	53.528	1534.441	1448.923
-48.144	53.980	1552.466	1468.965
-47.130	36.143	1510.124	1309.162
-46.115	32.964	1496.311	1275.702
-45.100	32.686	1493.209	1271.127
-44.086	32.674	1491.395	1269.454
-43.071	32.550	1488.844	1266.398
-42.057	32.605	1487.943	1265.951
-41.042	32.826	1485.138	1264.998
-40.027	32.717	1484.011	1263.254
-39.013	32.731	1482.178	1261.742
-37.998	32.484	1481.550	1259.506
-36.984	32.447	1480.076	1257.954
-35.969	32.698	1479.294	1258.918
-34.954	32.574	1478.492	1257.356
-33.940	32.600	1476.299	1255.613
-32.925	32.604	1475.872	1255.228
-31.911	32.695	1473.951	1254.151
-30.896	32.755	1472.596	1253.342
-29.881	32.920	1471.037	1253.061
-28.867	32.587	1468.998	1249.072
-27.852	32.460	1469.629	1248.711
-26.838	32.751	1466.339	1247.794
-25.823	32.577	1464.316	1244.874
-24.809	32.689	1463.501	1244.873
-23.794	32.537	1461.641	1242.238
-22.779	32.753	1459.535	1241.820
-21.765	32.521	1459.585	1240.288
-20.750	32.601	1457.785	1239.235
-19.736	32.642	1457.547	1239.254
-18.721	32.337	1457.226	1236.923
-17.706	32.807	1454.169	1237.363
-16.692	32.728	1454.041	1236.688
-15.677	32.625	1453.436	1235.448
-14.663	32.559	1452.266	1233.975
-13.648	32.807	1451.656	1235.026
-12.633	32.409	1451.071	1231.877
-11.619	32.494	1449.734	1231.250
-10.604	32.719	1448.624	1231.727
-9.590	32.709	1447.375	1230.554
-8.575	32.724	1447.215	1230.466
-7.560	32.613	1446.162	1228.797
-6.546	32.826	1444.345	1228.589
-5.531	32.514	1444.149	1226.343
-4.517	32.676	1442.887	1226.277
-3.502	32.224	1444.547	1224.698
-2.487	32.646	1441.097	1224.465
-1.473	32.604	1441.326	1224.335
-0.458	32.375	1440.266	1221.903
0.556	33.693	1430.084	1210.876
1.571	30.636	1404.563	1169.969
2.586	27.030	1346.440	1099.664
3.600	24.982	1266.347	1022.477
4.615	23.944	1218.257	977.860
5.629	20.325	1162.149	913.729
6.644	11.446	1077.840	803.825
7.659	4.598	1036.600	740.471
8.673	3.531	1030.615	731.076
9.688	2.883	1028.336	726.333
10.702	3.075	1025.186	724.949
11.717	3.233	1023.115	724.162
12.731	6.219	1027.876	741.564
13.746	15.191	1040.858	793.531
14.761	22.651	1049.518	835.551
15.775	24.256	1051.814	844.919
16.790	24.816	1048.310	844.675
17.804	24.183	1048.618	841.859
18.819	23.863	1048.117	839.868
19.834	23.722	1048.036	839.065
20.848	24.077	1046.342	839.308
21.863	24.036	1047.604	840.052
22.877	24.305	1045.413	839.486
23.892	23.770	1046.345	837.637
24.907	24.157	1044.012	837.519
25.921	23.894	1044.907	836.922
26.936	23.551	1044.585	834.978
27.950	23.699	1042.153	833.655
28.965	23.578	1041.170	832.226
29.980	23.520	1040.144	831.059
30.994	23.677	1039.571	831.267
32.009	24.149	1037.573	831.799
33.023	23.853	1038.289	830.914
34.038	23.712	1036.966	829.123
35.053	23.789	1036.306	828.885
36.067	23.651	1034.982	827.109
37.082	23.418	1035.279	826.185
38.096	23.686	1033.980	826.322
39.111	24.130	1032.478	827.115
40.126	24.083	1031.645	826.153
41.140	23.881	1031.040	824.660
42.155	23.694	1029.716	822.662
43.169	23.466	1028.374	820.464
44.184	23.103	1027.072	817.672
45.199	23.103	1026.197	816.906
46.213	23.384	1024.535	816.804
47.228	23.040	1024.887	815.425
48.242	23.627	1024.145	817.468
49.257	23.780	1024.095	818.062
50.271	23.958	1022.839	817.806
51.286	23.823	1022.270	816.657
52.301	24.084	1022.525	817.987
53.315	24.104	1020.963	816.756
54.330	24.239	1019.766	816.343
55.344	23.881	1018.998	814.019
56.359	23.561	1018.768	812.300
57.374	23.760	1016.515	811.339
58.388	23.365	1016.904	809.772
59.403	23.642	1015.373	809.747
60.417	23.633	1014.895	809.250
61.432	23.540	1014.301	808.283
62.447	23.390	1014.893	807.998
63.461	23.479	1013.365	807.116
64.476	23.539	1012.152	806.353
65.490	23.499	1011.662	805.707
66.505	23.430	1009.610	803.690
67.520	23.378	1009.575	803.357
68.534	23.521	1008.665	803.206
69.549	23.231	1008.366	801.585
70.563	23.284	1007.105	800.752
71.578	22.972	1007.494	799.577
72.593	22.956	1004.977	797.439
73.607	22.573	1004.276	795.083
74.622	22.295	1003.329	793.011
75.636	23.008	1002.558	795.540
76.651	22.999	1001.696	794.746
77.666	22.998	1000.873	794.017
78.680	23.145	1000.568	794.368
79.695	23.029	999.986	793.316
80.709	22.950	998.680	791.856
81.724	23.164	998.820	792.851
82.739	23.191	998.361	792.541
83.753	23.237	997.658	792.117
84.768	23.425	997.254	792.568
85.782	24.385	995.915	795.719
86.797	24.397	995.953	795.732
87.812	24.338	995.302	794.880
88.826	23.974	995.058	792.992
89.841	24.117	993.640	792.424
90.855	24.125	992.512	791.490
91.870	24.266	992.444	791.994
92.884	24.299	991.555	791.360
93.899	24.329	990.546	790.619
94.914	24.140	989.609	788.966
95.928	23.923	988.891	787.362
96.943	24.236	988.304	788.208
97.957	24.067	987.376	786.651
98.972	23.831	986.824	785.101
99.987	23.787	985.655	783.905
101.001	23.826	985.079	783.549
102.016	24.097	983.853	783.699
103.030	23.644	983.757	781.559
104.045	24.102	981.424	781.648
105.060	23.846	981.431	780.461
106.074	24.114	980.761	781.033
107.089	23.585	979.985	778.030
108.103	23.859	978.617	778.074
109.118	23.851	977.378	776.983
110.133	23.471	976.028	774.185
111.147	22.984	975.290	771.406
112.162	22.885	974.757	770.481
113.176	22.845	972.647	768.571
114.191	23.207	972.432	769.910
115.206	23.426	971.534	770.085
116.220	23.200	971.742	769.197
117.235	23.229	969.730	767.664
118.249	23.211	970.184	767.875
119.264	23.411	968.227	767.124
120.279	23.021	968.057	765.236
121.293	22.772	967.719	763.822
122.308	22.775	966.852	763.084
123.322	22.913	964.862	762.041
124.337	22.781	964.212	760.891
125.352	23.004	963.073	760.886
126.366	22.792	961.897	758.975
127.381	22.801	960.510	757.853
128.395	22.745	960.960	757.903
129.410	23.135	959.953	758.713
130.424	23.075	959.327	757.896
131.439	23.136	958.633	757.541
132.454	23.493	957.125	757.806
133.468	23.803	956.136	758.278
134.483	23.404	955.985	756.389
135.497	23.345	955.933	756.032
136.512	23.732	954.863	756.766
137.527	23.743	954.256	756.266
138.541	23.782	952.939	755.322
139.556	23.423	953.648	754.287
140.570	23.738	951.335	753.731
141.585	23.761	951.697	754.048
142.600	23.720	951.904	753.972
143.614	23.705	951.373	753.419
144.629	24.288	949.518	754.350
145.643	24.256	949.016	753.748
146.658	24.023	948.478	752.273
147.673	23.883	946.843	750.317
148.687	23.795	946.293	749.444
149.702	23.854	944.291	748.039
150.716	23.603	943.881	746.593
151.731	23.562	942.245	745.061
152.746	23.749	941.850	745.469
153.760	23.926	940.240	744.869
154.775	23.939	940.488	745.052
155.789	24.009	939.951	744.854
156.804	23.674	939.697	743.185
157.819	23.933	938.798	743.492
158.833	24.136	936.830	742.715
159.848	23.895	936.969	741.752
160.862	24.107	936.302	742.046
161.877	24.147	935.439	741.463
162.892	24.034	934.866	740.473
163.906	23.590	934.369	738.167
164.921	23.350	932.450	735.587
165.935	23.609	931.829	736.106
166.950	23.656	930.709	735.351
167.964	23.693	930.528	735.299
168.979	23.651	929.548	734.284
169.994	23.744	927.396	732.904
171.008	23.734	927.253	732.684
172.023	23.629	926.257	731.400
173.037	23.821	925.328	731.392
174.052	24.298	924.355	732.517
175.067	24.282	924.087	732.173
176.081	23.943	922.583	729.529
177.096	23.839	921.568	728.236
178.110	23.692	920.404	726.647
179.125	23.596	919.049	725.123
180.140	23.414	918.996	724.275
181.154	23.194	918.118	722.618
182.169	23.463	918.460	723.922
183.183	23.625	918.704	724.712
184.198	24.070	918.048	725.947
185.213	23.724	917.543	724.073
186.227	23.770	915.970	722.955
187.242	24.082	916.790	724.808
188.256	24.101	915.357	723.689
189.271	24.347	914.348	723.823
190.286	24.021	914.618	722.652
191.300	24.198	912.028	721.258
192.315	23.339	912.182	717.835
193.329	22.915	911.132	715.228
194.344	22.755	910.275	713.849
195.359	23.341	909.355	715.428
196.373	23.543	910.075	716.747
197.388	23.910	909.495	717.710
198.402	24.002	908.511	717.240
199.417	23.938	909.225	717.483
200.432	24.443	909.582	719.739
201.446	24.599	908.130	719.154
202.461	24.524	907.618	718.381
203.475	24.540	906.657	717.623
204.490	24.538	905.284	716.464
205.504	23.576	904.995	712.314
206.519	23.453	904.801	711.605
207.534	24.143	903.584	713.346
208.548	24.405	902.755	713.678
209.563	24.270	902.342	712.749
210.577	23.982	901.929	711.210
211.592	23.760	901.384	709.828
212.607	24.162	900.294	710.510
213.621	24.403	900.586	711.640
214.636	24.525	899.214	710.978
215.650	24.082	899.600	709.457
216.665	24.263	899.462	710.005
217.680	24.428	897.573	709.107
218.694	24.541	897.145	709.157
219.709	24.342	896.416	707.728
220.723	24.469	895.287	707.276
221.738	24.028	894.598	704.923
222.753	24.118	893.359	704.242
223.767	23.669	894.305	703.146
224.782	24.162	893.243	704.199
225.796	24.361	892.172	704.079
226.811	24.655	891.744	704.835
227.826	24.239	891.937	703.287
228.840	23.861	890.040	700.237
229.855	23.453	889.720	698.321
230.869	23.897	889.501	699.834
231.884	23.878	888.789	699.135
232.899	23.768	887.463	697.598
233.913	24.013	886.711	697.906
234.928	24.074	886.605	698.001
235.942	23.657	885.869	695.726
236.957	23.431	884.242	693.503
237.972	23.374	883.821	692.891
238.986	23.488	883.718	693.191
240.001	23.484	883.608	693.028
241.015	23.366	882.200	691.404
242.030	23.465	881.923	691.511
243.045	23.454	882.421	691.797
244.059	23.989	880.883	692.613
245.074	23.999	881.163	692.813
246.088	23.945	880.060	691.672
247.103	23.810	879.297	690.488
248.117	24.283	879.414	692.356
249.132	24.516	879.409	693.195
250.147	24.650	879.530	693.748
251.161	25.189	878.147	694.686
252.176	25.180	878.849	695.144
253.190	25.187	877.873	694.339
254.205	25.309	876.237	693.454
255.220	25.271	876.329	693.318
256.234	25.282	875.336	692.513
257.249	25.121	875.360	691.849
258.263	25.057	874.057	690.512
259.278	24.907	872.808	688.889
260.293	24.699	873.062	688.226
261.307	24.940	872.812	688.897
262.322	25.409	871.786	689.827
263.336	24.889	872.434	688.277
264.351	24.840	871.000	686.898
265.366	24.547	870.179	685.067
266.380	24.931	869.239	685.736
267.395	24.941	869.373	685.821
268.409	24.742	869.277	684.922
269.424	24.483	868.860	683.543
270.439	24.899	866.895	683.526
271.453	24.472	866.746	681.717
272.468	24.354	866.066	680.671
273.482	24.921	864.743	681.731
274.497	24.728	865.009	681.143
275.512	24.847	863.900	680.662
276.526	24.936	862.296	679.679
277.541	25.109	861.945	679.996
278.555	24.904	862.560	679.643
279.570	24.977	861.990	679.410
280.585	25.208	862.122	680.333
281.599	25.125	861.538	679.496
282.614	24.884	860.762	677.912
283.628	24.584	859.187	675.476
284.643	24.625	858.201	674.795
285.657	24.598	857.963	674.448
286.672	24.592	858.150	674.511
287.687	24.669	856.225	673.230
288.701	24.824	856.206	673.740
289.716	24.646	856.553	673.281
290.730	25.007	855.639	673.863
291.745	24.768	855.104	672.480
292.760	24.634	855.007	671.842
293.774	24.906	853.223	671.402
294.789	25.394	853.885	673.692
295.803	25.412	853.784	673.623
296.818	25.123	852.023	671.091
297.833	25.215	850.984	670.558
298.847	24.985	851.213	669.818
299.862	24.681	850.312	667.915
300.876	25.129	849.709	669.056
301.891	25.380	849.731	669.950
302.906	25.285	849.467	669.328
303.920	25.439	848.474	669.059
304.935	25.476	846.812	667.829
305.949	25.753	846.748	668.747
306.964	25.558	846.808	668.010
307.979	25.296	846.138	666.448
308.993	25.012	844.854	664.327
310.008	25.036	845.731	665.047
311.022	25.450	845.001	665.950
312.037	25.318	844.121	664.707
313.052	25.142	843.317	663.364
314.066	25.160	842.186	662.481
315.081	24.669	842.293	660.692
316.095	24.952	840.197	660.036
317.110	24.369	841.601	658.927
318.125	24.768	839.498	658.689
319.139	24.634	840.009	658.540
320.154	24.090	838.654	655.415
321.168	23.938	838.316	654.536
322.183	24.217	837.516	654.879
323.197	24.706	837.322	656.465
324.212	24.900	836.504	656.479
325.227	25.177	835.629	656.747
326.241	24.939	835.031	655.349
327.256	24.921	834.989	655.191
328.270	24.187	835.073	652.513
329.285	24.056	834.226	651.314
330.300	24.215	834.215	651.830
331.314	24.038	833.192	650.325
332.329	24.280	832.666	650.741
333.343	24.638	832.731	652.041
334.358	24.818	831.025	651.302
335.373	24.792	830.383	650.647
336.387	24.979	830.836	651.625
337.402	25.239	830.316	652.103
338.416	25.061	830.347	651.424
339.431	25.541	829.170	652.185
340.446	25.877	828.413	652.748
341.460	25.565	829.070	652.076
342.475	25.922	827.088	651.752
343.489	25.939	827.998	652.474
344.504	25.781	827.081	651.120
345.519	26.035	826.449	651.484
346.533	26.088	825.860	651.154
347.548	26.110	825.965	651.257
348.562	25.840	825.690	650.008
349.577	25.516	825.161	648.364
350.592	25.621	823.358	647.271
351.606	25.167	823.187	645.443
352.621	25.313	822.269	645.194
353.635	25.437	821.876	645.272
354.650	25.310	821.663	644.592
355.665	25.370	820.463	643.808
356.679	25.401	819.704	643.267
357.694	25.305	820.313	643.343
358.708	25.213	820.377	643.006
359.723	24.902	820.096	641.616
360.738	24.959	818.593	640.587
361.752	24.942	817.525	639.635
362.767	25.288	817.184	640.546
363.781	25.171	818.654	641.224
364.796	25.716	817.844	642.479
365.810	25.809	817.115	642.180
366.825	26.146	817.263	643.442
367.840	26.078	817.111	643.022
368.854	25.959	815.273	641.094
369.869	25.993	814.478	640.535
370.883	25.617	813.889	638.679
371.898	25.253	813.606	637.108
372.913	25.718	813.278	638.446
373.927	25.914	812.851	638.748
374.942	25.836	812.018	637.761
375.956	25.623	810.741	635.949
376.971	25.604	811.323	636.283
377.986	25.579	810.555	635.537
379.000	26.373	809.161	637.186
380.015	26.124	809.558	636.565
381.029	26.095	808.464	635.544
382.044	25.974	808.023	634.716
383.059	26.268	807.499	635.281
384.073	26.660	807.250	636.407
385.088	26.473	805.844	634.588
386.102	25.895	806.320	632.877
387.117	25.646	805.429	631.247
388.132	25.355	805.371	630.125
389.146	25.230	803.332	628.037
390.161	25.319	803.928	628.761
391.175	25.277	804.403	628.928
392.190	25.824	803.636	630.186
393.205	25.875	802.621	629.512
394.219	25.826	801.177	628.153
395.234	25.062	801.213	625.463
396.248	24.443	800.810	622.930
397.263	24.829	799.307	623.053
398.278	24.968	800.787	624.635
399.292	25.468	798.839	624.801
400.307	24.773	799.311	622.695
401.321	24.842	798.379	622.155
402.336	24.840	798.144	621.910
403.350	25.084	797.800	622.434
404.365	25.601	797.536	623.966
405.380	25.725	798.501	625.097
406.394	26.008	796.860	624.738
407.409	26.497	796.963	626.457
408.423	26.719	795.810	626.262
409.438	26.498	795.719	625.372
410.453	26.360	796.106	625.143
411.467	26.445	794.671	624.255
412.482	26.172	794.112	622.816
413.496	26.272	794.174	623.155
414.511	26.231	794.461	623.183
415.526	26.431	793.657	623.187
416.540	26.198	792.938	621.766
417.555	26.162	793.281	621.856
418.569	26.544	791.459	621.685
419.584	26.073	792.140	620.544
420.599	26.070	791.433	619.926
421.613	160.126	1370.054	1792.514
422.628	138.686	1454.399	1792.572
