DTS Sentinel unit serial number:	SN413079Multiplexer serial number:	ORYXHardware model number:	OX4-SRSoftware version number:	ORYX F/W v4.00 Oryx Data Collector v3.7.2.0data status	okinstallation	princeton_trtdifferential loss correction	single-endedforward channel	channel 3reverse channel	N/Adate	2019/09/16time	04:40:35forward acquisition time	60.00reverse acquisition time	0.00gamma	496.2192k internal	0.2336k external	0.2336temperature offset calibration	0.9956default loss term (dB/km)	0.3790temperature slope calibration	1.0000multiplexer offset coefficient	1.0000multiplexer slope coefficient	1.0000fibre end	0.00T internal ref (°C)	27.19T ext. ref 1 (°C)	10.90T ext. ref 2 (°C)	21.47length (m)	temperature (°C)	Stokes	anti-Stokes-747.200	-37.937	-0.117	-0.063
-746.185	800.000	0.047	0.183
-745.171	-22.688	0.249	-0.151
-744.156	182.655	-0.127	0.189
-743.142	-67.988	0.120	-0.047
-742.127	-150.720	-0.310	0.024
-741.112	-156.401	0.373	-0.023
-740.098	-16.167	-0.500	0.319
-739.083	62.072	0.135	0.135
-738.069	-26.555	-0.283	0.166
-737.054	9.197	-0.052	-0.039
-736.039	800.000	-0.051	-0.155
-735.025	-200.000	0.006	0.127
-734.010	27.539	-0.300	-0.253
-732.996	-200.000	-0.014	-0.133
-731.981	233.463	0.083	-0.137
-730.966	-100.390	0.226	-0.056
-729.952	800.000	-0.075	-0.230
-728.937	-32.847	-0.247	-0.138
-727.923	30.304	-0.040	0.034
-726.908	125.073	-0.185	-0.235
-725.894	137.539	-0.155	-0.204
-724.879	-138.826	-0.104	0.011
-723.864	98.493	-0.185	-0.214
-722.850	246.025	-0.096	-0.163
-721.835	-59.818	-0.175	-0.075
-720.821	186.388	0.112	0.167
-719.806	652.682	-0.047	-0.121
-718.791	715.452	-0.128	-0.340
-717.777	-49.922	-0.033	-0.016
-716.762	-152.036	-0.237	0.017
-715.748	-8.384	0.185	-0.125
-714.733	-200.000	-0.017	-0.096
-713.718	26.852	0.324	-0.272
-712.704	800.000	-0.034	-0.120
-711.689	-200.000	0.011	0.053
-710.675	23.521	-0.234	0.193
-709.660	-200.000	-0.039	0.293
-708.645	181.136	0.083	0.123
-707.631	387.038	-0.134	-0.278
-706.616	238.793	0.171	-0.285
-705.602	-200.000	0.024	0.180
-704.587	-98.534	0.384	-0.098
-703.572	39.442	-0.311	0.279
-702.558	-78.072	0.201	0.069
-701.543	214.986	0.137	0.217
-700.529	73.322	-0.033	0.035
-699.514	-85.981	0.138	-0.043
-698.499	-119.073	-0.174	0.031
-697.485	52.171	-0.104	0.099
-696.470	800.000	-0.085	-0.292
-695.456	283.262	-0.154	-0.277
-694.441	47.549	0.045	-0.042
-693.426	-80.180	-0.168	-0.056
-692.412	-112.983	-0.298	0.059
-691.397	-135.126	-0.163	-0.020
-690.383	-200.000	-0.054	-0.259
-689.368	-200.000	0.025	-0.180
-688.354	466.858	-0.070	-0.157
-687.339	800.000	-0.046	0.165
-686.324	413.308	-0.024	0.051
-685.310	130.286	-0.185	-0.237
-684.295	-135.119	-0.199	0.024
-683.281	729.370	0.121	0.323
-682.266	-81.245	0.111	-0.037
-681.251	325.992	-0.185	0.354
-680.237	23.850	-0.158	-0.130
-679.222	65.375	-0.054	0.055
-678.208	109.520	0.066	0.079
-677.193	163.757	-0.191	-0.270
-676.178	-7.776	0.377	0.255
-675.164	43.608	-0.061	-0.055
-674.149	235.035	0.095	0.156
-673.135	-200.000	0.015	0.223
-672.120	-93.703	-0.087	-0.024
-671.105	-39.100	0.144	-0.076
-670.091	135.431	-0.096	-0.125
-669.076	6.264	-0.131	-0.097
-668.062	211.459	-0.117	-0.184
-667.047	800.000	0.060	-0.231
-666.032	-183.821	-0.267	-0.005
-665.018	-158.130	0.034	-0.002
-664.003	7.880	0.278	-0.208
-662.989	210.124	-0.190	-0.299
-661.974	800.000	0.035	-0.126
-660.959	-159.514	-0.151	0.008
-659.945	-138.016	0.045	0.005
-658.930	264.929	-0.051	0.089
-657.916	120.505	0.248	-0.309
-656.901	-134.673	-0.245	-0.030
-655.886	-104.559	-0.387	0.089
-654.872	-59.199	0.105	-0.045
-653.857	-33.959	-0.309	0.170
-652.843	5.499	0.076	0.056
-651.828	3.538	0.319	0.233
-650.814	800.000	-0.081	0.349
-649.799	42.676	-0.109	-0.099
-648.784	421.038	-0.072	0.154
-647.770	19.334	-0.067	0.054
-646.755	-33.146	0.104	-0.058
-645.741	-105.999	0.406	-0.091
-644.726	345.401	-0.195	0.383
-643.711	142.128	0.077	-0.102
-642.697	-200.000	-0.046	-0.293
-641.682	412.420	0.125	0.266
-640.668	-200.000	-0.034	-0.407
-639.653	-200.000	-0.415	-0.001
-638.638	68.058	-0.119	0.122
-637.624	-200.000	0.056	0.369
-636.609	-161.223	-0.121	0.006
-635.595	65.569	-0.034	-0.035
-634.580	-200.000	0.039	-0.237
-633.565	59.496	0.134	-0.132
-632.551	-200.000	-0.004	0.164
-631.536	375.368	-0.032	-0.066
-630.522	-200.000	0.008	0.072
-629.507	800.000	-0.028	-0.104
-628.492	172.423	0.236	-0.340
-627.478	-200.000	0.041	-0.296
-626.463	-118.142	-0.086	0.015
-625.449	-122.715	0.311	-0.050
-624.434	-200.000	0.019	-0.108
-623.419	31.636	0.322	-0.276
-622.405	800.000	-0.118	0.426
-621.390	562.499	0.089	-0.215
-620.376	-127.844	0.188	-0.027
-619.361	88.217	-0.133	0.148
-618.346	172.693	-0.082	0.118
-617.332	-78.883	0.302	-0.103
-616.317	800.000	0.054	-0.220
-615.303	171.637	-0.125	-0.179
-614.288	-41.211	-0.272	0.140
-613.273	-151.620	0.124	0.009
-612.259	-139.100	0.087	-0.009
-611.244	163.907	-0.120	0.168
-610.230	120.817	-0.187	-0.233
-609.215	-200.000	-0.008	0.127
-608.201	-0.863	0.324	0.229
-607.186	276.798	-0.077	0.137
-606.171	-55.952	-0.253	-0.113
-605.157	84.913	-0.128	0.141
-604.142	54.115	0.245	0.235
-603.128	-200.000	0.001	0.055
-602.113	36.078	-0.166	0.146
-601.098	-21.497	-0.172	0.105
-600.084	22.093	-0.254	-0.207
-599.069	-147.281	-0.415	-0.035
-598.055	116.610	-0.093	0.114
-597.040	-142.969	-0.343	-0.033
-596.025	-15.253	0.092	0.059
-595.011	-80.230	0.265	0.088
-593.996	-31.749	0.131	-0.073
-592.982	800.000	-0.139	-0.400
-591.967	22.751	-0.163	0.133
-590.952	-59.146	0.132	0.057
-589.938	-200.000	0.010	0.178
-588.923	800.000	0.051	0.208
-587.909	64.313	0.321	-0.323
-586.894	238.488	0.095	-0.157
-585.879	651.395	0.169	-0.431
-584.865	42.320	0.192	-0.174
-583.850	-102.530	0.204	-0.049
-582.836	222.303	-0.237	-0.380
-581.821	-39.240	-0.032	0.017
-580.806	274.492	0.064	0.114
-579.792	-32.045	0.079	0.044
-578.777	-200.000	0.060	-0.393
-577.763	-120.870	-0.224	0.038
-576.748	-200.000	-0.013	-0.100
-575.733	-14.170	-0.301	0.194
-574.719	-93.686	0.271	0.075
-573.704	-56.336	0.143	0.063
-572.690	-74.780	-0.067	-0.024
-571.675	-200.000	-0.006	0.318
-570.661	800.000	-0.019	-0.054
-569.646	-42.835	-0.158	0.080
-568.631	2.482	-0.157	0.113
-567.617	105.159	-0.234	-0.276
-566.602	800.000	-0.068	-0.202
-565.588	-200.000	-0.011	0.062
-564.573	477.159	-0.080	0.181
-563.558	-200.000	0.004	0.359
-562.544	-76.876	0.271	-0.095
-561.529	-200.000	0.025	-0.211
-560.515	-59.832	-0.184	0.078
-559.500	424.054	0.066	-0.141
-558.485	151.394	-0.097	0.131
-557.471	800.000	0.078	0.228
-556.456	235.109	0.106	-0.174
-555.442	-86.647	-0.046	-0.014
-554.427	800.000	-0.089	0.282
-553.412	-200.000	-0.004	-0.175
-552.398	-20.480	0.263	0.161
-551.383	-1.625	-0.195	-0.137
-550.369	155.820	-0.079	-0.109
-549.354	551.485	-0.100	-0.238
-548.339	800.000	0.104	-0.296
-547.325	-40.404	-0.047	-0.024
-546.310	146.929	-0.141	-0.189
-545.296	800.000	-0.035	-0.108
-544.281	-140.836	0.284	-0.029
-543.266	800.000	-0.052	-0.171
-542.252	-93.069	0.250	-0.069
-541.237	106.405	-0.137	-0.162
-540.223	348.499	-0.037	0.073
-539.208	-200.000	-0.020	-0.191
-538.193	-149.299	-0.192	-0.015
-537.179	-80.398	0.134	-0.044
-536.164	-3.115	0.094	0.066
-535.150	-66.784	-0.248	-0.098
-534.135	21.750	0.204	-0.165
-533.121	70.304	0.328	-0.337
-532.106	354.482	0.067	0.132
-531.091	800.000	0.023	-0.101
-530.077	-200.000	-0.006	-0.293
-529.062	397.090	0.108	0.224
-528.048	29.870	-0.239	0.203
-527.033	-41.746	0.139	0.071
-526.018	695.099	0.074	0.193
-525.004	96.500	0.129	-0.147
-523.989	322.484	0.039	-0.074
-522.975	238.625	-0.127	0.210
-521.960	-2.480	-0.269	-0.188
-520.945	353.474	-0.208	0.411
-519.931	-87.003	-0.187	-0.057
-518.916	261.519	0.052	0.090
-517.902	-89.685	0.361	-0.105
-516.887	112.913	-0.127	-0.154
-515.872	800.000	-0.006	0.019
-514.858	266.660	-0.216	-0.376
-513.843	231.163	-0.104	-0.169
-512.829	162.501	-0.109	0.152
-511.814	-200.000	-0.004	0.179
-510.799	-119.434	-0.174	-0.030
-509.785	185.277	0.075	-0.111
-508.770	-200.000	0.015	0.093
-507.756	344.813	-0.081	0.159
-506.741	-163.813	-0.167	-0.008
-505.726	-36.788	0.195	0.104
-504.712	245.967	-0.186	-0.312
-503.697	-101.067	0.152	0.037
-502.683	17.138	0.114	0.090
-501.668	-128.083	0.168	-0.024
-500.653	-141.637	-0.276	-0.028
-499.639	34.207	0.286	-0.248
-498.624	-179.311	-0.246	0.005
-497.610	-91.339	0.318	0.090
-496.595	800.000	-0.005	-0.017
-495.581	-8.912	0.040	-0.027
-494.566	307.863	-0.044	0.081
-493.551	244.600	0.153	0.255
-492.537	617.073	0.061	-0.153
-491.522	-150.131	0.051	0.004
-490.508	-182.731	0.210	0.004
-489.493	60.781	0.302	0.298
-488.478	800.000	-0.048	-0.143
-487.464	800.000	-0.073	-0.284
-486.449	219.522	0.123	0.196
-485.435	-35.836	-0.199	-0.107
-484.420	84.707	-0.253	0.275
-483.405	144.885	-0.114	-0.151
-482.391	303.855	-0.154	-0.284
-481.376	800.000	-0.053	0.172
-480.362	5.603	0.197	-0.145
-479.347	287.389	0.067	0.121
-478.332	-33.395	-0.237	0.130
-477.318	595.205	-0.129	-0.317
-476.303	-100.720	0.174	-0.043
-475.289	374.955	0.088	0.178
-474.274	-111.957	0.303	0.061
-473.259	77.164	-0.053	0.056
-472.245	-200.000	0.019	0.150
-471.230	-150.197	0.240	-0.018
-470.216	715.148	-0.082	0.216
-469.201	-88.486	0.147	0.044
-468.186	-129.364	-0.101	0.014
-467.172	260.423	-0.269	0.463
-466.157	-200.000	-0.004	0.157
-465.143	800.000	0.093	0.316
-464.128	-145.033	0.173	-0.016
-463.113	800.000	-0.090	0.310
-462.099	-126.698	-0.148	-0.022
-461.084	-200.000	0.024	-0.197
-460.070	-200.000	0.175	0.001
-459.055	33.352	-0.108	0.093
-458.040	7.043	-0.191	-0.141
-457.026	-163.393	0.146	0.007
-456.011	204.165	-0.149	0.229
-454.997	800.000	-0.088	0.340
-453.982	125.791	-0.222	0.278
-452.968	-200.000	0.010	-0.258
-451.953	-14.021	-0.190	0.122
-450.938	-125.015	0.128	0.020
-449.924	157.155	0.079	0.108
-448.909	194.070	0.073	-0.110
-447.895	515.120	-0.180	0.417
-446.880	379.355	-0.042	0.085
-445.865	628.802	-0.031	-0.078
-444.851	221.299	-0.043	-0.068
-443.836	258.153	-0.130	0.222
-442.822	-162.321	0.170	-0.008
-441.807	9.759	-0.208	-0.157
-440.792	-200.000	-0.007	0.160
-439.778	109.561	-0.144	0.172
-438.763	-200.000	0.016	0.165
-437.749	-112.880	-0.342	0.067
-436.734	-200.000	0.028	0.261
-435.719	37.229	0.120	0.105
-434.705	-152.059	0.200	0.014
-433.690	-200.000	0.006	-0.212
-432.676	-116.393	-0.292	-0.054
-431.661	2.287	0.323	-0.232
-430.646	-14.556	-0.096	0.061
-429.632	-200.000	0.060	-0.278
-428.617	-112.068	-0.174	-0.035
-427.603	-5.870	-0.198	-0.135
-426.588	-200.000	0.005	-0.245
-425.573	-200.000	-0.011	0.168
-424.559	-77.857	-0.054	-0.018
-423.544	-200.000	0.044	0.223
-422.530	-18.788	0.155	-0.096
-421.515	127.587	0.230	0.290
-420.500	-23.209	0.159	0.095
-419.486	625.062	0.171	0.428
-418.471	-28.717	-0.119	0.068
-417.457	-94.967	0.176	-0.047
-416.442	-5.734	0.176	-0.119
-415.428	457.533	0.107	0.235
-414.413	46.008	-0.314	-0.288
-413.398	7.680	-0.131	0.097
-412.384	-135.094	0.090	0.011
-411.369	-178.997	-0.230	0.005
-410.355	145.618	0.148	-0.197
-409.340	-23.570	-0.054	-0.032
-408.325	-163.664	-0.173	0.008
-407.311	44.030	0.125	0.113
-406.296	84.479	0.102	-0.111
-405.282	-68.315	-0.230	-0.089
-404.267	44.058	-0.216	-0.196
-403.252	800.000	-0.062	-0.194
-402.238	100.850	-0.189	-0.218
-401.223	-200.000	-0.014	-0.069
-400.209	668.076	0.116	0.298
-399.194	-4.241	0.330	-0.226
-398.179	-14.414	-0.341	-0.217
-397.165	45.203	-0.220	-0.201
-396.150	800.000	0.095	-0.381
-395.136	-74.738	-0.321	-0.114
-394.121	332.506	-0.141	0.270
-393.106	-82.546	0.279	-0.090
-392.092	-85.847	-0.378	-0.116
-391.077	-38.654	0.254	0.133
-390.063	-90.858	-0.181	0.052
-389.048	78.794	0.143	0.151
-388.033	-172.041	-0.049	-0.002
-387.019	800.000	-0.021	-0.066
-386.004	2.085	-0.204	-0.146
-384.990	19.781	-0.172	0.137
-383.975	-119.085	-0.183	0.032
-382.960	-88.790	-0.116	0.034
-381.946	235.846	-0.104	0.171
-380.931	-112.820	-0.483	-0.095
-379.917	-70.180	0.268	0.101
-378.902	-69.589	-0.158	-0.060
-377.888	685.487	-0.017	0.043
-376.873	-121.877	0.343	-0.056
-375.858	177.489	-0.145	0.209
-374.844	-107.871	-0.520	-0.112
-373.829	-180.286	-0.448	-0.009
-372.815	-200.000	-0.019	0.123
-371.800	-200.000	-0.032	0.322
-370.785	-116.511	-0.070	0.013
-369.771	493.227	0.157	-0.357
-368.756	143.961	-0.098	-0.129
-367.742	281.621	0.267	0.474
-366.727	98.114	-0.066	0.075
-365.712	-55.863	-0.019	0.008
-364.698	-43.258	-0.244	0.122
-363.683	-164.705	-0.138	-0.006
-362.669	-137.006	-0.094	0.011
-361.654	-200.000	0.039	0.208
-360.639	92.700	0.177	0.198
-359.625	114.859	0.192	-0.232
-358.610	-200.000	-0.032	0.328
-357.596	40.269	-0.165	0.146
-356.581	196.360	0.093	-0.140
-355.566	242.749	0.098	0.163
-354.552	127.080	0.046	0.058
-353.537	176.196	0.125	0.179
-352.523	-56.139	-0.177	-0.078
-351.508	-19.447	0.130	-0.080
-350.493	-200.000	-0.002	0.136
-349.479	9.877	-0.091	-0.068
-348.464	-74.392	-0.362	0.129
-347.450	204.784	0.122	0.187
-346.435	341.667	0.246	-0.475
-345.420	-80.277	0.329	-0.109
-344.406	18.920	0.248	-0.196
-343.391	-163.767	-0.226	-0.010
-342.377	17.739	0.125	-0.098
-341.362	93.945	-0.130	0.146
-340.348	-71.104	-0.221	-0.082
-339.333	-200.000	0.013	0.271
-338.318	186.571	0.026	0.039
-337.304	312.296	-0.018	0.034
-336.289	116.209	-0.173	0.210
-335.275	800.000	-0.064	0.189
-334.260	26.422	0.202	0.167
-333.245	-155.085	0.081	-0.005
-332.231	-33.984	0.528	-0.287
-331.216	312.321	-0.151	-0.281
-330.202	320.188	0.078	-0.147
-329.187	-108.146	-0.337	-0.072
-328.172	-0.858	0.265	-0.186
-327.158	-72.677	0.151	-0.055
-326.143	97.287	0.129	-0.146
-325.129	-110.254	-0.143	0.029
-324.114	-200.000	0.028	-0.172
-323.099	-145.715	-0.348	-0.031
-322.085	-128.382	0.311	0.044
-321.070	800.000	-0.093	-0.261
-320.056	-3.253	0.052	0.036
-319.041	135.093	0.010	0.013
-318.026	32.472	0.027	-0.023
-317.012	-109.951	0.199	-0.041
-315.997	-185.065	0.263	-0.004
-314.983	-200.000	0.025	0.179
-313.968	800.000	-0.017	0.062
-312.953	-200.000	0.009	-0.127
-311.939	-130.291	-0.379	-0.051
-310.924	-200.000	0.019	0.144
-309.910	-147.018	-0.113	-0.010
-308.895	79.327	-0.289	0.306
-307.880	800.000	-0.007	0.029
-306.866	43.857	0.138	0.124
-305.851	112.246	-0.255	0.305
-304.837	83.295	0.030	-0.032
-303.822	-200.000	0.014	-0.079
-302.807	-106.699	0.167	0.037
-301.793	-200.000	0.017	-0.115
-300.778	-110.859	0.156	-0.032
-299.764	-200.000	-0.013	0.181
-298.749	197.893	0.193	-0.291
-297.735	800.000	-0.044	0.144
-296.720	30.181	-0.229	0.193
-295.705	-151.665	0.191	-0.014
-294.691	-94.341	0.134	0.036
-293.676	-72.301	0.232	-0.085
-292.662	88.371	-0.315	-0.345
-291.647	-74.794	0.027	0.009
-290.632	800.000	0.007	0.024
-289.618	-11.263	0.367	0.238
-288.603	5.092	-0.105	-0.077
-287.589	207.369	0.188	-0.290
-286.574	800.000	-0.109	-0.352
-285.559	-143.140	-0.263	0.025
-284.545	115.693	0.161	0.195
-283.530	190.501	0.145	-0.215
-282.516	62.144	-0.303	-0.298
-281.501	-21.598	0.102	0.061
-280.486	233.244	-0.090	0.146
-279.472	-146.065	-0.321	-0.028
-278.457	-87.078	0.231	-0.069
-277.443	52.999	-0.174	-0.164
-276.428	-122.804	0.309	-0.049
-275.413	-137.326	0.491	-0.055
-274.399	800.000	-0.087	-0.312
-273.384	-200.000	-0.017	0.176
-272.370	345.982	-0.117	0.227
-271.355	-111.309	0.121	0.024
-270.340	-200.000	-0.012	-0.203
-269.326	-1.297	0.134	0.093
-268.311	-200.000	0.070	-0.327
-267.297	-142.730	0.205	0.020
-266.282	-200.000	0.007	0.090
-265.267	-14.778	-0.322	0.204
-264.253	-200.000	0.022	-0.149
-263.238	-76.988	0.152	-0.052
-262.224	-44.964	-0.149	-0.073
-261.209	-200.000	0.025	-0.188
-260.195	-109.530	0.207	-0.043
-259.180	134.092	-0.296	0.377
-258.165	800.000	0.049	-0.184
-257.151	-200.000	-0.022	0.144
-256.136	-200.000	0.004	-0.086
-255.122	800.000	-0.040	-0.142
-254.107	152.444	0.108	0.145
-253.092	171.792	-0.211	0.298
-252.078	-200.000	-0.020	0.214
-251.063	-140.394	0.135	0.014
-250.049	-65.382	0.310	0.123
-249.034	-173.916	0.186	-0.005
-248.019	62.847	0.071	-0.070
-247.005	1.705	-0.116	-0.082
-245.990	-200.000	0.074	0.435
-244.976	-111.893	-0.343	0.068
-243.961	536.346	0.091	0.212
-242.946	-200.000	-0.025	0.113
-241.932	-200.000	0.001	0.014
-240.917	-200.000	-0.003	-0.222
-239.903	-29.071	0.264	-0.149
-238.888	-59.966	-0.083	-0.035
-237.873	-200.000	0.023	0.335
-236.859	143.998	-0.322	0.423
-235.844	800.000	0.079	0.226
-234.830	-54.818	0.194	0.086
-233.815	580.916	-0.050	0.121
-232.800	-31.742	0.302	-0.167
-231.786	224.735	0.135	0.216
-230.771	-64.200	0.097	0.039
-229.757	131.507	0.112	0.142
-228.742	-96.756	0.288	-0.075
-227.727	-12.836	0.081	-0.052
-226.713	-83.758	0.249	0.078
-225.698	9.726	-0.308	-0.230
-224.684	-144.166	0.167	-0.015
-223.669	88.667	0.288	-0.315
-222.655	264.767	-0.053	0.090
-221.640	-19.570	0.237	-0.144
-220.625	800.000	0.066	0.269
-219.611	800.000	-0.013	-0.051
-218.596	233.644	0.016	-0.026
-217.582	33.505	-0.085	-0.073
-216.567	-34.800	-0.260	0.140
-215.552	-42.711	-0.078	-0.039
-214.538	-22.739	0.169	0.100
-213.523	-200.000	-0.024	0.132
-212.509	-11.776	-0.089	-0.057
-211.494	-22.335	-0.090	-0.054
-210.479	0.318	-0.218	-0.153
-209.465	746.117	-0.103	-0.273
-208.450	-115.085	0.242	-0.045
-207.436	-190.711	0.205	-0.002
-206.421	25.414	0.348	0.285
-205.406	23.203	0.146	0.118
-204.392	-19.843	0.212	0.129
-203.377	-110.958	-0.224	0.045
-202.363	131.888	-0.046	0.058
-201.348	248.386	-0.121	0.201
-200.333	250.182	0.105	0.174
-199.319	51.477	0.236	0.220
-198.304	-42.180	0.075	-0.038
-197.290	-200.000	-0.016	0.390
-196.275	159.574	0.268	-0.367
-195.260	-120.579	-0.218	0.036
-194.246	-90.483	0.175	-0.050
-193.231	-34.495	0.077	0.041
-192.217	-100.505	0.154	-0.037
-191.202	800.000	-0.052	-0.194
-190.187	39.712	0.186	0.164
-189.173	-200.000	0.042	0.303
-188.158	-162.550	0.283	-0.014
-187.144	273.361	-0.166	-0.288
-186.129	195.471	-0.252	-0.376
-185.114	232.412	0.162	-0.261
-184.100	149.199	0.053	-0.071
-183.085	1.548	-0.171	0.121
-182.071	-200.000	-0.027	-0.211
-181.056	-200.000	0.003	0.119
-180.042	-200.000	-0.019	-0.312
-179.027	25.620	-0.229	0.187
-178.012	-81.475	-0.222	-0.072
-176.998	-108.332	-0.294	0.062
-175.983	71.744	0.136	-0.139
-174.969	143.193	0.123	-0.161
-173.954	800.000	0.058	0.243
-172.939	-52.331	-0.121	0.055
-171.925	-14.983	0.257	0.162
-170.910	800.000	-0.064	-0.186
-169.896	-73.056	-0.390	-0.140
-168.881	89.668	-0.034	-0.037
-167.866	-200.000	0.022	-0.148
-166.852	-119.079	0.076	0.013
-165.837	-20.151	0.343	-0.207
-164.823	-200.000	0.033	-0.150
-163.808	254.684	0.146	-0.245
-162.793	115.864	-0.021	0.025
-161.779	-149.313	-0.170	0.013
-160.764	-62.940	-0.250	0.101
-159.750	-133.713	-0.117	-0.014
-158.735	441.584	-0.082	0.175
-157.720	800.000	0.095	0.344
-156.706	231.411	0.019	-0.031
-155.691	251.064	0.185	-0.308
-154.677	329.665	-0.029	0.054
-153.662	-111.691	0.213	0.042
-152.647	174.905	-0.160	-0.227
-151.633	-200.000	-0.006	-0.182
-150.618	-97.270	-0.034	-0.009
-149.604	800.000	-0.081	-0.263
-148.589	800.000	-0.066	-0.189
-147.574	-64.297	-0.056	-0.022
-146.560	-136.812	-0.407	0.046
-145.545	800.000	0.068	0.193
-144.531	-200.000	-0.029	0.187
-143.516	436.825	-0.181	0.386
-142.502	-200.000	-0.026	-0.131
-141.487	-138.277	0.110	0.012
-140.472	59.969	0.286	0.277
-139.458	-29.475	-0.406	-0.227
-138.443	-200.000	0.028	-0.156
-137.429	-24.551	-0.295	-0.172
-136.414	-12.243	-0.154	-0.099
-135.399	-200.000	-0.036	0.000
-134.385	-94.235	0.273	0.073
-133.370	-130.528	-0.219	-0.029
-132.356	-129.473	-0.362	0.049
-131.341	137.693	0.023	-0.030
-130.326	309.896	0.020	0.037
-129.312	-101.290	0.082	-0.020
-128.297	-200.000	-0.004	-0.231
-127.283	82.231	0.308	-0.328
-126.268	-5.576	0.260	0.175
-125.253	120.048	-0.065	-0.078
-124.239	94.931	0.089	0.099
-123.224	800.000	0.080	-0.248
-122.210	167.343	0.151	-0.211
-121.195	-200.000	-0.013	0.311
-120.180	53.671	0.120	-0.113
-119.166	-200.000	0.003	0.385
-118.151	-200.000	0.025	-0.210
-117.137	800.000	0.046	-0.183
-116.122	25.284	0.263	0.214
-115.107	183.683	0.170	-0.247
-114.093	454.907	-0.051	-0.111
-113.078	-93.585	0.372	-0.101
-112.064	-138.320	0.356	0.039
-111.049	-200.000	-0.017	0.153
-110.034	241.285	-0.207	-0.339
-109.020	-200.000	0.055	-0.289
-108.005	5.512	0.192	0.139
-106.991	414.828	-0.081	0.169
-105.976	-56.815	-0.056	0.024
-104.962	52.836	0.049	-0.046
-103.947	-114.861	-0.183	0.034
-102.932	-56.509	0.319	0.139
-101.918	160.741	-0.247	0.338
-100.903	328.574	0.184	0.345
-99.889	-200.000	0.069	0.572
-98.874	245.958	-0.074	0.122
-97.859	112.955	0.263	-0.312
-96.845	800.000	0.061	0.245
-95.830	307.278	0.010	0.017
-94.816	420.120	-0.112	-0.235
-93.801	514.930	0.062	-0.142
-92.786	-200.000	0.022	0.327
-91.772	-87.344	0.138	0.041
-90.757	131.772	-0.272	0.343
-89.743	168.580	0.097	0.136
-88.728	209.679	0.099	0.151
-87.713	531.564	0.113	-0.262
-86.699	-200.000	0.013	-0.130
-85.684	70.454	0.152	-0.154
-84.670	-46.880	0.215	-0.103
-83.655	-81.414	0.300	-0.097
-82.640	233.069	0.043	0.069
-81.626	407.715	-0.037	-0.077
-80.611	497.456	0.038	0.086
-79.597	535.015	-0.101	-0.234
-78.582	270.637	0.050	0.085
-77.567	-8.523	0.007	0.005
-76.553	90.524	-0.034	0.037
-75.538	10.429	0.262	0.196
-74.524	800.000	-0.081	0.299
-73.509	-75.473	0.279	-0.097
-72.494	-109.127	-0.072	-0.015
-71.480	-54.719	0.103	0.045
-70.465	-62.650	0.315	0.128
-69.451	-200.000	-0.005	0.139
-68.436	-200.000	0.062	-0.270
-67.422	138.098	0.193	-0.247
-66.407	-130.502	0.240	0.032
-65.392	240.656	0.193	-0.315
-64.378	120.131	-0.067	0.081
-63.363	98.549	-0.231	0.261
-62.349	327.994	0.079	-0.147
-61.334	71.169	-1.325	-1.343
-60.319	327.903	0.289	0.543
-59.305	658.512	-0.472	-1.186
-58.290	176.213	0.761	1.081
-57.276	800.000	0.447	1.389
-56.261	-200.000	115.159	646.513
-55.246	467.938	1513.090	3317.730
-54.232	147.376	2677.839	3524.309
-53.217	102.184	2172.824	2480.805
-52.203	37.553	1699.326	1473.641
-51.188	30.355	1515.762	1265.547
-50.173	28.066	1491.485	1229.856
-49.159	51.875	1549.496	1441.510
-48.144	50.317	1565.064	1445.265
-47.130	30.372	1522.340	1270.958
-46.115	27.420	1506.836	1237.923
-45.100	27.222	1502.904	1233.305
-44.086	27.224	1500.635	1231.407
-43.071	27.177	1499.131	1229.807
-42.057	27.220	1497.185	1228.452
-41.042	27.154	1496.115	1227.078
-40.027	27.140	1495.015	1226.035
-39.013	27.165	1492.775	1224.318
-37.998	27.207	1491.697	1223.666
-36.984	27.094	1490.996	1222.280
-35.969	27.127	1489.427	1221.167
-34.954	27.152	1487.741	1219.903
-33.940	27.161	1486.600	1218.980
-32.925	27.145	1485.062	1217.562
-31.911	27.254	1483.300	1216.801
-30.896	27.208	1482.381	1215.692
-29.881	27.318	1481.127	1215.352
-28.867	27.215	1479.873	1213.586
-27.852	27.174	1479.269	1212.771
-26.838	27.243	1477.378	1211.628
-25.823	27.129	1476.143	1209.808
-24.809	27.185	1473.803	1208.219
-23.794	27.148	1472.812	1207.111
-22.779	27.189	1471.905	1206.589
-21.765	27.148	1470.880	1205.432
-20.750	27.265	1469.138	1204.732
-19.736	27.253	1468.165	1203.806
-18.721	27.221	1467.389	1202.909
-17.706	27.258	1466.197	1202.129
-16.692	27.279	1464.818	1201.089
-15.677	27.252	1464.114	1200.288
-14.663	27.171	1463.420	1199.132
-13.648	27.205	1462.370	1198.454
-12.633	27.133	1461.382	1197.119
-11.619	27.157	1460.720	1196.686
-10.604	27.222	1459.935	1196.422
-9.590	27.166	1458.711	1195.009
-8.575	27.278	1457.757	1194.914
-7.560	27.119	1457.175	1193.344
-6.546	27.162	1455.848	1192.494
-5.531	27.195	1454.802	1191.807
-4.517	27.161	1454.542	1191.320
-3.502	27.130	1453.619	1190.318
-2.487	27.132	1452.107	1189.045
-1.473	27.190	1450.846	1188.345
-0.458	27.197	1449.724	1187.422
0.556	25.518	1440.011	1175.528
1.571	22.567	1415.986	1136.804
2.586	19.193	1356.448	1068.023
3.600	17.675	1274.519	994.576
4.615	16.640	1229.839	953.792
5.629	16.066	1177.069	909.689
6.644	13.604	1101.380	838.676
7.659	11.250	1067.851	801.508
8.673	10.915	1062.806	796.010
9.688	10.982	1059.039	793.446
10.702	10.796	1058.319	791.932
11.717	10.897	1055.906	790.547
12.731	11.672	1055.809	794.168
13.746	14.385	1058.446	809.275
14.761	16.999	1061.792	824.481
15.775	17.819	1061.802	828.401
16.790	16.921	1060.022	822.582
17.804	15.906	1057.564	815.690
18.819	15.056	1056.054	810.341
19.834	14.567	1054.031	806.353
20.848	14.325	1053.046	804.358
21.863	13.977	1052.392	802.108
22.877	13.814	1051.865	800.847
23.892	13.687	1050.589	799.197
24.907	13.574	1049.944	798.091
25.921	13.473	1049.548	797.232
26.936	13.544	1048.713	796.866
27.950	13.598	1047.512	796.143
28.965	13.571	1046.758	795.370
29.980	13.688	1045.627	795.002
30.994	13.783	1043.847	794.035
32.009	13.664	1043.639	793.235
33.023	13.843	1042.708	793.315
34.038	13.760	1041.925	792.249
35.053	13.787	1041.005	791.611
36.067	13.654	1039.992	790.137
37.082	13.806	1038.775	789.866
38.096	13.757	1038.037	789.001
39.111	13.815	1037.565	788.850
40.126	13.846	1036.497	788.116
41.140	13.705	1035.432	786.566
42.155	13.646	1034.454	785.472
43.169	13.484	1033.586	783.976
44.184	13.522	1032.555	783.308
45.199	13.483	1031.429	782.199
46.213	13.398	1030.624	781.116
47.228	13.514	1029.530	780.765
48.242	13.586	1028.498	780.252
49.257	13.656	1027.243	779.564
50.271	13.567	1026.774	778.716
51.286	13.666	1025.434	778.096
52.301	13.522	1025.081	777.084
53.315	13.698	1023.813	776.880
54.330	13.597	1023.217	775.888
55.344	13.641	1022.339	775.356
56.359	13.677	1020.817	774.304
57.374	13.616	1020.348	773.597
58.388	13.588	1019.461	772.721
59.403	13.507	1018.537	771.579
60.417	13.544	1017.225	770.687
61.432	13.447	1016.879	769.905
62.447	13.615	1016.274	770.158
63.461	13.417	1015.602	768.664
64.476	13.312	1014.653	767.389
65.490	13.479	1013.594	767.296
66.505	13.506	1013.009	766.909
67.520	13.421	1012.310	765.917
68.534	13.599	1011.361	765.955
69.549	13.513	1010.340	764.718
70.563	13.384	1010.054	763.839
71.578	13.427	1009.418	763.488
72.593	13.575	1008.188	763.172
73.607	13.408	1007.216	761.598
74.622	13.413	1006.215	760.797
75.636	13.370	1005.091	759.685
76.651	13.303	1004.475	758.844
77.666	13.347	1004.045	758.654
78.680	13.413	1002.678	757.855
79.695	13.441	1002.452	757.744
80.709	13.419	1002.278	757.445
81.724	13.534	1001.182	757.076
82.739	13.552	1000.270	756.401
83.753	13.604	999.511	755.998
84.768	13.663	998.641	755.542
85.782	13.738	998.075	755.389
86.797	13.839	997.226	755.141
87.812	13.815	996.287	754.251
88.826	13.732	995.225	753.004
89.841	13.657	994.577	752.109
90.855	13.702	994.296	752.033
91.870	13.715	993.266	751.247
92.884	13.801	992.406	750.917
93.899	13.802	991.322	750.035
94.914	13.820	991.139	749.913
95.928	13.819	989.855	748.872
96.943	13.948	989.017	748.753
97.957	13.801	988.484	747.619
98.972	13.664	987.834	746.444
99.987	13.831	986.917	746.436
101.001	13.745	986.403	745.596
102.016	13.834	985.757	745.440
103.030	13.830	984.639	744.513
104.045	13.721	983.518	743.112
105.060	13.742	982.791	742.590
106.074	13.845	981.389	741.923
107.089	13.644	980.949	740.627
108.103	13.665	979.748	739.748
109.118	13.580	979.105	738.822
110.133	13.556	978.043	737.845
111.147	13.633	977.255	737.531
112.162	13.564	976.297	736.433
113.176	13.518	975.409	735.496
114.191	13.481	974.830	734.828
115.206	13.560	974.312	734.723
116.220	13.604	973.515	734.254
117.235	13.673	972.249	733.539
118.249	13.587	971.660	732.647
119.264	13.676	970.424	732.046
120.279	13.648	969.737	731.341
121.293	13.454	969.480	730.225
122.308	13.528	968.325	729.617
123.322	13.414	967.939	728.760
124.337	13.703	966.309	728.737
125.352	13.421	965.394	726.744
126.366	13.523	964.068	726.131
127.381	13.540	963.029	725.358
128.395	13.697	961.449	724.791
129.410	13.554	960.942	723.717
130.424	13.491	960.375	722.953
131.439	13.607	959.493	722.729
132.454	13.500	958.908	721.759
133.468	13.496	958.294	721.216
134.483	13.731	957.060	721.246
135.497	13.645	956.819	720.624
136.512	13.662	955.829	719.889
137.527	13.540	955.324	718.915
138.541	13.580	954.713	718.565
139.556	13.568	953.824	717.781
140.570	13.539	953.234	717.147
141.585	13.759	952.462	717.455
142.600	13.812	951.191	716.667
143.614	13.809	950.722	716.235
144.629	13.990	949.529	716.054
145.643	13.872	949.149	715.195
146.658	13.914	948.144	714.556
147.673	13.794	947.321	713.353
148.687	13.874	946.420	712.958
149.702	13.680	945.369	711.271
150.716	13.792	944.464	711.009
151.731	13.719	943.913	710.216
152.746	13.774	943.122	709.794
153.760	13.773	942.476	709.240
154.775	13.680	942.015	708.434
155.789	13.871	940.835	708.300
156.804	13.895	940.503	708.089
157.819	13.783	940.077	707.227
158.833	13.907	938.960	706.852
159.848	13.969	938.425	706.651
160.862	13.995	937.762	706.197
161.877	14.053	936.989	705.802
162.892	13.833	936.473	704.416
163.906	13.655	935.762	703.063
164.921	13.697	934.955	702.575
165.935	13.722	933.506	701.529
166.950	13.844	932.468	701.202
167.964	13.804	931.908	700.549
168.979	13.806	930.586	699.501
169.994	13.954	929.631	699.345
171.008	13.856	928.935	698.348
172.023	13.874	927.996	697.654
173.037	13.937	927.265	697.308
174.052	14.013	926.943	697.324
175.067	14.125	925.857	696.915
176.081	13.950	925.306	695.706
177.096	13.978	924.123	694.871
178.110	13.936	923.394	694.089
179.125	13.983	922.894	693.844
180.140	13.929	922.340	693.144
181.154	13.964	921.435	692.548
182.169	14.139	920.671	692.640
183.183	14.097	920.100	691.975
184.198	14.099	919.628	691.568
185.213	14.086	919.006	690.983
186.227	14.148	918.298	690.650
187.242	14.188	917.661	690.272
188.256	14.187	916.939	689.664
189.271	14.271	916.083	689.307
190.286	14.251	915.676	688.859
191.300	14.170	914.651	687.689
192.315	14.037	913.745	686.398
193.329	13.969	913.136	685.599
194.344	13.810	912.613	684.491
195.359	14.005	912.184	684.916
196.373	14.072	911.442	684.572
197.388	14.138	911.087	684.515
198.402	14.361	910.053	684.596
199.417	14.418	910.050	684.768
200.432	14.267	909.748	683.859
201.446	14.361	909.201	683.773
202.461	14.529	908.708	684.033
203.475	14.652	907.988	683.931
204.490	14.476	907.469	682.760
205.504	14.433	906.461	681.763
206.519	14.504	905.468	681.246
207.534	14.515	905.047	680.918
208.548	14.419	904.146	679.785
209.563	14.485	903.237	679.313
210.577	14.460	902.689	678.739
211.592	14.471	902.427	678.523
212.607	14.574	902.070	678.615
213.621	14.658	901.251	678.283
214.636	14.529	900.559	677.178
215.650	14.598	899.941	676.931
216.665	14.645	899.744	676.914
217.680	14.717	898.958	676.556
218.694	14.621	898.572	675.818
219.709	14.661	898.155	675.602
220.723	14.749	897.113	675.115
221.738	14.694	896.493	674.369
222.753	14.474	895.912	672.982
223.767	14.701	894.916	673.090
224.782	14.818	894.104	672.891
225.796	14.691	893.801	672.093
226.811	14.776	892.808	671.629
227.826	14.740	892.358	671.086
228.840	14.754	891.585	670.501
229.855	14.604	891.001	669.402
230.869	14.794	890.161	669.472
231.884	14.737	889.591	668.755
232.899	14.785	888.773	668.273
233.913	14.783	888.224	667.792
234.928	14.617	887.693	666.672
235.942	14.645	886.905	666.135
236.957	14.759	885.803	665.699
237.972	14.723	885.242	665.078
238.986	14.812	884.959	665.161
240.001	14.839	884.460	664.835
241.015	14.821	883.589	664.048
242.030	14.804	883.055	663.522
243.045	14.793	882.403	662.928
244.059	14.828	882.077	662.765
245.074	14.920	881.190	662.406
246.088	14.897	880.193	661.504
247.103	14.961	879.705	661.331
248.117	14.885	879.493	660.813
249.132	15.049	878.731	660.831
250.147	15.099	878.456	660.762
251.161	15.209	877.842	660.675
252.176	15.319	876.903	660.344
253.190	15.194	876.555	659.532
254.205	15.177	875.901	658.913
255.220	15.437	874.971	659.175
256.234	15.213	874.568	657.934
257.249	15.291	873.793	657.601
258.263	15.366	873.225	657.409
259.278	15.335	872.870	656.963
260.293	15.388	872.290	656.674
261.307	15.469	871.699	656.488
262.322	15.416	871.170	655.825
263.336	15.496	870.382	655.486
264.351	15.481	869.967	655.059
265.366	15.551	869.358	654.813
266.380	15.519	868.363	653.883
267.395	15.540	867.912	653.566
268.409	15.400	867.204	652.431
269.424	15.404	866.766	652.058
270.439	15.530	865.699	651.686
271.453	15.571	864.878	651.170
272.468	15.515	864.237	650.412
273.482	15.471	863.778	649.840
274.497	15.484	863.136	649.351
275.512	15.470	862.424	648.701
276.526	15.557	861.815	648.522
277.541	15.453	861.468	647.802
278.555	15.499	860.731	647.369
279.570	15.632	859.887	647.191
280.585	15.627	859.431	646.768
281.599	15.624	859.054	646.418
282.614	15.768	858.111	646.202
283.628	15.712	857.754	645.664
284.643	15.763	857.131	645.330
285.657	15.612	856.871	644.501
286.672	15.691	855.953	644.057
287.687	15.779	855.218	643.783
288.701	15.741	854.984	643.405
289.716	15.805	854.417	643.166
290.730	15.728	853.644	642.232
291.745	15.642	853.787	641.953
292.760	15.713	852.981	641.563
293.774	15.691	852.364	640.958
294.789	15.880	851.706	641.125
295.803	15.838	851.102	640.456
296.818	15.850	850.485	639.979
297.833	15.872	849.938	639.594
298.847	15.778	848.771	638.305
299.862	15.798	848.240	637.924
300.876	15.908	847.366	637.626
301.891	15.984	847.076	637.640
302.906	16.038	846.538	637.382
303.920	15.996	845.875	636.669
304.935	16.081	844.860	636.168
305.949	16.211	844.532	636.354
306.964	16.077	844.030	635.414
307.979	16.050	843.518	634.872
308.993	16.081	843.320	634.783
310.008	16.171	842.492	634.442
311.022	16.186	841.975	634.054
312.037	16.145	841.916	633.800
313.052	16.062	840.829	632.613
314.066	16.145	840.368	632.521
315.081	15.880	839.758	631.014
316.095	15.914	839.016	630.527
317.110	16.005	838.851	630.690
318.125	16.219	837.919	630.732
319.139	15.986	837.594	629.561
320.154	16.221	836.781	629.772
321.168	16.112	836.180	628.856
322.183	16.298	835.782	629.194
323.197	16.204	835.702	628.730
324.212	16.209	834.999	628.161
325.227	16.198	834.191	627.459
326.241	16.185	833.779	627.044
327.256	16.215	833.131	626.614
328.270	16.248	832.611	626.290
329.285	16.119	832.005	625.299
330.300	16.169	831.729	625.223
331.314	16.226	831.184	624.969
332.329	16.322	830.209	624.535
333.343	16.328	829.547	624.004
334.358	16.329	829.228	623.711
335.373	16.336	828.610	623.218
336.387	16.344	828.239	622.915
337.402	16.314	827.946	622.528
338.416	16.394	827.162	622.179
339.431	16.460	826.772	622.073
340.446	16.561	826.277	622.017
341.460	16.450	826.037	621.370
342.475	16.654	824.642	621.017
343.489	16.541	824.797	620.664
344.504	16.754	823.945	620.747
345.519	16.813	823.115	620.285
346.533	16.849	822.648	620.007
347.548	16.784	822.507	619.611
348.562	16.605	821.959	618.487
349.577	16.518	821.288	617.612
350.592	16.504	820.957	617.257
351.606	16.692	820.279	617.376
352.621	16.525	820.205	616.658
353.635	16.596	819.652	616.445
354.650	16.534	819.284	615.890
355.665	16.656	818.887	615.980
356.679	16.643	818.459	615.556
357.694	16.700	817.895	615.285
358.708	16.721	817.164	614.756
359.723	16.820	816.361	614.457
360.738	16.855	815.635	613.983
361.752	16.725	815.559	613.401
362.767	16.786	815.155	613.263
363.781	16.706	814.852	612.690
364.796	16.952	814.327	613.134
365.810	16.936	813.724	612.566
366.825	16.915	813.402	612.195
367.840	17.081	813.071	612.488
368.854	17.023	812.514	611.807
369.869	17.035	812.061	611.456
370.883	16.916	811.607	610.630
371.898	17.028	810.601	610.221
372.913	17.077	810.143	610.000
373.927	17.109	809.566	609.627
374.942	17.029	809.460	609.204
375.956	17.172	808.416	608.878
376.971	17.043	808.374	608.329
377.986	17.296	807.532	608.549
379.000	17.191	807.127	607.814
380.015	17.279	806.607	607.685
381.029	17.372	805.853	607.392
382.044	17.248	805.373	606.534
383.059	17.333	804.807	606.357
384.073	17.265	804.544	605.863
385.088	17.215	803.897	605.145
386.102	17.343	803.243	605.054
387.117	17.263	802.551	604.197
388.132	17.251	802.110	603.769
389.146	17.241	801.668	603.344
390.161	17.285	801.374	603.228
391.175	17.444	800.946	603.416
392.190	17.450	800.461	603.020
393.205	17.314	800.291	602.356
394.219	17.334	799.778	601.985
395.234	17.223	799.230	601.129
396.248	17.220	798.671	600.645
397.263	17.208	798.284	600.256
398.278	17.279	797.815	600.103
399.292	17.251	797.426	599.656
400.307	17.204	796.990	599.110
401.321	17.285	796.494	598.969
402.336	17.125	796.586	598.424
403.350	17.260	795.811	598.261
404.365	17.405	795.266	598.310
405.380	17.305	795.086	597.771
406.394	17.402	794.229	597.414
407.409	17.456	794.290	597.596
408.423	17.584	793.468	597.373
409.438	17.514	793.117	596.813
410.453	17.584	792.598	596.612
411.467	17.539	792.742	596.513
412.482	17.587	792.118	596.155
413.496	17.681	791.484	595.954
414.511	17.735	790.931	595.676
415.526	17.844	790.396	595.601
416.540	17.727	790.262	595.037
417.555	17.786	789.779	594.826
418.569	17.869	788.892	594.394
419.584	17.820	788.674	594.008
420.599	17.675	788.632	593.420
421.613	111.887	1292.788	1476.692
422.628	96.107	1366.189	1476.780
