DTS Sentinel unit serial number:	SN413079Multiplexer serial number:	ORYXHardware model number:	OX4-SRSoftware version number:	ORYX F/W v4.00 Oryx Data Collector v3.7.2.0data status	okinstallation	princeton_trtdifferential loss correction	single-endedforward channel	channel 3reverse channel	N/Adate	2019/09/18time	14:28:34forward acquisition time	60.00reverse acquisition time	0.00gamma	496.2192k internal	0.2310k external	0.2310temperature offset calibration	0.9977default loss term (dB/km)	0.3790temperature slope calibration	1.0000multiplexer offset coefficient	1.0000multiplexer slope coefficient	1.0000fibre end	0.00T internal ref (°C)	34.37T ext. ref 1 (°C)	0.69T ext. ref 2 (°C)	31.20length (m)	temperature (°C)	Stokes	anti-Stokes-747.200	92.993	0.128	0.147
-746.185	440.511	0.020	0.043
-745.171	800.000	-0.027	-0.115
-744.156	-14.781	-0.137	-0.089
-743.142	-10.161	0.243	-0.164
-742.127	-66.338	-0.200	0.081
-741.112	129.221	-0.139	0.181
-740.098	179.032	-0.102	0.151
-739.083	-119.100	-0.188	0.033
-738.069	800.000	-0.121	0.424
-737.054	47.072	-0.205	0.194
-736.039	-103.115	-0.197	-0.047
-735.025	-61.155	0.182	-0.078
-734.010	-99.950	-0.328	-0.083
-732.996	81.263	0.116	0.127
-731.981	-70.039	-0.397	-0.154
-730.966	-200.000	0.008	-0.078
-729.952	-142.090	0.317	0.032
-728.937	-63.397	-0.239	-0.100
-727.923	51.492	-0.130	0.125
-726.908	288.389	-0.181	-0.333
-725.894	130.889	-0.171	0.223
-724.879	-200.000	-0.036	0.214
-723.864	190.851	0.301	0.459
-722.850	-200.000	-0.030	-0.155
-721.835	9.726	-0.151	-0.116
-720.821	-162.566	-0.168	0.008
-719.806	65.229	-0.200	0.205
-718.791	-67.737	-0.041	-0.016
-717.777	-46.173	-0.116	0.058
-716.762	-200.000	0.046	-0.322
-715.748	-135.344	-0.347	-0.042
-714.733	127.887	-0.122	0.157
-713.718	83.483	0.165	0.183
-712.704	-46.267	-0.148	-0.074
-711.689	243.208	-0.087	-0.147
-710.675	-28.012	-0.110	0.064
-709.660	248.193	-0.279	0.478
-708.645	-200.000	-0.015	-0.085
-707.631	34.203	0.127	0.113
-706.616	-170.034	-0.179	0.006
-705.602	-139.033	0.406	-0.045
-704.587	-97.311	-0.267	0.071
-703.572	-116.723	-0.104	0.019
-702.558	87.111	-0.102	-0.115
-701.543	-34.748	-0.099	-0.055
-700.529	520.331	0.029	0.070
-699.514	417.797	-0.137	-0.298
-698.499	729.105	-0.095	-0.258
-697.485	-47.346	-0.435	-0.215
-696.470	44.758	0.139	-0.130
-695.456	-200.000	-0.019	0.240
-694.441	-200.000	-0.012	0.115
-693.426	-175.200	0.475	-0.013
-692.412	462.507	-0.094	-0.213
-691.397	-128.435	-0.359	-0.052
-690.383	158.745	-0.090	-0.126
-689.368	80.743	0.141	-0.154
-688.354	-119.033	0.095	0.017
-687.339	-200.000	-0.018	-0.232
-686.324	-0.849	-0.097	0.070
-685.310	-140.151	-0.275	0.029
-684.295	757.114	-0.076	0.209
-683.281	98.226	0.108	0.126
-682.266	499.804	0.119	-0.278
-681.251	163.961	-0.023	0.033
-680.237	-187.206	-0.124	0.002
-679.222	36.205	-0.054	0.048
-678.208	121.510	-0.110	-0.139
-677.193	-200.000	0.002	-0.225
-676.178	-85.109	0.226	-0.072
-675.164	-64.041	-0.232	0.096
-674.149	-171.369	0.178	0.006
-673.135	-200.000	0.002	-0.060
-672.120	275.401	-0.102	0.183
-671.105	-45.936	0.031	0.015
-670.091	50.746	-0.291	0.279
-669.076	800.000	0.121	0.430
-668.062	-136.457	-0.233	-0.027
-667.047	337.543	-0.201	0.396
-666.032	-200.000	-0.021	-0.203
-665.018	-14.111	0.033	-0.021
-664.003	-93.702	0.236	-0.066
-662.989	-162.259	-0.156	0.008
-661.974	-144.193	0.209	0.020
-660.959	-55.114	0.085	0.039
-659.945	800.000	0.027	-0.100
-658.930	157.315	-0.069	-0.097
-657.916	-200.000	0.041	0.249
-656.901	485.616	-0.031	0.071
-655.886	-158.103	0.406	-0.024
-654.872	-108.809	-0.249	-0.054
-653.857	800.000	0.078	-0.290
-652.843	225.633	-0.076	-0.125
-651.828	-200.000	0.079	-0.373
-650.814	215.250	0.245	-0.394
-649.799	800.000	0.087	-0.253
-648.784	-81.374	-0.464	-0.155
-647.770	1.119	-0.210	0.152
-646.755	-146.542	0.159	0.014
-645.741	28.269	-0.097	-0.083
-644.726	-200.000	0.030	0.283
-643.711	-200.000	-0.047	0.243
-642.697	-24.885	-0.179	-0.108
-641.682	-140.962	-0.214	0.022
-640.668	366.759	-0.080	-0.163
-639.653	242.585	0.148	0.251
-638.638	-58.072	-0.258	-0.114
-637.624	-87.062	0.174	-0.054
-636.609	-72.599	0.279	-0.104
-635.595	-96.885	0.165	0.044
-634.580	130.544	0.061	0.079
-633.565	166.747	-0.186	0.267
-632.551	0.224	-0.229	-0.165
-631.536	3.932	-0.169	-0.125
-630.522	-151.082	0.263	-0.020
-629.507	442.281	-0.083	0.184
-628.492	53.680	0.037	0.036
-627.478	-200.000	0.058	-0.259
-626.463	-65.778	-0.215	-0.087
-625.449	800.000	-0.102	-0.311
-624.434	-18.356	0.124	-0.079
-623.419	-119.689	-0.142	-0.025
-622.405	-60.047	0.234	0.101
-621.390	57.668	-0.021	0.021
-620.376	55.427	-0.035	0.034
-619.361	-47.204	0.127	0.062
-618.346	250.242	-0.065	-0.111
-617.332	81.480	-0.263	-0.287
-616.317	-79.458	-0.186	0.064
-615.303	-105.784	0.053	-0.012
-614.288	450.198	-0.061	-0.135
-613.273	-109.942	-0.295	-0.062
-612.259	30.851	0.233	0.202
-611.244	-180.592	-0.289	0.006
-610.230	-22.325	0.168	0.103
-609.215	-41.279	0.140	-0.073
-608.201	235.942	0.299	0.499
-607.186	295.080	0.063	-0.116
-606.171	448.194	-0.123	-0.275
-605.157	-22.695	-0.138	0.085
-604.142	-29.060	0.154	-0.089
-603.128	-130.239	0.268	0.037
-602.113	109.165	0.109	0.132
-601.098	-79.564	-0.178	0.061
-600.084	-100.419	0.250	0.062
-599.069	-200.000	0.015	0.070
-598.055	-200.000	-0.069	0.311
-597.040	-200.000	-0.025	-0.144
-596.025	-59.697	-0.184	-0.080
-595.011	-200.000	-0.006	-0.348
-593.996	69.795	0.106	-0.110
-592.982	-142.676	-0.291	-0.029
-591.967	238.835	0.054	0.091
-590.952	-52.046	-0.096	0.045
-589.938	800.000	-0.137	0.415
-588.923	325.174	-0.125	0.241
-587.909	151.542	-0.182	-0.250
-586.894	800.000	0.066	-0.237
-585.879	42.166	0.079	0.072
-584.865	304.900	0.151	0.283
-583.850	4.399	0.172	0.128
-582.836	-19.557	-0.256	-0.160
-581.821	-200.000	-0.019	-0.326
-580.806	800.000	-0.039	0.117
-579.792	-147.049	-0.489	-0.042
-578.777	11.029	0.196	-0.151
-577.763	800.000	-0.084	0.252
-576.748	-200.000	-0.032	-0.199
-575.733	-41.926	0.030	0.015
-574.719	384.610	-0.120	-0.250
-573.704	-134.248	0.127	0.016
-572.690	125.744	-0.213	0.271
-571.675	34.952	0.075	0.067
-570.661	800.000	-0.064	-0.262
-569.646	40.913	0.121	-0.110
-568.631	-200.000	0.015	0.123
-567.617	-74.875	0.051	0.018
-566.602	363.708	-0.071	-0.143
-565.588	-99.328	0.205	0.052
-564.573	-53.846	0.258	0.119
-563.558	230.015	-0.203	0.335
-562.544	63.836	0.042	0.042
-561.529	277.281	-0.034	0.061
-560.515	-63.640	-0.133	0.055
-559.500	-111.088	-0.236	0.049
-558.485	484.976	0.049	-0.113
-557.471	123.671	-0.214	0.271
-556.456	-101.842	-0.166	-0.040
-555.442	42.144	0.047	-0.043
-554.427	-200.000	0.028	0.166
-553.412	327.799	0.116	-0.225
-552.398	-200.000	-0.025	-0.192
-551.383	-175.005	0.054	0.002
-550.369	-200.000	0.056	-0.334
-549.354	294.320	0.057	-0.105
-548.339	693.269	0.051	-0.136
-547.325	-68.620	0.125	0.049
-546.310	-57.055	-0.118	-0.052
-545.296	-65.987	0.116	-0.047
-544.281	-58.093	0.135	-0.059
-543.266	103.309	0.213	0.252
-542.252	663.661	0.040	0.103
-541.237	795.392	-0.076	-0.211
-540.223	-200.000	0.044	-0.412
-539.208	-45.351	0.041	-0.020
-538.193	-200.000	0.016	-0.140
-537.179	86.886	0.108	-0.121
-536.164	0.442	0.219	0.158
-535.150	283.505	-0.174	-0.315
-534.135	-24.759	-0.065	0.039
-533.121	-18.249	-0.113	-0.071
-532.106	-137.001	-0.140	0.016
-531.091	-83.208	-0.523	0.169
-530.077	-7.107	-0.328	0.224
-529.062	-64.272	0.145	0.060
-528.048	-200.000	-0.047	0.298
-527.033	800.000	-0.042	-0.174
-526.018	-200.000	0.017	0.184
-525.004	-25.589	0.057	0.034
-523.989	-200.000	-0.023	-0.102
-522.975	-200.000	-0.048	0.225
-521.960	800.000	0.091	-0.317
-520.945	-86.812	-0.331	-0.102
-519.931	168.819	0.089	-0.128
-518.916	-75.057	0.092	0.033
-517.902	153.465	-0.080	-0.110
-516.887	-102.254	0.048	-0.012
-515.872	52.281	-0.199	-0.191
-514.858	-192.649	0.260	0.002
-513.843	108.294	0.202	-0.243
-512.829	290.889	0.160	-0.292
-511.814	-109.687	-0.249	0.053
-510.799	-130.997	0.225	0.030
-509.785	-26.961	0.240	-0.141
-508.770	289.323	-0.229	-0.417
-507.756	-12.914	-0.038	-0.025
-506.741	1.220	-0.299	0.216
-505.726	437.239	-0.111	-0.243
-504.712	800.000	-0.082	-0.237
-503.697	22.812	0.277	-0.228
-502.683	-64.356	0.231	0.095
-501.668	-200.000	0.012	-0.184
-500.653	-200.000	-0.016	-0.074
-499.639	-78.466	-0.231	0.080
-498.624	321.515	0.059	-0.113
-497.610	287.427	0.097	0.176
-496.595	-200.000	-0.006	0.051
-495.581	-200.000	-0.015	0.246
-494.566	-120.078	-0.211	0.036
-493.551	-200.000	0.005	0.285
-492.537	-76.947	0.073	-0.026
-491.522	-200.000	0.005	0.146
-490.508	216.209	-0.195	0.311
-489.493	800.000	0.096	-0.266
-488.478	409.571	-0.092	0.196
-487.464	-200.000	0.004	0.256
-486.449	47.528	-0.108	-0.101
-485.435	-134.872	0.126	-0.015
-484.420	-200.000	0.047	0.339
-483.405	-102.009	0.270	0.066
-482.391	78.173	0.136	0.146
-481.376	8.057	-0.083	0.062
-480.362	-164.890	-0.169	0.008
-479.347	-166.205	-0.218	0.009
-478.332	-158.799	-0.243	0.014
-477.318	339.700	0.115	-0.224
-476.303	98.371	0.155	-0.179
-475.289	-8.121	0.256	0.173
-474.274	-59.165	0.292	-0.127
-473.259	-89.965	0.020	0.006
-472.245	-8.236	-0.131	0.088
-471.230	800.000	-0.051	-0.207
-470.216	800.000	-0.016	0.061
-469.201	-75.785	-0.091	-0.032
-468.186	168.032	0.092	-0.131
-467.172	800.000	-0.021	-0.070
-466.157	-38.472	-0.304	0.161
-465.143	400.943	-0.119	-0.252
-464.128	-45.796	0.202	0.100
-463.113	-135.610	0.430	0.051
-462.099	-143.831	-0.314	-0.030
-461.084	-88.032	-0.345	0.104
-460.070	-123.655	-0.311	-0.050
-459.055	-67.106	-0.211	-0.084
-458.040	-28.704	0.087	-0.051
-457.026	272.591	0.102	-0.182
-456.011	112.021	-0.082	-0.099
-454.997	-28.966	-0.195	0.113
-453.982	-32.135	0.234	0.131
-452.968	-89.800	-0.084	-0.025
-451.953	576.593	-0.114	-0.279
-450.938	-200.000	0.013	-0.102
-449.924	-200.000	0.001	-0.137
-448.909	-96.619	-0.313	0.083
-447.895	-102.638	0.213	0.051
-446.880	356.829	-0.021	0.043
-445.865	46.770	-0.062	0.058
-444.851	-24.221	-0.081	-0.049
-443.836	800.000	-0.155	0.588
-442.822	-116.471	-0.182	0.034
-441.807	530.528	0.072	-0.171
-440.792	-97.461	0.177	0.046
-439.778	146.651	0.115	0.155
-438.763	-127.090	0.101	-0.015
-437.749	284.922	0.061	0.110
-436.734	-50.405	0.334	0.158
-435.719	8.001	0.168	0.126
-434.705	727.532	-0.136	0.364
-433.690	42.127	-0.074	0.067
-432.676	-104.194	-0.207	-0.048
-431.661	198.428	0.042	0.064
-430.646	-121.543	0.131	0.022
-429.632	348.840	-0.123	-0.243
-428.617	181.824	0.017	0.025
-427.603	515.297	-0.038	0.090
-426.588	-200.000	0.252	-0.001
-425.573	-34.708	0.125	0.069
-424.559	-21.637	0.096	-0.059
-423.544	-154.833	-0.210	-0.014
-422.530	195.184	0.168	-0.256
-421.515	-111.178	-0.137	-0.028
-420.500	800.000	-0.021	0.089
-419.486	-60.199	0.297	0.127
-418.471	3.550	-0.184	0.134
-417.457	493.763	-0.065	-0.150
-416.442	-113.716	0.198	0.039
-415.428	-200.000	0.023	0.144
-414.413	-113.515	-0.164	-0.032
-413.398	-77.489	-0.267	-0.093
-412.384	-71.397	0.257	-0.096
-411.369	-65.049	0.297	0.120
-410.355	102.096	-0.233	-0.272
-409.340	486.517	0.167	-0.381
-408.325	195.748	0.069	-0.105
-407.311	-39.635	0.094	-0.049
-406.296	-176.820	-0.283	-0.007
-405.282	-144.104	-0.313	-0.029
-404.267	-103.727	-0.231	0.054
-403.252	-80.191	0.106	-0.036
-402.238	140.712	0.180	0.238
-401.223	-92.922	-0.269	-0.075
-400.209	-91.178	0.023	-0.007
-399.194	800.000	0.032	-0.094
-398.179	648.161	-0.062	0.160
-397.165	363.289	-0.108	0.217
-396.150	-71.236	-0.294	-0.110
-395.136	255.419	0.085	-0.146
-394.121	-103.958	-0.071	-0.017
-393.106	-95.541	0.095	0.025
-392.092	-61.485	0.174	0.073
-391.077	-125.391	-0.138	0.021
-390.063	51.206	0.252	0.240
-389.048	-200.000	-0.017	-0.265
-388.033	415.000	-0.061	0.130
-387.019	-200.000	0.038	-0.336
-386.004	160.299	0.176	0.246
-384.990	-90.907	0.163	0.047
-383.975	-127.945	0.201	0.029
-382.960	-92.188	0.089	0.025
-381.946	88.730	-0.178	0.198
-380.931	800.000	0.069	-0.223
-379.917	25.961	0.131	-0.109
-378.902	608.846	-0.048	0.121
-377.888	-200.000	0.027	0.167
-376.873	57.400	0.264	-0.258
-375.858	121.181	-0.168	-0.210
-374.844	-31.514	-0.193	-0.109
-373.829	170.973	0.108	-0.155
-372.815	-4.754	0.033	-0.023
-371.800	102.499	-0.176	0.206
-370.785	800.000	-0.117	0.346
-369.771	-53.320	-0.307	0.141
-368.756	-45.031	-0.340	0.169
-367.742	60.969	-0.057	0.056
-366.727	-35.363	0.283	0.154
-365.712	-106.489	-0.074	-0.017
-364.698	-74.563	-0.057	0.021
-363.683	-200.000	-0.019	0.168
-362.669	-150.558	-0.322	0.025
-361.654	22.119	0.093	-0.076
-360.639	-200.000	0.001	0.050
-359.625	-122.583	0.098	-0.016
-358.610	-28.329	0.186	0.107
-357.596	800.000	-0.025	0.092
-356.581	79.786	-0.210	-0.226
-355.566	34.764	0.151	0.132
-354.552	800.000	-0.078	0.227
-353.537	531.121	0.081	0.190
-352.523	800.000	0.040	-0.126
-351.508	-200.000	0.085	0.381
-350.493	157.281	-0.053	0.074
-349.479	25.451	0.333	0.277
-348.464	-110.124	0.073	0.015
-347.450	348.770	-0.033	-0.064
-346.435	-200.000	-0.028	-0.353
-345.420	-200.000	-0.019	-0.139
-344.406	65.960	-0.136	0.137
-343.391	-104.035	-0.191	0.045
-342.377	-157.253	-0.181	-0.011
-341.362	50.617	-0.241	-0.228
-340.348	95.423	0.287	-0.327
-339.333	236.300	0.262	-0.434
-338.318	36.407	-0.193	0.170
-337.304	800.000	-0.099	-0.341
-336.289	-200.000	0.010	-0.318
-335.275	-80.606	-0.411	0.137
-334.260	-200.000	0.025	0.329
-333.245	-67.856	0.178	0.070
-332.231	386.149	0.132	0.272
-331.216	194.319	-0.097	-0.147
-330.202	800.000	-0.036	-0.125
-329.187	1.070	-0.388	0.278
-328.172	9.992	-0.045	0.034
-327.158	9.724	0.203	-0.154
-326.143	-118.801	0.168	-0.029
-325.129	-200.000	-0.017	-0.194
-324.114	155.473	-0.083	-0.114
-323.099	-108.304	0.156	-0.034
-322.085	-200.000	0.022	-0.161
-321.070	158.794	0.189	-0.262
-320.056	-80.608	-0.267	-0.089
-319.041	217.356	-0.183	0.291
-318.026	-50.840	-0.053	-0.025
-317.012	518.050	0.109	-0.254
-315.997	-200.000	0.020	0.182
-314.983	625.211	0.174	-0.439
-313.968	685.513	0.089	-0.231
-312.953	-64.540	0.155	-0.063
-311.939	-112.690	0.291	-0.058
-310.924	-200.000	-0.002	-0.192
-309.910	-14.608	-0.225	0.145
-308.895	65.594	0.198	0.200
-307.880	793.214	-0.053	0.145
-306.866	5.161	0.159	0.117
-305.851	178.843	-0.179	-0.262
-304.837	665.380	0.182	-0.468
-303.822	265.400	-0.122	-0.212
-302.807	-130.802	0.151	-0.020
-301.793	3.455	0.137	0.100
-300.778	-22.610	-0.228	-0.137
-299.764	-39.296	-0.099	0.052
-298.749	105.183	0.121	0.142
-297.735	-36.320	0.089	0.048
-296.720	198.908	0.159	0.242
-295.705	158.204	-0.111	-0.154
-294.691	72.769	0.248	0.259
-293.676	111.393	0.209	0.251
-292.662	31.281	0.124	0.107
-291.647	-138.049	-0.086	0.010
-290.632	196.058	0.104	0.158
-289.618	-200.000	-0.041	0.187
-288.603	800.000	0.068	0.285
-287.589	65.516	0.047	-0.048
-286.574	800.000	-0.023	-0.067
-285.559	33.939	0.337	-0.293
-284.545	783.668	0.043	-0.118
-283.530	223.610	0.137	0.221
-282.516	93.444	0.157	0.178
-281.501	229.363	0.221	-0.359
-280.486	-151.976	0.280	0.020
-279.472	800.000	0.032	-0.105
-278.457	59.165	0.051	-0.050
-277.443	8.241	-0.180	-0.135
-276.428	-135.044	-0.209	0.025
-275.413	-4.351	0.168	0.116
-274.399	-23.623	-0.104	0.062
-273.384	37.645	0.094	-0.083
-272.370	-22.215	-0.232	-0.140
-271.355	-138.507	-0.090	0.010
-270.340	393.981	0.074	-0.153
-269.326	177.709	-0.243	0.353
-268.311	-145.353	-0.158	0.014
-267.297	709.519	0.054	-0.143
-266.282	-177.669	0.126	-0.003
-265.267	381.329	-0.063	0.128
-264.253	-127.445	-0.016	0.002
-263.238	59.379	0.341	0.335
-262.224	223.434	0.063	0.102
-261.209	-138.360	-0.036	-0.004
-260.195	-186.847	0.305	0.004
-259.180	0.951	-0.284	-0.203
-258.165	-92.487	0.306	0.086
-257.151	483.452	-0.008	-0.019
-256.136	-46.312	-0.125	0.061
-255.122	-116.399	-0.245	-0.045
-254.107	121.830	-0.212	0.264
-253.092	-137.769	-0.072	0.008
-252.078	-200.000	-0.002	0.045
-251.063	263.640	0.176	0.306
-250.049	416.315	-0.090	0.192
-249.034	-111.841	-0.338	-0.068
-248.019	115.241	0.092	-0.111
-247.005	144.065	0.184	0.244
-245.990	-51.089	-0.375	0.175
-244.976	-20.769	0.174	-0.106
-243.961	107.106	-0.228	0.269
-242.946	-47.124	0.239	-0.116
-241.932	61.853	-0.180	0.179
-240.917	125.952	0.268	-0.338
-239.903	-103.843	0.032	-0.007
-238.888	44.007	0.136	-0.124
-237.873	532.961	0.140	-0.330
-236.859	800.000	0.107	0.407
-235.844	-200.000	0.019	0.395
-234.830	629.395	-0.110	0.276
-233.815	-200.000	-0.038	0.176
-232.800	87.770	-0.166	-0.183
-231.786	43.487	0.220	0.200
-230.771	374.618	-0.046	0.093
-229.757	-200.000	-0.029	0.260
-228.742	-134.201	-0.429	0.053
-227.727	800.000	-0.094	0.273
-226.713	434.675	0.091	0.197
-225.698	7.428	-0.225	0.167
-224.684	226.562	-0.101	0.162
-223.669	-200.000	0.004	-0.097
-222.655	-5.557	0.202	-0.138
-221.640	-200.000	0.050	0.217
-220.625	236.812	-0.046	-0.076
-219.611	-83.520	-0.195	-0.062
-218.596	97.045	0.164	0.187
-217.582	154.276	0.084	-0.115
-216.567	-200.000	-0.013	0.152
-215.552	-200.000	-0.000	-0.129
-214.538	-50.046	-0.093	-0.044
-213.523	-200.000	0.024	0.159
-212.509	800.000	-0.082	-0.288
-211.494	255.121	-0.038	-0.065
-210.479	255.219	0.105	0.178
-209.465	800.000	0.058	-0.221
-208.450	144.270	0.190	-0.253
-207.436	222.945	0.067	-0.107
-206.421	-52.785	0.109	-0.050
-205.406	2.861	0.309	0.223
-204.392	550.468	0.093	0.221
-203.377	381.714	0.063	0.129
-202.363	20.499	0.151	-0.121
-201.348	-95.724	-0.187	-0.050
-200.333	-171.411	-0.044	-0.001
-199.319	-200.000	-0.026	-0.208
-198.304	-5.727	-0.171	0.116
-197.290	-200.000	0.015	-0.499
-196.275	800.000	0.213	-0.629
-195.260	182.315	-0.061	0.089
-194.246	-60.144	0.260	0.110
-193.231	-143.121	-0.414	-0.040
-192.217	-200.000	0.023	-0.148
-191.202	-102.377	0.224	-0.053
-190.187	-17.536	-0.042	0.026
-189.173	82.259	0.081	0.088
-188.158	350.185	-0.087	-0.171
-187.144	-64.659	0.027	-0.011
-186.129	94.747	-0.057	-0.065
-185.114	800.000	0.066	-0.214
-184.100	-130.723	-0.030	-0.004
-183.085	-75.554	-0.130	0.046
-182.071	800.000	0.042	0.166
-181.056	100.710	-0.102	-0.118
-180.042	-31.899	0.132	-0.074
-179.027	49.705	-0.196	-0.184
-178.012	-106.448	-0.227	0.050
-176.998	-48.347	0.389	0.186
-175.983	-115.778	0.153	0.028
-174.969	-128.670	0.317	0.044
-173.954	-200.000	0.025	0.335
-172.939	339.134	-0.066	0.128
-171.925	-68.790	0.333	0.128
-170.910	-200.000	0.011	-0.055
-169.896	-30.232	0.211	0.119
-168.881	800.000	-0.115	-0.396
-167.866	1.585	0.242	-0.173
-166.852	-200.000	0.036	-0.192
-165.837	-158.507	-0.183	-0.010
-164.823	-200.000	0.005	0.114
-163.808	21.678	0.186	0.150
-162.793	-200.000	0.046	0.284
-161.779	-200.000	-0.247	0.001
-160.764	173.831	0.168	0.241
-159.750	326.972	0.148	-0.282
-158.735	-4.607	-0.106	0.073
-157.720	-118.345	0.051	0.009
-156.706	-122.487	0.279	-0.045
-155.691	73.735	-0.103	0.107
-154.677	800.000	-0.050	-0.207
-153.662	347.276	-0.182	-0.355
-152.647	-62.773	0.429	0.176
-151.633	-35.815	-0.121	0.065
-150.618	-10.043	0.118	-0.078
-149.604	-40.092	-0.248	0.128
-148.589	96.284	-0.172	0.195
-147.574	31.304	0.110	-0.094
-146.560	69.161	-0.246	0.251
-145.545	-128.552	0.247	0.035
-144.531	-45.479	-0.488	-0.240
-143.516	-200.000	-0.046	-0.242
-142.502	-105.628	0.115	-0.026
-141.487	-154.746	-0.351	-0.023
-140.472	-200.000	-0.021	0.269
-139.458	-187.276	-0.036	0.000
-138.443	-54.871	0.134	0.060
-137.429	-117.663	-0.356	0.064
-136.414	-200.000	-0.009	-0.073
-135.399	-65.967	-0.312	0.124
-134.385	-91.523	0.155	-0.044
-133.370	-97.335	0.214	0.055
-132.356	-151.103	-0.431	-0.032
-131.341	6.070	-0.192	-0.141
-130.326	-81.745	0.081	-0.026
-129.312	153.137	0.059	0.079
-128.297	234.723	-0.111	0.181
-127.283	103.306	-0.098	0.114
-126.268	-200.000	0.062	-0.272
-125.253	-56.891	-0.122	-0.053
-124.239	800.000	-0.041	0.151
-123.224	203.350	-0.039	-0.060
-122.210	-200.000	-0.041	0.196
-121.195	-21.328	0.542	0.328
-120.180	-63.554	-0.184	0.075
-119.166	321.077	-0.052	0.098
-118.151	-12.258	0.142	-0.092
-117.137	74.376	0.054	-0.057
-116.122	400.430	0.070	-0.145
-115.107	800.000	-0.044	-0.124
-114.093	-141.240	0.467	0.047
-113.078	477.291	-0.110	-0.247
-112.064	61.473	0.297	-0.293
-111.049	-22.759	0.140	-0.084
-110.034	-200.000	0.072	0.340
-109.020	110.766	-0.159	-0.189
-108.005	800.000	0.037	-0.143
-106.991	264.951	-0.146	-0.252
-105.976	-175.566	0.119	0.003
-104.962	-121.899	0.243	0.040
-103.947	738.961	-0.047	-0.125
-102.932	-125.986	-0.170	-0.025
-101.918	-200.000	0.019	-0.177
-100.903	-200.000	0.027	0.150
-99.889	393.989	0.107	0.220
-98.874	-125.359	-0.441	0.067
-97.859	-137.631	-0.045	-0.005
-96.845	33.332	0.306	-0.263
-95.830	-173.862	0.078	-0.002
-94.816	708.747	0.074	0.194
-93.801	207.319	-0.059	-0.091
-92.786	-134.182	0.200	0.024
-91.772	22.763	-0.205	0.167
-90.757	205.000	0.152	-0.233
-89.743	-200.000	0.013	-0.100
-88.728	-200.000	0.023	0.270
-87.713	4.215	-0.151	-0.110
-86.699	-55.140	-0.045	-0.020
-85.684	109.998	-0.070	-0.083
-84.670	-200.000	-0.059	-0.283
-83.655	800.000	-0.050	-0.215
-82.640	113.728	-0.042	-0.051
-81.626	121.255	0.173	0.213
-80.611	-93.090	0.179	0.049
-79.597	-22.353	-0.171	0.102
-78.582	232.983	-0.132	0.215
-77.567	-200.000	0.039	0.310
-76.553	800.000	0.057	0.156
-75.538	37.841	-0.110	-0.097
-74.524	145.687	0.144	-0.190
-73.509	800.000	-0.068	-0.240
-72.494	-43.626	0.073	-0.037
-71.480	10.662	0.234	0.176
-70.465	-200.000	-0.000	-0.587
-69.451	-200.000	-0.025	-0.133
-68.436	-110.075	-0.017	0.003
-67.422	-77.219	-0.235	-0.081
-66.407	-89.315	0.111	-0.032
-65.392	-200.000	-0.006	0.049
-64.378	4.874	0.125	0.091
-63.363	-68.141	0.046	0.018
-62.349	17.891	-0.126	-0.099
-61.334	87.571	-0.641	-0.701
-60.319	259.800	0.393	0.671
-59.305	-200.000	-0.164	-0.762
-58.290	800.000	0.332	1.372
-57.276	474.766	0.662	1.477
-56.261	-200.000	96.612	553.385
-55.246	512.154	1413.778	3255.441
-54.232	146.348	2634.698	3496.573
-53.217	110.400	2233.107	2652.504
-52.203	44.605	1760.443	1599.595
-51.188	37.317	1569.323	1374.552
-50.173	34.923	1541.807	1333.730
-49.159	52.688	1592.164	1503.652
-48.144	55.605	1611.361	1542.425
-47.130	37.754	1566.930	1375.328
-46.115	34.658	1550.813	1339.452
-45.100	34.503	1546.956	1334.981
-44.086	34.331	1545.508	1332.477
-43.071	34.445	1543.368	1331.377
-42.057	34.269	1542.269	1329.148
-41.042	34.423	1540.149	1328.336
-40.027	34.502	1538.651	1327.543
-39.013	34.427	1537.405	1325.891
-37.998	34.372	1536.535	1324.706
-36.984	34.317	1535.847	1323.678
-35.969	34.371	1533.984	1322.395
-34.954	34.306	1532.439	1320.563
-33.940	34.317	1530.784	1319.161
-32.925	34.406	1529.291	1318.436
-31.911	34.374	1528.344	1317.345
-30.896	34.429	1526.758	1316.306
-29.881	34.534	1525.316	1315.737
-28.867	34.421	1523.994	1313.766
-27.852	34.427	1522.747	1312.676
-26.838	34.434	1521.359	1311.479
-25.823	34.453	1519.897	1310.296
-24.809	34.382	1518.112	1308.218
-23.794	34.476	1516.164	1307.134
-22.779	34.537	1515.376	1306.817
-21.765	34.392	1514.775	1305.253
-20.750	34.461	1512.920	1304.077
-19.736	34.438	1512.142	1303.200
-18.721	34.336	1511.638	1302.017
-17.706	34.452	1509.941	1301.295
-16.692	34.255	1509.266	1299.316
-15.677	34.280	1508.378	1298.668
-14.663	34.320	1506.749	1297.491
-13.648	34.356	1506.099	1297.126
-12.633	34.340	1505.534	1296.475
-11.619	34.349	1504.251	1295.381
-10.604	34.255	1503.606	1294.137
-9.590	34.349	1502.475	1293.748
-8.575	34.343	1501.486	1292.802
-7.560	34.362	1500.982	1292.448
-6.546	34.369	1499.802	1291.426
-5.531	34.360	1498.786	1290.443
-4.517	34.402	1497.583	1289.636
-3.502	34.390	1496.645	1288.695
-2.487	34.309	1495.812	1287.385
-1.473	34.291	1495.240	1286.718
-0.458	34.352	1493.640	1285.703
0.556	33.355	1484.295	1275.793
1.571	30.691	1457.855	1235.293
2.586	27.029	1393.632	1157.480
3.600	24.534	1307.207	1070.667
4.615	22.319	1259.090	1018.358
5.629	18.905	1201.219	952.581
6.644	9.824	1111.976	834.940
7.659	2.132	1068.422	763.811
8.673	0.848	1062.561	753.166
9.688	0.624	1059.726	749.975
10.702	0.549	1057.919	748.257
11.717	0.749	1055.860	747.728
12.731	3.385	1059.022	762.961
13.746	11.890	1070.423	813.519
14.761	17.518	1077.591	846.967
15.775	17.680	1076.697	846.994
16.790	17.040	1074.465	841.989
17.804	15.981	1072.629	835.227
18.819	15.019	1070.712	828.897
19.834	14.572	1069.644	825.788
20.848	14.401	1067.984	823.585
21.863	14.000	1067.304	821.009
22.877	13.736	1066.610	819.102
23.892	13.637	1065.533	817.712
24.907	13.503	1064.624	816.281
25.921	13.433	1064.556	815.810
26.936	13.500	1063.861	815.538
27.950	13.547	1062.839	814.910
28.965	13.608	1061.988	814.485
29.980	13.530	1061.330	813.525
30.994	13.622	1060.054	812.929
32.009	13.709	1059.244	812.660
33.023	13.728	1058.761	812.314
34.038	13.712	1058.018	811.593
35.053	13.670	1056.890	810.448
36.067	13.807	1055.296	809.823
37.082	13.712	1054.836	808.937
38.096	13.634	1054.328	808.093
39.111	13.655	1053.821	807.735
40.126	13.670	1052.753	806.919
41.140	13.714	1051.342	805.981
42.155	13.552	1050.354	804.365
43.169	13.460	1049.955	803.542
44.184	13.435	1048.614	802.323
45.199	13.579	1047.547	802.133
46.213	13.393	1046.694	800.511
47.228	13.461	1045.350	799.739
48.242	13.435	1044.788	799.116
49.257	13.587	1043.450	798.754
50.271	13.735	1042.360	798.559
51.286	13.637	1041.741	797.544
52.301	13.582	1041.372	796.928
53.315	13.705	1040.150	796.510
54.330	13.616	1039.476	795.496
55.344	13.658	1038.599	794.957
56.359	13.604	1037.522	793.804
57.374	13.621	1036.468	793.007
58.388	13.569	1035.810	792.185
59.403	13.513	1035.373	791.516
60.417	13.568	1034.371	790.942
61.432	13.478	1033.614	789.862
62.447	13.431	1033.126	789.194
63.461	13.530	1031.895	788.655
64.476	13.407	1031.112	787.406
65.490	13.426	1030.082	786.640
66.505	13.400	1029.252	785.812
67.520	13.537	1028.206	785.591
68.534	13.535	1027.590	785.044
69.549	13.439	1027.014	784.079
70.563	13.474	1026.574	783.838
71.578	13.508	1025.546	783.147
72.593	13.466	1024.718	782.248
73.607	13.469	1023.424	781.202
74.622	13.473	1022.575	780.506
75.636	13.433	1022.045	779.844
76.651	13.418	1021.432	779.235
77.666	13.445	1020.127	778.300
78.680	13.417	1019.701	777.773
79.695	13.402	1019.733	777.656
80.709	13.408	1018.888	776.972
81.724	13.418	1018.020	776.288
82.739	13.428	1016.842	775.368
83.753	13.434	1016.507	775.071
84.768	13.713	1015.110	775.245
85.782	13.670	1014.461	774.479
86.797	13.705	1013.984	774.211
87.812	13.646	1013.307	773.349
88.826	13.593	1012.666	772.541
89.841	13.534	1011.635	771.413
90.855	13.626	1010.246	770.713
91.870	13.583	1010.062	770.306
92.884	13.667	1009.269	770.021
93.899	13.751	1008.342	769.635
94.914	13.721	1007.763	768.989
95.928	13.915	1006.387	768.767
96.943	13.788	1006.265	768.019
97.957	13.612	1005.538	766.582
98.972	13.720	1004.629	766.322
99.987	13.750	1003.775	765.741
101.001	13.824	1002.698	765.190
102.016	13.790	1002.275	764.643
103.030	13.705	1001.368	763.495
104.045	13.732	1000.426	762.834
105.060	13.684	999.849	762.106
106.074	13.765	998.943	761.716
107.089	13.614	997.849	760.125
108.103	13.541	997.213	759.238
109.118	13.420	996.538	758.104
110.133	13.612	995.142	757.850
111.147	13.558	994.549	757.084
112.162	13.572	993.597	756.359
113.176	13.672	992.235	755.711
114.191	13.744	991.634	755.513
115.206	13.631	991.044	754.484
116.220	13.578	990.033	753.407
117.235	13.495	989.423	752.499
118.249	13.603	987.944	751.797
119.264	13.616	987.039	751.101
120.279	13.547	986.780	750.523
121.293	13.539	985.955	749.795
122.308	13.498	984.887	748.730
123.322	13.639	984.245	748.811
124.337	13.655	982.895	747.790
125.352	13.657	981.899	746.978
126.366	13.648	980.586	745.873
127.381	13.618	979.723	745.012
128.395	13.548	978.611	743.786
129.410	13.440	978.302	743.005
130.424	13.651	976.948	742.856
131.439	13.728	976.063	742.459
132.454	13.723	975.133	741.667
133.468	13.743	974.371	741.107
134.483	13.728	974.018	740.707
135.497	13.746	972.988	739.941
136.512	13.602	972.469	738.838
137.527	13.677	971.691	738.513
138.541	13.706	970.515	737.686
139.556	13.618	970.650	737.332
140.570	13.629	969.282	736.275
141.585	13.709	968.565	736.020
142.600	13.689	967.918	735.376
143.614	13.802	966.876	735.020
144.629	13.731	965.990	733.967
145.643	13.693	965.288	733.201
146.658	13.847	964.155	732.953
147.673	13.832	963.427	732.271
148.687	13.817	962.235	731.233
149.702	13.785	961.465	730.442
150.716	13.823	960.759	730.009
151.731	13.613	960.349	728.708
152.746	13.792	959.202	728.558
153.760	13.701	958.588	727.632
154.775	13.779	957.657	727.202
155.789	13.844	956.945	726.880
156.804	13.804	956.403	726.230
157.819	13.862	955.251	725.546
158.833	13.775	954.970	724.885
159.848	13.756	954.576	724.437
160.862	13.922	953.204	724.058
161.877	13.880	952.512	723.287
162.892	13.811	951.819	722.395
163.906	13.832	950.833	721.675
164.921	13.793	950.516	721.202
165.935	13.935	948.929	720.548
166.950	13.907	948.242	719.840
167.964	13.942	947.285	719.204
168.979	13.841	946.343	717.988
169.994	13.756	945.439	716.870
171.008	13.778	944.569	716.245
172.023	13.892	943.492	715.856
173.037	13.915	942.923	715.457
174.052	13.907	942.376	714.945
175.067	14.030	941.498	714.746
176.081	13.919	940.975	713.806
177.096	13.869	939.965	712.762
178.110	13.929	939.092	712.297
179.125	13.956	938.413	711.835
180.140	13.968	937.520	711.144
181.154	13.967	936.879	710.593
182.169	13.961	936.610	710.300
183.183	13.943	935.929	709.641
184.198	14.020	935.217	709.369
185.213	14.119	934.663	709.310
186.227	14.045	934.182	708.564
187.242	14.161	933.306	708.332
188.256	14.054	932.690	707.348
189.271	14.208	932.079	707.476
190.286	14.176	930.842	706.338
191.300	14.243	930.160	706.044
192.315	13.978	929.700	704.504
193.329	14.017	929.086	704.143
194.344	14.064	928.059	703.503
195.359	14.153	927.291	703.235
196.373	14.003	926.999	702.316
197.388	14.122	926.514	702.391
198.402	14.177	926.115	702.257
199.417	14.316	925.223	702.107
200.432	14.275	924.865	701.599
201.446	14.368	924.349	701.535
202.461	14.546	923.735	701.757
203.475	14.451	923.379	701.026
204.490	14.461	923.035	700.743
205.504	14.327	921.905	699.260
206.519	14.407	920.756	698.665
207.534	14.435	920.471	698.503
208.548	14.460	919.233	697.607
209.563	14.335	919.094	696.915
210.577	14.430	918.365	696.698
211.592	14.335	917.782	695.799
212.607	14.556	917.109	696.147
213.621	14.436	916.540	695.155
214.636	14.454	916.125	694.851
215.650	14.636	915.078	694.754
216.665	14.525	914.757	693.988
217.680	14.476	914.028	693.169
218.694	14.633	913.503	693.362
219.709	14.625	913.025	692.904
220.723	14.488	912.614	691.965
221.738	14.570	911.414	691.333
222.753	14.570	911.147	691.069
223.767	14.574	910.404	690.459
224.782	14.569	909.365	689.593
225.796	14.558	908.900	689.131
226.811	14.675	908.177	689.006
227.826	14.724	907.035	688.280
228.840	14.668	906.652	687.699
229.855	14.761	905.821	687.388
230.869	14.672	905.205	686.497
231.884	14.677	904.481	685.908
232.899	14.685	903.830	685.383
233.913	14.624	903.337	684.700
234.928	14.681	902.674	684.370
235.942	14.681	901.732	683.593
236.957	14.583	901.149	682.693
237.972	14.696	900.312	682.460
238.986	14.640	900.002	681.935
240.001	14.724	899.272	681.664
241.015	14.782	898.666	681.383
242.030	14.721	897.834	680.440
243.045	14.828	897.030	680.208
244.059	14.856	896.465	679.832
245.074	14.849	895.880	679.301
246.088	14.861	895.128	678.718
247.103	15.006	894.472	678.749
248.117	14.924	893.918	677.937
249.132	14.835	893.231	676.995
250.147	15.034	892.406	677.115
251.161	15.028	891.825	676.591
252.176	15.113	891.466	676.603
253.190	15.090	891.010	676.102
254.205	15.095	890.284	675.515
255.220	15.205	889.448	675.263
256.234	15.118	889.092	674.581
257.249	15.397	887.975	674.797
258.263	15.222	887.728	673.846
259.278	15.155	887.432	673.291
260.293	15.275	886.883	673.298
261.307	15.356	886.389	673.188
262.322	15.355	885.471	672.426
263.336	15.323	884.779	671.715
264.351	15.369	884.241	671.431
265.366	15.473	883.503	671.225
266.380	15.460	882.695	670.500
267.395	15.296	882.653	669.754
268.409	15.411	881.722	669.448
269.424	15.361	881.105	668.723
270.439	15.459	880.476	668.575
271.453	15.433	879.167	667.420
272.468	15.516	878.148	666.915
273.482	15.444	878.029	666.481
274.497	15.418	877.495	665.913
275.512	15.516	877.014	665.878
276.526	15.483	876.040	664.947
277.541	15.339	875.949	664.249
278.555	15.531	874.875	664.138
279.570	15.625	874.143	663.895
280.585	15.577	873.824	663.402
281.599	15.548	873.278	662.815
282.614	15.714	872.319	662.682
283.628	15.628	871.771	661.867
284.643	15.612	871.446	661.502
285.657	15.612	871.048	661.142
286.672	15.632	870.297	660.592
287.687	15.658	869.656	660.148
288.701	15.646	869.485	659.913
289.716	15.673	868.864	659.487
290.730	15.772	867.882	659.071
291.745	15.732	867.579	658.629
292.760	15.789	866.544	658.006
293.774	15.778	866.338	657.750
294.789	15.826	865.499	657.243
295.803	15.797	864.876	656.599
296.818	15.946	864.192	656.599
297.833	15.861	863.618	655.775
298.847	15.752	863.039	654.852
299.862	15.821	862.375	654.561
300.876	15.773	861.565	653.702
301.891	15.959	860.499	653.557
302.906	15.858	860.204	652.883
303.920	15.950	859.506	652.649
304.935	15.890	858.993	651.970
305.949	16.027	858.260	651.888
306.964	16.116	857.602	651.672
307.979	16.158	857.097	651.394
308.993	15.983	856.789	650.428
310.008	16.073	855.867	650.017
311.022	16.170	855.371	649.955
312.037	16.193	854.849	649.592
313.052	16.078	854.491	648.817
314.066	16.059	853.911	648.246
315.081	15.999	853.024	647.285
316.095	16.017	852.983	647.266
317.110	16.032	852.547	646.935
318.125	16.017	851.348	645.911
319.139	16.061	851.033	645.783
320.154	16.071	850.816	645.601
321.168	16.143	849.998	645.197
322.183	16.094	849.566	644.627
323.197	16.225	848.937	644.592
324.212	16.218	848.197	643.948
325.227	16.125	848.116	643.473
326.241	16.018	847.811	642.776
327.256	16.185	847.097	642.814
328.270	16.247	846.278	642.372
329.285	16.187	845.736	641.678
330.300	16.160	845.023	640.976
331.314	16.219	844.753	640.938
332.329	16.148	843.908	639.973
333.343	16.329	843.056	639.953
334.358	16.230	842.744	639.285
335.373	16.354	842.321	639.379
336.387	16.238	841.437	638.210
337.402	16.298	841.176	638.184
338.416	16.421	840.357	637.973
339.431	16.489	840.039	637.929
340.446	16.549	839.512	637.699
341.460	16.564	838.450	636.892
342.475	16.515	837.944	636.269
343.489	16.618	837.464	636.233
344.504	16.499	837.217	635.545
345.519	16.707	836.602	635.800
346.533	16.680	835.925	635.130
347.548	16.583	835.861	634.659
348.562	16.611	835.211	634.214
349.577	16.644	834.439	633.696
350.592	16.648	833.965	633.294
351.606	16.529	833.686	632.583
352.621	16.523	833.215	632.146
353.635	16.720	832.614	632.370
354.650	16.683	832.327	631.958
355.665	16.451	832.228	630.960
356.679	16.620	831.466	630.957
357.694	16.793	830.612	630.900
358.708	16.862	830.022	630.651
359.723	16.688	829.809	629.785
360.738	16.750	829.075	629.405
361.752	16.758	828.765	629.142
362.767	16.713	828.173	628.472
363.781	16.846	827.511	628.406
364.796	16.827	827.186	628.032
365.810	16.723	827.055	627.493
366.825	16.905	826.474	627.669
367.840	16.895	826.083	627.282
368.854	17.000	825.460	627.141
369.869	17.072	824.856	626.893
370.883	17.014	824.251	626.163
371.898	16.960	824.007	625.721
372.913	17.170	823.062	625.723
373.927	17.102	822.498	624.987
374.942	17.156	821.948	624.714
375.956	17.000	821.708	623.903
376.971	17.134	820.747	623.609
377.986	17.150	819.994	623.042
379.000	17.142	819.654	622.697
380.015	17.282	818.957	622.628
381.029	17.233	818.879	622.335
382.044	17.187	818.581	621.885
383.059	17.315	817.701	621.626
384.073	17.178	817.171	620.671
385.088	17.256	816.810	620.626
386.102	17.104	816.079	619.459
387.117	17.192	815.502	619.289
388.132	17.260	815.115	619.185
389.146	17.206	814.851	618.733
390.161	17.407	814.422	619.087
391.175	17.249	814.057	618.178
392.190	17.236	813.664	617.778
393.205	17.314	813.175	617.637
394.219	17.195	812.803	616.867
395.234	17.344	811.870	616.644
396.248	17.124	811.615	615.600
397.263	17.386	810.895	615.948
398.278	17.205	810.872	615.220
399.292	17.280	810.321	615.018
400.307	17.148	810.242	614.428
401.321	17.306	809.597	614.455
402.336	17.322	809.299	614.232
403.350	17.168	808.967	613.367
404.365	17.341	808.156	613.325
405.380	17.457	807.655	613.308
406.394	17.521	806.997	612.984
407.409	17.461	806.758	612.532
408.423	17.530	806.407	612.459
409.438	17.562	805.803	612.063
410.453	17.722	805.224	612.141
411.467	17.570	804.697	611.142
412.482	17.808	804.277	611.621
413.496	17.725	803.985	611.049
414.511	17.599	803.655	610.293
415.526	17.739	803.079	610.303
416.540	17.680	802.784	609.814
417.555	17.733	802.279	609.564
418.569	17.847	801.934	609.655
419.584	17.711	801.416	608.722
420.599	17.679	801.005	608.242
421.613	105.253	1285.385	1448.531
422.628	90.480	1355.943	1448.635
