DTS Sentinel unit serial number:	SN413079Multiplexer serial number:	ORYXHardware model number:	OX4-SRSoftware version number:	ORYX F/W v4.00 Oryx Data Collector v3.7.2.0data status	okinstallation	princeton_trtdifferential loss correction	single-endedforward channel	channel 3reverse channel	N/Adate	2019/09/15time	07:36:35forward acquisition time	60.00reverse acquisition time	0.00gamma	496.2192k internal	0.2324k external	0.2324temperature offset calibration	0.9985default loss term (dB/km)	0.3790temperature slope calibration	1.0000multiplexer offset coefficient	1.0000multiplexer slope coefficient	1.0000fibre end	0.00T internal ref (°C)	30.62T ext. ref 1 (°C)	4.99T ext. ref 2 (°C)	25.42length (m)	temperature (°C)	Stokes	anti-Stokes-747.200	-188.042	-0.228	-0.003
-746.185	258.193	-0.211	0.367
-745.171	-30.142	-0.148	0.085
-744.156	-19.847	-0.415	0.259
-743.142	566.451	0.040	0.098
-742.127	23.357	-0.127	-0.105
-741.112	-200.000	0.010	0.051
-740.098	-116.812	-0.290	0.054
-739.083	800.000	-0.059	0.169
-738.069	32.712	-0.143	0.124
-737.054	239.319	0.115	0.192
-736.039	-200.000	0.027	-0.380
-735.025	61.313	-0.061	0.061
-734.010	50.720	-0.033	0.032
-732.996	-147.378	-0.451	0.039
-731.981	68.593	-0.151	-0.157
-730.966	111.795	-0.169	-0.206
-729.952	-23.542	-0.376	0.227
-728.937	-111.477	-0.230	0.047
-727.923	95.186	0.078	-0.089
-726.908	164.820	-0.131	-0.186
-725.894	-16.729	-0.170	0.109
-724.879	70.358	-0.071	0.074
-723.864	-94.374	-0.134	0.037
-722.850	88.178	-0.290	-0.324
-721.835	-194.934	-0.264	-0.002
-720.821	-83.632	-0.177	0.057
-719.806	800.000	0.062	-0.206
-718.791	-79.930	-0.120	0.041
-717.777	-12.762	0.093	0.061
-716.762	-154.077	0.236	0.016
-715.748	-99.012	0.425	0.109
-714.733	-143.587	0.260	-0.025
-713.718	-120.170	0.356	0.061
-712.704	-200.000	-0.020	-0.234
-711.689	182.290	-0.042	-0.063
-710.675	-43.656	-0.262	0.133
-709.660	256.851	-0.150	-0.259
-708.645	800.000	0.036	0.122
-707.631	-14.469	0.093	0.060
-706.616	-87.943	-0.318	-0.096
-705.602	-120.397	-0.322	0.055
-704.587	-200.000	0.024	0.157
-703.572	-3.034	0.048	-0.034
-702.558	-200.000	-0.001	-0.076
-701.543	800.000	0.030	-0.109
-700.529	800.000	0.148	0.424
-699.514	800.000	0.053	-0.213
-698.499	-166.822	-0.275	-0.011
-697.485	-171.631	-0.094	0.003
-696.470	-91.469	-0.333	-0.096
-695.456	797.571	0.063	-0.175
-694.441	-143.898	-0.272	0.026
-693.426	-50.060	0.072	-0.035
-692.412	309.968	0.159	-0.299
-691.397	310.608	-0.071	-0.135
-690.383	-182.535	-0.137	0.003
-689.368	18.723	0.342	0.275
-688.354	-200.000	-0.045	-0.209
-687.339	-200.000	-0.015	-0.267
-686.324	356.476	-0.072	-0.144
-685.310	-200.000	0.013	0.282
-684.295	-200.000	0.004	0.065
-683.281	324.634	-0.016	0.031
-682.266	-8.510	0.269	0.182
-681.251	800.000	0.021	0.088
-680.237	-200.000	-0.041	-0.367
-679.222	-55.444	-0.136	-0.061
-678.208	210.368	0.084	0.133
-677.193	-76.293	-0.089	-0.031
-676.178	-83.572	0.139	0.045
-675.164	-31.532	-0.216	-0.122
-674.149	49.863	-0.160	0.152
-673.135	640.885	-0.115	-0.295
-672.120	-200.000	0.003	0.258
-671.105	-130.071	-0.162	0.022
-670.091	-200.000	0.008	-0.282
-669.076	719.178	0.028	-0.075
-668.062	-36.228	0.083	0.045
-667.047	267.670	-0.117	-0.206
-666.032	722.530	0.127	-0.340
-665.018	153.404	-0.155	-0.213
-664.003	186.577	-0.074	-0.112
-662.989	27.936	0.121	0.102
-661.974	446.683	-0.155	0.343
-660.959	353.123	-0.025	-0.050
-659.945	-17.183	-0.121	-0.077
-658.930	-57.044	-0.318	-0.141
-657.916	95.641	0.127	-0.146
-656.901	-140.883	-0.408	-0.042
-655.886	-106.654	0.245	-0.055
-654.872	-200.000	-0.055	-0.286
-653.857	-200.000	-0.067	0.335
-652.843	21.438	0.076	-0.062
-651.828	102.583	0.248	-0.292
-650.814	800.000	-0.065	-0.190
-649.799	207.159	0.158	0.248
-648.784	113.408	-0.312	-0.380
-647.770	778.407	0.063	-0.174
-646.755	147.149	0.074	0.100
-645.741	-45.614	0.249	0.124
-644.726	-154.529	0.188	0.013
-643.711	18.876	0.196	0.158
-642.697	-112.749	0.281	-0.056
-641.682	-51.511	0.143	0.067
-640.668	800.000	-0.031	-0.134
-639.653	-120.691	-0.088	-0.015
-638.638	-97.891	-0.236	-0.061
-637.624	-45.952	0.308	-0.153
-636.609	55.711	-0.122	-0.119
-635.595	201.127	-0.039	0.060
-634.580	-200.000	0.005	0.210
-633.565	390.720	0.046	-0.097
-632.551	225.378	0.079	0.128
-631.536	-200.000	0.005	-0.157
-630.522	-87.905	-0.308	-0.093
-629.507	633.161	-0.104	-0.265
-628.492	0.914	0.211	-0.152
-627.478	-200.000	0.015	-0.086
-626.463	24.213	0.363	0.301
-625.449	-122.695	0.145	-0.024
-624.434	545.336	0.073	-0.174
-623.419	800.000	-0.053	0.206
-622.405	-71.505	-0.395	-0.149
-621.390	-149.597	0.122	0.010
-620.376	800.000	0.081	-0.266
-619.361	-18.906	-0.171	0.107
-618.346	800.000	-0.063	0.226
-617.332	800.000	0.082	0.236
-616.317	29.147	0.251	0.214
-615.303	-9.729	0.100	-0.067
-614.288	-98.036	-0.230	-0.059
-613.273	456.936	0.148	-0.330
-612.259	800.000	0.089	-0.254
-611.244	800.000	-0.055	-0.209
-610.230	18.692	0.204	-0.164
-609.215	-20.524	-0.356	-0.220
-608.201	-60.993	0.090	-0.038
-607.186	-200.000	-0.043	-0.421
-606.171	538.402	0.125	-0.299
-605.157	800.000	-0.074	-0.297
-604.142	20.596	-0.165	-0.134
-603.128	142.645	0.179	0.239
-602.113	216.364	-0.156	-0.249
-601.098	-13.863	0.209	-0.135
-600.084	126.352	-0.228	0.290
-599.069	53.262	-0.278	0.267
-598.055	20.397	0.080	0.065
-597.040	69.969	0.079	-0.082
-596.025	169.258	0.134	-0.193
-595.011	30.113	-0.142	-0.122
-593.996	-131.943	-0.192	0.025
-592.982	-116.690	-0.286	0.053
-591.967	345.622	0.106	0.210
-590.952	-11.061	0.035	-0.023
-589.938	800.000	0.065	0.248
-588.923	-73.634	0.207	-0.076
-587.909	18.868	0.197	-0.158
-586.894	-200.000	0.019	0.191
-585.879	-2.309	-0.213	-0.150
-584.865	800.000	-0.107	-0.300
-583.850	-200.000	0.009	-0.074
-582.836	-122.150	-0.258	-0.042
-581.821	-200.000	-0.006	0.082
-580.806	72.478	0.129	-0.135
-579.792	-12.211	0.085	0.056
-578.777	-148.262	-0.061	0.005
-577.763	-29.180	-0.645	-0.371
-576.748	-34.837	0.196	0.107
-575.733	-62.607	0.437	0.182
-574.719	-27.400	0.037	0.022
-573.704	-53.800	0.201	0.092
-572.690	-42.126	-0.088	0.045
-571.675	-106.724	-0.091	0.020
-570.661	183.410	-0.072	-0.106
-569.646	245.101	-0.160	0.270
-568.631	-134.713	-0.038	-0.005
-567.617	557.287	0.066	0.160
-566.602	-47.366	-0.247	0.121
-565.588	800.000	-0.063	0.174
-564.573	17.862	0.175	-0.140
-563.558	-200.000	-0.040	-0.212
-562.544	197.374	0.179	-0.274
-561.529	800.000	0.135	-0.415
-560.515	-18.881	-0.169	0.105
-559.500	-44.484	0.331	-0.166
-558.485	629.984	0.117	0.296
-557.471	81.864	0.204	-0.221
-556.456	-159.978	0.070	-0.004
-555.442	-200.000	-0.015	-0.298
-554.427	-118.484	0.197	0.035
-553.412	800.000	-0.068	0.189
-552.398	-84.561	-0.123	-0.039
-551.383	345.305	0.086	-0.169
-550.369	-65.290	0.086	-0.035
-549.354	588.603	-0.054	-0.134
-548.339	526.012	0.094	0.221
-547.325	-174.418	-0.186	0.005
-546.310	-200.000	0.015	-0.326
-545.296	327.789	-0.119	-0.228
-544.281	609.263	-0.036	-0.090
-543.266	-6.892	-0.131	-0.089
-542.252	-69.017	-0.099	-0.038
-541.237	457.019	0.055	0.123
-540.223	135.904	0.171	0.223
-539.208	196.442	-0.108	0.165
-538.193	-200.000	0.025	0.139
-537.179	-93.243	-0.312	0.087
-536.164	800.000	0.012	-0.051
-535.150	-200.000	-0.020	0.116
-534.135	-122.347	0.154	0.025
-533.121	24.709	-0.187	0.155
-532.106	56.524	0.057	-0.056
-531.091	-23.614	-0.219	0.132
-530.077	800.000	-0.032	-0.091
-529.062	-1.383	0.190	0.134
-528.048	-117.814	0.318	-0.057
-527.033	-73.890	-0.097	0.035
-526.018	800.000	-0.034	-0.129
-525.004	-125.042	-0.524	-0.081
-523.989	-200.000	0.003	-0.202
-522.975	-26.267	-0.280	-0.164
-521.960	-5.038	0.127	0.087
-520.945	-200.000	-0.010	-0.073
-519.931	800.000	-0.091	0.362
-518.916	800.000	-0.131	-0.382
-517.902	-144.812	-0.231	-0.021
-516.887	-200.000	0.018	0.220
-515.872	127.738	0.122	-0.156
-514.858	-200.000	-0.036	0.198
-513.843	-200.000	-0.023	0.184
-512.829	5.046	0.094	0.069
-511.814	-200.000	-0.017	0.215
-510.799	-98.283	0.306	0.079
-509.785	-200.000	0.001	0.223
-508.770	133.680	-0.248	-0.321
-507.756	-200.000	0.008	0.164
-506.741	-36.955	0.282	0.151
-505.726	119.036	0.154	-0.191
-504.712	-200.000	-0.007	-0.119
-503.697	-45.592	0.032	-0.016
-502.683	102.265	-0.126	-0.147
-501.668	259.858	-0.154	0.266
-500.653	194.318	0.130	0.196
-499.639	-200.000	0.014	-0.076
-498.624	63.234	0.079	-0.079
-497.610	566.361	-0.095	-0.231
-496.595	-200.000	0.023	-0.179
-495.581	721.628	0.049	-0.131
-494.566	245.668	0.129	-0.218
-493.551	-120.555	-0.300	0.051
-492.537	-200.000	0.046	0.267
-491.522	-200.000	0.044	0.253
-490.508	756.509	0.159	0.429
-489.493	-59.182	-0.138	-0.059
-488.478	-200.000	0.019	-0.139
-487.464	-78.031	-0.255	0.088
-486.449	-112.777	0.221	0.044
-485.435	800.000	-0.064	0.218
-484.420	-118.891	0.278	0.049
-483.405	-101.980	0.129	0.031
-482.391	252.202	-0.157	0.267
-481.376	-200.000	0.007	0.155
-480.362	26.432	-0.194	-0.162
-479.347	-43.085	0.221	0.112
-478.332	26.755	-0.236	0.198
-477.318	203.448	-0.047	0.072
-476.303	-200.000	-0.009	0.081
-475.289	526.843	0.023	0.054
-474.274	-200.000	0.009	-0.123
-473.259	-200.000	-0.066	0.358
-472.245	71.700	0.170	0.176
-471.230	266.675	0.073	0.128
-470.216	-200.000	-0.016	-0.395
-469.201	-135.971	0.184	-0.022
-468.186	800.000	0.073	0.204
-467.172	323.057	0.099	-0.188
-466.157	-54.715	-0.147	0.066
-465.143	-129.181	-0.218	-0.030
-464.128	49.852	0.320	0.301
-463.113	165.137	-0.059	0.083
-462.099	800.000	0.018	0.049
-461.084	112.511	0.160	0.194
-460.070	480.484	0.129	-0.293
-459.055	-32.556	0.034	-0.019
-458.040	-115.450	0.083	-0.016
-457.026	800.000	-0.074	0.214
-456.011	70.343	-0.056	0.058
-454.997	200.421	0.116	0.179
-453.982	233.561	-0.065	-0.106
-452.968	-200.000	0.038	0.297
-451.953	800.000	-0.061	0.219
-450.938	3.830	-0.103	0.075
-449.924	8.957	-0.235	0.177
-448.909	-100.379	-0.142	-0.035
-447.895	268.172	-0.077	0.135
-446.880	-62.874	0.164	0.068
-445.865	41.689	-0.275	-0.249
-444.851	800.000	0.063	-0.224
-443.836	-169.195	-0.213	0.008
-442.822	-43.464	0.172	0.087
-441.807	800.000	0.100	-0.311
-440.792	370.203	-0.093	0.189
-439.778	306.691	0.115	0.213
-438.763	-92.161	0.168	0.047
-437.749	-59.529	0.125	0.054
-436.734	-200.000	-0.001	-0.269
-435.719	-109.901	-0.272	0.057
-434.705	-176.937	0.342	-0.009
-433.690	-200.000	0.058	-0.300
-432.676	134.110	-0.069	0.089
-431.661	-200.000	-0.030	0.161
-430.646	17.105	0.216	0.171
-429.632	-1.243	-0.186	-0.131
-428.617	159.165	-0.105	-0.145
-427.603	108.533	0.051	-0.060
-426.588	392.408	-0.174	0.361
-425.573	98.387	0.236	0.271
-424.559	98.214	0.073	-0.084
-423.544	-4.339	0.203	0.140
-422.530	-200.000	0.026	-0.162
-421.515	-61.299	-0.096	-0.040
-420.500	-158.703	0.163	-0.009
-419.486	59.161	-0.118	0.116
-418.471	-200.000	-0.001	-0.012
-417.457	-200.000	-0.009	-0.165
-416.442	-126.299	0.529	-0.079
-415.428	-76.155	-0.267	0.094
-414.413	-142.102	-0.124	0.012
-413.398	-2.924	0.346	0.241
-412.384	800.000	0.072	-0.295
-411.369	-53.193	-0.122	0.056
-410.355	-104.051	0.249	-0.058
-409.340	-78.707	0.193	-0.066
-408.325	271.954	0.149	-0.262
-407.311	676.188	0.041	-0.107
-406.296	170.583	-0.219	0.312
-405.282	0.261	0.178	0.127
-404.267	190.704	-0.186	0.278
-403.252	-119.446	-0.058	0.010
-402.238	800.000	-0.102	-0.307
-401.223	20.387	-0.382	-0.307
-400.209	-200.000	0.030	-0.232
-399.194	800.000	0.054	-0.195
-398.179	-104.768	-0.129	-0.030
-397.165	135.015	0.068	0.088
-396.150	3.176	-0.075	-0.054
-395.136	550.541	-0.018	-0.042
-394.121	49.226	-0.252	0.236
-393.106	800.000	-0.072	0.215
-392.092	-200.000	-0.262	-0.000
-391.077	12.104	-0.199	-0.152
-390.063	-200.000	-0.007	-0.176
-389.048	-200.000	0.000	0.054
-388.033	800.000	-0.085	-0.238
-387.019	206.734	0.201	-0.311
-386.004	800.000	-0.082	-0.318
-384.990	-55.089	0.273	-0.122
-383.975	-113.479	0.172	-0.034
-382.960	340.291	-0.234	0.454
-381.946	-200.000	-0.000	-0.032
-380.931	-159.299	0.144	0.008
-379.917	271.779	-0.202	0.354
-378.902	702.374	-0.120	-0.315
-377.888	-140.468	0.126	0.013
-376.873	170.136	-0.171	0.243
-375.858	-66.247	0.104	-0.041
-374.844	-58.864	0.238	0.102
-373.829	-200.000	-0.004	-0.182
-372.815	800.000	-0.074	0.287
-371.800	-200.000	-0.007	-0.151
-370.785	-130.291	0.103	0.014
-369.771	-10.491	0.079	-0.052
-368.756	-52.352	-0.125	-0.058
-367.742	-121.172	0.210	0.035
-366.727	-200.000	0.021	-0.188
-365.712	476.915	-0.029	0.065
-364.698	-200.000	0.018	-0.215
-363.683	558.674	-0.058	0.139
-362.669	-172.297	0.057	0.002
-361.654	-200.000	0.040	-0.270
-360.639	169.913	-0.077	0.109
-359.625	-34.161	-0.194	-0.106
-358.610	-142.396	0.491	0.048
-357.596	230.722	-0.074	0.121
-356.581	12.108	0.184	-0.140
-355.566	-66.641	-0.430	0.170
-354.552	800.000	-0.038	0.144
-353.537	-152.123	0.275	0.020
-352.523	49.790	-0.161	-0.151
-351.508	-200.000	0.039	0.226
-350.493	108.325	0.133	0.157
-349.479	-142.478	0.176	-0.017
-348.464	-61.736	0.217	-0.090
-347.450	435.179	0.027	0.059
-346.435	-156.929	0.207	-0.013
-345.420	800.000	-0.055	0.184
-344.406	-69.425	-0.138	0.053
-343.391	-94.565	-0.326	0.088
-342.377	-22.963	-0.313	-0.188
-341.362	-154.188	-0.101	-0.007
-340.348	-200.000	-0.039	0.608
-339.333	53.950	-0.233	0.223
-338.318	-200.000	0.093	0.602
-337.304	-13.624	-0.137	0.088
-336.289	192.653	0.082	0.123
-335.275	-39.320	-0.160	-0.083
-334.260	800.000	-0.046	0.179
-333.245	91.006	-0.185	0.206
-332.231	234.987	-0.089	-0.146
-331.216	103.303	-0.159	-0.186
-330.202	-108.654	0.043	0.009
-329.187	-121.665	0.232	0.038
-328.172	16.878	0.039	0.031
-327.158	313.420	0.103	-0.192
-326.143	800.000	0.147	-0.455
-325.129	-95.425	0.194	0.052
-324.114	-6.537	-0.101	0.068
-323.099	-130.292	0.347	-0.047
-322.085	800.000	-0.024	0.074
-321.070	-69.912	0.322	0.122
-320.056	22.707	0.201	-0.164
-319.041	269.065	-0.226	-0.394
-318.026	-81.019	-0.456	-0.150
-317.012	-53.431	0.016	0.007
-315.997	-200.000	-0.090	-0.393
-314.983	-198.184	0.127	-0.001
-313.968	380.097	0.177	-0.360
-312.953	-128.135	0.159	-0.023
-311.939	-68.593	0.430	0.165
-310.924	205.818	-0.074	-0.115
-309.910	-111.660	-0.066	-0.013
-308.895	-200.000	-0.001	0.161
-307.880	178.868	0.214	-0.310
-306.866	-109.803	-0.277	-0.058
-305.851	72.273	0.164	-0.169
-304.837	-200.000	0.002	-0.158
-303.822	-200.000	-0.022	0.315
-302.807	-79.741	0.225	-0.075
-301.793	-160.499	0.386	0.020
-300.778	274.627	0.073	0.128
-299.764	27.586	0.145	0.121
-298.749	195.141	0.182	-0.273
-297.735	-64.162	0.096	-0.039
-296.720	-87.024	0.070	0.021
-295.705	-63.035	0.354	0.145
-294.691	39.226	-0.257	-0.228
-293.676	2.355	-0.261	-0.187
-292.662	-46.051	-0.244	-0.119
-291.647	-102.451	0.529	-0.126
-290.632	-33.456	-0.080	-0.044
-289.618	-87.756	0.227	0.068
-288.603	-38.323	-0.193	0.101
-287.589	-169.132	-0.305	-0.011
-286.574	-143.203	-0.281	-0.027
-285.559	-104.171	-0.244	-0.056
-284.545	-100.288	0.378	-0.093
-283.530	-65.805	-0.331	-0.132
-282.516	-15.023	0.317	-0.202
-281.501	-200.000	-0.033	-0.288
-280.486	624.156	-0.196	0.489
-279.472	524.626	0.083	-0.193
-278.457	-85.223	0.128	0.040
-277.443	92.045	0.179	-0.200
-276.428	-200.000	-0.024	0.289
-275.413	154.347	0.106	0.144
-274.399	637.207	-0.049	0.123
-273.384	153.797	-0.105	0.142
-272.370	-200.000	0.001	-0.050
-271.355	1.748	-0.252	0.180
-270.340	38.278	0.122	0.108
-269.326	-17.085	0.054	0.034
-268.311	156.767	-0.219	-0.300
-267.297	97.159	0.165	-0.188
-266.282	464.138	-0.100	-0.221
-265.267	-22.573	-0.339	0.203
-264.253	61.929	-0.173	-0.171
-263.238	10.688	-0.146	0.111
-262.224	-67.227	0.162	0.063
-261.209	623.316	0.144	0.359
-260.195	-200.000	0.029	-0.133
-259.180	-93.559	-0.161	0.044
-258.165	-51.703	-0.166	-0.077
-257.151	265.464	-0.243	-0.420
-256.136	-85.741	-0.102	0.031
-255.122	9.186	-0.254	-0.190
-254.107	173.421	-0.157	0.224
-253.092	45.386	-0.144	0.132
-252.078	-200.000	-0.028	-0.124
-251.063	112.418	0.104	0.124
-250.049	-200.000	0.023	-0.182
-249.034	-93.335	0.166	-0.046
-248.019	199.935	0.123	-0.187
-247.005	-200.000	-0.029	-0.176
-245.990	132.492	0.042	0.053
-244.976	110.665	-0.045	-0.053
-243.961	-200.000	0.018	0.274
-242.946	-20.003	-0.257	-0.157
-241.932	146.728	-0.027	-0.036
-240.917	-200.000	0.007	-0.303
-239.903	311.408	-0.170	-0.316
-238.888	-104.386	0.249	0.057
-237.873	142.118	-0.176	-0.231
-236.859	79.064	-0.159	0.168
-235.844	356.391	0.053	-0.104
-234.830	-175.376	0.088	0.002
-233.815	-60.803	0.262	0.110
-232.800	-200.000	0.042	0.307
-231.786	275.678	0.096	0.169
-230.771	-132.524	-0.163	-0.021
-229.757	800.000	0.030	0.108
-228.742	-2.369	-0.028	0.019
-227.727	-22.650	0.211	0.126
-226.713	-200.000	0.006	-0.290
-225.698	-200.000	-0.027	-0.270
-224.684	800.000	-0.099	-0.312
-223.669	-153.233	-0.135	0.009
-222.655	303.998	0.051	-0.093
-221.640	342.515	0.046	0.090
-220.625	-29.266	0.084	0.048
-219.611	-200.000	-0.004	-0.184
-218.596	-200.000	-0.007	0.090
-217.582	-81.834	-0.186	0.060
-216.567	119.243	0.128	-0.157
-215.552	-107.746	-0.182	0.039
-214.538	-168.340	0.106	0.004
-213.523	-78.763	-0.421	-0.142
-212.509	5.856	0.015	0.011
-211.494	-52.141	0.210	0.096
-210.479	-38.934	-0.246	-0.128
-209.465	792.337	0.043	-0.117
-208.450	71.808	-0.053	0.055
-207.436	-52.917	-0.219	-0.100
-206.421	276.316	-0.063	0.110
-205.406	107.985	-0.059	0.070
-204.392	247.584	0.043	0.072
-203.377	-200.000	0.013	-0.164
-202.363	-69.039	-0.102	-0.039
-201.348	425.016	-0.138	0.293
-200.333	-95.061	-0.106	0.028
-199.319	207.081	-0.326	0.502
-198.304	800.000	0.031	-0.134
-197.290	68.609	-0.132	-0.134
-196.275	-200.000	-0.023	0.223
-195.260	-60.432	0.088	-0.037
-194.246	695.674	-0.151	0.392
-193.231	-42.835	0.077	0.039
-192.217	-200.000	0.039	0.610
-191.202	-200.000	0.247	0.001
-190.187	238.536	0.172	-0.282
-189.173	800.000	-0.115	-0.450
-188.158	92.180	-0.033	0.037
-187.144	24.616	0.027	0.022
-186.129	-121.411	-0.257	-0.042
-185.114	-200.000	0.003	-0.225
-184.100	800.000	-0.012	0.053
-183.085	-129.926	0.203	0.027
-182.071	-20.288	-0.128	-0.078
-181.056	33.862	-0.192	-0.165
-180.042	-114.091	-0.247	-0.047
-179.027	-200.000	0.017	0.116
-178.012	-52.800	0.321	0.146
-176.998	-118.139	0.210	0.037
-175.983	-200.000	0.042	0.247
-174.969	351.851	-0.099	0.193
-173.954	31.065	0.144	0.121
-172.939	595.303	-0.073	0.178
-171.925	268.776	-0.090	0.156
-170.910	160.860	-0.125	-0.172
-169.896	-17.699	0.073	-0.045
-168.881	-200.000	0.014	0.273
-167.866	175.812	0.270	0.386
-166.852	34.879	0.276	0.238
-165.837	-2.094	0.202	0.140
-164.823	-200.000	-0.039	0.203
-163.808	144.420	0.067	0.088
-162.793	30.739	0.300	0.253
-161.779	355.780	-0.089	-0.175
-160.764	-115.956	-0.066	0.012
-159.750	5.850	0.233	0.170
-158.735	-200.000	-0.022	-0.372
-157.720	345.644	-0.056	0.109
-156.706	-200.000	-0.016	0.085
-155.691	-2.706	-0.093	0.064
-154.677	427.824	-0.031	-0.066
-153.662	800.000	-0.020	-0.078
-152.647	-2.811	-0.388	0.267
-151.633	-200.000	-0.011	0.136
-150.618	5.335	0.086	-0.063
-149.604	-102.366	0.319	-0.075
-148.589	-81.264	0.088	0.028
-147.574	22.561	-0.274	-0.221
-146.560	-24.227	-0.183	0.108
-145.545	708.579	-0.041	0.108
-144.531	-15.209	-0.235	-0.149
-143.516	115.046	0.273	-0.328
-142.502	-8.008	0.166	-0.111
-141.487	251.216	-0.089	-0.150
-140.472	-113.989	-0.256	-0.049
-139.458	16.213	-0.251	-0.195
-138.443	-167.655	0.250	-0.010
-137.429	-113.534	-0.251	0.048
-136.414	123.762	0.237	0.293
-135.399	-40.858	-0.141	0.072
-134.385	68.673	-0.014	-0.014
-133.370	24.350	0.067	0.054
-132.356	7.937	-0.016	-0.012
-131.341	800.000	0.082	0.317
-130.326	800.000	0.082	0.335
-129.312	248.796	0.119	-0.198
-128.297	-155.864	-0.163	0.010
-127.283	-200.000	0.006	-0.283
-126.268	-49.865	-0.119	0.056
-125.253	-200.000	0.003	0.069
-124.239	800.000	0.105	0.295
-123.224	-57.998	0.173	0.074
-122.210	-90.993	-0.304	0.086
-121.195	33.598	0.103	-0.088
-120.180	294.020	-0.142	0.255
-119.166	-200.000	0.009	0.143
-118.151	505.304	0.026	0.060
-117.137	-124.295	0.112	0.017
-116.122	-200.000	-0.009	0.098
-115.107	-76.305	-0.260	0.090
-114.093	-200.000	-0.013	0.121
-113.078	800.000	-0.023	0.089
-112.064	-132.803	-0.246	-0.031
-111.049	-21.636	-0.291	-0.175
-110.034	653.708	0.079	-0.199
-109.020	-158.383	0.098	-0.006
-108.005	247.149	-0.041	-0.068
-106.991	82.764	0.070	-0.075
-105.976	-18.146	-0.180	0.111
-104.962	11.885	-0.155	0.117
-103.947	7.302	0.110	0.081
-102.932	-98.873	-0.233	-0.058
-101.918	-200.000	0.076	0.430
-100.903	-159.212	-0.520	0.029
-99.889	-126.518	0.186	-0.027
-98.874	-200.000	-0.009	0.212
-97.859	-200.000	0.014	0.141
-96.845	-200.000	0.015	0.095
-95.830	10.233	-0.048	-0.036
-94.816	356.811	-0.055	0.108
-93.801	-200.000	0.001	0.165
-92.786	-200.000	-0.020	0.142
-91.772	102.896	0.181	-0.209
-90.757	-33.002	-0.159	-0.087
-89.743	-200.000	0.029	-0.133
-88.728	108.922	-0.294	0.345
-87.713	-58.290	0.204	-0.087
-86.699	131.387	0.157	0.198
-85.684	165.190	0.276	0.383
-84.670	800.000	0.112	0.307
-83.655	-200.000	0.003	0.047
-82.640	82.539	-0.136	-0.146
-81.626	4.934	0.154	-0.111
-80.611	-39.840	-0.110	-0.057
-79.597	800.000	0.013	-0.052
-78.582	133.252	0.143	-0.182
-77.567	-15.596	0.176	0.110
-76.553	25.675	0.289	0.236
-75.538	108.953	-0.122	0.143
-74.524	-38.414	0.062	-0.032
-73.509	-128.616	-0.048	0.007
-72.494	-29.539	-0.282	0.158
-71.480	12.465	-0.075	0.057
-70.465	216.925	-0.131	-0.205
-69.451	-75.189	0.223	-0.078
-68.436	148.331	-0.115	0.153
-67.422	60.518	0.230	0.223
-66.407	166.267	-0.219	-0.305
-65.392	-61.431	-0.163	-0.067
-64.378	-82.540	0.277	-0.088
-63.363	-113.713	0.132	-0.025
-62.349	77.881	-0.187	0.196
-61.334	-5.429	-0.920	-0.621
-60.319	-33.382	0.733	0.398
-59.305	-200.000	-0.205	-0.951
-58.290	269.215	0.723	1.247
-57.276	384.130	0.912	1.846
-56.261	-200.000	103.092	593.864
-55.246	552.938	1436.425	3391.546
-54.232	186.678	2625.713	3841.974
-53.217	116.092	2170.036	2610.770
-52.203	41.460	1697.700	1509.410
-51.188	33.753	1507.049	1287.817
-50.173	31.327	1480.031	1248.492
-49.159	52.104	1533.871	1435.821
-48.144	52.976	1551.089	1457.810
-47.130	34.056	1508.045	1290.517
-46.115	30.871	1493.262	1256.377
-45.100	30.698	1490.010	1252.426
-44.086	30.680	1488.131	1250.674
-43.071	30.656	1485.714	1248.436
-42.057	30.751	1483.633	1247.274
-41.042	30.672	1482.665	1245.882
-40.027	30.645	1481.486	1244.663
-39.013	30.580	1480.236	1243.130
-37.998	30.585	1478.373	1241.549
-36.984	30.551	1477.477	1240.519
-35.969	30.665	1475.692	1239.730
-34.954	30.540	1474.834	1238.128
-33.940	30.700	1473.241	1237.802
-32.925	30.743	1471.496	1236.574
-31.911	30.646	1470.890	1235.375
-30.896	30.651	1469.489	1234.177
-29.881	30.762	1468.195	1233.781
-28.867	30.662	1467.080	1232.134
-27.852	30.720	1465.081	1230.789
-26.838	30.727	1463.841	1229.744
-25.823	30.634	1462.707	1228.129
-24.809	30.655	1460.825	1226.635
-23.794	30.815	1459.054	1226.157
-22.779	30.782	1458.322	1225.275
-21.765	30.649	1457.367	1223.547
-20.750	30.557	1456.850	1222.459
-19.736	30.691	1455.178	1221.891
-18.721	30.606	1454.237	1220.490
-17.706	30.647	1452.757	1219.473
-16.692	30.634	1451.728	1218.473
-15.677	30.594	1450.504	1217.135
-14.663	30.612	1449.561	1216.416
-13.648	30.533	1449.291	1215.623
-12.633	30.631	1447.876	1215.027
-11.619	30.564	1447.177	1213.955
-10.604	30.455	1446.585	1212.702
-9.590	30.603	1445.255	1212.501
-8.575	30.619	1444.605	1212.009
-7.560	30.637	1443.591	1211.230
-6.546	30.486	1443.238	1209.901
-5.531	30.553	1442.036	1209.280
-4.517	30.574	1441.391	1208.830
-3.502	30.547	1440.430	1207.801
-2.487	30.465	1439.522	1206.459
-1.473	30.561	1438.265	1205.981
-0.458	30.594	1436.400	1204.581
0.556	29.653	1427.044	1194.276
1.571	26.683	1402.144	1154.441
2.586	23.321	1343.427	1085.431
3.600	21.622	1263.401	1010.887
4.615	20.274	1217.608	966.652
5.629	17.721	1162.640	909.338
6.644	10.932	1081.241	811.815
7.659	5.846	1043.207	758.642
8.673	5.129	1038.116	751.425
9.688	4.995	1035.414	748.758
10.702	4.931	1033.469	746.979
11.717	4.894	1031.628	745.405
12.731	6.990	1033.214	756.516
13.746	13.359	1042.263	793.723
14.761	18.323	1048.158	822.035
15.775	18.469	1047.242	821.944
16.790	17.642	1044.849	816.033
17.804	16.525	1042.811	809.029
18.819	15.620	1040.891	803.144
19.834	15.089	1039.953	799.813
20.848	14.792	1039.198	797.743
21.863	14.679	1038.143	796.323
22.877	14.437	1037.314	794.467
23.892	14.246	1036.701	793.016
24.907	14.177	1035.822	791.944
25.921	14.123	1035.299	791.220
26.936	14.198	1034.426	790.836
27.950	14.196	1033.438	790.002
28.965	14.178	1032.458	789.100
29.980	14.246	1031.123	788.331
30.994	14.411	1029.787	788.021
32.009	14.552	1028.861	787.905
33.023	14.418	1028.591	786.997
34.038	14.456	1027.783	786.491
35.053	14.362	1026.622	785.087
36.067	14.424	1025.425	784.397
37.082	14.321	1024.474	783.115
38.096	14.448	1023.857	783.172
39.111	14.518	1023.233	782.950
40.126	14.427	1022.165	781.641
41.140	14.314	1021.131	780.251
42.155	14.239	1020.224	779.136
43.169	14.235	1019.062	778.163
44.184	14.047	1018.118	776.494
45.199	14.181	1016.752	776.009
46.213	14.189	1016.015	775.413
47.228	14.111	1015.249	774.396
48.242	14.177	1014.321	773.930
49.257	14.269	1013.430	773.608
50.271	14.254	1012.737	772.940
51.286	14.395	1011.188	772.342
52.301	14.462	1010.830	772.310
53.315	14.173	1010.298	770.500
54.330	14.207	1009.190	769.742
55.344	14.198	1008.506	769.112
56.359	14.173	1006.950	767.744
57.374	14.146	1006.418	767.142
58.388	14.188	1005.538	766.600
59.403	14.121	1004.573	765.486
60.417	14.146	1003.762	764.916
61.432	14.134	1003.250	764.403
62.447	14.238	1002.302	764.089
63.461	14.128	1001.687	763.050
64.476	14.029	1000.795	761.847
65.490	13.981	1000.022	760.971
66.505	13.930	999.391	760.194
67.520	13.988	998.495	759.711
68.534	13.999	997.688	759.075
69.549	14.049	996.982	758.703
70.563	14.096	995.868	757.999
71.578	13.949	996.033	757.391
72.593	14.105	994.506	756.871
73.607	13.965	993.881	755.690
74.622	13.887	992.804	754.452
75.636	13.833	991.873	753.433
76.651	13.989	991.356	753.679
77.666	13.877	990.281	752.289
78.680	13.949	989.562	752.004
79.695	14.020	989.007	751.836
80.709	14.101	988.283	751.583
81.724	14.030	988.021	750.999
82.739	14.019	987.009	750.114
83.753	14.161	986.322	750.163
84.768	14.114	986.148	749.753
85.782	14.245	985.272	749.612
86.797	14.402	984.140	749.390
87.812	14.345	983.501	748.582
88.826	14.294	982.516	747.534
89.841	14.233	981.940	746.758
90.855	14.403	980.783	746.575
91.870	14.269	980.506	745.698
92.884	14.366	980.029	745.703
93.899	14.350	979.089	744.847
94.914	14.448	978.200	744.546
95.928	14.562	977.150	744.188
96.943	14.616	976.460	743.839
97.957	14.448	975.799	742.519
98.972	14.350	975.151	741.525
99.987	14.451	973.972	741.011
101.001	14.417	973.716	740.599
102.016	14.385	973.014	739.860
103.030	14.377	971.878	738.894
104.045	14.506	970.959	738.704
105.060	14.393	970.330	737.660
106.074	14.390	969.223	736.736
107.089	14.289	968.205	735.452
108.103	14.151	967.683	734.382
109.118	14.164	966.478	733.458
110.133	13.977	966.164	732.330
111.147	14.195	964.712	732.125
112.162	14.193	964.051	731.551
113.176	14.140	963.166	730.580
114.191	14.153	962.212	729.852
115.206	14.212	961.761	729.701
116.220	14.238	960.811	729.029
117.235	14.240	960.148	728.473
118.249	14.141	959.176	727.236
119.264	14.144	958.597	726.747
120.279	14.133	957.850	726.068
121.293	14.174	956.868	725.441
122.308	13.992	956.387	724.216
123.322	14.132	955.574	724.147
124.337	14.049	954.366	722.806
125.352	13.969	953.357	721.630
126.366	13.990	952.411	720.940
127.381	14.063	951.234	720.306
128.395	14.082	950.236	719.566
129.410	14.034	949.274	718.567
130.424	14.187	948.335	718.452
131.439	14.175	947.365	717.602
132.454	14.126	946.699	716.823
133.468	14.147	946.253	716.512
134.483	14.098	946.371	716.327
135.497	14.275	944.644	715.721
136.512	14.261	943.789	714.949
137.527	14.149	943.397	714.106
138.541	14.109	942.644	713.302
139.556	14.230	941.722	713.058
140.570	14.265	941.077	712.656
141.585	14.321	940.586	712.462
142.600	14.492	939.620	712.399
143.614	14.427	938.585	711.272
144.629	14.519	938.502	711.538
145.643	14.471	937.531	710.537
146.658	14.368	936.948	709.593
147.673	14.359	936.159	708.893
148.687	14.358	935.292	708.171
149.702	14.263	934.363	706.999
150.716	14.281	933.368	706.263
151.731	14.281	932.793	705.767
152.746	14.133	932.356	704.746
153.760	14.483	930.824	705.005
154.775	14.263	930.870	704.046
155.789	14.381	929.696	703.596
156.804	14.383	928.862	702.910
157.819	14.473	928.058	702.618
158.833	14.472	927.860	702.402
159.848	14.522	926.901	701.826
160.862	14.610	926.234	701.626
161.877	14.574	925.603	700.936
162.892	14.442	924.775	699.694
163.906	14.490	923.507	698.873
164.921	14.311	923.135	697.779
165.935	14.384	921.780	696.998
166.950	14.399	920.975	696.390
167.964	14.588	919.751	696.191
168.979	14.455	919.196	695.157
169.994	14.388	918.325	694.158
171.008	14.285	917.406	692.972
172.023	14.583	916.460	693.435
173.037	14.445	916.210	692.612
174.052	14.629	915.010	692.408
175.067	14.632	914.129	691.691
176.081	14.476	913.895	690.808
177.096	14.416	913.017	689.833
178.110	14.516	911.801	689.268
179.125	14.627	911.056	689.102
180.140	14.400	910.745	687.868
181.154	14.588	909.573	687.697
182.169	14.590	909.352	687.477
183.183	14.659	908.819	687.297
184.198	14.687	908.069	686.786
185.213	14.689	907.385	686.215
186.227	14.637	906.949	685.610
187.242	14.740	906.545	685.667
188.256	14.754	905.681	685.011
189.271	14.901	904.671	684.786
190.286	14.919	904.043	684.326
191.300	14.747	903.090	682.841
192.315	14.456	902.342	681.028
193.329	14.571	901.640	680.904
194.344	14.614	900.519	680.174
195.359	14.620	900.089	679.814
196.373	14.692	899.825	679.849
197.388	14.631	899.740	679.474
198.402	14.818	899.241	679.798
199.417	14.954	898.786	679.947
200.432	14.925	898.502	679.556
201.446	15.101	897.783	679.663
202.461	15.144	897.747	679.752
203.475	15.066	896.820	678.675
204.490	15.160	896.448	678.714
205.504	15.025	895.276	677.221
206.519	14.923	894.856	676.428
207.534	15.003	893.776	675.874
208.548	14.954	893.065	675.079
209.563	15.007	892.327	674.677
210.577	14.881	891.637	673.588
211.592	15.077	891.421	674.153
212.607	15.068	890.971	673.717
213.621	15.106	890.381	673.364
214.636	15.115	889.780	672.887
215.650	15.048	888.794	671.813
216.665	15.057	888.557	671.612
217.680	15.150	887.914	671.437
218.694	15.115	887.552	670.963
219.709	15.229	886.678	670.701
220.723	15.232	886.618	670.608
221.738	15.203	885.801	669.813
222.753	15.133	884.817	668.731
223.767	15.159	884.219	668.323
224.782	15.140	883.504	667.649
225.796	15.248	883.044	667.674
226.811	15.337	882.054	667.220
227.826	15.386	881.413	666.869
228.840	15.324	880.831	666.125
229.855	15.255	880.162	665.286
230.869	15.256	879.655	664.846
231.884	15.387	878.572	664.490
232.899	15.283	877.932	663.533
233.913	15.246	877.627	663.098
234.928	15.104	877.001	662.006
235.942	15.258	875.707	661.578
236.957	15.060	875.662	660.706
237.972	15.174	874.584	660.282
238.986	15.252	874.340	660.346
240.001	15.123	873.658	659.267
241.015	15.236	872.973	659.136
242.030	15.366	872.097	658.926
243.045	15.234	871.675	658.031
244.059	15.364	870.773	657.800
245.074	15.386	870.249	657.434
246.088	15.316	870.123	657.004
247.103	15.405	869.158	656.567
248.117	15.553	868.310	656.445
249.132	15.679	867.707	656.423
250.147	15.730	867.889	656.703
251.161	15.620	867.233	655.721
252.176	15.696	866.827	655.653
253.190	15.864	865.507	655.248
254.205	15.824	865.375	654.937
255.220	15.894	864.422	654.430
256.234	15.854	864.042	653.926
257.249	15.800	863.596	653.323
258.263	16.018	862.640	653.387
259.278	15.877	862.173	652.430
260.293	15.997	861.819	652.567
261.307	15.880	861.724	651.986
262.322	15.915	861.012	651.526
263.336	15.995	860.200	651.160
264.351	16.041	859.619	650.840
265.366	16.070	858.812	650.284
266.380	16.071	858.309	649.849
267.395	16.002	857.984	649.281
268.409	15.999	856.994	648.461
269.424	16.096	856.194	648.175
270.439	16.056	855.444	647.396
271.453	16.191	854.354	647.031
272.468	16.146	853.552	646.193
273.482	15.834	853.809	645.135
274.497	16.031	852.608	644.923
275.512	16.019	852.077	644.418
276.526	15.908	851.663	643.625
277.541	16.035	850.801	643.401
278.555	15.984	850.575	642.979
279.570	16.074	849.886	642.746
280.585	16.120	849.300	642.420
281.599	16.247	848.688	642.383
282.614	16.328	847.873	642.017
283.628	16.166	847.565	641.111
284.643	16.082	847.194	640.456
285.657	16.234	846.310	640.306
286.672	16.129	846.478	639.977
287.687	16.234	845.493	639.578
288.701	16.174	845.169	639.047
289.716	16.271	844.282	638.687
290.730	16.153	844.014	637.982
291.745	16.083	843.550	637.309
292.760	16.305	842.174	637.049
293.774	16.375	842.138	637.232
294.789	16.380	841.517	636.722
295.803	16.446	840.885	636.439
296.818	16.222	840.459	635.217
297.833	16.374	839.502	635.006
298.847	16.398	838.540	634.313
299.862	16.291	838.085	633.511
300.876	16.357	837.736	633.438
301.891	16.404	836.979	632.986
302.906	16.474	836.497	632.828
303.920	16.572	835.457	632.354
304.935	16.505	835.199	631.850
305.949	16.596	834.297	631.454
306.964	16.716	833.902	631.545
307.979	16.438	833.578	630.207
308.993	16.606	833.015	630.354
310.008	16.558	832.698	629.876
311.022	16.571	831.904	629.269
312.037	16.755	831.076	629.271
313.052	16.629	830.731	628.485
314.066	16.556	829.994	627.604
315.081	16.419	829.606	626.746
316.095	16.524	828.777	626.451
317.110	16.438	828.598	625.943
318.125	16.483	827.844	625.486
319.139	16.567	827.403	625.407
320.154	16.594	826.873	625.050
321.168	16.580	826.207	624.441
322.183	16.599	825.887	624.213
323.197	16.621	825.527	623.967
324.212	16.689	824.608	623.468
325.227	16.716	823.991	623.047
326.241	16.676	823.586	622.536
327.256	16.677	823.223	622.213
328.270	16.629	822.546	621.470
329.285	16.782	821.869	621.463
330.300	16.655	821.810	620.899
331.314	16.449	821.079	619.537
332.329	16.623	820.592	619.750
333.343	16.843	819.265	619.496
334.358	16.781	819.100	619.091
335.373	16.971	818.662	619.398
336.387	16.873	818.182	618.623
337.402	16.765	817.770	617.864
338.416	16.869	817.291	617.825
339.431	17.041	816.579	617.860
340.446	16.959	816.258	617.264
341.460	17.062	815.848	617.274
342.475	17.110	815.244	616.937
343.489	17.160	814.744	616.685
344.504	17.019	814.323	615.801
345.519	17.160	813.560	615.679
346.533	17.349	812.890	615.804
347.548	17.223	812.592	615.068
348.562	17.253	811.606	614.373
349.577	17.135	811.516	613.825
350.592	16.856	811.444	612.707
351.606	17.050	810.695	612.788
352.621	16.900	810.285	611.883
353.635	17.189	809.418	612.217
354.650	17.149	808.993	611.695
355.665	17.020	809.043	611.216
356.679	17.047	808.516	610.860
357.694	17.083	808.179	610.683
358.708	17.275	806.858	610.319
359.723	17.318	806.782	610.362
360.738	17.330	805.932	609.708
361.752	17.217	805.945	609.258
362.767	17.307	805.129	608.911
363.781	17.275	804.993	608.640
364.796	17.431	804.460	608.739
365.810	17.314	804.128	608.015
366.825	17.493	803.842	608.384
367.840	17.462	803.538	607.991
368.854	17.648	802.915	608.130
369.869	17.570	802.304	607.336
370.883	17.531	801.868	606.812
371.898	17.309	801.443	605.648
372.913	17.597	800.834	606.157
373.927	17.604	800.297	605.722
374.942	17.548	799.647	604.978
375.956	17.543	799.074	604.473
376.971	17.558	798.348	603.924
377.986	17.774	797.726	604.165
379.000	17.689	797.533	603.665
380.015	17.650	797.403	603.374
381.029	17.756	796.355	602.902
382.044	17.681	795.691	602.080
383.059	17.949	794.845	602.335
384.073	17.665	794.906	601.325
385.088	17.795	794.288	601.263
386.102	17.507	793.706	599.754
387.117	17.728	793.139	600.049
388.132	17.779	792.467	599.669
389.146	17.671	792.354	599.148
390.161	17.729	791.724	598.823
391.175	17.822	791.732	599.104
392.190	17.753	791.029	598.277
393.205	18.000	790.653	598.805
394.219	17.731	790.229	597.489
395.234	17.924	789.417	597.498
396.248	17.818	788.980	596.742
397.263	17.572	788.713	595.628
398.278	17.610	788.184	595.308
399.292	17.690	787.683	595.159
400.307	17.693	787.433	594.926
401.321	17.648	787.058	594.432
402.336	17.593	786.735	593.943
403.350	17.751	786.350	594.151
404.365	17.748	785.829	593.696
405.380	17.817	785.608	593.716
406.394	17.960	785.079	593.762
407.409	17.971	784.624	593.403
408.423	18.207	784.178	593.834
409.438	18.058	783.601	592.827
410.453	17.955	783.348	592.225
411.467	18.175	782.843	592.554
412.482	18.248	782.673	592.625
413.496	18.172	781.962	591.770
414.511	18.175	782.021	591.773
415.526	18.252	781.468	591.568
416.540	18.245	780.599	590.834
417.555	18.188	780.219	590.299
418.569	18.273	779.533	590.019
419.584	18.403	779.102	590.087
420.599	18.381	779.038	589.913
421.613	157.268	1368.693	1794.848
422.628	135.730	1454.588	1794.936
