DTS Sentinel unit serial number:	SN413079Multiplexer serial number:	ORYXHardware model number:	OX4-SRSoftware version number:	ORYX F/W v4.00 Oryx Data Collector v3.7.2.0data status	okinstallation	princeton_trtdifferential loss correction	single-endedforward channel	channel 3reverse channel	N/Adate	2019/09/15time	13:16:35forward acquisition time	60.00reverse acquisition time	0.00gamma	496.2192k internal	0.2295k external	0.2295temperature offset calibration	0.9961default loss term (dB/km)	0.3790temperature slope calibration	1.0000multiplexer offset coefficient	1.0000multiplexer slope coefficient	1.0000fibre end	0.00T internal ref (°C)	37.14T ext. ref 1 (°C)	4.94T ext. ref 2 (°C)	34.47length (m)	temperature (°C)	Stokes	anti-Stokes-747.200	-38.408	0.295	-0.160
-746.185	-34.935	-0.154	0.086
-745.171	-66.258	0.147	-0.060
-744.156	-200.000	-0.012	0.272
-743.142	-200.000	-0.004	0.214
-742.127	-92.215	0.294	-0.085
-741.112	-200.000	0.020	0.139
-740.098	800.000	0.104	0.371
-739.083	-59.628	0.263	0.115
-738.069	95.737	-0.083	-0.097
-737.054	122.649	0.143	0.182
-736.039	-68.701	-0.315	0.125
-735.025	239.231	-0.092	-0.157
-734.010	-90.624	0.114	0.034
-732.996	-25.050	-0.219	0.133
-731.981	355.375	-0.185	-0.377
-730.966	-54.889	-0.283	-0.130
-729.952	-68.366	0.394	-0.156
-728.937	-94.005	-0.242	0.068
-727.923	-63.639	-0.123	-0.052
-726.908	-48.230	-0.074	-0.036
-725.894	144.021	0.031	-0.042
-724.879	-200.000	-0.025	-0.425
-723.864	-126.307	0.456	-0.070
-722.850	-119.456	-0.185	-0.033
-721.835	-91.348	-0.475	-0.139
-720.821	-0.372	-0.256	-0.186
-719.806	-30.887	-0.304	-0.175
-718.791	176.974	0.069	-0.103
-717.777	-200.000	-0.014	-0.115
-716.762	537.604	-0.138	-0.336
-715.748	45.674	-0.157	-0.148
-714.733	-12.336	-0.062	-0.041
-713.718	-133.508	0.164	0.021
-712.704	-200.000	-0.008	0.186
-711.689	-131.564	-0.119	0.016
-710.675	-124.463	-0.325	0.052
-709.660	362.964	0.069	-0.141
-708.645	62.151	-0.179	0.183
-707.631	800.000	0.092	0.340
-706.616	800.000	0.077	-0.238
-705.602	66.330	-0.145	-0.151
-704.587	-68.583	-0.269	0.106
-703.572	-112.877	-0.487	-0.098
-702.558	245.114	0.164	0.281
-701.543	800.000	0.063	0.248
-700.529	351.595	0.165	-0.334
-699.514	262.101	0.074	-0.132
-698.499	-45.921	-0.226	-0.114
-697.485	800.000	-0.128	0.370
-696.470	-45.633	0.098	-0.050
-695.456	45.001	-0.209	-0.196
-694.441	-122.963	0.057	0.009
-693.426	39.733	-0.066	-0.061
-692.412	235.309	-0.106	-0.178
-691.397	800.000	-0.040	0.174
-690.383	800.000	-0.031	-0.103
-689.368	8.358	0.169	-0.129
-688.354	800.000	-0.044	0.160
-687.339	-200.000	-0.003	0.025
-686.324	-142.289	-0.136	0.014
-685.310	-123.507	-0.359	-0.058
-684.295	191.353	0.160	-0.246
-683.281	575.204	0.092	0.230
-682.266	-88.519	0.052	-0.016
-681.251	115.854	0.240	-0.300
-680.237	93.004	0.218	-0.251
-679.222	-14.991	-0.009	-0.006
-678.208	367.848	-0.163	-0.336
-677.193	437.006	0.075	-0.166
-676.178	-98.432	-0.211	-0.055
-675.164	-34.428	-0.425	-0.237
-674.149	410.387	-0.092	0.199
-673.135	83.644	-0.130	-0.145
-672.120	800.000	-0.057	0.178
-671.105	250.155	-0.209	-0.362
-670.091	-139.946	-0.331	0.036
-669.076	800.000	-0.084	0.279
-668.062	82.218	-0.142	0.158
-667.047	800.000	-0.044	-0.127
-666.032	122.183	-0.106	-0.135
-665.018	-11.895	-0.133	-0.089
-664.003	174.856	-0.192	0.284
-662.989	-8.808	0.183	-0.125
-661.974	-200.000	-0.007	-0.120
-660.959	87.425	-0.055	0.062
-659.945	357.324	0.171	-0.348
-658.930	44.179	0.212	0.198
-657.916	56.091	0.141	-0.139
-656.901	530.877	-0.017	0.041
-655.886	585.861	-0.053	-0.132
-654.872	800.000	-0.054	-0.158
-653.857	-200.000	-0.015	-0.166
-652.843	83.767	-0.202	0.225
-651.828	5.834	-0.109	0.082
-650.814	107.088	-0.104	0.126
-649.799	-200.000	0.018	0.382
-648.784	-114.445	0.084	-0.016
-647.770	-193.731	0.118	-0.001
-646.755	-200.000	-0.028	-0.154
-645.741	162.986	0.119	0.170
-644.726	-177.041	0.284	0.007
-643.711	-200.000	0.047	0.310
-642.697	550.000	-0.118	-0.289
-641.682	-39.802	-0.111	-0.059
-640.668	647.820	-0.043	-0.111
-639.653	-36.155	-0.221	0.122
-638.638	-200.000	-0.035	0.325
-637.624	800.000	0.018	-0.066
-636.609	500.005	0.122	-0.287
-635.595	-29.869	0.107	-0.062
-634.580	408.558	-0.089	0.192
-633.565	13.885	0.146	-0.115
-632.551	-12.909	0.090	-0.060
-631.536	63.015	-0.193	-0.197
-630.522	-125.687	-0.265	0.041
-629.507	-29.665	-0.302	0.176
-628.492	-83.462	-0.212	-0.069
-627.478	-200.000	0.069	0.344
-626.463	-122.274	0.108	0.018
-625.449	-53.598	0.194	0.090
-624.434	800.000	0.113	0.441
-623.419	-200.000	0.016	0.245
-622.405	78.819	0.060	0.065
-621.390	1.193	-0.122	-0.089
-620.376	103.227	0.034	-0.041
-619.361	-200.000	-0.010	0.124
-618.346	213.817	0.229	-0.368
-617.332	-64.437	0.064	0.026
-616.317	-200.000	0.026	-0.359
-615.303	-200.000	-0.002	0.056
-614.288	707.987	-0.077	0.206
-613.273	-94.357	-0.104	0.029
-612.259	-6.847	-0.207	-0.143
-611.244	-74.968	-0.167	-0.061
-610.230	195.008	-0.060	0.093
-609.215	-62.522	0.071	-0.030
-608.201	-200.000	-0.008	-0.048
-607.186	-200.000	0.065	-0.341
-606.171	-200.000	-0.012	0.104
-605.157	133.393	0.122	-0.161
-604.142	-145.075	0.321	-0.030
-603.128	108.161	-0.139	0.169
-602.113	-91.846	-0.039	0.011
-601.098	105.570	-0.102	0.122
-600.084	-15.923	0.096	0.062
-599.069	-35.757	-0.166	-0.092
-598.055	-78.596	0.286	0.099
-597.040	-82.537	0.564	0.186
-596.025	-18.800	-0.329	-0.208
-595.011	-27.098	-0.114	0.067
-593.996	3.060	0.088	-0.065
-592.982	-107.789	0.060	0.013
-591.967	100.124	-0.161	0.190
-590.952	-165.902	0.279	0.012
-589.938	-48.960	-0.281	0.137
-588.923	-84.391	-0.194	-0.062
-587.909	40.401	0.159	0.145
-586.894	-135.340	0.175	0.021
-585.879	656.154	-0.083	-0.217
-584.865	-11.536	-0.147	-0.098
-583.850	-60.363	0.113	0.049
-582.836	800.000	0.078	0.243
-581.821	47.162	-0.215	-0.203
-580.806	55.507	-0.134	-0.132
-579.792	315.067	-0.093	0.178
-578.777	26.434	0.081	0.069
-577.763	-97.752	0.213	-0.056
-576.748	429.114	0.141	-0.310
-575.733	-132.758	-0.218	0.028
-574.719	-21.760	-0.054	-0.033
-573.704	800.000	-0.049	-0.205
-572.690	351.273	-0.151	-0.304
-571.675	334.060	0.054	0.106
-570.661	-200.000	-0.017	-0.118
-569.646	800.000	-0.028	0.089
-568.631	-200.000	0.013	0.283
-567.617	-119.143	-0.348	0.062
-566.602	-145.400	0.155	-0.014
-565.588	-49.436	-0.250	-0.121
-564.573	-167.887	0.338	-0.013
-563.558	-41.139	0.209	0.109
-562.544	645.569	-0.002	-0.006
-561.529	-42.125	0.118	0.061
-560.515	-200.000	-0.008	-0.121
-559.500	-80.176	-0.151	0.051
-558.485	-73.441	0.149	-0.055
-557.471	-200.000	0.000	-0.088
-556.456	-104.693	0.166	0.039
-555.442	-24.421	-0.326	-0.197
-554.427	-125.563	0.173	-0.027
-553.412	100.786	-0.072	0.085
-552.398	-103.425	-0.138	0.033
-551.383	617.231	0.076	-0.194
-550.369	590.176	0.052	-0.130
-549.354	-61.616	-0.111	0.047
-548.339	-126.677	-0.188	0.028
-547.325	-104.785	0.273	-0.064
-546.310	800.000	0.092	-0.287
-545.296	-67.374	-0.394	0.157
-544.281	259.414	-0.110	-0.192
-543.266	-200.000	-0.000	0.156
-542.252	800.000	-0.025	0.110
-541.237	73.325	0.115	0.122
-540.223	-86.337	-0.114	-0.036
-539.208	800.000	-0.139	-0.460
-538.193	-36.987	0.408	-0.222
-537.179	-23.514	0.160	-0.097
-536.164	286.678	-0.088	0.162
-535.150	595.981	-0.095	-0.237
-534.135	101.507	0.144	0.170
-533.121	-76.106	-0.388	0.139
-532.106	233.465	-0.113	-0.188
-531.091	94.077	-0.105	0.121
-530.077	-169.867	-0.032	-0.001
-529.062	-157.592	-0.132	0.008
-528.048	800.000	0.111	-0.405
-527.033	-54.518	-0.139	0.064
-526.018	-102.629	0.110	0.027
-525.004	86.681	0.093	0.105
-523.989	461.551	-0.119	-0.268
-522.975	-20.221	-0.072	-0.045
-521.960	426.023	-0.091	-0.199
-520.945	-200.000	-0.030	-0.180
-519.931	-200.000	-0.030	-0.151
-518.916	-200.000	-0.042	-0.346
-517.902	3.986	0.103	-0.077
-516.887	0.975	0.152	-0.111
-515.872	-122.875	0.266	-0.043
-514.858	188.813	-0.049	-0.074
-513.843	-85.055	0.123	-0.039
-512.829	237.965	0.172	0.289
-511.814	-200.000	0.006	0.074
-510.799	-200.000	-0.031	0.216
-509.785	-200.000	0.004	-0.049
-508.770	75.603	0.125	-0.133
-507.756	-200.000	-0.000	0.130
-506.741	800.000	0.061	0.255
-505.726	193.020	-0.084	0.128
-504.712	27.848	0.112	0.095
-503.697	-99.548	0.196	0.050
-502.683	-67.704	-0.350	0.139
-501.668	-200.000	0.002	0.118
-500.653	265.881	0.131	-0.232
-499.639	-80.934	-0.186	-0.062
-498.624	-136.523	-0.302	-0.035
-497.610	7.958	-0.136	-0.103
-496.595	20.530	-0.105	-0.086
-495.581	-113.770	0.315	-0.062
-494.566	636.493	0.079	-0.203
-493.551	800.000	0.048	-0.183
-492.537	800.000	-0.081	-0.278
-491.522	90.104	0.089	0.101
-490.508	-57.284	0.049	0.022
-489.493	800.000	-0.120	-0.446
-488.478	8.996	0.095	0.073
-487.464	615.648	-0.091	0.231
-486.449	-200.000	0.036	0.341
-485.435	737.267	0.051	-0.139
-484.420	-200.000	-0.009	0.104
-483.405	-189.332	-0.123	-0.001
-482.391	5.702	0.160	0.120
-481.376	-11.271	0.144	0.096
-480.362	-180.679	0.330	-0.007
-479.347	-189.007	0.133	-0.002
-478.332	-136.125	-0.240	0.028
-477.318	-141.387	0.163	-0.017
-476.303	297.446	0.106	-0.197
-475.289	-77.091	-0.200	-0.071
-474.274	-9.732	0.092	0.062
-473.259	23.522	-0.028	0.023
-472.245	14.176	-0.172	-0.136
-471.230	-96.483	-0.168	0.045
-470.216	-200.000	0.030	0.271
-469.201	-10.562	-0.417	0.279
-468.186	-69.091	0.087	0.034
-467.172	8.087	0.212	-0.161
-466.157	-89.093	0.289	0.086
-465.143	-132.001	-0.070	-0.009
-464.128	220.764	-0.052	0.085
-463.113	-200.000	0.049	-0.259
-462.099	-200.000	-0.006	-0.284
-461.084	-132.921	0.328	-0.042
-460.070	61.489	0.097	0.097
-459.055	291.641	-0.162	-0.298
-458.040	-200.000	0.022	-0.108
-457.026	137.702	0.143	-0.189
-456.011	133.727	0.107	0.140
-454.997	272.097	-0.132	-0.236
-453.982	-159.707	-0.207	-0.012
-452.968	531.910	-0.060	0.145
-451.953	-193.113	-0.463	-0.004
-450.938	-125.336	-0.074	0.011
-449.924	355.588	0.044	0.089
-448.909	3.681	-0.172	-0.127
-447.895	-200.000	-0.013	-0.316
-446.880	-142.907	0.304	-0.030
-445.865	800.000	0.077	-0.241
-444.851	-43.796	-0.126	-0.064
-443.836	-200.000	-0.014	-0.110
-442.822	-162.742	-0.090	0.004
-441.807	800.000	0.047	-0.164
-440.792	463.512	0.111	-0.250
-439.778	-11.663	-0.240	0.159
-438.763	233.291	-0.065	0.108
-437.749	105.134	0.156	0.186
-436.734	-81.789	0.299	0.099
-435.719	49.087	-0.072	0.068
-434.705	-41.791	0.183	0.095
-433.690	45.757	0.267	-0.249
-432.676	-86.047	-0.251	0.078
-431.661	-128.081	0.224	0.032
-430.646	-117.176	-0.046	0.008
-429.632	-200.000	-0.021	0.200
-428.617	800.000	-0.095	0.356
-427.603	-164.448	0.360	0.017
-426.588	233.974	0.061	-0.102
-425.573	800.000	0.022	-0.096
-424.559	-65.680	0.425	-0.172
-423.544	-72.973	0.263	0.097
-422.530	-144.678	-0.320	-0.030
-421.515	221.764	0.204	-0.332
-420.500	-200.000	0.004	-0.074
-419.486	39.369	0.370	0.334
-418.471	-53.167	0.520	-0.241
-417.457	153.097	0.283	-0.391
-416.442	148.610	-0.019	-0.026
-415.428	83.336	-0.115	0.127
-414.413	526.046	0.113	0.269
-413.398	-90.655	-0.371	-0.108
-412.384	38.140	0.190	-0.170
-411.369	-73.959	-0.183	-0.067
-410.355	-200.000	-0.030	0.133
-409.340	193.369	0.122	-0.187
-408.325	-162.468	-0.078	0.004
-407.311	308.711	-0.022	-0.042
-406.296	162.279	0.037	0.052
-405.282	-200.000	-0.026	0.217
-404.267	-200.000	0.015	-0.116
-403.252	88.262	0.123	0.138
-402.238	-84.621	0.272	-0.086
-401.223	-130.487	-0.230	0.031
-400.209	-98.222	-0.149	0.039
-399.194	800.000	0.136	-0.430
-398.179	-85.135	-0.132	-0.042
-397.165	-151.382	-0.038	-0.003
-396.150	49.744	-0.119	0.113
-395.136	-118.160	-0.308	0.055
-394.121	142.629	0.193	-0.258
-393.106	-64.850	-0.165	-0.067
-392.092	-67.654	0.024	-0.009
-391.077	766.245	0.046	0.127
-390.063	-15.864	0.143	0.092
-389.048	-200.000	0.004	-0.185
-388.033	115.661	-0.125	0.154
-387.019	-200.000	0.035	-0.206
-386.004	-131.575	-0.180	0.024
-384.990	-106.500	0.129	-0.029
-383.975	800.000	-0.018	0.051
-382.960	317.609	0.132	0.251
-381.946	491.376	-0.011	-0.026
-380.931	245.449	-0.176	0.299
-379.917	-200.000	0.030	-0.274
-378.902	-200.000	-0.015	0.089
-377.888	0.853	-0.259	-0.187
-376.873	393.960	0.181	-0.380
-375.858	-200.000	0.018	0.118
-374.844	-22.536	-0.164	0.100
-373.829	-37.660	0.154	-0.083
-372.815	118.462	0.144	-0.179
-371.800	-99.477	-0.174	0.044
-370.785	629.386	-0.035	0.088
-369.771	800.000	0.070	-0.199
-368.756	-107.284	0.029	-0.006
-367.742	230.625	-0.146	0.240
-366.727	196.472	-0.105	0.161
-365.712	292.530	0.225	0.414
-364.698	-93.875	0.096	0.027
-363.683	471.159	-0.124	-0.281
-362.669	137.478	0.173	0.228
-361.654	-200.000	0.086	0.378
-360.639	626.866	-0.151	0.385
-359.625	6.340	-0.091	0.068
-358.610	438.365	0.036	-0.079
-357.596	800.000	-0.049	-0.183
-356.581	52.909	-0.322	-0.310
-355.566	-0.672	0.150	0.107
-354.552	-97.416	-0.217	-0.057
-353.537	-200.000	-0.050	0.230
-352.523	-73.952	0.174	-0.064
-351.508	-113.369	-0.203	0.040
-350.493	82.833	0.116	-0.127
-349.479	191.732	-0.076	-0.115
-348.464	439.095	0.054	0.118
-347.450	14.649	0.038	-0.030
-346.435	-25.925	-0.200	0.119
-345.420	611.357	-0.123	-0.310
-344.406	-106.229	-0.072	-0.016
-343.391	366.784	0.103	-0.209
-342.377	-103.784	0.400	0.094
-341.362	18.637	0.050	-0.040
-340.348	73.364	-0.082	0.086
-339.333	-74.339	0.199	-0.073
-338.318	7.694	0.158	-0.119
-337.304	-88.090	-0.123	-0.037
-336.289	800.000	-0.058	-0.180
-335.275	-170.900	-0.181	0.006
-334.260	-200.000	0.037	0.314
-333.245	19.949	0.155	0.126
-332.231	6.926	0.137	-0.103
-331.216	-22.468	0.325	0.198
-330.202	52.488	-0.126	0.121
-329.187	800.000	-0.063	0.199
-328.172	-100.585	-0.189	-0.047
-327.158	-2.596	0.049	0.034
-326.143	426.670	-0.159	-0.344
-325.129	800.000	-0.008	-0.036
-324.114	-120.387	0.134	0.023
-323.099	128.081	-0.088	0.112
-322.085	11.867	-0.063	0.049
-321.070	248.106	-0.072	-0.123
-320.056	-76.595	-0.105	-0.037
-319.041	-45.277	0.099	0.049
-318.026	63.190	-0.199	0.201
-317.012	-108.443	-0.261	-0.056
-315.997	-200.000	0.003	0.027
-314.983	-103.383	0.376	0.089
-313.968	415.269	-0.079	0.168
-312.953	-86.149	-0.124	0.039
-311.939	32.770	0.030	0.026
-310.924	323.148	-0.070	-0.135
-309.910	416.977	0.128	0.276
-308.895	252.259	-0.022	0.038
-307.880	800.000	0.031	-0.107
-306.866	420.064	0.096	-0.206
-305.851	800.000	0.054	0.184
-304.837	-134.950	0.086	0.010
-303.822	-79.332	0.528	0.180
-302.807	800.000	0.104	0.332
-301.793	102.281	0.005	-0.006
-300.778	-40.125	-0.074	0.039
-299.764	49.734	0.040	-0.038
-298.749	-137.211	-0.232	0.027
-297.735	-140.194	-0.217	0.023
-296.720	-200.000	0.010	0.163
-295.705	50.202	-0.321	-0.304
-294.691	2.365	-0.107	-0.078
-293.676	315.410	0.121	-0.230
-292.662	-113.809	-0.271	0.053
-291.647	41.858	0.069	-0.062
-290.632	-122.641	0.119	0.019
-289.618	99.996	0.050	0.059
-288.603	136.340	0.090	0.118
-287.589	-200.000	-0.007	0.269
-286.574	36.110	-0.126	-0.111
-285.559	-136.656	-0.236	-0.027
-284.545	136.636	0.111	-0.145
-283.530	800.000	-0.116	0.338
-282.516	-185.181	-0.248	0.004
-281.501	800.000	-0.075	-0.215
-280.486	225.847	-0.292	0.475
-279.472	79.298	-0.080	-0.086
-278.457	-200.000	0.046	-0.352
-277.443	-71.286	0.144	-0.054
-276.428	-100.485	0.346	-0.086
-275.413	-8.015	0.201	0.136
-274.399	-8.470	-0.211	-0.143
-273.384	109.843	-0.133	0.160
-272.370	800.000	-0.025	0.088
-271.355	33.037	0.069	-0.060
-270.340	-200.000	-0.033	0.318
-269.326	-30.101	-0.159	0.091
-268.311	23.968	0.216	0.179
-267.297	-132.066	0.273	-0.036
-266.282	-76.209	-0.429	0.152
-265.267	419.182	-0.102	0.220
-264.253	-7.209	0.118	0.081
-263.238	800.000	0.064	0.191
-262.224	-37.073	-0.275	0.148
-261.209	-200.000	-0.009	0.078
-260.195	800.000	-0.017	0.056
-259.180	13.955	-0.161	-0.126
-258.165	-200.000	-0.000	-0.044
-257.151	800.000	0.079	0.290
-256.136	-62.797	0.008	0.003
-255.122	19.966	0.127	0.102
-254.107	-33.546	0.054	-0.030
-253.092	800.000	-0.056	-0.199
-252.078	558.563	-0.139	-0.336
-251.063	176.061	0.262	0.382
-250.049	230.404	0.248	-0.406
-249.034	-200.000	0.026	0.126
-248.019	-153.481	0.064	0.004
-247.005	-200.000	0.091	-0.416
-245.990	800.000	-0.070	-0.302
-244.976	220.418	0.222	-0.356
-243.961	61.547	0.064	0.064
-242.946	67.069	0.231	-0.236
-241.932	585.402	-0.011	-0.026
-240.917	-131.921	0.298	-0.039
-239.903	123.270	-0.111	-0.140
-238.888	25.367	-0.086	-0.072
-237.873	-38.541	-0.147	-0.078
-236.859	45.538	0.146	0.135
-235.844	5.573	-0.149	-0.110
-234.830	445.028	0.044	0.097
-233.815	525.846	-0.060	0.141
-232.800	-200.000	-0.048	-0.219
-231.786	-75.796	-0.317	-0.113
-230.771	475.206	0.106	0.240
-229.757	133.826	-0.131	0.170
-228.742	223.693	-0.064	-0.104
-227.727	-200.000	-0.044	-0.319
-226.713	800.000	-0.047	0.154
-225.698	-138.150	-0.041	-0.005
-224.684	-200.000	0.047	0.293
-223.669	-19.759	0.135	-0.083
-222.655	102.459	-0.110	0.129
-221.640	-155.861	-0.154	0.010
-220.625	-200.000	-0.020	-0.136
-219.611	69.831	0.302	0.312
-218.596	-200.000	0.002	-0.035
-217.582	800.000	-0.023	-0.083
-216.567	-179.168	0.133	-0.003
-215.552	800.000	-0.062	0.250
-214.538	126.796	0.074	-0.094
-213.523	-25.907	0.288	0.170
-212.509	-11.870	0.062	-0.041
-211.494	-16.659	0.388	0.246
-210.479	-49.910	0.198	0.094
-209.465	6.973	-0.253	0.189
-208.450	5.567	0.439	0.325
-207.436	-200.000	0.006	0.137
-206.421	509.235	-0.100	-0.232
-205.406	800.000	0.054	0.200
-204.392	281.932	0.144	0.259
-203.377	800.000	0.058	0.178
-202.363	383.743	-0.016	0.033
-201.348	-58.666	-0.190	-0.083
-200.333	-159.823	-0.040	0.002
-199.319	92.485	0.196	0.221
-198.304	108.430	-0.316	0.378
-197.290	387.405	-0.029	-0.059
-196.275	75.708	-0.078	-0.083
-195.260	-84.564	-0.191	0.060
-194.246	-65.003	0.218	-0.088
-193.231	800.000	0.033	0.107
-192.217	-50.518	-0.129	0.061
-191.202	800.000	-0.078	0.257
-190.187	43.675	0.243	-0.222
-189.173	127.515	-0.148	0.188
-188.158	13.516	0.050	-0.039
-187.144	800.000	-0.027	-0.077
-186.129	-160.690	-0.321	-0.017
-185.114	-200.000	0.041	0.237
-184.100	96.478	0.162	0.185
-183.085	130.772	0.123	0.158
-182.071	-19.420	-0.351	-0.217
-181.056	800.000	-0.017	-0.056
-180.042	20.834	0.168	-0.136
-179.027	-100.753	0.275	0.068
-178.012	-200.000	0.022	-0.181
-176.998	244.394	-0.169	0.283
-175.983	-142.469	-0.115	-0.011
-174.969	-199.917	0.115	-0.001
-173.954	-192.468	-0.080	-0.001
-172.939	-88.971	-0.104	0.031
-171.925	-32.441	-0.185	0.103
-170.910	146.368	-0.070	-0.094
-169.896	-49.656	0.092	-0.044
-168.881	-200.000	0.014	0.242
-167.866	-53.714	0.123	-0.056
-166.852	14.557	-0.204	-0.159
-165.837	-66.510	-0.117	0.046
-164.823	-85.932	-0.105	-0.032
-163.808	82.125	-0.068	0.074
-162.793	60.136	-0.259	-0.256
-161.779	-65.649	-0.386	-0.155
-160.764	-200.000	-0.020	-0.129
-159.750	-60.289	-0.191	0.081
-158.735	61.199	-0.098	-0.097
-157.720	-200.000	-0.051	-0.250
-156.706	339.097	0.049	-0.095
-155.691	24.116	0.287	-0.237
-154.677	-119.242	0.107	0.019
-153.662	22.030	-0.068	-0.055
-152.647	-156.526	-0.167	-0.010
-151.633	800.000	-0.173	0.478
-150.618	135.991	-0.105	-0.136
-149.604	195.533	-0.113	-0.172
-148.589	-200.000	0.038	-0.432
-147.574	-87.399	-0.091	-0.028
-146.560	-55.566	-0.174	0.078
-145.545	-200.000	-0.032	0.302
-144.531	29.804	-0.146	0.124
-143.516	-108.474	-0.168	0.036
-142.502	-200.000	0.017	-0.308
-141.487	-123.121	-0.112	-0.018
-140.472	-70.233	-0.163	-0.062
-139.458	409.966	-0.082	0.174
-138.443	-71.108	-0.177	0.067
-137.429	-200.000	0.000	-0.126
-136.414	-46.459	-0.139	0.068
-135.399	-21.314	0.200	0.122
-134.385	-141.331	0.136	0.014
-133.370	800.000	0.123	0.375
-132.356	-200.000	0.014	-0.259
-131.341	-19.833	0.171	-0.105
-130.326	58.093	-0.079	-0.078
-129.312	60.152	0.059	-0.058
-128.297	-29.765	-0.119	-0.068
-127.283	-76.612	0.404	0.141
-126.268	-64.486	-0.205	0.083
-125.253	-151.730	-0.161	0.012
-124.239	800.000	-0.015	0.045
-123.224	-49.684	-0.391	0.186
-122.210	-96.952	-0.361	0.094
-121.195	-78.861	0.442	0.150
-120.180	-200.000	0.019	-0.350
-119.166	800.000	0.065	0.210
-118.151	151.796	0.095	-0.129
-117.137	-68.327	-0.290	0.113
-116.122	-134.075	-0.184	-0.023
-115.107	89.350	0.098	-0.109
-114.093	-97.699	0.280	0.072
-113.078	-95.347	0.154	0.041
-112.064	109.607	-0.059	-0.070
-111.049	468.265	-0.208	0.465
-110.034	355.515	0.131	-0.261
-109.020	450.270	-0.005	-0.011
-108.005	-119.023	-0.182	0.032
-106.991	-50.352	0.119	-0.056
-105.976	642.262	0.064	0.161
-104.962	141.251	0.095	-0.125
-103.947	-105.498	-0.474	0.107
-102.932	-166.154	0.119	-0.005
-101.918	24.972	0.100	-0.082
-100.903	472.989	-0.100	-0.225
-99.889	800.000	0.015	-0.046
-98.874	-87.414	-0.260	0.079
-97.859	-37.145	0.102	0.054
-96.845	140.231	0.311	0.410
-95.830	71.098	0.151	0.156
-94.816	-200.000	-0.004	0.067
-93.801	-165.388	0.221	0.010
-92.786	-95.367	-0.112	0.030
-91.772	-122.208	-0.298	0.049
-90.757	67.983	-0.047	0.048
-89.743	-200.000	0.032	0.310
-88.728	391.975	-0.018	0.037
-87.713	133.023	-0.160	0.206
-86.699	-111.351	-0.161	0.033
-85.684	-18.233	0.043	-0.027
-84.670	-200.000	0.003	0.287
-83.655	408.488	0.045	-0.094
-82.640	-46.465	0.190	-0.093
-81.626	-108.677	0.309	0.066
-80.611	-154.113	0.270	0.018
-79.597	226.881	0.055	-0.090
-78.582	-200.000	-0.040	0.193
-77.567	14.283	-0.169	-0.131
-76.553	-68.037	0.691	0.268
-75.538	133.347	0.026	-0.034
-74.524	-158.433	-0.226	0.013
-73.509	1.613	0.279	-0.200
-72.494	-32.645	0.066	0.037
-71.480	65.088	0.087	-0.088
-70.465	-114.308	-0.444	0.085
-69.451	-53.569	0.314	0.143
-68.436	-173.570	0.044	0.001
-67.422	800.000	-0.044	-0.181
-66.407	365.067	-0.109	-0.219
-65.392	-109.187	0.389	0.082
-64.378	-66.966	0.339	0.133
-63.363	-104.308	-0.179	-0.041
-62.349	-200.000	-0.024	-0.285
-61.334	222.374	-0.507	-0.813
-60.319	149.943	0.421	0.569
-59.305	-200.000	-0.101	-0.683
-58.290	800.000	0.221	0.853
-57.276	428.145	0.659	1.417
-56.261	-200.000	85.870	499.445
-55.246	506.652	1402.002	3235.552
-54.232	181.362	2614.864	3826.871
-53.217	116.266	2252.750	2746.820
-52.203	46.650	1772.668	1637.796
-51.188	40.019	1576.228	1409.173
-50.173	37.611	1548.376	1367.328
-49.159	54.126	1592.245	1523.996
-48.144	57.980	1612.201	1570.506
-47.130	40.730	1571.147	1409.457
-46.115	37.471	1555.567	1372.472
-45.100	37.247	1552.086	1367.765
-44.086	37.200	1550.013	1365.555
-43.071	37.107	1548.296	1363.338
-42.057	37.152	1546.376	1361.907
-41.042	37.081	1545.495	1360.578
-40.027	37.070	1543.656	1358.828
-39.013	36.999	1542.134	1356.938
-37.998	37.015	1540.822	1355.839
-36.984	37.169	1539.477	1355.678
-35.969	37.118	1538.261	1354.201
-34.954	37.098	1536.735	1352.662
-33.940	37.212	1535.219	1352.073
-32.925	37.207	1533.856	1350.782
-31.911	37.205	1532.376	1349.412
-30.896	37.178	1531.010	1347.964
-29.881	37.214	1529.869	1347.156
-28.867	37.239	1528.622	1346.183
-27.852	37.179	1526.889	1344.186
-26.838	37.149	1525.378	1342.594
-25.823	37.156	1524.035	1341.403
-24.809	37.230	1521.986	1340.063
-23.794	37.158	1520.807	1338.475
-22.779	37.113	1520.222	1337.593
-21.765	37.093	1519.042	1336.366
-20.750	37.121	1518.050	1335.632
-19.736	37.147	1516.515	1334.406
-18.721	37.212	1514.864	1333.346
-17.706	37.155	1513.852	1332.015
-16.692	37.142	1513.184	1331.285
-15.677	37.247	1512.056	1330.959
-14.663	37.241	1510.647	1329.625
-13.648	37.078	1510.201	1328.065
-12.633	37.094	1509.205	1327.244
-11.619	37.144	1507.942	1326.425
-10.604	37.195	1506.645	1325.574
-9.590	37.154	1506.127	1324.788
-8.575	37.120	1504.989	1323.505
-7.560	37.128	1504.477	1323.058
-6.546	37.120	1503.403	1322.006
-5.531	37.002	1502.779	1320.600
-4.517	36.974	1502.184	1319.834
-3.502	37.026	1500.977	1319.070
-2.487	37.109	1499.702	1318.464
-1.473	37.017	1498.418	1316.657
-0.458	37.149	1497.140	1316.382
0.556	35.853	1487.992	1306.593
1.571	33.467	1461.034	1266.881
2.586	30.033	1396.504	1188.825
3.600	28.122	1311.167	1104.551
4.615	26.383	1262.663	1053.474
5.629	22.880	1205.159	985.890
6.644	13.712	1117.334	866.291
7.659	6.379	1073.231	795.111
8.673	5.112	1067.227	784.227
9.688	4.906	1064.150	780.864
10.702	4.810	1062.115	778.824
11.717	4.932	1060.377	778.087
12.731	8.015	1064.264	796.299
13.746	16.523	1075.826	847.700
14.761	20.595	1080.567	871.822
15.775	18.812	1077.179	860.091
16.790	17.367	1074.026	850.279
17.804	16.233	1071.776	842.764
18.819	15.308	1069.836	836.553
19.834	14.805	1069.099	833.392
20.848	14.531	1067.662	830.834
21.863	14.281	1066.737	828.793
22.877	14.053	1065.974	826.997
23.892	13.842	1065.004	825.122
24.907	13.753	1064.185	823.972
25.921	13.724	1063.887	823.525
26.936	13.720	1062.917	822.680
27.950	13.956	1061.641	822.788
28.965	13.862	1060.988	821.746
29.980	13.862	1059.229	820.310
30.994	13.866	1058.500	819.692
32.009	13.961	1057.209	819.087
33.023	14.206	1056.246	819.479
34.038	14.063	1056.070	818.562
35.053	14.024	1055.180	817.610
36.067	13.826	1054.411	815.970
37.082	13.922	1053.028	815.296
38.096	13.931	1052.672	814.994
39.111	13.982	1052.036	814.677
40.126	13.980	1050.943	813.751
41.140	13.899	1049.832	812.423
42.155	13.777	1048.469	810.701
43.169	13.784	1047.443	809.870
44.184	13.696	1046.986	809.014
45.199	13.705	1045.540	807.867
46.213	13.785	1044.080	807.059
47.228	13.752	1043.351	806.263
48.242	13.799	1042.480	805.745
49.257	13.802	1041.846	805.203
50.271	13.795	1040.402	803.979
51.286	13.788	1039.669	803.307
52.301	13.865	1039.230	803.272
53.315	13.913	1038.496	802.863
54.330	13.927	1037.561	802.137
55.344	13.835	1036.328	800.672
56.359	13.758	1035.002	799.206
57.374	13.703	1034.381	798.389
58.388	13.813	1033.500	798.168
59.403	13.827	1032.232	797.185
60.417	13.661	1031.630	795.853
61.432	13.605	1031.740	795.597
62.447	13.553	1030.431	794.269
63.461	13.718	1029.417	794.208
64.476	13.565	1028.846	792.965
65.490	13.498	1027.708	791.694
66.505	13.396	1026.996	790.589
67.520	13.555	1025.863	790.407
68.534	13.554	1025.169	789.795
69.549	13.687	1024.266	789.666
70.563	13.561	1023.962	788.763
71.578	13.668	1023.224	788.630
72.593	13.469	1022.553	787.099
73.607	13.524	1021.011	786.105
74.622	13.525	1020.197	785.414
75.636	13.391	1019.635	784.274
76.651	13.532	1018.785	784.220
77.666	13.497	1017.910	783.311
78.680	13.562	1016.991	782.839
79.695	13.527	1016.803	782.464
80.709	13.628	1016.210	782.411
81.724	13.732	1015.271	782.113
82.739	13.726	1014.436	781.369
83.753	13.770	1013.673	780.920
84.768	13.768	1013.065	780.374
85.782	13.908	1012.197	780.294
86.797	13.984	1011.520	780.062
87.812	13.823	1010.900	778.759
88.826	13.873	1010.028	778.252
89.841	13.942	1008.986	777.704
90.855	13.973	1007.822	776.884
91.870	13.861	1007.066	775.706
92.884	13.974	1006.847	775.997
93.899	14.030	1006.007	775.545
94.914	13.875	1005.261	774.175
95.928	14.024	1004.337	774.093
96.943	14.004	1004.092	773.738
97.957	14.057	1003.188	773.222
98.972	14.055	1001.777	772.054
99.987	13.974	1001.222	771.184
101.001	13.865	1000.537	770.083
102.016	13.971	999.779	769.922
103.030	13.932	998.816	768.934
104.045	13.989	998.051	768.540
105.060	13.900	996.670	766.995
106.074	14.007	995.873	766.807
107.089	13.795	994.956	765.060
108.103	13.737	993.894	763.906
109.118	13.692	993.164	763.071
110.133	13.564	992.481	761.889
111.147	13.666	991.677	761.675
112.162	13.646	990.510	760.617
113.176	13.631	990.019	760.104
114.191	13.641	989.139	759.407
115.206	13.879	988.022	759.573
116.220	13.814	987.771	759.013
117.235	13.795	986.581	757.948
118.249	13.792	985.777	757.248
119.264	13.843	984.615	756.520
120.279	13.625	984.143	755.098
121.293	13.682	983.040	754.446
122.308	13.703	982.366	753.958
123.322	13.702	981.493	753.214
124.337	13.654	980.777	752.381
125.352	13.613	979.586	751.215
126.366	13.542	978.287	749.828
127.381	13.594	977.269	749.218
128.395	13.596	976.502	748.574
129.410	13.653	975.305	747.849
130.424	13.679	974.679	747.420
131.439	13.777	973.672	747.023
132.454	13.692	973.218	746.224
133.468	13.922	972.014	746.268
134.483	13.900	970.949	745.285
135.497	13.780	970.949	744.681
136.512	13.792	970.083	744.004
137.527	13.826	969.204	743.416
138.541	13.857	967.987	742.555
139.556	13.820	968.077	742.395
140.570	13.832	967.102	741.633
141.585	13.906	966.024	741.075
142.600	13.940	965.624	740.853
143.614	13.952	964.693	740.127
144.629	14.079	963.945	740.052
145.643	14.089	963.241	739.491
146.658	13.979	962.787	738.587
147.673	14.034	961.189	737.541
148.687	13.859	960.674	736.305
149.702	13.786	959.722	735.188
150.716	13.773	958.989	734.503
151.731	13.868	957.969	734.076
152.746	13.929	957.542	733.951
153.760	13.819	957.040	733.017
154.775	13.778	956.042	732.009
155.789	13.941	955.133	731.964
156.804	13.951	954.191	731.223
157.819	13.984	953.372	730.677
158.833	13.924	952.791	729.904
159.848	13.924	952.517	729.627
160.862	13.948	951.501	728.888
161.877	14.050	950.707	728.666
162.892	14.001	949.651	727.577
163.906	13.953	948.444	726.377
164.921	14.022	947.517	725.903
165.935	13.910	946.815	724.813
166.950	13.866	946.148	724.045
167.964	14.033	944.922	723.773
168.979	13.967	944.101	722.791
169.994	13.972	943.304	722.140
171.008	13.947	942.401	721.275
172.023	13.959	941.459	720.542
173.037	14.113	940.400	720.337
174.052	14.058	940.247	719.915
175.067	14.240	938.908	719.614
176.081	14.086	938.624	718.669
177.096	13.950	937.675	717.288
178.110	13.984	936.506	716.480
179.125	13.865	936.358	715.791
180.140	13.976	935.469	715.523
181.154	13.963	934.675	714.799
182.169	14.182	934.082	715.224
183.183	14.114	933.677	714.556
184.198	14.227	932.587	714.142
185.213	14.202	932.211	713.685
186.227	14.223	931.472	713.147
187.242	14.130	931.403	712.635
188.256	14.176	930.533	712.103
189.271	14.325	929.753	712.078
190.286	14.278	928.806	711.090
191.300	14.318	927.669	710.326
192.315	14.021	926.839	708.362
193.329	13.891	926.176	707.238
194.344	13.937	925.639	706.962
195.359	14.006	925.056	706.750
196.373	14.192	924.449	707.011
197.388	14.290	923.880	706.931
198.402	14.361	923.209	706.655
199.417	14.408	923.570	707.071
200.432	14.435	922.730	706.480
201.446	14.564	922.443	706.741
202.461	14.393	922.101	705.695
203.475	14.553	921.684	705.988
204.490	14.584	920.454	705.116
205.504	14.470	919.729	704.019
206.519	14.421	918.818	703.049
207.534	14.428	917.906	702.318
208.548	14.406	917.199	701.626
209.563	14.496	916.453	701.372
210.577	14.423	915.935	700.604
211.592	14.432	915.295	700.093
212.607	14.603	915.005	700.523
213.621	14.591	913.916	699.579
214.636	14.652	913.467	699.431
215.650	14.657	912.718	698.812
216.665	14.626	912.434	698.405
217.680	14.503	911.951	697.458
218.694	14.731	911.302	697.854
219.709	14.721	910.919	697.459
220.723	14.736	910.162	696.877
221.738	14.833	909.271	696.538
222.753	14.663	908.651	695.296
223.767	14.731	907.865	694.915
224.782	14.726	907.237	694.351
225.796	14.803	906.397	693.967
226.811	14.933	905.256	693.572
227.826	14.807	905.006	692.797
228.840	14.842	904.235	692.290
229.855	14.740	903.400	691.168
230.869	14.662	903.038	690.506
231.884	14.645	902.748	690.154
232.899	14.656	902.061	689.611
233.913	14.635	900.845	688.535
234.928	14.768	899.975	688.357
235.942	14.677	899.332	687.429
236.957	14.648	898.705	686.771
237.972	14.640	898.218	686.306
238.986	14.721	897.851	686.298
240.001	14.659	897.130	685.431
241.015	14.768	896.254	685.149
242.030	14.792	895.458	684.575
243.045	14.851	894.629	684.125
244.059	14.747	894.144	683.268
245.074	14.857	893.594	683.233
246.088	14.850	893.233	682.872
247.103	14.935	892.388	682.509
248.117	14.962	891.974	682.245
249.132	14.929	891.549	681.724
250.147	14.978	890.499	681.062
251.161	15.179	890.237	681.619
252.176	15.286	889.756	681.623
253.190	15.272	888.777	680.757
254.205	15.271	888.228	680.272
255.220	15.358	887.741	680.190
256.234	15.264	887.048	679.219
257.249	15.349	886.394	679.002
258.263	15.341	885.888	678.525
259.278	15.317	885.107	677.770
260.293	15.290	884.583	677.196
261.307	15.430	884.001	677.255
262.322	15.406	883.543	676.749
263.336	15.451	883.167	676.581
264.351	15.503	882.436	676.173
265.366	15.516	881.830	675.702
266.380	15.598	881.264	675.535
267.395	15.553	880.646	674.820
268.409	15.669	879.363	674.245
269.424	15.512	878.516	672.906
270.439	15.581	878.071	672.784
271.453	15.540	877.384	672.031
272.468	15.534	876.622	671.365
273.482	15.388	876.393	670.547
274.497	15.528	875.286	670.201
275.512	15.572	874.527	669.735
276.526	15.558	873.785	669.053
277.541	15.358	873.503	667.979
278.555	15.459	872.935	667.889
279.570	15.517	872.578	667.785
280.585	15.613	871.881	667.576
281.599	15.769	871.527	667.866
282.614	15.754	870.746	667.146
283.628	15.579	870.316	666.064
284.643	15.586	869.658	665.532
285.657	15.635	868.896	665.084
286.672	15.681	868.432	664.849
287.687	15.646	868.075	664.380
288.701	15.691	867.600	664.134
289.716	15.584	866.832	663.068
290.730	15.738	866.171	663.111
291.745	15.885	865.266	662.936
292.760	15.832	864.833	662.340
293.774	15.839	864.226	661.844
294.789	15.864	863.796	661.551
295.803	15.863	862.856	660.768
296.818	15.803	862.918	660.522
297.833	15.711	861.939	659.355
298.847	15.785	861.108	658.950
299.862	15.709	860.846	658.396
300.876	15.861	859.747	658.090
301.891	15.977	859.322	658.161
302.906	15.935	858.778	657.522
303.920	15.999	857.772	656.941
304.935	16.030	857.522	656.812
305.949	16.131	857.049	656.786
306.964	16.075	855.917	655.644
307.979	16.133	855.866	655.772
308.993	16.116	855.158	655.103
310.008	16.204	854.488	654.875
311.022	16.161	853.990	654.268
312.037	16.153	853.705	653.962
313.052	16.020	853.039	652.880
314.066	15.931	852.372	651.966
315.081	16.009	851.851	651.811
316.095	15.932	850.990	650.796
317.110	16.100	850.548	651.050
318.125	16.013	849.979	650.222
319.139	15.979	849.420	649.605
320.154	16.025	848.742	649.205
321.168	16.187	848.433	649.535
322.183	16.100	848.001	648.814
323.197	16.035	847.564	648.170
324.212	15.984	847.114	647.575
325.227	16.190	846.056	647.498
326.241	16.124	845.679	646.899
327.256	16.003	845.091	645.927
328.270	16.074	844.321	645.554
329.285	15.922	843.972	644.648
330.300	16.080	843.379	644.745
331.314	16.068	842.841	644.228
332.329	16.232	842.169	644.283
333.343	16.209	841.360	643.522
334.358	16.209	841.173	643.321
335.373	16.401	840.386	643.394
336.387	16.494	839.781	643.226
337.402	16.484	839.344	642.798
338.416	16.454	838.999	642.364
339.431	16.528	838.104	641.901
340.446	16.302	837.861	640.800
341.460	16.446	837.693	641.161
342.475	16.681	836.444	641.040
343.489	16.570	835.958	640.188
344.504	16.586	835.481	639.829
345.519	16.743	834.945	639.955
346.533	16.783	834.303	639.558
347.548	16.655	834.239	638.966
348.562	16.546	833.494	637.931
349.577	16.492	833.177	637.427
350.592	16.588	832.500	637.216
351.606	16.466	832.135	636.420
352.621	16.514	831.818	636.303
353.635	16.568	830.953	635.785
354.650	16.625	830.453	635.561
355.665	16.566	830.431	635.267
356.679	16.634	829.893	635.055
357.694	16.740	829.432	635.041
358.708	16.560	828.868	633.878
359.723	16.683	828.200	633.773
360.738	16.678	827.571	633.219
361.752	16.839	827.172	633.457
362.767	16.794	826.700	632.872
363.781	16.822	826.450	632.732
364.796	16.775	825.915	632.087
365.810	16.932	825.552	632.340
366.825	16.849	825.324	631.802
367.840	16.998	824.630	631.769
368.854	17.082	824.312	631.782
369.869	17.048	823.488	630.969
370.883	16.873	823.171	630.020
371.898	16.902	822.706	629.716
372.913	16.887	822.105	629.142
373.927	17.103	821.155	629.161
374.942	17.173	820.605	628.942
375.956	17.029	820.232	628.067
376.971	17.201	819.107	627.786
377.986	17.234	818.905	627.701
379.000	17.076	818.785	626.967
380.015	17.220	818.416	627.160
381.029	17.146	817.660	626.254
382.044	17.134	817.088	625.716
383.059	17.260	816.197	625.442
384.073	17.259	815.596	624.920
385.088	17.198	815.183	624.327
386.102	17.127	814.876	623.774
387.117	17.147	814.155	623.241
388.132	17.190	813.769	623.050
389.146	17.108	813.642	622.595
390.161	17.122	813.053	622.141
391.175	17.272	812.763	622.414
392.190	17.243	811.883	621.578
393.205	17.302	811.596	621.519
394.219	17.303	811.076	621.069
395.234	17.225	810.710	620.451
396.248	17.150	810.432	619.908
397.263	17.177	809.813	619.477
398.278	17.072	809.233	618.598
399.292	17.236	808.710	618.740
400.307	17.133	808.346	618.032
401.321	17.028	808.338	617.589
402.336	17.234	807.698	617.793
403.350	17.222	807.047	617.198
404.365	17.361	806.534	617.255
405.380	17.352	805.949	616.721
406.394	17.691	805.251	617.360
407.409	17.524	805.091	616.577
408.423	17.600	805.076	616.787
409.438	17.725	804.400	616.667
410.453	17.510	804.257	615.724
411.467	17.525	803.960	615.498
412.482	17.463	803.391	614.785
413.496	17.737	802.725	615.208
414.511	17.731	802.397	614.882
415.526	17.837	801.907	614.833
416.540	17.808	801.508	614.366
417.555	17.643	801.225	613.504
418.569	17.708	800.429	613.072
419.584	17.687	800.083	612.676
420.599	17.751	799.799	612.635
421.613	149.071	1366.932	1779.679
422.628	129.040	1449.581	1779.827
