DTS Sentinel unit serial number:	SN413079Multiplexer serial number:	ORYXHardware model number:	OX4-SRSoftware version number:	ORYX F/W v4.00 Oryx Data Collector v3.7.2.0data status	okinstallation	princeton_trtdifferential loss correction	single-endedforward channel	channel 3reverse channel	N/Adate	2019/09/19time	02:00:34forward acquisition time	60.00reverse acquisition time	0.00gamma	496.2192k internal	0.2347k external	0.2347temperature offset calibration	0.9989default loss term (dB/km)	0.3790temperature slope calibration	1.0000multiplexer offset coefficient	1.0000multiplexer slope coefficient	1.0000fibre end	0.00T internal ref (°C)	21.25T ext. ref 1 (°C)	0.68T ext. ref 2 (°C)	14.83length (m)	temperature (°C)	Stokes	anti-Stokes-747.200	-6.170	-0.081	-0.055
-746.185	435.648	-0.027	0.058
-745.171	42.553	-0.039	-0.036
-744.156	19.675	-0.298	0.240
-743.142	529.116	-0.089	-0.211
-742.127	731.726	-0.034	0.091
-741.112	-200.000	-0.024	0.113
-740.098	-134.667	-0.069	0.008
-739.083	-59.302	0.462	0.199
-738.069	45.159	0.093	0.086
-737.054	-200.000	-0.002	0.213
-736.039	-38.830	-0.264	0.139
-735.025	-200.000	0.086	0.449
-734.010	87.195	-0.381	0.421
-732.996	800.000	0.060	0.199
-731.981	-99.441	-0.020	0.005
-730.966	101.421	-0.205	0.239
-729.952	181.686	-0.190	-0.279
-728.937	47.228	-0.217	0.202
-727.923	84.525	-0.121	-0.132
-726.908	169.147	-0.050	-0.071
-725.894	-64.850	-0.181	-0.073
-724.879	-127.154	-0.162	0.024
-723.864	119.698	-0.106	-0.131
-722.850	-17.361	-0.044	0.028
-721.835	800.000	0.059	-0.232
-720.821	298.095	0.136	-0.250
-719.806	-200.000	0.003	-0.177
-718.791	-93.758	-0.348	0.096
-717.777	-21.213	-0.133	-0.081
-716.762	-27.806	-0.108	-0.063
-715.748	345.673	-0.099	0.193
-714.733	-4.197	0.279	0.193
-713.718	356.353	0.111	-0.220
-712.704	-200.000	0.039	-0.202
-711.689	107.351	-0.109	-0.130
-710.675	-200.000	-0.020	0.110
-709.660	-73.381	0.302	0.110
-708.645	-190.099	0.089	0.001
-707.631	-73.683	-0.201	0.073
-706.616	-181.301	-0.032	-0.001
-705.602	66.952	0.139	0.141
-704.587	-200.000	0.012	-0.160
-703.572	-40.785	-0.365	-0.188
-702.558	-86.740	-0.305	-0.093
-701.543	443.800	-0.126	-0.275
-700.529	-64.106	-0.108	-0.044
-699.514	-123.386	-0.129	-0.021
-698.499	-66.678	0.385	-0.152
-697.485	29.897	0.139	0.118
-696.470	-131.388	-0.214	-0.028
-695.456	49.313	0.030	0.028
-694.441	-200.000	-0.024	-0.212
-693.426	-50.408	-0.153	0.072
-692.412	-32.144	0.246	-0.137
-691.397	-13.654	-0.168	-0.108
-690.383	-104.322	-0.321	0.074
-689.368	260.484	0.059	-0.103
-688.354	-19.451	0.190	-0.118
-687.339	552.496	0.047	-0.113
-686.324	292.864	0.030	0.054
-685.310	-39.764	-0.050	-0.026
-684.295	-200.000	-0.023	-0.191
-683.281	-83.342	-0.148	-0.047
-682.266	-87.809	0.187	-0.056
-681.251	189.792	-0.128	-0.191
-680.237	-16.726	0.302	-0.191
-679.222	250.454	-0.218	0.369
-678.208	-15.563	0.251	0.160
-677.193	-59.216	0.045	0.019
-676.178	40.607	0.157	0.141
-675.164	116.650	0.181	0.221
-674.149	-110.885	-0.294	-0.060
-673.135	97.216	-0.197	0.225
-672.120	440.889	-0.094	-0.205
-671.105	-151.961	-0.296	0.022
-670.091	-88.562	0.058	0.017
-669.076	0.690	-0.361	-0.257
-668.062	-48.142	0.379	-0.182
-667.047	800.000	-0.105	-0.337
-666.032	-93.026	-0.185	0.051
-665.018	-54.410	0.029	-0.013
-664.003	-26.358	0.397	-0.232
-662.989	-200.000	0.007	-0.143
-661.974	-52.855	0.083	-0.038
-660.959	-25.383	-0.187	-0.110
-659.945	54.445	-0.088	-0.085
-658.930	-101.286	-0.294	-0.071
-657.916	-159.823	0.245	-0.013
-656.901	1.640	0.179	0.128
-655.886	293.109	0.008	0.014
-654.872	-35.406	0.068	-0.037
-653.857	-139.599	-0.529	0.056
-652.843	800.000	0.093	0.309
-651.828	-13.582	0.163	-0.105
-650.814	-102.164	-0.049	-0.012
-649.799	-29.453	-0.164	-0.093
-648.784	-56.715	-0.270	0.119
-647.770	-200.000	0.023	-0.192
-646.755	-99.054	-0.046	0.012
-645.741	-17.731	0.163	0.102
-644.726	38.257	-0.044	0.039
-643.711	-88.919	-0.306	0.090
-642.697	-183.101	0.163	0.003
-641.682	17.329	0.143	-0.113
-640.668	59.740	-0.280	-0.275
-639.653	-65.667	-0.149	0.059
-638.638	800.000	0.027	0.119
-637.624	-24.537	-0.273	-0.162
-636.609	782.028	0.032	-0.086
-635.595	-81.378	-0.077	-0.025
-634.580	-200.000	0.004	-0.126
-633.565	-29.660	-0.162	0.092
-632.551	-21.802	0.136	0.082
-631.536	434.158	0.087	0.187
-630.522	-107.513	-0.285	-0.062
-629.507	516.356	0.060	-0.140
-628.492	-200.000	0.043	-0.303
-627.478	145.047	-0.083	-0.110
-626.463	800.000	-0.057	-0.193
-625.449	12.420	-0.063	0.049
-624.434	-200.000	-0.017	-0.267
-623.419	-65.481	0.337	-0.135
-622.405	119.322	-0.089	0.110
-621.390	150.639	-0.136	-0.184
-620.376	-15.857	0.198	-0.126
-619.361	-79.602	-0.126	0.042
-618.346	285.667	0.106	-0.191
-617.332	-200.000	0.057	-0.262
-616.317	-200.000	-0.001	-0.132
-615.303	181.444	0.077	0.112
-614.288	-145.312	-0.063	0.006
-613.273	-116.646	0.203	-0.037
-612.259	-106.990	-0.230	-0.051
-611.244	89.258	0.141	-0.156
-610.230	-200.000	0.001	-0.088
-609.215	323.882	-0.153	0.290
-608.201	-66.752	-0.336	0.132
-607.186	-200.000	-0.022	0.228
-606.171	-15.292	0.161	-0.102
-605.157	-78.506	-0.276	0.094
-604.142	175.586	-0.126	0.182
-603.128	-103.057	-0.191	0.045
-602.113	254.619	0.145	0.247
-601.098	-39.926	0.070	0.036
-600.084	-13.501	0.013	0.008
-599.069	-14.210	-0.163	0.104
-598.055	-38.736	0.434	-0.227
-597.040	800.000	-0.018	-0.062
-596.025	-200.000	0.022	-0.464
-595.011	-200.000	-0.000	0.097
-593.996	-68.937	0.300	0.115
-592.982	-113.134	0.117	0.023
-591.967	-72.094	0.112	-0.041
-590.952	-121.305	-0.143	0.024
-589.938	193.204	-0.042	0.063
-588.923	247.004	-0.067	0.112
-587.909	212.958	0.215	-0.337
-586.894	6.143	-0.172	0.127
-585.879	800.000	-0.048	-0.203
-584.865	130.100	-0.228	0.290
-583.850	-200.000	0.041	0.225
-582.836	-63.782	0.203	-0.082
-581.821	-142.654	0.196	-0.019
-580.806	-166.138	-0.268	-0.011
-579.792	415.593	0.068	-0.143
-578.777	800.000	0.037	0.145
-577.763	-27.585	-0.261	-0.151
-576.748	-72.426	0.089	-0.033
-575.733	759.188	-0.101	0.272
-574.719	-200.000	-0.003	0.062
-573.704	88.152	-0.070	-0.077
-572.690	247.802	-0.110	-0.185
-571.675	-135.601	-0.133	0.016
-570.661	38.489	0.432	-0.383
-569.646	800.000	0.014	0.057
-568.631	13.893	0.207	0.160
-567.617	800.000	-0.076	0.230
-566.602	-200.000	0.065	0.418
-565.588	-200.000	-0.037	-0.400
-564.573	-133.241	-0.074	0.009
-563.558	-100.941	-0.066	0.016
-562.544	-97.734	0.406	-0.104
-561.529	-200.000	-0.041	0.233
-560.515	175.618	-0.245	-0.352
-559.500	-75.675	-0.254	-0.090
-558.485	800.000	-0.044	0.168
-557.471	-75.846	-0.290	-0.102
-556.456	16.880	0.011	-0.008
-555.442	316.873	0.092	-0.172
-554.427	-200.000	-0.004	0.043
-553.412	38.566	0.151	-0.134
-552.398	-200.000	0.040	-0.323
-551.383	-200.000	0.015	0.081
-550.369	130.161	0.024	-0.030
-549.354	18.915	-0.059	0.047
-548.339	-200.000	0.042	0.225
-547.325	-50.661	0.111	0.052
-546.310	-166.405	-0.156	0.006
-545.296	412.599	-0.038	0.080
-544.281	-164.576	0.291	-0.013
-543.266	48.551	0.093	-0.087
-542.252	174.043	-0.044	-0.063
-541.237	-130.761	-0.146	0.019
-540.223	-200.000	0.047	0.391
-539.208	-143.392	-0.298	-0.028
-538.193	-91.219	0.242	0.069
-537.179	-200.000	0.075	0.415
-536.164	31.518	0.068	0.058
-535.150	148.739	-0.229	0.306
-534.135	-89.313	-0.207	-0.060
-533.121	-200.000	-0.023	-0.367
-532.106	800.000	0.054	0.206
-531.091	509.469	0.087	0.200
-530.077	800.000	-0.100	-0.311
-529.062	512.708	0.044	0.101
-528.048	2.716	-0.080	-0.058
-527.033	800.000	0.089	0.255
-526.018	-43.488	-0.199	0.100
-525.004	800.000	-0.045	-0.139
-523.989	-125.205	0.183	-0.028
-522.975	-121.343	-0.242	0.040
-521.960	343.425	0.057	0.111
-520.945	53.767	0.115	0.109
-519.931	365.668	-0.078	0.155
-518.916	398.932	0.031	-0.064
-517.902	800.000	0.092	0.332
-516.887	-15.637	-0.346	0.219
-515.872	-107.729	-0.199	0.043
-514.858	-200.000	-0.015	-0.135
-513.843	800.000	-0.039	-0.124
-512.829	-200.000	0.012	0.168
-511.814	111.790	0.200	-0.239
-510.799	48.894	0.132	0.122
-509.785	37.243	-0.154	0.135
-508.770	36.798	-0.117	-0.102
-507.756	-60.151	0.095	0.040
-506.741	-200.000	0.009	-0.144
-505.726	585.083	-0.046	-0.111
-504.712	-95.688	0.297	0.079
-503.697	0.746	-0.144	0.102
-502.683	-72.123	0.083	-0.031
-501.668	-200.000	-0.054	-0.440
-500.653	-147.791	-0.221	-0.018
-499.639	255.995	0.119	-0.202
-498.624	-12.558	0.149	-0.096
-497.610	-158.832	-0.192	-0.011
-496.595	6.430	-0.273	-0.201
-495.581	118.270	-0.071	-0.087
-494.566	-34.730	0.108	-0.059
-493.551	-200.000	0.018	-0.210
-492.537	800.000	-0.011	0.037
-491.522	-200.000	-0.005	-0.032
-490.508	39.652	0.139	-0.123
-489.493	-200.000	-0.031	0.445
-488.478	-92.152	-0.351	-0.098
-487.464	209.246	0.038	0.059
-486.449	109.283	0.078	0.093
-485.435	-200.000	-0.029	0.138
-484.420	-111.255	-0.217	0.044
-483.405	229.655	-0.146	0.236
-482.391	-200.000	-0.050	0.239
-481.376	10.033	-0.158	-0.119
-480.362	22.688	-0.036	-0.029
-479.347	205.617	0.035	-0.054
-478.332	-26.542	0.127	0.073
-477.318	-60.267	0.162	0.068
-476.303	-91.534	-0.199	-0.056
-475.289	453.657	-0.103	0.225
-474.274	643.753	0.166	0.419
-473.259	-200.000	-0.000	-0.113
-472.245	-200.000	0.011	0.073
-471.230	-61.269	-0.278	0.116
-470.216	-200.000	-0.019	-0.208
-469.201	-122.874	-0.249	-0.040
-468.186	59.489	0.365	-0.356
-467.172	93.882	-0.103	-0.116
-466.157	316.864	0.120	0.224
-465.143	800.000	-0.107	-0.317
-464.128	-200.000	0.028	-0.319
-463.113	-86.219	0.103	-0.031
-462.099	800.000	0.080	-0.266
-461.084	46.563	0.334	-0.307
-460.070	-80.862	-0.287	-0.094
-459.055	44.595	-0.190	-0.172
-458.040	89.716	-0.083	-0.091
-457.026	-200.000	0.076	0.400
-456.011	57.027	0.059	-0.057
-454.997	800.000	-0.080	0.306
-453.982	-200.000	0.009	-0.072
-452.968	-36.857	-0.268	0.142
-451.953	253.622	-0.250	0.422
-450.938	-52.915	0.143	0.065
-449.924	-181.287	0.087	0.002
-448.909	-149.104	-0.082	0.006
-447.895	-110.705	-0.186	0.038
-446.880	13.217	-0.137	-0.105
-445.865	-200.000	0.007	0.171
-444.851	-178.050	0.112	0.003
-443.836	100.906	-0.229	-0.263
-442.822	-200.000	0.001	-0.017
-441.807	0.141	-0.265	0.187
-440.792	-114.134	-0.197	-0.038
-439.778	114.469	0.258	-0.310
-438.763	-200.000	-0.014	-0.159
-437.749	-83.545	-0.410	0.130
-436.734	-6.548	-0.209	0.140
-435.719	-119.343	0.046	0.008
-434.705	-159.943	0.204	-0.011
-433.690	-49.661	-0.059	0.028
-432.676	-92.149	0.148	0.041
-431.661	240.210	-0.061	0.101
-430.646	-177.318	-0.008	-0.000
-429.632	-66.873	0.227	0.089
-428.617	-115.867	-0.196	0.036
-427.603	-31.595	0.223	-0.124
-426.588	341.520	-0.098	0.190
-425.573	182.692	-0.059	0.086
-424.559	-200.000	-0.048	-0.302
-423.544	800.000	0.050	-0.160
-422.530	667.556	0.082	0.209
-421.515	56.801	0.140	0.134
-420.500	405.528	-0.047	-0.097
-419.486	220.855	0.156	-0.247
-418.471	-34.055	-0.147	-0.080
-417.457	192.073	0.150	0.224
-416.442	26.260	0.096	-0.080
-415.428	18.756	0.127	-0.100
-414.413	-84.961	0.078	-0.024
-413.398	-200.000	-0.042	0.368
-412.384	-46.570	-0.086	0.042
-411.369	-102.125	0.346	-0.082
-410.355	-45.985	-0.185	-0.090
-409.340	21.087	0.225	-0.180
-408.325	800.000	0.006	-0.022
-407.311	-126.183	-0.180	-0.027
-406.296	519.723	0.093	-0.216
-405.282	-12.662	0.301	-0.194
-404.267	-43.186	0.168	0.084
-403.252	-4.346	0.155	-0.106
-402.238	-4.138	-0.345	0.235
-401.223	-174.943	0.073	-0.002
-400.209	-123.234	-0.268	-0.042
-399.194	-200.000	-0.004	0.096
-398.179	-200.000	0.048	0.541
-397.165	-118.676	0.209	0.036
-396.150	13.718	-0.146	0.111
-395.136	255.669	-0.216	0.365
-394.121	-106.434	-0.024	-0.005
-393.106	-55.873	0.108	0.048
-392.092	-77.953	-0.081	0.028
-391.077	155.214	-0.119	-0.162
-390.063	-156.659	0.264	0.016
-389.048	205.844	-0.107	0.164
-388.033	-104.534	-0.051	0.012
-387.019	322.722	-0.090	0.170
-386.004	7.616	0.151	0.112
-384.990	26.102	0.080	-0.066
-383.975	776.931	0.051	0.136
-382.960	-200.000	0.002	-0.065
-381.946	-139.100	0.193	0.021
-380.931	269.139	0.056	0.097
-379.917	276.791	-0.160	-0.280
-378.902	-38.864	-0.186	-0.097
-377.888	182.818	0.022	0.032
-376.873	-200.000	0.021	-0.112
-375.858	536.586	-0.070	-0.163
-374.844	-127.023	-0.106	-0.015
-373.829	-99.157	0.263	0.066
-372.815	182.251	-0.096	0.140
-371.800	-47.340	-0.391	-0.187
-370.785	78.310	-0.171	-0.180
-369.771	66.062	0.082	-0.082
-368.756	82.982	-0.099	-0.106
-367.742	2.343	-0.178	0.127
-366.727	-154.309	0.185	-0.012
-365.712	800.000	0.049	0.136
-364.698	198.008	-0.120	0.181
-363.683	-82.146	-0.216	-0.069
-362.669	310.108	0.058	-0.107
-361.654	50.357	0.095	-0.088
-360.639	290.313	0.076	0.136
-359.625	-200.000	-0.028	-0.161
-358.610	717.164	0.040	0.105
-357.596	-15.132	0.157	0.099
-356.581	128.378	-0.138	-0.174
-355.566	131.484	-0.083	0.105
-354.552	233.600	0.093	-0.150
-353.537	-200.000	-0.052	0.442
-352.523	111.339	-0.097	0.115
-351.508	-69.607	-0.263	-0.099
-350.493	18.887	-0.156	-0.123
-349.479	800.000	-0.059	0.176
-348.464	-200.000	-0.018	-0.158
-347.450	-200.000	-0.043	-0.229
-346.435	169.108	0.119	0.167
-345.420	-141.943	0.393	-0.039
-344.406	480.652	0.051	0.115
-343.391	351.989	-0.166	0.324
-342.377	82.643	-0.180	0.193
-341.362	-20.254	0.139	-0.084
-340.348	373.314	-0.147	0.294
-339.333	120.592	-0.030	-0.037
-338.318	-200.000	0.029	-0.244
-337.304	800.000	-0.093	0.329
-336.289	58.791	-0.029	0.028
-335.275	48.463	-0.207	-0.191
-334.260	400.378	0.090	0.187
-333.245	-83.722	0.078	-0.025
-332.231	599.948	0.068	0.167
-331.216	800.000	-0.077	-0.214
-330.202	343.145	-0.043	-0.082
-329.187	-94.423	0.515	-0.138
-328.172	-29.155	-0.057	-0.032
-327.158	800.000	-0.109	0.315
-326.143	-200.000	-0.003	0.122
-325.129	-4.233	-0.329	0.224
-324.114	311.833	0.118	-0.217
-323.099	25.768	0.314	0.257
-322.085	-89.113	0.210	0.061
-321.070	-0.751	0.148	0.103
-320.056	100.413	0.144	-0.164
-319.041	-22.807	-0.234	0.139
-318.026	-17.382	0.230	0.142
-317.012	-169.206	0.406	0.015
-315.997	-8.724	0.206	-0.136
-314.983	-130.218	0.209	0.028
-313.968	-200.000	0.034	-0.303
-312.953	-152.205	-0.159	-0.011
-311.939	-200.000	0.035	0.304
-310.924	-200.000	-0.012	0.166
-309.910	148.319	-0.215	-0.285
-308.895	184.807	-0.155	-0.226
-307.880	58.440	-0.088	0.085
-306.866	132.601	0.099	-0.126
-305.851	231.145	-0.199	-0.321
-304.837	192.271	0.077	0.114
-303.822	-200.000	0.006	-0.193
-302.807	181.086	-0.038	0.054
-301.793	-131.417	-0.137	-0.018
-300.778	800.000	0.073	0.209
-299.764	-200.000	0.010	-0.133
-298.749	90.447	0.111	-0.123
-297.735	800.000	-0.050	0.202
-296.720	-128.544	-0.224	-0.031
-295.705	-82.207	0.175	-0.056
-294.691	-135.026	0.162	-0.019
-293.676	13.229	0.194	-0.148
-292.662	99.991	-0.285	-0.324
-291.647	-118.349	0.130	0.023
-290.632	-200.000	0.020	-0.139
-289.618	-69.636	0.162	0.061
-288.603	-113.384	0.573	0.110
-287.589	-7.449	-0.178	0.118
-286.574	-23.104	0.241	-0.143
-285.559	45.512	0.193	0.175
-284.545	420.740	0.161	-0.340
-283.530	49.722	-0.092	0.085
-282.516	-200.000	-0.067	0.303
-281.501	-1.943	-0.358	0.247
-280.486	-5.865	0.152	0.102
-279.472	765.433	-0.138	-0.369
-278.457	-182.823	0.338	-0.006
-277.443	196.723	-0.082	0.122
-276.428	-136.261	-0.215	-0.025
-275.413	800.000	0.061	0.198
-274.399	228.812	0.148	-0.236
-273.384	-52.136	-0.198	0.090
-272.370	356.644	-0.041	-0.080
-271.355	-58.982	0.229	0.097
-270.340	452.780	0.151	0.328
-269.326	190.113	0.060	-0.088
-268.311	-9.904	0.075	0.049
-267.297	-76.656	0.128	-0.044
-266.282	614.042	0.101	-0.247
-265.267	-200.000	-0.018	-0.181
-264.253	345.807	0.147	0.283
-263.238	735.026	0.076	0.200
-262.224	-200.000	-0.002	0.132
-261.209	0.146	0.175	-0.123
-260.195	800.000	0.054	-0.220
-259.180	64.196	0.064	0.063
-258.165	-200.000	0.033	-0.241
-257.151	-13.028	-0.213	0.136
-256.136	224.402	0.058	0.092
-255.122	-115.101	-0.117	-0.022
-254.107	293.443	-0.057	0.102
-253.092	-169.277	0.170	-0.006
-252.078	-53.197	0.244	0.110
-251.063	800.000	0.099	0.332
-250.049	-28.282	0.030	-0.017
-249.034	46.967	0.190	0.174
-248.019	-4.117	-0.089	0.061
-247.005	30.855	0.073	0.061
-245.990	-200.000	-0.016	-0.099
-244.976	-200.000	-0.028	-0.125
-243.961	-200.000	-0.060	-0.289
-242.946	-71.148	-0.358	-0.132
-241.932	142.171	0.087	-0.113
-240.917	800.000	-0.039	0.118
-239.903	168.783	-0.036	-0.051
-238.888	644.017	-0.085	0.212
-237.873	519.987	0.116	0.267
-236.859	800.000	0.097	0.296
-235.844	800.000	-0.065	-0.187
-234.830	301.383	-0.133	0.240
-233.815	21.524	-0.393	-0.313
-232.800	-62.085	-0.043	-0.018
-231.786	390.872	0.029	0.058
-230.771	251.340	0.112	-0.187
-229.757	-63.771	0.491	-0.197
-228.742	-81.880	0.183	-0.059
-227.727	800.000	-0.061	0.197
-226.713	-5.328	-0.031	-0.021
-225.698	-108.308	0.134	-0.028
-224.684	-12.507	0.305	0.195
-223.669	170.133	-0.119	0.166
-222.655	498.945	0.177	0.399
-221.640	62.919	-0.064	0.063
-220.625	32.714	0.179	0.152
-219.611	-168.414	-0.337	-0.013
-218.596	-200.000	-0.003	-0.050
-217.582	236.230	-0.179	-0.289
-216.567	413.195	0.032	-0.066
-215.552	214.217	-0.019	-0.029
-214.538	800.000	-0.066	-0.193
-213.523	-70.264	0.238	-0.088
-212.509	293.448	0.229	0.409
-211.494	-200.000	-0.002	-0.156
-210.479	-8.006	-0.292	0.193
-209.465	83.043	-0.126	-0.134
-208.450	-109.403	0.180	0.037
-207.436	-200.000	0.030	-0.200
-206.421	-105.738	0.163	0.036
-205.406	-4.555	0.036	0.024
-204.392	-200.000	0.039	0.271
-203.377	-200.000	0.020	-0.206
-202.363	42.781	-0.017	0.015
-201.348	-120.087	-0.068	-0.011
-200.333	-12.606	-0.047	-0.030
-199.319	-200.000	0.028	-0.131
-198.304	-58.366	0.067	0.028
-197.290	32.193	0.192	-0.162
-196.275	-5.558	-0.021	-0.014
-195.260	550.684	0.079	0.185
-194.246	188.127	-0.116	0.169
-193.231	405.106	0.089	0.184
-192.217	-109.882	-0.457	0.094
-191.202	-136.300	0.194	-0.022
-190.187	325.274	0.028	0.053
-189.173	-200.000	0.014	-0.294
-188.158	611.474	-0.098	-0.240
-187.144	-200.000	0.019	-0.087
-186.129	-200.000	0.034	-0.201
-185.114	-137.288	0.277	0.031
-184.100	81.268	-0.057	-0.060
-183.085	10.658	0.015	-0.011
-182.071	178.505	-0.211	0.301
-181.056	108.644	-0.178	0.208
-180.042	581.168	-0.090	-0.217
-179.027	-200.000	-0.003	0.079
-178.012	-200.000	0.001	-0.226
-176.998	-145.885	-0.166	-0.014
-175.983	441.278	-0.159	-0.341
-174.969	29.926	-0.182	0.151
-173.954	800.000	0.098	0.298
-172.939	-200.000	-0.004	0.127
-171.925	-200.000	-0.020	-0.119
-170.910	557.237	-0.119	-0.280
-169.896	-123.396	0.208	0.032
-168.881	494.266	-0.026	0.059
-167.866	16.435	-0.105	-0.081
-166.852	36.493	0.152	-0.131
-165.837	-200.000	-0.002	-0.087
-164.823	800.000	-0.061	-0.180
-163.808	-40.459	0.230	-0.117
-162.793	289.517	-0.045	-0.080
-161.779	-146.986	0.296	-0.025
-160.764	-14.804	0.302	0.189
-159.750	679.429	-0.087	-0.221
-158.735	114.542	0.058	-0.069
-157.720	800.000	0.058	-0.223
-156.706	601.348	0.131	-0.317
-155.691	126.271	0.091	0.112
-154.677	280.466	0.097	0.169
-153.662	50.540	0.055	-0.051
-152.647	-69.053	0.220	-0.083
-151.633	106.124	-0.057	0.066
-150.618	126.161	0.204	0.252
-149.604	800.000	0.079	-0.237
-148.589	-200.000	-0.040	0.458
-147.574	176.155	-0.034	-0.048
-146.560	48.794	0.032	0.029
-145.545	800.000	-0.016	0.053
-144.531	-200.000	-0.001	-0.041
-143.516	800.000	-0.127	-0.411
-142.502	-74.092	-0.352	-0.125
-141.487	212.662	0.186	0.287
-140.472	-79.654	0.219	0.072
-139.458	26.175	-0.109	-0.089
-138.443	-200.000	0.000	-0.257
-137.429	-92.480	-0.085	0.023
-136.414	-200.000	0.034	0.308
-135.399	61.014	0.126	0.122
-134.385	107.408	-0.148	-0.171
-133.370	-200.000	-0.009	0.217
-132.356	91.121	0.173	-0.189
-131.341	-155.955	-0.118	0.007
-130.326	-200.000	-0.000	0.246
-129.312	-200.000	0.010	-0.196
-128.297	-134.171	-0.204	0.025
-127.283	-73.031	0.449	0.161
-126.268	-38.261	0.272	-0.140
-125.253	800.000	0.080	0.298
-124.239	708.698	-0.115	0.297
-123.224	10.508	-0.071	0.053
-122.210	-50.927	0.068	0.031
-121.195	-200.000	0.022	0.299
-120.180	800.000	-0.037	0.120
-119.166	81.554	-0.234	0.247
-118.151	15.587	0.136	0.105
-117.137	232.552	0.100	0.160
-116.122	-200.000	0.001	0.208
-115.107	-150.651	0.374	0.028
-114.093	-25.171	-0.219	-0.127
-113.078	-111.603	0.057	0.011
-112.064	800.000	-0.048	-0.172
-111.049	-200.000	0.016	-0.167
-110.034	-191.163	0.137	-0.001
-109.020	405.837	-0.182	0.374
-108.005	24.628	0.106	-0.085
-106.991	62.748	-0.133	0.130
-105.976	390.005	0.080	0.162
-104.962	-200.000	-0.007	-0.093
-103.947	-25.976	0.101	-0.058
-102.932	-200.000	-0.003	-0.062
-101.918	257.379	-0.104	0.174
-100.903	585.558	-0.073	0.176
-99.889	-21.104	-0.106	-0.063
-98.874	-29.917	-0.145	-0.081
-97.859	-200.000	0.001	0.059
-96.845	-88.800	0.140	-0.040
-95.830	800.000	0.035	-0.136
-94.816	-80.398	0.091	0.030
-93.801	186.194	0.084	-0.122
-92.786	-200.000	0.038	-0.258
-91.772	800.000	-0.083	-0.243
-90.757	-111.229	0.241	-0.048
-89.743	263.401	0.051	0.086
-88.728	-78.518	-0.212	0.071
-87.713	155.371	0.273	0.365
-86.699	97.654	-0.094	0.105
-85.684	-200.000	-0.095	0.587
-84.670	74.996	0.241	0.248
-83.655	124.571	-0.102	-0.125
-82.640	-59.008	0.190	0.080
-81.626	22.937	0.202	-0.161
-80.611	72.800	-0.174	0.177
-79.597	-24.877	0.104	0.060
-78.582	800.000	-0.057	-0.199
-77.567	44.762	0.184	-0.165
-76.553	27.896	-0.219	-0.180
-75.538	-106.664	0.182	-0.039
-74.524	78.362	0.106	0.110
-73.509	58.873	0.094	-0.090
-72.494	291.844	-0.132	0.234
-71.480	800.000	-0.031	-0.093
-70.465	-127.068	-0.309	-0.044
-69.451	219.787	0.061	-0.096
-68.436	-200.000	-0.028	0.283
-67.422	-137.572	0.160	0.018
-66.407	-124.260	0.220	0.033
-65.392	69.257	-0.192	0.192
-64.378	-2.207	0.221	0.151
-63.363	249.569	-0.092	-0.152
-62.349	-89.326	-0.132	0.038
-61.334	118.177	-1.214	-1.457
-60.319	1.022	0.853	0.595
-59.305	378.728	-0.572	-1.140
-58.290	222.212	1.000	1.566
-57.276	800.000	0.464	1.567
-56.261	-200.000	135.033	688.354
-55.246	341.353	1676.023	3186.055
-54.232	134.623	2802.111	3537.095
-53.217	87.932	2192.149	2364.151
-52.203	31.416	1708.777	1427.985
-51.188	24.226	1532.160	1230.883
-50.173	22.578	1510.077	1201.865
-49.159	47.188	1585.268	1435.248
-48.144	43.826	1595.957	1421.323
-47.130	24.277	1544.484	1240.944
-46.115	21.465	1528.757	1208.858
-45.100	21.314	1524.717	1204.568
-44.086	21.306	1523.034	1203.140
-43.071	21.222	1521.323	1201.161
-42.057	21.186	1520.126	1199.920
-41.042	21.250	1517.989	1198.628
-40.027	21.147	1516.992	1197.086
-39.013	21.203	1514.837	1195.720
-37.998	21.166	1514.264	1194.967
-36.984	21.067	1513.343	1193.512
-35.969	21.162	1511.511	1192.672
-34.954	21.203	1510.113	1191.802
-33.940	21.187	1508.901	1190.689
-32.925	21.260	1507.322	1189.896
-31.911	21.224	1506.271	1188.772
-30.896	21.319	1504.463	1187.943
-29.881	21.308	1503.492	1187.055
-28.867	21.345	1502.457	1186.440
-27.852	21.359	1500.366	1184.839
-26.838	21.310	1499.652	1183.892
-25.823	21.358	1497.591	1182.547
-24.809	21.321	1496.444	1181.345
-23.794	21.329	1494.904	1180.134
-22.779	21.342	1493.553	1179.108
-21.765	21.223	1493.261	1178.028
-20.750	21.180	1492.379	1176.996
-19.736	21.249	1491.223	1176.504
-18.721	21.336	1489.664	1175.810
-17.706	21.350	1488.201	1174.702
-16.692	21.226	1487.617	1173.362
-15.677	21.288	1486.371	1172.753
-14.663	21.240	1485.162	1171.431
-13.648	21.281	1484.665	1171.265
-12.633	21.263	1483.394	1170.091
-11.619	21.189	1482.969	1169.220
-10.604	21.223	1481.830	1168.499
-9.590	21.293	1480.888	1168.180
-8.575	21.271	1480.589	1167.748
-7.560	21.142	1479.958	1166.345
-6.546	21.220	1478.432	1165.617
-5.531	21.296	1477.656	1165.464
-4.517	21.276	1476.288	1164.210
-3.502	21.288	1475.519	1163.633
-2.487	21.223	1474.316	1162.203
-1.473	21.255	1473.378	1161.637
-0.458	21.265	1472.272	1160.781
0.556	20.183	1461.954	1148.433
1.571	16.948	1437.631	1108.128
2.586	13.520	1375.751	1038.865
3.600	11.997	1291.132	965.912
4.615	11.026	1247.898	927.948
5.629	9.791	1190.942	878.794
6.644	5.242	1110.269	796.050
7.659	1.217	1075.791	751.356
8.673	0.764	1070.355	745.260
9.688	0.692	1067.510	742.859
10.702	0.555	1066.211	741.217
11.717	0.720	1063.737	740.237
12.731	2.258	1063.824	747.762
13.746	7.837	1071.161	780.272
14.761	13.979	1080.217	817.093
15.775	16.929	1083.539	834.061
16.790	16.921	1081.999	832.764
17.804	16.090	1079.799	826.923
18.819	15.082	1078.127	820.630
19.834	14.648	1076.913	817.511
20.848	14.474	1075.605	815.596
21.863	14.248	1075.224	814.126
22.877	13.954	1074.220	811.858
23.892	13.765	1073.303	810.171
24.907	13.690	1072.313	808.988
25.921	13.586	1071.978	808.156
26.936	13.771	1071.140	808.351
27.950	13.699	1070.612	807.533
28.965	13.728	1069.791	806.983
29.980	13.729	1068.878	806.226
30.994	13.932	1067.689	806.246
32.009	13.879	1066.791	805.240
33.023	13.906	1066.135	804.800
34.038	13.899	1065.126	803.933
35.053	13.806	1064.770	803.147
36.067	13.886	1063.283	802.337
37.082	13.767	1062.976	801.461
38.096	13.817	1061.984	800.882
39.111	13.827	1061.281	800.332
40.126	13.892	1059.967	799.582
41.140	13.968	1058.423	798.715
42.155	13.811	1057.811	797.428
43.169	13.746	1057.161	796.554
44.184	13.595	1056.439	795.215
45.199	13.723	1054.773	794.505
46.213	13.738	1053.822	793.787
47.228	13.779	1052.835	793.168
48.242	13.708	1051.557	791.800
49.257	13.834	1050.871	791.811
50.271	13.798	1050.079	790.977
51.286	13.691	1049.535	789.986
52.301	13.958	1047.953	789.994
53.315	13.760	1047.496	788.638
54.330	13.724	1047.171	788.154
55.344	13.805	1046.290	787.806
56.359	13.822	1044.997	786.844
57.374	13.767	1044.831	786.389
58.388	13.796	1043.222	785.244
59.403	13.798	1042.791	784.859
60.417	13.680	1041.763	783.457
61.432	13.646	1041.233	782.829
62.447	13.705	1040.324	782.355
63.461	13.701	1039.272	781.476
64.476	13.827	1038.304	781.271
65.490	13.736	1037.592	780.241
66.505	13.552	1037.272	779.065
67.520	13.727	1035.773	778.692
68.534	13.661	1035.440	778.065
69.549	13.737	1034.515	777.653
70.563	13.742	1033.507	776.851
71.578	13.603	1033.327	775.997
72.593	13.595	1031.959	774.864
73.607	13.569	1030.782	773.790
74.622	13.654	1030.036	773.560
75.636	13.680	1029.030	772.857
76.651	13.669	1028.734	772.511
77.666	13.801	1027.549	772.169
78.680	13.706	1027.053	771.288
79.695	13.635	1026.623	770.565
80.709	13.676	1026.047	770.256
81.724	13.643	1024.969	769.226
82.739	13.711	1024.492	769.116
83.753	13.771	1023.302	768.432
84.768	13.735	1022.461	767.564
85.782	13.910	1021.818	767.822
86.797	13.799	1021.245	766.813
87.812	13.782	1020.317	765.968
88.826	13.881	1019.726	765.915
89.841	14.003	1018.234	765.289
90.855	13.911	1017.830	764.491
91.870	13.797	1017.009	763.282
92.884	13.768	1016.603	762.778
93.899	13.990	1015.418	762.841
94.914	13.965	1014.763	762.169
95.928	13.969	1013.798	761.393
96.943	13.963	1013.088	760.764
97.957	13.864	1012.365	759.702
98.972	13.906	1011.604	759.256
99.987	13.938	1010.764	758.705
101.001	13.832	1010.245	757.764
102.016	13.821	1009.550	757.124
103.030	13.921	1008.230	756.525
104.045	13.870	1007.526	755.697
105.060	13.975	1005.994	754.959
106.074	13.977	1005.311	754.388
107.089	13.917	1004.201	753.216
108.103	13.834	1003.652	752.360
109.118	13.818	1002.644	751.467
110.133	13.910	1001.898	751.255
111.147	13.905	1000.956	750.460
112.162	13.817	1000.264	749.477
113.176	13.769	999.454	748.588
114.191	13.867	998.255	748.066
115.206	13.786	997.598	747.141
116.220	13.928	996.578	746.949
117.235	13.952	995.741	746.366
118.249	13.840	995.220	745.405
119.264	13.826	994.250	744.549
120.279	13.774	993.309	743.548
121.293	13.740	992.539	742.752
122.308	13.786	991.901	742.417
123.322	13.827	990.449	741.448
124.337	13.650	989.725	740.050
125.352	13.869	988.133	739.768
126.366	13.832	987.406	738.996
127.381	13.664	986.408	737.433
128.395	13.696	985.691	736.974
129.410	13.795	984.595	736.529
130.424	13.837	983.624	735.926
131.439	13.835	982.558	735.054
132.454	13.827	981.947	734.497
133.468	13.947	980.890	734.170
134.483	13.933	980.062	733.426
135.497	13.949	979.787	733.223
136.512	13.808	978.971	731.928
137.527	13.763	978.462	731.284
138.541	13.779	977.930	730.892
139.556	13.886	976.950	730.565
140.570	13.913	976.079	729.969
141.585	13.942	975.351	729.489
142.600	13.976	974.560	728.978
143.614	13.973	974.008	728.491
144.629	13.997	973.265	727.973
145.643	14.027	972.362	727.367
146.658	13.964	971.194	726.150
147.673	14.079	970.182	725.832
148.687	13.956	969.436	724.673
149.702	14.029	968.556	724.269
150.716	13.919	967.874	723.217
151.731	14.001	966.660	722.603
152.746	14.027	966.130	722.254
153.760	14.041	965.203	721.559
154.775	13.989	964.308	720.604
155.789	14.144	963.460	720.573
156.804	14.119	962.657	719.805
157.819	13.979	962.500	719.016
158.833	14.160	961.516	719.001
159.848	14.083	960.943	718.175
160.862	14.210	960.200	718.106
161.877	14.142	959.422	717.165
162.892	14.028	958.676	716.055
163.906	14.064	958.012	715.649
164.921	14.197	956.739	715.209
165.935	14.086	956.237	714.291
166.950	14.262	954.708	713.841
167.964	14.249	953.600	712.893
168.979	14.191	952.686	711.901
169.994	14.123	952.450	711.369
171.008	14.114	951.631	710.657
172.023	14.269	950.606	710.489
173.037	14.217	949.801	709.603
174.052	14.191	949.266	709.030
175.067	14.138	948.527	708.187
176.081	14.246	947.725	707.987
177.096	14.153	946.871	706.890
178.110	14.269	945.877	706.580
179.125	14.279	944.867	705.806
180.140	14.270	944.001	705.058
181.154	14.223	943.499	704.421
182.169	14.241	943.332	704.311
183.183	14.394	942.313	704.132
184.198	14.483	941.233	703.639
185.213	14.349	940.787	702.680
186.227	14.440	940.052	702.451
187.242	14.484	939.088	701.853
188.256	14.293	939.654	701.412
189.271	14.433	938.457	701.045
190.286	14.519	937.613	700.711
191.300	14.417	936.752	699.580
192.315	14.344	936.264	698.848
193.329	14.268	935.319	697.759
194.344	14.425	934.373	697.648
195.359	14.372	933.954	697.055
196.373	14.383	933.504	696.705
197.388	14.512	932.885	696.717
198.402	14.442	932.400	696.001
199.417	14.531	932.123	696.105
200.432	14.489	931.839	695.657
201.446	14.694	930.461	695.421
202.461	14.667	930.579	695.335
203.475	14.631	930.254	694.879
204.490	14.590	929.304	693.938
205.504	14.731	928.251	693.675
206.519	14.580	927.930	692.746
207.534	14.768	926.478	692.382
208.548	14.702	926.187	691.830
209.563	14.723	925.251	691.156
210.577	14.562	925.185	690.378
211.592	14.761	923.888	690.172
212.607	14.826	923.628	690.187
213.621	14.893	922.966	689.907
214.636	14.819	922.539	689.223
215.650	14.934	921.701	689.007
216.665	14.933	920.931	688.365
217.680	14.860	920.627	687.779
218.694	14.963	919.745	687.484
219.709	14.879	919.283	686.730
220.723	14.884	918.446	686.065
221.738	14.957	917.969	685.948
222.753	14.849	917.467	685.071
223.767	14.975	916.101	684.505
224.782	14.965	915.737	684.131
225.796	14.947	914.942	683.402
226.811	15.026	914.281	683.171
227.826	15.058	913.615	682.743
228.840	15.082	912.681	682.083
229.855	15.113	912.016	681.652
230.869	15.116	911.323	681.084
231.884	15.173	910.787	680.857
232.899	15.071	910.285	680.008
233.913	14.979	910.010	679.367
234.928	15.122	908.920	679.073
235.942	15.111	907.886	678.198
236.957	14.975	907.469	677.274
237.972	14.989	906.705	676.701
238.986	15.024	905.908	676.187
240.001	15.037	905.659	675.996
241.015	15.013	904.899	675.271
242.030	15.155	903.848	674.998
243.045	15.152	903.528	674.686
244.059	15.243	903.008	674.607
245.074	15.198	902.394	673.907
246.088	15.053	902.028	672.990
247.103	15.258	901.440	673.317
248.117	15.232	900.280	672.286
249.132	15.312	899.945	672.297
250.147	15.335	898.993	671.619
251.161	15.272	898.735	671.116
252.176	15.466	897.611	670.992
253.190	15.400	897.061	670.255
254.205	15.342	896.837	669.797
255.220	15.418	896.366	669.691
256.234	15.471	895.298	669.044
257.249	15.558	894.339	668.617
258.263	15.523	893.811	668.021
259.278	15.510	893.357	667.574
260.293	15.781	892.647	668.058
261.307	15.513	892.468	666.802
262.322	15.736	891.832	667.153
263.336	15.705	891.220	666.512
264.351	15.866	889.996	666.174
265.366	15.615	889.943	665.083
266.380	15.828	888.894	665.082
267.395	15.691	888.466	664.161
268.409	15.787	887.809	663.993
269.424	15.835	886.845	663.403
270.439	15.759	886.543	662.816
271.453	15.696	885.625	661.825
272.468	15.844	884.621	661.598
273.482	15.776	884.175	660.938
274.497	15.831	883.599	660.663
275.512	15.849	882.677	659.987
276.526	15.812	882.001	659.280
277.541	15.791	881.258	658.583
278.555	15.706	880.869	657.901
279.570	15.843	880.161	657.851
280.585	15.929	879.602	657.709
281.599	15.982	879.151	657.520
282.614	15.912	878.364	656.599
283.628	15.945	877.962	656.371
284.643	15.900	877.497	655.789
285.657	15.961	877.080	655.660
286.672	15.877	876.881	655.123
287.687	15.955	876.079	654.771
288.701	15.952	875.570	654.321
289.716	15.988	874.588	653.666
290.730	16.042	874.049	653.419
291.745	16.153	872.847	652.890
292.760	16.068	872.597	652.318
293.774	16.076	871.994	651.839
294.789	16.176	871.867	652.072
295.803	16.149	871.049	651.301
296.818	16.114	870.381	650.607
297.833	16.138	869.396	649.907
298.847	16.173	868.585	649.378
299.862	16.150	868.279	649.002
300.876	16.265	867.486	648.795
301.891	16.235	866.601	647.961
302.906	16.244	866.630	647.957
303.920	16.161	865.890	647.030
304.935	16.243	865.125	646.716
305.949	16.304	864.230	646.223
306.964	16.337	863.837	645.997
307.979	16.355	863.235	645.558
308.993	16.367	862.648	645.107
310.008	16.381	862.191	644.762
311.022	16.397	862.045	644.658
312.037	16.609	860.658	644.371
313.052	16.406	860.503	643.425
314.066	16.335	859.872	642.627
315.081	16.256	859.461	641.963
316.095	16.360	858.768	641.782
317.110	16.437	858.146	641.552
318.125	16.450	858.031	641.460
319.139	16.434	856.916	640.508
320.154	16.499	856.240	640.191
321.168	16.492	855.814	639.791
322.183	16.478	855.562	639.492
323.197	16.678	854.922	639.715
324.212	16.513	854.457	638.685
325.227	16.480	854.154	638.279
326.241	16.557	853.175	637.783
327.256	16.454	852.737	637.009
328.270	16.717	852.115	637.477
329.285	16.709	851.015	636.570
330.300	16.605	850.961	636.080
331.314	16.479	850.943	635.536
332.329	16.546	849.765	634.852
333.343	16.711	849.153	634.958
334.358	16.608	848.809	634.260
335.373	16.716	848.085	634.068
336.387	16.618	847.588	633.271
337.402	16.825	846.766	633.375
338.416	16.731	846.415	632.706
339.431	16.907	845.694	632.769
340.446	16.768	845.200	631.825
341.460	16.830	844.811	631.707
342.475	16.814	844.179	631.119
343.489	16.918	843.343	630.826
344.504	17.019	842.839	630.770
345.519	16.873	842.655	630.032
346.533	16.837	842.261	629.549
347.548	17.007	841.475	629.535
348.562	16.932	841.103	628.924
349.577	16.866	840.182	627.936
350.592	16.937	839.581	627.695
351.606	16.908	839.504	627.475
352.621	16.946	838.682	626.943
353.635	16.935	838.532	626.735
354.650	16.887	837.940	626.059
355.665	16.918	837.549	625.827
356.679	16.900	837.596	625.741
357.694	17.042	836.727	625.560
358.708	16.966	836.200	624.828
359.723	17.210	835.137	624.877
360.738	17.074	835.127	624.314
361.752	17.066	834.522	623.779
362.767	17.176	833.832	623.612
363.781	17.114	833.704	623.234
364.796	17.143	833.135	622.857
365.810	17.117	832.743	622.416
366.825	17.122	832.220	621.988
367.840	17.348	831.795	622.442
368.854	17.326	831.356	621.978
369.869	17.319	830.943	621.588
370.883	17.234	830.535	620.917
371.898	17.308	829.991	620.725
372.913	17.434	828.959	620.357
373.927	17.405	828.424	619.798
374.942	17.329	827.945	619.109
375.956	17.476	827.247	619.065
376.971	17.424	826.491	618.258
377.986	17.498	826.109	618.183
379.000	17.529	825.582	617.846
380.015	17.463	825.469	617.469
381.029	17.681	824.515	617.490
382.044	17.472	824.209	616.449
383.059	17.642	823.451	616.442
384.073	17.674	822.727	615.961
385.088	17.643	822.375	615.533
386.102	17.626	821.712	614.922
387.117	17.506	821.506	614.278
388.132	17.653	821.034	614.403
389.146	17.486	820.299	613.195
390.161	17.719	820.157	613.876
391.175	17.552	819.774	612.932
392.190	17.671	819.413	613.037
393.205	17.534	819.102	612.255
394.219	17.738	818.085	612.177
395.234	17.672	817.944	611.779
396.248	17.777	816.938	611.348
397.263	17.524	816.966	610.408
398.278	17.663	816.506	610.507
399.292	17.559	816.255	609.894
400.307	17.612	815.862	609.737
401.321	17.588	815.193	609.096
402.336	17.687	814.755	609.071
403.350	17.722	814.281	608.788
404.365	17.831	813.837	608.791
405.380	17.829	813.267	608.300
406.394	17.878	812.928	608.168
407.409	17.842	812.357	607.560
408.423	17.857	812.046	607.327
409.438	17.973	811.267	607.103
410.453	18.148	811.128	607.568
411.467	18.011	810.922	606.874
412.482	17.925	810.186	605.964
413.496	18.093	809.482	605.977
414.511	18.135	809.306	605.943
415.526	18.037	808.915	605.249
416.540	18.130	808.437	605.167
417.555	17.966	808.146	604.314
418.569	18.092	807.874	604.504
419.584	18.018	807.476	603.892
420.599	18.104	806.852	603.673
421.613	115.548	1300.165	1490.946
422.628	99.879	1371.983	1491.029
