DTS Sentinel unit serial number:	SN413079Multiplexer serial number:	ORYXHardware model number:	OX4-SRSoftware version number:	ORYX F/W v4.00 Oryx Data Collector v3.7.2.0data status	okinstallation	princeton_trtdifferential loss correction	single-endedforward channel	channel 3reverse channel	N/Adate	2019/09/17time	12:16:35forward acquisition time	60.00reverse acquisition time	0.00gamma	496.2192k internal	0.2319k external	0.2319temperature offset calibration	0.9961default loss term (dB/km)	0.3790temperature slope calibration	1.0000multiplexer offset coefficient	1.0000multiplexer slope coefficient	1.0000fibre end	0.00T internal ref (°C)	31.45T ext. ref 1 (°C)	0.42T ext. ref 2 (°C)	28.21length (m)	temperature (°C)	Stokes	anti-Stokes-747.200	-35.489	-0.231	-0.127
-746.185	111.321	-0.293	0.357
-745.171	-200.000	0.007	0.165
-744.156	-200.000	-0.027	0.316
-743.142	800.000	-0.078	0.236
-742.127	41.252	-0.292	-0.267
-741.112	-200.000	0.036	-0.202
-740.098	441.517	-0.017	-0.038
-739.083	-126.189	0.173	0.026
-738.069	-149.844	0.267	0.021
-737.054	122.993	-0.138	0.175
-736.039	-28.155	-0.181	-0.106
-735.025	-97.554	0.383	0.101
-734.010	33.997	-0.065	-0.057
-732.996	24.677	-0.093	-0.078
-731.981	-65.931	-0.124	-0.050
-730.966	-48.471	-0.145	-0.071
-729.952	-112.230	0.235	0.048
-728.937	-141.644	-0.029	0.003
-727.923	800.000	-0.042	-0.126
-726.908	107.174	-0.043	0.051
-725.894	-95.461	0.404	-0.110
-724.879	-150.715	0.519	-0.040
-723.864	-200.000	0.014	-0.204
-722.850	800.000	0.034	0.098
-721.835	43.956	-0.151	-0.140
-720.821	36.750	0.021	-0.019
-719.806	-3.518	0.189	0.133
-718.791	800.000	0.027	-0.120
-717.777	115.884	-0.098	0.121
-716.762	-135.911	0.123	-0.015
-715.748	73.901	0.123	-0.130
-714.733	-200.000	-0.005	-0.021
-713.718	-49.943	0.369	0.177
-712.704	174.525	-0.020	-0.029
-711.689	-103.501	-0.217	0.052
-710.675	436.093	-0.090	-0.197
-709.660	84.980	0.156	-0.172
-708.645	29.465	0.109	-0.094
-707.631	800.000	0.056	0.181
-706.616	142.125	0.024	-0.032
-705.602	-79.740	0.220	0.075
-704.587	174.918	0.183	-0.268
-703.572	-200.000	-0.050	-0.229
-702.558	-136.133	0.120	-0.014
-701.543	-200.000	0.018	0.179
-700.529	-46.867	-0.259	0.128
-699.514	-200.000	-0.039	-0.437
-698.499	-105.429	0.071	-0.016
-697.485	-200.000	0.020	0.438
-696.470	477.950	0.040	0.092
-695.456	-88.011	-0.158	0.048
-694.441	-200.000	-0.058	-0.471
-693.426	-105.615	0.215	-0.049
-692.412	-200.000	0.002	-0.145
-691.397	-164.103	-0.049	-0.002
-690.383	79.325	-0.184	-0.199
-689.368	-23.094	0.031	0.019
-688.354	-77.363	0.025	-0.009
-687.339	-97.529	-0.092	0.024
-686.324	800.000	0.046	0.143
-685.310	634.325	-0.083	0.213
-684.295	118.488	-0.161	0.201
-683.281	77.977	0.069	0.074
-682.266	-103.168	-0.130	0.031
-681.251	604.524	-0.098	-0.245
-680.237	409.162	0.149	-0.319
-679.222	-200.000	0.001	-0.150
-678.208	-200.000	0.077	0.347
-677.193	432.698	0.158	-0.345
-676.178	-50.933	0.324	-0.153
-675.164	150.202	0.121	-0.166
-674.149	30.964	-0.251	0.217
-673.135	396.154	-0.091	0.191
-672.120	-46.418	-0.237	0.117
-671.105	-200.000	-0.023	0.158
-670.091	-131.371	0.161	0.022
-669.076	-188.474	-0.265	0.003
-668.062	-114.096	0.329	0.064
-667.047	-29.734	-0.075	-0.043
-666.032	-7.730	0.269	0.183
-665.018	-200.000	0.012	0.067
-664.003	-171.996	-0.181	-0.006
-662.989	800.000	0.025	-0.101
-661.974	435.739	-0.087	0.191
-660.959	-200.000	0.001	-0.210
-659.945	-103.887	-0.134	-0.031
-658.930	-200.000	-0.051	-0.276
-657.916	-163.260	0.153	-0.007
-656.901	-115.582	0.018	-0.003
-655.886	134.821	-0.091	-0.119
-654.872	-139.169	0.295	-0.032
-653.857	800.000	-0.052	0.206
-652.843	61.067	0.115	0.116
-651.828	207.335	-0.084	-0.132
-650.814	282.814	0.169	-0.306
-649.799	619.821	-0.020	0.050
-648.784	-86.999	0.171	0.052
-647.770	-200.000	0.008	-0.061
-646.755	-200.000	-0.018	0.209
-645.741	42.331	-0.030	0.027
-644.726	-20.756	-0.224	0.139
-643.711	800.000	0.023	-0.087
-642.697	-18.716	0.056	-0.035
-641.682	800.000	-0.071	-0.270
-640.668	121.973	0.069	0.087
-639.653	434.806	-0.125	-0.274
-638.638	178.024	-0.060	-0.088
-637.624	-200.000	-0.000	-0.183
-636.609	165.624	-0.167	0.238
-635.595	-136.121	-0.236	0.028
-634.580	-200.000	0.024	0.152
-633.565	-33.636	0.403	0.224
-632.551	45.490	-0.047	-0.044
-631.536	-39.306	-0.179	-0.095
-630.522	562.230	-0.054	0.132
-629.507	20.488	0.081	0.066
-628.492	235.249	0.034	0.057
-627.478	-60.439	-0.070	0.030
-626.463	28.507	-0.097	-0.083
-625.449	-17.454	0.255	0.161
-624.434	-26.309	-0.212	0.125
-623.419	252.340	-0.153	-0.263
-622.405	-64.444	0.065	0.027
-621.390	800.000	-0.062	-0.248
-620.376	-50.170	0.189	0.090
-619.361	-200.000	0.018	0.170
-618.346	13.780	-0.186	-0.146
-617.332	-161.183	0.039	-0.002
-616.317	800.000	-0.067	0.256
-615.303	-200.000	0.007	0.258
-614.288	800.000	0.045	0.144
-613.273	-197.534	0.356	-0.002
-612.259	255.814	-0.039	0.067
-611.244	229.606	0.146	0.240
-610.230	28.563	0.211	0.180
-609.215	-69.711	-0.167	0.064
-608.201	204.845	-0.355	-0.554
-607.186	28.788	-0.166	0.141
-606.171	-50.869	0.088	0.041
-605.157	388.363	-0.076	-0.158
-604.142	118.022	0.127	0.157
-603.128	-117.785	-0.136	-0.025
-602.113	207.016	-0.072	0.113
-601.098	-104.900	-0.213	-0.049
-600.084	122.971	0.071	0.089
-599.069	36.187	0.185	-0.164
-598.055	24.664	0.245	0.204
-597.040	-200.000	-0.075	-0.362
-596.025	-27.556	0.060	0.035
-595.011	242.597	0.021	-0.035
-593.996	46.216	0.103	0.096
-592.982	-57.993	-0.346	0.152
-591.967	378.812	0.062	0.128
-590.952	-146.314	0.394	-0.035
-589.938	-88.646	-0.231	-0.069
-588.923	-54.567	-0.233	-0.106
-587.909	-23.947	-0.103	-0.062
-586.894	-41.346	-0.037	-0.019
-585.879	-43.373	-0.083	0.042
-584.865	51.659	-0.138	0.132
-583.850	-142.753	-0.133	0.013
-582.836	800.000	-0.080	0.334
-581.821	-200.000	0.013	-0.090
-580.806	56.224	0.224	-0.219
-579.792	101.710	0.087	-0.102
-578.777	-200.000	-0.030	-0.165
-577.763	800.000	0.030	-0.108
-576.748	-75.411	0.154	-0.055
-575.733	-127.980	-0.231	0.033
-574.719	65.650	0.202	0.206
-573.704	39.749	-0.382	0.344
-572.690	-200.000	-0.005	0.345
-571.675	780.832	0.080	0.221
-570.661	-200.000	0.005	0.367
-569.646	-106.980	0.326	-0.072
-568.631	-200.000	0.042	-0.240
-567.617	-84.519	-0.168	0.053
-566.602	83.178	-0.108	0.118
-565.588	145.834	-0.071	0.096
-564.573	800.000	-0.034	-0.117
-563.558	12.515	-0.106	0.082
-562.544	-57.447	-0.146	-0.064
-561.529	-82.917	-0.082	-0.027
-560.515	-81.722	-0.140	-0.046
-559.500	-200.000	0.043	-0.237
-558.485	-200.000	-0.005	-0.076
-557.471	-41.988	-0.157	-0.081
-556.456	-117.204	-0.078	0.014
-555.442	-141.708	-0.220	-0.022
-554.427	114.805	0.123	0.151
-553.412	734.569	-0.073	-0.197
-552.398	-99.874	0.164	0.041
-551.383	-24.375	-0.140	-0.084
-550.369	-180.437	-0.349	0.007
-549.354	-200.000	0.020	-0.237
-548.339	-50.884	0.184	-0.087
-547.325	70.820	0.164	0.171
-546.310	-26.480	-0.208	-0.123
-545.296	-53.750	0.023	-0.011
-544.281	-45.963	0.146	0.072
-543.266	141.601	-0.167	-0.222
-542.252	6.590	-0.236	0.176
-541.237	-130.186	0.287	-0.039
-540.223	168.149	0.141	-0.202
-539.208	-43.352	-0.223	-0.113
-538.193	63.537	0.045	0.045
-537.179	349.930	0.031	-0.062
-536.164	800.000	-0.086	0.342
-535.150	31.709	-0.143	0.123
-534.135	-59.997	0.097	-0.041
-533.121	-200.000	-0.034	-0.323
-532.106	-200.000	0.016	0.239
-531.091	-101.663	0.174	-0.042
-530.077	-103.566	-0.405	-0.095
-529.062	-45.616	0.511	-0.254
-528.048	-200.000	-0.008	-0.118
-527.033	143.355	-0.055	0.073
-526.018	146.787	-0.066	-0.089
-525.004	93.290	0.048	-0.054
-523.989	-200.000	0.006	-0.051
-522.975	-112.694	0.131	0.026
-521.960	273.314	-0.128	0.227
-520.945	-200.000	-0.007	-0.170
-519.931	-79.159	-0.355	0.121
-518.916	-16.671	-0.169	-0.107
-517.902	-200.000	0.015	-0.320
-516.887	-44.875	-0.189	-0.095
-515.872	124.179	0.115	0.145
-514.858	26.126	-0.184	-0.154
-513.843	87.603	-0.113	0.126
-512.829	-170.422	-0.201	-0.007
-511.814	279.630	0.143	-0.256
-510.799	281.027	0.095	0.171
-509.785	653.639	0.125	0.322
-508.770	325.462	0.083	0.160
-507.756	34.031	-0.331	-0.289
-506.741	66.973	-0.133	-0.135
-505.726	91.072	0.399	0.449
-504.712	506.404	0.020	-0.046
-503.697	-200.000	-0.006	0.030
-502.683	-151.349	0.323	0.024
-501.668	-20.624	-0.314	-0.193
-500.653	87.136	-0.109	-0.120
-499.639	-200.000	0.159	0.000
-498.624	-108.070	0.135	0.029
-497.610	-200.000	0.047	-0.306
-496.595	-102.999	-0.293	-0.070
-495.581	144.632	0.203	-0.272
-494.566	327.533	0.103	0.198
-493.551	-200.000	-0.022	0.100
-492.537	245.082	0.084	-0.141
-491.522	96.814	-0.044	0.051
-490.508	282.959	-0.161	0.289
-489.493	-92.865	-0.147	0.041
-488.478	-200.000	-0.013	0.082
-487.464	402.343	0.104	-0.218
-486.449	-200.000	-0.021	-0.186
-485.435	800.000	0.067	0.208
-484.420	97.505	-0.158	-0.181
-483.405	36.630	0.061	-0.054
-482.391	-40.598	0.103	0.054
-481.376	800.000	-0.015	-0.046
-480.362	-169.366	0.204	-0.007
-479.347	108.264	-0.069	-0.083
-478.332	800.000	-0.124	-0.375
-477.318	-10.069	-0.199	-0.132
-476.303	158.237	0.197	-0.274
-475.289	-8.914	-0.128	0.085
-474.274	-57.315	-0.110	0.048
-473.259	118.358	-0.247	-0.305
-472.245	-78.311	-0.291	0.100
-471.230	-116.078	0.336	0.063
-470.216	-82.615	0.123	-0.040
-469.201	375.611	0.030	0.061
-468.186	89.913	-0.061	-0.068
-467.172	48.178	0.028	-0.026
-466.157	139.584	-0.125	-0.164
-465.143	-20.668	-0.229	-0.141
-464.128	-200.000	0.013	-0.368
-463.113	113.176	0.079	0.096
-462.099	-156.584	-0.154	-0.010
-461.084	112.494	-0.205	-0.248
-460.070	77.569	0.147	0.157
-459.055	-27.716	0.301	0.175
-458.040	-119.097	0.144	-0.025
-457.026	44.080	-0.320	-0.294
-456.011	-69.742	-0.253	-0.097
-454.997	-171.520	-0.062	-0.002
-453.982	-68.737	0.071	0.027
-452.968	577.746	0.153	0.375
-451.953	-1.985	-0.220	0.154
-450.938	800.000	0.085	0.237
-449.924	-200.000	0.013	0.161
-448.909	-30.111	-0.068	0.039
-447.895	75.665	-0.105	0.110
-446.880	477.171	-0.032	0.073
-445.865	155.407	0.283	0.390
-444.851	-200.000	0.053	0.330
-443.836	-200.000	-0.048	-0.225
-442.822	-139.303	-0.171	0.018
-441.807	230.703	0.125	0.204
-440.792	-153.136	0.254	-0.018
-439.778	-99.333	-0.178	0.045
-438.763	-160.356	-0.207	-0.011
-437.749	-93.399	0.415	0.115
-436.734	783.192	0.027	0.074
-435.719	-97.547	-0.251	-0.065
-434.705	558.484	-0.039	0.095
-433.690	-97.981	0.387	-0.100
-432.676	-200.000	0.008	0.050
-431.661	-103.059	-0.344	-0.081
-430.646	-22.583	0.172	0.104
-429.632	508.612	-0.176	0.409
-428.617	216.534	-0.159	-0.253
-427.603	10.669	0.220	0.168
-426.588	29.145	0.350	0.297
-425.573	58.609	0.275	0.270
-424.559	-198.083	-0.077	0.000
-423.544	73.362	0.116	-0.121
-422.530	649.931	0.065	-0.165
-421.515	10.116	0.218	-0.166
-420.500	-143.244	0.348	0.033
-419.486	370.680	-0.155	0.313
-418.471	191.137	0.143	0.215
-417.457	-33.203	-0.184	0.102
-416.442	-200.000	0.028	-0.348
-415.428	-77.004	0.076	-0.026
-414.413	140.979	-0.105	0.138
-413.398	97.833	-0.079	-0.090
-412.384	480.105	0.120	0.271
-411.369	-200.000	-0.002	-0.153
-410.355	411.012	-0.078	-0.165
-409.340	-191.574	0.111	0.001
-408.325	800.000	0.018	-0.068
-407.311	132.187	-0.043	0.055
-406.296	26.535	0.107	0.089
-405.282	234.840	0.079	-0.130
-404.267	449.962	0.039	-0.086
-403.252	150.994	-0.031	0.041
-402.238	800.000	-0.079	0.271
-401.223	-56.696	-0.176	-0.078
-400.209	-0.566	0.122	-0.086
-399.194	-71.729	0.362	-0.135
-398.179	164.682	0.020	-0.028
-397.165	-51.546	0.152	0.071
-396.150	800.000	0.023	-0.096
-395.136	111.731	0.201	0.242
-394.121	-60.796	0.207	0.087
-393.106	463.071	-0.096	0.214
-392.092	376.714	0.093	-0.189
-391.077	350.453	0.111	-0.220
-390.063	2.856	0.130	-0.094
-389.048	800.000	-0.021	-0.067
-388.033	800.000	-0.094	0.326
-387.019	69.001	-0.254	-0.261
-386.004	-69.954	-0.316	0.120
-384.990	-90.169	-0.088	0.025
-383.975	-9.941	-0.160	0.106
-382.960	12.724	-0.348	0.268
-381.946	-88.962	-0.341	-0.101
-380.931	-200.000	0.003	-0.116
-379.917	1.672	-0.305	0.219
-378.902	329.924	0.138	-0.265
-377.888	-66.498	0.390	0.154
-376.873	-8.235	-0.182	-0.122
-375.858	-200.000	0.006	-0.216
-374.844	800.000	0.087	-0.304
-373.829	37.070	0.140	0.123
-372.815	36.015	-0.164	0.144
-371.800	19.842	-0.099	0.079
-370.785	249.559	0.036	-0.060
-369.771	287.388	0.092	-0.166
-368.756	-200.000	0.006	0.288
-367.742	-200.000	0.026	0.168
-366.727	80.495	0.253	0.272
-365.712	210.510	0.110	0.171
-364.698	-19.243	0.154	0.095
-363.683	69.831	0.233	0.239
-362.669	-200.000	0.006	-0.184
-361.654	614.498	-0.125	0.313
-360.639	-95.129	0.100	0.027
-359.625	-91.630	-0.151	-0.043
-358.610	-20.155	0.184	0.113
-357.596	-113.169	0.191	0.037
-356.581	-200.000	-0.064	-0.447
-355.566	88.964	-0.285	-0.316
-354.552	15.816	-0.309	0.242
-353.537	-156.538	0.180	0.011
-352.523	-86.080	-0.093	-0.029
-351.508	195.807	-0.050	0.075
-350.493	214.283	0.145	-0.228
-349.479	-200.000	0.003	-0.033
-348.464	-121.209	-0.168	-0.028
-347.450	-114.738	-0.125	0.024
-346.435	800.000	0.053	-0.228
-345.420	649.094	0.114	0.292
-344.406	440.071	0.086	0.186
-343.391	-200.000	0.047	-0.304
-342.377	19.888	0.208	-0.167
-341.362	800.000	-0.084	-0.245
-340.348	137.981	-0.146	-0.190
-339.333	-151.354	0.236	-0.018
-338.318	-138.707	0.207	0.022
-337.304	-159.469	-0.262	0.015
-336.289	488.961	-0.177	-0.403
-335.275	-200.000	-0.021	-0.152
-334.260	-200.000	0.009	0.069
-333.245	554.604	0.053	-0.128
-332.231	-200.000	0.008	0.140
-331.216	219.210	0.049	-0.079
-330.202	800.000	0.047	0.148
-329.187	-86.649	0.138	0.042
-328.172	-171.693	-0.337	-0.011
-327.158	-70.604	0.153	0.058
-326.143	5.441	0.098	0.072
-325.129	120.842	-0.170	0.210
-324.114	549.599	-0.027	0.064
-323.099	124.480	-0.282	0.353
-322.085	-200.000	-0.008	0.202
-321.070	389.034	-0.088	0.182
-320.056	-183.253	0.140	-0.002
-319.041	36.162	0.191	-0.167
-318.026	59.456	-0.397	-0.390
-317.012	-79.062	0.265	0.090
-315.997	-79.369	0.348	-0.117
-314.983	800.000	-0.045	-0.189
-313.968	800.000	0.021	-0.070
-312.953	267.641	-0.168	-0.293
-311.939	6.890	0.090	0.066
-310.924	39.318	0.339	0.302
-309.910	8.017	0.142	0.106
-308.895	155.422	0.215	-0.294
-307.880	-37.959	-0.192	-0.101
-306.866	372.121	0.086	-0.173
-305.851	-52.603	0.238	-0.109
-304.837	65.143	0.158	0.159
-303.822	143.019	0.158	0.209
-302.807	-113.341	0.266	0.052
-301.793	205.884	-0.139	0.215
-300.778	800.000	-0.074	-0.242
-299.764	623.343	0.138	-0.346
-298.749	-23.484	-0.167	0.100
-297.735	-200.000	0.015	-0.099
-296.720	243.674	0.124	0.207
-295.705	39.601	-0.131	0.117
-294.691	339.574	0.042	0.082
-293.676	800.000	-0.093	-0.301
-292.662	211.108	0.173	-0.270
-291.647	-200.000	0.063	-0.284
-290.632	-200.000	0.020	0.090
-289.618	-200.000	0.002	0.243
-288.603	-131.066	-0.140	0.019
-287.589	310.515	0.127	0.237
-286.574	6.383	0.122	0.090
-285.559	-43.417	0.107	-0.054
-284.545	159.207	-0.207	-0.286
-283.530	-144.522	-0.075	0.007
-282.516	-21.317	0.132	-0.080
-281.501	-200.000	-0.012	0.382
-280.486	78.467	0.310	-0.329
-279.472	36.748	-0.221	0.194
-278.457	-200.000	0.036	-0.173
-277.443	-24.117	-0.290	-0.172
-276.428	800.000	-0.077	-0.233
-275.413	390.221	0.033	-0.068
-274.399	-130.604	-0.082	0.011
-273.384	54.610	0.134	0.129
-272.370	16.222	0.154	0.121
-271.355	43.805	0.200	0.182
-270.340	112.220	-0.110	-0.131
-269.326	148.155	0.298	-0.399
-268.311	153.585	-0.052	-0.070
-267.297	-138.022	0.171	-0.019
-266.282	-61.042	0.391	0.164
-265.267	800.000	-0.019	-0.063
-264.253	-176.682	-0.292	-0.007
-263.238	-78.561	0.043	-0.015
-262.224	-121.082	0.131	-0.022
-261.209	17.306	0.131	0.103
-260.195	-181.060	0.053	0.001
-259.180	-200.000	-0.150	0.001
-258.165	37.953	-0.137	0.121
-257.151	228.454	0.073	0.119
-256.136	-60.009	0.287	-0.122
-255.122	-200.000	-0.035	-0.396
-254.107	-200.000	-0.020	-0.295
-253.092	-200.000	0.049	0.461
-252.078	332.970	0.084	-0.161
-251.063	-55.332	0.515	0.229
-250.049	118.599	-0.106	0.130
-249.034	-13.944	-0.049	-0.031
-248.019	-200.000	0.029	0.153
-247.005	109.389	0.098	0.117
-245.990	357.556	-0.092	0.182
-244.976	800.000	-0.161	-0.471
-243.961	-96.922	0.193	-0.050
-242.946	800.000	0.023	0.100
-241.932	-41.153	0.050	-0.026
-240.917	-78.252	0.233	0.079
-239.903	-26.499	0.073	0.043
-238.888	276.306	0.058	-0.102
-237.873	800.000	-0.019	0.078
-236.859	-89.390	-0.391	-0.114
-235.844	-60.759	0.249	-0.104
-234.830	-200.000	-0.004	-0.018
-233.815	132.069	0.104	0.132
-232.800	175.312	0.078	0.112
-231.786	102.155	-0.160	-0.185
-230.771	-81.247	0.273	0.089
-229.757	-89.392	-0.189	0.055
-228.742	226.220	-0.061	-0.098
-227.727	146.123	-0.173	0.230
-226.713	-91.001	-0.441	0.125
-225.698	-29.765	-0.248	0.140
-224.684	-200.000	-0.056	-0.441
-223.669	47.297	-0.151	-0.139
-222.655	-25.866	0.243	0.142
-221.640	254.993	-0.099	-0.168
-220.625	-200.000	-0.002	-0.033
-219.611	66.978	-0.077	-0.078
-218.596	519.321	-0.069	-0.159
-217.582	62.359	0.178	0.176
-216.567	800.000	0.136	-0.403
-215.552	-31.016	0.089	0.050
-214.538	-200.000	0.016	0.462
-213.523	-113.881	-0.273	0.053
-212.509	-200.000	-0.042	0.226
-211.494	146.132	-0.152	0.201
-210.479	-200.000	-0.065	0.296
-209.465	500.195	-0.097	0.221
-208.450	402.187	0.055	0.115
-207.436	-200.000	0.018	0.166
-206.421	800.000	-0.012	-0.038
-205.406	800.000	-0.015	-0.061
-204.392	118.569	-0.247	-0.301
-203.377	16.226	0.152	-0.119
-202.363	800.000	0.019	-0.061
-201.348	800.000	-0.111	-0.315
-200.333	144.990	-0.152	-0.202
-199.319	-200.000	-0.010	-0.138
-198.304	-200.000	0.013	0.065
-197.290	-184.225	0.209	0.003
-196.275	-191.363	-0.184	0.002
-195.260	-47.092	0.143	0.069
-194.246	-90.552	-0.198	-0.057
-193.231	104.969	-0.080	0.093
-192.217	-155.166	0.215	-0.014
-191.202	800.000	-0.023	-0.075
-190.187	225.476	0.178	0.285
-189.173	800.000	0.103	-0.390
-188.158	800.000	-0.031	0.110
-187.144	-200.000	0.000	0.113
-186.129	160.698	0.079	0.109
-185.114	367.158	0.052	0.104
-184.100	-61.444	0.260	0.108
-183.085	62.167	-0.035	0.034
-182.071	-200.000	-0.029	0.257
-181.056	200.697	0.119	-0.181
-180.042	-30.041	0.073	-0.041
-179.027	-108.300	-0.297	-0.064
-178.012	409.791	0.147	0.309
-176.998	-200.000	0.050	0.308
-175.983	-27.052	0.207	-0.119
-174.969	-35.340	-0.145	-0.078
-173.954	-80.977	-0.408	0.134
-172.939	-200.000	0.027	0.170
-171.925	-61.882	0.089	0.037
-170.910	142.646	-0.038	0.050
-169.896	59.877	-0.174	-0.170
-168.881	1.313	0.287	-0.204
-167.866	-71.005	-0.095	-0.035
-166.852	-48.949	-0.258	-0.122
-165.837	-90.846	-0.181	-0.052
-164.823	71.160	-0.035	-0.035
-163.808	-200.000	0.016	-0.256
-162.793	-19.781	0.168	-0.102
-161.779	111.575	0.175	0.209
-160.764	126.407	-0.080	-0.100
-159.750	-87.775	0.060	0.018
-158.735	-147.172	-0.243	0.020
-157.720	-85.333	0.061	0.019
-156.706	-101.318	0.321	0.077
-155.691	-200.000	0.015	-0.406
-154.677	3.466	0.102	0.073
-153.662	-54.739	0.040	0.018
-152.647	-42.812	-0.520	-0.261
-151.633	800.000	-0.074	0.208
-150.618	166.437	-0.172	-0.241
-149.604	-131.740	0.243	-0.032
-148.589	-68.196	-0.179	0.069
-147.574	78.555	-0.197	-0.208
-146.560	-200.000	0.099	-0.479
-145.545	-200.000	-0.050	-0.366
-144.531	7.185	0.347	0.256
-143.516	173.093	0.183	0.261
-142.502	-63.267	-0.232	-0.095
-141.487	-137.877	-0.189	-0.021
-140.472	-83.475	0.279	0.088
-139.458	623.978	0.066	-0.164
-138.443	800.000	-0.050	0.165
-137.429	-110.968	-0.144	0.029
-136.414	66.646	0.067	0.067
-135.399	273.914	-0.055	0.097
-134.385	121.047	-0.054	-0.066
-133.370	-0.692	0.093	-0.065
-132.356	800.000	-0.090	0.249
-131.341	-78.206	0.240	0.082
-130.326	40.609	0.141	0.126
-129.312	-200.000	-0.040	-0.247
-128.297	-161.186	-0.323	-0.017
-127.283	-51.610	-0.098	-0.045
-126.268	-105.183	0.176	0.040
-125.253	-186.676	0.112	-0.002
-124.239	800.000	-0.055	-0.197
-123.224	230.035	0.066	-0.106
-122.210	-132.516	-0.080	0.010
-121.195	-200.000	-0.094	0.434
-120.180	-39.502	0.108	-0.056
-119.166	-200.000	-0.036	-0.279
-118.151	-142.017	-0.118	0.012
-117.137	101.056	0.189	0.217
-116.122	144.334	-0.066	-0.087
-115.107	154.601	0.054	-0.073
-114.093	-50.736	0.109	-0.050
-113.078	-60.705	-0.367	0.153
-112.064	512.862	-0.174	0.400
-111.049	-40.111	-0.253	0.130
-110.034	225.475	0.224	0.358
-109.020	23.056	-0.046	-0.037
-108.005	722.080	0.197	0.517
-106.991	67.481	0.258	0.260
-105.976	-11.889	0.280	0.181
-104.962	423.131	-0.094	-0.199
-103.947	-138.118	0.177	-0.019
-102.932	463.527	0.101	0.222
-101.918	177.748	-0.159	0.229
-100.903	-200.000	-0.060	0.266
-99.889	-36.761	0.180	-0.095
-98.874	-39.485	0.370	0.191
-97.859	-116.280	0.158	0.029
-96.845	153.497	-0.168	-0.226
-95.830	-118.856	-0.131	0.023
-94.816	-58.947	0.142	0.060
-93.801	113.717	-0.086	-0.103
-92.786	675.251	0.044	-0.112
-91.772	-51.598	-0.175	-0.080
-90.757	-73.507	-0.119	-0.043
-89.743	-200.000	0.006	0.065
-88.728	12.524	-0.097	-0.074
-87.713	71.907	0.199	-0.204
-86.699	281.084	0.094	0.166
-85.684	-172.433	-0.356	0.011
-84.670	115.315	-0.105	-0.127
-83.655	-58.344	-0.321	0.138
-82.640	-30.740	0.265	0.148
-81.626	-13.893	0.098	0.062
-80.611	-86.095	-0.159	-0.048
-79.597	-66.769	-0.107	0.042
-78.582	254.297	-0.175	-0.294
-77.567	52.519	0.085	0.080
-76.553	-106.198	-0.264	0.058
-75.538	-95.338	0.112	0.030
-74.524	1.395	0.182	-0.129
-73.509	192.000	0.117	0.173
-72.494	61.657	0.081	-0.079
-71.480	-68.524	0.323	0.123
-70.465	-2.624	-0.051	0.035
-69.451	-38.797	0.203	0.105
-68.436	20.261	0.443	-0.352
-67.422	-122.104	0.084	-0.013
-66.407	-200.000	-0.018	0.240
-65.392	-86.740	0.472	-0.142
-64.378	-21.899	-0.159	0.095
-63.363	296.848	0.139	-0.251
-62.349	-200.000	0.006	0.200
-61.334	32.067	-1.014	-0.861
-60.319	235.166	0.393	0.640
-59.305	800.000	-0.275	-1.002
-58.290	322.037	0.679	1.272
-57.276	377.332	0.550	1.108
-56.261	-200.000	95.408	595.498
-55.246	549.672	1400.417	3305.390
-54.232	156.919	2579.383	3509.774
-53.217	112.216	2186.265	2602.079
-52.203	42.556	1720.398	1541.126
-51.188	34.717	1530.666	1317.319
-50.173	32.320	1503.008	1277.212
-49.159	52.049	1551.478	1454.889
-48.144	53.540	1568.989	1481.533
-47.130	34.903	1530.008	1317.831
-46.115	31.701	1515.326	1283.233
-45.100	31.566	1512.266	1279.666
-44.086	31.539	1509.780	1277.333
-43.071	31.440	1507.945	1275.050
-42.057	31.506	1506.180	1273.960
-41.042	31.393	1505.066	1272.194
-40.027	31.560	1503.561	1272.010
-39.013	31.441	1502.245	1270.035
-37.998	31.397	1500.817	1268.480
-36.984	31.556	1498.816	1267.816
-35.969	31.468	1498.205	1266.653
-34.954	31.471	1496.792	1265.432
-33.940	31.422	1495.654	1264.085
-32.925	31.483	1494.098	1263.133
-31.911	31.442	1492.967	1261.851
-30.896	31.527	1491.339	1260.998
-29.881	31.567	1489.895	1259.996
-28.867	31.555	1488.340	1258.546
-27.852	31.561	1487.038	1257.436
-26.838	31.543	1485.916	1256.320
-25.823	31.488	1484.665	1254.839
-24.809	31.466	1482.891	1253.148
-23.794	31.438	1481.370	1251.624
-22.779	31.489	1479.923	1250.691
-21.765	31.503	1478.823	1249.805
-20.750	31.425	1477.789	1248.359
-19.736	31.430	1476.715	1247.437
-18.721	31.517	1475.353	1246.820
-17.706	31.499	1474.394	1245.837
-16.692	31.482	1473.417	1244.849
-15.677	31.359	1472.697	1243.374
-14.663	31.400	1471.696	1242.749
-13.648	31.376	1470.299	1241.367
-12.633	31.412	1469.164	1240.597
-11.619	31.441	1468.313	1240.021
-10.604	31.466	1467.526	1239.472
-9.590	31.435	1466.936	1238.722
-8.575	31.367	1466.233	1237.628
-7.560	31.465	1464.522	1236.783
-6.546	31.366	1463.927	1235.575
-5.531	31.378	1463.288	1235.063
-4.517	31.344	1462.469	1234.099
-3.502	31.391	1461.222	1233.309
-2.487	31.414	1459.985	1232.366
-1.473	31.382	1458.969	1231.254
-0.458	31.514	1457.291	1230.656
0.556	30.199	1448.807	1221.423
1.571	27.782	1423.932	1184.679
2.586	24.492	1362.636	1113.109
3.600	22.540	1279.348	1033.541
4.615	21.140	1234.428	989.235
5.629	18.371	1177.605	928.620
6.644	9.366	1090.271	814.278
7.659	1.817	1048.274	745.990
8.673	0.657	1042.664	736.277
9.688	0.336	1039.308	732.283
10.702	0.310	1038.331	731.406
11.717	0.388	1036.055	730.116
12.731	3.178	1038.959	745.628
13.746	11.853	1050.812	796.433
14.761	17.733	1057.833	830.401
15.775	17.649	1056.692	829.024
16.790	16.797	1054.472	823.072
17.804	15.730	1052.545	816.319
18.819	14.953	1050.526	810.914
19.834	14.424	1049.663	807.615
20.848	14.055	1048.628	804.963
21.863	13.814	1047.670	802.989
22.877	13.523	1047.127	801.093
23.892	13.350	1046.563	799.753
24.907	13.288	1045.217	798.356
25.921	13.270	1044.823	797.899
26.936	13.306	1043.926	797.314
27.950	13.374	1043.178	797.003
28.965	13.462	1042.454	796.802
29.980	13.410	1041.668	795.882
30.994	13.570	1040.905	795.997
32.009	13.534	1040.112	795.145
33.023	13.569	1039.275	794.601
34.038	13.743	1037.988	794.380
35.053	13.597	1037.566	793.292
36.067	13.557	1036.519	792.227
37.082	13.505	1035.788	791.351
38.096	13.458	1034.756	790.266
39.111	13.586	1034.337	790.489
40.126	13.616	1033.315	789.779
41.140	13.480	1032.054	788.101
42.155	13.433	1030.947	786.963
43.169	13.358	1030.389	786.108
44.184	13.301	1029.261	784.910
45.199	13.320	1028.017	783.979
46.213	13.371	1026.760	783.193
47.228	13.291	1026.361	782.442
48.242	13.455	1025.339	782.366
49.257	13.436	1024.257	781.385
50.271	13.524	1023.522	781.171
51.286	13.367	1023.019	779.975
52.301	13.576	1021.663	779.858
53.315	13.392	1021.206	778.574
54.330	13.429	1020.213	777.921
55.344	13.380	1019.543	777.110
56.359	13.346	1018.008	775.711
57.374	13.295	1017.704	775.175
58.388	13.368	1016.977	774.895
59.403	13.346	1015.778	773.807
60.417	13.218	1015.305	772.783
61.432	13.360	1013.809	772.238
62.447	13.310	1013.597	771.774
63.461	13.336	1012.515	771.002
64.476	13.262	1011.929	770.146
65.490	13.197	1010.763	768.886
66.505	13.158	1010.045	768.090
67.520	13.233	1008.965	767.551
68.534	13.279	1008.804	767.573
69.549	13.336	1007.910	767.090
70.563	13.190	1007.077	765.713
71.578	13.286	1006.457	765.617
72.593	13.302	1005.542	764.928
73.607	13.350	1004.504	764.289
74.622	13.161	1004.051	763.005
75.636	13.125	1003.030	761.995
76.651	13.299	1002.010	761.958
77.666	13.215	1001.333	760.985
78.680	13.206	1000.850	760.510
79.695	13.201	1000.401	760.080
80.709	13.286	999.456	759.687
81.724	13.411	998.342	759.346
82.739	13.341	997.922	758.636
83.753	13.432	997.048	758.323
84.768	13.387	996.559	757.675
85.782	13.471	995.934	757.522
86.797	13.472	995.067	756.796
87.812	13.461	994.246	756.058
88.826	13.412	993.428	755.143
89.841	13.387	992.532	754.281
90.855	13.464	991.460	753.749
91.870	13.502	990.779	753.340
92.884	13.571	989.818	752.855
93.899	13.511	989.434	752.222
94.914	13.555	989.105	752.108
95.928	13.593	987.786	751.210
96.943	13.571	987.358	750.720
97.957	13.526	986.243	749.600
98.972	13.521	985.658	749.065
99.987	13.471	984.964	748.246
101.001	13.420	984.319	747.461
102.016	13.488	983.263	746.898
103.030	13.461	982.521	746.146
104.045	13.466	981.484	745.318
105.060	13.461	980.575	744.538
106.074	13.488	979.336	743.653
107.089	13.314	978.702	742.323
108.103	13.339	977.943	741.795
109.118	13.324	976.994	740.944
110.133	13.317	976.162	740.218
111.147	13.278	975.230	739.269
112.162	13.243	974.191	738.258
113.176	13.303	973.425	737.881
114.191	13.471	972.641	737.972
115.206	13.451	971.579	737.010
116.220	13.460	970.915	736.484
117.235	13.445	970.151	735.768
118.249	13.338	969.068	734.410
119.264	13.430	968.390	734.239
120.279	13.400	967.420	733.305
121.293	13.427	966.613	732.749
122.308	13.293	965.826	731.493
123.322	13.487	964.665	731.407
124.337	13.267	963.892	729.784
125.352	13.361	963.000	729.459
126.366	13.322	962.023	728.482
127.381	13.354	960.583	727.471
128.395	13.343	960.198	727.063
129.410	13.434	958.818	726.354
130.424	13.402	958.023	725.548
131.439	13.497	956.848	725.008
132.454	13.342	956.613	724.088
133.468	13.473	955.899	724.059
134.483	13.484	954.995	723.356
135.497	13.400	954.325	722.419
136.512	13.475	953.228	721.852
137.527	13.464	952.932	721.517
138.541	13.445	952.035	720.691
139.556	13.430	951.361	720.049
140.570	13.458	950.582	719.519
141.585	13.474	949.748	718.894
142.600	13.505	949.451	718.739
143.614	13.483	948.450	717.822
144.629	13.468	947.785	717.192
145.643	13.609	947.274	717.352
146.658	13.512	946.159	716.024
147.673	13.612	945.583	715.958
148.687	13.407	944.926	714.513
149.702	13.518	943.575	713.905
150.716	13.454	942.515	712.765
151.731	13.587	941.701	712.658
152.746	13.427	941.475	711.733
153.760	13.557	940.470	711.471
154.775	13.477	939.551	710.371
155.789	13.698	938.525	710.480
156.804	13.629	938.565	710.148
157.819	13.664	937.298	709.278
158.833	13.566	937.119	708.660
159.848	13.659	936.445	708.486
160.862	13.632	935.458	707.562
161.877	13.769	934.780	707.568
162.892	13.729	933.881	706.655
163.906	13.508	933.470	705.341
164.921	13.597	932.578	704.983
165.935	13.645	931.273	704.141
166.950	13.693	930.507	703.701
167.964	13.653	929.627	702.805
168.979	13.723	928.589	702.255
169.994	13.734	927.722	701.585
171.008	13.749	926.672	700.789
172.023	13.753	925.759	700.055
173.037	13.767	925.392	699.773
174.052	13.863	924.687	699.583
175.067	13.748	923.915	698.451
176.081	13.691	923.419	697.775
177.096	13.639	922.286	696.640
178.110	13.898	921.265	696.895
179.125	13.658	920.632	695.346
180.140	13.750	920.210	695.351
181.154	13.751	919.557	694.801
182.169	13.791	918.981	694.474
183.183	13.777	918.201	693.761
184.198	13.930	917.023	693.450
185.213	13.838	916.766	692.813
186.227	13.982	915.780	692.607
187.242	13.887	915.893	692.231
188.256	13.932	914.836	691.562
189.271	13.977	914.210	691.214
190.286	13.992	913.608	690.761
191.300	13.996	912.920	690.193
192.315	13.819	912.110	688.788
193.329	13.717	911.228	687.637
194.344	13.740	910.457	687.088
195.359	13.771	910.329	687.058
196.373	13.814	909.897	686.853
197.388	13.960	909.010	686.726
198.402	14.115	908.309	686.776
199.417	14.031	908.304	686.365
200.432	14.110	907.586	686.085
201.446	14.031	907.307	685.488
202.461	14.217	906.621	685.675
203.475	14.202	906.377	685.366
204.490	14.206	905.513	684.671
205.504	14.172	905.268	684.286
206.519	14.241	903.546	683.206
207.534	14.037	903.215	682.059
208.548	14.140	902.483	681.867
209.563	14.188	901.381	681.173
210.577	14.175	900.976	680.753
211.592	14.131	900.268	679.975
212.607	14.386	899.978	680.741
213.621	14.291	899.137	679.657
214.636	14.248	898.515	678.948
215.650	14.373	897.458	678.600
216.665	14.420	897.129	678.485
217.680	14.270	896.548	677.374
218.694	14.350	896.253	677.416
219.709	14.461	895.683	677.377
220.723	14.394	895.297	676.753
221.738	14.428	894.527	676.249
222.753	14.390	893.689	675.399
223.767	14.357	893.283	674.899
224.782	14.414	892.371	674.381
225.796	14.499	891.477	673.992
226.811	14.549	890.989	673.764
227.826	14.488	890.348	672.974
228.840	14.554	889.611	672.624
229.855	14.493	888.992	671.848
230.869	14.465	888.278	671.137
231.884	14.615	887.496	671.092
232.899	14.397	887.038	669.808
233.913	14.323	886.458	669.016
234.928	14.369	885.905	668.723
235.942	14.498	885.022	668.514
236.957	14.445	884.098	667.545
237.972	14.556	883.453	667.443
238.986	14.500	882.667	666.564
240.001	14.414	882.270	665.865
241.015	14.644	881.505	666.146
242.030	14.621	880.519	665.251
243.045	14.539	880.123	664.566
244.059	14.710	879.613	664.801
245.074	14.656	878.998	664.062
246.088	14.630	878.286	663.363
247.103	14.665	877.927	663.172
248.117	14.723	877.274	662.851
249.132	14.774	876.623	662.503
250.147	14.742	876.308	662.079
251.161	14.861	875.364	661.779
252.176	14.866	874.613	661.173
253.190	14.921	873.948	660.828
254.205	14.952	873.550	660.591
255.220	14.902	873.294	660.141
256.234	15.016	872.179	659.691
257.249	14.873	871.896	658.855
258.263	14.985	871.141	658.668
259.278	15.165	870.675	658.962
260.293	15.009	870.197	657.929
261.307	15.070	869.867	657.864
262.322	15.079	869.352	657.449
263.336	15.191	868.252	656.999
264.351	15.079	868.026	656.332
265.366	15.095	867.390	655.855
266.380	15.179	866.873	655.735
267.395	15.306	865.787	655.349
268.409	15.221	865.150	654.478
269.424	15.033	864.765	653.398
270.439	15.137	864.195	653.314
271.453	15.305	862.961	652.977
272.468	15.212	862.646	652.318
273.482	15.170	862.062	651.656
274.497	15.152	861.624	651.199
275.512	15.189	860.462	650.404
276.526	15.237	859.753	649.996
277.541	15.159	859.400	649.370
278.555	15.099	858.970	648.757
279.570	15.253	858.494	648.934
280.585	15.322	857.933	648.723
281.599	15.364	857.209	648.279
282.614	15.354	856.331	647.519
283.628	15.552	855.253	647.409
284.643	15.413	855.089	646.692
285.657	15.350	855.056	646.367
286.672	15.554	854.153	646.414
287.687	15.467	853.860	645.798
288.701	15.452	853.268	645.237
289.716	15.525	852.427	644.823
290.730	15.622	851.784	644.655
291.745	15.500	851.418	643.852
292.760	15.561	850.517	643.345
293.774	15.567	850.089	642.989
294.789	15.583	849.541	642.580
295.803	15.709	848.778	642.424
296.818	15.604	848.179	641.515
297.833	15.544	847.610	640.799
298.847	15.583	847.041	640.460
299.862	15.593	846.517	640.047
300.876	15.621	845.884	639.618
301.891	15.668	844.915	639.008
302.906	15.739	844.263	638.725
303.920	15.625	844.029	638.060
304.935	15.733	843.196	637.781
305.949	15.755	842.369	637.184
306.964	15.834	842.114	637.236
307.979	15.840	841.404	636.664
308.993	15.804	841.044	636.198
310.008	15.867	840.522	635.986
311.022	16.029	839.567	635.820
312.037	16.109	839.110	635.716
313.052	15.724	839.025	634.144
314.066	15.771	838.377	633.776
315.081	15.854	837.586	633.435
316.095	15.880	837.092	633.103
317.110	15.851	836.343	632.370
318.125	15.931	835.811	632.215
319.139	15.872	835.349	631.586
320.154	15.868	834.986	631.242
321.168	15.915	834.352	630.884
322.183	15.924	833.822	630.460
323.197	15.840	833.414	629.781
324.212	15.966	832.608	629.589
325.227	15.961	832.228	629.224
326.241	15.916	831.867	628.728
327.256	16.042	831.012	628.496
328.270	15.937	830.615	627.750
329.285	15.942	829.997	627.246
330.300	16.000	829.364	626.928
331.314	16.024	828.809	626.540
332.329	15.942	828.147	625.681
333.343	16.097	827.588	625.780
334.358	16.113	827.141	625.445
335.373	16.159	826.309	624.931
336.387	15.996	825.882	623.949
337.402	16.060	825.475	623.822
338.416	16.018	825.059	623.297
339.431	16.148	824.336	623.179
340.446	16.150	823.906	622.803
341.460	16.354	823.095	622.890
342.475	16.238	823.037	622.361
343.489	16.310	822.139	621.895
344.504	16.450	821.573	621.925
345.519	16.272	821.377	621.066
346.533	16.403	820.674	620.963
347.548	16.496	819.969	620.715
348.562	16.497	819.659	620.428
349.577	16.407	819.052	619.584
350.592	16.411	818.285	618.965
351.606	16.346	818.005	618.459
352.621	16.268	817.738	617.918
353.635	16.140	817.675	617.346
354.650	16.479	816.735	617.823
355.665	16.478	816.460	617.554
356.679	16.489	815.680	616.949
357.694	16.580	815.250	616.902
358.708	16.473	814.795	616.115
359.723	16.428	814.490	615.665
360.738	16.441	813.484	614.898
361.752	16.424	813.131	614.512
362.767	16.445	812.927	614.383
363.781	16.522	812.585	614.350
364.796	16.500	812.212	613.934
365.810	16.693	811.187	613.802
366.825	16.804	810.695	613.779
367.840	16.800	810.493	613.557
368.854	16.752	810.558	613.380
369.869	16.725	809.894	612.723
370.883	16.699	809.467	612.253
371.898	16.649	808.665	611.411
372.913	16.747	808.327	611.453
373.927	16.767	807.734	611.023
374.942	16.896	806.961	610.850
375.956	16.826	806.194	609.964
376.971	16.808	805.826	609.565
377.986	16.943	805.511	609.760
379.000	16.885	804.512	608.741
380.015	16.944	804.301	608.739
381.029	16.914	803.742	608.154
382.044	16.840	802.954	607.240
383.059	17.005	802.276	607.265
384.073	17.034	802.297	607.329
385.088	16.900	802.058	606.616
386.102	17.065	801.059	606.397
387.117	17.001	800.346	605.574
388.132	17.078	799.754	605.348
389.146	17.010	799.677	604.993
390.161	17.042	799.332	604.793
391.175	17.251	798.495	604.849
392.190	17.126	798.777	604.566
393.205	17.025	798.426	603.888
394.219	17.192	797.278	603.559
395.234	17.007	797.225	602.806
396.248	17.008	796.718	602.374
397.263	17.054	796.140	602.049
398.278	16.919	795.849	601.297
399.292	17.019	795.154	601.070
400.307	16.990	795.174	600.932
401.321	16.990	794.683	600.506
402.336	17.179	793.925	600.549
403.350	16.980	793.648	599.583
404.365	17.090	793.275	599.638
405.380	17.025	792.790	598.989
406.394	17.093	792.508	598.960
407.409	17.244	791.670	598.808
408.423	17.370	791.290	598.910
409.438	17.267	790.866	598.174
410.453	17.356	790.832	598.408
411.467	17.497	790.066	598.272
412.482	17.423	789.680	597.668
413.496	17.301	789.405	596.976
414.511	17.471	788.837	597.092
415.526	17.434	788.289	596.493
416.540	17.455	788.171	596.427
417.555	17.512	787.540	596.093
418.569	17.553	786.929	595.721
419.584	17.417	786.943	595.206
420.599	17.524	786.061	594.858
421.613	108.240	1287.082	1461.746
422.628	92.769	1360.088	1461.853
