DTS Sentinel unit serial number:	SN413079Multiplexer serial number:	ORYXHardware model number:	OX4-SRSoftware version number:	ORYX F/W v4.00 Oryx Data Collector v3.7.2.0data status	okinstallation	princeton_trtdifferential loss correction	single-endedforward channel	channel 3reverse channel	N/Adate	2019/09/16time	14:44:34forward acquisition time	60.00reverse acquisition time	0.00gamma	496.2192k internal	0.2293k external	0.2293temperature offset calibration	0.9944default loss term (dB/km)	0.3790temperature slope calibration	1.0000multiplexer offset coefficient	1.0000multiplexer slope coefficient	1.0000fibre end	0.00T internal ref (°C)	41.56T ext. ref 1 (°C)	14.35T ext. ref 2 (°C)	35.77length (m)	temperature (°C)	Stokes	anti-Stokes-747.200	-122.545	-0.066	-0.011
-746.185	-36.789	0.444	-0.244
-745.171	-46.720	0.100	0.050
-744.156	800.000	0.056	0.184
-743.142	-21.045	0.111	0.070
-742.127	144.577	-0.109	0.149
-741.112	-107.096	-0.164	-0.037
-740.098	25.085	0.071	0.061
-739.083	-97.120	0.308	-0.082
-738.069	-200.000	-0.034	0.421
-737.054	-119.929	-0.163	0.029
-736.039	177.463	0.116	-0.173
-735.025	800.000	-0.082	-0.308
-734.010	110.099	-0.056	0.069
-732.996	-200.000	-0.002	-0.344
-731.981	-128.900	0.083	-0.012
-730.966	-152.921	-0.056	-0.004
-729.952	92.969	0.100	-0.115
-728.937	-125.443	-0.339	0.053
-727.923	-200.000	0.028	0.161
-726.908	-94.176	-0.100	-0.028
-725.894	-200.000	0.035	-0.409
-724.879	800.000	0.121	-0.530
-723.864	-128.401	-0.404	0.059
-722.850	-72.282	-0.502	-0.190
-721.835	6.972	-0.165	0.126
-720.821	800.000	-0.047	-0.153
-719.806	-42.820	-0.235	-0.122
-718.791	-29.652	0.380	0.222
-717.777	641.623	-0.120	-0.313
-716.762	-17.015	-0.313	-0.202
-715.748	-13.550	-0.249	-0.165
-714.733	36.825	-0.316	-0.285
-713.718	662.277	0.004	0.012
-712.704	-200.000	-0.066	-0.339
-711.689	322.497	-0.033	0.065
-710.675	173.864	-0.132	-0.195
-709.660	213.081	-0.145	0.234
-708.645	310.750	0.066	0.126
-707.631	124.303	0.241	-0.310
-706.616	83.951	-0.338	0.377
-705.602	321.811	-0.156	-0.304
-704.587	-77.769	-0.222	-0.078
-703.572	-90.061	-0.253	-0.075
-702.558	-200.000	0.042	-0.323
-701.543	-82.650	0.118	0.039
-700.529	-68.830	-0.053	0.021
-699.514	13.893	0.046	-0.037
-698.499	-60.847	-0.198	0.086
-697.485	255.047	-0.152	0.266
-696.470	162.429	-0.194	-0.277
-695.456	-102.327	0.313	0.077
-694.441	141.567	0.130	0.176
-693.426	-144.504	-0.183	0.017
-692.412	417.790	-0.143	-0.312
-691.397	-200.000	0.104	-0.536
-690.383	-200.000	-0.011	-0.198
-689.368	-48.607	0.286	-0.140
-688.354	-156.002	0.095	0.006
-687.339	156.947	-0.118	-0.166
-686.324	-88.008	0.129	0.040
-685.310	-64.506	0.185	-0.077
-684.295	167.104	-0.053	-0.077
-683.281	51.952	0.066	-0.064
-682.266	800.000	-0.030	0.130
-681.251	55.826	0.206	-0.204
-680.237	-34.646	-0.143	0.080
-679.222	-200.000	-0.034	-0.290
-678.208	-125.742	0.386	-0.060
-677.193	-14.926	-0.083	-0.055
-676.178	-200.000	0.049	-0.362
-675.164	3.234	0.175	-0.130
-674.149	-191.187	-0.315	-0.003
-673.135	800.000	0.043	0.152
-672.120	416.419	0.056	-0.123
-671.105	-132.490	-0.193	0.025
-670.091	-23.933	0.192	0.117
-669.076	-89.871	-0.367	0.109
-668.062	-93.315	0.242	-0.069
-667.047	-51.246	0.230	-0.110
-666.032	-6.998	0.120	-0.083
-665.018	246.626	0.124	0.213
-664.003	-100.078	-0.238	0.061
-662.989	-175.613	0.150	0.004
-661.974	-52.072	-0.193	0.091
-660.959	-60.983	-0.188	-0.081
-659.945	-134.140	0.203	0.026
-658.930	-34.514	-0.026	0.014
-657.916	214.585	-0.092	-0.149
-656.901	800.000	-0.092	0.311
-655.886	135.554	0.098	-0.130
-654.872	86.249	0.202	-0.226
-653.857	161.222	-0.217	0.309
-652.843	123.826	0.169	0.216
-651.828	237.237	-0.124	-0.209
-650.814	-200.000	-0.031	0.176
-649.799	274.156	0.167	0.301
-648.784	-166.050	-0.103	-0.004
-647.770	-51.193	-0.257	0.123
-646.755	115.607	-0.116	0.145
-645.741	800.000	0.054	-0.221
-644.726	-154.083	-0.300	-0.021
-643.711	97.285	-0.195	-0.228
-642.697	-200.000	-0.003	-0.189
-641.682	27.647	0.090	0.077
-640.668	-14.455	0.132	-0.086
-639.653	143.536	-0.159	0.216
-638.638	-6.112	-0.233	-0.162
-637.624	27.388	-0.091	0.078
-636.609	-171.032	0.240	-0.008
-635.595	0.083	0.261	-0.189
-634.580	-51.861	-0.218	-0.104
-633.565	163.895	0.114	-0.164
-632.551	-200.000	-0.019	0.223
-631.536	415.261	-0.092	-0.200
-630.522	-21.762	-0.267	-0.165
-629.507	-104.050	0.158	0.037
-628.492	71.974	0.098	0.103
-627.478	-79.082	0.423	0.146
-626.463	-200.000	0.050	0.251
-625.449	-16.527	0.130	0.084
-624.434	-0.131	-0.171	0.124
-623.419	-200.000	0.020	0.469
-622.405	56.949	-0.124	-0.123
-621.390	5.689	0.153	-0.115
-620.376	800.000	0.071	-0.214
-619.361	113.675	0.294	0.364
-618.346	-200.000	-0.012	0.067
-617.332	15.740	-0.136	-0.109
-616.317	294.393	0.195	0.364
-615.303	538.969	-0.066	0.160
-614.288	-93.839	-0.298	0.083
-613.273	101.295	-0.142	0.168
-612.259	517.824	-0.042	0.101
-611.244	-127.676	-0.212	0.031
-610.230	-74.064	0.032	0.012
-609.215	800.000	0.093	-0.348
-608.201	-128.727	0.133	0.019
-607.186	13.947	-0.075	-0.060
-606.171	258.447	-0.060	0.104
-605.157	-28.322	0.072	-0.042
-604.142	-108.909	-0.245	-0.053
-603.128	10.810	0.109	-0.084
-602.113	162.191	0.096	-0.137
-601.098	247.320	0.057	-0.097
-600.084	800.000	0.057	0.188
-599.069	-166.331	-0.103	0.004
-598.055	-200.000	0.041	0.290
-597.040	800.000	-0.043	0.168
-596.025	-86.321	-0.336	0.105
-595.011	-200.000	-0.011	-0.070
-593.996	42.406	0.173	0.160
-592.982	0.271	0.126	0.092
-591.967	-62.054	0.158	0.067
-590.952	-66.065	0.212	-0.086
-589.938	-200.000	0.033	0.197
-588.923	139.908	-0.151	0.203
-587.909	-125.776	-0.336	0.052
-586.894	-200.000	0.012	-0.286
-585.879	54.223	0.163	-0.160
-584.865	-105.089	-0.048	0.011
-583.850	-158.638	0.262	-0.015
-582.836	186.364	-0.102	0.155
-581.821	-146.849	-0.136	-0.012
-580.806	344.830	-0.064	-0.127
-579.792	-200.000	0.021	0.156
-578.777	800.000	0.114	-0.485
-577.763	-200.000	0.042	-0.416
-576.748	-17.202	0.107	-0.069
-575.733	265.067	-0.037	-0.065
-574.719	800.000	0.122	0.429
-573.704	206.869	0.119	0.189
-572.690	-129.319	0.182	-0.026
-571.675	-87.001	0.528	-0.164
-570.661	-110.350	0.083	-0.018
-569.646	-200.000	0.003	0.187
-568.631	-88.690	0.133	0.040
-567.617	-200.000	-0.002	0.082
-566.602	-33.755	0.064	0.036
-565.588	-200.000	0.036	-0.208
-564.573	-200.000	-0.005	-0.071
-563.558	159.372	0.234	0.331
-562.544	-50.530	-0.134	0.064
-561.529	-137.611	-0.132	-0.015
-560.515	-28.083	-0.168	0.099
-559.500	-200.000	0.019	0.474
-558.485	-113.140	0.049	0.010
-557.471	-200.000	-0.033	-0.338
-556.456	36.003	-0.162	-0.145
-555.442	-136.491	0.106	0.012
-554.427	-103.415	0.486	-0.116
-553.412	-200.000	-0.030	0.164
-552.398	469.484	-0.181	0.412
-551.383	800.000	-0.054	-0.181
-550.369	216.427	-0.211	0.341
-549.354	-123.827	-0.353	0.057
-548.339	-29.437	-0.085	0.049
-547.325	-200.000	-0.015	0.076
-546.310	-200.000	-0.005	-0.156
-545.296	271.977	-0.034	-0.062
-544.281	280.892	-0.082	0.149
-543.266	-12.531	-0.177	0.117
-542.252	-72.651	-0.113	-0.042
-541.237	152.361	-0.195	-0.271
-540.223	-2.036	-0.245	0.175
-539.208	800.000	-0.112	0.345
-538.193	607.718	-0.110	-0.277
-537.179	156.819	-0.139	-0.195
-536.164	204.775	-0.273	-0.430
-535.150	-115.376	-0.345	0.066
-534.135	-200.000	-0.019	-0.109
-533.121	286.049	-0.075	0.136
-532.106	-22.015	-0.285	0.176
-531.091	800.000	0.072	-0.219
-530.077	-117.912	-0.094	0.017
-529.062	-170.507	0.164	-0.006
-528.048	800.000	0.061	-0.241
-527.033	237.486	0.043	-0.072
-526.018	422.524	-0.051	-0.111
-525.004	-118.022	0.163	-0.030
-523.989	800.000	-0.043	0.178
-522.975	-51.931	-0.134	-0.063
-521.960	-101.486	0.427	0.106
-520.945	-59.098	0.199	0.087
-519.931	-99.521	0.245	-0.062
-518.916	-200.000	0.009	0.118
-517.902	-169.721	0.483	-0.018
-516.887	-48.722	0.232	0.113
-515.872	393.223	0.110	0.232
-514.858	43.639	0.184	0.171
-513.843	-176.415	-0.177	-0.005
-512.829	-200.000	0.048	0.392
-511.814	219.923	-0.107	0.174
-510.799	800.000	0.080	-0.332
-509.785	800.000	0.093	-0.355
-508.770	-200.000	-0.010	0.105
-507.756	75.831	0.098	-0.105
-506.741	-6.507	-0.287	-0.199
-505.726	-90.858	-0.188	0.055
-504.712	-200.000	0.041	-0.315
-503.697	298.489	0.078	0.145
-502.683	611.367	0.137	-0.347
-501.668	-37.215	0.142	0.077
-500.653	153.055	-0.193	-0.268
-499.639	236.932	-0.134	-0.225
-498.624	-59.099	0.220	0.096
-497.610	-133.737	-0.223	0.028
-496.595	-77.787	-0.212	0.074
-495.581	46.835	-0.179	0.169
-494.566	-96.143	-0.225	-0.061
-493.551	-200.000	0.102	-0.624
-492.537	645.031	-0.096	-0.247
-491.522	65.558	0.159	0.164
-490.508	-36.099	-0.120	0.066
-489.493	90.309	-0.169	0.191
-488.478	292.884	0.079	-0.145
-487.464	-57.531	0.269	0.119
-486.449	-186.160	-0.229	0.003
-485.435	-115.348	-0.225	0.043
-484.420	-200.000	0.042	0.206
-483.405	-144.894	-0.203	0.019
-482.391	-109.472	-0.355	-0.076
-481.376	-108.918	0.052	-0.011
-480.362	55.565	-0.096	0.095
-479.347	-27.877	0.174	0.102
-478.332	-200.000	0.011	-0.186
-477.318	-200.000	-0.001	-0.295
-476.303	800.000	-0.070	0.245
-475.289	-11.573	0.302	0.201
-474.274	42.960	0.079	0.072
-473.259	800.000	-0.098	-0.339
-472.245	108.818	0.210	0.254
-471.230	-200.000	-0.011	0.185
-470.216	-200.000	0.042	-0.334
-469.201	-16.239	-0.251	-0.162
-468.186	-179.213	-0.159	-0.004
-467.172	47.830	-0.132	-0.125
-466.157	-7.907	0.134	-0.092
-465.143	-50.625	0.155	-0.074
-464.128	800.000	0.030	-0.103
-463.113	-88.594	0.413	0.125
-462.099	-93.664	-0.109	0.030
-461.084	59.047	-0.047	0.046
-460.070	150.219	0.318	-0.437
-459.055	-200.000	0.007	-0.114
-458.040	-200.000	-0.023	0.187
-457.026	22.644	0.111	-0.092
-456.011	537.393	-0.054	-0.129
-454.997	-114.972	0.213	-0.041
-453.982	800.000	0.063	0.250
-452.968	0.599	-0.306	-0.221
-451.953	351.995	-0.117	-0.234
-450.938	78.891	0.333	-0.360
-449.924	268.135	0.155	-0.276
-448.909	-91.201	-0.329	-0.095
-447.895	-167.674	-0.215	-0.009
-446.880	-200.000	0.058	-0.385
-445.865	43.222	0.233	-0.215
-444.851	-93.394	-0.121	-0.034
-443.836	124.063	-0.107	-0.136
-442.822	-40.999	0.096	0.050
-441.807	-200.000	-0.025	0.115
-440.792	-73.856	-0.138	-0.051
-439.778	230.343	0.129	0.213
-438.763	278.931	0.071	0.128
-437.749	326.115	0.191	0.370
-436.734	-84.095	-0.292	0.094
-435.719	57.784	-0.326	-0.323
-434.705	121.140	-0.046	0.058
-433.690	800.000	0.082	-0.345
-432.676	-15.840	-0.273	-0.176
-431.661	800.000	-0.064	0.273
-430.646	-200.000	0.022	-0.354
-429.632	104.607	0.018	-0.022
-428.617	-101.416	0.263	-0.065
-427.603	205.621	-0.184	0.289
-426.588	660.215	0.087	0.226
-425.573	14.357	-0.315	-0.248
-424.559	-33.830	0.232	0.129
-423.544	136.427	-0.056	0.074
-422.530	65.536	0.199	0.203
-421.515	431.949	-0.056	-0.122
-420.500	79.615	-0.036	0.039
-419.486	800.000	-0.028	0.084
-418.471	69.222	-0.166	0.172
-417.457	99.718	-0.257	0.301
-416.442	-64.587	-0.117	0.048
-415.428	114.851	-0.164	-0.202
-414.413	800.000	-0.056	0.206
-413.398	-9.500	0.385	0.260
-412.384	-200.000	0.013	0.191
-411.369	66.845	-0.156	-0.160
-410.355	-118.186	-0.367	0.066
-409.340	765.952	0.144	-0.395
-408.325	-62.474	0.219	0.092
-407.311	-74.119	-0.261	0.096
-406.296	-114.720	-0.279	0.054
-405.282	67.306	-0.275	-0.283
-404.267	-200.000	0.029	-0.381
-403.252	35.031	0.303	0.268
-402.238	18.926	0.196	0.158
-401.223	566.076	-0.108	0.265
-400.209	-128.142	-0.268	0.039
-399.194	-37.315	0.247	-0.133
-398.179	268.370	-0.077	-0.136
-397.165	-70.642	0.061	0.023
-396.150	-200.000	0.018	0.102
-395.136	800.000	-0.073	-0.259
-394.121	-74.432	0.145	0.053
-393.106	-114.932	0.452	0.087
-392.092	-200.000	-0.025	0.339
-391.077	-200.000	0.017	-0.155
-390.063	-161.131	0.241	0.013
-389.048	-103.425	0.419	-0.100
-388.033	137.110	-0.060	0.079
-387.019	-183.062	0.125	-0.002
-386.004	-46.090	0.065	0.032
-384.990	-46.415	-0.119	-0.059
-383.975	-29.552	0.191	0.110
-382.960	800.000	-0.024	0.087
-381.946	248.385	0.114	-0.195
-380.931	-27.080	0.087	-0.051
-379.917	-107.572	-0.414	0.091
-378.902	-200.000	0.016	-0.270
-377.888	-150.556	-0.137	-0.011
-376.873	-59.905	-0.435	0.187
-375.858	-200.000	0.025	0.248
-374.844	70.697	0.143	0.150
-373.829	800.000	-0.026	-0.100
-372.815	20.625	-0.066	0.054
-371.800	-89.117	-0.298	0.089
-370.785	154.875	-0.067	0.093
-369.771	-200.000	0.017	0.203
-368.756	-147.601	0.258	0.022
-367.742	591.900	0.147	-0.366
-366.727	-76.598	0.306	-0.108
-365.712	46.757	0.120	0.112
-364.698	-169.135	0.443	0.017
-363.683	-182.908	0.232	-0.004
-362.669	-200.000	0.019	-0.217
-361.654	212.672	-0.143	-0.227
-360.639	128.826	0.128	0.165
-359.625	396.255	-0.097	0.205
-358.610	-200.000	0.036	-0.332
-357.596	-26.097	-0.122	-0.072
-356.581	45.665	0.303	0.283
-355.566	511.689	0.039	0.092
-354.552	-121.653	0.214	-0.036
-353.537	613.230	0.153	0.386
-352.523	61.096	0.099	0.099
-351.508	-200.000	0.076	0.450
-350.493	800.000	0.052	-0.195
-349.479	-8.040	-0.094	0.064
-348.464	-32.969	-0.207	-0.116
-347.450	-200.000	-0.040	0.227
-346.435	460.852	0.158	0.355
-345.420	-200.000	-0.012	0.094
-344.406	195.333	-0.064	0.099
-343.391	-150.129	0.145	0.011
-342.377	800.000	-0.079	-0.230
-341.362	9.407	-0.110	-0.084
-340.348	161.052	-0.098	-0.138
-339.333	166.316	0.037	-0.052
-338.318	757.561	0.049	0.133
-337.304	800.000	-0.081	0.322
-336.289	-108.036	0.365	-0.080
-335.275	-48.662	-0.274	0.132
-334.260	-134.947	0.245	0.030
-333.245	254.929	0.043	0.073
-332.231	-21.427	-0.136	-0.083
-331.216	-71.611	-0.309	0.116
-330.202	-200.000	-0.032	0.211
-329.187	330.604	0.028	-0.055
-328.172	-33.581	0.104	0.058
-327.158	-14.247	-0.106	0.069
-326.143	-187.665	0.448	-0.006
-325.129	-107.238	0.267	-0.059
-324.114	-65.518	-0.267	0.108
-323.099	-7.521	0.042	-0.028
-322.085	-108.245	0.213	-0.046
-321.070	200.015	-0.070	-0.108
-320.056	-200.000	0.028	-0.181
-319.041	-16.290	-0.077	-0.049
-318.026	-36.843	-0.011	-0.006
-317.012	76.511	-0.373	0.398
-315.997	-23.849	-0.114	-0.068
-314.983	188.531	-0.199	-0.300
-313.968	457.695	-0.142	0.318
-312.953	-200.000	0.001	0.013
-311.939	121.300	-0.130	-0.163
-310.924	99.314	-0.118	-0.138
-309.910	-200.000	0.007	-0.239
-308.895	21.217	0.196	-0.160
-307.880	800.000	-0.021	0.066
-306.866	323.276	0.157	-0.300
-305.851	800.000	-0.059	0.168
-304.837	-23.567	0.292	0.176
-303.822	800.000	0.021	0.067
-302.807	-0.794	-0.203	-0.145
-301.793	-200.000	-0.035	-0.341
-300.778	94.202	0.134	-0.152
-299.764	-53.310	-0.128	-0.059
-298.749	-135.905	0.185	0.022
-297.735	-181.480	0.392	0.008
-296.720	43.732	-0.107	0.098
-295.705	263.361	0.120	0.209
-294.691	587.896	0.067	-0.166
-293.676	-106.877	0.087	-0.019
-292.662	63.197	0.167	-0.168
-291.647	166.948	-0.081	0.116
-290.632	-200.000	0.001	0.215
-289.618	-96.576	0.211	-0.056
-288.603	190.711	-0.142	0.214
-287.589	800.000	0.056	0.244
-286.574	-14.802	0.184	-0.119
-285.559	-200.000	0.002	0.234
-284.545	-6.276	-0.172	0.118
-283.530	-44.942	0.295	0.148
-282.516	7.102	-0.403	-0.302
-281.501	-200.000	0.010	-0.069
-280.486	-31.813	0.195	-0.110
-279.472	800.000	-0.081	-0.258
-278.457	-14.063	0.236	-0.153
-277.443	138.179	-0.107	0.141
-276.428	800.000	-0.042	-0.160
-275.413	-200.000	0.013	0.070
-274.399	-46.262	0.104	-0.051
-273.384	648.574	-0.099	-0.253
-272.370	313.942	-0.128	-0.242
-271.355	-143.241	-0.259	0.025
-270.340	-96.938	0.224	0.059
-269.326	33.841	-0.104	-0.091
-268.311	-95.438	0.188	0.051
-267.297	-142.403	-0.513	0.051
-266.282	800.000	0.005	0.016
-265.267	-200.000	-0.014	-0.243
-264.253	-22.705	0.175	0.106
-263.238	-66.466	0.167	0.067
-262.224	108.130	0.179	0.215
-261.209	8.133	-0.245	-0.185
-260.195	-83.732	-0.366	0.117
-259.180	-200.000	0.010	-0.092
-258.165	239.919	-0.093	-0.155
-257.151	-200.000	0.042	-0.187
-256.136	-24.369	-0.276	0.165
-255.122	738.460	-0.052	-0.140
-254.107	85.970	-0.274	-0.303
-253.092	-36.144	-0.182	0.099
-252.078	-177.014	-0.402	-0.010
-251.063	97.382	0.156	0.180
-250.049	-172.757	0.271	-0.008
-249.034	-200.000	0.016	-0.079
-248.019	115.437	-0.200	0.245
-247.005	84.992	0.140	-0.154
-245.990	800.000	0.069	-0.196
-244.976	252.015	0.056	0.095
-243.961	43.291	-0.120	0.110
-242.946	800.000	-0.023	-0.094
-241.932	522.832	0.140	0.329
-240.917	-35.809	0.102	-0.055
-239.903	425.887	0.096	0.208
-238.888	-164.370	-0.442	0.020
-237.873	-200.000	0.007	-0.040
-236.859	215.132	0.085	0.135
-235.844	800.000	0.016	-0.055
-234.830	-124.107	-0.098	-0.015
-233.815	234.230	-0.153	0.254
-232.800	-143.563	-0.194	-0.019
-231.786	-200.000	-0.026	-0.128
-230.771	190.392	0.086	-0.129
-229.757	-41.453	0.077	-0.040
-228.742	-94.224	-0.295	-0.081
-227.727	-86.661	0.258	0.079
-226.713	-174.207	0.147	0.004
-225.698	800.000	-0.048	-0.194
-224.684	175.893	-0.066	-0.096
-223.669	-108.935	0.088	-0.019
-222.655	177.227	0.202	0.295
-221.640	321.394	0.066	-0.126
-220.625	-200.000	-0.083	-0.429
-219.611	-144.655	-0.326	-0.030
-218.596	407.164	-0.101	-0.214
-217.582	327.965	-0.089	-0.171
-216.567	-29.968	-0.243	0.139
-215.552	-69.660	0.070	0.027
-214.538	-143.690	-0.244	-0.023
-213.523	-151.461	0.105	0.008
-212.509	-200.000	-0.020	-0.277
-211.494	-127.912	0.338	-0.049
-210.479	-176.247	0.651	-0.017
-209.465	-200.000	0.001	0.140
-208.450	88.592	-0.124	0.139
-207.436	166.918	-0.087	-0.123
-206.421	-145.290	0.170	-0.015
-205.406	-78.611	0.383	0.131
-204.392	214.997	-0.100	-0.158
-203.377	-68.621	-0.291	-0.113
-202.363	272.342	-0.124	0.220
-201.348	-14.182	0.136	0.088
-200.333	-200.000	0.024	0.249
-199.319	-73.970	-0.516	-0.187
-198.304	100.725	-0.067	-0.078
-197.290	-89.911	-0.214	-0.062
-196.275	5.485	0.294	0.217
-195.260	23.265	0.262	-0.216
-194.246	-200.000	0.081	0.358
-193.231	77.202	-0.033	-0.035
-192.217	-8.143	-0.140	-0.095
-191.202	347.021	-0.086	-0.170
-190.187	-121.858	-0.129	0.021
-189.173	-16.197	0.211	-0.134
-188.158	-54.326	-0.079	0.036
-187.144	-51.953	0.126	0.059
-186.129	-145.842	-0.345	-0.031
-185.114	16.793	-0.250	-0.198
-184.100	368.924	0.116	0.236
-183.085	547.007	-0.061	-0.147
-182.071	60.866	0.133	-0.132
-181.056	800.000	-0.031	-0.126
-180.042	-200.000	0.002	-0.207
-179.027	800.000	0.072	-0.217
-178.012	-11.822	-0.317	0.208
-176.998	-119.246	0.124	-0.022
-175.983	38.998	0.167	0.149
-174.969	32.459	0.163	-0.141
-173.954	-77.729	-0.054	-0.019
-172.939	-13.123	0.359	0.234
-171.925	-96.384	0.245	0.065
-170.910	-200.000	0.016	0.098
-169.896	-6.437	0.046	0.032
-168.881	21.066	-0.184	0.149
-167.866	61.642	-0.011	-0.011
-166.852	495.934	0.140	0.322
-165.837	62.049	0.025	-0.025
-164.823	-117.743	0.179	-0.032
-163.808	379.651	0.033	-0.068
-162.793	800.000	-0.094	-0.396
-161.779	11.681	0.042	0.032
-160.764	-13.794	-0.252	0.163
-159.750	143.278	0.097	0.129
-158.735	-147.634	0.086	0.007
-157.720	-200.000	-0.009	0.208
-156.706	-200.000	0.038	0.193
-155.691	491.483	0.114	0.260
-154.677	-111.716	0.222	0.045
-153.662	-110.921	0.208	0.043
-152.647	31.495	-0.269	-0.231
-151.633	-200.000	0.002	-0.189
-150.618	-26.233	-0.329	-0.193
-149.604	-107.956	-0.155	-0.034
-148.589	-150.158	-0.299	-0.023
-147.574	-49.025	-0.182	0.087
-146.560	-200.000	-0.070	-0.517
-145.545	20.453	-0.043	0.035
-144.531	800.000	-0.028	-0.106
-143.516	-83.662	-0.267	-0.085
-142.502	-200.000	0.027	0.145
-141.487	437.545	-0.209	0.456
-140.472	239.094	0.114	0.190
-139.458	72.434	-0.184	-0.191
-138.443	84.587	0.255	-0.279
-137.429	-73.411	0.246	-0.090
-136.414	-72.910	0.076	0.028
-135.399	28.011	-0.134	0.113
-134.385	9.690	0.138	-0.104
-133.370	800.000	0.033	0.128
-132.356	-143.285	0.096	-0.009
-131.341	39.408	-0.068	0.061
-130.326	-200.000	-0.017	-0.134
-129.312	-148.225	0.139	-0.011
-128.297	-3.545	0.268	-0.186
-127.283	800.000	-0.039	0.113
-126.268	-49.044	0.056	0.027
-125.253	315.538	-0.126	-0.237
-124.239	17.547	0.035	0.028
-123.224	-116.507	0.162	0.030
-122.210	-106.548	0.278	0.062
-121.195	-162.535	-0.312	0.015
-120.180	800.000	0.066	0.202
-119.166	-72.265	0.225	0.083
-118.151	-200.000	0.022	0.117
-117.137	70.122	0.114	-0.117
-116.122	-74.614	0.175	0.063
-115.107	-44.875	-0.174	0.087
-114.093	-200.000	0.004	-0.028
-113.078	322.108	0.108	0.204
-112.064	-20.435	0.091	0.056
-111.049	30.485	-0.148	-0.126
-110.034	62.579	-0.106	-0.105
-109.020	-200.000	-0.024	0.120
-108.005	-200.000	0.040	0.457
-106.991	800.000	-0.051	0.142
-105.976	-40.488	-0.192	0.100
-104.962	-200.000	0.036	0.426
-103.947	17.591	-0.138	-0.110
-102.932	-123.792	0.424	-0.067
-101.918	353.517	0.101	0.200
-100.903	65.350	0.021	0.021
-99.889	-73.181	0.152	-0.056
-98.874	-114.000	-0.100	0.019
-97.859	466.018	-0.040	-0.089
-96.845	-78.333	-0.073	0.025
-95.830	82.089	0.085	0.092
-94.816	-76.646	0.210	0.073
-93.801	-200.000	0.003	-0.061
-92.786	-200.000	-0.052	-0.341
-91.772	483.133	-0.077	-0.175
-90.757	-200.000	0.035	0.183
-89.743	800.000	-0.062	0.188
-88.728	-138.115	0.194	0.021
-87.713	604.856	0.035	-0.088
-86.699	271.693	0.052	0.092
-85.684	-200.000	0.013	0.074
-84.670	-195.981	0.192	-0.001
-83.655	-54.024	0.549	0.249
-82.640	800.000	-0.120	-0.373
-81.626	-96.316	-0.297	0.079
-80.611	-7.573	-0.160	0.108
-79.597	65.659	0.277	-0.280
-78.582	800.000	0.057	0.179
-77.567	-41.703	-0.185	-0.095
-76.553	-33.946	-0.191	0.105
-75.538	-101.890	0.129	-0.031
-74.524	66.835	-0.157	-0.160
-73.509	549.216	-0.114	0.272
-72.494	-127.069	0.162	0.024
-71.480	-18.493	-0.045	-0.028
-70.465	-62.045	-0.374	0.156
-69.451	-200.000	-0.006	0.087
-68.436	800.000	0.037	-0.114
-67.422	-200.000	0.015	-0.132
-66.407	-200.000	0.001	-0.114
-65.392	530.122	0.071	-0.166
-64.378	4.943	-0.133	-0.097
-63.363	63.352	0.043	0.043
-62.349	654.925	-0.149	0.381
-61.334	86.082	-0.649	-0.712
-60.319	800.000	0.086	0.274
-59.305	-200.000	-0.124	-0.609
-58.290	800.000	0.256	0.720
-57.276	258.188	0.871	1.493
-56.261	-200.000	76.357	523.601
-55.246	535.687	1317.522	3113.338
-54.232	146.891	2547.936	3412.086
-53.217	117.776	2249.789	2758.960
-52.203	52.503	1772.314	1685.126
-51.188	45.001	1568.796	1438.918
-50.173	42.319	1538.669	1392.642
-49.159	58.561	1575.754	1540.333
-48.144	64.239	1595.285	1599.114
-47.130	45.469	1558.911	1432.905
-46.115	41.939	1543.505	1394.145
-45.100	41.632	1540.640	1389.372
-44.086	41.581	1538.837	1387.335
-43.071	41.569	1536.806	1385.367
-42.057	41.625	1534.756	1383.851
-41.042	41.444	1533.785	1381.669
-40.027	41.546	1531.701	1380.440
-39.013	41.578	1530.059	1379.125
-37.998	41.385	1529.451	1377.193
-36.984	41.470	1528.144	1376.546
-35.969	41.572	1526.280	1375.517
-34.954	41.669	1524.857	1374.845
-33.940	41.629	1523.433	1373.230
-32.925	41.516	1521.994	1371.106
-31.911	41.569	1520.636	1370.188
-30.896	41.679	1518.981	1369.401
-29.881	41.685	1517.818	1368.338
-28.867	41.670	1516.872	1367.328
-27.852	41.594	1515.384	1365.415
-26.838	41.604	1513.808	1364.008
-25.823	41.612	1512.035	1362.406
-24.809	41.674	1510.092	1361.025
-23.794	41.548	1509.109	1359.230
-22.779	41.680	1507.805	1358.898
-21.765	41.677	1506.947	1358.049
-20.750	41.726	1506.041	1357.515
-19.736	41.615	1504.665	1355.468
-18.721	41.508	1503.991	1354.079
-17.706	41.555	1502.649	1353.134
-16.692	41.606	1501.289	1352.199
-15.677	41.471	1500.941	1350.921
-14.663	41.468	1499.381	1349.446
-13.648	41.450	1498.992	1348.919
-12.633	41.525	1497.607	1348.127
-11.619	41.625	1496.197	1347.473
-10.604	41.446	1496.008	1346.046
-9.590	41.610	1494.520	1345.756
-8.575	41.486	1493.864	1344.278
-7.560	41.511	1492.860	1343.492
-6.546	41.521	1492.038	1342.761
-5.531	41.431	1491.253	1341.396
-4.517	41.543	1490.006	1340.979
-3.502	41.489	1489.201	1339.839
-2.487	41.509	1488.240	1339.052
-1.473	41.488	1487.418	1338.116
-0.458	41.605	1485.360	1336.998
0.556	39.677	1476.172	1325.310
1.571	36.203	1447.870	1276.843
2.586	31.539	1383.954	1190.764
3.600	29.144	1298.159	1102.533
4.615	27.065	1249.197	1048.861
5.629	24.827	1195.328	991.163
6.644	19.927	1113.332	897.744
7.659	15.231	1072.237	841.019
8.673	14.472	1066.550	832.695
9.688	14.377	1064.018	830.168
10.702	14.213	1062.789	828.323
11.717	14.318	1060.800	827.220
12.731	16.217	1062.226	837.697
13.746	20.391	1067.906	862.887
14.761	21.022	1067.310	865.460
15.775	18.580	1062.171	849.141
16.790	17.099	1059.594	839.685
17.804	15.985	1056.947	832.016
18.819	15.033	1055.176	825.853
19.834	14.438	1053.917	821.862
20.848	13.938	1052.849	818.495
21.863	13.725	1052.080	816.776
22.877	13.564	1050.960	815.039
23.892	13.329	1050.233	813.250
24.907	13.316	1049.450	812.506
25.921	13.260	1048.919	811.748
26.936	13.359	1048.064	811.499
27.950	13.272	1047.132	810.279
28.965	13.285	1046.084	809.465
29.980	13.461	1044.678	809.164
30.994	13.437	1043.812	808.304
32.009	13.442	1042.488	807.229
33.023	13.528	1041.899	807.122
34.038	13.500	1040.947	806.177
35.053	13.388	1040.539	805.244
36.067	13.404	1039.403	804.372
37.082	13.376	1038.380	803.373
38.096	13.435	1037.445	802.866
39.111	13.325	1037.258	802.114
40.126	13.475	1035.890	801.713
41.140	13.280	1034.954	799.974
42.155	13.191	1034.131	798.840
43.169	13.272	1033.008	798.292
44.184	13.206	1032.059	797.169
45.199	13.200	1031.233	796.432
46.213	13.228	1029.805	795.394
47.228	13.229	1028.960	794.674
48.242	13.331	1028.107	794.435
49.257	13.437	1026.838	793.892
50.271	13.329	1026.258	792.856
51.286	13.248	1025.462	791.785
52.301	13.355	1024.681	791.625
53.315	13.282	1024.362	790.956
54.330	13.281	1023.080	789.892
55.344	13.218	1022.222	788.860
56.359	13.243	1021.174	788.101
57.374	13.316	1020.108	787.557
58.388	13.194	1019.114	786.138
59.403	13.182	1018.450	785.498
60.417	13.215	1017.790	785.079
61.432	13.261	1017.000	784.615
62.447	13.163	1016.425	783.639
63.461	13.081	1015.685	782.610
64.476	13.128	1014.608	781.933
65.490	13.198	1013.569	781.395
66.505	13.153	1012.834	780.547
67.520	13.036	1012.501	779.668
68.534	13.030	1011.817	779.046
69.549	13.097	1011.092	778.732
70.563	13.228	1010.300	778.671
71.578	13.231	1009.542	778.031
72.593	13.154	1008.699	776.949
73.607	13.000	1007.832	775.494
74.622	13.006	1006.740	774.609
75.636	13.102	1005.263	773.857
76.651	13.075	1004.943	773.414
77.666	13.103	1004.185	772.895
78.680	13.151	1003.147	772.251
79.695	13.021	1003.479	771.831
80.709	13.082	1002.027	770.930
81.724	13.089	1001.753	770.684
82.739	13.144	1000.857	770.181
83.753	13.232	1000.052	769.906
84.768	13.234	999.387	769.335
85.782	13.466	998.696	769.811
86.797	13.400	998.298	769.129
87.812	13.437	997.089	768.305
88.826	13.357	996.389	767.325
89.841	13.327	995.204	766.205
90.855	13.282	994.803	765.618
91.870	13.393	994.070	765.502
92.884	13.354	993.330	764.684
93.899	13.450	992.282	764.254
94.914	13.491	991.426	763.716
95.928	13.379	991.111	762.888
96.943	13.496	990.133	762.607
97.957	13.440	989.556	761.836
98.972	13.399	988.665	760.897
99.987	13.449	987.811	760.400
101.001	13.411	987.392	759.835
102.016	13.336	986.706	758.897
103.030	13.286	985.856	757.946
104.045	13.459	984.284	757.464
105.060	13.311	983.877	756.407
106.074	13.369	982.512	755.556
107.089	13.309	981.530	754.458
108.103	13.184	980.894	753.332
109.118	13.166	980.078	752.557
110.133	13.103	979.636	751.864
111.147	13.171	978.255	751.050
112.162	13.165	977.454	750.342
113.176	13.199	977.012	750.088
114.191	13.233	975.935	749.348
115.206	13.300	975.184	749.009
116.220	13.276	974.638	748.417
117.235	13.288	973.929	747.861
118.249	13.277	972.670	746.779
119.264	13.274	971.896	746.105
120.279	13.295	971.060	745.488
121.293	13.171	970.486	744.425
122.308	13.298	969.352	744.060
123.322	13.162	968.654	742.848
124.337	13.237	967.492	742.227
125.352	13.197	966.329	741.090
126.366	13.308	965.278	740.714
127.381	13.357	964.046	739.925
128.395	13.255	963.503	738.983
129.410	13.363	962.143	738.359
130.424	13.228	961.597	737.275
131.439	13.274	960.613	736.658
132.454	13.430	959.597	736.508
133.468	13.332	959.029	735.573
134.483	13.254	958.751	734.947
135.497	13.325	957.882	734.529
136.512	13.378	957.064	734.075
137.527	13.392	956.321	733.500
138.541	13.338	955.691	732.714
139.556	13.351	955.179	732.311
140.570	13.397	954.218	731.715
141.585	13.436	953.207	731.046
142.600	13.479	952.864	730.908
143.614	13.418	952.102	729.993
144.629	13.527	951.427	729.889
145.643	13.548	950.696	729.358
146.658	13.478	950.113	728.537
147.673	13.637	948.400	727.858
148.687	13.480	947.379	726.320
149.702	13.399	947.159	725.732
150.716	13.517	945.446	724.870
151.731	13.360	945.400	724.085
152.746	13.500	944.352	723.833
153.760	13.378	943.700	722.733
154.775	13.365	943.104	722.155
155.789	13.422	942.581	721.941
156.804	13.482	941.689	721.458
157.819	13.537	940.796	720.948
158.833	13.544	940.345	720.567
159.848	13.598	939.575	720.151
160.862	13.509	938.780	719.088
161.877	13.607	938.223	719.024
162.892	13.492	937.183	717.665
163.906	13.379	936.559	716.634
164.921	13.486	935.565	716.271
165.935	13.551	934.108	715.376
166.950	13.512	933.508	714.685
167.964	13.493	932.798	713.996
168.979	13.445	931.879	713.022
169.994	13.557	930.690	712.533
171.008	13.448	930.059	711.515
172.023	13.440	929.126	710.704
173.037	13.596	928.387	710.746
174.052	13.662	927.924	710.613
175.067	13.580	927.251	709.682
176.081	13.572	925.981	708.613
177.096	13.475	925.071	707.440
178.110	13.571	924.378	707.258
179.125	13.498	923.946	706.554
180.140	13.523	922.946	705.834
181.154	13.603	922.092	705.456
182.169	13.664	921.448	705.163
183.183	13.717	921.067	705.035
184.198	13.646	920.561	704.279
185.213	13.886	919.235	704.222
186.227	13.864	919.017	703.899
187.242	13.799	918.529	703.190
188.256	13.746	917.999	702.498
189.271	13.891	916.991	702.275
190.286	13.962	915.712	701.535
191.300	13.822	915.170	700.465
192.315	13.644	914.948	699.482
193.329	13.586	914.228	698.629
194.344	13.658	913.440	698.266
195.359	13.647	913.409	698.132
196.373	13.668	912.611	697.551
197.388	13.818	911.806	697.505
198.402	13.878	911.336	697.335
199.417	13.945	910.843	697.177
200.432	14.160	910.336	697.629
201.446	13.986	910.083	696.644
202.461	14.107	909.794	696.867
203.475	14.026	909.535	696.268
204.490	14.156	908.627	696.058
205.504	13.906	908.023	694.488
206.519	13.919	906.784	693.530
207.534	14.066	906.070	693.538
208.548	13.985	905.135	692.425
209.563	14.048	905.033	692.545
210.577	14.005	903.982	691.503
211.592	13.942	903.751	691.000
212.607	14.051	902.837	690.696
213.621	14.161	902.324	690.698
214.636	14.179	901.703	690.235
215.650	14.168	900.684	689.350
216.665	14.097	899.974	688.452
217.680	14.221	899.373	688.443
218.694	14.138	899.095	687.826
219.709	14.308	898.251	687.821
220.723	14.303	897.702	687.320
221.738	14.205	897.349	686.585
222.753	14.239	896.576	686.075
223.767	14.241	895.930	685.526
224.782	14.281	895.072	684.974
225.796	14.425	894.309	684.919
226.811	14.415	893.834	684.456
227.826	14.283	893.442	683.554
228.840	14.328	892.325	682.820
229.855	14.423	891.169	682.267
230.869	14.368	890.849	681.735
231.884	14.398	890.058	681.193
232.899	14.397	889.578	680.763
233.913	14.291	888.839	679.701
234.928	14.405	887.937	679.419
235.942	14.235	887.950	678.675
236.957	14.211	887.294	678.015
237.972	14.362	886.410	677.896
238.986	14.241	885.667	676.773
240.001	14.333	884.610	676.279
241.015	14.322	884.472	676.069
242.030	14.413	883.479	675.618
243.045	14.418	882.946	675.172
244.059	14.481	882.127	674.743
245.074	14.560	881.197	674.290
246.088	14.322	881.298	673.344
247.103	14.503	880.846	673.670
248.117	14.438	879.872	672.604
249.132	14.462	879.582	672.421
250.147	14.668	878.860	672.640
251.161	14.799	878.278	672.664
252.176	14.792	877.516	671.989
253.190	14.719	876.923	671.184
254.205	14.811	876.361	671.064
255.220	14.949	875.497	670.897
256.234	14.852	875.073	670.123
257.249	14.783	874.781	669.563
258.263	14.831	874.048	669.135
259.278	14.790	873.284	668.329
260.293	14.934	872.690	668.388
261.307	14.941	872.094	667.902
262.322	14.939	871.525	667.397
263.336	15.004	870.965	667.172
264.351	15.155	870.461	667.325
265.366	14.956	869.841	666.000
266.380	15.055	869.137	665.794
267.395	15.024	868.776	665.338
268.409	15.029	868.034	664.729
269.424	14.911	866.998	663.412
270.439	15.008	866.527	663.374
271.453	15.022	865.657	662.705
272.468	15.029	864.886	662.085
273.482	15.048	864.318	661.668
274.497	14.959	863.759	660.829
275.512	15.048	862.869	660.439
276.526	14.988	862.253	659.672
277.541	15.047	861.677	659.406
278.555	15.018	861.309	658.953
279.570	15.167	860.534	658.887
280.585	15.273	859.993	658.834
281.599	15.334	859.408	658.564
282.614	15.297	858.800	657.894
283.628	15.225	858.313	657.182
284.643	15.103	857.878	656.312
285.657	15.180	857.244	656.072
286.672	15.308	856.828	656.195
287.687	15.243	856.253	655.444
288.701	15.238	855.892	655.090
289.716	15.157	855.203	654.189
290.730	15.332	854.648	654.389
291.745	15.319	853.959	653.750
292.760	15.418	852.888	653.261
293.774	15.394	852.591	652.879
294.789	15.436	852.554	652.960
295.803	15.434	851.540	652.115
296.818	15.428	850.761	651.438
297.833	15.370	850.340	650.831
298.847	15.298	849.673	649.987
299.862	15.315	849.044	649.512
300.876	15.500	848.155	649.492
301.891	15.465	847.459	648.764
302.906	15.627	846.743	648.787
303.920	15.529	846.238	647.962
304.935	15.572	845.535	647.535
305.949	15.652	845.157	647.492
306.964	15.741	844.679	647.415
307.979	15.690	843.909	646.570
308.993	15.697	843.255	646.041
310.008	15.823	842.865	646.169
311.022	15.667	842.489	645.222
312.037	15.762	842.040	645.186
313.052	15.638	841.623	644.336
314.066	15.580	840.433	643.144
315.081	15.640	840.140	643.093
316.095	15.582	839.483	642.311
317.110	15.655	839.414	642.481
318.125	15.546	838.404	641.234
319.139	15.711	837.809	641.352
320.154	15.689	837.585	641.040
321.168	15.643	836.926	640.302
322.183	15.589	836.457	639.684
323.197	15.787	835.792	639.869
324.212	15.869	834.661	639.258
325.227	15.858	834.333	638.912
326.241	15.750	834.057	638.233
327.256	15.797	833.871	638.212
328.270	15.793	833.008	637.481
329.285	15.724	832.606	636.853
330.300	15.854	831.848	636.710
331.314	15.764	831.474	636.027
332.329	15.718	830.744	635.240
333.343	15.839	830.260	635.269
334.358	15.920	829.670	635.066
335.373	16.015	829.027	634.878
336.387	16.025	828.619	634.544
337.402	15.850	828.054	633.397
338.416	16.099	827.456	633.819
339.431	16.062	826.860	633.171
340.446	16.036	826.538	632.768
341.460	16.072	825.831	632.306
342.475	16.157	825.330	632.186
343.489	16.161	824.612	631.595
344.504	16.239	824.063	631.411
345.519	16.167	823.682	630.793
346.533	16.265	823.288	630.801
347.548	16.342	822.955	630.777
348.562	16.185	822.228	629.579
349.577	16.240	821.844	629.436
350.592	16.157	820.904	628.351
351.606	16.126	820.352	627.758
352.621	16.112	820.191	627.526
353.635	16.077	819.812	627.050
354.650	16.232	819.188	627.093
355.665	16.351	819.032	627.361
356.679	16.228	818.387	626.353
357.694	16.296	817.602	625.949
358.708	16.298	817.480	625.809
359.723	16.270	817.011	625.292
360.738	16.239	816.517	624.744
361.752	16.264	816.023	624.403
362.767	16.337	815.403	624.144
363.781	16.375	814.944	623.874
364.796	16.460	814.322	623.657
365.810	16.472	814.183	623.539
366.825	16.471	814.176	623.477
367.840	16.595	813.421	623.301
368.854	16.604	812.861	622.847
369.869	16.493	812.642	622.217
370.883	16.627	811.704	621.936
371.898	16.572	811.699	621.676
372.913	16.664	810.650	621.154
373.927	16.611	810.406	620.720
374.942	16.627	809.378	619.937
375.956	16.628	808.880	619.503
376.971	16.675	808.221	619.116
377.986	16.743	807.853	619.029
379.000	16.686	807.201	618.266
380.015	16.861	806.749	618.501
381.029	16.880	805.844	617.823
382.044	16.860	805.707	617.589
383.059	16.877	804.812	616.911
384.073	16.788	804.703	616.451
385.088	16.850	803.999	616.083
386.102	16.909	803.575	615.915
387.117	16.810	802.978	615.043
388.132	16.931	802.379	614.970
389.146	16.833	801.990	614.263
390.161	16.816	801.821	614.016
391.175	16.911	801.585	614.125
392.190	16.928	800.912	613.616
393.205	16.891	800.640	613.222
394.219	16.964	800.334	613.197
395.234	16.915	799.640	612.433
396.248	16.853	799.071	611.719
397.263	16.958	798.341	611.484
398.278	16.834	798.139	610.829
399.292	16.782	798.010	610.490
400.307	16.864	797.476	610.321
401.321	16.823	797.058	609.801
402.336	16.964	796.618	609.916
403.350	16.956	796.267	609.564
404.365	16.982	795.520	609.032
405.380	16.929	795.207	608.551
406.394	17.038	794.834	608.601
407.409	17.118	794.371	608.479
408.423	17.164	793.646	608.034
409.438	17.062	793.740	607.688
410.453	17.182	792.952	607.459
411.467	17.184	792.714	607.233
412.482	17.308	792.206	607.230
413.496	17.271	791.794	606.729
414.511	17.305	791.580	606.634
415.526	17.347	791.131	606.387
416.540	17.147	791.006	605.521
417.555	17.312	790.548	605.705
418.569	17.411	789.618	605.292
419.584	17.410	789.417	605.079
420.599	17.318	788.971	604.359
421.613	90.897	1260.834	1363.976
422.628	77.290	1329.619	1364.120
