DTS Sentinel unit serial number:	SN413079Multiplexer serial number:	ORYXHardware model number:	OX4-SRSoftware version number:	ORYX F/W v4.00 Oryx Data Collector v3.7.2.0data status	okinstallation	princeton_trtdifferential loss correction	single-endedforward channel	channel 3reverse channel	N/Adate	2019/09/13time	11:36:35forward acquisition time	60.00reverse acquisition time	0.00gamma	496.2192k internal	0.2312k external	0.2312temperature offset calibration	1.0140default loss term (dB/km)	0.3790temperature slope calibration	1.0000multiplexer offset coefficient	1.0000multiplexer slope coefficient	1.0000fibre end	0.00T internal ref (°C)	32.94T ext. ref 1 (°C)	4.43T ext. ref 2 (°C)	30.07length (m)	temperature (°C)	Stokes	anti-Stokes-747.200	-49.465	0.302	0.146
-746.185	162.886	0.163	-0.232
-745.171	71.188	0.228	0.240
-744.156	-155.774	-0.272	-0.018
-743.142	320.967	0.146	-0.281
-742.127	177.179	0.042	-0.061
-741.112	-29.164	-0.306	0.178
-740.098	43.258	0.024	0.022
-739.083	-57.780	-0.016	0.007
-738.069	-121.771	0.201	0.034
-737.054	23.300	-0.134	-0.111
-736.039	-200.000	0.006	-0.131
-735.025	176.027	0.230	0.338
-734.010	413.555	0.165	-0.356
-732.996	103.966	-0.159	0.190
-731.981	131.402	-0.050	-0.065
-730.966	800.000	-0.130	-0.461
-729.952	452.712	-0.083	-0.186
-728.937	-130.962	-0.297	-0.040
-727.923	299.158	-0.073	0.136
-726.908	-151.992	0.266	-0.020
-725.894	-127.299	-0.188	0.028
-724.879	92.985	-0.163	0.187
-723.864	319.804	0.147	-0.283
-722.850	85.822	-0.158	0.176
-721.835	63.633	-0.132	-0.134
-720.821	-200.000	0.003	0.286
-719.806	-200.000	0.002	0.252
-718.791	800.000	-0.058	0.217
-717.777	293.013	-0.080	-0.149
-716.762	18.543	-0.120	-0.097
-715.748	-108.595	-0.142	-0.031
-714.733	137.660	-0.021	-0.028
-713.718	55.569	-0.108	0.106
-712.704	12.483	0.085	0.066
-711.689	-200.000	0.054	-0.424
-710.675	17.094	-0.214	-0.172
-709.660	-97.976	-0.211	0.055
-708.645	800.000	0.069	0.262
-707.631	-81.030	-0.139	0.047
-706.616	-6.927	0.159	0.109
-705.602	794.820	0.059	-0.164
-704.587	37.415	-0.189	0.170
-703.572	-49.949	0.311	-0.150
-702.558	-147.952	0.088	0.007
-701.543	755.850	-0.063	-0.173
-700.529	-200.000	-0.074	-0.344
-699.514	800.000	-0.095	-0.290
-698.499	-117.353	0.165	-0.030
-697.485	-200.000	-0.079	0.596
-696.470	86.183	0.123	-0.137
-695.456	748.851	-0.056	0.154
-694.441	46.397	-0.186	-0.174
-693.426	-151.328	-0.142	0.011
-692.412	-19.971	0.108	0.068
-691.397	-113.166	0.281	-0.056
-690.383	-120.685	-0.448	0.077
-689.368	-3.397	0.123	-0.087
-688.354	800.000	0.068	0.250
-687.339	-39.835	0.204	0.108
-686.324	-200.000	-0.012	-0.086
-685.310	76.539	0.226	-0.243
-684.295	-99.700	-0.500	0.127
-683.281	-37.045	0.203	0.110
-682.266	122.230	0.096	-0.121
-681.251	-139.082	0.224	0.025
-680.237	139.195	0.098	0.131
-679.222	454.292	-0.103	0.230
-678.208	-104.054	0.075	-0.018
-677.193	81.330	0.037	0.040
-676.178	443.435	0.065	-0.144
-675.164	-200.000	0.017	-0.089
-674.149	10.611	0.297	-0.229
-673.135	-74.362	-0.330	-0.121
-672.120	-200.000	0.022	-0.229
-671.105	-54.654	0.238	0.109
-670.091	-47.783	-0.309	-0.152
-669.076	638.128	-0.063	0.163
-668.062	-168.389	-0.280	0.011
-667.047	200.969	-0.047	0.074
-666.032	-200.000	0.046	0.475
-665.018	-104.747	-0.155	-0.036
-664.003	-104.932	-0.255	0.059
-662.989	-198.149	-0.318	-0.002
-661.974	-200.000	0.026	0.544
-660.959	-200.000	0.043	0.304
-659.945	-28.561	0.209	0.121
-658.930	-68.049	-0.258	-0.102
-657.916	166.942	-0.095	0.136
-656.901	-155.437	0.088	-0.006
-655.886	-146.126	-0.371	-0.033
-654.872	47.633	0.078	0.074
-653.857	-119.587	0.117	0.021
-652.843	9.383	-0.398	-0.304
-651.828	12.512	0.083	0.065
-650.814	716.603	0.031	-0.082
-649.799	-71.303	0.404	0.153
-648.784	-53.824	0.359	0.166
-647.770	-92.281	0.082	-0.023
-646.755	138.347	-0.114	0.152
-645.741	-200.000	-0.015	0.229
-644.726	216.326	-0.015	0.023
-643.711	800.000	-0.091	-0.353
-642.697	306.276	-0.175	-0.329
-641.682	235.606	-0.040	-0.066
-640.668	-131.844	0.238	0.031
-639.653	22.445	-0.089	0.073
-638.638	800.000	-0.014	-0.041
-637.624	452.692	-0.024	-0.053
-636.609	617.345	0.024	-0.062
-635.595	-156.607	-0.115	-0.007
-634.580	-132.549	-0.269	-0.035
-633.565	-81.869	-0.238	-0.079
-632.551	-200.000	-0.010	0.172
-631.536	-36.608	0.174	-0.095
-630.522	729.637	-0.095	-0.257
-629.507	65.221	-0.149	0.152
-628.492	800.000	0.039	-0.140
-627.478	-54.620	-0.173	0.079
-626.463	-127.498	0.144	-0.021
-625.449	-200.000	0.279	-0.001
-624.434	-145.191	0.221	0.020
-623.419	-112.655	0.129	0.026
-622.405	-183.713	-0.299	-0.005
-621.390	-63.564	0.162	-0.067
-620.376	-172.748	-0.205	-0.006
-619.361	-180.400	-0.175	-0.004
-618.346	190.980	-0.102	0.156
-617.332	-114.883	0.050	0.010
-616.317	-200.000	-0.004	-0.074
-615.303	58.125	0.187	0.185
-614.288	-15.564	0.249	0.160
-613.273	207.960	0.104	0.163
-612.259	-114.769	0.040	0.008
-611.244	399.374	-0.082	0.173
-610.230	-38.508	0.279	0.149
-609.215	-61.545	-0.189	0.080
-608.201	-5.101	-0.093	0.064
-607.186	800.000	0.094	-0.325
-606.171	800.000	-0.071	0.199
-605.157	141.891	0.156	0.209
-604.142	-128.849	0.100	0.014
-603.128	143.733	0.287	0.386
-602.113	-200.000	0.007	0.389
-601.098	-13.328	-0.136	-0.089
-600.084	-199.719	0.383	0.002
-599.069	-200.000	-0.016	-0.248
-598.055	-0.938	0.364	-0.260
-597.040	-81.309	0.311	-0.103
-596.025	103.329	0.067	0.080
-595.011	-84.541	-0.260	0.083
-593.996	-200.000	0.037	-0.187
-592.982	800.000	0.096	-0.268
-591.967	-11.851	-0.084	-0.055
-590.952	448.988	0.070	0.156
-589.938	-200.000	-0.091	0.538
-588.923	-200.000	0.058	-0.271
-587.909	74.048	0.153	0.162
-586.894	220.067	0.360	-0.582
-585.879	800.000	0.043	-0.123
-584.865	800.000	-0.099	-0.362
-583.850	29.926	-0.170	0.146
-582.836	-200.000	0.029	0.134
-581.821	-37.618	-0.192	-0.103
-580.806	60.792	0.109	-0.109
-579.792	607.105	-0.039	0.097
-578.777	-60.489	0.106	0.045
-577.763	800.000	0.083	0.296
-576.748	-57.223	-0.047	-0.021
-575.733	3.746	0.245	-0.180
-574.719	-1.947	0.201	0.142
-573.704	-39.296	0.118	-0.063
-572.690	-48.068	-0.272	0.132
-571.675	-99.621	0.333	0.084
-570.661	-105.980	-0.463	-0.105
-569.646	-20.820	-0.356	-0.220
-568.631	-94.946	-0.203	-0.055
-567.617	800.000	-0.016	-0.068
-566.602	301.329	-0.127	-0.237
-565.588	-47.823	-0.257	0.126
-564.573	278.087	0.167	0.300
-563.558	-95.799	-0.295	0.079
-562.544	-200.000	-0.023	-0.157
-561.529	-36.120	0.162	-0.088
-560.515	-13.921	0.160	0.104
-559.500	201.913	-0.141	0.219
-558.485	-131.878	-0.213	-0.028
-557.471	-200.000	-0.005	-0.047
-556.456	-125.340	0.345	-0.053
-555.442	800.000	-0.045	0.148
-554.427	448.698	0.067	-0.150
-553.412	-200.000	0.032	0.149
-552.398	-200.000	0.042	0.213
-551.383	-146.719	-0.128	0.011
-550.369	800.000	0.060	-0.208
-549.354	12.895	0.203	0.158
-548.339	800.000	-0.016	-0.067
-547.325	179.854	-0.129	-0.191
-546.310	689.122	-0.054	-0.142
-545.296	-90.152	0.107	-0.031
-544.281	259.989	0.137	0.238
-543.266	800.000	0.087	0.299
-542.252	-6.870	0.295	0.202
-541.237	-58.760	0.294	0.128
-540.223	146.380	-0.326	-0.440
-539.208	10.142	0.114	-0.087
-538.193	800.000	0.069	0.235
-537.179	-74.231	-0.397	0.144
-536.164	233.486	-0.123	-0.204
-535.150	-200.000	0.053	-0.326
-534.135	-200.000	0.044	-0.403
-533.121	-144.050	0.387	0.037
-532.106	735.312	0.144	-0.388
-531.091	800.000	0.038	-0.114
-530.077	18.365	0.075	0.061
-529.062	800.000	-0.085	-0.307
-528.048	-35.860	0.132	0.072
-527.033	-84.658	-0.331	0.105
-526.018	33.496	0.087	-0.076
-525.004	-180.407	-0.268	-0.006
-523.989	-175.115	0.163	-0.005
-522.975	23.754	-0.193	-0.160
-521.960	650.083	-0.035	-0.091
-520.945	283.249	-0.089	0.161
-519.931	800.000	-0.007	-0.022
-518.916	41.807	0.215	0.196
-517.902	62.824	-0.368	0.370
-516.887	231.299	-0.085	0.140
-515.872	629.774	0.141	0.359
-514.858	-106.537	0.348	-0.078
-513.843	-55.923	-0.297	-0.133
-512.829	-200.000	-0.023	-0.288
-511.814	-186.147	0.331	-0.005
-510.799	214.275	-0.120	0.190
-509.785	-76.301	-0.359	-0.127
-508.770	-200.000	-0.032	-0.149
-507.756	21.061	-0.239	0.195
-506.741	-200.000	0.005	-0.042
-505.726	162.402	-0.066	0.093
-504.712	-5.102	-0.129	-0.090
-503.697	-123.214	0.161	0.026
-502.683	-200.000	-0.013	0.315
-501.668	-200.000	0.029	-0.148
-500.653	301.184	0.054	0.099
-499.639	-156.889	0.307	-0.019
-498.624	-200.000	0.054	-0.315
-497.610	-106.460	0.379	-0.085
-496.595	243.474	-0.042	0.070
-495.581	-116.300	-0.126	-0.024
-494.566	200.857	-0.142	0.219
-493.551	-80.733	0.215	0.072
-492.537	154.407	-0.186	-0.257
-491.522	8.797	0.216	-0.164
-490.508	602.474	-0.056	0.140
-489.493	-200.000	-0.066	-0.420
-488.478	-93.543	-0.171	0.047
-487.464	623.000	0.132	-0.335
-486.449	-200.000	0.017	-0.307
-485.435	-97.501	0.242	-0.063
-484.420	10.108	0.149	0.114
-483.405	-200.000	0.053	0.373
-482.391	-200.000	-0.012	0.187
-481.376	800.000	0.143	0.407
-480.362	188.624	0.160	-0.240
-479.347	-4.519	-0.446	-0.309
-478.332	-116.090	0.084	-0.016
-477.318	-35.924	-0.193	0.105
-476.303	133.199	-0.270	0.350
-475.289	-133.681	0.303	0.038
-474.274	-175.878	-0.109	-0.003
-473.259	681.131	-0.071	0.186
-472.245	800.000	-0.053	0.198
-471.230	-45.946	0.101	0.050
-470.216	51.506	0.070	0.067
-469.201	-13.697	0.082	0.053
-468.186	800.000	-0.061	-0.248
-467.172	174.183	-0.358	-0.519
-466.157	491.316	0.135	-0.309
-465.143	-92.167	-0.299	0.085
-464.128	-123.718	0.246	-0.039
-463.113	566.646	0.119	-0.289
-462.099	67.270	0.275	-0.281
-461.084	-6.666	-0.190	0.130
-460.070	-108.210	-0.192	0.042
-459.055	27.301	-0.150	0.126
-458.040	-114.659	0.215	0.041
-457.026	-200.000	0.020	-0.130
-456.011	52.149	-0.187	-0.179
-454.997	-200.000	-0.003	0.421
-453.982	-168.947	0.334	-0.013
-452.968	-200.000	-0.003	-0.205
-451.953	-200.000	0.103	-0.570
-450.938	-200.000	-0.049	0.230
-449.924	-46.180	-0.380	0.188
-448.909	193.560	0.249	-0.379
-447.895	-97.468	-0.232	0.060
-446.880	-200.000	-0.024	-0.215
-445.865	-27.122	-0.226	0.132
-444.851	47.870	0.045	-0.042
-443.836	74.818	-0.157	-0.166
-442.822	-89.646	-0.331	-0.097
-441.807	142.327	-0.092	0.122
-440.792	-200.000	-0.012	0.078
-439.778	-171.787	0.254	0.008
-438.763	-200.000	-0.026	0.349
-437.749	419.686	0.124	-0.266
-436.734	-39.289	-0.368	0.194
-435.719	-33.301	0.178	0.099
-434.705	-141.753	-0.036	-0.004
-433.690	-98.731	-0.028	-0.007
-432.676	127.520	0.121	0.154
-431.661	-69.910	-0.315	-0.120
-430.646	800.000	-0.034	0.129
-429.632	-29.792	-0.066	0.038
-428.617	-162.570	-0.038	-0.002
-427.603	-200.000	-0.001	0.033
-426.588	196.424	0.194	0.296
-425.573	-133.997	-0.295	-0.037
-424.559	-35.112	0.130	-0.071
-423.544	39.260	0.206	-0.185
-422.530	234.685	-0.153	0.253
-421.515	61.706	0.197	-0.196
-420.500	-44.707	0.266	-0.133
-419.486	264.073	0.094	-0.164
-418.471	42.934	0.059	0.054
-417.457	-37.429	0.236	0.126
-416.442	-136.948	0.036	0.004
-415.428	-86.949	0.365	-0.112
-414.413	-200.000	0.013	-0.207
-413.398	78.904	0.204	0.219
-412.384	206.597	-0.120	0.186
-411.369	124.886	0.037	0.047
-410.355	-5.357	0.293	0.201
-409.340	43.291	-0.136	-0.124
-408.325	-82.985	0.237	0.076
-407.311	-82.090	-0.345	-0.113
-406.296	-63.973	-0.156	0.064
-405.282	650.675	-0.048	0.122
-404.267	-200.000	-0.043	-0.313
-403.252	-200.000	-0.052	-0.275
-402.238	538.005	-0.032	-0.075
-401.223	-200.000	0.022	-0.137
-400.209	-200.000	0.006	-0.037
-399.194	671.589	0.099	-0.257
-398.179	117.992	-0.203	0.250
-397.165	800.000	0.065	-0.226
-396.150	-52.694	0.310	0.143
-395.136	40.658	-0.172	0.155
-394.121	562.544	-0.095	0.230
-393.106	70.593	-0.077	0.080
-392.092	800.000	0.069	0.248
-391.077	418.719	0.023	-0.049
-390.063	-200.000	-0.017	0.276
-389.048	-55.667	0.287	-0.129
-388.033	-200.000	0.024	-0.144
-387.019	-200.000	0.019	0.083
-386.004	-143.523	-0.203	0.019
-384.990	-184.257	-0.294	-0.005
-383.975	-117.329	-0.335	-0.061
-382.960	-70.135	0.159	-0.060
-381.946	-150.965	0.157	-0.012
-380.931	12.846	-0.264	-0.204
-379.917	28.038	0.105	-0.088
-378.902	-200.000	0.006	0.072
-377.888	-121.077	-0.176	0.030
-376.873	-200.000	-0.009	0.282
-375.858	-164.073	-0.262	-0.012
-374.844	800.000	-0.023	-0.074
-373.829	746.322	-0.100	-0.268
-372.815	80.484	0.255	-0.275
-371.800	-200.000	0.001	0.055
-370.785	364.917	0.102	0.206
-369.771	-200.000	-0.042	-0.212
-368.756	265.001	-0.048	0.084
-367.742	615.288	0.104	0.259
-366.727	173.559	-0.124	0.179
-365.712	-111.268	0.381	0.078
-364.698	-9.549	-0.334	-0.223
-363.683	10.883	0.232	0.177
-362.669	85.415	0.154	-0.169
-361.654	-200.000	-0.008	0.241
-360.639	26.065	0.198	-0.165
-359.625	-144.644	-0.120	0.011
-358.610	-21.914	-0.206	0.125
-357.596	-200.000	-0.018	0.130
-356.581	-200.000	0.294	-0.001
-355.566	-151.055	-0.295	-0.022
-354.552	-200.000	-0.031	0.376
-353.537	800.000	-0.053	0.168
-352.523	-22.974	-0.187	-0.113
-351.508	473.477	-0.051	0.116
-350.493	-93.978	0.123	-0.034
-349.479	36.877	-0.141	0.124
-348.464	-15.151	-0.053	0.034
-347.450	-200.000	-0.062	0.354
-346.435	-130.861	-0.271	0.036
-345.420	-200.000	-0.058	-0.385
-344.406	612.006	0.108	0.270
-343.391	-145.128	0.252	0.023
-342.377	-200.000	-0.017	0.163
-341.362	41.149	-0.185	0.167
-340.348	-200.000	0.001	0.284
-339.333	-80.805	-0.196	-0.065
-338.318	-65.205	0.147	0.059
-337.304	-37.532	0.147	-0.078
-336.289	-47.922	0.433	-0.209
-335.275	600.115	0.155	0.384
-334.260	-14.081	-0.136	-0.088
-333.245	-141.223	0.142	0.014
-332.231	-152.472	0.129	0.009
-331.216	-45.399	-0.204	-0.101
-330.202	160.671	-0.086	-0.120
-329.187	-75.873	-0.159	-0.056
-328.172	171.098	0.154	-0.220
-327.158	36.756	0.341	-0.301
-326.143	-200.000	-0.055	-0.256
-325.129	201.679	-0.237	-0.364
-324.114	325.522	0.127	-0.242
-323.099	34.972	0.089	0.078
-322.085	21.456	-0.166	-0.135
-321.070	-70.769	0.023	0.008
-320.056	-0.656	0.145	0.103
-319.041	102.224	-0.093	-0.108
-318.026	-170.673	0.238	0.008
-317.012	95.746	0.075	-0.086
-315.997	-39.619	-0.232	-0.121
-314.983	-126.730	-0.327	0.048
-313.968	47.027	-0.190	-0.176
-312.953	-53.822	0.156	0.071
-311.939	-94.242	0.255	-0.070
-310.924	-171.680	-0.236	0.008
-309.910	48.140	-0.129	0.121
-308.895	800.000	0.103	-0.325
-307.880	102.114	-0.089	-0.104
-306.866	1.362	-0.067	-0.048
-305.851	26.390	-0.128	0.107
-304.837	-23.887	0.339	-0.203
-303.822	-57.226	-0.101	-0.044
-302.807	-30.945	0.111	-0.062
-301.793	3.570	-0.274	-0.199
-300.778	-121.875	-0.263	0.043
-299.764	-5.614	0.294	0.201
-298.749	357.729	0.069	0.137
-297.735	52.537	-0.087	-0.083
-296.720	800.000	-0.055	-0.164
-295.705	-54.982	-0.096	-0.043
-294.691	243.243	0.030	0.050
-293.676	-105.141	0.371	0.085
-292.662	68.300	-0.138	-0.141
-291.647	-101.258	-0.108	-0.026
-290.632	106.750	-0.072	0.086
-289.618	-92.802	-0.125	0.035
-288.603	-9.824	-0.119	-0.079
-287.589	82.616	0.266	0.288
-286.574	800.000	0.055	0.212
-285.559	1.867	-0.219	0.157
-284.545	336.641	-0.061	0.118
-283.530	-200.000	-0.057	0.340
-282.516	320.890	-0.104	0.197
-281.501	381.078	0.035	-0.071
-280.486	-200.000	0.018	0.245
-279.472	-108.309	0.193	0.041
-278.457	-200.000	-0.005	-0.071
-277.443	-200.000	0.037	-0.463
-276.428	-200.000	-0.026	-0.296
-275.413	384.481	-0.158	-0.325
-274.399	-165.760	-0.434	-0.019
-273.384	-93.733	0.143	0.039
-272.370	301.464	-0.095	0.175
-271.355	-172.521	0.227	0.007
-270.340	-44.033	-0.104	0.052
-269.326	203.734	-0.055	-0.085
-268.311	-200.000	0.006	-0.108
-267.297	75.679	0.064	-0.068
-266.282	562.705	-0.198	-0.477
-265.267	-57.644	-0.318	-0.139
-264.253	800.000	0.057	-0.234
-263.238	74.276	0.067	-0.070
-262.224	376.859	-0.037	0.075
-261.209	131.179	-0.157	-0.201
-260.195	83.791	0.225	-0.244
-259.180	210.659	0.192	-0.300
-258.165	207.987	-0.084	-0.131
-257.151	-153.317	-0.237	-0.016
-256.136	-117.318	0.379	0.068
-255.122	3.738	-0.109	0.079
-254.107	413.350	0.061	-0.128
-253.092	697.093	-0.043	0.113
-252.078	257.613	-0.025	-0.043
-251.063	176.025	0.040	0.058
-250.049	-151.539	-0.380	-0.028
-249.034	-199.324	0.233	0.001
-248.019	-77.805	0.213	-0.073
-247.005	370.686	-0.047	0.095
-245.990	-16.471	0.134	0.085
-244.976	-24.717	0.482	0.285
-243.961	-150.664	-0.357	-0.027
-242.946	81.546	-0.203	0.219
-241.932	800.000	-0.043	0.149
-240.917	800.000	0.016	0.053
-239.903	351.225	0.073	-0.144
-238.888	-88.384	-0.287	0.085
-237.873	794.571	-0.060	-0.165
-236.859	800.000	-0.052	0.183
-235.844	-91.900	0.091	-0.026
-234.830	479.436	-0.048	-0.109
-233.815	-62.308	-0.097	0.040
-232.800	-200.000	0.021	0.131
-231.786	125.717	-0.083	0.104
-230.771	-40.388	0.068	0.035
-229.757	-70.237	0.123	0.047
-228.742	-200.000	0.010	-0.205
-227.727	-39.274	0.193	0.101
-226.713	800.000	-0.059	0.197
-225.698	-200.000	-0.006	-0.358
-224.684	201.013	-0.099	-0.152
-223.669	-149.555	-0.249	-0.020
-222.655	402.280	-0.194	-0.406
-221.640	-200.000	0.041	0.205
-220.625	-200.000	-0.070	-0.362
-219.611	-200.000	0.002	0.040
-218.596	-159.022	0.065	-0.004
-217.582	-200.000	0.024	0.405
-216.567	800.000	-0.124	0.536
-215.552	-50.991	-0.391	0.183
-214.538	-39.162	-0.261	-0.136
-213.523	69.164	0.280	0.286
-212.509	9.571	0.075	-0.056
-211.494	-200.000	0.010	0.147
-210.479	726.128	0.141	0.375
-209.465	-46.918	0.193	0.094
-208.450	-90.953	0.303	-0.087
-207.436	-10.199	-0.113	0.074
-206.421	339.342	-0.074	-0.144
-205.406	661.344	0.084	0.214
-204.392	-114.681	-0.522	-0.099
-203.377	27.937	-0.328	-0.275
-202.363	287.247	0.058	0.104
-201.348	261.125	-0.057	-0.097
-200.333	-134.559	-0.108	0.013
-199.319	-200.000	-0.004	0.078
-198.304	276.429	-0.091	-0.161
-197.290	12.092	0.137	0.105
-196.275	-162.421	0.370	-0.018
-195.260	-9.882	0.236	0.156
-194.246	-200.000	0.041	0.226
-193.231	35.842	0.181	0.158
-192.217	246.106	-0.201	0.337
-191.202	800.000	0.046	0.149
-190.187	93.028	0.131	0.147
-189.173	143.232	0.218	-0.288
-188.158	-65.918	0.176	0.070
-187.144	25.629	0.131	0.108
-186.129	242.778	0.022	0.037
-185.114	20.018	-0.050	-0.040
-184.100	-200.000	-0.008	0.060
-183.085	-63.876	-0.373	-0.152
-182.071	-66.256	0.159	0.063
-181.056	-154.015	0.232	-0.016
-180.042	-28.981	-0.128	0.073
-179.027	-200.000	0.076	-0.354
-178.012	562.904	0.033	-0.078
-176.998	-44.835	-0.177	-0.088
-175.983	-143.926	-0.270	0.025
-174.969	-72.984	0.211	0.077
-173.954	179.682	-0.168	-0.245
-172.939	20.224	0.242	-0.194
-171.925	287.556	0.141	-0.253
-170.910	79.628	-0.158	0.169
-169.896	207.144	-0.107	-0.166
-168.881	-96.121	0.249	0.066
-167.866	52.541	-0.109	0.103
-166.852	111.542	-0.199	-0.238
-165.837	-34.417	0.223	0.121
-164.823	-22.066	-0.303	0.183
-163.808	-108.057	0.123	-0.026
-162.793	312.669	-0.022	0.042
-161.779	-200.000	0.004	0.446
-160.764	-200.000	0.003	-0.195
-159.750	800.000	-0.097	-0.290
-158.735	9.850	0.029	0.022
-157.720	-200.000	0.058	0.315
-156.706	-114.943	0.214	-0.040
-155.691	-200.000	0.024	0.243
-154.677	-67.806	-0.242	0.094
-153.662	241.032	-0.074	0.123
-152.647	-200.000	-0.030	0.316
-151.633	800.000	0.096	0.306
-150.618	259.636	0.114	-0.195
-149.604	251.299	-0.214	-0.361
-148.589	173.255	0.139	0.198
-147.574	800.000	-0.066	-0.181
-146.560	279.117	0.042	0.074
-145.545	-165.427	0.309	0.013
-144.531	-112.062	-0.160	0.032
-143.516	186.485	-0.066	-0.098
-142.502	-200.000	-0.033	0.412
-141.487	800.000	-0.058	0.187
-140.472	-147.319	-0.594	0.050
-139.458	-129.678	0.178	0.024
-138.443	62.792	0.080	0.080
-137.429	-24.884	-0.125	0.073
-136.414	-58.723	-0.163	-0.070
-135.399	98.655	0.133	0.152
-134.385	-128.624	-0.163	0.023
-133.370	116.180	-0.100	-0.121
-132.356	-37.646	0.073	-0.039
-131.341	800.000	-0.095	-0.350
-130.326	-200.000	0.009	-0.141
-129.312	-39.064	0.262	0.137
-128.297	-64.188	0.107	-0.043
-127.283	-45.589	0.310	0.152
-126.268	-156.823	-0.255	-0.016
-125.253	-94.968	-0.206	0.055
-124.239	-67.916	0.040	0.015
-123.224	639.309	-0.028	0.071
-122.210	-200.000	-0.034	-0.181
-121.195	-200.000	-0.003	-0.092
-120.180	128.294	-0.104	-0.130
-119.166	61.688	0.107	-0.106
-118.151	282.016	-0.080	-0.142
-117.137	-38.474	0.177	0.093
-116.122	-49.040	-0.492	-0.233
-115.107	71.272	0.127	0.131
-114.093	96.912	0.255	-0.289
-113.078	-1.704	0.053	0.037
-112.064	105.617	0.237	-0.277
-111.049	-63.587	0.238	-0.097
-110.034	-39.048	0.191	-0.100
-109.020	-35.697	-0.479	0.257
-108.005	18.748	-0.138	-0.109
-106.991	134.241	0.207	0.265
-105.976	-40.050	-0.333	-0.172
-104.962	-200.000	-0.063	-0.305
-103.947	38.914	0.071	0.063
-102.932	324.030	-0.051	0.097
-101.918	-48.223	-0.117	0.056
-100.903	-44.899	0.272	-0.134
-99.889	15.465	-0.137	-0.106
-98.874	800.000	-0.021	-0.058
-97.859	-89.197	0.145	-0.042
-96.845	68.353	-0.096	-0.098
-95.830	-56.487	0.178	0.078
-94.816	-189.627	-0.290	0.003
-93.801	99.221	-0.198	0.226
-92.786	-200.000	-0.004	0.094
-91.772	269.513	0.135	0.234
-90.757	387.066	0.075	0.152
-89.743	733.087	-0.085	0.226
-88.728	144.092	-0.053	-0.070
-87.713	69.843	0.175	0.178
-86.699	7.934	-0.076	0.056
-85.684	800.000	0.138	0.517
-84.670	2.288	0.297	-0.213
-83.655	459.507	-0.096	0.212
-82.640	4.324	-0.373	-0.270
-81.626	29.252	-0.114	-0.096
-80.611	800.000	-0.090	0.332
-79.597	-112.951	-0.056	-0.011
-78.582	800.000	0.037	0.112
-77.567	316.848	0.259	0.484
-76.553	647.422	-0.138	0.349
-75.538	800.000	0.061	0.214
-74.524	29.340	-0.113	0.095
-73.509	-200.000	-0.006	-0.059
-72.494	303.764	0.136	-0.249
-71.480	43.176	0.109	-0.099
-70.465	-63.927	-0.186	0.075
-69.451	-200.000	-0.016	0.080
-68.436	800.000	-0.045	0.128
-67.422	-128.083	0.352	-0.050
-66.407	-64.278	0.247	0.099
-65.392	-75.530	0.005	0.002
-64.378	-200.000	0.002	-0.171
-63.363	-46.880	0.255	-0.123
-62.349	558.888	-0.106	0.252
-61.334	75.202	-1.069	-1.113
-60.319	75.507	0.492	0.513
-59.305	-200.000	-0.126	-1.105
-58.290	541.962	0.490	1.153
-57.276	541.873	0.623	1.466
-56.261	-200.000	97.555	592.815
-55.246	610.822	1430.402	3531.044
-54.232	183.124	2632.415	3839.353
-53.217	118.165	2210.868	2691.808
-52.203	43.465	1740.453	1571.062
-51.188	36.026	1552.259	1349.277
-50.173	33.700	1525.424	1309.862
-49.159	53.303	1575.446	1490.716
-48.144	55.246	1593.140	1521.017
-47.130	36.360	1551.081	1350.378
-46.115	33.205	1535.970	1315.267
-45.100	33.031	1532.116	1310.709
-44.086	33.027	1530.860	1309.554
-43.071	32.969	1528.712	1307.268
-42.057	32.864	1527.380	1305.349
-41.042	32.908	1525.620	1304.098
-40.027	32.951	1524.456	1303.343
-39.013	32.905	1522.936	1301.678
-37.998	32.924	1521.743	1300.738
-36.984	32.983	1520.562	1300.083
-35.969	32.849	1519.810	1298.463
-34.954	32.953	1517.620	1297.255
-33.940	33.005	1516.471	1296.580
-32.925	32.956	1514.684	1294.669
-31.911	32.992	1513.800	1294.107
-30.896	33.029	1512.295	1293.019
-29.881	33.029	1510.886	1291.766
-28.867	33.011	1509.494	1290.401
-27.852	32.985	1507.567	1288.522
-26.838	32.983	1506.776	1287.785
-25.823	32.999	1505.336	1286.610
-24.809	33.006	1503.456	1284.999
-23.794	33.006	1501.607	1283.368
-22.779	32.933	1500.736	1282.077
-21.765	32.979	1499.717	1281.467
-20.750	32.959	1498.785	1280.489
-19.736	32.920	1497.816	1279.340
-18.721	32.872	1496.671	1277.993
-17.706	32.896	1495.349	1276.971
-16.692	32.955	1494.311	1276.434
-15.677	32.834	1493.494	1274.868
-14.663	32.894	1492.687	1274.531
-13.648	32.847	1492.010	1273.590
-12.633	32.946	1490.465	1272.884
-11.619	32.863	1490.183	1272.035
-10.604	32.976	1488.924	1271.671
-9.590	32.929	1488.246	1270.723
-8.575	32.882	1487.198	1269.464
-7.560	32.939	1486.066	1268.832
-6.546	32.961	1485.345	1268.310
-5.531	32.905	1484.589	1267.242
-4.517	32.915	1483.649	1266.453
-3.502	32.947	1482.020	1265.229
-2.487	32.850	1481.586	1264.157
-1.473	32.859	1480.268	1263.043
-0.458	32.887	1478.859	1261.980
0.556	35.048	1469.121	1252.391
1.571	32.204	1442.716	1211.468
2.586	28.406	1380.634	1135.749
3.600	26.500	1297.347	1056.030
4.615	24.352	1249.860	1005.193
5.629	20.327	1192.070	936.952
6.644	12.144	1106.977	828.808
7.659	5.572	1065.438	765.584
8.673	4.630	1060.035	757.050
9.688	4.453	1056.447	753.561
10.702	4.233	1054.729	751.201
11.717	4.425	1053.257	751.017
12.731	7.477	1056.690	768.191
13.746	15.888	1068.001	817.337
14.761	21.815	1075.287	851.722
15.775	22.236	1074.876	853.362
16.790	21.381	1073.544	848.086
17.804	20.524	1071.373	842.145
18.819	19.566	1069.905	836.279
19.834	19.139	1068.501	833.043
20.848	19.011	1067.507	831.574
21.863	19.046	1066.819	831.134
22.877	18.844	1066.283	829.665
23.892	18.671	1065.492	828.145
24.907	18.449	1064.967	826.590
25.921	18.530	1063.830	826.027
26.936	18.556	1062.424	824.986
27.950	18.594	1061.653	824.498
28.965	18.545	1060.940	823.633
29.980	18.708	1059.724	823.402
30.994	18.775	1058.843	822.964
32.009	18.825	1058.044	822.509
33.023	18.940	1057.273	822.386
34.038	18.987	1056.397	821.858
35.053	18.790	1055.619	820.239
36.067	18.682	1054.456	818.747
37.082	18.579	1053.534	817.470
38.096	18.741	1052.883	817.663
39.111	18.778	1052.697	817.622
40.126	18.943	1050.975	816.998
41.140	18.820	1049.935	815.531
42.155	18.445	1048.844	812.835
43.169	18.242	1047.696	810.913
44.184	18.243	1046.531	809.943
45.199	18.279	1045.286	809.078
46.213	18.296	1044.266	808.295
47.228	18.310	1043.210	807.472
48.242	18.684	1042.444	808.572
49.257	18.650	1041.710	807.772
50.271	18.651	1041.186	807.296
51.286	18.650	1040.045	806.337
52.301	18.733	1039.494	806.226
53.315	18.720	1038.537	805.351
54.330	18.624	1037.939	804.366
55.344	18.464	1036.850	802.704
56.359	18.362	1036.079	801.561
57.374	18.477	1035.012	801.199
58.388	18.454	1034.374	800.529
59.403	18.449	1033.226	799.542
60.417	18.308	1032.209	798.029
61.432	18.221	1031.609	797.090
62.447	18.225	1031.163	796.693
63.461	18.086	1030.225	795.252
64.476	18.044	1029.246	794.232
65.490	17.983	1027.888	792.830
66.505	17.979	1027.551	792.478
67.520	18.050	1026.378	791.836
68.534	18.028	1025.989	791.362
69.549	18.195	1025.417	791.623
70.563	18.066	1024.393	790.169
71.578	17.975	1023.966	789.349
72.593	17.975	1022.819	788.395
73.607	17.844	1021.569	786.755
74.622	17.733	1021.075	785.794
75.636	17.823	1019.618	785.018
76.651	17.882	1019.225	784.918
77.666	17.981	1018.423	784.687
78.680	17.962	1017.493	783.814
79.695	18.014	1017.417	783.924
80.709	18.032	1016.741	783.415
81.724	18.052	1015.868	782.764
82.739	18.131	1015.044	782.423
83.753	18.296	1014.505	782.693
84.768	18.405	1014.020	782.748
85.782	18.877	1012.925	783.986
86.797	18.980	1012.992	784.437
87.812	18.888	1012.541	783.599
88.826	18.904	1010.586	782.092
89.841	18.651	1010.201	780.571
90.855	18.840	1009.334	780.694
91.870	18.796	1008.852	780.052
92.884	18.952	1008.104	780.109
93.899	18.848	1007.560	779.151
94.914	19.016	1006.497	779.021
95.928	19.046	1005.579	778.376
96.943	19.119	1004.495	777.796
97.957	18.757	1004.406	776.025
98.972	18.722	1003.329	774.965
99.987	18.787	1002.399	774.472
101.001	18.887	1001.922	774.485
102.016	18.850	1001.016	773.550
103.030	18.821	1000.059	772.613
104.045	18.771	999.057	771.546
105.060	18.848	998.069	771.057
106.074	18.794	996.809	769.775
107.089	18.564	995.668	767.794
108.103	18.207	994.966	765.591
109.118	18.181	994.193	764.811
110.133	18.034	993.376	763.460
111.147	18.142	992.035	762.840
112.162	18.068	991.310	761.889
113.176	18.163	990.425	761.562
114.191	18.309	989.637	761.540
115.206	18.466	989.195	761.829
116.220	18.367	988.473	760.766
117.235	18.341	987.546	759.871
118.249	18.269	986.455	758.643
119.264	18.241	985.804	757.952
120.279	18.073	984.896	756.445
121.293	18.077	984.179	755.843
122.308	18.007	983.454	754.912
123.322	17.883	982.418	753.501
124.337	18.006	980.989	752.882
125.352	17.864	979.631	751.145
126.366	17.877	978.978	750.636
127.381	17.946	977.923	750.067
128.395	17.901	976.936	749.043
129.410	18.006	976.015	748.732
130.424	18.024	975.711	748.513
131.439	17.992	974.587	747.442
132.454	18.117	974.225	747.643
133.468	18.262	972.996	747.270
134.483	18.194	972.696	746.678
135.497	18.480	971.552	746.977
136.512	18.283	971.223	745.800
137.527	18.282	970.753	745.369
138.541	18.329	969.583	744.611
139.556	18.422	968.948	744.462
140.570	18.308	968.435	743.506
141.585	18.515	967.557	743.664
142.600	18.667	966.820	743.692
143.614	18.727	966.164	743.378
144.629	18.736	965.838	743.100
145.643	18.959	964.994	743.350
146.658	18.909	964.225	742.479
147.673	18.680	962.873	740.381
148.687	18.633	961.649	739.174
149.702	18.511	960.773	737.910
150.716	18.175	960.393	736.105
151.731	18.266	959.259	735.565
152.746	18.295	958.632	735.142
153.760	18.437	957.570	734.871
154.775	18.283	957.281	733.926
155.789	18.591	956.096	734.267
156.804	18.558	955.720	733.773
157.819	18.626	954.667	733.193
158.833	18.604	954.535	732.931
159.848	18.790	953.736	733.046
160.862	18.982	952.914	733.169
161.877	18.880	952.362	732.243
162.892	18.661	950.965	730.175
163.906	18.420	949.975	728.328
164.921	18.352	949.345	727.489
165.935	18.353	948.159	726.521
166.950	18.332	947.178	725.613
167.964	18.557	946.206	725.758
168.979	18.566	945.668	725.318
169.994	18.476	944.358	723.872
171.008	18.371	943.859	722.981
172.023	18.481	942.824	722.586
173.037	18.607	941.686	722.183
174.052	18.892	941.216	722.959
175.067	18.822	940.572	722.105
176.081	18.543	939.852	720.317
177.096	18.394	938.923	718.915
178.110	18.372	937.859	717.946
179.125	18.360	937.308	717.407
180.140	18.413	936.455	716.915
181.154	18.509	936.016	716.914
182.169	18.587	935.513	716.796
183.183	18.748	935.177	717.145
184.198	18.850	934.300	716.835
185.213	19.041	933.192	716.715
186.227	18.888	932.629	715.584
187.242	18.779	932.768	715.174
188.256	18.783	932.095	714.611
189.271	18.959	931.151	714.557
190.286	19.068	930.286	714.283
191.300	18.968	929.745	713.386
192.315	18.416	928.458	710.048
193.329	18.137	927.686	708.239
194.344	18.319	926.917	708.345
195.359	18.406	926.523	708.339
196.373	18.651	925.872	708.794
197.388	18.604	925.889	708.547
198.402	18.758	925.373	708.727
199.417	18.979	924.966	709.262
200.432	19.163	924.398	709.521
201.446	19.149	924.438	709.433
202.461	19.270	923.977	709.515
203.475	19.439	923.215	709.564
204.490	19.372	922.820	708.921
205.504	19.113	921.896	707.085
206.519	19.017	920.973	705.920
207.534	18.994	919.846	704.900
208.548	19.022	918.938	704.257
209.563	19.019	918.531	703.870
210.577	19.079	917.612	703.346
211.592	19.205	917.113	703.419
212.607	19.207	916.732	703.073
213.621	19.351	916.437	703.371
214.636	19.282	915.325	702.174
215.650	19.121	915.124	701.301
216.665	19.161	914.387	700.836
217.680	19.242	914.484	701.178
218.694	19.422	913.790	701.315
219.709	19.480	913.163	701.011
220.723	19.403	912.512	700.135
221.738	19.418	911.522	699.374
222.753	19.307	911.032	698.486
223.767	19.343	910.152	697.896
224.782	19.409	909.505	697.605
225.796	19.435	909.050	697.299
226.811	19.534	908.610	697.299
227.826	19.491	907.359	696.103
228.840	19.269	906.968	694.849
229.855	19.327	905.698	694.046
230.869	19.313	905.519	693.792
231.884	19.319	904.906	693.285
232.899	19.185	903.858	691.883
233.913	19.006	903.198	690.596
234.928	18.974	902.665	690.003
235.942	19.003	901.554	689.205
236.957	18.988	900.761	688.478
237.972	18.908	900.332	687.771
238.986	19.103	899.250	687.664
240.001	19.081	898.833	687.196
241.015	19.056	898.276	686.608
242.030	19.143	897.894	686.601
243.045	19.303	897.213	686.660
244.059	19.316	896.845	686.370
245.074	19.392	895.683	685.722
246.088	19.334	895.060	684.952
247.103	19.497	894.822	685.356
248.117	19.657	894.381	685.595
249.132	19.778	893.948	685.681
250.147	19.813	893.558	685.460
251.161	20.015	893.331	686.027
252.176	20.052	892.843	685.736
253.190	20.207	892.015	685.653
254.205	20.284	891.333	685.370
255.220	20.403	891.016	685.539
256.234	20.244	890.154	684.187
257.249	20.240	889.424	683.549
258.263	20.209	889.216	683.206
259.278	20.173	888.619	682.547
260.293	20.109	888.005	681.762
261.307	20.360	886.831	681.785
262.322	20.311	886.480	681.261
263.336	20.324	886.187	681.027
264.351	20.433	885.609	680.951
265.366	20.364	885.004	680.158
266.380	20.515	884.096	679.989
267.395	20.522	883.494	679.492
268.409	20.428	882.490	678.293
269.424	20.274	881.776	677.085
270.439	20.222	881.476	676.592
271.453	20.199	880.554	675.734
272.468	20.214	879.108	674.622
273.482	20.009	878.837	673.557
274.497	19.977	878.706	673.275
275.512	19.946	878.129	672.652
276.526	19.967	877.693	672.341
277.541	20.018	876.479	671.547
278.555	20.068	875.824	671.179
279.570	20.285	875.292	671.552
280.585	20.433	875.088	671.908
281.599	20.360	874.869	671.400
282.614	20.399	873.795	670.667
283.628	20.185	873.028	669.192
284.643	20.160	872.145	668.359
285.657	20.093	871.569	667.601
286.672	20.280	871.055	667.871
287.687	20.218	870.748	667.336
288.701	20.206	870.376	666.944
289.716	20.262	870.003	666.814
290.730	20.252	869.194	666.097
291.745	20.167	868.684	665.323
292.760	20.241	867.862	664.919
293.774	20.331	867.355	664.817
294.789	20.569	867.026	665.414
295.803	20.530	866.052	664.461
296.818	20.406	865.700	663.657
297.833	20.237	864.991	662.410
298.847	20.256	864.348	661.931
299.862	20.154	864.242	661.401
300.876	20.319	862.937	660.974
301.891	20.588	862.164	661.348
302.906	20.509	862.050	660.898
303.920	20.640	861.562	660.965
304.935	20.797	860.585	660.753
305.949	20.910	860.523	661.076
306.964	20.850	859.504	660.005
307.979	20.763	858.949	659.193
308.993	20.674	858.273	658.279
310.008	20.900	857.711	658.645
311.022	20.830	857.479	658.143
312.037	20.808	856.930	657.582
313.052	20.687	856.434	656.686
314.066	20.558	855.248	655.233
315.081	20.321	854.864	653.987
316.095	20.364	854.124	653.524
317.110	20.405	853.733	653.320
318.125	20.388	852.865	652.535
319.139	20.317	852.781	652.148
320.154	20.298	852.009	651.426
321.168	20.453	851.676	651.696
322.183	20.397	850.979	650.895
323.197	20.589	850.550	651.230
324.212	20.510	850.083	650.518
325.227	20.577	849.631	650.364
326.241	20.408	849.286	649.413
327.256	20.523	848.473	649.164
328.270	20.494	847.718	648.420
329.285	20.462	846.798	647.540
330.300	20.541	846.234	647.344
331.314	20.395	846.017	646.577
332.329	20.449	845.208	646.102
333.343	20.682	844.532	646.394
334.358	20.638	844.435	646.099
335.373	20.802	843.899	646.241
336.387	20.849	843.114	645.758
337.402	20.790	843.015	645.407
338.416	21.067	842.222	645.764
339.431	20.920	841.808	644.847
340.446	21.157	841.526	645.451
341.460	21.349	841.101	645.777
342.475	21.320	840.597	645.225
343.489	21.260	840.126	644.587
344.504	21.472	839.404	644.758
345.519	21.402	839.158	644.253
346.533	21.577	838.564	644.385
347.548	21.445	838.199	643.562
348.562	21.162	837.473	641.907
349.577	21.112	836.510	640.928
350.592	20.947	835.866	639.772
351.606	20.877	835.035	638.822
352.621	20.773	834.742	638.162
353.635	20.746	834.591	637.889
354.650	20.866	833.979	637.805
355.665	21.053	833.337	637.943
356.679	21.017	833.118	637.588
357.694	21.235	832.289	637.691
358.708	21.221	832.112	637.446
359.723	21.288	831.528	637.188
360.738	21.185	830.751	636.162
361.752	21.221	830.284	635.878
362.767	21.233	830.037	635.678
363.781	21.234	830.243	635.783
364.796	21.591	829.247	636.262
365.810	21.484	829.225	635.801
366.825	21.761	829.185	636.719
367.840	21.857	828.411	636.417
368.854	21.831	827.775	635.778
369.869	21.701	827.288	634.875
370.883	21.469	826.662	633.501
371.898	21.485	826.089	633.062
372.913	21.667	825.552	633.252
373.927	21.717	825.129	633.052
374.942	21.622	824.526	632.191
375.956	21.530	823.620	631.108
376.971	21.745	823.242	631.539
377.986	21.843	822.946	631.609
379.000	21.875	822.369	631.224
380.015	21.970	821.876	631.132
381.029	21.976	821.029	630.447
382.044	21.890	820.836	629.935
383.059	21.874	819.915	629.115
384.073	21.946	819.318	628.858
385.088	21.881	818.947	628.286
386.102	21.769	818.065	627.151
387.117	21.535	817.805	626.062
388.132	21.550	817.015	625.453
389.146	21.662	816.712	625.567
390.161	21.619	816.208	624.972
391.175	21.761	815.803	625.112
392.190	21.854	815.559	625.201
393.205	21.829	814.806	624.479
394.219	21.661	814.527	623.613
395.234	21.651	813.911	623.051
396.248	21.468	813.572	622.087
397.263	21.371	812.993	621.243
398.278	21.377	812.252	620.643
399.292	21.176	812.111	619.769
400.307	21.323	811.621	619.861
401.321	21.329	811.099	619.427
402.336	21.584	810.842	620.078
403.350	21.546	810.433	619.578
404.365	21.563	810.152	619.366
405.380	21.776	809.868	619.848
406.394	21.765	809.435	619.426
407.409	21.988	808.828	619.691
408.423	22.080	808.602	619.789
409.438	22.239	808.042	619.865
410.453	22.207	807.567	619.334
411.467	22.351	807.294	619.577
412.482	22.392	806.560	619.102
413.496	22.421	806.005	618.723
414.511	22.496	805.851	618.816
415.526	22.521	805.556	618.620
416.540	22.223	805.481	617.463
417.555	22.248	804.745	616.931
418.569	22.292	803.982	616.445
419.584	22.355	803.503	616.244
420.599	22.229	803.182	615.504
421.613	160.584	1368.627	1792.217
422.628	139.547	1451.025	1792.320
