DTS Sentinel unit serial number:	SN413079Multiplexer serial number:	ORYXHardware model number:	OX4-SRSoftware version number:	ORYX F/W v4.00 Oryx Data Collector v3.7.2.0data status	okinstallation	princeton_trtdifferential loss correction	single-endedforward channel	channel 3reverse channel	N/Adate	2019/09/12time	18:57:04forward acquisition time	15.00reverse acquisition time	0.00gamma	496.2192k internal	0.2318k external	0.2318temperature offset calibration	1.0106default loss term (dB/km)	0.3790temperature slope calibration	1.0000multiplexer offset coefficient	1.0000multiplexer slope coefficient	1.0000fibre end	0.00T internal ref (°C)	32.81T ext. ref 1 (°C)	3.01T ext. ref 2 (°C)	27.37length (m)	temperature (°C)	Stokes	anti-Stokes-747.200	-200.000	0.339	0.001
-746.185	52.936	-0.085	-0.083
-745.171	66.603	0.547	0.563
-744.156	-19.935	-0.527	0.329
-743.142	98.446	0.483	0.563
-742.127	112.970	-0.179	-0.219
-741.112	-57.843	0.272	-0.120
-740.098	-200.000	0.133	0.697
-739.083	-200.000	-0.166	0.876
-738.069	75.459	0.259	-0.276
-737.054	-200.000	-0.120	0.822
-736.039	172.662	-0.225	-0.328
-735.025	800.000	0.129	0.438
-734.010	362.002	-0.250	-0.507
-732.996	-200.000	-0.164	-1.147
-731.981	234.892	-0.439	-0.732
-730.966	-146.533	-0.550	-0.048
-729.952	9.144	0.891	-0.681
-728.937	-56.040	-0.562	-0.254
-727.923	-46.247	0.188	-0.094
-726.908	-200.000	-0.012	0.059
-725.894	-28.974	0.238	-0.138
-724.879	25.244	0.204	0.171
-723.864	-151.850	-0.157	-0.012
-722.850	-67.918	-0.462	0.182
-721.835	-113.417	0.861	0.171
-720.821	-200.000	-0.009	0.226
-719.806	-200.000	-0.024	-0.232
-718.791	-64.566	-0.335	0.137
-717.777	-200.000	-0.598	-0.002
-716.762	-200.000	-0.206	1.010
-715.748	-122.718	0.713	0.117
-714.733	94.904	0.295	-0.340
-713.718	-73.869	-0.893	-0.328
-712.704	324.928	-0.108	0.208
-711.689	39.205	-0.094	0.085
-710.675	-39.879	-0.350	0.185
-709.660	260.065	0.462	0.806
-708.645	-200.000	0.212	1.132
-707.631	800.000	0.059	-0.238
-706.616	-150.928	0.425	0.032
-705.602	-200.000	-0.081	-0.712
-704.587	-200.000	0.055	0.301
-703.572	-200.000	-0.005	-0.504
-702.558	-200.000	-0.075	0.353
-701.543	-82.831	0.640	-0.209
-700.529	-88.953	-0.580	-0.174
-699.514	301.626	-0.193	-0.359
-698.499	52.831	0.168	0.162
-697.485	-30.689	0.646	0.369
-696.470	59.266	0.471	0.468
-695.456	41.905	-0.568	-0.521
-694.441	-98.139	0.782	0.203
-693.426	-79.129	0.647	0.222
-692.412	-102.133	0.532	0.129
-691.397	240.521	-0.356	0.600
-690.383	-200.000	-0.089	0.644
-689.368	357.717	0.275	-0.554
-688.354	44.679	0.505	-0.469
-687.339	149.513	0.174	0.238
-686.324	-200.000	-0.044	0.286
-685.310	-200.000	-0.091	0.533
-684.295	29.846	0.153	0.132
-683.281	-101.474	-0.518	-0.127
-682.266	119.968	-0.286	-0.358
-681.251	141.987	0.395	-0.529
-680.237	193.909	0.348	0.532
-679.222	4.694	0.163	0.120
-678.208	-78.645	-0.355	0.122
-677.193	800.000	0.105	-0.399
-676.178	-49.621	0.571	0.274
-675.164	235.921	-0.258	-0.430
-674.149	-200.000	0.121	-0.584
-673.135	-99.735	0.407	-0.103
-672.120	-64.008	0.585	0.241
-671.105	-131.049	0.444	0.060
-670.091	800.000	-0.293	-0.978
-669.076	-145.803	0.298	-0.027
-668.062	-200.000	0.076	0.511
-667.047	-151.728	-0.574	-0.043
-666.032	-76.799	-0.412	0.146
-665.018	-200.000	0.089	-0.485
-664.003	55.387	-0.466	-0.455
-662.989	98.910	-0.115	-0.134
-661.974	253.697	-0.196	-0.337
-660.959	-200.000	0.005	-0.316
-659.945	108.702	-0.340	-0.409
-658.930	-200.000	0.088	0.854
-657.916	-34.188	-0.061	0.034
-656.901	-200.000	0.119	0.670
-655.886	800.000	0.014	-0.054
-654.872	800.000	-0.173	0.627
-653.857	-165.413	0.647	-0.029
-652.843	-200.000	0.143	-0.636
-651.828	-47.300	-1.183	0.581
-650.814	77.208	-0.118	0.127
-649.799	83.700	-1.058	-1.164
-648.784	800.000	0.124	-0.540
-647.770	-40.476	-0.154	-0.081
-646.755	486.033	0.206	0.472
-645.741	289.112	-0.167	0.305
-644.726	-116.304	0.981	-0.183
-643.711	-181.001	-0.487	0.010
-642.697	-200.000	0.060	-0.546
-641.682	105.998	0.118	0.141
-640.668	-200.000	0.075	-0.488
-639.653	-58.066	-0.528	-0.232
-638.638	-200.000	-0.097	-0.713
-637.624	-43.091	-0.558	-0.285
-636.609	-60.466	-0.280	-0.120
-635.595	544.334	0.219	-0.526
-634.580	48.090	0.295	0.278
-633.565	-35.211	-1.155	0.634
-632.551	-9.877	0.372	0.249
-631.536	68.584	-0.252	0.261
-630.522	136.297	-0.215	0.282
-629.507	-200.000	-0.003	-0.143
-628.492	-34.261	0.378	-0.209
-627.478	-200.000	-0.009	-0.295
-626.463	352.769	-0.331	-0.662
-625.449	82.647	0.255	-0.279
-624.434	-200.000	0.006	0.209
-623.419	7.621	0.293	0.221
-622.405	-200.000	0.021	0.384
-621.390	742.788	-0.262	-0.709
-620.376	800.000	-0.180	-0.519
-619.361	-41.969	0.303	0.156
-618.346	230.847	0.183	0.302
-617.332	-200.000	0.006	-0.186
-616.317	-58.582	0.219	-0.096
-615.303	139.098	0.762	1.009
-614.288	-49.756	-0.615	0.294
-613.273	735.154	-0.284	0.765
-612.259	-200.000	-0.097	0.503
-611.244	-4.374	-0.327	0.227
-610.230	430.320	0.159	-0.347
-609.215	-13.699	0.798	-0.520
-608.201	-36.057	0.428	0.233
-607.186	-67.590	-0.481	0.190
-606.171	3.387	0.930	0.682
-605.157	265.753	-0.208	-0.365
-604.142	86.187	0.283	-0.314
-603.128	37.785	0.397	-0.355
-602.113	194.536	0.369	0.563
-601.098	-200.000	-0.028	0.382
-600.084	662.965	-0.324	0.842
-599.069	7.194	-0.368	-0.277
-598.055	-9.927	-0.169	-0.113
-597.040	676.804	-0.124	-0.324
-596.025	-43.409	0.326	-0.166
-595.011	-108.927	-1.006	-0.216
-593.996	-81.696	-0.923	-0.305
-592.982	206.732	0.378	0.592
-591.967	341.090	-0.183	0.360
-590.952	179.493	0.475	-0.700
-589.938	402.157	-0.236	-0.500
-588.923	800.000	-0.065	0.183
-587.909	-22.293	-0.893	0.545
-586.894	800.000	-0.207	0.615
-585.879	-200.000	-0.033	0.396
-584.865	74.372	0.717	-0.758
-583.850	-200.000	0.109	-0.785
-582.836	-36.987	-0.550	0.296
-581.821	-164.299	-0.144	-0.007
-580.806	-78.043	-0.583	0.202
-579.792	-49.182	-0.781	0.375
-578.777	-56.402	-1.145	0.511
-577.763	800.000	-0.152	0.446
-576.748	69.424	0.468	-0.484
-575.733	-65.118	0.143	-0.058
-574.719	-168.559	0.304	0.012
-573.704	800.000	0.269	-0.961
-572.690	-80.867	1.171	-0.391
-571.675	420.677	0.134	-0.288
-570.661	160.578	-0.175	-0.245
-569.646	-200.000	-0.068	-0.333
-568.631	-2.776	0.876	0.615
-567.617	-6.386	-0.305	0.209
-566.602	30.968	-0.486	0.418
-565.588	-135.710	0.320	-0.038
-564.573	87.647	0.371	0.413
-563.558	678.023	-0.102	0.267
-562.544	318.565	0.034	0.065
-561.529	-200.000	-0.112	-1.108
-560.515	-59.430	0.621	-0.268
-559.500	-200.000	0.056	0.286
-558.485	584.351	-0.196	0.484
-557.471	287.195	-0.275	-0.499
-556.456	117.829	0.348	-0.431
-555.442	-135.120	0.292	0.035
-554.427	207.255	0.467	0.731
-553.412	-34.621	0.419	-0.230
-552.398	-104.407	0.235	0.055
-551.383	-87.986	-0.518	0.156
-550.369	-46.899	0.434	0.213
-549.354	-38.727	0.621	-0.329
-548.339	-136.291	-0.359	-0.042
-547.325	-46.029	-0.562	-0.278
-546.310	-13.978	0.632	0.410
-545.296	524.502	0.395	-0.934
-544.281	-111.415	-0.447	-0.091
-543.266	-24.770	0.297	-0.177
-542.252	-106.959	-0.050	-0.011
-541.237	-92.798	-0.866	-0.243
-540.223	-163.967	-0.309	0.014
-539.208	-200.000	0.060	0.503
-538.193	43.847	0.399	-0.367
-537.179	-62.939	-0.721	0.299
-536.164	579.900	-0.076	0.188
-535.150	-200.000	-0.026	0.194
-534.135	-30.388	-0.758	-0.432
-533.121	-200.000	0.117	0.703
-532.106	-62.505	0.987	0.411
-531.091	-48.520	0.619	0.299
-530.077	-89.257	0.927	0.274
-529.062	800.000	0.015	-0.042
-528.048	177.258	-0.479	-0.699
-527.033	-51.316	-0.189	-0.089
-526.018	201.259	0.194	-0.300
-525.004	-200.000	0.032	0.416
-523.989	-47.469	-0.487	0.237
-522.975	484.263	0.243	-0.554
-521.960	-107.255	-0.594	-0.131
-520.945	86.294	0.346	0.383
-519.931	370.696	-0.221	0.450
-518.916	141.711	0.583	-0.775
-517.902	-25.259	-0.256	-0.152
-516.887	-59.719	0.366	0.157
-515.872	-48.833	0.717	0.345
-514.858	-91.518	-0.808	0.231
-513.843	-152.567	-0.274	0.020
-512.829	464.427	0.070	-0.157
-511.814	-200.000	0.174	-1.092
-510.799	800.000	0.095	-0.372
-509.785	-88.151	0.676	0.203
-508.770	-10.928	-0.721	-0.477
-507.756	-77.513	-0.768	0.267
-506.741	209.611	0.465	0.732
-505.726	0.160	0.377	0.270
-504.712	-102.483	-0.568	-0.136
-503.697	-35.081	-0.249	-0.136
-502.683	244.071	0.366	0.615
-501.668	-132.529	-0.177	-0.023
-500.653	419.416	0.112	0.241
-499.639	32.597	-0.250	0.216
-498.624	-200.000	-0.006	-0.375
-497.610	189.593	0.320	0.481
-496.595	-200.000	0.068	-0.466
-495.581	-200.000	0.031	-0.354
-494.566	92.519	-0.311	-0.351
-493.551	-200.000	0.012	0.648
-492.537	-170.526	0.327	0.011
-491.522	-36.324	0.288	0.156
-490.508	531.112	0.050	-0.118
-489.493	-3.428	0.507	0.353
-488.478	800.000	0.237	0.777
-487.464	396.537	-0.149	0.312
-486.449	59.339	0.267	0.263
-485.435	111.982	0.643	-0.778
-484.420	-143.419	-0.861	-0.082
-483.405	387.421	-0.185	-0.384
-482.391	-67.811	-0.168	0.066
-481.376	-200.000	0.061	0.459
-480.362	-3.901	-0.384	0.267
-479.347	565.728	0.137	0.333
-478.332	-79.071	-0.596	-0.203
-477.318	-20.930	-0.838	0.514
-476.303	-200.000	0.068	0.359
-475.289	800.000	-0.066	-0.197
-474.274	752.003	-0.362	-0.978
-473.259	10.424	0.542	0.413
-472.245	8.871	-0.529	0.399
-471.230	758.531	-0.097	0.264
-470.216	601.691	-0.203	-0.506
-469.201	-154.544	0.445	-0.030
-468.186	157.839	-0.887	-1.231
-467.172	217.610	0.623	-0.994
-466.157	-68.881	0.317	-0.123
-465.143	-107.726	-0.837	0.183
-464.128	-133.887	0.719	0.089
-463.113	-200.000	-0.120	0.580
-462.099	-95.063	-0.362	-0.098
-461.084	-174.277	-1.530	0.044
-460.070	-200.000	-0.043	0.332
-459.055	106.229	-0.461	0.546
-458.040	173.503	0.393	0.568
-457.026	-43.844	-0.342	0.172
-456.011	0.310	0.362	0.258
-454.997	-113.034	-0.089	0.018
-453.982	434.768	0.638	1.387
-452.968	398.833	-0.145	0.304
-451.953	72.728	0.580	-0.605
-450.938	410.992	-0.299	0.635
-449.924	296.222	0.372	-0.682
-448.909	-147.328	0.492	0.042
-447.895	-200.000	-0.080	-0.654
-446.880	-76.498	-0.397	0.139
-445.865	-82.258	-0.335	-0.109
-444.851	680.382	0.109	-0.284
-443.836	118.162	-0.081	-0.100
-442.822	-200.000	-0.016	0.607
-441.807	102.307	-0.623	0.728
-440.792	432.146	-0.244	-0.528
-439.778	800.000	0.073	-0.310
-438.763	-200.000	-0.085	0.656
-437.749	-103.477	1.131	-0.266
-436.734	-52.388	-0.625	-0.289
-435.719	403.604	0.233	0.491
-434.705	152.347	0.325	0.444
-433.690	-200.000	0.021	-0.413
-432.676	-200.000	-0.045	0.388
-431.661	-200.000	0.041	0.916
-430.646	-86.324	-0.831	0.256
-429.632	60.743	0.052	-0.052
-428.617	181.958	0.209	-0.308
-427.603	429.572	0.423	0.915
-426.588	7.043	-0.263	0.196
-425.573	60.252	0.546	-0.539
-424.559	-28.267	-0.715	0.413
-423.544	800.000	0.073	0.209
-422.530	-17.739	-0.221	-0.139
-421.515	88.687	0.306	0.340
-420.500	-200.000	-0.010	-0.426
-419.486	-57.264	-0.580	-0.255
-418.471	-200.000	0.060	0.273
-417.457	-44.797	0.137	0.068
-416.442	44.458	-0.824	-0.756
-415.428	545.801	0.392	0.937
-414.413	-68.447	0.341	-0.132
-413.398	-200.000	-0.372	0.002
-412.384	141.961	0.378	0.501
-411.369	281.630	-0.159	-0.284
-410.355	-200.000	0.025	-0.252
-409.340	-200.000	-0.112	0.542
-408.325	800.000	0.196	0.583
-407.311	62.455	-0.569	0.567
-406.296	116.471	-0.543	0.665
-405.282	-19.292	0.230	-0.143
-404.267	88.968	-0.490	-0.545
-403.252	-38.547	0.451	-0.238
-402.238	37.442	0.148	0.131
-401.223	-52.349	0.399	0.184
-400.209	-76.011	0.540	-0.191
-399.194	-139.509	0.095	0.010
-398.179	800.000	-0.163	-0.548
-397.165	800.000	-0.334	-0.969
-396.150	-125.825	0.661	0.100
-395.136	-200.000	0.049	-0.309
-394.121	-200.000	0.023	0.183
-393.106	800.000	0.152	-0.577
-392.092	800.000	-0.232	0.830
-391.077	71.882	0.433	-0.449
-390.063	-200.000	-0.017	-0.314
-389.048	-200.000	-0.008	-0.237
-388.033	-200.000	0.021	-0.389
-387.019	-147.967	-0.253	-0.021
-386.004	-16.726	-0.336	-0.212
-384.990	800.000	-0.189	-0.575
-383.975	-48.075	0.181	0.087
-382.960	287.343	0.382	0.690
-381.946	-148.241	0.816	-0.067
-380.931	16.113	0.519	-0.408
-379.917	318.531	0.314	0.594
-378.902	77.053	0.118	0.125
-377.888	466.552	-0.247	0.552
-376.873	-200.000	-0.012	-0.300
-375.858	-162.211	0.289	0.014
-374.844	206.878	0.295	0.458
-373.829	-200.000	-0.011	-0.325
-372.815	237.801	-0.205	-0.339
-371.800	230.781	0.332	-0.541
-370.785	-159.235	0.426	-0.024
-369.771	-154.225	-0.202	-0.014
-368.756	479.581	-0.259	0.585
-367.742	-166.089	0.269	0.011
-366.727	-200.000	0.155	0.977
-365.712	-71.039	-0.143	0.054
-364.698	-200.000	-0.119	0.659
-363.683	192.983	-0.494	0.745
-362.669	24.188	-0.382	0.314
-361.654	-169.126	0.491	0.018
-360.639	-200.000	0.035	-0.672
-359.625	341.668	0.402	-0.784
-358.610	-69.823	0.414	0.158
-357.596	-82.497	0.247	0.080
-356.581	2.235	-0.422	0.304
-355.566	800.000	0.064	0.223
-354.552	-200.000	0.079	0.508
-353.537	-41.307	0.856	0.440
-352.523	14.688	-0.326	0.254
-351.508	171.174	0.110	-0.158
-350.493	800.000	-0.210	-0.684
-349.479	34.048	-0.360	0.312
-348.464	325.633	0.338	0.645
-347.450	800.000	-0.192	-0.649
-346.435	-89.781	-0.502	0.146
-345.420	800.000	0.413	1.169
-344.406	-144.420	1.053	0.097
-343.391	-50.631	-0.067	-0.031
-342.377	519.814	0.090	0.210
-341.362	-60.982	0.356	-0.150
-340.348	363.514	-0.377	0.755
-339.333	147.750	0.318	-0.427
-338.318	138.363	0.296	-0.386
-337.304	-154.974	-0.463	-0.030
-336.289	-200.000	0.037	0.322
-335.275	-98.716	-0.500	-0.127
-334.260	4.103	-0.721	-0.525
-333.245	296.769	0.232	0.424
-332.231	-138.782	0.688	-0.075
-331.216	-64.364	-0.638	-0.259
-330.202	192.772	-0.489	-0.735
-329.187	-18.311	-0.481	-0.299
-328.172	-200.000	-0.086	-0.670
-327.158	536.680	-0.363	-0.857
-326.143	-107.283	1.505	-0.330
-325.129	-178.394	0.214	0.005
-324.114	157.225	0.276	0.380
-323.099	224.885	0.264	-0.425
-322.085	-17.671	-0.830	-0.519
-321.070	356.877	-0.474	-0.940
-320.056	72.262	-0.726	-0.753
-319.041	617.524	-0.183	-0.457
-318.026	4.861	0.495	-0.362
-317.012	800.000	0.282	0.827
-315.997	-76.904	0.481	-0.167
-314.983	-86.558	0.416	0.127
-313.968	-138.051	0.442	-0.049
-312.953	-200.000	-0.046	-0.849
-311.939	360.041	0.289	-0.576
-310.924	6.950	0.807	0.598
-309.910	-200.000	-0.220	0.974
-308.895	-93.231	1.117	-0.309
-307.880	-200.000	0.022	0.467
-306.866	-114.798	-0.464	-0.088
-305.851	42.297	-0.184	-0.166
-304.837	10.685	0.689	-0.523
-303.822	498.333	-0.480	-1.100
-302.807	-89.778	-0.165	0.048
-301.793	-46.580	0.206	-0.100
-300.778	39.304	-0.333	0.297
-299.764	35.993	-0.319	0.279
-298.749	-200.000	0.005	0.273
-297.735	-200.000	0.104	-0.716
-296.720	-30.861	0.431	-0.242
-295.705	-43.792	-0.426	-0.213
-294.691	-136.113	0.414	-0.048
-293.676	49.437	-0.574	-0.537
-292.662	-154.727	1.277	-0.084
-291.647	308.620	-0.171	0.318
-290.632	-80.136	-0.645	-0.215
-289.618	119.164	0.716	0.881
-288.603	-157.380	0.759	0.045
-287.589	325.314	-0.329	0.626
-286.574	116.601	0.065	-0.079
-285.559	-184.293	0.901	0.015
-284.545	161.406	0.316	0.439
-283.530	-200.000	0.003	-0.211
-282.516	800.000	-0.124	0.507
-281.501	319.285	0.185	0.349
-280.486	-54.741	-0.121	0.054
-279.472	58.414	0.374	0.364
-278.457	800.000	0.103	-0.318
-277.443	-35.091	-0.570	-0.309
-276.428	800.000	-0.057	0.241
-275.413	658.601	0.085	-0.218
-274.399	348.828	-0.449	0.880
-273.384	37.251	0.488	0.429
-272.370	-132.319	-0.152	-0.020
-271.355	222.740	-0.307	0.491
-270.340	-60.810	0.132	0.056
-269.326	-40.315	0.300	-0.155
-268.311	201.886	0.301	-0.461
-267.297	107.350	0.255	-0.302
-266.282	-4.937	-0.294	-0.201
-265.267	-102.560	-0.574	-0.136
-264.253	800.000	0.051	-0.144
-263.238	-200.000	-0.150	-1.048
-262.224	111.801	-0.541	-0.648
-261.209	-60.632	-0.645	0.272
-260.195	-127.029	0.817	-0.119
-259.180	130.573	-0.339	-0.431
-258.165	681.891	-0.252	0.651
-257.151	-13.221	-0.200	0.129
-256.136	800.000	-0.089	0.284
-255.122	-53.537	-0.609	-0.276
-254.107	84.854	-0.360	0.392
-253.092	-42.618	-0.513	0.260
-252.078	9.969	-0.652	-0.492
-251.063	800.000	-0.207	-0.653
-250.049	105.796	-0.236	0.277
-249.034	-28.935	-0.429	0.244
-248.019	800.000	0.131	-0.378
-247.005	53.372	-0.227	-0.216
-245.990	-11.882	-0.563	0.366
-244.976	374.108	-0.174	0.351
-243.961	-45.932	1.011	-0.495
-242.946	-17.547	-0.123	0.077
-241.932	-57.204	-0.431	0.188
-240.917	-118.524	0.627	-0.110
-239.903	-174.972	-0.500	0.014
-238.888	-200.000	0.061	0.500
-237.873	791.075	0.280	-0.765
-236.859	181.041	-0.367	-0.535
-235.844	-200.000	-0.113	-0.621
-234.830	-99.962	-0.393	0.097
-233.815	37.811	-0.078	0.069
-232.800	-110.978	-0.123	-0.025
-231.786	-5.206	0.148	-0.101
-230.771	800.000	0.290	0.797
-229.757	180.441	0.071	0.104
-228.742	-77.394	0.481	0.166
-227.727	-51.191	0.866	0.403
-226.713	431.578	0.161	-0.345
-225.698	208.484	-0.233	0.362
-224.684	50.030	0.585	-0.548
-223.669	-110.646	-0.771	-0.158
-222.655	-61.707	0.402	-0.167
-221.640	800.000	0.283	-0.787
-220.625	-92.036	1.224	0.343
-219.611	118.844	0.264	-0.324
-218.596	426.643	-0.269	-0.576
-217.582	-200.000	-0.072	-0.321
-216.567	-102.610	0.600	0.142
-215.552	352.135	0.305	-0.600
-214.538	47.707	0.128	-0.118
-213.523	94.618	-0.290	-0.326
-212.509	-71.497	0.058	-0.021
-211.494	452.179	-0.424	-0.930
-210.479	523.840	-0.059	-0.137
-209.465	11.969	-0.561	0.428
-208.450	4.429	-0.316	-0.230
-207.436	11.834	-0.161	0.122
-206.421	386.424	-0.349	0.714
-205.406	-72.871	0.455	0.166
-204.392	70.198	0.100	-0.102
-203.377	-164.530	-1.309	-0.059
-202.363	12.000	-0.515	-0.392
-201.348	109.871	-0.104	0.123
-200.333	399.443	-0.383	0.796
-199.319	138.389	0.539	-0.701
-198.304	-17.020	-0.146	0.092
-197.290	37.862	-0.486	0.428
-196.275	118.295	-0.233	0.285
-195.260	-25.149	0.507	-0.298
-194.246	800.000	0.256	-0.719
-193.231	254.092	0.177	-0.299
-192.217	-200.000	0.023	0.861
-191.202	-10.062	0.343	-0.225
-190.187	25.149	-0.286	0.235
-189.173	-149.830	0.425	-0.033
-188.158	-200.000	-0.033	-0.316
-187.144	-200.000	0.038	-1.345
-186.129	-18.465	-0.953	-0.589
-185.114	-88.858	0.618	0.181
-184.100	-56.061	-0.867	0.382
-183.085	-143.329	-1.011	0.096
-182.071	-55.410	0.424	0.188
-181.056	-200.000	-0.015	-0.530
-180.042	-200.000	-0.073	0.353
-179.027	101.123	-0.624	0.719
-178.012	-65.539	-0.359	0.143
-176.998	-58.004	0.359	0.155
-175.983	-70.530	-0.268	0.100
-174.969	125.337	0.373	-0.466
-173.954	-4.078	0.766	0.526
-172.939	-200.000	0.002	0.301
-171.925	45.446	-0.833	0.761
-170.910	800.000	0.092	0.391
-169.896	12.400	-0.155	0.118
-168.881	-168.396	1.071	0.041
-167.866	20.384	-0.368	0.295
-166.852	-40.105	0.545	-0.281
-165.837	-200.000	0.160	0.777
-164.823	-42.155	-0.336	0.170
-163.808	-159.398	-0.326	-0.018
-162.793	83.109	-0.314	0.338
-161.779	-200.000	0.109	-0.485
-160.764	800.000	-0.054	-0.185
-159.750	-28.081	0.414	0.237
-158.735	-200.000	-0.077	-0.000
-157.720	-141.682	-0.478	-0.047
-156.706	167.499	0.179	0.252
-155.691	-15.962	0.164	-0.103
-154.677	685.851	-0.095	0.247
-153.662	-93.182	0.372	0.102
-152.647	-114.292	0.745	0.142
-151.633	-193.946	0.437	0.004
-150.618	15.150	-0.435	0.337
-149.604	800.000	0.051	-0.171
-148.589	800.000	0.087	-0.249
-147.574	-101.182	0.834	0.202
-146.560	504.466	0.088	-0.202
-145.545	223.329	0.353	-0.563
-144.531	-60.306	-0.527	-0.222
-143.516	-200.000	0.057	-0.499
-142.502	-200.000	0.003	0.402
-141.487	782.404	-0.310	0.840
-140.472	166.736	-0.364	0.510
-139.458	-162.642	0.694	-0.034
-138.443	2.981	0.178	0.128
-137.429	-155.398	0.225	-0.014
-136.414	5.503	-0.525	0.383
-135.399	-200.000	0.040	0.500
-134.385	-128.033	-0.197	0.028
-133.370	48.831	0.185	-0.171
-132.356	-97.437	0.401	-0.103
-131.341	-23.182	-0.442	-0.263
-130.326	-150.797	0.592	0.044
-129.312	-200.000	-0.078	0.651
-128.297	104.966	0.416	-0.485
-127.283	141.665	0.582	0.762
-126.268	-200.000	-0.016	-0.407
-125.253	348.494	0.272	-0.531
-124.239	-200.000	-0.044	-0.437
-123.224	-200.000	-0.014	0.289
-122.210	800.000	-0.082	0.256
-121.195	58.748	0.769	0.746
-120.180	278.281	-0.076	0.135
-119.166	-14.068	-0.759	0.483
-118.151	-137.840	0.816	-0.090
-117.137	-116.608	-0.426	0.077
-116.122	53.117	0.464	0.438
-115.107	-55.839	0.367	0.162
-114.093	-200.000	-0.030	0.691
-113.078	-42.113	-0.605	-0.305
-112.064	-200.000	0.075	-0.928
-111.049	-58.739	0.471	-0.201
-110.034	90.663	-0.183	-0.202
-109.020	-117.173	0.761	-0.137
-108.005	-59.649	0.471	-0.199
-106.991	155.008	-0.230	0.313
-105.976	-4.449	-0.898	-0.612
-104.962	-44.437	0.061	-0.030
-103.947	704.672	0.119	0.309
-102.932	-200.000	0.025	-0.495
-101.918	-200.000	-0.050	0.579
-100.903	385.710	-0.259	-0.527
-99.889	-125.488	0.411	-0.062
-98.874	-26.454	0.484	-0.280
-97.859	235.934	0.308	0.502
-96.845	-200.000	-0.091	0.964
-95.830	-200.000	-0.050	0.455
-94.816	348.852	0.353	0.687
-93.801	-61.867	-0.085	0.035
-92.786	713.036	0.047	0.122
-91.772	277.404	0.419	0.735
-90.757	-73.648	0.501	-0.180
-89.743	478.649	0.188	0.421
-88.728	24.740	0.416	0.340
-87.713	800.000	-0.038	0.135
-86.699	7.468	-0.532	0.392
-85.684	-61.028	0.236	-0.098
-84.670	199.466	-0.158	0.239
-83.655	-63.614	-0.435	-0.176
-82.640	115.726	0.137	0.166
-81.626	6.935	-0.865	-0.636
-80.611	-145.960	-0.463	-0.040
-79.597	800.000	-0.212	0.666
-78.582	-177.580	0.392	-0.009
-77.567	-200.000	0.151	0.671
-76.553	254.202	-0.089	-0.150
-75.538	83.608	0.555	0.597
-74.524	800.000	-0.123	-0.514
-73.509	-80.808	0.170	-0.056
-72.494	-155.660	0.164	0.010
-71.480	-13.975	-0.369	0.235
-70.465	-112.724	0.141	0.028
-69.451	29.693	0.469	0.393
-68.436	342.662	-0.178	-0.344
-67.422	318.291	0.212	-0.396
-66.407	800.000	0.047	0.174
-65.392	-200.000	0.056	-0.343
-64.378	-28.926	0.467	-0.264
-63.363	-110.765	-0.255	-0.052
-62.349	-200.000	-0.173	0.803
-61.334	80.472	-1.275	-1.353
-60.319	-39.275	0.654	0.338
-59.305	106.069	-1.061	-1.238
-58.290	316.076	0.692	1.286
-57.276	78.539	0.602	0.634
-56.261	-200.000	94.569	578.274
-55.246	662.402	1359.404	3451.990
-54.232	202.663	2523.560	3838.377
-53.217	117.535	2144.801	2599.057
-52.203	43.398	1696.704	1526.959
-51.188	35.909	1510.895	1309.010
-50.173	33.566	1484.681	1270.564
-49.159	53.634	1535.965	1451.698
-48.144	54.459	1553.170	1473.524
-47.130	35.974	1514.235	1312.134
-46.115	32.982	1497.493	1277.376
-45.100	32.729	1494.242	1272.847
-44.086	32.878	1491.956	1271.854
-43.071	32.862	1490.644	1270.573
-42.057	32.788	1488.970	1268.600
-41.042	32.635	1488.334	1266.978
-40.027	32.741	1486.694	1266.245
-39.013	32.873	1484.244	1264.998
-37.998	32.672	1483.393	1262.873
-36.984	32.897	1481.652	1262.846
-35.969	32.742	1481.585	1261.704
-34.954	32.700	1480.277	1260.258
-33.940	32.906	1477.649	1259.342
-32.925	32.624	1478.161	1257.851
-31.911	32.629	1475.822	1255.839
-30.896	32.811	1475.075	1256.370
-29.881	32.860	1473.022	1254.897
-28.867	32.751	1471.359	1252.704
-27.852	32.934	1469.434	1252.229
-26.838	32.884	1467.646	1250.325
-25.823	32.794	1466.837	1248.990
-24.809	33.007	1464.471	1248.334
-23.794	32.772	1464.669	1246.898
-22.779	33.041	1462.112	1246.449
-21.765	32.778	1461.248	1243.930
-20.750	33.100	1459.345	1244.376
-19.736	32.899	1459.003	1242.716
-18.721	32.834	1457.616	1241.054
-17.706	32.901	1456.559	1240.545
-16.692	32.595	1456.478	1238.419
-15.677	33.152	1453.915	1239.844
-14.663	32.594	1454.430	1236.570
-13.648	32.648	1454.194	1236.677
-12.633	32.438	1452.157	1233.519
-11.619	32.991	1451.006	1236.116
-10.604	32.806	1449.746	1233.781
-9.590	33.003	1448.372	1233.847
-8.575	32.903	1448.820	1233.526
-7.560	32.928	1448.029	1232.966
-6.546	32.685	1447.052	1230.503
-5.531	32.709	1447.476	1230.970
-4.517	32.612	1446.089	1229.109
-3.502	32.901	1443.889	1229.073
-2.487	32.714	1444.095	1227.982
-1.473	32.785	1441.663	1226.328
-0.458	32.495	1441.824	1224.526
0.556	33.956	1430.915	1213.665
1.571	30.737	1407.606	1173.529
2.586	27.263	1349.652	1104.065
3.600	25.411	1269.883	1028.132
4.615	23.951	1222.933	981.982
5.629	20.633	1165.742	918.481
6.644	11.633	1080.985	807.360
7.659	4.310	1040.833	742.364
8.673	3.331	1035.010	733.485
9.688	3.039	1031.417	729.490
10.702	2.750	1030.422	727.351
11.717	2.922	1028.364	726.651
12.731	5.961	1031.525	743.222
13.746	15.502	1043.763	797.486
14.761	22.869	1052.828	839.502
15.775	24.722	1053.794	849.006
16.790	24.663	1054.395	849.131
17.804	24.171	1053.958	846.370
18.819	24.487	1051.201	845.579
19.834	24.093	1051.915	844.209
20.848	24.378	1050.863	844.642
21.863	24.210	1050.301	843.319
22.877	24.262	1051.070	844.109
23.892	24.449	1049.345	843.533
24.907	24.253	1047.881	841.356
25.921	23.946	1048.002	839.929
26.936	24.174	1046.497	839.724
27.950	23.984	1046.674	838.892
28.965	24.091	1045.255	838.188
29.980	24.107	1042.820	836.236
30.994	24.051	1042.381	835.546
32.009	24.139	1040.952	834.739
33.023	24.420	1041.171	836.159
34.038	23.807	1042.264	834.084
35.053	24.507	1037.938	833.819
36.067	24.208	1038.318	832.655
37.082	24.109	1037.113	831.152
38.096	24.012	1037.539	830.969
39.111	24.161	1036.845	831.032
40.126	24.427	1035.210	830.889
41.140	24.249	1034.817	829.669
42.155	23.671	1033.796	826.091
43.169	23.567	1033.146	825.013
44.184	23.553	1031.667	823.696
45.199	23.501	1030.742	822.645
46.213	23.872	1029.215	823.071
47.228	23.911	1028.463	822.574
48.242	23.885	1029.438	823.160
49.257	24.403	1027.088	823.602
50.271	24.273	1026.406	822.381
51.286	24.496	1025.812	822.861
52.301	24.437	1025.365	822.160
53.315	24.341	1024.454	820.913
54.330	24.184	1023.766	819.565
55.344	24.196	1022.727	818.720
56.359	23.899	1022.895	817.413
57.374	24.259	1021.425	817.822
58.388	24.135	1020.617	816.531
59.403	24.189	1019.626	815.916
60.417	23.933	1019.880	814.875
61.432	23.964	1017.734	813.228
62.447	23.827	1018.305	812.987
63.461	23.978	1016.911	812.492
64.476	23.736	1016.210	810.754
65.490	23.729	1015.661	810.213
66.505	23.675	1014.532	808.993
67.520	23.674	1013.774	808.311
68.534	23.900	1013.292	808.886
69.549	23.661	1012.338	806.968
70.563	23.572	1010.585	805.092
71.578	23.387	1009.399	803.238
72.593	23.373	1009.256	802.990
73.607	22.901	1007.775	799.606
74.622	23.029	1007.394	799.809
75.636	23.274	1006.677	800.281
76.651	23.311	1005.357	799.328
77.666	23.538	1004.730	799.782
78.680	23.744	1003.448	799.615
79.695	23.447	1003.852	798.529
80.709	23.218	1002.972	796.727
81.724	23.334	1003.204	797.365
82.739	23.369	1002.074	796.555
83.753	23.544	1001.740	797.003
84.768	24.266	999.743	798.582
85.782	24.397	1000.613	799.793
86.797	24.635	999.450	799.858
87.812	24.680	998.341	799.099
88.826	24.611	997.280	797.872
89.841	24.236	998.143	796.813
90.855	24.344	996.151	795.637
91.870	24.667	995.983	796.873
92.884	24.144	995.820	794.338
93.899	24.695	993.226	794.650
94.914	24.811	992.650	794.636
95.928	24.424	992.200	792.487
96.943	24.591	991.867	792.892
97.957	24.209	990.496	790.033
98.972	24.244	988.613	788.613
99.987	24.115	989.056	788.328
101.001	24.325	988.892	789.056
102.016	24.510	987.570	788.749
103.030	24.316	987.134	787.474
104.045	24.372	985.782	786.570
105.060	24.208	985.881	785.860
106.074	24.426	984.291	785.482
107.089	24.212	983.869	784.133
108.103	24.252	981.922	782.686
109.118	24.326	980.936	782.155
110.133	24.217	979.784	780.694
111.147	23.544	980.052	777.885
112.162	23.645	978.661	777.157
113.176	23.485	977.266	775.281
114.191	23.539	977.762	775.842
115.206	24.064	976.199	776.822
116.220	23.760	975.195	774.632
117.235	23.755	974.534	774.013
118.249	23.440	973.381	771.662
119.264	23.525	971.901	770.789
120.279	23.210	972.565	769.876
121.293	23.293	970.668	768.668
122.308	23.438	970.296	768.935
123.322	23.315	969.156	767.428
124.337	23.334	967.757	766.336
125.352	23.249	966.986	765.288
126.366	23.071	965.884	763.583
127.381	22.815	965.947	762.460
128.395	23.763	965.090	765.801
129.410	23.952	964.265	765.896
130.424	23.870	964.081	765.325
131.439	24.170	962.029	764.918
132.454	23.734	961.557	762.603
133.468	23.855	961.274	762.832
134.483	24.071	960.769	763.289
135.497	24.043	959.872	762.389
136.512	24.002	959.661	761.981
137.527	24.322	957.561	761.609
138.541	23.978	958.431	760.765
139.556	24.051	957.938	760.619
140.570	23.940	956.315	758.791
141.585	24.252	955.608	759.491
142.600	24.332	955.404	759.601
143.614	24.661	953.716	759.592
144.629	24.798	953.564	759.983
145.643	24.773	953.213	759.532
146.658	24.780	952.721	759.104
147.673	24.075	951.436	755.022
148.687	24.330	950.342	755.169
149.702	24.179	949.019	753.411
150.716	24.147	947.350	751.886
151.731	24.344	946.379	751.879
152.746	24.277	945.940	751.182
153.760	24.401	946.260	751.889
154.775	24.517	945.805	751.952
155.789	24.310	943.605	749.266
156.804	24.517	943.377	749.887
157.819	24.374	943.245	749.118
158.833	24.279	942.210	747.830
159.848	24.293	941.674	747.396
160.862	24.645	940.418	747.805
161.877	24.678	939.462	747.117
162.892	24.287	939.474	745.428
163.906	24.031	937.403	742.648
164.921	24.150	936.838	742.632
165.935	24.305	936.832	743.206
166.950	24.261	935.399	741.823
167.964	24.205	935.517	741.617
168.979	24.425	932.893	740.386
169.994	24.233	931.390	738.332
171.008	23.927	930.911	736.620
172.023	24.189	930.079	736.978
173.037	24.599	929.798	738.385
174.052	24.594	928.613	737.360
175.067	24.633	927.700	736.729
176.081	24.246	927.501	734.911
177.096	23.968	926.090	732.586
178.110	24.045	924.595	731.653
179.125	24.012	923.931	730.925
180.140	23.380	924.040	728.351
181.154	23.975	922.834	729.777
182.169	23.973	922.670	729.577
183.183	24.474	922.287	731.260
184.198	24.969	920.694	731.959
185.213	24.255	921.390	729.524
186.227	24.382	919.681	728.626
187.242	24.418	919.379	728.469
188.256	24.765	918.301	728.965
189.271	24.532	918.245	727.905
190.286	24.787	917.585	728.356
191.300	24.150	917.309	725.480
192.315	23.903	915.214	722.754
193.329	23.392	914.414	719.984
194.344	23.151	914.231	718.796
195.359	23.510	913.832	719.878
196.373	23.853	914.661	721.859
197.388	24.431	913.438	723.174
198.402	24.517	913.359	723.396
199.417	24.662	912.690	723.390
200.432	24.741	912.947	723.847
201.446	24.927	912.204	723.949
202.461	24.923	910.968	722.886
203.475	24.814	910.550	722.052
204.490	24.363	909.040	718.971
205.504	24.015	907.810	716.536
206.519	24.076	907.761	716.678
207.534	24.443	907.273	717.707
208.548	24.682	906.099	717.673
209.563	24.509	906.005	716.840
210.577	24.531	905.196	716.226
211.592	24.460	904.551	715.368
212.607	24.326	905.818	715.767
213.621	24.960	905.136	717.706
214.636	24.779	903.514	715.636
215.650	24.732	902.644	714.694
216.665	24.634	902.696	714.278
217.680	24.736	902.361	714.358
218.694	24.636	900.957	712.785
219.709	24.549	901.739	712.992
220.723	24.659	899.699	711.755
221.738	24.334	899.016	709.860
222.753	24.411	898.525	709.716
223.767	24.531	897.498	709.318
224.782	24.513	896.987	708.779
225.796	24.508	897.113	708.798
226.811	24.846	896.394	709.506
227.826	24.536	895.201	707.271
228.840	24.376	893.021	704.856
229.855	24.050	893.866	704.168
230.869	24.570	892.954	705.441
231.884	24.125	891.961	702.840
232.899	24.060	891.707	702.322
233.913	24.463	890.895	703.208
234.928	24.372	889.985	702.071
235.942	24.102	889.555	700.606
236.957	23.943	888.826	699.344
237.972	23.807	888.387	698.401
238.986	24.140	886.104	697.849
240.001	24.095	886.721	698.100
241.015	23.918	886.451	697.131
242.030	24.007	885.429	696.613
243.045	24.376	885.726	698.228
244.059	23.972	885.570	696.463
245.074	24.408	884.396	697.182
246.088	24.300	883.994	696.383
247.103	24.186	882.676	694.840
248.117	24.519	883.320	696.584
249.132	25.226	882.965	698.997
250.147	25.487	882.298	699.422
251.161	25.475	882.904	699.797
252.176	25.434	881.206	698.230
253.190	25.623	880.748	698.536
254.205	25.327	881.213	697.695
255.220	25.617	879.887	697.708
256.234	25.547	879.240	696.863
257.249	25.598	877.773	695.834
258.263	25.380	877.829	694.975
259.278	25.207	877.476	693.964
260.293	25.250	876.878	693.596
261.307	25.359	876.442	693.611
262.322	25.489	876.088	693.770
263.336	25.166	875.747	692.192
264.351	25.122	875.205	691.532
265.366	25.353	872.828	690.481
266.380	24.964	872.743	688.856
267.395	25.134	872.723	689.435
268.409	25.453	872.316	690.277
269.424	25.440	872.081	689.984
270.439	25.474	870.984	689.182
271.453	25.150	870.402	687.417
272.468	25.547	868.243	687.171
273.482	25.002	869.286	685.852
274.497	25.443	867.761	686.270
275.512	25.288	867.872	685.704
276.526	25.501	866.369	685.272
277.541	25.382	866.233	684.648
278.555	25.100	866.489	683.715
279.570	25.059	866.027	683.132
280.585	25.271	866.088	683.928
281.599	25.528	864.432	683.539
282.614	25.231	863.752	681.811
283.628	24.929	863.166	680.140
284.643	25.082	862.135	679.848
285.657	25.358	861.250	680.137
286.672	25.089	861.231	679.042
287.687	24.432	862.308	677.338
288.701	25.161	860.423	678.557
289.716	25.177	859.692	677.981
290.730	25.299	858.534	677.471
291.745	25.264	858.876	677.546
292.760	25.228	858.421	676.990
293.774	25.423	857.460	676.907
294.789	25.700	857.946	678.277
295.803	25.752	857.472	678.036
296.818	25.394	857.013	676.269
297.833	25.519	855.865	675.770
298.847	25.407	854.610	674.299
299.862	25.331	853.263	672.895
300.876	25.477	852.734	672.964
301.891	25.317	853.917	673.238
302.906	25.744	852.905	673.977
303.920	25.608	852.213	672.864
304.935	25.887	851.157	673.014
305.949	25.862	851.756	673.335
306.964	25.897	850.377	672.315
307.979	25.519	849.838	670.418
308.993	25.407	849.008	669.290
310.008	25.618	848.223	669.394
311.022	25.667	848.919	670.067
312.037	25.672	847.835	669.171
313.052	25.193	847.083	666.740
314.066	25.395	845.246	665.981
315.081	25.177	845.520	665.331
316.095	25.024	844.920	664.232
317.110	25.122	844.916	664.533
318.125	24.893	844.518	663.312
319.139	25.133	843.465	663.316
320.154	24.246	842.584	659.284
321.168	24.440	842.576	659.938
322.183	24.822	841.444	660.405
323.197	24.693	841.643	660.025
324.212	24.807	840.580	659.553
325.227	24.641	840.584	658.884
326.241	25.014	839.494	659.345
327.256	25.194	838.871	659.460
328.270	25.124	838.537	658.882
329.285	24.787	837.850	657.045
330.300	24.623	837.743	656.302
331.314	24.820	836.730	656.173
332.329	24.628	836.316	655.087
333.343	24.874	835.645	655.405
334.358	25.737	835.334	658.260
335.373	25.625	834.706	657.296
336.387	25.414	833.667	655.650
337.402	25.535	834.507	656.696
338.416	25.628	833.466	656.157
339.431	25.747	833.381	656.466
340.446	26.074	832.769	657.116
341.460	26.257	832.317	657.369
342.475	26.099	832.266	656.694
343.489	26.346	831.928	657.269
344.504	26.400	829.892	655.799
345.519	26.394	829.605	655.491
346.533	26.056	829.557	654.171
347.548	26.255	828.953	654.357
348.562	26.416	828.736	654.709
349.577	26.239	827.626	653.134
350.592	25.868	827.910	651.960
351.606	25.434	826.996	649.613
352.621	25.738	826.511	650.271
353.635	25.505	825.573	648.636
354.650	25.772	824.773	648.914
355.665	25.545	824.393	647.737
356.679	25.283	824.764	647.030
357.694	25.366	823.787	646.505
358.708	25.770	823.716	647.845
359.723	25.423	823.019	645.992
360.738	25.630	821.710	645.650
361.752	25.619	822.237	645.966
362.767	25.819	820.547	645.300
363.781	25.862	820.936	645.702
364.796	26.027	821.210	646.451
365.810	26.051	820.281	645.749
366.825	26.274	820.640	646.773
367.840	26.477	820.497	647.330
368.854	26.135	820.100	645.737
369.869	25.951	818.568	643.818
370.883	25.741	817.413	642.102
371.898	25.434	818.247	641.603
372.913	25.925	817.400	642.633
373.927	26.101	816.236	642.288
374.942	25.874	815.179	640.594
375.956	25.892	814.787	640.291
376.971	25.973	814.025	639.924
377.986	26.076	814.409	640.536
379.000	26.003	814.483	640.276
380.015	26.312	813.209	640.315
381.029	26.014	812.494	638.638
382.044	26.618	811.550	639.977
383.059	26.453	810.838	638.775
384.073	26.575	810.363	638.776
385.088	26.515	810.754	638.813
386.102	25.896	810.157	636.103
387.117	25.818	809.288	635.092
388.132	25.717	808.056	633.712
389.146	25.576	807.764	632.930
390.161	25.350	807.653	631.993
391.175	25.764	807.389	633.185
392.190	26.055	807.475	634.219
393.205	26.680	804.950	634.371
394.219	25.719	805.281	631.208
395.234	25.181	804.358	628.544
396.248	25.036	803.247	627.111
397.263	25.362	803.081	628.067
398.278	25.299	803.396	628.037
399.292	25.590	802.068	627.959
400.307	25.172	801.781	626.221
401.321	25.133	800.993	625.416
402.336	25.431	800.876	626.304
403.350	25.392	801.613	626.691
404.365	25.654	801.424	627.402
405.380	26.394	801.027	629.613
406.394	26.591	800.302	629.675
407.409	26.761	800.582	630.429
408.423	26.564	800.104	629.312
409.438	27.008	799.246	630.122
410.453	26.452	799.208	628.105
411.467	26.593	799.067	628.429
412.482	26.667	797.655	627.521
413.496	26.427	797.182	626.262
414.511	27.066	796.128	627.587
415.526	26.751	795.985	626.332
416.540	26.800	795.960	626.423
417.555	26.720	795.351	625.614
418.569	26.489	794.751	624.290
419.584	26.406	795.226	624.319
420.599	26.519	794.132	623.794
421.613	159.992	1369.774	1792.113
422.628	138.671	1453.662	1792.184
