DTS Sentinel unit serial number:	SN413079Multiplexer serial number:	ORYXHardware model number:	OX4-SRSoftware version number:	ORYX F/W v4.00 Oryx Data Collector v3.7.2.0data status	okinstallation	princeton_trtdifferential loss correction	single-endedforward channel	channel 3reverse channel	N/Adate	2019/09/18time	07:40:35forward acquisition time	60.00reverse acquisition time	0.00gamma	496.2192k internal	0.2343k external	0.2343temperature offset calibration	0.9946default loss term (dB/km)	0.3790temperature slope calibration	1.0000multiplexer offset coefficient	1.0000multiplexer slope coefficient	1.0000fibre end	0.00T internal ref (°C)	23.25T ext. ref 1 (°C)	0.20T ext. ref 2 (°C)	17.94length (m)	temperature (°C)	Stokes	anti-Stokes-747.200	-131.493	0.172	0.023
-746.185	-139.167	-0.336	-0.036
-745.171	-200.000	-0.008	0.115
-744.156	-9.548	0.072	0.048
-743.142	-24.515	-0.186	0.111
-742.127	-150.897	-0.294	0.022
-741.112	214.186	0.143	0.227
-740.098	-200.000	-0.002	0.212
-739.083	69.489	0.145	0.149
-738.069	13.583	-0.320	0.249
-737.054	-75.043	0.086	-0.031
-736.039	52.849	-0.419	-0.401
-735.025	44.244	0.219	-0.201
-734.010	-87.592	0.029	0.009
-732.996	-109.162	-0.123	-0.026
-731.981	36.659	0.179	-0.158
-730.966	-92.298	-0.292	0.082
-729.952	-59.553	-0.073	-0.031
-728.937	-61.053	0.210	-0.089
-727.923	-22.223	-0.370	-0.225
-726.908	-121.236	-0.238	0.040
-725.894	-44.756	-0.323	-0.161
-724.879	-200.000	-0.257	0.000
-723.864	42.870	-0.012	-0.011
-722.850	-200.000	-0.010	-0.245
-721.835	-102.153	-0.030	0.007
-720.821	-19.209	0.254	-0.158
-719.806	378.177	-0.152	-0.312
-718.791	132.501	-0.260	-0.336
-717.777	14.461	-0.167	0.131
-716.762	500.631	0.052	-0.119
-715.748	-123.515	0.518	-0.082
-714.733	123.469	-0.039	-0.048
-713.718	-12.898	-0.040	0.026
-712.704	-200.000	-0.019	0.169
-711.689	186.206	0.107	0.158
-710.675	800.000	0.079	-0.227
-709.660	-87.996	-0.174	-0.052
-708.645	-26.523	0.197	0.115
-707.631	-44.447	0.266	-0.133
-706.616	800.000	-0.035	-0.111
-705.602	-61.881	-0.202	0.084
-704.587	-34.442	0.257	-0.141
-703.572	-134.707	-0.298	0.036
-702.558	112.701	0.031	-0.037
-701.543	-88.491	0.215	0.064
-700.529	660.046	-0.019	-0.048
-699.514	-65.402	-0.098	0.039
-698.499	-71.364	0.298	-0.111
-697.485	83.673	0.096	0.104
-696.470	-91.495	-0.094	-0.027
-695.456	-173.385	-0.180	-0.005
-694.441	255.618	0.140	-0.239
-693.426	98.092	-0.094	0.108
-692.412	56.196	-0.149	0.144
-691.397	-105.375	-0.381	-0.087
-690.383	-37.014	-0.253	-0.135
-689.368	800.000	0.156	-0.436
-688.354	-110.826	0.249	0.051
-687.339	590.421	-0.080	-0.196
-686.324	481.993	0.113	-0.257
-685.310	6.067	0.069	0.051
-684.295	-200.000	-0.014	-0.282
-683.281	505.629	-0.110	-0.255
-682.266	-200.000	0.002	-0.162
-681.251	179.714	-0.196	-0.287
-680.237	-118.798	0.386	-0.068
-679.222	-200.000	0.004	0.106
-678.208	463.719	0.167	0.374
-677.193	136.961	-0.168	-0.220
-676.178	-118.515	-0.192	0.034
-675.164	-200.000	-0.045	-0.294
-674.149	365.602	0.078	0.156
-673.135	-36.964	0.129	0.069
-672.120	-103.087	0.047	-0.011
-671.105	-200.000	-0.013	-0.110
-670.091	-120.881	-0.361	-0.061
-669.076	-6.280	0.333	-0.227
-668.062	-200.000	0.130	-0.001
-667.047	725.668	0.061	0.161
-666.032	-32.702	-0.061	-0.034
-665.018	35.245	-0.111	0.097
-664.003	56.194	-0.106	-0.102
-662.989	606.995	-0.023	-0.058
-661.974	14.855	0.120	0.094
-660.959	-43.476	-0.183	0.092
-659.945	-36.237	0.226	-0.122
-658.930	-104.812	-0.297	-0.068
-657.916	-200.000	0.001	0.168
-656.901	-200.000	-0.036	-0.340
-655.886	-119.357	0.075	-0.013
-654.872	29.236	-0.041	0.035
-653.857	185.430	-0.072	-0.107
-652.843	-200.000	0.029	-0.246
-651.828	695.375	0.211	0.553
-650.814	800.000	0.034	0.107
-649.799	-71.181	-0.351	0.131
-648.784	84.183	-0.329	-0.359
-647.770	41.751	0.170	-0.154
-646.755	-77.885	0.140	0.048
-645.741	-173.399	0.101	0.003
-644.726	-86.446	-0.117	0.036
-643.711	800.000	-0.017	0.047
-642.697	800.000	-0.027	0.097
-641.682	-146.619	0.309	0.027
-640.668	59.135	0.238	0.234
-639.653	-200.000	-0.058	-0.282
-638.638	11.235	-0.176	0.134
-637.624	-168.414	0.312	-0.012
-636.609	-200.000	-0.034	0.152
-635.595	71.187	-0.079	-0.082
-634.580	-200.000	-0.001	0.026
-633.565	-125.819	-0.093	-0.014
-632.551	-200.000	-0.028	-0.138
-631.536	23.214	-0.121	0.099
-630.522	465.542	0.030	0.067
-629.507	800.000	-0.077	-0.304
-628.492	-93.119	-0.186	-0.052
-627.478	-78.380	0.176	0.060
-626.463	-152.186	-0.229	0.017
-625.449	-200.000	0.005	-0.098
-624.434	154.036	0.128	-0.175
-623.419	-67.294	-0.109	0.043
-622.405	162.770	0.129	0.181
-621.390	491.221	-0.120	0.274
-620.376	251.211	0.150	-0.255
-619.361	-200.000	-0.013	0.232
-618.346	-124.590	0.268	-0.041
-617.332	-200.000	-0.031	0.407
-616.317	-200.000	-0.069	0.507
-615.303	-49.988	0.119	0.056
-614.288	105.331	0.210	-0.247
-613.273	365.605	-0.102	-0.205
-612.259	84.208	0.088	-0.096
-611.244	332.264	-0.236	0.454
-610.230	-59.814	-0.299	0.127
-609.215	781.710	-0.070	0.191
-608.201	218.104	-0.078	0.125
-607.186	-76.555	0.211	-0.074
-606.171	-187.273	0.447	-0.006
-605.157	56.612	-0.185	0.179
-604.142	-19.726	-0.354	-0.218
-603.128	-200.000	-0.003	-0.078
-602.113	-62.606	-0.215	-0.089
-601.098	-200.000	0.007	-0.222
-600.084	-200.000	-0.050	0.245
-599.069	-140.578	0.248	0.026
-598.055	322.803	0.187	-0.354
-597.040	32.279	0.261	0.224
-596.025	800.000	0.054	-0.192
-595.011	-66.151	-0.189	0.075
-593.996	800.000	0.042	0.132
-592.982	-107.592	-0.158	0.034
-591.967	191.881	0.021	0.032
-590.952	-24.855	-0.066	-0.039
-589.938	800.000	-0.013	0.051
-588.923	270.083	-0.097	-0.170
-587.909	-66.897	-0.198	-0.078
-586.894	287.083	0.131	0.236
-585.879	-200.000	-0.002	0.038
-584.865	-196.293	-0.139	-0.001
-583.850	-200.000	0.054	0.315
-582.836	265.281	0.142	0.247
-581.821	-91.792	0.529	-0.149
-580.806	-88.726	0.262	-0.077
-579.792	245.807	0.160	0.268
-578.777	-119.790	-0.224	0.038
-577.763	-47.563	0.135	-0.065
-576.748	-49.477	-0.200	0.095
-575.733	800.000	0.094	0.325
-574.719	-200.000	0.010	-0.283
-573.704	-127.557	-0.106	-0.015
-572.690	99.796	-0.124	0.143
-571.675	90.057	0.198	0.221
-570.661	116.544	-0.145	-0.176
-569.646	6.067	0.245	-0.180
-568.631	-51.210	0.166	0.077
-567.617	800.000	0.042	-0.120
-566.602	-200.000	-0.040	-0.468
-565.588	-64.880	-0.273	-0.110
-564.573	-200.000	0.061	-0.265
-563.558	-125.017	0.101	-0.015
-562.544	800.000	0.033	-0.102
-561.529	37.606	-0.146	-0.129
-560.515	54.879	0.074	-0.071
-559.500	-200.000	0.007	0.278
-558.485	662.092	-0.132	0.339
-557.471	-200.000	-0.029	0.214
-556.456	-111.904	0.283	-0.057
-555.442	-171.657	0.377	0.012
-554.427	-200.000	-0.434	0.002
-553.412	800.000	-0.009	-0.040
-552.398	-93.893	0.142	0.039
-551.383	-41.641	0.208	0.106
-550.369	-200.000	0.041	0.379
-549.354	-33.202	-0.116	0.064
-548.339	-24.526	-0.261	-0.154
-547.325	115.181	-0.026	-0.032
-546.310	68.719	0.195	-0.198
-545.296	511.294	-0.112	-0.259
-544.281	-124.673	-0.242	-0.037
-543.266	47.206	-0.381	0.353
-542.252	51.755	0.211	0.199
-541.237	131.626	-0.116	0.148
-540.223	31.140	0.210	-0.179
-539.208	75.850	0.283	-0.297
-538.193	45.201	-0.251	-0.230
-537.179	-200.000	0.049	-0.290
-536.164	301.138	-0.156	0.286
-535.150	-86.304	0.259	0.079
-534.135	-85.815	0.256	-0.079
-533.121	437.484	-0.159	0.343
-532.106	58.198	-0.065	0.063
-531.091	216.515	0.044	0.070
-530.077	-19.710	-0.060	-0.037
-529.062	-29.390	-0.231	-0.131
-528.048	-108.117	0.124	-0.027
-527.033	-72.956	-0.238	0.087
-526.018	-5.902	0.066	-0.045
-525.004	-125.234	-0.225	-0.034
-523.989	-200.000	-0.004	-0.085
-522.975	266.262	0.220	-0.380
-521.960	532.209	-0.064	0.151
-520.945	259.098	-0.034	-0.058
-519.931	560.505	0.107	-0.257
-518.916	410.091	0.040	0.084
-517.902	123.875	-0.084	0.105
-516.887	651.623	-0.048	0.123
-515.872	800.000	-0.067	-0.266
-514.858	-107.233	0.248	-0.054
-513.843	302.315	0.168	-0.308
-512.829	-200.000	0.019	-0.309
-511.814	-114.990	0.271	0.051
-510.799	-200.000	0.010	0.140
-509.785	-183.286	0.132	-0.002
-508.770	800.000	-0.015	0.046
-507.756	87.106	-0.050	0.055
-506.741	8.337	0.181	0.135
-505.726	236.169	0.084	-0.137
-504.712	37.810	0.244	0.215
-503.697	437.315	0.031	0.068
-502.683	-200.000	0.005	-0.083
-501.668	-200.000	-0.052	0.306
-500.653	-123.472	0.197	0.031
-499.639	47.158	-0.144	-0.133
-498.624	139.375	-0.160	0.209
-497.610	36.164	-0.130	-0.114
-496.595	76.136	0.075	0.079
-495.581	-98.164	-0.177	-0.045
-494.566	-200.000	0.063	0.284
-493.551	-129.762	-0.186	-0.025
-492.537	-80.942	-0.092	-0.030
-491.522	315.269	-0.099	0.184
-490.508	40.894	0.186	-0.167
-489.493	-104.175	-0.066	0.015
-488.478	-96.789	0.067	0.018
-487.464	198.232	-0.104	-0.157
-486.449	180.221	-0.182	0.264
-485.435	-200.000	-0.025	0.133
-484.420	-159.361	-0.202	-0.011
-483.405	-151.889	-0.091	-0.007
-482.391	-200.000	-0.075	0.339
-481.376	-200.000	-0.004	0.380
-480.362	418.240	-0.074	0.156
-479.347	-21.574	0.088	-0.053
-478.332	-200.000	0.076	0.477
-477.318	-102.706	-0.047	-0.011
-476.303	159.823	0.143	0.198
-475.289	276.495	0.083	0.147
-474.274	-200.000	0.034	-0.316
-473.259	-200.000	-0.002	0.026
-472.245	-151.606	0.271	-0.020
-471.230	-200.000	0.005	0.054
-470.216	-97.964	-0.195	-0.050
-469.201	110.997	0.121	-0.144
-468.186	69.132	0.082	0.084
-467.172	-127.032	-0.362	-0.053
-466.157	96.394	-0.312	-0.353
-465.143	-105.192	0.154	-0.035
-464.128	713.970	0.100	0.262
-463.113	7.897	0.171	-0.127
-462.099	-200.000	0.003	0.161
-461.084	-106.613	0.196	0.043
-460.070	556.397	0.057	-0.135
-459.055	135.761	-0.234	0.302
-458.040	-104.671	-0.224	0.051
-457.026	5.789	0.085	0.063
-456.011	-200.000	-0.046	0.236
-454.997	106.868	-0.133	0.156
-453.982	22.844	0.150	0.122
-452.968	-200.000	-0.014	0.324
-451.953	-47.062	0.249	-0.120
-450.938	22.117	-0.129	-0.104
-449.924	-200.000	-0.037	0.179
-448.909	72.011	0.198	0.204
-447.895	120.474	-0.210	0.258
-446.880	128.051	-0.012	0.015
-445.865	-54.437	-0.150	0.067
-444.851	-46.838	0.174	0.084
-443.836	208.785	-0.019	0.029
-442.822	800.000	0.044	-0.131
-441.807	800.000	0.062	0.208
-440.792	39.154	0.359	0.317
-439.778	20.563	0.083	0.066
-438.763	800.000	-0.079	0.262
-437.749	-174.902	0.055	0.002
-436.734	33.304	-0.333	0.286
-435.719	800.000	0.081	0.235
-434.705	-47.919	-0.133	0.064
-433.690	800.000	-0.085	0.252
-432.676	35.004	0.164	-0.142
-431.661	800.000	0.051	-0.145
-430.646	102.285	0.146	-0.169
-429.632	-200.000	0.017	-0.276
-428.617	-3.021	0.144	-0.100
-427.603	-46.540	0.317	-0.154
-426.588	-88.398	-0.098	-0.029
-425.573	-200.000	-0.318	-0.001
-424.559	301.886	0.056	0.102
-423.544	-86.246	0.263	-0.080
-422.530	20.017	-0.271	-0.216
-421.515	658.990	0.107	-0.273
-420.500	-73.346	0.214	-0.077
-419.486	-32.091	-0.087	0.048
-418.471	165.003	0.183	-0.255
-417.457	147.215	-0.116	-0.155
-416.442	-200.000	0.039	0.170
-415.428	357.093	0.021	0.041
-414.413	-26.494	0.351	0.204
-413.398	381.542	-0.051	-0.103
-412.384	-115.970	-0.247	-0.046
-411.369	-18.505	-0.017	-0.011
-410.355	220.783	-0.003	0.005
-409.340	61.129	-0.120	-0.117
-408.325	-200.000	0.076	-0.457
-407.311	-16.690	0.245	0.153
-406.296	-200.000	0.006	-0.332
-405.282	-189.399	-0.239	-0.003
-404.267	26.560	-0.163	-0.135
-403.252	546.508	-0.054	0.128
-402.238	-200.000	0.028	-0.132
-401.223	-155.255	0.229	0.015
-400.209	-55.572	0.184	0.081
-399.194	800.000	-0.095	-0.301
-398.179	-200.000	0.023	0.182
-397.165	-52.062	0.175	0.080
-396.150	132.214	-0.165	-0.209
-395.136	-12.284	-0.148	0.096
-394.121	19.347	-0.323	0.257
-393.106	-42.148	0.047	-0.024
-392.092	-115.724	0.550	0.102
-391.077	131.371	-0.301	0.383
-390.063	-200.000	-0.013	-0.233
-389.048	173.330	-0.232	-0.330
-388.033	-150.743	-0.258	0.019
-387.019	6.269	-0.108	-0.079
-386.004	0.772	0.130	-0.092
-384.990	-129.274	-0.501	0.069
-383.975	200.251	0.202	-0.307
-382.960	154.828	0.161	0.219
-381.946	-166.474	0.351	0.014
-380.931	-12.452	-0.489	0.315
-379.917	153.778	-0.140	0.189
-378.902	609.049	-0.088	-0.217
-377.888	-82.143	-0.328	-0.106
-376.873	4.998	0.339	0.246
-375.858	-200.000	-0.029	0.180
-374.844	-136.599	-0.230	0.026
-373.829	46.185	0.033	-0.030
-372.815	70.350	0.056	-0.057
-371.800	-87.690	0.281	-0.084
-370.785	225.162	0.031	0.049
-369.771	-41.444	-0.132	0.067
-368.756	-121.546	-0.075	0.012
-367.742	-124.029	-0.217	-0.034
-366.727	-91.841	0.280	-0.078
-365.712	-149.364	-0.044	-0.003
-364.698	487.597	0.044	0.100
-363.683	434.939	0.031	0.066
-362.669	118.336	-0.122	0.149
-361.654	175.002	-0.147	0.210
-360.639	68.025	0.088	-0.089
-359.625	-104.544	0.176	0.040
-358.610	-105.220	0.491	-0.111
-357.596	-200.000	0.040	-0.308
-356.581	23.193	-0.353	-0.286
-355.566	245.122	-0.261	0.433
-354.552	800.000	0.087	-0.240
-353.537	103.191	-0.083	0.096
-352.523	800.000	-0.099	-0.311
-351.508	800.000	0.088	0.368
-350.493	149.307	0.127	0.170
-349.479	387.969	-0.105	-0.214
-348.464	326.740	0.104	0.197
-347.450	-200.000	0.014	0.370
-346.435	234.081	-0.184	-0.300
-345.420	-109.962	0.370	-0.076
-344.406	-82.854	-0.164	0.052
-343.391	0.448	-0.434	0.306
-342.377	92.130	0.208	-0.231
-341.362	11.771	0.091	-0.069
-340.348	-200.000	0.006	0.367
-339.333	-200.000	-0.038	0.244
-338.318	97.673	-0.143	-0.162
-337.304	800.000	0.144	-0.394
-336.289	-10.249	0.121	-0.079
-335.275	-200.000	-0.000	-0.234
-334.260	-200.000	-0.020	-0.181
-333.245	73.002	0.246	0.254
-332.231	-155.735	0.324	-0.020
-331.216	-200.000	-0.010	0.053
-330.202	-99.592	-0.404	-0.100
-329.187	55.591	0.139	0.133
-328.172	-200.000	0.086	-0.460
-327.158	-200.000	0.000	0.109
-326.143	41.516	0.135	-0.120
-325.129	449.335	-0.179	-0.388
-324.114	-45.583	-0.080	-0.039
-323.099	-144.863	0.414	0.037
-322.085	-22.706	-0.193	0.115
-321.070	604.339	-0.037	-0.092
-320.056	-90.202	-0.216	-0.062
-319.041	-132.122	0.318	-0.041
-318.026	110.914	-0.342	-0.405
-317.012	-200.000	-0.028	-0.210
-315.997	406.849	0.094	-0.195
-314.983	-24.603	-0.092	-0.054
-313.968	191.704	-0.103	-0.152
-312.953	-104.070	0.175	-0.040
-311.939	-134.550	-0.122	-0.015
-310.924	-95.295	0.056	0.015
-309.910	-102.314	-0.386	0.091
-308.895	398.134	0.180	0.372
-307.880	235.343	0.067	0.109
-306.866	-85.003	0.154	-0.048
-305.851	-34.413	-0.235	-0.127
-304.837	800.000	0.043	0.156
-303.822	-7.419	-0.366	-0.244
-302.807	-55.999	0.274	0.120
-301.793	107.429	-0.176	-0.205
-300.778	24.485	-0.091	0.074
-299.764	-67.992	0.205	0.079
-298.749	-200.000	0.039	0.175
-297.735	-79.592	-0.068	-0.023
-296.720	74.138	-0.187	0.193
-295.705	800.000	0.014	-0.052
-294.691	64.628	-0.146	-0.145
-293.676	-96.991	-0.216	-0.056
-292.662	-200.000	0.015	0.088
-291.647	6.603	0.215	0.157
-290.632	-128.807	-0.307	0.043
-289.618	4.547	-0.214	0.154
-288.603	-102.049	0.265	0.063
-287.589	-93.671	0.201	-0.055
-286.574	165.262	-0.187	-0.260
-285.559	213.505	-0.158	-0.246
-284.545	-84.808	-0.348	0.108
-283.530	129.417	-0.140	-0.175
-282.516	-177.933	0.225	0.005
-281.501	197.237	0.021	0.032
-280.486	-62.683	0.060	0.024
-279.472	-200.000	-0.059	-0.261
-278.457	177.144	-0.137	-0.196
-277.443	108.688	0.062	0.073
-276.428	-7.430	0.319	-0.212
-275.413	800.000	0.076	0.273
-274.399	343.171	0.121	0.233
-273.384	212.157	0.085	0.131
-272.370	800.000	0.030	0.122
-271.355	-59.724	-0.263	-0.111
-270.340	17.186	-0.071	-0.056
-269.326	-13.038	0.340	0.217
-268.311	-4.124	-0.198	-0.135
-267.297	-200.000	-0.019	-0.153
-266.282	222.813	0.208	-0.330
-265.267	-61.134	0.099	0.041
-264.253	-163.639	-0.139	0.006
-263.238	-115.714	0.314	-0.058
-262.224	579.407	-0.074	-0.178
-261.209	-200.000	-0.002	-0.166
-260.195	-200.000	0.022	0.172
-259.180	202.053	-0.168	-0.254
-258.165	36.795	-0.302	-0.263
-257.151	136.371	-0.214	0.274
-256.136	-200.000	-0.008	0.154
-255.122	-82.077	-0.100	-0.032
-254.107	800.000	0.076	-0.266
-253.092	-121.866	0.147	0.024
-252.078	61.655	0.140	-0.137
-251.063	170.788	-0.167	0.235
-250.049	-68.759	0.444	-0.168
-249.034	-200.000	0.033	0.320
-248.019	36.578	-0.142	-0.123
-247.005	-25.171	-0.349	-0.203
-245.990	91.974	0.108	-0.119
-244.976	345.631	-0.189	-0.364
-243.961	-106.160	-0.202	-0.045
-242.946	4.074	-0.259	0.186
-241.932	-100.326	-0.329	0.080
-240.917	474.554	-0.085	0.188
-239.903	800.000	0.018	-0.055
-238.888	-82.544	0.255	-0.081
-237.873	-200.000	-0.037	-0.163
-236.859	800.000	-0.102	-0.338
-235.844	244.862	0.097	0.161
-234.830	-31.133	0.192	-0.106
-233.815	-200.000	0.004	-0.336
-232.800	-200.000	0.040	-0.267
-231.786	-200.000	0.008	-0.097
-230.771	-79.428	0.211	-0.070
-229.757	1.278	0.269	0.190
-228.742	343.011	-0.091	0.175
-227.727	-140.562	-0.077	0.008
-226.713	161.186	0.047	-0.064
-225.698	-99.577	-0.080	-0.020
-224.684	-200.000	0.027	0.193
-223.669	-200.000	-0.007	-0.201
-222.655	-127.718	0.148	0.021
-221.640	399.233	-0.121	-0.249
-220.625	-17.947	0.344	0.212
-219.611	162.380	-0.023	0.032
-218.596	800.000	-0.020	0.069
-217.582	233.704	0.161	0.259
-216.567	114.030	-0.083	0.100
-215.552	-64.174	-0.372	-0.149
-214.538	-60.557	-0.116	-0.048
-213.523	-98.019	0.164	-0.041
-212.509	-200.000	-0.006	-0.547
-211.494	-200.000	-0.015	0.315
-210.479	-37.193	-0.062	-0.033
-209.465	76.047	-0.124	-0.128
-208.450	800.000	0.003	0.010
-207.436	-57.258	0.273	-0.118
-206.421	48.714	0.172	-0.158
-205.406	-200.000	0.033	-0.178
-204.392	-135.857	0.075	0.009
-203.377	80.898	0.064	-0.067
-202.363	340.174	0.074	-0.142
-201.348	576.403	0.053	-0.128
-200.333	129.623	0.063	-0.079
-199.319	179.766	-0.086	0.124
-198.304	2.077	0.334	-0.236
-197.290	-200.000	0.065	-0.292
-196.275	103.841	-0.101	-0.116
-195.260	-95.585	-0.276	-0.073
-194.246	-146.278	0.293	-0.025
-193.231	-65.090	0.342	-0.135
-192.217	-153.258	0.267	0.018
-191.202	-200.000	-0.009	0.073
-190.187	-54.402	-0.331	0.147
-189.173	81.282	-0.145	-0.153
-188.158	-106.234	0.140	0.031
-187.144	-200.000	0.021	-0.148
-186.129	-148.084	-0.242	0.020
-185.114	721.308	0.171	0.447
-184.100	-46.241	0.116	0.056
-183.085	90.580	0.153	0.168
-182.071	599.448	0.084	-0.203
-181.056	101.251	-0.268	-0.305
-180.042	550.976	-0.069	0.163
-179.027	-119.985	-0.351	-0.059
-178.012	51.469	0.103	-0.096
-176.998	541.262	-0.100	-0.233
-175.983	-200.000	0.051	-0.338
-174.969	800.000	0.071	-0.253
-173.954	162.066	-0.070	0.097
-172.939	-200.000	-0.026	0.307
-171.925	-7.610	0.237	-0.157
-170.910	800.000	-0.043	0.118
-169.896	14.590	0.201	-0.153
-168.881	-124.622	-0.277	-0.042
-167.866	40.676	0.166	0.147
-166.852	-46.051	0.107	0.052
-165.837	16.701	0.056	0.044
-164.823	141.700	-0.169	0.219
-163.808	741.379	0.059	0.156
-162.793	3.338	-0.141	0.101
-161.779	438.395	-0.144	0.307
-160.764	182.555	0.047	-0.068
-159.750	511.421	0.081	-0.184
-158.735	-200.000	-0.007	0.400
-157.720	-200.000	0.011	0.318
-156.706	76.210	-0.183	0.190
-155.691	119.744	-0.018	-0.022
-154.677	800.000	0.049	-0.169
-153.662	412.139	0.125	0.260
-152.647	800.000	-0.033	0.105
-151.633	30.152	-0.192	0.161
-150.618	-200.000	0.035	0.353
-149.604	-18.255	-0.142	0.087
-148.589	-26.462	0.330	0.189
-147.574	290.728	0.199	-0.354
-146.560	800.000	0.040	0.144
-145.545	-200.000	-0.023	0.138
-144.531	-4.300	-0.238	0.161
-143.516	-200.000	-0.064	0.340
-142.502	-46.267	0.309	0.149
-141.487	-24.499	0.202	0.118
-140.472	654.788	0.085	-0.212
-139.458	-114.461	0.283	-0.053
-138.443	631.872	0.094	0.232
-137.429	30.578	0.147	0.123
-136.414	329.655	0.104	0.196
-135.399	22.060	0.215	0.171
-134.385	-200.000	-0.009	0.042
-133.370	29.734	-0.278	0.231
-132.356	-198.445	0.595	-0.003
-131.341	558.317	0.081	0.191
-130.326	800.000	-0.042	-0.170
-129.312	-162.565	-0.140	0.007
-128.297	169.055	0.165	-0.230
-127.283	-8.270	-0.242	-0.159
-126.268	35.028	-0.197	0.169
-125.253	340.602	0.154	-0.293
-124.239	-91.186	0.265	0.074
-123.224	-14.879	0.239	-0.150
-122.210	131.719	-0.300	0.378
-121.195	133.024	-0.120	0.152
-120.180	121.794	-0.086	-0.105
-119.166	-31.642	0.237	-0.130
-118.151	69.240	-0.193	0.193
-117.137	-91.881	-0.253	-0.070
-116.122	-107.275	0.060	-0.013
-115.107	394.594	0.078	0.160
-114.093	-126.431	0.225	-0.033
-113.078	800.000	-0.059	-0.235
-112.064	-143.377	0.239	0.022
-111.049	-176.542	0.143	0.004
-110.034	800.000	0.048	-0.137
-109.020	14.321	-0.116	-0.089
-108.005	-64.757	0.217	0.086
-106.991	554.427	0.086	-0.202
-105.976	-80.243	0.313	0.102
-104.962	-156.126	0.104	0.006
-103.947	800.000	0.078	0.293
-102.932	138.197	-0.030	-0.039
-101.918	-114.984	-0.228	-0.042
-100.903	55.623	-0.124	0.117
-99.889	800.000	0.036	0.100
-98.874	-35.950	0.070	0.037
-97.859	-28.732	0.151	0.085
-96.845	-99.529	-0.301	-0.074
-95.830	32.810	-0.182	-0.154
-94.816	-200.000	-0.025	-0.254
-93.801	-200.000	-0.049	-0.229
-92.786	-51.291	0.319	-0.146
-91.772	-136.605	0.163	-0.018
-90.757	184.503	0.101	0.147
-89.743	-36.110	-0.205	0.108
-88.728	101.330	-0.226	-0.257
-87.713	45.942	-0.183	-0.165
-86.699	299.025	0.063	0.112
-85.684	-124.037	-0.241	-0.037
-84.670	-200.000	-0.054	0.293
-83.655	71.377	-0.167	-0.169
-82.640	800.000	-0.093	0.275
-81.626	24.454	-0.091	-0.074
-80.611	359.492	-0.079	0.155
-79.597	-197.722	0.115	0.001
-78.582	-61.058	0.381	0.157
-77.567	-98.897	-0.116	0.029
-76.553	-83.990	-0.357	0.111
-75.538	-200.000	0.023	0.106
-74.524	-145.780	0.266	-0.023
-73.509	-125.848	-0.236	0.035
-72.494	160.334	0.122	0.166
-71.480	224.663	-0.137	-0.216
-70.465	-200.000	0.003	0.371
-69.451	701.997	0.027	0.068
-68.436	-105.557	-0.106	0.023
-67.422	-7.827	0.208	-0.137
-66.407	-24.333	-0.136	0.079
-65.392	111.438	-0.101	-0.118
-64.378	451.478	0.057	0.122
-63.363	-147.316	-0.416	-0.034
-62.349	800.000	-0.075	0.221
-61.334	171.647	-1.027	-1.438
-60.319	-24.282	0.997	0.580
-59.305	193.959	-0.702	-1.037
-58.290	234.451	0.781	1.255
-57.276	800.000	0.519	1.740
-56.261	-200.000	124.415	640.236
-55.246	400.997	1573.454	3218.322
-54.232	141.819	2735.792	3533.327
-53.217	93.894	2190.035	2419.498
-52.203	33.757	1705.990	1446.058
-51.188	26.206	1523.366	1239.613
-50.173	24.342	1499.678	1207.679
-49.159	47.665	1571.340	1428.466
-48.144	45.269	1584.150	1423.391
-47.130	26.441	1532.859	1248.759
-46.115	23.544	1516.488	1215.555
-45.100	23.342	1513.459	1211.696
-44.086	23.310	1511.927	1210.203
-43.071	23.226	1509.671	1207.780
-42.057	23.216	1507.521	1205.943
-41.042	23.222	1505.864	1204.609
-40.027	23.295	1504.538	1203.996
-39.013	23.216	1503.413	1202.512
-37.998	23.180	1502.275	1201.307
-36.984	23.161	1501.193	1200.268
-35.969	23.245	1499.506	1199.443
-34.954	23.262	1497.402	1197.824
-33.940	23.217	1496.611	1196.842
-32.925	23.221	1495.673	1196.067
-31.911	23.351	1493.529	1195.184
-30.896	23.238	1493.189	1194.099
-29.881	23.302	1491.631	1193.239
-28.867	23.332	1489.966	1192.063
-27.852	23.303	1488.899	1190.964
-26.838	23.289	1487.276	1189.528
-25.823	23.322	1485.465	1188.254
-24.809	23.263	1483.845	1186.513
-23.794	23.288	1482.704	1185.726
-22.779	23.354	1481.082	1184.820
-21.765	23.301	1480.083	1183.617
-20.750	23.314	1478.742	1182.585
-19.736	23.267	1478.301	1181.877
-18.721	23.197	1477.443	1180.677
-17.706	23.233	1476.048	1179.752
-16.692	23.285	1474.555	1178.858
-15.677	23.162	1474.585	1178.018
-14.663	23.232	1473.202	1177.333
-13.648	23.277	1472.261	1176.832
-12.633	23.241	1471.451	1175.899
-11.619	23.282	1470.398	1175.284
-10.604	23.296	1469.826	1174.869
-9.590	23.192	1469.179	1173.616
-8.575	23.240	1467.617	1172.639
-7.560	23.241	1466.940	1172.064
-6.546	23.265	1465.545	1171.056
-5.531	23.167	1465.508	1170.331
-4.517	23.237	1463.995	1169.541
-3.502	23.237	1463.105	1168.785
-2.487	23.361	1461.735	1168.459
-1.473	23.215	1461.145	1166.982
-0.458	23.283	1459.526	1166.089
0.556	21.504	1450.191	1154.976
1.571	18.546	1426.082	1116.441
2.586	15.267	1364.860	1047.953
3.600	13.951	1280.988	975.747
4.615	12.959	1238.099	937.360
5.629	11.445	1180.819	885.700
6.644	5.542	1099.179	794.502
7.659	0.846	1063.115	745.274
8.673	0.274	1058.109	738.896
9.688	0.213	1054.658	736.119
10.702	0.128	1053.417	734.773
11.717	0.175	1050.880	733.170
12.731	2.005	1052.308	743.019
13.746	8.123	1060.543	778.720
14.761	14.247	1068.196	814.316
15.775	16.547	1070.598	827.336
16.790	16.412	1069.483	825.742
17.804	15.450	1067.201	819.215
18.819	14.496	1065.873	813.469
19.834	14.170	1063.916	810.316
20.848	13.803	1063.396	808.065
21.863	13.569	1062.558	806.218
22.877	13.317	1061.875	804.402
23.892	13.219	1060.689	802.954
24.907	13.126	1059.538	801.560
25.921	13.132	1059.366	801.390
26.936	13.072	1058.681	800.507
27.950	13.126	1058.311	800.420
28.965	13.135	1057.584	799.846
29.980	13.176	1056.411	799.084
30.994	13.207	1055.455	798.441
32.009	13.270	1054.557	797.996
33.023	13.197	1054.355	797.417
34.038	13.354	1052.889	796.994
35.053	13.325	1052.066	796.161
36.067	13.276	1051.386	795.341
37.082	13.261	1050.658	794.650
38.096	13.336	1049.970	794.419
39.111	13.274	1049.537	793.721
40.126	13.267	1048.678	792.968
41.140	13.147	1047.352	791.321
42.155	13.204	1046.125	790.597
43.169	13.037	1045.919	789.571
44.184	13.149	1044.617	789.053
45.199	13.068	1043.649	787.866
46.213	13.132	1042.253	787.051
47.228	13.206	1041.310	786.619
48.242	13.348	1040.070	786.287
49.257	13.282	1039.767	785.676
50.271	13.346	1037.778	784.405
51.286	13.199	1037.611	783.516
52.301	13.094	1036.800	782.335
53.315	13.297	1035.655	782.363
54.330	13.267	1034.920	781.598
55.344	13.118	1034.060	780.176
56.359	13.127	1033.530	779.748
57.374	13.189	1032.158	778.937
58.388	13.140	1031.357	778.033
59.403	13.211	1030.243	777.457
60.417	13.255	1029.452	776.995
61.432	13.132	1029.404	776.314
62.447	13.040	1028.520	775.146
63.461	13.006	1027.541	774.183
64.476	12.942	1026.908	773.337
65.490	13.088	1025.448	772.849
66.505	13.141	1024.515	772.325
67.520	13.109	1024.002	771.722
68.534	13.006	1022.973	770.399
69.549	13.104	1022.481	770.415
70.563	13.092	1021.722	769.719
71.578	13.089	1020.808	768.951
72.593	13.149	1019.850	768.440
73.607	12.989	1019.125	767.080
74.622	13.002	1018.425	766.546
75.636	13.079	1017.286	765.978
76.651	12.986	1016.622	764.982
77.666	13.090	1015.375	764.455
78.680	12.967	1015.446	763.872
79.695	13.115	1014.783	763.991
80.709	12.966	1014.027	762.666
81.724	13.171	1012.756	762.588
82.739	13.156	1012.092	761.954
83.753	13.227	1011.661	761.888
84.768	13.138	1010.982	760.898
85.782	13.290	1009.986	760.779
86.797	13.379	1008.767	760.203
87.812	13.279	1008.301	759.328
88.826	13.235	1007.646	758.562
89.841	13.160	1006.653	757.406
90.855	13.312	1005.842	757.427
91.870	13.452	1004.671	757.118
92.884	13.368	1004.565	756.584
93.899	13.359	1003.302	755.528
94.914	13.431	1002.431	755.133
95.928	13.442	1001.791	754.632
96.943	13.427	1001.130	753.999
97.957	13.406	1000.433	753.313
98.972	13.351	999.522	752.308
99.987	13.372	999.392	752.243
101.001	13.193	998.533	750.717
102.016	13.302	997.282	750.202
103.030	13.282	996.701	749.609
104.045	13.327	995.194	748.613
105.060	13.259	994.768	747.918
106.074	13.336	993.661	747.366
107.089	13.204	992.758	746.026
108.103	13.117	992.587	745.440
109.118	13.195	991.433	744.857
110.133	13.200	990.373	744.017
111.147	13.330	989.295	743.726
112.162	13.273	988.237	742.609
113.176	13.304	987.794	742.350
114.191	13.290	986.797	741.473
115.206	13.312	985.625	740.623
116.220	13.189	985.152	739.652
117.235	13.170	984.476	738.995
118.249	13.271	983.275	738.479
119.264	13.404	982.450	738.390
120.279	13.281	981.653	737.174
121.293	13.272	981.109	736.663
122.308	13.226	980.346	735.821
123.322	13.222	979.633	735.200
124.337	13.090	978.461	733.672
125.352	13.198	977.153	733.104
126.366	13.033	976.303	731.671
127.381	13.142	974.826	730.982
128.395	13.162	973.898	730.307
129.410	13.179	973.038	729.673
130.424	13.217	972.214	729.160
131.439	13.192	971.369	728.351
132.454	13.188	970.706	727.771
133.468	13.179	969.960	727.106
134.483	13.275	969.456	727.089
135.497	13.312	968.498	726.468
136.512	13.184	968.115	725.556
137.527	13.252	966.849	724.840
138.541	13.297	965.916	724.272
139.556	13.192	965.497	723.435
140.570	13.169	965.206	723.051
141.585	13.316	963.860	722.622
142.600	13.392	963.453	722.585
143.614	13.428	962.523	721.981
144.629	13.409	961.687	721.209
145.643	13.490	961.177	721.113
146.658	13.400	960.265	719.975
147.673	13.443	959.377	719.433
148.687	13.453	958.486	718.745
149.702	13.474	957.663	718.152
150.716	13.453	956.805	717.357
151.731	13.393	955.899	716.353
152.746	13.541	955.054	716.294
153.760	13.350	954.322	714.860
154.775	13.430	953.508	714.534
155.789	13.525	953.082	714.557
156.804	13.377	952.414	713.357
157.819	13.505	951.403	713.087
158.833	13.598	950.714	712.907
159.848	13.481	950.702	712.331
160.862	13.574	949.606	711.848
161.877	13.580	948.727	711.150
162.892	13.443	948.016	709.970
163.906	13.554	946.847	709.507
164.921	13.564	946.403	709.154
165.935	13.527	945.177	708.014
166.950	13.480	944.153	706.983
167.964	13.593	943.225	706.708
168.979	13.707	942.095	706.284
169.994	13.673	941.061	705.300
171.008	13.542	940.563	704.309
172.023	13.674	939.709	704.168
173.037	13.606	938.995	703.280
174.052	13.726	937.949	702.946
175.067	13.746	937.664	702.752
176.081	13.555	936.951	701.350
177.096	13.501	936.119	700.436
178.110	13.518	935.359	699.875
179.125	13.665	934.653	699.906
180.140	13.681	933.793	699.270
181.154	13.698	933.072	698.740
182.169	13.718	932.473	698.315
183.183	13.743	931.671	697.755
184.198	13.872	931.004	697.736
185.213	13.758	930.440	696.773
186.227	13.878	929.741	696.691
187.242	13.814	929.253	695.997
188.256	13.784	928.649	695.358
189.271	13.881	927.541	694.872
190.286	13.895	926.632	694.189
191.300	13.742	926.632	693.485
192.315	13.742	925.509	692.585
193.329	13.697	924.857	691.849
194.344	13.776	924.072	691.526
195.359	13.793	923.529	691.132
196.373	13.831	922.796	690.682
197.388	13.920	922.283	690.606
198.402	13.950	922.028	690.478
199.417	13.964	921.396	690.000
200.432	14.105	920.675	689.986
201.446	14.016	920.557	689.467
202.461	13.962	920.478	689.124
203.475	14.052	919.987	689.067
204.490	14.143	918.818	688.507
205.504	14.022	918.209	687.491
206.519	14.096	916.984	686.817
207.534	14.005	916.632	686.116
208.548	14.050	915.842	685.649
209.563	14.222	915.228	685.840
210.577	14.041	914.812	684.723
211.592	14.154	913.671	684.273
212.607	14.122	913.439	683.904
213.621	14.313	912.272	683.757
214.636	14.090	912.263	682.775
215.650	14.063	911.519	682.044
216.665	14.152	911.118	682.048
217.680	14.173	910.546	681.645
218.694	14.249	909.742	681.294
219.709	14.237	909.426	680.947
220.723	14.421	908.498	680.947
221.738	14.165	908.188	679.608
222.753	14.376	907.050	679.559
223.767	14.434	905.742	678.752
224.782	14.356	905.311	678.051
225.796	14.475	904.348	677.754
226.811	14.522	903.853	677.514
227.826	14.355	903.718	676.677
228.840	14.386	902.947	676.163
229.855	14.569	902.282	676.349
230.869	14.426	901.490	675.116
231.884	14.270	901.093	674.126
232.899	14.490	900.057	674.183
233.913	14.409	899.654	673.492
234.928	14.462	898.945	673.115
235.942	14.402	898.445	672.439
236.957	14.403	897.750	671.866
237.972	14.278	897.176	670.874
238.986	14.359	896.690	670.776
240.001	14.335	895.731	669.903
241.015	14.597	894.723	670.141
242.030	14.437	894.247	669.082
243.045	14.567	893.675	669.116
244.059	14.545	892.902	668.393
245.074	14.521	892.893	668.231
246.088	14.462	892.071	667.321
247.103	14.458	891.759	667.013
248.117	14.749	890.385	667.088
249.132	14.704	890.237	666.737
250.147	14.748	889.622	666.391
251.161	14.913	888.958	666.496
252.176	14.836	888.059	665.453
253.190	14.881	887.259	664.975
254.205	14.847	886.818	664.449
255.220	14.975	886.177	664.422
256.234	14.967	885.149	663.559
257.249	14.993	884.822	663.357
258.263	15.046	884.155	663.011
259.278	14.979	883.767	662.395
260.293	14.972	883.482	662.093
261.307	14.926	882.814	661.352
262.322	15.118	881.973	661.423
263.336	15.152	881.635	661.244
264.351	15.230	880.853	660.907
265.366	15.080	880.239	659.800
266.380	15.195	879.600	659.713
267.395	15.176	879.024	659.146
268.409	15.301	877.876	658.719
269.424	15.232	877.351	657.996
270.439	15.138	876.743	657.115
271.453	15.200	875.777	656.574
272.468	15.143	875.120	655.803
273.482	15.188	874.592	655.525
274.497	15.122	874.117	654.850
275.512	15.204	873.218	654.441
276.526	15.192	872.863	654.071
277.541	15.191	872.228	653.530
278.555	15.253	871.287	653.012
279.570	15.270	870.867	652.705
280.585	15.417	870.494	652.938
281.599	15.433	869.670	652.325
282.614	15.359	869.065	651.525
283.628	15.385	868.578	651.205
284.643	15.382	867.634	650.426
285.657	15.371	867.598	650.302
286.672	15.263	867.044	649.410
287.687	15.403	866.426	649.429
288.701	15.541	865.716	649.375
289.716	15.436	864.920	648.314
290.730	15.251	864.849	647.488
291.745	15.449	864.181	647.697
292.760	15.485	863.310	647.124
293.774	15.480	862.769	646.645
294.789	15.645	862.195	646.792
295.803	15.606	861.641	646.167
296.818	15.436	861.192	645.118
297.833	15.610	860.283	645.050
298.847	15.560	859.589	644.281
299.862	15.664	858.865	644.078
300.876	15.746	858.134	643.788
301.891	15.671	857.188	642.736
302.906	15.653	857.060	642.512
303.920	15.649	856.126	641.741
304.935	15.674	855.698	641.458
305.949	15.713	855.121	641.119
306.964	15.745	854.653	640.834
307.979	15.842	853.905	640.585
308.993	15.678	853.574	639.655
310.008	15.763	852.879	639.401
311.022	15.864	852.068	639.122
312.037	15.856	851.993	638.979
313.052	15.826	851.475	638.419
314.066	15.825	850.804	637.855
315.081	15.731	849.825	636.708
316.095	15.774	849.362	636.468
317.110	15.926	848.616	636.427
318.125	15.746	848.606	635.682
319.139	15.880	847.959	635.650
320.154	15.799	847.179	634.700
321.168	15.898	846.579	634.570
322.183	15.930	846.247	634.383
323.197	15.910	845.640	633.798
324.212	15.916	844.965	633.257
325.227	15.855	844.410	632.558
326.241	15.908	844.161	632.515
327.256	15.842	843.705	631.870
328.270	16.025	842.753	631.785
329.285	15.889	842.272	630.861
330.300	16.003	841.645	630.761
331.314	16.028	840.997	630.314
332.329	15.979	840.504	629.706
333.343	16.017	839.832	629.286
334.358	16.110	839.606	629.409
335.373	16.100	838.822	628.728
336.387	16.002	838.419	628.005
337.402	16.186	837.560	627.993
338.416	16.212	837.111	627.698
339.431	16.183	836.688	627.217
340.446	16.300	836.128	627.177
341.460	16.346	835.313	626.678
342.475	16.273	834.786	625.958
343.489	16.291	834.523	625.771
344.504	16.287	833.780	625.143
345.519	16.262	833.288	624.629
346.533	16.536	832.367	624.894
347.548	16.390	832.628	624.495
348.562	16.436	831.712	623.922
349.577	16.351	831.384	623.306
350.592	16.228	830.869	622.414
351.606	16.333	829.990	622.086
352.621	16.357	829.786	621.967
353.635	16.501	829.256	622.045
354.650	16.317	828.972	621.099
355.665	16.306	828.712	620.811
356.679	16.340	828.334	620.598
357.694	16.469	827.261	620.210
358.708	16.556	826.968	620.257
359.723	16.434	826.490	619.395
360.738	16.575	825.826	619.358
361.752	16.496	825.487	618.762
362.767	16.560	825.269	618.778
363.781	16.504	824.520	617.957
364.796	16.476	824.173	617.538
365.810	16.482	824.031	617.400
366.825	16.726	823.436	617.791
367.840	16.728	822.771	617.243
368.854	16.801	822.277	617.084
369.869	16.716	822.029	616.535
370.883	16.711	821.380	615.973
371.898	16.626	821.008	615.332
372.913	16.805	820.050	615.210
373.927	16.895	819.460	615.038
374.942	16.738	819.093	614.140
375.956	16.781	818.131	613.520
376.971	16.887	817.660	613.495
377.986	16.931	817.372	613.383
379.000	16.951	816.519	612.763
380.015	16.925	816.392	612.518
381.029	17.132	815.478	612.524
382.044	16.980	814.930	611.511
383.059	17.120	814.703	611.793
384.073	16.981	814.192	610.855
385.088	17.168	813.381	610.864
386.102	16.951	813.437	610.070
387.117	17.085	812.267	609.621
388.132	17.026	812.017	609.167
389.146	16.945	811.989	608.801
390.161	16.965	811.387	608.370
391.175	16.996	811.054	608.175
392.190	17.008	810.661	607.871
393.205	17.021	810.336	607.620
394.219	16.907	809.731	606.705
395.234	17.032	809.024	606.568
396.248	16.969	809.170	606.397
397.263	16.960	808.427	605.754
398.278	16.949	807.663	605.091
399.292	17.194	807.448	605.748
400.307	17.167	806.702	605.041
401.321	17.140	806.549	604.775
402.336	16.986	806.169	603.888
403.350	17.079	805.847	603.927
404.365	17.234	804.988	603.779
405.380	17.210	804.759	603.468
406.394	17.372	803.852	603.309
407.409	17.342	803.750	603.072
408.423	17.203	803.364	602.238
409.438	17.366	802.762	602.310
410.453	17.253	802.577	601.718
411.467	17.450	801.809	601.787
412.482	17.401	801.255	601.142
413.496	17.592	801.010	601.581
414.511	17.366	800.595	600.417
415.526	17.408	800.248	600.252
416.540	17.417	800.324	600.287
417.555	17.433	799.861	599.945
418.569	17.497	799.111	599.555
419.584	17.544	798.196	598.981
420.599	17.489	798.211	598.745
421.613	113.352	1297.558	1486.350
422.628	97.646	1370.264	1486.425
