DTS Sentinel unit serial number:	SN413079Multiplexer serial number:	ORYXHardware model number:	OX4-SRSoftware version number:	ORYX F/W v4.00 Oryx Data Collector v3.7.2.0data status	okinstallation	princeton_trtdifferential loss correction	single-endedforward channel	channel 3reverse channel	N/Adate	2019/09/12time	19:39:04forward acquisition time	15.00reverse acquisition time	0.00gamma	496.2192k internal	0.2322k external	0.2322temperature offset calibration	1.0114default loss term (dB/km)	0.3790temperature slope calibration	1.0000multiplexer offset coefficient	1.0000multiplexer slope coefficient	1.0000fibre end	0.00T internal ref (°C)	32.12T ext. ref 1 (°C)	3.38T ext. ref 2 (°C)	26.74length (m)	temperature (°C)	Stokes	anti-Stokes-747.200	82.169	0.260	0.285
-746.185	32.299	0.358	0.312
-745.171	356.518	0.149	-0.300
-744.156	-117.558	-1.367	-0.249
-743.142	98.127	-0.181	0.210
-742.127	77.437	0.659	0.709
-741.112	-130.104	0.444	-0.061
-740.098	132.270	-0.210	0.273
-739.083	8.670	-0.770	0.586
-738.069	81.388	-0.185	0.202
-737.054	-200.000	-0.178	0.833
-736.039	800.000	0.107	-0.331
-735.025	-200.000	-0.076	0.493
-734.010	54.092	0.378	0.367
-732.996	81.622	0.183	0.199
-731.981	-27.974	-0.671	0.392
-730.966	25.593	-0.212	0.178
-729.952	385.761	0.433	-0.903
-728.937	-200.000	0.103	-0.661
-727.923	-51.055	-0.795	-0.377
-726.908	106.498	-0.221	-0.265
-725.894	800.000	0.115	0.329
-724.879	74.727	-0.305	-0.324
-723.864	30.064	0.284	0.244
-722.850	-45.955	-0.364	0.181
-721.835	708.896	-0.251	0.670
-720.821	132.343	0.111	0.144
-719.806	-24.527	0.437	-0.263
-718.791	-200.000	-0.034	0.556
-717.777	253.990	0.093	0.161
-716.762	115.734	0.607	0.749
-715.748	800.000	0.084	0.301
-714.733	-16.447	-0.272	0.174
-713.718	-113.261	-0.192	0.038
-712.704	-200.000	-0.021	-0.475
-711.689	-117.084	-0.664	0.122
-710.675	576.102	-0.196	0.482
-709.660	-136.335	-0.789	0.093
-708.645	163.755	0.115	0.163
-707.631	128.164	0.201	0.258
-706.616	439.302	0.163	0.359
-705.602	-102.480	-0.269	0.065
-704.587	-165.423	0.415	0.018
-703.572	-200.000	0.033	-0.155
-702.558	-145.776	0.550	-0.049
-701.543	-200.000	-0.084	-0.531
-700.529	80.780	-0.445	0.483
-699.514	36.997	-0.702	-0.626
-698.499	-200.000	0.032	-0.148
-697.485	13.354	-0.469	0.367
-696.470	97.022	-0.221	-0.256
-695.456	41.177	-0.427	0.389
-694.441	800.000	0.144	0.540
-693.426	-57.413	0.253	0.112
-692.412	800.000	-0.198	-0.661
-691.397	215.870	0.290	0.465
-690.383	70.870	0.567	0.592
-689.368	-200.000	0.044	-0.680
-688.354	17.185	0.403	0.322
-687.339	86.075	0.350	-0.389
-686.324	-200.000	0.027	-0.223
-685.310	589.340	0.178	-0.443
-684.295	47.993	0.373	0.351
-683.281	-152.020	-0.562	-0.041
-682.266	475.390	0.228	-0.519
-681.251	479.416	-0.090	-0.205
-680.237	-13.543	-0.224	0.146
-679.222	-200.000	-0.055	-0.334
-678.208	180.770	-0.249	0.369
-677.193	800.000	0.218	-0.714
-676.178	-122.483	-0.708	0.116
-675.164	-200.000	-0.049	0.578
-674.149	-72.019	0.574	0.215
-673.135	-200.000	-0.085	-0.545
-672.120	-200.000	0.021	-0.633
-671.105	420.153	0.305	-0.658
-670.091	-31.723	0.476	0.269
-669.076	-52.400	0.370	0.172
-668.062	18.036	-0.358	0.287
-667.047	-191.715	0.559	0.006
-666.032	-200.000	0.055	-0.793
-665.018	-133.747	-1.386	-0.174
-664.003	800.000	-0.120	0.474
-662.989	73.490	-0.340	-0.358
-661.974	800.000	-0.286	-0.873
-660.959	129.725	0.345	-0.444
-659.945	-48.528	0.147	0.071
-658.930	800.000	0.173	0.487
-657.916	19.613	-1.048	-0.848
-656.901	51.673	0.374	0.358
-655.886	44.329	0.806	-0.745
-654.872	46.780	-0.273	0.256
-653.857	-8.786	0.207	-0.139
-652.843	266.827	0.321	0.566
-651.828	7.440	0.156	0.118
-650.814	-9.948	-1.128	0.755
-649.799	-29.115	0.952	-0.550
-648.784	-65.726	0.591	-0.238
-647.770	-115.292	-0.390	-0.074
-646.755	-135.922	-0.986	0.117
-645.741	-200.000	0.072	0.806
-644.726	-5.144	0.153	0.106
-643.711	31.455	0.708	-0.612
-642.697	77.898	0.264	-0.283
-641.682	800.000	0.082	-0.261
-640.668	800.000	0.236	-0.972
-639.653	-200.000	0.018	-0.146
-638.638	53.708	-0.707	0.683
-637.624	695.162	-0.377	0.995
-636.609	322.971	0.377	-0.723
-635.595	-200.000	-0.468	0.002
-634.580	-60.627	-0.256	-0.109
-633.565	-200.000	0.023	0.203
-632.551	-200.000	0.005	0.448
-631.536	-50.195	-0.861	0.410
-630.522	-200.000	0.027	-0.185
-629.507	115.815	0.459	-0.565
-628.492	-115.876	0.909	-0.171
-627.478	28.510	-0.586	0.498
-626.463	20.735	-0.624	0.508
-625.449	-39.919	0.133	0.070
-624.434	235.714	0.367	-0.609
-623.419	-37.276	-0.567	0.305
-622.405	-25.229	0.379	0.225
-621.390	-200.000	0.069	0.429
-620.376	-72.607	0.977	0.362
-619.361	-20.799	-0.464	-0.286
-618.346	282.849	0.157	0.284
-617.332	-200.000	0.017	-0.354
-616.317	-102.613	0.372	0.089
-615.303	-200.000	0.119	-1.000
-614.288	-124.990	-0.490	0.076
-613.273	-118.271	0.604	0.108
-612.259	-114.028	-0.939	-0.183
-611.244	15.456	0.384	-0.303
-610.230	-35.252	-0.684	-0.374
-609.215	-200.000	-0.083	-0.395
-608.201	268.223	-0.489	0.860
-607.186	752.972	-0.270	-0.734
-606.171	-77.437	-0.349	-0.122
-605.157	-109.215	-0.318	0.068
-604.142	-18.687	0.333	-0.209
-603.128	268.263	0.221	-0.389
-602.113	-63.184	0.482	0.200
-601.098	247.973	0.352	-0.599
-600.084	-131.942	0.359	-0.047
-599.069	-46.165	0.408	0.202
-598.055	-60.320	-0.701	0.300
-597.040	11.506	0.882	0.679
-596.025	800.000	-0.191	-0.565
-595.011	-200.000	0.037	-0.248
-593.996	292.142	-0.029	-0.054
-592.982	-12.248	-0.097	0.064
-591.967	461.115	-0.506	1.133
-590.952	395.223	0.118	-0.247
-589.938	-58.348	-0.642	0.280
-588.923	-93.630	-0.076	0.021
-587.909	116.229	-0.141	-0.174
-586.894	527.307	0.146	-0.346
-585.879	624.960	-0.200	-0.506
-584.865	-50.843	-0.746	0.352
-583.850	49.069	0.563	-0.531
-582.836	-36.660	-0.491	-0.265
-581.821	800.000	-0.037	-0.131
-580.806	-200.000	0.007	-0.269
-579.792	-200.000	0.066	0.784
-578.777	139.926	0.107	0.141
-577.763	127.259	1.022	1.302
-576.748	-200.000	0.047	-0.255
-575.733	70.485	-0.197	0.204
-574.719	40.765	-0.275	0.249
-573.704	138.644	0.446	0.588
-572.690	549.096	-0.246	0.591
-571.675	496.592	0.092	0.213
-570.661	-67.273	-0.153	0.060
-569.646	56.307	0.178	0.174
-568.631	54.309	0.607	0.587
-567.617	800.000	0.062	-0.223
-566.602	18.513	-0.348	0.279
-565.588	-67.045	0.487	-0.193
-564.573	-23.381	-0.277	0.167
-563.558	-154.804	0.523	0.035
-562.544	-200.000	-0.003	0.383
-561.529	800.000	-0.027	-0.095
-560.515	-118.761	-0.101	0.018
-559.500	155.501	-0.425	-0.587
-558.485	-15.369	0.322	-0.206
-557.471	-149.032	0.855	-0.069
-556.456	-133.067	-1.104	0.140
-555.442	10.334	0.783	-0.598
-554.427	178.045	0.146	-0.214
-553.412	223.225	-0.267	0.432
-552.398	-72.946	0.729	0.269
-551.383	-7.182	-0.661	0.449
-550.369	-35.403	-0.205	-0.111
-549.354	-200.000	0.061	-1.027
-548.339	-170.479	-0.406	-0.014
-547.325	161.247	0.082	0.114
-546.310	800.000	-0.176	-0.540
-545.296	132.327	0.075	-0.097
-544.281	13.127	-0.270	0.209
-543.266	175.119	-0.181	-0.263
-542.252	-174.268	0.477	-0.014
-541.237	-76.866	-0.802	-0.281
-540.223	295.288	0.214	0.393
-539.208	160.533	0.375	-0.524
-538.193	-174.818	-0.275	0.008
-537.179	-200.000	0.048	0.380
-536.164	224.359	-0.334	-0.541
-535.150	-95.054	-0.697	-0.189
-534.135	-143.492	-0.376	-0.036
-533.121	146.005	-0.464	0.624
-532.106	164.515	-0.392	0.554
-531.091	65.240	0.365	0.369
-530.077	-200.000	0.067	-0.576
-529.062	-200.000	0.056	-0.546
-528.048	17.010	0.078	0.062
-527.033	40.869	0.753	0.680
-526.018	-34.342	-0.562	-0.309
-525.004	-98.823	0.154	0.039
-523.989	730.096	-0.230	-0.614
-522.975	-54.751	-0.346	0.157
-521.960	285.816	0.306	0.553
-520.945	800.000	0.230	0.751
-519.931	-200.000	-0.010	-0.122
-518.916	42.320	-0.305	0.278
-517.902	13.559	0.278	0.216
-516.887	-57.368	-0.232	-0.102
-515.872	800.000	0.197	-0.553
-514.858	800.000	0.048	-0.134
-513.843	-200.000	0.005	0.143
-512.829	-18.599	-0.350	-0.218
-511.814	-55.209	0.340	-0.153
-510.799	-104.737	-0.726	-0.167
-509.785	80.589	-0.297	-0.320
-508.770	-200.000	-0.011	0.059
-507.756	218.180	-0.330	-0.527
-506.741	339.642	0.290	-0.566
-505.726	800.000	-0.236	0.678
-504.712	-0.080	-0.124	0.088
-503.697	57.290	0.228	0.223
-502.683	-60.905	0.061	-0.026
-501.668	142.018	-0.390	-0.518
-500.653	-200.000	0.008	0.148
-499.639	-200.000	0.103	-0.790
-498.624	55.698	0.585	-0.568
-497.610	110.596	0.516	0.621
-496.595	800.000	-0.275	0.981
-495.581	699.419	0.128	0.337
-494.566	119.841	-0.116	-0.144
-493.551	-45.352	0.792	0.393
-492.537	-44.892	-0.450	0.224
-491.522	285.575	0.108	-0.195
-490.508	-136.587	1.062	0.123
-489.493	-200.000	-0.008	0.144
-488.478	-200.000	-0.030	-0.454
-487.464	-29.502	0.322	-0.184
-486.449	-69.510	-0.650	-0.249
-485.435	71.064	0.398	0.412
-484.420	800.000	0.322	0.993
-483.405	393.457	-0.330	0.688
-482.391	-109.785	0.654	-0.137
-481.376	-180.782	0.235	-0.005
-480.362	-94.296	-0.401	-0.110
-479.347	-46.847	0.254	0.124
-478.332	-99.301	0.621	0.157
-477.318	-78.371	-0.309	0.106
-476.303	-49.168	-0.165	0.079
-475.289	-139.084	0.637	0.069
-474.274	-200.000	0.240	1.329
-473.259	135.939	-0.291	-0.378
-472.245	87.437	-0.369	0.408
-471.230	-117.679	-0.311	0.056
-470.216	800.000	-0.092	0.351
-469.201	15.631	0.472	-0.371
-468.186	46.418	-0.394	-0.365
-467.172	-8.786	0.134	-0.090
-466.157	800.000	-0.113	0.383
-465.143	324.747	0.288	-0.549
-464.128	-200.000	0.033	-0.214
-463.113	-200.000	0.012	0.590
-462.099	-64.711	0.430	0.174
-461.084	-200.000	0.100	0.758
-460.070	800.000	0.346	1.117
-459.055	315.030	-0.182	-0.342
-458.040	17.036	-0.111	-0.088
-457.026	-162.311	-0.695	-0.035
-456.011	-110.640	0.447	-0.092
-454.997	-175.611	0.342	0.009
-453.982	191.132	0.187	-0.281
-452.968	-12.829	-0.476	-0.310
-451.953	-101.413	-0.480	0.117
-450.938	413.517	-0.290	-0.616
-449.924	800.000	-0.096	0.327
-448.909	-119.420	-1.033	0.179
-447.895	-27.308	-0.335	-0.195
-446.880	800.000	-0.204	0.653
-445.865	36.039	0.206	-0.181
-444.851	-68.514	-0.648	0.251
-443.836	-82.025	0.273	-0.089
-442.822	-145.068	0.320	0.029
-441.807	-200.000	0.169	0.989
-440.792	-65.700	-0.355	0.142
-439.778	-200.000	-0.016	-0.376
-438.763	-200.000	-0.000	0.278
-437.749	201.178	-0.101	0.156
-436.734	184.312	0.153	0.226
-435.719	800.000	-0.306	1.121
-434.705	-109.547	-0.991	-0.209
-433.690	-165.431	0.826	0.036
-432.676	-200.000	-0.043	-0.803
-431.661	-200.000	0.089	0.441
-430.646	49.689	-0.890	0.836
-429.632	30.065	-1.080	0.919
-428.617	-25.664	0.697	0.410
-427.603	800.000	-0.039	-0.131
-426.588	82.997	0.809	0.878
-425.573	71.040	0.210	-0.217
-424.559	346.140	-0.173	-0.339
-423.544	-120.731	-0.683	0.115
-422.530	34.050	0.257	0.224
-421.515	800.000	0.063	0.206
-420.500	-115.117	-0.237	-0.045
-419.486	-54.668	0.540	0.244
-418.471	533.521	-0.188	0.445
-417.457	800.000	0.283	0.930
-416.442	-138.765	-0.938	0.102
-415.428	149.338	-0.273	0.369
-414.413	-94.399	0.481	-0.131
-413.398	336.719	0.244	-0.473
-412.384	-189.621	-0.396	-0.005
-411.369	-129.466	0.739	-0.102
-410.355	-35.303	-0.610	0.331
-409.340	255.897	-0.234	0.401
-408.325	54.097	-0.303	-0.290
-407.311	-79.955	-0.649	-0.217
-406.296	-200.000	-0.006	0.186
-405.282	800.000	-0.094	0.343
-404.267	-22.924	0.615	-0.370
-403.252	-28.762	-0.300	0.172
-402.238	-200.000	-0.014	-0.453
-401.223	800.000	0.152	-0.524
-400.209	-20.669	0.432	-0.264
-399.194	85.052	0.053	-0.058
-398.179	109.189	-0.405	0.484
-397.165	422.649	0.134	-0.286
-396.150	630.913	0.092	0.231
-395.136	357.540	-0.153	0.304
-394.121	623.653	-0.204	0.512
-393.106	734.470	0.306	-0.816
-392.092	-200.000	-0.004	0.043
-391.077	218.460	-0.225	-0.357
-390.063	501.124	0.140	-0.322
-389.048	85.282	-0.414	-0.452
-388.033	14.751	0.613	0.478
-387.019	-13.684	-0.191	0.123
-386.004	-200.000	-0.275	-1.412
-384.990	117.309	-0.595	-0.729
-383.975	273.025	0.198	-0.348
-382.960	315.741	-0.234	-0.441
-381.946	783.366	0.135	-0.368
-380.931	-124.790	0.656	-0.101
-379.917	-153.768	0.688	-0.047
-378.902	23.924	-0.062	-0.051
-377.888	157.191	-0.307	-0.422
-376.873	-2.372	-0.400	-0.279
-375.858	-137.304	0.340	-0.038
-374.844	-71.943	-0.885	-0.328
-373.829	-105.417	-0.474	0.107
-372.815	142.412	0.286	-0.377
-371.800	-200.000	0.071	0.733
-370.785	8.813	0.419	0.315
-369.771	76.426	0.744	0.785
-368.756	-30.015	0.233	0.132
-367.742	-25.907	0.631	-0.370
-366.727	-64.524	-0.475	-0.192
-365.712	71.920	0.183	0.189
-364.698	-132.005	0.671	0.087
-363.683	171.110	-0.079	0.112
-362.669	160.343	-0.132	-0.184
-361.654	36.102	0.241	0.212
-360.639	359.202	-0.152	0.303
-359.625	-56.632	-0.835	0.368
-358.610	46.341	0.581	0.536
-357.596	-47.599	-0.413	0.199
-356.581	-200.000	-0.071	0.344
-355.566	-69.368	0.576	0.220
-354.552	-35.996	0.487	0.262
-353.537	-200.000	-0.062	0.720
-352.523	800.000	-0.137	-0.465
-351.508	-68.556	0.760	-0.293
-350.493	-1.444	0.360	0.253
-349.479	-175.830	0.365	-0.010
-348.464	81.753	-0.230	-0.248
-347.450	-71.785	-0.513	-0.190
-346.435	800.000	-0.100	-0.307
-345.420	236.873	0.179	0.295
-344.406	101.665	0.501	-0.581
-343.391	69.537	0.268	-0.275
-342.377	-74.259	-1.268	-0.456
-341.362	-57.878	-0.432	0.188
-340.348	-34.404	-0.470	0.256
-339.333	287.719	-0.348	0.626
-338.318	10.033	-0.349	-0.264
-337.304	65.365	0.090	0.090
-336.289	-61.539	0.797	-0.333
-335.275	800.000	-0.181	-0.559
-334.260	-112.661	-0.466	0.092
-333.245	23.076	0.262	-0.213
-332.231	-200.000	0.079	-0.377
-331.216	-100.716	-0.565	0.138
-330.202	800.000	0.069	0.247
-329.187	732.301	-0.050	-0.132
-328.172	-9.221	-0.169	-0.112
-327.158	24.265	0.506	-0.415
-326.143	91.819	-0.534	-0.597
-325.129	639.698	-0.233	-0.590
-324.114	39.878	0.403	-0.359
-323.099	-200.000	-0.045	1.064
-322.085	451.520	0.156	-0.342
-321.070	-127.898	0.887	-0.127
-320.056	-200.000	-0.080	-0.497
-319.041	733.054	-0.178	0.474
-318.026	-59.956	0.227	-0.097
-317.012	-50.808	0.170	-0.080
-315.997	99.268	0.495	0.568
-314.983	-122.230	0.394	-0.064
-313.968	29.141	-0.509	-0.429
-312.953	-51.282	-0.629	-0.292
-311.939	-66.008	-0.221	0.087
-310.924	-85.707	1.424	0.439
-309.910	152.258	0.435	0.589
-308.895	198.402	-0.337	-0.512
-307.880	-200.000	-0.084	0.789
-306.866	-70.012	0.208	0.079
-305.851	800.000	0.186	0.596
-304.837	-125.485	-0.601	0.091
-303.822	113.169	0.491	0.591
-302.807	-100.793	0.472	-0.115
-301.793	308.683	0.174	0.323
-300.778	-109.188	0.646	-0.136
-299.764	158.388	-0.417	-0.574
-298.749	-38.541	0.327	0.171
-297.735	231.150	0.047	0.077
-296.720	-103.439	0.320	-0.075
-295.705	-200.000	0.139	-0.811
-294.691	35.353	0.336	0.292
-293.676	-91.286	0.261	-0.074
-292.662	120.672	0.231	0.284
-291.647	-140.658	-0.377	-0.039
-290.632	181.453	-0.206	-0.301
-289.618	-18.387	0.721	-0.447
-288.603	-44.437	-0.624	-0.310
-287.589	23.138	0.129	0.105
-286.574	230.616	0.255	-0.414
-285.559	-72.689	-0.388	0.142
-284.545	-100.880	0.408	-0.099
-283.530	-162.155	0.596	-0.030
-282.516	-87.885	-0.715	-0.214
-281.501	-200.000	0.018	0.115
-280.486	800.000	0.122	-0.512
-279.472	234.270	-0.122	0.200
-278.457	-42.895	0.682	-0.344
-277.443	-200.000	-0.169	-0.931
-276.428	-106.730	-0.413	0.091
-275.413	217.117	-0.635	1.003
-274.399	-200.000	0.074	0.685
-273.384	-200.000	0.031	0.473
-272.370	606.714	0.089	0.219
-271.355	-200.000	-0.011	0.239
-270.340	102.545	-0.241	-0.280
-269.326	-200.000	-0.496	0.001
-268.311	-174.712	-1.513	0.043
-267.297	800.000	0.323	-0.904
-266.282	-200.000	0.051	0.244
-265.267	71.589	-0.127	-0.131
-264.253	-101.607	-0.951	0.229
-263.238	-200.000	-0.145	0.869
-262.224	-182.124	0.862	0.016
-261.209	-57.081	-0.750	-0.328
-260.195	-87.489	-0.388	-0.116
-259.180	133.456	-0.209	0.268
-258.165	689.912	0.199	-0.517
-257.151	458.850	0.350	-0.771
-256.136	-200.000	0.069	0.753
-255.122	201.233	-0.168	-0.257
-254.107	171.219	0.404	-0.574
-253.092	150.967	-0.185	0.249
-252.078	31.160	0.350	0.297
-251.063	-84.242	0.497	0.156
-250.049	800.000	0.212	0.615
-249.034	62.297	-0.104	-0.103
-248.019	-98.709	1.173	0.296
-247.005	-23.919	-0.426	0.252
-245.990	51.686	-0.279	-0.263
-244.976	-31.768	0.768	-0.427
-243.961	580.711	-0.352	-0.853
-242.946	-200.000	0.028	-0.365
-241.932	-200.000	0.055	-0.703
-240.917	-69.867	0.654	0.247
-239.903	-78.253	0.431	0.147
-238.888	304.651	-0.539	-0.991
-237.873	72.865	-0.095	0.098
-236.859	-61.914	0.631	0.261
-235.844	90.807	-0.642	-0.713
-234.830	-200.000	0.392	-0.000
-233.815	71.721	0.138	-0.142
-232.800	411.782	0.324	-0.681
-231.786	-57.639	-0.138	0.060
-230.771	-200.000	0.040	0.879
-229.757	60.170	0.487	0.477
-228.742	-20.241	0.448	-0.273
-227.727	83.730	0.274	-0.296
-226.713	-200.000	0.189	-0.838
-225.698	-200.000	0.046	-0.284
-224.684	-200.000	0.050	-0.280
-223.669	259.285	-0.299	-0.511
-222.655	-0.205	0.448	-0.315
-221.640	-200.000	-0.007	0.326
-220.625	-200.000	0.027	-0.212
-219.611	-83.724	-0.208	-0.066
-218.596	404.590	-0.338	-0.706
-217.582	-200.000	0.145	1.095
-216.567	-200.000	-0.097	1.478
-215.552	-40.599	0.194	0.100
-214.538	-73.209	-0.559	0.203
-213.523	-77.704	0.393	0.135
-212.509	145.046	0.178	0.235
-211.494	800.000	0.313	1.090
-210.479	267.393	0.244	0.422
-209.465	38.774	-0.557	0.492
-208.450	510.716	0.251	-0.577
-207.436	800.000	-0.169	-0.462
-206.421	155.289	0.190	-0.259
-205.406	93.174	0.183	-0.204
-204.392	620.547	-0.120	0.300
-203.377	63.667	0.385	0.383
-202.363	-200.000	0.049	-0.491
-201.348	239.452	0.506	0.833
-200.333	-35.639	0.379	-0.203
-199.319	-123.521	1.160	-0.182
-198.304	-200.000	-0.030	-0.270
-197.290	-200.000	0.084	-0.420
-196.275	-200.000	0.073	0.657
-195.260	116.637	0.100	-0.121
-194.246	-200.000	0.007	-1.138
-193.231	380.408	-0.343	-0.695
-192.217	-139.994	-0.521	0.054
-191.202	-98.511	0.511	-0.129
-190.187	-101.474	0.327	-0.079
-189.173	-200.000	-0.260	-1.258
-188.158	-200.000	-0.119	-0.825
-187.144	-62.356	-0.584	-0.240
-186.129	188.957	-0.169	-0.251
-185.114	-19.561	0.415	-0.254
-184.100	-200.000	0.009	0.055
-183.085	-8.134	-0.411	0.274
-182.071	651.971	0.071	-0.179
-181.056	-78.383	-0.714	-0.242
-180.042	61.588	-0.959	-0.943
-179.027	-17.765	-0.600	-0.372
-178.012	-200.000	-0.105	0.501
-176.998	-200.000	-0.138	-1.075
-175.983	226.906	0.126	-0.202
-174.969	800.000	0.100	-0.357
-173.954	-101.147	-0.640	-0.155
-172.939	181.481	-0.131	-0.191
-171.925	800.000	0.192	0.774
-170.910	-108.907	0.303	0.064
-169.896	-65.021	0.213	-0.085
-168.881	-77.892	-0.747	0.255
-167.866	-79.646	0.560	-0.187
-166.852	-191.161	-0.788	-0.008
-165.837	52.690	0.420	0.396
-164.823	800.000	-0.209	0.718
-163.808	-126.355	-0.235	-0.035
-162.793	-200.000	0.051	0.268
-161.779	-130.372	-0.821	-0.110
-160.764	107.487	0.394	0.463
-159.750	-200.000	0.045	0.644
-158.735	-135.127	0.065	0.008
-157.720	369.972	0.346	0.691
-156.706	-45.688	-0.585	0.285
-155.691	269.668	-0.361	-0.626
-154.677	-200.000	0.084	-0.540
-153.662	-200.000	0.006	-0.798
-152.647	99.230	0.361	0.412
-151.633	-104.968	-0.798	-0.181
-150.618	27.741	0.336	-0.279
-149.604	-200.000	-0.062	0.388
-148.589	21.453	-0.461	-0.370
-147.574	800.000	-0.273	-0.761
-146.560	196.305	0.173	-0.260
-145.545	-55.956	-0.616	-0.271
-144.531	572.901	0.209	-0.504
-143.516	-200.000	0.093	0.659
-142.502	184.429	-0.188	-0.275
-141.487	69.340	0.438	-0.445
-140.472	285.049	-0.254	-0.451
-139.458	185.866	0.266	-0.390
-138.443	-128.905	-0.161	-0.022
-137.429	-178.768	0.053	0.001
-136.414	800.000	-0.062	0.226
-135.399	-158.816	-0.180	0.010
-134.385	-129.756	-0.624	-0.085
-133.370	387.560	-0.033	0.068
-132.356	549.759	0.080	-0.188
-131.341	-65.740	0.313	0.124
-130.326	-200.000	-0.036	-0.291
-129.312	10.868	-0.276	0.208
-128.297	61.903	-0.387	0.380
-127.283	599.934	0.057	0.140
-126.268	57.281	-0.453	0.436
-125.253	187.079	0.093	-0.137
-124.239	-200.000	0.024	-0.151
-123.224	800.000	-0.012	0.040
-122.210	-68.703	0.679	0.259
-121.195	-200.000	-0.060	0.355
-120.180	220.284	-0.194	0.307
-119.166	-145.269	0.723	-0.064
-118.151	253.677	-0.256	-0.431
-117.137	549.059	-0.288	-0.679
-116.122	-200.000	-0.048	-0.337
-115.107	-163.489	0.828	0.039
-114.093	-94.670	0.066	-0.018
-113.078	-200.000	0.066	-0.510
-112.064	-65.542	-0.372	0.147
-111.049	9.069	-0.460	-0.342
-110.034	771.046	-0.223	0.598
-109.020	-117.704	0.618	0.110
-108.005	21.005	-0.981	0.784
-106.991	-85.464	0.367	0.113
-105.976	-37.125	0.386	0.204
-104.962	-120.380	-0.677	0.114
-103.947	-200.000	-0.093	-0.438
-102.932	269.502	0.182	0.314
-101.918	-101.449	-0.191	0.046
-100.903	-58.018	-0.619	0.266
-99.889	-152.914	0.414	0.029
-98.874	-127.290	-0.791	0.114
-97.859	-200.000	-0.031	0.407
-96.845	6.573	-0.377	-0.276
-95.830	-82.368	-0.497	-0.159
-94.816	800.000	-0.159	0.511
-93.801	-200.000	-0.045	-0.261
-92.786	671.125	-0.287	-0.733
-91.772	-51.782	-0.852	-0.391
-90.757	131.770	-0.250	-0.317
-89.743	800.000	-0.103	-0.354
-88.728	66.308	0.107	0.107
-87.713	28.488	-0.113	0.094
-86.699	53.157	0.479	-0.452
-85.684	9.451	-0.508	0.379
-84.670	-38.660	0.541	0.281
-83.655	-110.620	0.861	-0.175
-82.640	800.000	0.238	-0.695
-81.626	-80.683	-0.361	0.118
-80.611	-72.405	-0.631	-0.230
-79.597	-170.174	0.796	0.028
-78.582	-200.000	0.065	0.637
-77.567	171.610	-0.039	-0.055
-76.553	-200.000	0.045	-0.594
-75.538	-144.683	1.046	0.095
-74.524	-0.787	-0.439	0.306
-73.509	616.297	-0.375	-0.927
-72.494	29.690	-0.432	-0.362
-71.480	-200.000	-0.085	-1.053
-70.465	158.590	0.348	-0.476
-69.451	-146.003	0.159	0.014
-68.436	-42.575	0.597	0.299
-67.422	179.004	0.379	-0.545
-66.407	60.632	-0.733	-0.715
-65.392	-75.162	-0.748	0.263
-64.378	-200.000	-0.016	0.179
-63.363	256.179	0.527	-0.889
-62.349	-26.400	-0.070	0.040
-61.334	-179.210	-1.256	0.028
-60.319	-59.648	0.877	0.370
-59.305	800.000	0.499	-1.447
-58.290	-200.000	-0.128	1.165
-57.276	186.577	1.155	1.691
-56.261	-200.000	95.373	600.321
-55.246	668.006	1353.522	3442.234
-54.232	204.246	2520.017	3839.921
-53.217	119.509	2138.768	2604.046
-52.203	42.904	1690.237	1514.913
-51.188	35.321	1504.700	1297.514
-50.173	32.927	1478.465	1258.900
-49.159	53.471	1530.797	1443.334
-48.144	54.374	1547.732	1465.365
-47.130	35.502	1506.142	1299.778
-46.115	32.253	1492.753	1266.325
-45.100	32.067	1488.350	1261.289
-44.086	32.199	1487.182	1261.138
-43.071	32.082	1484.742	1258.230
-42.057	32.046	1483.281	1256.702
-41.042	32.067	1482.113	1255.806
-40.027	32.114	1479.667	1253.994
-39.013	32.048	1479.545	1253.402
-37.998	32.221	1477.419	1252.704
-36.984	31.987	1476.970	1250.714
-35.969	32.152	1474.953	1250.057
-34.954	32.087	1473.600	1248.428
-33.940	32.112	1472.580	1247.677
-32.925	32.076	1470.691	1245.791
-31.911	32.232	1468.669	1245.064
-30.896	32.136	1468.168	1243.954
-29.881	32.082	1466.531	1242.158
-28.867	32.181	1465.661	1242.026
-27.852	32.210	1464.025	1240.782
-26.838	32.379	1462.453	1240.512
-25.823	32.431	1460.220	1238.915
-24.809	32.105	1459.992	1236.523
-23.794	32.016	1457.877	1234.099
-22.779	32.093	1457.502	1234.240
-21.765	32.116	1456.248	1233.280
-20.750	32.226	1454.786	1232.715
-19.736	32.041	1454.425	1231.145
-18.721	32.106	1452.746	1230.104
-17.706	32.163	1451.496	1229.370
-16.692	32.161	1450.299	1228.295
-15.677	32.217	1449.302	1227.768
-14.663	32.199	1448.225	1226.688
-13.648	32.252	1446.996	1225.943
-12.633	32.072	1447.075	1224.789
-11.619	31.990	1445.271	1222.674
-10.604	31.911	1445.188	1222.044
-9.590	32.212	1443.666	1222.669
-8.575	32.073	1443.789	1221.817
-7.560	32.080	1442.511	1220.731
-6.546	31.935	1442.122	1219.414
-5.531	32.192	1440.042	1219.271
-4.517	31.964	1440.600	1218.218
-3.502	32.296	1437.592	1217.776
-2.487	31.914	1437.306	1215.009
-1.473	32.060	1435.321	1214.229
-0.458	32.160	1435.009	1214.563
0.556	33.231	1425.870	1201.858
1.571	30.297	1400.603	1162.117
2.586	26.813	1342.296	1092.684
3.600	24.817	1263.287	1016.946
4.615	23.483	1217.233	972.476
5.629	20.189	1159.719	909.200
6.644	11.651	1075.049	801.075
7.659	4.651	1035.048	738.073
8.673	3.572	1030.069	729.361
9.688	3.463	1026.245	726.077
10.702	3.269	1024.751	724.044
11.717	3.216	1023.223	722.650
12.731	6.299	1026.570	739.452
13.746	15.528	1038.307	791.525
14.761	23.003	1046.125	832.774
15.775	24.361	1049.317	841.650
16.790	23.925	1048.876	839.167
17.804	23.575	1047.333	836.209
18.819	23.573	1045.835	834.930
19.834	23.345	1045.860	833.800
20.848	23.399	1044.698	833.055
21.863	23.657	1043.759	833.443
22.877	23.960	1043.099	834.266
23.892	23.512	1043.226	832.189
24.907	23.398	1041.897	830.522
25.921	23.242	1041.888	829.710
26.936	23.176	1039.955	827.791
27.950	23.290	1038.227	826.875
28.965	23.084	1037.736	825.448
29.980	23.088	1036.912	824.737
30.994	23.056	1036.291	824.024
32.009	23.408	1035.627	825.062
33.023	23.266	1034.923	823.768
34.038	23.344	1033.978	823.305
35.053	23.134	1033.841	822.145
36.067	23.279	1031.642	820.998
37.082	22.868	1032.060	819.352
38.096	23.234	1030.159	819.464
39.111	23.085	1029.966	818.547
40.126	23.427	1029.480	819.670
41.140	23.455	1027.536	818.178
42.155	22.763	1026.019	813.708
43.169	22.627	1025.166	812.333
44.184	22.496	1024.106	810.820
45.199	22.607	1022.552	810.026
46.213	22.613	1022.770	810.158
47.228	22.719	1021.970	809.936
48.242	22.841	1021.215	809.825
49.257	23.348	1020.379	811.416
50.271	23.340	1019.643	810.721
51.286	23.196	1019.703	810.041
52.301	23.698	1018.157	811.032
53.315	23.327	1018.228	809.322
54.330	23.280	1017.144	808.176
55.344	23.457	1015.385	807.512
56.359	23.018	1015.825	805.789
57.374	23.116	1013.862	804.608
58.388	23.102	1012.726	803.570
59.403	22.907	1013.189	802.982
60.417	22.939	1011.894	802.030
61.432	22.818	1010.509	800.309
62.447	22.842	1010.840	800.610
63.461	22.702	1010.242	799.434
64.476	22.505	1009.746	798.075
65.490	22.779	1008.171	798.001
66.505	22.886	1007.141	797.600
67.520	22.237	1007.129	794.585
68.534	22.849	1005.839	796.260
69.549	22.659	1004.016	793.889
70.563	22.324	1003.785	792.130
71.578	22.377	1003.305	791.918
72.593	22.193	1001.455	789.560
73.607	22.007	1000.224	787.688
74.622	21.834	999.769	786.485
75.636	22.007	999.321	786.836
76.651	21.923	999.418	786.467
77.666	22.147	998.051	786.323
78.680	22.295	996.698	785.851
79.695	22.374	997.099	786.449
80.709	22.044	996.140	784.152
81.724	22.211	995.435	784.269
82.739	22.393	994.910	784.599
83.753	22.138	994.394	782.986
84.768	22.936	993.372	785.661
85.782	23.696	993.178	788.817
86.797	23.537	993.293	788.131
87.812	23.957	991.311	788.352
88.826	23.585	991.936	787.131
89.841	23.463	990.221	785.160
90.855	23.642	990.152	785.826
91.870	23.394	989.834	784.409
92.884	23.796	987.719	784.436
93.899	23.690	987.052	783.369
94.914	23.566	986.114	782.008
95.928	23.602	985.488	781.605
96.943	23.675	984.406	780.996
97.957	23.366	983.938	779.199
98.972	23.260	982.617	777.620
99.987	23.711	980.922	778.184
101.001	23.438	981.988	777.761
102.016	23.666	980.114	777.207
103.030	23.204	979.512	774.642
104.045	23.384	978.773	774.774
105.060	23.323	978.370	774.119
106.074	23.447	976.762	773.322
107.089	23.470	975.084	772.023
108.103	23.200	974.803	770.556
109.118	22.847	974.056	768.365
110.133	22.953	971.693	766.893
111.147	22.665	971.560	765.469
112.162	22.456	970.860	763.943
113.176	22.346	969.768	762.539
114.191	22.718	969.205	763.641
115.206	22.567	969.552	763.192
116.220	22.618	968.154	762.247
117.235	22.402	966.638	760.050
118.249	22.476	965.809	759.653
119.264	22.673	965.208	759.962
120.279	22.441	964.027	757.964
121.293	22.344	963.061	756.721
122.308	22.177	962.886	755.800
123.322	22.286	961.262	754.927
124.337	22.145	960.874	753.946
125.352	22.023	959.088	751.958
126.366	22.033	959.162	751.992
127.381	22.272	956.576	750.917
128.395	22.261	957.156	751.259
129.410	22.330	956.724	751.149
130.424	22.536	955.608	751.086
131.439	22.581	954.360	750.231
132.454	22.771	953.191	750.053
133.468	22.995	953.106	750.871
134.483	22.609	952.314	748.543
135.497	22.703	952.473	748.998
136.512	23.008	950.387	748.585
137.527	22.615	950.668	747.075
138.541	23.114	948.951	747.771
139.556	22.823	948.063	745.772
140.570	23.054	947.823	746.494
141.585	22.634	948.262	744.999
142.600	23.199	948.481	747.491
143.614	23.568	946.846	747.693
144.629	23.765	945.463	747.366
145.643	23.450	946.361	746.681
146.658	23.260	945.167	744.873
147.673	23.262	943.562	743.552
148.687	23.146	942.894	742.474
149.702	22.878	941.579	740.249
150.716	22.796	940.550	739.033
151.731	22.917	938.925	738.193
152.746	22.946	938.782	738.138
153.760	23.176	938.213	738.585
154.775	23.638	936.817	739.345
155.789	23.380	935.539	737.200
156.804	23.286	936.129	737.208
157.819	23.378	934.962	736.604
158.833	23.182	934.554	735.405
159.848	23.580	933.753	736.360
160.862	23.875	933.417	737.253
161.877	23.683	932.200	735.434
162.892	23.225	931.388	732.829
163.906	23.303	929.287	731.435
164.921	22.992	929.423	730.193
165.935	22.813	927.304	727.724
166.950	23.014	927.099	728.330
167.964	22.781	928.328	728.269
168.979	22.912	925.952	726.880
169.994	23.042	924.431	726.154
171.008	23.419	922.755	726.320
172.023	23.184	922.241	724.886
173.037	23.325	922.197	725.365
174.052	23.713	921.197	726.104
175.067	23.545	920.526	724.824
176.081	23.121	919.346	722.099
177.096	22.797	919.219	720.614
178.110	22.452	918.124	718.285
179.125	22.527	917.034	717.673
180.140	22.393	916.280	716.474
181.154	22.681	915.661	717.099
182.169	23.072	914.092	717.392
183.183	23.279	914.120	718.189
184.198	23.448	914.381	719.017
185.213	23.370	913.362	717.839
186.227	22.973	914.171	716.799
187.242	23.023	913.031	716.043
188.256	23.512	912.255	717.353
189.271	23.539	911.116	716.502
190.286	23.602	910.236	716.000
191.300	23.241	909.903	714.219
192.315	22.932	908.906	712.126
193.329	22.392	907.010	708.405
194.344	22.545	905.790	708.004
195.359	22.471	906.675	708.338
196.373	22.812	906.227	709.294
197.388	22.997	905.989	709.787
198.402	23.472	905.353	711.135
199.417	23.571	905.935	711.925
200.432	23.987	905.099	712.870
201.446	24.106	905.808	713.844
202.461	24.040	904.741	712.678
203.475	24.019	903.660	711.678
204.490	23.847	903.228	710.587
205.504	23.020	902.365	706.540
206.519	23.024	900.311	704.886
207.534	23.450	899.625	705.981
208.548	23.138	899.959	704.942
209.563	23.200	899.603	704.847
210.577	23.311	898.898	704.673
211.592	23.529	898.297	705.006
212.607	23.772	897.996	705.671
213.621	24.077	897.055	706.080
214.636	23.828	896.479	704.577
215.650	23.842	895.509	703.808
216.665	23.579	895.077	702.366
217.680	23.892	894.305	702.934
218.694	23.785	894.939	702.949
219.709	23.348	895.622	701.690
220.723	23.576	893.528	700.892
221.738	23.463	892.937	699.919
222.753	23.185	890.695	697.004
223.767	23.251	890.197	696.811
224.782	23.749	889.123	697.868
225.796	23.817	888.933	697.923
226.811	23.942	888.509	698.021
227.826	23.470	888.629	696.198
228.840	23.480	886.141	694.226
229.855	23.120	886.850	693.310
230.869	22.979	886.050	692.073
231.884	23.380	885.261	692.964
232.899	23.051	884.819	691.270
233.913	23.343	883.605	691.398
234.928	23.035	883.610	690.140
235.942	22.848	882.981	688.859
236.957	22.649	881.379	686.774
237.972	22.749	881.277	687.020
238.986	22.872	880.266	686.652
240.001	23.002	879.953	686.851
241.015	22.690	879.758	685.428
242.030	23.018	878.322	685.518
243.045	22.912	878.489	685.178
244.059	23.123	877.980	685.540
245.074	23.140	878.171	685.694
246.088	23.248	876.605	684.824
247.103	23.493	875.802	685.083
248.117	23.761	875.092	685.502
249.132	23.943	875.979	686.839
250.147	24.218	875.736	687.651
251.161	24.690	874.108	688.127
252.176	24.548	875.130	688.325
253.190	24.483	874.197	687.281
254.205	24.276	874.374	686.561
255.220	24.513	873.178	686.472
256.234	24.887	872.022	686.938
257.249	24.044	872.766	684.224
258.263	24.124	871.253	683.286
259.278	23.991	871.403	682.833
260.293	24.284	869.788	682.629
261.307	24.143	869.347	681.682
262.322	24.380	869.213	682.424
263.336	24.202	869.321	681.767
264.351	24.466	868.055	681.722
265.366	24.661	866.727	681.360
266.380	24.210	867.085	679.862
267.395	24.291	866.797	679.888
268.409	24.680	864.617	679.596
269.424	24.251	864.758	678.015
270.439	24.154	863.205	676.366
271.453	24.266	863.504	676.966
272.468	23.969	862.594	675.069
273.482	24.044	861.859	674.718
274.497	24.178	861.449	674.845
275.512	24.070	861.009	674.032
276.526	24.169	859.891	673.472
277.541	23.925	860.025	672.593
278.555	24.149	859.243	672.770
279.570	24.938	857.775	674.534
280.585	24.668	857.798	673.473
281.599	24.613	857.817	673.222
282.614	23.969	857.382	670.394
283.628	24.159	855.859	669.860
284.643	23.960	855.674	668.905
285.657	23.874	855.464	668.359
286.672	24.235	854.352	668.788
287.687	24.392	853.630	668.754
288.701	23.882	853.922	667.010
289.716	24.180	853.280	667.565
290.730	24.213	851.716	666.405
291.745	24.284	850.735	665.845
292.760	24.390	850.968	666.364
293.774	24.218	851.234	665.871
294.789	24.950	849.720	667.357
295.803	24.771	849.499	666.458
296.818	24.369	849.736	665.086
297.833	24.499	848.710	664.708
298.847	23.967	848.275	662.326
299.862	24.167	847.412	662.339
300.876	24.378	846.261	662.164
301.891	24.481	846.344	662.552
302.906	24.476	846.284	662.428
303.920	24.847	845.098	662.816
304.935	24.809	845.268	662.750
305.949	25.200	844.221	663.318
306.964	25.175	842.386	661.724
307.979	24.814	842.898	660.736
308.993	24.190	843.102	658.531
310.008	24.636	841.705	659.027
311.022	24.706	841.405	658.993
312.037	24.898	840.911	659.254
313.052	24.840	840.546	658.695
314.066	24.181	839.655	655.515
315.081	24.204	838.355	654.527
316.095	24.121	837.490	653.488
317.110	24.045	837.547	653.197
318.125	24.513	837.154	654.549
319.139	24.006	836.869	652.409
320.154	23.638	836.115	650.417
321.168	23.746	835.643	650.385
322.183	23.568	834.892	649.091
323.197	23.872	834.711	650.008
324.212	24.123	833.543	649.955
325.227	24.134	833.701	650.060
326.241	24.113	832.327	648.856
327.256	24.091	832.263	648.669
328.270	23.875	831.970	647.597
329.285	23.926	831.125	647.067
330.300	23.888	830.795	646.615
331.314	23.425	830.293	644.484
332.329	23.854	828.752	644.788
333.343	23.999	829.045	645.482
334.358	24.193	828.723	645.880
335.373	24.499	827.490	645.969
336.387	24.532	827.507	646.043
337.402	24.210	827.694	644.966
338.416	24.521	826.549	645.143
339.431	24.823	826.436	646.086
340.446	25.301	825.373	646.920
341.460	25.503	825.761	647.899
342.475	25.295	824.748	646.295
343.489	25.580	823.854	646.562
344.504	25.626	824.385	647.088
345.519	25.327	824.409	645.974
346.533	25.682	823.128	646.187
347.548	25.638	822.431	645.424
348.562	24.923	822.621	642.953
349.577	24.676	821.567	641.184
350.592	25.098	819.529	641.046
351.606	24.903	819.786	640.493
352.621	24.806	818.285	638.918
353.635	24.583	818.727	638.409
354.650	24.552	818.406	637.994
355.665	24.586	817.491	637.342
356.679	24.610	817.329	637.246
357.694	24.701	816.848	637.139
358.708	24.879	816.552	637.489
359.723	24.495	816.345	635.903
360.738	24.539	816.156	635.855
361.752	24.322	815.618	634.607
362.767	24.664	814.550	634.934
363.781	24.960	814.447	635.848
364.796	25.527	814.047	637.493
365.810	25.483	813.404	636.777
366.825	25.685	813.563	637.558
367.840	25.900	812.444	637.389
368.854	25.815	812.772	637.287
369.869	25.171	812.326	634.605
370.883	24.911	811.312	632.837
371.898	24.861	811.168	632.491
372.913	25.108	810.014	632.409
373.927	25.557	808.962	633.111
374.942	25.413	808.654	632.306
375.956	25.114	807.585	630.363
376.971	25.110	807.555	630.272
377.986	25.341	807.380	630.892
379.000	25.238	807.253	630.372
380.015	25.829	806.425	631.745
381.029	25.709	806.124	631.032
382.044	25.374	805.508	629.322
383.059	25.150	805.726	628.651
384.073	25.865	804.232	629.930
385.088	25.734	803.108	628.537
386.102	25.605	802.450	627.515
387.117	24.987	801.622	624.659
388.132	24.872	800.722	623.500
389.146	24.781	800.070	622.622
390.161	24.688	800.760	622.778
391.175	25.397	800.665	625.118
392.190	25.465	800.628	625.271
393.205	25.360	800.414	624.684
394.219	25.051	798.568	622.113
395.234	24.468	798.322	619.843
396.248	24.401	797.355	618.805
397.263	24.625	796.868	619.151
398.278	24.521	796.909	618.765
399.292	24.693	795.663	618.338
400.307	24.142	795.835	616.513
401.321	24.646	794.464	617.136
402.336	24.760	794.910	617.821
403.350	24.832	794.488	617.688
404.365	25.508	794.098	619.661
405.380	25.601	794.463	620.211
406.394	25.587	794.074	619.806
407.409	26.278	793.351	621.565
408.423	26.246	792.791	620.960
409.438	25.969	793.273	620.329
410.453	25.285	792.786	617.540
411.467	26.258	791.321	619.686
412.482	26.070	791.327	618.990
413.496	25.796	790.949	617.699
414.511	25.857	790.174	617.250
415.526	26.311	789.909	618.542
416.540	25.977	790.111	617.501
417.555	25.864	790.158	617.095
418.569	25.761	788.448	615.353
419.584	26.174	788.571	616.808
420.599	26.002	788.061	615.766
421.613	161.256	1369.256	1793.071
422.628	139.625	1453.925	1793.162
