DTS Sentinel unit serial number:	SN413079Multiplexer serial number:	ORYXHardware model number:	OX4-SRSoftware version number:	ORYX F/W v4.00 Oryx Data Collector v3.7.2.0data status	okinstallation	princeton_trtdifferential loss correction	single-endedforward channel	channel 3reverse channel	N/Adate	2019/09/13time	11:16:35forward acquisition time	60.00reverse acquisition time	0.00gamma	496.2192k internal	0.2316k external	0.2316temperature offset calibration	1.0140default loss term (dB/km)	0.3790temperature slope calibration	1.0000multiplexer offset coefficient	1.0000multiplexer slope coefficient	1.0000fibre end	0.00T internal ref (°C)	32.31T ext. ref 1 (°C)	4.70T ext. ref 2 (°C)	29.64length (m)	temperature (°C)	Stokes	anti-Stokes-747.200	-200.000	0.012	0.183
-746.185	70.165	-0.173	0.181
-745.171	159.194	0.200	-0.282
-744.156	-125.751	-0.182	0.028
-743.142	-80.366	0.253	-0.086
-742.127	26.675	0.174	0.147
-741.112	-200.000	0.027	-0.279
-740.098	-22.507	0.176	-0.108
-739.083	5.828	0.244	-0.183
-738.069	343.900	0.064	0.128
-737.054	-13.247	-0.296	-0.195
-736.039	154.096	-0.181	-0.252
-735.025	-200.000	0.003	0.171
-734.010	159.954	-0.239	-0.338
-732.996	-0.447	-0.152	0.109
-731.981	-200.000	0.004	-0.069
-730.966	-200.000	0.074	-0.329
-729.952	209.285	-0.131	-0.208
-728.937	-32.626	-0.304	-0.171
-727.923	31.911	-0.122	-0.106
-726.908	34.344	0.438	-0.387
-725.894	3.491	0.050	-0.037
-724.879	14.666	-0.200	0.158
-723.864	32.211	-0.053	0.046
-722.850	79.764	-0.074	0.081
-721.835	-200.000	-0.037	-0.254
-720.821	-200.000	0.037	-0.251
-719.806	532.468	0.081	-0.195
-718.791	-200.000	0.032	-0.163
-717.777	-17.608	-0.025	-0.016
-716.762	-79.578	0.037	0.013
-715.748	114.110	0.154	-0.190
-714.733	-110.260	-0.186	0.039
-713.718	188.953	0.112	-0.169
-712.704	-88.581	-0.302	-0.091
-711.689	37.733	-0.044	-0.039
-710.675	-77.347	-0.096	0.034
-709.660	106.175	0.197	0.236
-708.645	710.275	0.060	-0.160
-707.631	-79.171	0.366	-0.126
-706.616	-82.707	0.345	0.113
-705.602	-131.689	0.294	0.039
-704.587	-162.878	-0.238	-0.012
-703.572	243.603	0.044	-0.075
-702.558	3.493	0.093	-0.069
-701.543	13.911	0.382	-0.301
-700.529	-80.424	-0.276	0.093
-699.514	-60.637	0.205	0.088
-698.499	-200.000	-0.014	-0.123
-697.485	570.213	-0.233	-0.573
-696.470	-37.975	0.381	-0.205
-695.456	-70.137	0.166	0.064
-694.441	259.474	-0.132	0.230
-693.426	800.000	-0.046	0.168
-692.412	-118.393	-0.171	0.031
-691.397	-78.433	0.373	-0.129
-690.383	776.516	-0.057	0.158
-689.368	93.046	-0.299	-0.341
-688.354	76.255	0.273	-0.292
-687.339	-200.000	-0.058	0.485
-686.324	-200.000	-0.031	0.228
-685.310	200.735	0.113	0.176
-684.295	-161.123	0.390	0.021
-683.281	217.568	0.094	0.152
-682.266	-5.267	0.175	0.121
-681.251	-62.919	-0.158	0.066
-680.237	-70.340	-0.278	-0.106
-679.222	243.345	0.162	-0.275
-678.208	511.889	0.124	-0.292
-677.193	-200.000	0.014	-0.080
-676.178	405.140	0.122	-0.260
-675.164	-32.462	0.250	0.141
-674.149	800.000	-0.156	-0.502
-673.135	-182.169	-0.042	0.001
-672.120	-200.000	-0.000	-0.187
-671.105	336.895	0.196	-0.384
-670.091	567.293	0.147	-0.361
-669.076	-134.395	-0.150	-0.019
-668.062	-35.666	-0.172	0.094
-667.047	-18.947	0.122	-0.077
-666.032	12.945	0.139	0.108
-665.018	-123.366	0.276	0.045
-664.003	83.383	-0.117	-0.128
-662.989	800.000	-0.071	0.281
-661.974	-138.084	0.094	0.011
-660.959	-159.378	0.074	0.004
-659.945	38.659	0.092	-0.083
-658.930	-119.190	-0.438	-0.077
-657.916	-141.939	0.318	0.032
-656.901	-84.839	0.148	0.047
-655.886	101.605	-0.095	0.112
-654.872	297.933	0.077	0.143
-653.857	94.256	0.089	-0.102
-652.843	-111.362	0.381	-0.079
-651.828	-200.000	0.001	-0.210
-650.814	-71.507	0.163	0.062
-649.799	-108.825	-0.374	0.081
-648.784	-36.986	0.082	-0.044
-647.770	-200.000	-0.002	-0.245
-646.755	-77.442	0.256	0.090
-645.741	-129.039	-0.079	-0.011
-644.726	68.085	0.104	0.108
-643.711	-102.062	0.255	0.062
-642.697	-98.331	0.180	-0.047
-641.682	-28.126	0.331	0.193
-640.668	800.000	0.119	0.491
-639.653	61.395	0.124	-0.124
-638.638	-84.732	-0.102	0.032
-637.624	-156.599	0.344	-0.022
-636.609	-56.895	0.207	-0.092
-635.595	-32.841	-0.372	0.208
-634.580	26.613	-0.083	-0.070
-633.565	-200.000	0.018	0.128
-632.551	38.883	-0.135	0.122
-631.536	-162.859	0.148	0.007
-630.522	800.000	-0.066	-0.193
-629.507	29.101	0.447	-0.383
-628.492	84.943	0.238	0.263
-627.478	-165.178	-0.223	0.010
-626.463	61.352	0.220	-0.220
-625.449	238.713	0.028	-0.048
-624.434	-190.457	0.402	-0.004
-623.419	-200.000	-0.018	0.185
-622.405	94.956	0.107	0.122
-621.390	-10.446	0.232	0.155
-620.376	-133.464	-0.202	0.026
-619.361	16.180	0.206	-0.164
-618.346	-200.000	-0.003	0.083
-617.332	-99.362	0.493	-0.125
-616.317	591.819	0.127	0.315
-615.303	800.000	-0.058	-0.241
-614.288	121.876	-0.056	-0.070
-613.273	30.407	0.296	-0.255
-612.259	800.000	-0.051	0.163
-611.244	31.657	-0.365	-0.316
-610.230	480.038	0.076	0.175
-609.215	39.910	-0.141	0.128
-608.201	-118.760	-0.285	-0.051
-607.186	-36.725	0.159	0.086
-606.171	5.164	-0.089	0.066
-605.157	-200.000	-0.003	-0.196
-604.142	55.211	0.106	-0.104
-603.128	-59.249	0.207	0.090
-602.113	160.916	-0.031	-0.044
-601.098	800.000	0.030	-0.106
-600.084	145.850	-0.111	-0.150
-599.069	-50.943	0.241	-0.114
-598.055	800.000	0.191	-0.597
-597.040	239.938	-0.109	-0.183
-596.025	171.234	-0.076	-0.110
-595.011	-84.735	-0.298	-0.094
-593.996	-200.000	-0.076	0.513
-592.982	111.754	0.130	0.157
-591.967	45.077	-0.156	-0.145
-590.952	109.001	-0.177	-0.213
-589.938	-57.682	-0.204	0.090
-588.923	439.047	-0.109	-0.239
-587.909	-147.549	-0.129	-0.011
-586.894	28.499	-0.117	-0.100
-585.879	45.787	-0.073	-0.068
-584.865	233.535	-0.142	0.236
-583.850	-131.591	-0.400	-0.053
-582.836	-26.491	0.307	-0.181
-581.821	128.193	-0.139	0.178
-580.806	124.054	0.089	0.112
-579.792	50.723	-0.126	-0.120
-578.777	-110.015	0.165	0.035
-577.763	-200.000	0.003	-0.308
-576.748	-44.380	0.313	-0.158
-575.733	44.649	-0.171	0.158
-574.719	1.519	0.240	-0.174
-573.704	-11.476	0.057	0.038
-572.690	-200.000	-0.006	0.221
-571.675	800.000	0.047	-0.189
-570.661	800.000	-0.010	-0.033
-569.646	-200.000	0.008	0.323
-568.631	-108.479	-0.244	-0.053
-567.617	14.262	-0.232	0.182
-566.602	28.443	0.109	0.093
-565.588	211.688	-0.131	0.208
-564.573	237.684	0.047	0.078
-563.558	132.353	0.123	0.160
-562.544	-200.000	-0.012	-0.101
-561.529	-137.614	-0.337	-0.038
-560.515	-28.104	-0.174	-0.101
-559.500	800.000	0.013	-0.039
-558.485	-154.769	0.310	-0.021
-557.471	101.924	-0.159	-0.187
-556.456	-98.533	0.426	0.109
-555.442	800.000	0.083	-0.271
-554.427	-200.000	-0.025	0.133
-553.412	138.666	0.188	-0.248
-552.398	-69.983	0.152	-0.058
-551.383	193.588	-0.162	0.247
-550.369	250.777	0.116	-0.198
-549.354	602.240	0.121	0.301
-548.339	75.194	0.080	0.085
-547.325	-48.847	-0.080	-0.039
-546.310	-63.502	-0.171	0.071
-545.296	-85.297	-0.166	0.052
-544.281	140.943	0.029	0.038
-543.266	-97.159	0.068	0.018
-542.252	205.598	-0.222	0.347
-541.237	176.471	0.099	-0.144
-540.223	446.827	0.101	0.222
-539.208	700.357	-0.129	0.342
-538.193	-200.000	0.001	0.491
-537.179	55.995	0.112	0.109
-536.164	-21.414	0.311	-0.191
-535.150	800.000	0.013	-0.042
-534.135	-3.219	-0.292	-0.204
-533.121	198.494	-0.071	0.109
-532.106	69.723	0.086	-0.089
-531.091	-69.728	0.158	0.061
-530.077	136.429	0.080	-0.105
-529.062	52.184	-0.113	0.108
-528.048	-200.000	-0.004	-0.175
-527.033	189.234	-0.066	-0.099
-526.018	800.000	-0.037	-0.118
-525.004	-66.693	-0.056	-0.022
-523.989	-53.060	-0.356	-0.164
-522.975	33.943	-0.144	-0.126
-521.960	67.283	0.192	-0.197
-520.945	-103.558	0.244	-0.057
-519.931	89.701	0.079	0.089
-518.916	-108.927	0.158	0.034
-517.902	800.000	0.121	0.358
-516.887	122.437	-0.206	0.258
-515.872	-47.127	-0.231	-0.113
-514.858	-5.907	-0.089	-0.061
-513.843	-57.224	0.162	-0.072
-512.829	-51.196	-0.125	0.059
-511.814	68.205	0.242	-0.248
-510.799	-200.000	-0.020	-0.283
-509.785	-55.305	-0.436	-0.197
-508.770	103.032	-0.153	-0.180
-507.756	39.938	-0.059	-0.053
-506.741	800.000	0.107	-0.310
-505.726	-100.570	0.413	-0.102
-504.712	388.896	0.115	0.240
-503.697	-127.418	0.335	0.049
-502.683	-55.315	0.271	0.122
-501.668	114.220	-0.096	0.117
-500.653	52.950	0.199	-0.191
-499.639	-108.935	0.088	0.019
-498.624	284.704	0.084	-0.152
-497.610	-144.751	0.291	0.027
-496.595	142.744	-0.146	-0.194
-495.581	800.000	-0.035	0.100
-494.566	-104.391	-0.048	-0.011
-493.551	-200.000	0.002	-0.120
-492.537	33.741	0.148	0.129
-491.522	638.781	0.094	0.239
-490.508	163.616	-0.206	0.291
-489.493	34.024	0.244	0.213
-488.478	140.798	-0.150	-0.199
-487.464	-62.678	0.387	-0.161
-486.449	169.443	0.095	0.136
-485.435	40.750	-0.050	-0.045
-484.420	33.024	-0.069	0.060
-483.405	172.796	-0.186	0.268
-482.391	-123.244	0.328	0.053
-481.376	-133.807	-0.453	0.056
-480.362	56.720	-0.050	-0.048
-479.347	54.708	0.277	0.268
-478.332	185.376	0.209	-0.311
-477.318	51.446	-0.256	0.244
-476.303	71.555	0.332	0.346
-475.289	-200.000	0.010	-0.271
-474.274	800.000	-0.057	-0.211
-473.259	-200.000	-0.035	-0.264
-472.245	30.383	0.209	0.179
-471.230	-200.000	0.006	0.293
-470.216	-200.000	-0.019	0.283
-469.201	377.950	-0.100	0.205
-468.186	-200.000	-0.063	-0.321
-467.172	226.898	-0.103	-0.168
-466.157	-70.937	0.077	0.029
-465.143	-89.144	-0.376	-0.111
-464.128	91.378	0.109	0.123
-463.113	-48.426	-0.180	0.087
-462.099	-113.583	0.210	0.041
-461.084	542.635	0.057	-0.137
-460.070	193.592	0.071	-0.108
-459.055	-7.045	-0.174	0.118
-458.040	228.015	-0.142	-0.232
-457.026	-200.000	-0.038	0.374
-456.011	-64.544	-0.153	0.062
-454.997	-37.053	-0.397	0.213
-453.982	96.137	-0.088	-0.101
-452.968	-200.000	-0.025	-0.354
-451.953	414.737	-0.106	-0.227
-450.938	325.025	-0.029	-0.055
-449.924	-200.000	-0.016	-0.147
-448.909	187.269	0.111	0.166
-447.895	551.399	0.103	0.247
-446.880	-200.000	0.028	0.140
-445.865	-36.049	-0.320	0.173
-444.851	91.932	-0.080	0.090
-443.836	-114.127	-0.199	0.039
-442.822	204.065	0.069	0.107
-441.807	-90.775	-0.229	-0.066
-440.792	696.692	0.190	-0.499
-439.778	-66.574	0.305	-0.121
-438.763	-78.481	-0.133	0.046
-437.749	-168.043	-0.332	0.013
-436.734	-113.262	0.095	0.019
-435.719	779.396	-0.146	0.400
-434.705	-103.080	-0.085	0.020
-433.690	85.380	0.193	-0.212
-432.676	34.796	-0.239	-0.209
-431.661	-61.137	-0.413	0.174
-430.646	-9.622	-0.139	0.093
-429.632	-200.000	-0.007	-0.046
-428.617	-105.728	-0.117	-0.027
-427.603	121.587	0.284	0.355
-426.588	-200.000	0.004	0.221
-425.573	35.025	0.065	0.057
-424.559	560.441	0.046	0.111
-423.544	782.234	-0.124	-0.340
-422.530	529.742	-0.131	0.309
-421.515	206.543	-0.108	-0.169
-420.500	90.140	0.181	0.202
-419.486	800.000	-0.117	0.348
-418.471	800.000	0.071	0.246
-417.457	-140.195	-0.024	-0.002
-416.442	800.000	0.053	0.197
-415.428	15.669	0.119	0.093
-414.413	800.000	0.032	-0.122
-413.398	-94.159	0.138	-0.038
-412.384	-200.000	0.006	-0.207
-411.369	-49.399	0.172	0.082
-410.355	-200.000	0.046	-0.212
-409.340	54.154	-0.253	-0.243
-408.325	-130.540	-0.035	0.005
-407.311	-200.000	0.024	-0.357
-406.296	800.000	-0.026	0.111
-405.282	4.175	0.296	0.217
-404.267	263.447	-0.169	-0.293
-403.252	800.000	-0.087	-0.309
-402.238	-195.195	-0.159	-0.001
-401.223	-200.000	-0.048	-0.254
-400.209	88.209	-0.148	-0.164
-399.194	90.590	-0.189	0.211
-398.179	-132.370	-0.246	0.032
-397.165	800.000	-0.072	0.222
-396.150	37.570	0.218	0.193
-395.136	-128.990	0.243	-0.034
-394.121	-200.000	-0.050	-0.293
-393.106	800.000	0.089	0.307
-392.092	-155.945	-0.089	0.006
-391.077	800.000	-0.078	-0.320
-390.063	15.584	0.238	-0.187
-389.048	-86.952	-0.260	-0.079
-388.033	-61.359	-0.240	0.101
-387.019	37.060	0.070	-0.062
-386.004	60.365	-0.187	0.185
-384.990	92.062	-0.132	-0.148
-383.975	315.459	-0.015	-0.028
-382.960	800.000	0.112	-0.353
-381.946	184.366	-0.279	-0.412
-380.931	-39.667	-0.363	0.190
-379.917	800.000	-0.074	0.260
-378.902	-162.630	0.268	-0.013
-377.888	-6.083	0.028	-0.019
-376.873	-60.085	0.324	-0.138
-375.858	-104.108	-0.115	0.027
-374.844	-167.034	-0.136	0.006
-373.829	-86.034	0.415	0.128
-372.815	322.179	0.127	0.242
-371.800	-87.002	-0.140	0.043
-370.785	105.188	-0.113	0.133
-369.771	309.762	-0.129	-0.241
-368.756	-200.000	-0.009	-0.192
-367.742	800.000	0.074	0.299
-366.727	-115.660	0.360	0.067
-365.712	-160.894	-0.231	-0.012
-364.698	-29.355	0.313	-0.179
-363.683	-200.000	0.016	-0.200
-362.669	224.708	0.141	0.228
-361.654	448.422	-0.113	-0.249
-360.639	50.998	0.131	-0.124
-359.625	-48.134	0.223	-0.108
-358.610	-10.677	0.080	0.053
-357.596	28.739	-0.112	0.095
-356.581	85.790	-0.180	0.197
-355.566	-86.140	-0.066	-0.020
-354.552	-127.012	-0.379	-0.056
-353.537	244.733	0.018	0.030
-352.523	8.984	0.136	-0.102
-351.508	216.948	-0.221	-0.351
-350.493	800.000	0.053	-0.221
-349.479	405.305	0.126	0.265
-348.464	800.000	0.016	-0.064
-347.450	-107.515	-0.303	-0.066
-346.435	-34.511	0.459	0.251
-345.420	-45.596	-0.200	-0.099
-344.406	-200.000	-0.003	0.074
-343.391	-200.000	0.063	0.300
-342.377	-132.422	0.450	-0.058
-341.362	-60.464	-0.025	-0.010
-340.348	-7.334	-0.177	0.120
-339.333	-200.000	0.012	-0.069
-338.318	38.911	0.271	-0.241
-337.304	-173.263	-0.069	-0.002
-336.289	86.439	-0.219	-0.240
-335.275	276.953	-0.072	0.127
-334.260	44.420	0.204	0.186
-333.245	-23.502	0.064	-0.039
-332.231	-176.719	-0.200	0.005
-331.216	-28.085	0.075	-0.043
-330.202	53.359	-0.144	0.138
-329.187	-9.283	0.250	0.167
-328.172	25.541	-0.219	-0.181
-327.158	-55.732	-0.203	-0.091
-326.143	-32.389	-0.060	-0.034
-325.129	-200.000	0.014	0.087
-324.114	262.865	-0.130	-0.225
-323.099	-28.258	-0.093	-0.054
-322.085	-113.514	-0.142	0.028
-321.070	-57.114	-0.193	0.085
-320.056	-157.844	0.418	0.025
-319.041	387.120	-0.051	-0.105
-318.026	-41.566	-0.308	-0.158
-317.012	800.000	0.107	0.319
-315.997	210.119	0.137	0.214
-314.983	318.041	-0.125	0.236
-313.968	800.000	-0.097	0.367
-312.953	113.549	-0.073	0.088
-311.939	-78.323	0.238	0.081
-310.924	-133.865	0.126	0.016
-309.910	800.000	-0.078	-0.246
-308.895	-200.000	-0.009	0.122
-307.880	113.694	0.103	-0.125
-306.866	-200.000	0.002	-0.349
-305.851	-95.856	-0.277	0.074
-304.837	-200.000	-0.009	0.266
-303.822	-200.000	-0.031	0.236
-302.807	-200.000	0.032	0.147
-301.793	-85.274	-0.147	-0.046
-300.778	444.780	-0.087	-0.189
-299.764	216.257	-0.061	-0.097
-298.749	-16.827	-0.152	-0.096
-297.735	123.185	-0.138	-0.172
-296.720	14.219	0.116	-0.090
-295.705	151.156	0.226	-0.306
-294.691	759.303	-0.074	-0.199
-293.676	-154.301	0.358	-0.024
-292.662	-91.536	0.126	-0.036
-291.647	-122.010	-0.261	-0.043
-290.632	-200.000	0.080	0.360
-289.618	-200.000	0.005	0.244
-288.603	14.981	-0.267	-0.208
-287.589	75.977	0.134	-0.141
-286.574	-90.393	-0.264	0.076
-285.559	-65.919	0.030	-0.012
-284.545	207.315	-0.084	0.130
-283.530	332.652	0.113	-0.218
-282.516	-124.387	-0.231	-0.036
-281.501	36.807	0.171	-0.151
-280.486	353.527	-0.063	0.125
-279.472	-34.033	-0.130	-0.071
-278.457	640.785	0.016	0.039
-277.443	-200.000	0.015	-0.172
-276.428	111.673	-0.134	-0.161
-275.413	-140.469	0.055	-0.006
-274.399	336.555	-0.176	-0.339
-273.384	-165.605	0.188	-0.008
-272.370	66.952	0.189	-0.192
-271.355	-129.140	0.133	-0.018
-270.340	428.363	-0.112	0.240
-269.326	284.668	0.094	0.168
-268.311	-200.000	-0.008	-0.090
-267.297	-147.902	-0.304	-0.025
-266.282	-56.266	-0.232	-0.102
-265.267	-200.000	-0.001	-0.015
-264.253	800.000	-0.039	-0.131
-263.238	-200.000	0.016	-0.182
-262.224	271.279	0.132	0.230
-261.209	22.046	0.187	-0.152
-260.195	316.228	-0.151	0.284
-259.180	-200.000	-0.003	-0.154
-258.165	-200.000	0.022	-0.179
-257.151	-40.287	0.290	0.150
-256.136	-114.948	-0.242	-0.046
-255.122	-78.060	-0.069	0.024
-254.107	-120.185	0.357	0.061
-253.092	210.662	0.074	-0.116
-252.078	-200.000	-0.051	-0.236
-251.063	4.606	-0.206	-0.150
-250.049	212.235	0.171	0.268
-249.034	638.753	0.178	0.449
-248.019	335.239	-0.085	0.165
-247.005	800.000	-0.120	-0.361
-245.990	-133.536	-0.176	-0.022
-244.976	800.000	0.019	0.054
-243.961	-200.000	-0.042	0.280
-242.946	-65.466	0.270	-0.108
-241.932	-142.958	-0.133	-0.013
-240.917	-35.993	-0.056	0.030
-239.903	388.279	0.104	-0.215
-238.888	800.000	-0.055	-0.214
-237.873	46.963	0.117	-0.108
-236.859	-73.566	-0.146	-0.053
-235.844	344.126	-0.093	0.181
-234.830	140.730	0.088	-0.116
-233.815	-162.452	-0.443	0.022
-232.800	800.000	-0.117	0.471
-231.786	-105.141	0.318	0.072
-230.771	-200.000	-0.027	0.194
-229.757	403.451	-0.077	0.160
-228.742	62.823	-0.378	0.375
-227.727	5.128	0.111	0.081
-226.713	766.660	-0.039	-0.106
-225.698	-200.000	-0.013	-0.144
-224.684	800.000	-0.037	0.142
-223.669	-59.361	-0.278	-0.119
-222.655	195.066	0.221	0.334
-221.640	72.213	0.174	-0.180
-220.625	-167.157	-0.108	0.004
-219.611	31.359	-0.092	0.078
-218.596	245.409	-0.201	-0.336
-217.582	207.313	0.031	0.048
-216.567	-183.625	-0.108	0.002
-215.552	286.255	0.032	-0.057
-214.538	-200.000	-0.028	0.212
-213.523	577.112	-0.076	-0.185
-212.509	-176.590	-0.148	0.004
-211.494	-137.675	-0.070	0.008
-210.479	250.597	0.049	-0.082
-209.465	-200.000	0.080	-0.458
-208.450	-33.132	0.251	-0.138
-207.436	-200.000	0.001	0.344
-206.421	351.256	0.106	0.208
-205.406	-86.469	-0.220	-0.067
-204.392	-200.000	-0.055	-0.271
-203.377	19.185	0.129	0.103
-202.363	-157.437	-0.130	0.008
-201.348	-20.881	0.220	-0.134
-200.333	17.909	-0.285	0.225
-199.319	800.000	0.085	0.261
-198.304	-161.165	0.208	0.011
-197.290	-23.056	0.183	0.109
-196.275	130.587	0.129	0.163
-195.260	-23.126	0.170	0.101
-194.246	52.239	0.132	-0.125
-193.231	-200.000	0.004	-0.186
-192.217	-200.000	0.004	0.068
-191.202	-161.684	0.164	-0.008
-190.187	-96.820	0.314	0.082
-189.173	121.881	0.268	0.332
-188.158	219.883	-0.187	0.297
-187.144	49.097	0.057	0.054
-186.129	800.000	-0.079	-0.276
-185.114	-28.552	-0.063	0.036
-184.100	-121.572	0.303	-0.050
-183.085	800.000	0.061	-0.180
-182.071	178.426	-0.082	0.118
-181.056	-200.000	0.021	-0.098
-180.042	-150.814	-0.126	-0.009
-179.027	347.358	-0.033	-0.063
-178.012	-26.386	-0.274	0.159
-176.998	-33.703	-0.113	-0.062
-175.983	-200.000	0.031	0.160
-174.969	-119.642	0.209	0.036
-173.954	-200.000	0.013	-0.162
-172.939	691.066	0.024	-0.061
-171.925	-200.000	0.073	-0.319
-170.910	-117.387	0.286	-0.051
-169.896	75.540	-0.161	0.168
-168.881	122.058	-0.091	0.112
-167.866	4.340	-0.306	0.222
-166.852	-200.000	-0.010	0.061
-165.837	26.703	-0.192	-0.159
-164.823	800.000	0.027	0.090
-163.808	60.141	-0.127	-0.125
-162.793	-43.375	0.294	0.147
-161.779	-140.989	0.183	0.019
-160.764	-90.296	-0.201	0.058
-159.750	45.904	0.156	-0.143
-158.735	50.817	0.309	0.290
-157.720	-46.902	0.083	-0.040
-156.706	134.545	0.173	-0.223
-155.691	-45.569	-0.198	-0.097
-154.677	-1.319	0.087	-0.061
-153.662	207.241	0.159	0.245
-152.647	-119.084	-0.371	-0.064
-151.633	165.181	0.037	0.051
-150.618	-90.794	0.317	-0.090
-149.604	-200.000	-0.057	0.358
-148.589	-145.345	0.317	0.028
-147.574	-80.506	-0.256	0.084
-146.560	-7.505	0.017	-0.012
-145.545	-200.000	-0.012	0.143
-144.531	-103.178	-0.131	0.031
-143.516	-200.000	-0.082	0.369
-142.502	-200.000	0.021	0.223
-141.487	-200.000	-0.015	0.084
-140.472	585.951	0.134	-0.325
-139.458	-50.776	0.131	-0.061
-138.443	800.000	0.024	0.090
-137.429	-72.225	0.081	0.030
-136.414	-79.142	0.272	-0.091
-135.399	56.999	0.114	-0.110
-134.385	682.317	0.152	-0.391
-133.370	-141.747	0.077	0.008
-132.356	5.799	0.190	-0.139
-131.341	-200.000	-0.051	-0.264
-130.326	80.623	0.380	0.405
-129.312	225.871	-0.133	0.213
-128.297	800.000	0.143	0.461
-127.283	-96.912	-0.169	0.044
-126.268	-200.000	0.010	0.281
-125.253	-23.461	0.170	-0.101
-124.239	-200.000	0.033	-0.216
-123.224	-200.000	0.068	0.324
-122.210	-88.570	0.160	-0.047
-121.195	-79.744	-0.080	0.027
-120.180	523.919	0.051	0.119
-119.166	-108.441	0.131	-0.028
-118.151	80.216	-0.198	-0.210
-117.137	314.408	0.070	0.130
-116.122	-101.141	0.235	-0.057
-115.107	8.013	-0.154	0.114
-114.093	-200.000	-0.040	0.211
-113.078	-105.194	-0.075	-0.017
-112.064	-200.000	0.001	0.015
-111.049	-5.876	0.237	-0.160
-110.034	-117.773	-0.064	-0.011
-109.020	-143.599	0.095	0.009
-108.005	75.301	-0.143	-0.149
-106.991	-43.381	-0.128	0.064
-105.976	-141.157	0.213	-0.022
-104.962	-62.876	0.316	-0.129
-103.947	800.000	-0.066	-0.215
-102.932	569.586	0.059	-0.143
-101.918	-200.000	-0.064	-0.297
-100.903	-114.545	0.252	0.048
-99.889	14.092	0.247	0.190
-98.874	-200.000	-0.004	0.095
-97.859	647.727	0.096	-0.242
-96.845	94.794	0.157	-0.176
-95.830	433.448	0.064	-0.137
-94.816	84.038	-0.136	-0.146
-93.801	-53.932	-0.055	-0.025
-92.786	-192.527	0.135	0.001
-91.772	168.577	-0.081	0.114
-90.757	406.727	0.114	0.239
-89.743	21.879	0.070	0.056
-88.728	27.903	0.290	-0.241
-87.713	-67.301	0.205	-0.080
-86.699	200.561	-0.137	-0.207
-85.684	242.170	0.193	-0.319
-84.670	-0.119	-0.288	0.203
-83.655	-94.946	-0.262	-0.070
-82.640	-200.000	-0.019	-0.151
-81.626	-21.257	0.222	-0.134
-80.611	110.602	-0.128	-0.152
-79.597	-1.539	0.336	-0.234
-78.582	84.350	0.066	0.071
-77.567	-84.851	0.134	-0.042
-76.553	67.501	0.085	-0.086
-75.538	-200.000	0.016	0.160
-74.524	-8.600	-0.161	0.107
-73.509	-120.230	0.406	-0.068
-72.494	-9.646	-0.078	0.051
-71.480	515.512	0.134	0.308
-70.465	-200.000	0.031	0.281
-69.451	780.625	0.075	0.204
-68.436	-200.000	0.008	-0.053
-67.422	20.705	-0.310	-0.248
-66.407	-22.957	0.285	0.170
-65.392	163.068	0.213	0.295
-64.378	-36.740	-0.090	0.048
-63.363	-34.469	0.021	0.011
-62.349	213.228	0.148	0.231
-61.334	46.450	-0.892	-0.816
-60.319	800.000	0.248	0.692
-59.305	-200.000	0.041	-0.676
-58.290	800.000	0.321	0.883
-57.276	800.000	0.552	1.647
-56.261	-200.000	97.571	584.592
-55.246	610.181	1420.884	3500.349
-54.232	186.950	2613.633	3840.263
-53.217	117.766	2200.466	2671.274
-52.203	42.975	1733.710	1558.612
-51.188	35.414	1545.604	1337.017
-50.173	33.073	1518.443	1297.424
-49.159	53.064	1566.943	1478.583
-48.144	54.423	1584.520	1504.578
-47.130	35.806	1543.938	1338.090
-46.115	32.672	1529.300	1303.720
-45.100	32.426	1526.335	1299.438
-44.086	32.443	1524.419	1297.871
-43.071	32.406	1522.617	1296.035
-42.057	32.418	1520.702	1294.434
-41.042	32.365	1519.422	1292.933
-40.027	32.387	1518.072	1291.882
-39.013	32.273	1516.501	1289.713
-37.998	32.313	1514.901	1288.575
-36.984	32.337	1514.234	1288.118
-35.969	32.358	1513.046	1287.203
-34.954	32.331	1511.458	1285.615
-33.940	32.373	1509.854	1284.483
-32.925	32.399	1508.353	1283.335
-31.911	32.379	1507.160	1282.136
-30.896	32.401	1505.734	1281.018
-29.881	32.374	1504.805	1279.996
-28.867	32.385	1502.799	1278.309
-27.852	32.383	1501.139	1276.834
-26.838	32.313	1500.111	1275.438
-25.823	32.464	1498.036	1274.644
-24.809	32.314	1497.014	1272.707
-23.794	32.391	1495.151	1271.594
-22.779	32.418	1493.486	1270.307
-21.765	32.267	1493.092	1268.905
-20.750	32.386	1491.484	1268.294
-19.736	32.266	1491.001	1267.017
-18.721	32.328	1489.741	1266.317
-17.706	32.324	1488.839	1265.472
-16.692	32.230	1487.683	1263.809
-15.677	32.346	1486.674	1263.678
-14.663	32.208	1486.043	1262.165
-13.648	32.244	1484.545	1261.089
-12.633	32.272	1483.434	1260.279
-11.619	32.248	1482.859	1259.580
-10.604	32.297	1481.624	1258.810
-9.590	32.237	1481.163	1257.970
-8.575	32.327	1479.902	1257.446
-7.560	32.232	1479.447	1256.378
-6.546	32.269	1478.411	1255.694
-5.531	32.161	1477.509	1254.160
-4.517	32.221	1476.269	1253.456
-3.502	32.317	1475.136	1253.083
-2.487	32.185	1474.429	1251.556
-1.473	32.226	1473.109	1250.658
-0.458	32.288	1471.944	1250.032
0.556	34.460	1462.571	1240.870
1.571	31.709	1435.814	1200.457
2.586	28.135	1374.165	1126.847
3.600	26.170	1291.455	1047.536
4.615	24.021	1245.587	998.205
5.629	20.422	1187.717	932.461
6.644	12.260	1102.222	824.431
7.659	5.886	1061.083	762.691
8.673	5.026	1055.878	754.722
9.688	4.644	1052.697	750.536
10.702	4.531	1051.153	748.825
11.717	4.611	1049.551	748.003
12.731	7.633	1052.343	764.485
13.746	15.827	1064.318	812.848
14.761	21.568	1071.298	845.930
15.775	22.166	1071.345	848.781
16.790	21.631	1069.113	844.360
17.804	20.590	1067.088	837.675
18.819	19.785	1065.023	832.106
19.834	19.326	1064.099	829.103
20.848	19.066	1063.667	827.446
21.863	19.109	1062.575	826.729
22.877	18.796	1062.400	825.018
23.892	18.589	1061.516	823.263
24.907	18.621	1060.501	822.559
25.921	18.649	1059.650	821.959
26.936	18.562	1059.084	821.032
27.950	18.634	1058.012	820.472
28.965	18.668	1056.360	819.282
29.980	18.665	1055.556	818.570
30.994	18.949	1054.614	819.122
32.009	19.091	1053.381	818.765
33.023	19.085	1053.095	818.441
34.038	19.028	1052.247	817.440
35.053	18.876	1051.556	816.107
36.067	18.755	1050.460	814.611
37.082	18.631	1049.856	813.481
38.096	18.774	1048.643	813.149
39.111	18.845	1048.140	813.021
40.126	18.847	1047.650	812.578
41.140	18.805	1046.615	811.505
42.155	18.551	1044.796	808.828
43.169	18.316	1044.052	807.073
44.184	18.301	1042.712	805.894
45.199	18.266	1041.677	804.861
46.213	18.222	1040.725	803.843
47.228	18.324	1039.937	803.642
48.242	18.563	1038.996	803.965
49.257	18.785	1038.216	804.332
50.271	18.710	1037.131	803.070
51.286	18.722	1036.619	802.656
52.301	18.754	1035.739	802.056
53.315	18.724	1035.186	801.417
54.330	18.670	1034.100	800.252
55.344	18.480	1033.534	798.856
56.359	18.412	1032.238	797.470
57.374	18.446	1031.266	796.805
58.388	18.548	1030.204	796.389
59.403	18.284	1029.436	794.499
60.417	18.103	1028.856	793.141
61.432	18.223	1028.162	793.093
62.447	18.307	1027.081	792.576
63.461	18.098	1026.759	791.292
64.476	18.089	1025.392	790.125
65.490	18.099	1024.406	789.343
66.505	18.054	1023.604	788.445
67.520	18.140	1023.117	788.397
68.534	18.178	1022.071	787.700
69.549	18.163	1021.225	786.907
70.563	18.133	1020.674	786.274
71.578	18.209	1019.880	785.941
72.593	17.920	1019.277	784.080
73.607	17.802	1017.815	782.345
74.622	17.810	1016.968	781.663
75.636	17.944	1015.776	781.289
76.651	17.925	1015.114	780.624
77.666	17.990	1014.649	780.496
78.680	18.013	1014.087	780.100
79.695	18.102	1013.224	779.773
80.709	18.010	1012.725	778.900
81.724	18.249	1012.201	779.518
82.739	18.288	1011.677	779.223
83.753	18.266	1010.962	778.501
84.768	18.567	1010.412	779.376
85.782	18.852	1009.926	780.230
86.797	19.011	1009.490	780.545
87.812	19.080	1008.170	779.768
88.826	18.788	1007.581	777.920
89.841	18.759	1006.700	777.039
90.855	18.805	1005.635	776.357
91.870	18.908	1004.922	776.203
92.884	18.960	1004.474	776.024
93.899	19.043	1003.322	775.439
94.914	18.957	1002.642	774.457
95.928	18.947	1001.995	773.843
96.943	19.036	1001.178	773.545
97.957	18.906	1000.799	772.597
98.972	18.983	998.885	771.399
99.987	18.909	998.819	770.948
101.001	18.916	998.361	770.558
102.016	18.973	996.951	769.654
103.030	18.859	996.572	768.784
104.045	18.759	995.989	767.821
105.060	18.855	994.612	767.120
106.074	18.777	993.569	765.901
107.089	18.610	992.113	763.964
108.103	18.362	991.428	762.264
109.118	18.183	990.472	760.670
110.133	18.153	990.015	760.118
111.147	18.248	988.761	759.510
112.162	18.181	987.922	758.500
113.176	18.173	987.236	757.870
114.191	18.250	986.739	757.763
115.206	18.334	986.140	757.608
116.220	18.355	984.878	756.662
117.235	18.367	983.921	755.914
118.249	18.380	983.054	755.239
119.264	18.187	982.384	753.808
120.279	18.085	981.663	752.739
121.293	18.057	980.938	751.992
122.308	18.038	979.687	750.881
123.322	18.016	978.637	749.913
124.337	17.890	977.526	748.446
125.352	17.907	976.560	747.712
126.366	17.826	975.269	746.307
127.381	17.966	974.466	746.235
128.395	18.077	973.299	745.762
129.410	17.916	972.626	744.479
130.424	17.995	972.149	744.391
131.439	18.085	971.370	744.119
132.454	18.166	970.859	744.014
133.468	18.399	969.871	744.204
134.483	18.337	969.335	743.459
135.497	18.350	968.528	742.830
136.512	18.316	967.849	742.094
137.527	18.363	967.141	741.691
138.541	18.349	966.637	741.180
139.556	18.450	965.737	740.858
140.570	18.458	964.950	740.223
141.585	18.572	964.111	740.009
142.600	18.692	963.930	740.319
143.614	18.781	962.945	739.882
144.629	18.926	962.028	739.738
145.643	18.951	961.654	739.492
146.658	18.812	960.842	738.203
147.673	18.716	959.591	736.766
148.687	18.589	958.686	735.461
149.702	18.491	957.542	734.098
150.716	18.364	956.708	732.850
151.731	18.458	956.016	732.657
152.746	18.321	955.067	731.278
153.760	18.390	954.201	730.845
154.775	18.498	953.427	730.648
155.789	18.509	952.653	730.039
156.804	18.725	951.866	730.289
157.819	18.693	951.367	729.708
158.833	18.570	951.029	728.860
159.848	18.864	950.160	729.379
160.862	18.869	949.892	729.127
161.877	19.100	948.517	728.986
162.892	18.737	947.571	726.660
163.906	18.372	946.825	724.479
164.921	18.356	946.149	723.832
165.935	18.414	944.921	723.073
166.950	18.347	944.383	722.312
167.964	18.629	943.414	722.694
168.979	18.492	942.523	721.375
169.994	18.360	941.376	719.877
171.008	18.488	940.159	719.421
172.023	18.513	939.442	718.911
173.037	18.690	938.856	719.142
174.052	18.938	937.873	719.363
175.067	18.823	937.460	718.500
176.081	18.491	936.669	716.445
177.096	18.458	935.390	715.266
178.110	18.301	934.857	714.138
179.125	18.180	934.686	713.441
180.140	18.461	933.668	713.769
181.154	18.550	932.461	713.157
182.169	18.691	932.000	713.326
183.183	18.733	931.987	713.429
184.198	18.899	931.402	713.606
185.213	18.754	930.550	712.288
186.227	18.918	929.959	712.453
187.242	18.960	929.252	712.022
188.256	18.971	929.186	711.952
189.271	18.882	928.743	711.181
190.286	19.156	927.441	711.254
191.300	18.984	926.520	709.777
192.315	18.577	925.353	707.142
193.329	18.316	924.309	705.208
194.344	18.395	923.654	704.970
195.359	18.347	923.747	704.780
196.373	18.680	922.923	705.458
197.388	18.699	922.679	705.286
198.402	18.839	922.343	705.542
199.417	19.062	921.777	705.965
200.432	19.162	921.992	706.475
201.446	19.205	921.551	706.250
202.461	19.354	920.953	706.340
203.475	19.469	920.372	706.302
204.490	19.318	919.860	705.228
205.504	19.108	918.994	703.648
206.519	19.071	917.744	702.477
207.534	19.130	916.643	701.810
208.548	18.921	916.366	700.686
209.563	19.019	915.686	700.504
210.577	18.918	915.230	699.680
211.592	19.027	914.458	699.473
212.607	19.098	914.189	699.491
213.621	19.367	913.463	699.967
214.636	19.243	912.599	698.740
215.650	19.200	911.973	698.026
216.665	19.233	911.291	697.575
217.680	19.441	910.896	698.051
218.694	19.463	910.835	698.031
219.709	19.409	910.408	697.425
220.723	19.473	909.332	696.796
221.738	19.311	909.214	695.992
222.753	19.348	907.992	695.145
223.767	19.397	907.258	694.717
224.782	19.411	906.228	693.925
225.796	19.577	905.646	694.083
226.811	19.666	905.157	694.005
227.826	19.639	904.518	693.346
228.840	19.426	903.740	691.834
229.855	19.236	902.961	690.416
230.869	19.331	902.539	690.410
231.884	19.398	901.689	689.968
232.899	19.255	901.199	688.959
233.913	19.139	900.570	687.955
234.928	19.106	899.775	687.154
235.942	19.028	898.922	686.132
236.957	19.029	898.004	685.375
237.972	18.930	897.976	684.897
238.986	19.130	896.797	684.735
240.001	19.096	895.888	683.846
241.015	19.049	895.477	683.283
242.030	19.120	895.272	683.347
243.045	19.224	894.598	683.186
244.059	19.383	893.898	683.219
245.074	19.441	893.097	682.778
246.088	19.403	892.649	682.223
247.103	19.378	892.234	681.746
248.117	19.554	891.806	682.054
249.132	19.581	891.624	681.962
250.147	19.906	891.453	683.056
251.161	20.224	890.383	683.430
252.176	20.271	889.723	683.047
253.190	20.268	888.960	682.389
254.205	20.309	888.521	682.152
255.220	20.185	888.404	681.513
256.234	20.194	887.245	680.600
257.249	20.274	886.664	680.406
258.263	20.216	886.063	679.659
259.278	20.326	885.071	679.270
260.293	20.210	884.854	678.587
261.307	20.423	884.393	679.009
262.322	20.431	883.835	678.549
263.336	20.402	883.195	677.886
264.351	20.355	882.892	677.411
265.366	20.538	881.940	677.333
266.380	20.495	881.390	676.685
267.395	20.442	881.025	676.138
268.409	20.344	879.749	674.715
269.424	20.290	879.287	674.094
270.439	20.194	878.535	673.083
271.453	20.205	877.629	672.372
272.468	20.111	877.016	671.481
273.482	20.139	876.081	670.814
274.497	20.019	876.009	670.233
275.512	20.168	874.891	669.893
276.526	20.054	874.194	668.861
277.541	20.139	873.808	668.835
278.555	20.253	872.932	668.545
279.570	20.411	872.768	668.968
280.585	20.555	872.755	669.453
281.599	20.504	872.159	668.741
282.614	20.324	871.128	667.202
283.628	20.345	870.187	666.503
284.643	20.161	870.103	665.671
285.657	20.216	869.610	665.448
286.672	20.362	868.691	665.242
287.687	20.285	868.272	664.570
288.701	20.204	867.890	663.908
289.716	20.291	867.027	663.523
290.730	20.174	866.743	662.799
291.745	20.357	865.870	662.770
292.760	20.396	865.152	662.310
293.774	20.409	864.908	662.117
294.789	20.597	864.507	662.466
295.803	20.753	863.602	662.306
296.818	20.407	863.382	660.765
297.833	20.414	862.315	659.915
298.847	20.420	861.306	659.109
299.862	20.408	860.919	658.707
300.876	20.562	860.255	658.727
301.891	20.431	859.742	657.779
302.906	20.744	859.150	658.453
303.920	20.685	858.582	657.737
304.935	20.803	858.068	657.728
305.949	20.881	857.783	657.745
306.964	20.925	857.055	657.295
307.979	20.703	856.250	655.783
308.993	20.741	855.543	655.327
310.008	20.906	854.853	655.363
311.022	20.759	855.085	654.929
312.037	20.781	854.352	654.391
313.052	20.624	853.849	653.356
314.066	20.545	852.743	652.157
315.081	20.390	851.942	650.908
316.095	20.456	851.209	650.535
317.110	20.446	851.144	650.389
318.125	20.358	850.731	649.691
319.139	20.537	849.610	649.445
320.154	20.385	849.510	648.742
321.168	20.502	848.814	648.592
322.183	20.578	848.049	648.230
323.197	20.404	848.030	647.512
324.212	20.624	847.348	647.752
325.227	20.666	846.772	647.413
326.241	20.717	845.964	646.924
327.256	20.595	845.417	645.998
328.270	20.489	845.041	645.260
329.285	20.506	844.451	644.816
330.300	20.563	843.604	644.323
331.314	20.421	843.421	643.599
332.329	20.452	842.480	642.938
333.343	20.606	842.075	643.144
334.358	20.761	841.656	643.338
335.373	20.854	841.170	643.252
336.387	20.825	840.975	642.940
337.402	20.884	840.285	642.573
338.416	21.032	839.642	642.571
339.431	21.211	838.757	642.494
340.446	21.293	838.520	642.560
341.460	21.307	838.506	642.540
342.475	21.304	837.888	642.000
343.489	21.433	837.357	642.010
344.504	21.509	836.680	641.712
345.519	21.465	836.437	641.310
346.533	21.597	835.653	641.133
347.548	21.539	835.208	640.522
348.562	21.467	834.276	639.488
349.577	21.181	833.654	637.912
350.592	20.971	833.367	636.867
351.606	20.880	832.961	636.168
352.621	20.874	831.985	635.344
353.635	20.935	831.763	635.343
354.650	21.038	831.264	635.282
355.665	21.001	830.908	634.817
356.679	21.204	830.124	634.899
357.694	21.074	830.149	634.392
358.708	21.172	829.412	634.125
359.723	21.104	828.882	633.419
360.738	21.286	828.497	633.730
361.752	21.159	828.102	632.909
362.767	21.253	827.463	632.707
363.781	21.571	827.131	633.546
364.796	21.547	826.869	633.205
365.810	21.609	826.343	632.969
366.825	21.847	825.964	633.481
367.840	21.718	825.797	632.834
368.854	21.838	825.317	632.843
369.869	21.596	824.733	631.465
370.883	21.470	824.237	630.574
371.898	21.554	823.231	630.054
372.913	21.649	822.566	629.829
373.927	21.837	822.032	630.040
374.942	21.648	821.342	628.778
375.956	21.533	821.015	628.060
376.971	21.736	820.502	628.337
377.986	21.913	819.959	628.502
379.000	22.031	819.559	628.562
380.015	22.094	819.079	628.362
381.029	21.941	818.538	627.345
382.044	22.004	817.800	626.951
383.059	22.047	817.099	626.512
384.073	22.057	816.424	625.972
385.088	21.980	815.993	625.312
386.102	21.729	815.622	624.077
387.117	21.619	814.655	622.894
388.132	21.617	814.128	622.428
389.146	21.526	814.054	621.994
390.161	21.663	813.386	621.912
391.175	21.768	813.369	622.218
392.190	21.755	813.307	622.070
393.205	21.938	812.011	621.672
394.219	21.801	811.463	620.713
395.234	21.575	811.375	619.788
396.248	21.525	810.871	619.171
397.263	21.551	809.833	618.417
398.278	21.380	809.671	617.636
399.292	21.415	809.175	617.325
400.307	21.435	808.710	616.988
401.321	21.537	808.213	616.914
402.336	21.554	807.900	616.678
403.350	21.560	807.661	616.464
404.365	21.680	807.260	616.523
405.380	21.909	806.717	616.860
406.394	21.917	806.657	616.787
407.409	22.087	806.102	616.906
408.423	22.088	805.756	616.592
409.438	22.212	805.205	616.550
410.453	22.209	804.976	616.309
411.467	22.292	804.692	616.329
412.482	22.334	804.338	616.150
413.496	22.557	803.412	616.164
414.511	22.549	802.973	615.745
415.526	22.421	802.907	615.192
416.540	22.445	802.655	615.029
417.555	22.336	802.148	614.206
418.569	22.212	801.414	613.159
419.584	22.273	800.827	612.866
420.599	22.297	800.667	612.775
421.613	161.459	1368.478	1793.119
422.628	140.258	1451.222	1793.232
