DTS Sentinel unit serial number:	SN413079Multiplexer serial number:	ORYXHardware model number:	OX4-SRSoftware version number:	ORYX F/W v4.00 Oryx Data Collector v3.7.2.0data status	okinstallation	princeton_trtdifferential loss correction	single-endedforward channel	channel 3reverse channel	N/Adate	2019/09/14time	03:36:34forward acquisition time	60.00reverse acquisition time	0.00gamma	496.2192k internal	0.2339k external	0.2339temperature offset calibration	1.0053default loss term (dB/km)	0.3790temperature slope calibration	1.0000multiplexer offset coefficient	1.0000multiplexer slope coefficient	1.0000fibre end	0.00T internal ref (°C)	26.64T ext. ref 1 (°C)	3.29T ext. ref 2 (°C)	21.59length (m)	temperature (°C)	Stokes	anti-Stokes-747.200	666.533	0.088	-0.228
-746.185	-31.921	-0.292	-0.164
-745.171	800.000	0.057	0.164
-744.156	-54.443	0.105	0.048
-743.142	113.991	0.201	0.245
-742.127	166.491	-0.203	0.289
-741.112	-200.000	-0.038	0.307
-740.098	-5.238	0.182	0.125
-739.083	-37.792	0.080	0.043
-738.069	-200.000	0.026	0.150
-737.054	65.918	-0.200	0.203
-736.039	-156.255	-0.397	0.025
-735.025	486.933	-0.076	0.174
-734.010	146.151	0.123	-0.166
-732.996	800.000	0.169	-0.568
-731.981	-5.953	-0.411	-0.282
-730.966	50.734	0.362	-0.344
-729.952	73.178	-0.085	-0.089
-728.937	199.996	0.113	-0.173
-727.923	395.149	-0.065	-0.135
-726.908	40.976	-0.286	-0.259
-725.894	131.147	0.166	-0.214
-724.879	-128.279	-0.190	-0.027
-723.864	-117.784	-0.225	0.040
-722.850	-200.000	0.002	-0.063
-721.835	-200.000	0.005	0.196
-720.821	800.000	0.059	-0.181
-719.806	-172.687	0.159	0.005
-718.791	-200.000	0.066	-0.470
-717.777	78.139	0.055	-0.059
-716.762	470.507	0.154	-0.346
-715.748	49.031	0.148	0.139
-714.733	-36.074	-0.131	0.071
-713.718	-59.472	0.298	-0.128
-712.704	427.707	-0.143	-0.309
-711.689	-200.000	-0.061	0.293
-710.675	-200.000	-0.000	-0.187
-709.660	-150.739	-0.144	0.011
-708.645	800.000	0.076	0.277
-707.631	-135.551	-0.134	0.016
-706.616	208.493	0.151	0.237
-705.602	58.725	0.161	-0.159
-704.587	264.390	-0.150	-0.261
-703.572	-2.695	0.159	-0.112
-702.558	287.920	0.123	0.223
-701.543	135.474	0.057	0.074
-700.529	800.000	0.045	-0.140
-699.514	-144.156	0.219	-0.020
-698.499	146.740	0.097	-0.130
-697.485	-98.449	0.259	0.066
-696.470	-60.278	0.189	0.081
-695.456	1.121	-0.168	-0.120
-694.441	-32.404	-0.087	0.049
-693.426	-106.906	-0.260	0.058
-692.412	-200.000	0.019	0.169
-691.397	-200.000	0.030	0.306
-690.383	39.770	-0.066	-0.059
-689.368	452.906	-0.067	-0.149
-688.354	-173.816	-0.110	0.003
-687.339	430.996	-0.105	-0.227
-686.324	89.777	0.067	0.075
-685.310	800.000	0.042	-0.175
-684.295	-23.517	-0.182	0.110
-683.281	-11.282	0.291	0.192
-682.266	-200.000	-0.020	-0.315
-681.251	-200.000	0.055	-0.382
-680.237	293.619	-0.021	0.038
-679.222	38.243	0.301	-0.268
-678.208	22.339	0.084	0.068
-677.193	-37.850	-0.333	0.177
-676.178	-115.181	-0.430	0.081
-675.164	221.344	-0.236	-0.379
-674.149	-23.688	0.138	0.083
-673.135	644.713	-0.082	0.210
-672.120	-43.457	0.169	-0.085
-671.105	-200.000	0.031	-0.142
-670.091	38.772	0.140	-0.125
-669.076	65.801	-0.138	-0.140
-668.062	30.108	-0.184	0.157
-667.047	222.000	0.117	0.187
-666.032	81.214	0.043	0.046
-665.018	-200.000	0.007	-0.072
-664.003	-200.000	-0.059	-0.264
-662.989	-57.578	0.252	0.110
-661.974	-200.000	0.023	-0.261
-660.959	-107.640	-0.254	0.055
-659.945	-115.240	-0.223	-0.042
-658.930	-200.000	0.406	-0.001
-657.916	-56.618	0.096	0.042
-656.901	-46.531	-0.068	0.033
-655.886	490.327	0.060	-0.136
-654.872	163.014	-0.241	-0.338
-653.857	545.994	-0.092	-0.219
-652.843	-169.307	-0.198	-0.007
-651.828	99.237	0.243	-0.281
-650.814	101.749	0.065	0.076
-649.799	34.494	-0.190	0.166
-648.784	175.545	-0.216	0.314
-647.770	310.485	0.132	-0.247
-646.755	-86.921	0.056	-0.017
-645.741	-115.234	-0.199	-0.038
-644.726	-34.730	0.219	-0.120
-643.711	289.274	-0.044	0.080
-642.697	158.504	0.037	0.051
-641.682	-91.526	-0.280	-0.080
-640.668	-107.989	-0.093	0.020
-639.653	391.615	0.099	0.206
-638.638	134.606	0.092	0.119
-637.624	-37.383	0.160	-0.085
-636.609	641.846	-0.221	-0.562
-635.595	-86.715	-0.045	-0.014
-634.580	39.936	-0.143	-0.128
-633.565	43.335	-0.021	-0.019
-632.551	800.000	0.052	-0.223
-631.536	-40.647	-0.082	-0.043
-630.522	-125.961	-0.191	0.029
-629.507	36.584	-0.131	-0.115
-628.492	800.000	-0.071	-0.241
-627.478	-16.386	0.123	0.078
-626.463	-169.251	0.265	0.010
-625.449	211.905	-0.108	0.171
-624.434	800.000	-0.020	-0.070
-623.419	-101.354	0.280	-0.068
-622.405	-200.000	-0.048	-0.323
-621.390	9.073	-0.136	-0.103
-620.376	-200.000	-0.035	-0.233
-619.361	-129.729	0.214	-0.029
-618.346	57.507	0.308	-0.300
-617.332	-200.000	0.059	-0.286
-616.317	-200.000	0.019	-0.217
-615.303	475.308	0.135	-0.303
-614.288	121.491	0.125	-0.156
-613.273	46.964	0.191	-0.178
-612.259	118.396	-0.206	0.254
-611.244	558.792	-0.158	0.381
-610.230	-121.268	-0.462	-0.077
-609.215	-179.132	0.133	0.003
-608.201	-126.463	0.121	-0.018
-607.186	-96.153	0.209	-0.055
-606.171	-111.786	-0.040	0.008
-605.157	-103.072	0.125	-0.030
-604.142	-69.097	0.145	0.056
-603.128	-2.585	0.108	0.075
-602.113	112.023	0.064	-0.077
-601.098	17.749	-0.109	0.086
-600.084	-147.669	-0.139	0.012
-599.069	709.854	0.057	0.150
-598.055	91.857	-0.256	0.288
-597.040	-84.511	-0.193	-0.061
-596.025	-200.000	0.002	-0.231
-595.011	-200.000	-0.064	-0.280
-593.996	800.000	-0.052	0.153
-592.982	800.000	0.073	0.255
-591.967	-33.057	-0.177	-0.098
-590.952	506.307	-0.135	0.311
-589.938	-161.028	-0.011	0.001
-588.923	-200.000	-0.037	0.185
-587.909	150.098	-0.039	-0.052
-586.894	-200.000	0.116	-0.522
-585.879	41.088	-0.278	-0.250
-584.865	-88.227	-0.027	-0.008
-583.850	52.520	-0.154	-0.147
-582.836	-163.878	0.236	0.011
-581.821	98.303	0.172	-0.197
-580.806	-200.000	0.037	0.238
-579.792	-104.230	0.119	-0.028
-578.777	31.974	-0.179	0.153
-577.763	52.084	0.134	-0.127
-576.748	-115.955	0.228	0.042
-575.733	-200.000	0.176	-0.001
-574.719	39.367	-0.132	0.118
-573.704	231.836	0.091	0.149
-572.690	397.224	-0.139	-0.290
-571.675	-107.634	0.221	-0.048
-570.661	253.387	-0.106	-0.180
-569.646	47.574	-0.150	0.139
-568.631	167.776	0.038	0.054
-567.617	-200.000	0.001	-0.138
-566.602	-77.362	0.109	0.038
-565.588	-200.000	-0.032	-0.361
-564.573	93.012	-0.053	0.060
-563.558	19.250	-0.430	0.344
-562.544	265.568	0.102	0.177
-561.529	395.205	-0.070	-0.146
-560.515	-200.000	0.010	0.058
-559.500	254.224	-0.136	0.232
-558.485	110.251	0.257	0.308
-557.471	-50.952	0.232	-0.109
-556.456	-200.000	-0.003	0.376
-555.442	-73.815	-0.359	-0.130
-554.427	-163.771	0.390	-0.018
-553.412	2.498	0.152	-0.110
-552.398	800.000	-0.061	0.181
-551.383	-65.730	0.081	0.032
-550.369	-50.074	-0.168	-0.079
-549.354	-60.980	0.157	0.066
-548.339	18.397	-0.277	0.221
-547.325	781.592	0.072	-0.196
-546.310	-200.000	-0.021	0.148
-545.296	474.718	0.117	-0.262
-544.281	63.494	-0.140	-0.140
-543.266	-71.779	0.266	-0.099
-542.252	-200.000	0.043	-0.239
-541.237	-1.284	0.129	-0.091
-540.223	-185.930	0.362	-0.005
-539.208	613.290	-0.055	-0.137
-538.193	-64.695	0.163	0.066
-537.179	-182.737	0.130	0.002
-536.164	-84.924	-0.181	-0.057
-535.150	-48.467	-0.172	0.082
-534.135	-129.045	-0.232	0.032
-533.121	291.903	-0.107	-0.195
-532.106	-3.700	0.156	-0.108
-531.091	302.754	-0.110	0.202
-530.077	603.635	-0.142	0.351
-529.062	-125.776	-0.012	0.002
-528.048	-149.175	0.244	-0.019
-527.033	-57.926	0.102	-0.044
-526.018	-200.000	0.021	0.218
-525.004	118.025	0.026	0.032
-523.989	-40.844	-0.150	-0.077
-522.975	168.919	0.009	-0.013
-521.960	-53.482	-0.252	-0.115
-520.945	-91.467	0.109	0.031
-519.931	6.074	-0.239	-0.176
-518.916	347.851	-0.097	-0.191
-517.902	-200.000	-0.027	-0.250
-516.887	-117.166	0.309	-0.056
-515.872	34.547	-0.252	0.218
-514.858	-157.849	-0.167	-0.010
-513.843	83.700	0.301	-0.326
-512.829	-57.466	-0.398	-0.174
-511.814	573.406	0.162	-0.392
-510.799	751.787	-0.035	0.094
-509.785	-200.000	-0.014	-0.206
-508.770	-200.000	0.017	-0.312
-507.756	-123.569	0.411	0.065
-506.741	231.012	-0.094	-0.153
-505.726	58.718	-0.182	0.178
-504.712	-86.323	-0.143	-0.044
-503.697	709.879	0.146	-0.383
-502.683	354.989	-0.028	-0.056
-501.668	-108.515	-0.334	0.071
-500.653	-73.727	-0.107	-0.039
-499.639	-200.000	0.020	-0.182
-498.624	440.161	0.111	0.242
-497.610	-130.145	-0.232	0.031
-496.595	162.722	-0.052	0.072
-495.581	-200.000	0.040	-0.452
-494.566	800.000	-0.054	0.152
-493.551	-75.207	0.347	-0.123
-492.537	122.450	-0.080	-0.099
-491.522	-135.814	0.440	-0.052
-490.508	800.000	-0.081	-0.237
-489.493	350.779	-0.177	0.348
-488.478	155.702	-0.076	0.104
-487.464	800.000	0.012	-0.039
-486.449	-26.904	-0.054	0.031
-485.435	-200.000	-0.014	-0.076
-484.420	22.882	-0.247	0.201
-483.405	149.351	-0.082	-0.110
-482.391	39.163	0.430	-0.382
-481.376	800.000	0.021	0.083
-480.362	28.796	0.062	-0.052
-479.347	163.550	-0.083	0.115
-478.332	800.000	-0.048	0.188
-477.318	295.333	-0.022	0.040
-476.303	-39.200	0.151	-0.079
-475.289	-200.000	0.008	-0.079
-474.274	85.174	-0.171	-0.187
-473.259	-38.970	-0.069	0.036
-472.245	-21.008	0.100	0.061
-471.230	483.216	-0.150	-0.337
-470.216	3.499	-0.227	0.164
-469.201	133.419	0.284	0.364
-468.186	-200.000	-0.017	0.210
-467.172	382.385	0.098	-0.200
-466.157	-114.391	0.257	0.049
-465.143	14.093	-0.256	0.198
-464.128	362.239	0.106	0.212
-463.113	441.403	0.095	0.206
-462.099	-74.741	0.211	-0.075
-461.084	800.000	0.061	-0.195
-460.070	385.315	0.092	0.189
-459.055	-200.000	0.005	0.029
-458.040	-72.884	0.304	0.111
-457.026	-13.048	-0.321	-0.207
-456.011	601.709	-0.138	-0.340
-454.997	264.685	0.046	-0.080
-453.982	58.300	0.209	0.204
-452.968	-70.354	0.201	0.076
-451.953	15.578	-0.074	0.057
-450.938	-92.414	-0.103	-0.029
-449.924	-173.654	-0.169	0.005
-448.909	104.993	0.144	-0.169
-447.895	-97.090	0.417	0.108
-446.880	-88.136	0.075	-0.022
-445.865	-86.031	0.220	-0.067
-444.851	-134.643	-0.382	0.046
-443.836	42.441	0.307	0.277
-442.822	-9.078	0.177	0.118
-441.807	118.500	-0.083	-0.101
-440.792	800.000	0.139	-0.418
-439.778	16.293	-0.273	0.214
-438.763	-27.644	-0.135	0.077
-437.749	-79.169	0.162	-0.055
-436.734	-200.000	-0.038	-0.166
-435.719	7.318	-0.302	-0.224
-434.705	-200.000	-0.009	0.145
-433.690	-121.537	0.426	-0.070
-432.676	96.443	0.016	0.018
-431.661	800.000	0.077	-0.253
-430.646	-79.445	-0.164	-0.055
-429.632	142.482	0.143	0.189
-428.617	-43.094	-0.260	-0.130
-427.603	206.062	0.184	-0.283
-426.588	109.519	-0.225	0.267
-425.573	294.504	-0.169	-0.307
-424.559	91.920	0.061	-0.068
-423.544	800.000	-0.106	0.379
-422.530	-200.000	0.021	0.268
-421.515	11.236	-0.119	0.090
-420.500	-17.479	-0.157	0.098
-419.486	184.320	0.142	-0.209
-418.471	-200.000	-0.068	-0.432
-417.457	50.242	-0.178	-0.166
-416.442	30.624	0.053	0.045
-415.428	-200.000	0.008	-0.085
-414.413	-20.251	0.196	0.120
-413.398	-132.891	-0.271	0.034
-412.384	-30.355	0.469	-0.263
-411.369	800.000	0.060	0.259
-410.355	-38.160	0.130	-0.068
-409.340	800.000	-0.139	0.445
-408.325	181.806	0.041	-0.060
-407.311	-126.566	-0.401	0.059
-406.296	-38.614	0.211	0.110
-405.282	128.488	-0.123	0.155
-404.267	800.000	0.025	0.075
-403.252	17.654	-0.151	-0.119
-402.238	-200.000	0.021	0.245
-401.223	-10.713	-0.183	0.120
-400.209	800.000	-0.048	-0.141
-399.194	-42.320	0.180	-0.091
-398.179	800.000	-0.066	0.260
-397.165	-200.000	0.005	-0.118
-396.150	309.239	0.085	0.158
-395.136	100.979	0.122	0.140
-394.121	-32.409	0.209	0.115
-393.106	134.424	0.117	0.151
-392.092	-102.644	0.367	0.087
-391.077	67.042	-0.062	0.062
-390.063	800.000	0.050	0.152
-389.048	34.020	0.059	0.051
-388.033	-83.584	-0.099	0.031
-387.019	-200.000	-0.045	0.266
-386.004	800.000	0.082	0.261
-384.990	106.130	-0.102	-0.119
-383.975	-23.505	-0.107	0.063
-382.960	800.000	-0.050	0.163
-381.946	-200.000	0.039	0.216
-380.931	289.311	0.038	-0.068
-379.917	-104.532	-0.356	0.081
-378.902	-57.263	-0.239	-0.104
-377.888	-21.019	-0.316	0.192
-376.873	426.940	-0.038	-0.082
-375.858	226.267	0.094	-0.151
-374.844	34.509	0.143	-0.123
-373.829	-109.119	-0.211	-0.044
-372.815	102.037	0.157	-0.182
-371.800	704.406	0.060	0.156
-370.785	800.000	0.026	0.108
-369.771	-6.540	0.284	-0.191
-368.756	-87.406	-0.040	0.012
-367.742	-110.671	-0.187	0.038
-366.727	441.315	-0.086	0.185
-365.712	-16.861	0.036	-0.023
-364.698	-153.978	0.009	-0.001
-363.683	-200.000	0.032	-0.239
-362.669	478.064	-0.058	-0.131
-361.654	-200.000	0.015	0.065
-360.639	350.165	0.106	0.207
-359.625	-45.348	0.449	0.220
-358.610	-200.000	0.006	0.364
-357.596	632.659	-0.051	0.127
-356.581	-154.096	-0.201	0.013
-355.566	544.234	-0.013	-0.031
-354.552	-62.840	-0.041	-0.017
-353.537	-108.445	-0.394	0.084
-352.523	-200.000	0.306	0.000
-351.508	12.388	-0.096	-0.073
-350.493	-200.000	-0.049	0.312
-349.479	-8.855	-0.282	0.187
-348.464	-75.960	-0.378	-0.132
-347.450	150.665	0.048	-0.065
-346.435	-194.797	0.158	-0.001
-345.420	-200.000	0.004	0.051
-344.406	-94.698	0.309	0.083
-343.391	9.796	-0.067	-0.050
-342.377	800.000	0.044	-0.156
-341.362	800.000	-0.051	0.183
-340.348	-200.000	-0.006	0.144
-339.333	675.850	-0.051	-0.130
-338.318	47.294	-0.217	0.199
-337.304	-92.359	0.107	-0.030
-336.289	800.000	0.062	-0.186
-335.275	10.722	-0.230	0.173
-334.260	-200.000	0.009	0.123
-333.245	171.152	-0.123	0.174
-332.231	-19.946	-0.313	-0.190
-331.216	-78.861	-0.622	0.209
-330.202	76.905	-0.168	0.176
-329.187	-130.178	0.190	-0.026
-328.172	-200.000	-0.016	-0.195
-327.158	-82.423	0.357	0.114
-326.143	232.496	-0.099	0.160
-325.129	800.000	-0.038	0.165
-324.114	-110.130	-0.091	0.019
-323.099	197.807	-0.222	-0.334
-322.085	779.899	0.098	-0.264
-321.070	221.122	-0.095	-0.150
-320.056	-152.963	0.372	0.026
-319.041	137.318	-0.152	-0.196
-318.026	105.660	0.063	0.073
-317.012	164.311	-0.095	0.132
-315.997	-200.000	-0.014	0.254
-314.983	-50.612	0.226	-0.105
-313.968	-200.000	0.007	0.244
-312.953	-200.000	-0.013	-0.112
-311.939	124.641	0.177	-0.220
-310.924	-125.394	-0.356	0.054
-309.910	59.421	0.179	0.174
-308.895	800.000	-0.050	-0.182
-307.880	116.199	0.104	-0.126
-306.866	225.573	-0.050	0.080
-305.851	10.444	0.084	0.063
-304.837	34.907	-0.272	0.234
-303.822	-3.229	0.087	-0.060
-302.807	566.595	-0.079	0.190
-301.793	35.134	-0.193	-0.167
-300.778	699.892	0.146	0.380
-299.764	-46.005	-0.154	-0.075
-298.749	-200.000	-0.009	0.355
-297.735	0.235	0.103	-0.073
-296.720	121.095	0.334	0.410
-295.705	-200.000	-0.030	0.312
-294.691	24.377	-0.067	-0.054
-293.676	-200.000	-0.005	0.172
-292.662	-200.000	-0.031	0.234
-291.647	-53.704	-0.212	-0.096
-290.632	-97.500	0.026	0.007
-289.618	800.000	-0.015	-0.049
-288.603	-197.538	0.315	-0.002
-287.589	-7.199	-0.185	-0.124
-286.574	-44.891	0.230	0.113
-285.559	-177.233	0.084	0.002
-284.545	59.445	-0.073	-0.071
-283.530	116.155	-0.130	0.157
-282.516	-94.382	0.074	-0.020
-281.501	85.390	0.178	0.193
-280.486	-26.236	0.478	-0.276
-279.472	-135.768	-0.105	0.012
-278.457	57.065	0.120	-0.115
-277.443	800.000	-0.047	-0.177
-276.428	23.208	0.257	0.208
-275.413	-10.921	0.173	0.113
-274.399	-63.471	-0.096	-0.039
-273.384	-200.000	0.000	0.227
-272.370	10.809	0.179	-0.135
-271.355	-151.809	0.144	-0.010
-270.340	-200.000	-0.038	-0.179
-269.326	223.604	0.112	-0.178
-268.311	123.581	0.133	-0.164
-267.297	800.000	0.094	-0.335
-266.282	205.349	-0.072	0.110
-265.267	71.063	-0.090	0.092
-264.253	-62.428	-0.279	-0.114
-263.238	-54.111	0.130	0.058
-262.224	283.018	0.130	-0.230
-261.209	410.406	-0.106	-0.222
-260.195	155.607	0.083	0.113
-259.180	-58.426	0.152	0.065
-258.165	71.417	-0.081	0.083
-257.151	20.540	-0.110	0.088
-256.136	800.000	0.029	0.086
-255.122	134.041	-0.091	0.117
-254.107	-15.521	-0.061	-0.038
-253.092	14.039	-0.111	0.085
-252.078	671.987	-0.096	0.244
-251.063	-64.635	0.179	0.071
-250.049	-40.237	0.124	0.063
-249.034	111.481	-0.122	-0.145
-248.019	778.668	-0.172	-0.462
-247.005	-200.000	0.029	-0.198
-245.990	-200.000	-0.013	0.268
-244.976	-2.532	0.056	-0.039
-243.961	-200.000	-0.093	0.405
-242.946	-105.839	0.105	0.023
-241.932	-37.825	-0.220	0.115
-240.917	46.697	0.265	0.242
-239.903	-32.690	0.320	-0.175
-238.888	150.760	-0.030	-0.041
-237.873	-188.195	-0.036	0.000
-236.859	0.403	0.263	0.185
-235.844	-200.000	0.056	0.253
-234.830	-200.000	-0.009	0.197
-233.815	-24.670	-0.438	-0.256
-232.800	-131.668	-0.198	-0.026
-231.786	800.000	-0.095	-0.279
-230.771	-82.039	0.567	0.182
-229.757	430.585	0.058	-0.124
-228.742	-21.837	0.256	0.153
-227.727	-40.267	0.226	-0.116
-226.713	565.771	0.049	-0.117
-225.698	-163.838	0.329	-0.015
-224.684	-135.993	-0.113	0.013
-223.669	-125.663	-0.271	-0.040
-222.655	228.790	0.095	0.153
-221.640	42.051	-0.092	0.082
-220.625	277.175	-0.050	-0.088
-219.611	-200.000	-0.074	-0.470
-218.596	81.834	0.058	0.062
-217.582	203.302	0.239	-0.363
-216.567	-200.000	-0.092	0.447
-215.552	494.685	-0.119	-0.267
-214.538	-78.307	0.173	0.058
-213.523	-114.620	0.201	-0.038
-212.509	-170.154	-0.310	0.011
-211.494	-20.274	0.302	0.183
-210.479	15.367	-0.095	-0.073
-209.465	-83.619	0.237	0.074
-208.450	447.170	-0.118	0.254
-207.436	153.707	-0.205	-0.276
-206.421	-71.389	-0.120	0.044
-205.406	680.060	-0.077	0.196
-204.392	-177.534	0.249	-0.006
-203.377	800.000	-0.029	0.082
-202.363	-83.994	-0.351	-0.110
-201.348	70.960	-0.109	-0.111
-200.333	-169.005	-0.331	0.012
-199.319	-200.000	0.013	0.231
-198.304	588.768	-0.079	0.190
-197.290	-10.597	-0.205	0.133
-196.275	644.762	0.018	-0.046
-195.260	-61.267	0.193	0.080
-194.246	7.116	-0.128	0.094
-193.231	-70.611	0.395	-0.147
-192.217	-95.421	-0.224	0.059
-191.202	29.371	-0.243	-0.203
-190.187	-38.807	0.122	-0.063
-189.173	297.028	0.089	-0.160
-188.158	28.697	-0.098	0.081
-187.144	800.000	-0.045	-0.156
-186.129	162.214	-0.091	-0.125
-185.114	800.000	0.092	0.256
-184.100	200.551	0.223	-0.336
-183.085	-200.000	-0.014	-0.284
-182.071	-200.000	-0.034	0.376
-181.056	3.878	0.109	0.078
-180.042	-62.598	0.297	-0.121
-179.027	595.738	0.055	-0.135
-178.012	-88.065	0.144	-0.042
-176.998	-77.994	-0.143	0.048
-175.983	-45.541	-0.199	0.097
-174.969	-85.970	-0.056	0.017
-173.954	-0.443	0.137	-0.096
-172.939	24.600	0.057	0.046
-171.925	354.281	-0.070	0.136
-170.910	-200.000	0.040	-0.195
-169.896	188.566	-0.056	0.082
-168.881	391.836	0.033	0.067
-167.866	-34.794	0.258	0.138
-166.852	800.000	0.085	-0.267
-165.837	-131.801	-0.114	0.015
-164.823	-134.818	-0.267	-0.032
-163.808	459.682	-0.053	-0.116
-162.793	99.579	-0.128	-0.146
-161.779	-200.000	0.024	0.321
-160.764	95.301	0.114	-0.127
-159.750	101.174	0.030	-0.034
-158.735	-59.106	-0.337	0.142
-157.720	800.000	-0.057	-0.199
-156.706	171.092	-0.204	-0.287
-155.691	-123.127	-0.176	-0.028
-154.677	800.000	0.054	0.219
-153.662	12.787	0.082	0.062
-152.647	4.975	-0.213	0.154
-151.633	-174.247	0.366	-0.010
-150.618	800.000	-0.033	0.105
-149.604	74.622	-0.069	0.071
-148.589	-120.236	0.201	0.034
-147.574	147.535	-0.161	0.212
-146.560	-48.110	0.239	0.113
-145.545	-200.000	-0.001	0.317
-144.531	-200.000	0.087	-0.402
-143.516	-183.355	0.019	-0.000
-142.502	800.000	0.052	-0.177
-141.487	-55.925	-0.099	0.043
-140.472	62.757	0.066	-0.064
-139.458	182.317	0.035	0.050
-138.443	-53.774	-0.108	-0.048
-137.429	-102.782	0.200	-0.047
-136.414	15.843	-0.184	-0.142
-135.399	383.455	0.108	0.219
-134.385	202.032	0.131	0.198
-133.370	469.133	0.030	-0.065
-132.356	2.912	0.224	0.159
-131.341	10.780	-0.034	-0.025
-130.326	-12.513	0.242	0.155
-129.312	320.200	-0.033	-0.062
-128.297	231.281	0.157	0.252
-127.283	-36.980	0.253	-0.133
-126.268	-1.791	-0.164	0.113
-125.253	339.918	-0.074	0.141
-124.239	98.336	0.191	-0.216
-123.224	333.258	-0.102	0.193
-122.210	-200.000	-0.026	-0.111
-121.195	68.606	0.056	-0.056
-120.180	-63.235	-0.048	-0.019
-119.166	166.772	0.123	-0.171
-118.151	148.790	0.114	-0.151
-117.137	-67.846	0.236	-0.090
-116.122	-44.982	-0.019	-0.009
-115.107	126.803	0.053	0.065
-114.093	-200.000	-0.035	-0.166
-113.078	-20.505	0.228	0.137
-112.064	-101.561	-0.196	-0.047
-111.049	-26.737	0.159	0.091
-110.034	-77.183	-0.112	0.038
-109.020	-200.000	-0.021	0.142
-108.005	-23.406	0.371	-0.218
-106.991	-200.000	0.012	0.112
-105.976	143.326	-0.152	-0.199
-104.962	209.260	-0.265	-0.406
-103.947	190.082	0.025	-0.037
-102.932	800.000	0.068	0.233
-101.918	-188.592	0.196	0.002
-100.903	-152.801	-0.411	-0.029
-99.889	-12.646	0.232	0.148
-98.874	35.493	0.126	-0.108
-97.859	-101.773	0.375	0.089
-96.845	800.000	0.023	-0.091
-95.830	83.810	-0.172	-0.183
-94.816	20.250	0.200	0.158
-93.801	-118.403	0.185	0.032
-92.786	47.360	-0.059	0.054
-91.772	248.676	0.165	0.273
-90.757	173.176	0.162	0.228
-89.743	-44.255	0.104	0.051
-88.728	-94.362	0.252	0.067
-87.713	217.497	0.096	0.150
-86.699	-161.364	0.090	0.005
-85.684	-38.963	-0.215	-0.111
-84.670	-55.150	0.426	-0.187
-83.655	-78.007	-0.196	0.066
-82.640	-64.254	-0.028	-0.011
-81.626	-182.209	0.106	0.002
-80.611	-154.704	0.185	0.012
-79.597	-92.991	0.219	0.060
-78.582	800.000	-0.049	-0.137
-77.567	-120.519	0.093	-0.015
-76.553	541.000	-0.094	0.219
-75.538	-121.737	0.241	0.039
-74.524	800.000	0.162	-0.452
-73.509	182.866	-0.079	0.114
-72.494	-200.000	0.010	-0.110
-71.480	0.592	0.097	-0.068
-70.465	-200.000	-0.013	0.111
-69.451	-6.823	0.075	0.050
-68.436	-74.193	-0.250	0.089
-67.422	800.000	-0.083	0.295
-66.407	-137.252	-0.494	-0.055
-65.392	-92.824	-0.160	0.044
-64.378	-200.000	-0.010	0.058
-63.363	-56.081	-0.231	0.101
-62.349	22.511	-0.071	-0.057
-61.334	64.074	-1.377	-1.353
-60.319	113.851	0.498	0.591
-59.305	312.242	-0.424	-0.777
-58.290	237.739	0.630	1.021
-57.276	501.624	0.663	1.495
-56.261	-200.000	116.323	649.195
-55.246	514.484	1538.962	3506.834
-54.232	175.974	2711.219	3842.472
-53.217	106.152	2179.295	2520.091
-52.203	37.426	1695.901	1468.110
-51.188	29.726	1511.591	1256.417
-50.173	27.616	1486.487	1221.382
-49.159	50.573	1546.786	1428.620
-48.144	49.027	1561.620	1431.691
-47.130	29.919	1516.751	1261.824
-46.115	26.830	1501.787	1228.438
-45.100	26.688	1498.117	1224.427
-44.086	26.711	1496.026	1222.821
-43.071	26.664	1494.232	1220.989
-42.057	26.582	1492.672	1219.119
-41.042	26.541	1491.978	1218.223
-40.027	26.552	1490.208	1216.803
-39.013	26.546	1488.471	1215.301
-37.998	26.555	1487.483	1214.501
-36.984	26.580	1486.404	1213.741
-35.969	26.587	1484.914	1212.528
-34.954	26.675	1482.930	1211.445
-33.940	26.624	1481.863	1210.188
-32.925	26.654	1480.221	1208.997
-31.911	26.655	1479.442	1208.318
-30.896	26.698	1478.181	1207.529
-29.881	26.730	1476.713	1206.490
-28.867	26.676	1475.649	1205.214
-27.852	26.764	1474.027	1204.428
-26.838	26.692	1473.087	1203.137
-25.823	26.613	1471.528	1201.291
-24.809	26.766	1469.669	1200.738
-23.794	26.699	1468.486	1199.283
-22.779	26.638	1467.671	1198.166
-21.765	26.697	1465.944	1197.098
-20.750	26.702	1465.073	1196.372
-19.736	26.666	1463.765	1195.014
-18.721	26.614	1463.001	1194.002
-17.706	26.655	1461.423	1192.937
-16.692	26.636	1460.608	1192.099
-15.677	26.668	1459.551	1191.401
-14.663	26.709	1458.633	1190.873
-13.648	26.548	1457.877	1189.155
-12.633	26.526	1457.009	1188.251
-11.619	26.637	1455.841	1187.980
-10.604	26.585	1455.474	1187.295
-9.590	26.552	1454.482	1186.223
-8.575	26.582	1453.696	1185.729
-7.560	26.722	1452.355	1185.507
-6.546	26.673	1451.923	1184.785
-5.531	26.688	1450.727	1183.861
-4.517	26.529	1449.738	1181.967
-3.502	26.656	1448.513	1181.749
-2.487	26.640	1448.176	1181.324
-1.473	26.596	1446.968	1180.002
-0.458	26.619	1445.617	1179.005
0.556	26.888	1435.596	1168.101
1.571	23.910	1410.934	1129.058
2.586	20.440	1350.515	1059.489
3.600	18.931	1267.589	985.697
4.615	17.796	1222.723	944.445
5.629	15.341	1166.969	888.316
6.644	8.856	1085.372	794.088
7.659	3.767	1049.239	743.159
8.673	3.328	1043.682	737.058
9.688	3.271	1040.524	734.493
10.702	3.273	1038.908	733.295
11.717	3.278	1037.177	732.033
12.731	5.073	1038.344	741.329
13.746	11.713	1047.311	779.401
14.761	17.815	1055.373	814.550
15.775	19.605	1056.479	823.880
16.790	19.147	1055.086	820.536
17.804	18.201	1052.773	814.167
18.819	17.238	1051.456	808.496
19.834	16.780	1050.165	805.257
20.848	16.718	1049.264	804.197
21.863	16.483	1048.850	802.697
22.877	16.314	1047.893	801.091
23.892	16.139	1047.140	799.614
24.907	16.101	1046.219	798.658
25.921	15.973	1045.729	797.609
26.936	16.035	1044.846	797.160
27.950	16.134	1043.615	796.615
28.965	16.037	1042.445	795.194
29.980	16.235	1041.266	795.156
30.994	16.255	1040.258	794.412
32.009	16.414	1039.690	794.653
33.023	16.405	1039.071	794.069
34.038	16.472	1037.847	793.381
35.053	16.359	1036.603	791.830
36.067	16.231	1035.854	790.585
37.082	16.207	1034.636	789.476
38.096	16.206	1034.238	789.097
39.111	16.353	1033.491	789.144
40.126	16.337	1033.162	788.748
41.140	16.303	1031.610	787.333
42.155	16.062	1030.558	785.340
43.169	16.109	1029.201	784.454
44.184	16.000	1028.539	783.373
45.199	16.017	1027.408	782.522
46.213	15.970	1026.129	781.263
47.228	16.023	1025.252	780.770
48.242	16.149	1024.546	780.747
49.257	16.191	1024.025	780.475
50.271	16.272	1022.944	779.954
51.286	16.164	1021.848	778.553
52.301	16.159	1021.467	778.171
53.315	16.203	1020.334	777.439
54.330	16.321	1019.110	776.984
55.344	16.027	1018.755	775.290
56.359	16.164	1016.892	774.434
57.374	16.075	1016.271	773.482
58.388	16.072	1015.462	772.784
59.403	16.015	1014.453	771.690
60.417	15.881	1013.893	770.580
61.432	15.895	1013.205	770.052
62.447	16.036	1012.517	770.107
63.461	15.868	1011.683	768.638
64.476	15.805	1010.706	767.539
65.490	15.794	1010.082	766.947
66.505	15.930	1008.913	766.614
67.520	15.859	1008.264	765.726
68.534	15.940	1007.361	765.343
69.549	15.826	1006.751	764.295
70.563	15.845	1006.384	764.035
71.578	15.858	1005.522	763.372
72.593	15.750	1004.297	761.883
73.607	15.705	1003.354	760.896
74.622	15.700	1002.228	759.956
75.636	15.688	1001.774	759.489
76.651	15.795	1000.831	759.190
77.666	15.762	999.924	758.283
78.680	15.768	999.093	757.615
79.695	15.767	998.845	757.356
80.709	15.885	997.886	757.089
81.724	15.895	997.111	756.480
82.739	16.004	996.836	756.695
83.753	16.156	995.588	756.362
84.768	16.004	995.889	755.841
85.782	16.346	994.830	756.504
86.797	16.483	993.493	756.034
87.812	16.380	993.445	755.469
88.826	16.194	992.433	753.802
89.841	16.085	991.905	752.846
90.855	16.273	990.569	752.605
91.870	16.358	990.107	752.564
92.884	16.466	989.128	752.237
93.899	16.505	988.509	751.872
94.914	16.438	987.916	751.056
95.928	16.412	987.415	750.492
96.943	16.502	986.600	750.210
97.957	16.361	985.789	748.900
98.972	16.404	984.645	748.156
99.987	16.277	984.043	747.067
101.001	16.223	983.826	746.601
102.016	16.413	982.561	746.412
103.030	16.350	981.594	745.334
104.045	16.352	980.532	744.470
105.060	16.496	979.381	744.167
106.074	16.393	978.661	743.098
107.089	15.979	978.032	740.737
108.103	15.998	976.845	739.854
109.118	15.946	975.727	738.713
110.133	15.878	975.180	737.937
111.147	15.816	974.290	736.925
112.162	15.910	973.076	736.354
113.176	15.888	972.530	735.781
114.191	15.844	971.772	734.947
115.206	16.063	970.954	735.219
116.220	16.084	969.916	734.462
117.235	16.015	968.970	733.378
118.249	15.950	968.466	732.652
119.264	16.081	967.545	732.456
120.279	15.977	966.610	731.235
121.293	15.868	966.165	730.359
122.308	15.789	965.440	729.403
123.322	15.857	964.130	728.643
124.337	15.802	963.005	727.493
125.352	15.669	962.288	726.312
126.366	15.803	960.985	725.841
127.381	15.854	960.011	725.260
128.395	15.842	959.117	724.469
129.410	15.846	957.937	723.533
130.424	15.786	957.679	723.013
131.439	15.851	956.803	722.569
132.454	15.811	956.142	721.834
133.468	16.071	955.414	722.336
134.483	16.026	954.297	721.235
135.497	15.989	954.073	720.843
136.512	16.007	953.352	720.312
137.527	16.007	952.633	719.704
138.541	16.002	951.183	718.525
139.556	16.012	951.029	718.388
140.570	16.113	949.995	717.973
141.585	16.125	949.258	717.402
142.600	16.237	949.073	717.674
143.614	16.244	948.480	717.194
144.629	16.372	947.829	717.181
145.643	16.415	946.691	716.440
146.658	16.427	945.484	715.512
147.673	16.306	944.896	714.494
148.687	16.116	944.039	712.976
149.702	16.129	943.085	712.249
150.716	16.031	942.208	711.113
151.731	16.133	941.094	710.638
152.746	16.208	940.487	710.431
153.760	16.191	940.220	710.097
154.775	16.137	939.039	708.912
155.789	16.224	938.227	708.603
156.804	16.351	937.600	708.602
157.819	16.288	936.955	707.786
158.833	16.376	936.006	707.373
159.848	16.295	936.417	707.284
160.862	16.590	934.851	707.270
161.877	16.481	934.820	706.732
162.892	16.275	933.484	704.796
163.906	16.237	932.137	703.559
164.921	16.176	931.841	703.018
165.935	16.053	930.604	701.514
166.950	16.329	929.287	701.606
167.964	16.173	929.020	700.692
168.979	16.217	927.744	699.850
169.994	16.183	927.122	699.177
171.008	16.224	926.236	698.618
172.023	16.315	925.253	698.191
173.037	16.449	924.870	698.394
174.052	16.439	924.370	697.914
175.067	16.415	923.740	697.276
176.081	16.430	922.355	696.231
177.096	16.245	921.642	694.870
178.110	16.263	920.709	694.179
179.125	16.237	919.887	693.390
180.140	16.225	919.323	692.856
181.154	16.232	918.553	692.243
182.169	16.288	918.752	692.562
183.183	16.539	917.589	692.652
184.198	16.530	916.933	692.057
185.213	16.601	916.277	691.792
186.227	16.491	915.862	690.970
187.242	16.633	915.245	691.021
188.256	16.622	914.459	690.321
189.271	16.865	913.771	690.733
190.286	16.701	912.905	689.348
191.300	16.628	912.407	688.614
192.315	16.228	911.641	686.349
193.329	16.135	910.931	685.375
194.344	16.291	909.701	685.023
195.359	16.262	909.674	684.824
196.373	16.378	909.053	684.768
197.388	16.371	908.942	684.593
198.402	16.665	908.169	685.141
199.417	16.679	908.114	685.096
200.432	16.802	907.343	684.949
201.446	16.992	906.967	685.374
202.461	17.058	906.555	685.269
203.475	17.011	906.110	684.682
204.490	16.972	905.123	683.716
205.504	16.937	904.163	682.792
206.519	16.813	903.275	681.563
207.534	16.680	903.005	680.764
208.548	16.691	902.145	680.098
209.563	16.631	901.537	679.341
210.577	16.724	900.784	679.086
211.592	16.723	900.372	678.709
212.607	16.877	899.734	678.787
213.621	17.102	899.160	679.194
214.636	16.992	898.253	678.009
215.650	16.895	897.892	677.289
216.665	16.937	897.241	676.904
217.680	17.014	896.851	676.859
218.694	17.138	896.529	677.050
219.709	17.247	895.945	676.984
220.723	17.171	895.252	676.098
221.738	17.034	894.574	674.982
222.753	17.267	893.076	674.716
223.767	17.052	892.904	673.672
224.782	17.171	892.073	673.457
225.796	17.167	891.601	673.025
226.811	17.468	890.382	673.236
227.826	17.254	890.052	672.080
228.840	17.210	889.243	671.236
229.855	17.046	888.809	670.202
230.869	16.929	888.772	669.655
231.884	17.014	887.669	669.097
232.899	17.100	886.737	668.675
233.913	17.030	886.208	667.944
234.928	16.828	885.751	666.743
235.942	16.917	884.721	666.257
236.957	16.933	884.034	665.745
237.972	16.857	883.136	664.712
238.986	16.839	882.665	664.229
240.001	17.005	882.013	664.330
241.015	17.024	881.198	663.731
242.030	17.007	880.458	663.050
243.045	17.116	880.029	663.092
244.059	17.121	879.406	662.582
245.074	17.197	878.756	662.333
246.088	17.117	878.447	661.730
247.103	17.205	877.948	661.637
248.117	17.400	877.080	661.680
249.132	17.358	877.012	661.410
250.147	17.536	876.411	661.589
251.161	17.624	875.884	661.474
252.176	17.820	874.813	661.365
253.190	17.862	874.006	660.859
254.205	17.915	873.647	660.736
255.220	17.846	873.315	660.158
256.234	17.860	872.475	659.522
257.249	17.811	872.354	659.180
258.263	17.860	871.354	658.556
259.278	17.887	870.815	658.195
260.293	17.922	870.203	657.807
261.307	18.016	869.776	657.788
262.322	17.994	869.063	657.106
263.336	17.949	868.490	656.443
264.351	17.973	867.988	656.097
265.366	17.948	867.863	655.848
266.380	18.019	866.839	655.291
267.395	17.866	866.003	654.014
268.409	17.981	865.617	654.106
269.424	17.906	864.738	653.095
270.439	17.804	864.333	652.342
271.453	17.724	863.557	651.392
272.468	17.884	862.390	651.064
273.482	17.779	862.076	650.372
274.497	17.787	861.490	649.903
275.512	18.002	860.629	650.012
276.526	17.878	860.056	649.048
277.541	17.930	858.959	648.362
278.555	17.970	858.565	648.158
279.570	18.137	858.377	648.593
280.585	18.163	857.956	648.318
281.599	18.161	857.510	647.915
282.614	18.138	856.669	647.137
283.628	17.964	856.216	646.079
284.643	18.063	855.458	645.823
285.657	18.137	854.933	645.648
286.672	17.968	855.021	645.021
287.687	17.996	853.883	644.210
288.701	18.082	853.393	644.106
289.716	18.008	853.304	643.706
290.730	18.051	852.394	643.124
291.745	18.059	851.668	642.548
292.760	18.086	851.018	642.102
293.774	18.082	850.510	641.646
294.789	18.217	850.112	641.796
295.803	18.290	849.331	641.425
296.818	18.213	848.755	640.645
297.833	18.109	848.067	639.679
298.847	18.103	847.282	639.006
299.862	18.201	846.779	638.939
300.876	18.347	845.878	638.747
301.891	18.263	845.550	638.130
302.906	18.420	844.848	638.126
303.920	18.433	844.170	637.607
304.935	18.519	843.762	637.563
305.949	18.716	842.971	637.641
306.964	18.603	842.427	636.753
307.979	18.413	841.728	635.464
308.993	18.374	841.490	635.084
310.008	18.484	841.137	635.167
311.022	18.577	840.457	634.941
312.037	18.509	840.027	634.308
313.052	18.488	839.218	633.564
314.066	18.317	838.534	632.362
315.081	18.261	837.770	631.524
316.095	18.250	837.677	631.356
317.110	18.263	837.088	630.902
318.125	18.268	836.423	630.365
319.139	18.161	836.388	629.890
320.154	18.409	835.356	629.970
321.168	18.156	835.172	628.842
322.183	18.375	834.404	629.013
323.197	18.355	834.076	628.637
324.212	18.558	833.295	628.739
325.227	18.398	832.831	627.746
326.241	18.471	832.263	627.528
327.256	18.354	831.766	626.672
328.270	18.379	831.005	626.134
329.285	18.407	830.376	625.706
330.300	18.374	830.072	625.302
331.314	18.424	829.474	624.980
332.329	18.480	828.771	624.598
333.343	18.589	828.169	624.484
334.358	18.594	827.965	624.293
335.373	18.683	827.447	624.171
336.387	18.575	826.632	623.111
337.402	18.637	826.562	623.226
338.416	18.798	825.174	622.709
339.431	18.844	824.901	622.616
340.446	19.038	824.565	623.008
341.460	18.956	824.206	622.385
342.475	19.038	823.460	622.064
343.489	18.988	823.302	621.707
344.504	19.111	822.745	621.676
345.519	19.066	822.215	621.058
346.533	19.169	821.728	621.009
347.548	19.258	821.016	620.737
348.562	19.017	820.698	619.573
349.577	19.092	819.500	618.883
350.592	18.752	819.508	617.610
351.606	18.772	818.921	617.186
352.621	18.881	817.957	616.797
353.635	18.883	817.776	616.611
354.650	18.984	817.258	616.527
355.665	19.063	816.977	616.545
356.679	19.006	816.422	615.868
357.694	18.992	816.057	615.488
358.708	19.054	815.623	615.328
359.723	19.072	814.926	614.813
360.738	19.105	814.488	614.545
361.752	19.182	813.893	614.315
362.767	18.966	813.832	613.445
363.781	19.171	813.489	613.865
364.796	19.136	813.022	613.333
365.810	19.389	812.173	613.537
366.825	19.421	812.252	613.656
367.840	19.404	812.250	613.539
368.854	19.454	811.645	613.206
369.869	19.470	811.151	612.835
370.883	19.324	810.332	611.645
371.898	19.346	809.821	611.285
372.913	19.337	809.099	610.652
373.927	19.386	808.721	610.486
374.942	19.351	807.946	609.724
375.956	19.321	807.089	608.917
376.971	19.484	806.900	609.298
377.986	19.647	806.219	609.303
379.000	19.711	805.725	609.100
380.015	19.700	805.125	608.556
381.029	19.779	804.665	608.432
382.044	19.578	804.063	607.217
383.059	19.541	803.772	606.813
384.073	19.670	803.143	606.737
385.088	19.593	802.420	605.866
386.102	19.480	801.878	605.010
387.117	19.372	801.468	604.266
388.132	19.465	800.832	604.059
389.146	19.316	800.613	603.318
390.161	19.505	800.123	603.557
391.175	19.489	799.989	603.348
392.190	19.757	799.696	604.008
393.205	19.764	798.704	603.231
394.219	19.635	798.266	602.398
395.234	19.490	797.936	601.589
396.248	19.489	797.502	601.205
397.263	19.425	796.706	600.330
398.278	19.362	796.113	599.609
399.292	19.406	795.940	599.581
400.307	19.192	795.888	598.745
401.321	19.392	795.133	598.816
402.336	19.469	794.826	598.799
403.350	19.487	794.260	598.385
404.365	19.584	794.009	598.476
405.380	19.656	793.592	598.358
406.394	19.676	793.443	598.263
407.409	19.881	792.659	598.329
408.423	19.757	792.725	597.898
409.438	20.020	791.386	597.742
410.453	20.023	791.467	597.760
411.467	19.969	791.346	597.430
412.482	20.059	790.572	597.103
413.496	20.043	790.270	596.768
414.511	20.212	789.908	597.023
415.526	20.319	789.599	597.105
416.540	20.033	789.087	595.681
417.555	19.980	788.793	595.223
418.569	20.076	788.034	594.929
419.584	19.961	787.575	594.133
420.599	20.188	786.877	594.332
421.613	162.018	1370.986	1797.047
422.628	140.234	1456.079	1797.116
