DTS Sentinel unit serial number:	SN413079Multiplexer serial number:	ORYXHardware model number:	OX4-SRSoftware version number:	ORYX F/W v4.00 Oryx Data Collector v3.7.2.0data status	okinstallation	princeton_trtdifferential loss correction	single-endedforward channel	channel 3reverse channel	N/Adate	2019/09/13time	23:52:35forward acquisition time	60.00reverse acquisition time	0.00gamma	496.2192k internal	0.2340k external	0.2340temperature offset calibration	1.0061default loss term (dB/km)	0.3790temperature slope calibration	1.0000multiplexer offset coefficient	1.0000multiplexer slope coefficient	1.0000fibre end	0.00T internal ref (°C)	26.56T ext. ref 1 (°C)	3.17T ext. ref 2 (°C)	21.10length (m)	temperature (°C)	Stokes	anti-Stokes-747.200	-200.000	-0.018	0.124
-746.185	-200.000	-0.367	0.001
-745.171	148.194	0.217	-0.293
-744.156	-56.471	0.080	0.036
-743.142	396.929	-0.085	0.179
-742.127	-200.000	0.014	0.122
-741.112	412.277	0.127	0.270
-740.098	-169.636	0.132	0.005
-739.083	109.859	-0.111	-0.133
-738.069	60.769	-0.069	-0.068
-737.054	125.087	-0.108	0.137
-736.039	-19.485	-0.312	0.194
-735.025	96.643	0.062	0.072
-734.010	528.197	-0.144	0.340
-732.996	-107.405	-0.212	-0.047
-731.981	5.231	-0.153	-0.113
-730.966	800.000	-0.218	-0.614
-729.952	-54.381	0.206	0.094
-728.937	-124.089	0.060	-0.009
-727.923	-119.548	-0.247	0.043
-726.908	-82.747	-0.134	0.043
-725.894	800.000	0.013	0.054
-724.879	-200.000	-0.044	-0.299
-723.864	29.459	0.184	0.157
-722.850	-84.476	-0.253	-0.080
-721.835	272.888	-0.101	0.179
-720.821	72.222	0.105	-0.109
-719.806	272.124	-0.080	-0.141
-718.791	-63.759	-0.131	0.054
-717.777	-200.000	-0.022	-0.303
-716.762	-13.707	-0.303	-0.196
-715.748	65.304	-0.117	-0.118
-714.733	-35.473	-0.124	-0.068
-713.718	314.711	-0.089	0.167
-712.704	800.000	-0.003	-0.010
-711.689	348.761	0.088	0.175
-710.675	-17.152	-0.113	-0.071
-709.660	18.972	0.289	0.232
-708.645	262.949	0.033	-0.058
-707.631	-163.626	-0.128	-0.006
-706.616	-177.860	-0.356	-0.009
-705.602	-24.424	0.163	-0.097
-704.587	-69.066	-0.176	0.068
-703.572	-200.000	0.038	0.342
-702.558	33.938	-0.172	-0.150
-701.543	-200.000	-0.022	-0.170
-700.529	-37.548	-0.107	-0.057
-699.514	0.526	-0.350	-0.250
-698.499	-7.365	0.232	-0.157
-697.485	114.987	-0.074	0.091
-696.470	-157.900	-0.194	0.011
-695.456	10.948	-0.266	-0.203
-694.441	-200.000	-0.013	-0.157
-693.426	451.018	0.070	0.155
-692.412	265.861	-0.181	0.316
-691.397	-108.885	0.291	-0.062
-690.383	-105.572	-0.083	0.019
-689.368	-173.061	0.215	-0.007
-688.354	130.056	-0.086	0.111
-687.339	800.000	0.082	0.283
-686.324	-200.000	0.026	0.181
-685.310	223.347	0.134	0.216
-684.295	216.996	0.126	-0.200
-683.281	800.000	0.103	0.292
-682.266	800.000	-0.098	0.285
-681.251	-23.777	-0.047	0.028
-680.237	-66.272	-0.327	-0.130
-679.222	-27.191	0.380	0.221
-678.208	800.000	-0.121	-0.338
-677.193	-149.473	-0.207	-0.016
-676.178	-3.679	0.094	-0.066
-675.164	179.586	0.093	-0.136
-674.149	-39.285	-0.175	-0.092
-673.135	-200.000	0.017	-0.161
-672.120	-200.000	0.046	-0.346
-671.105	-4.308	-0.189	0.131
-670.091	779.204	-0.039	0.105
-669.076	-200.000	-0.025	0.217
-668.062	-150.487	0.389	0.030
-667.047	196.652	0.135	-0.206
-666.032	737.993	-0.115	-0.308
-665.018	-73.317	0.051	0.019
-664.003	45.003	-0.048	0.044
-662.989	-185.547	-0.134	-0.002
-661.974	338.737	-0.115	-0.225
-660.959	-82.484	0.169	0.055
-659.945	71.989	-0.171	-0.178
-658.930	-93.057	0.168	0.047
-657.916	-105.658	-0.153	0.035
-656.901	598.434	-0.088	0.217
-655.886	151.730	-0.225	-0.306
-654.872	-100.469	0.077	-0.019
-653.857	-56.526	-0.183	0.081
-652.843	82.724	0.101	-0.110
-651.828	800.000	0.085	-0.276
-650.814	-200.000	-0.091	-0.437
-649.799	19.491	-0.106	0.085
-648.784	164.441	-0.231	0.326
-647.770	17.830	-0.306	-0.243
-646.755	-117.288	-0.084	0.015
-645.741	-26.016	-0.191	-0.112
-644.726	42.418	0.407	-0.369
-643.711	-200.000	0.085	-0.402
-642.697	45.935	0.155	-0.144
-641.682	76.699	0.236	-0.250
-640.668	82.982	-0.035	-0.038
-639.653	-65.084	0.241	0.097
-638.638	-200.000	-0.424	-0.001
-637.624	-117.505	0.074	0.013
-636.609	-34.586	0.211	0.115
-635.595	-200.000	0.025	-0.227
-634.580	800.000	-0.033	-0.104
-633.565	-171.295	0.134	0.004
-632.551	5.029	-0.161	-0.118
-631.536	-147.417	-0.267	0.023
-630.522	-140.866	0.138	0.014
-629.507	161.692	-0.125	-0.174
-628.492	155.444	-0.129	-0.177
-627.478	338.973	-0.106	-0.206
-626.463	-200.000	0.015	-0.097
-625.449	468.118	0.159	-0.356
-624.434	-33.595	-0.174	0.096
-623.419	564.997	-0.045	-0.110
-622.405	-200.000	0.014	0.560
-621.390	34.384	-0.199	0.174
-620.376	-97.032	-0.104	0.027
-619.361	502.215	0.092	-0.211
-618.346	-200.000	-0.012	0.167
-617.332	-200.000	-0.057	0.280
-616.317	52.487	0.105	-0.100
-615.303	569.080	-0.097	0.234
-614.288	142.071	-0.050	0.067
-613.273	372.554	-0.067	-0.136
-612.259	-26.065	0.218	-0.128
-611.244	58.448	-0.077	-0.075
-610.230	37.850	-0.152	0.134
-609.215	419.946	0.067	-0.143
-608.201	-37.317	-0.133	0.071
-607.186	-129.479	0.399	-0.055
-606.171	214.366	-0.099	-0.157
-605.157	-200.000	0.021	0.316
-604.142	497.189	-0.061	-0.139
-603.128	-200.000	-0.031	0.349
-602.113	-200.000	-0.002	0.070
-601.098	-65.781	0.124	-0.049
-600.084	-39.594	0.119	0.062
-599.069	153.710	-0.101	-0.138
-598.055	800.000	-0.061	0.180
-597.040	-91.737	0.291	-0.082
-596.025	-73.310	0.164	-0.060
-595.011	-52.856	0.090	0.041
-593.996	-200.000	0.021	-0.105
-592.982	724.049	0.139	-0.369
-591.967	276.133	0.124	-0.219
-590.952	239.569	0.076	-0.125
-589.938	800.000	-0.116	-0.356
-588.923	-92.752	0.174	0.049
-587.909	138.551	-0.211	-0.276
-586.894	425.952	0.041	0.089
-585.879	800.000	-0.040	-0.143
-584.865	-149.369	0.431	0.034
-583.850	-8.587	0.246	0.164
-582.836	191.356	-0.091	-0.136
-581.821	262.661	0.085	0.146
-580.806	-79.994	0.410	-0.137
-579.792	352.849	0.111	-0.218
-578.777	800.000	0.052	0.193
-577.763	317.845	-0.208	-0.392
-576.748	-46.761	0.284	0.138
-575.733	-200.000	0.002	-0.026
-574.719	468.855	-0.041	0.091
-573.704	-200.000	-0.024	0.117
-572.690	153.315	-0.172	0.234
-571.675	168.043	-0.145	-0.206
-570.661	800.000	-0.008	-0.029
-569.646	-18.969	0.077	-0.048
-568.631	-200.000	0.019	0.251
-567.617	-102.377	-0.025	-0.006
-566.602	800.000	0.054	0.173
-565.588	-200.000	-0.023	0.305
-564.573	451.288	-0.059	0.130
-563.558	789.247	-0.023	-0.063
-562.544	149.040	0.093	0.126
-561.529	-136.712	0.233	-0.027
-560.515	435.498	-0.169	-0.367
-559.500	250.541	-0.195	0.330
-558.485	-62.481	-0.113	-0.047
-557.471	-81.744	0.174	0.057
-556.456	800.000	0.118	0.336
-555.442	-36.342	0.336	0.180
-554.427	800.000	-0.018	0.064
-553.412	-117.303	0.021	-0.004
-552.398	-76.766	-0.178	-0.062
-551.383	-93.708	0.166	-0.045
-550.369	-6.003	-0.113	-0.077
-549.354	-112.138	0.263	0.053
-548.339	477.270	0.119	0.268
-547.325	-36.527	-0.170	0.091
-546.310	-20.142	-0.409	0.251
-545.296	285.779	-0.034	0.062
-544.281	104.765	-0.310	0.363
-543.266	-130.907	0.156	-0.021
-542.252	91.243	-0.021	0.023
-541.237	344.077	-0.120	0.234
-540.223	-106.318	-0.235	0.052
-539.208	-200.000	-0.087	-0.534
-538.193	107.315	-0.040	-0.047
-537.179	-200.000	0.019	-0.426
-536.164	-40.165	-0.172	-0.089
-535.150	347.489	0.040	-0.078
-534.135	-143.776	0.199	0.019
-533.121	56.701	0.026	-0.025
-532.106	800.000	-0.073	-0.261
-531.091	127.314	-0.193	-0.244
-530.077	800.000	-0.050	-0.171
-529.062	208.944	-0.067	-0.104
-528.048	23.622	0.123	-0.101
-527.033	168.075	0.052	-0.074
-526.018	-200.000	-0.007	0.286
-525.004	-48.378	-0.303	0.145
-523.989	-70.319	-0.148	-0.056
-522.975	-200.000	0.015	0.232
-521.960	277.008	0.036	-0.064
-520.945	142.233	-0.276	-0.364
-519.931	68.073	-0.263	0.267
-518.916	-39.095	0.341	-0.178
-517.902	151.231	-0.081	0.110
-516.887	-82.066	-0.093	0.030
-515.872	-51.915	-0.099	0.046
-514.858	413.520	0.108	0.227
-513.843	98.925	0.153	-0.175
-512.829	-140.428	0.372	-0.039
-511.814	-169.870	0.192	0.007
-510.799	-200.000	-0.012	0.076
-509.785	-86.668	-0.250	-0.076
-508.770	-200.000	-0.019	0.139
-507.756	193.498	0.050	0.075
-506.741	-200.000	-0.034	-0.454
-505.726	-53.079	-0.183	-0.084
-504.712	-200.000	-0.022	0.244
-503.697	-47.868	-0.149	-0.072
-502.683	-41.661	0.271	0.138
-501.668	154.196	0.049	0.067
-500.653	10.465	0.068	0.052
-499.639	16.646	-0.192	0.151
-498.624	-183.709	-0.405	0.007
-497.610	-200.000	-0.049	-0.354
-496.595	-153.703	-0.086	-0.006
-495.581	34.196	-0.091	0.079
-494.566	-47.586	-0.224	0.108
-493.551	800.000	0.030	0.125
-492.537	-112.021	-0.173	-0.035
-491.522	-95.027	0.391	-0.105
-490.508	48.215	0.138	0.128
-489.493	-115.992	-0.339	0.063
-488.478	-44.131	-0.339	0.169
-487.464	-183.894	-0.139	-0.002
-486.449	800.000	-0.116	-0.356
-485.435	214.467	-0.139	-0.219
-484.420	800.000	0.070	0.225
-483.405	-116.730	-0.149	-0.027
-482.391	-66.317	-0.353	-0.139
-481.376	584.696	0.022	-0.054
-480.362	-117.380	0.072	0.013
-479.347	672.863	-0.071	0.183
-478.332	-101.108	-0.099	-0.024
-477.318	-51.992	-0.062	-0.028
-476.303	-140.789	-0.023	-0.002
-475.289	-200.000	-0.365	-0.001
-474.274	-181.483	-0.273	-0.005
-473.259	-112.789	-0.242	-0.048
-472.245	422.520	-0.122	-0.259
-471.230	-87.520	-0.249	-0.075
-470.216	-54.044	-0.273	0.123
-469.201	47.102	0.236	-0.218
-468.186	25.451	-0.159	-0.131
-467.172	800.000	-0.015	-0.042
-466.157	-25.525	-0.329	0.193
-465.143	-200.000	-0.034	0.164
-464.128	368.490	-0.089	0.178
-463.113	-51.317	-0.085	0.039
-462.099	713.250	-0.051	-0.134
-461.084	433.910	0.091	0.195
-460.070	170.727	-0.281	0.399
-459.055	-59.878	-0.124	-0.053
-458.040	-200.000	0.007	0.043
-457.026	263.000	-0.043	0.074
-456.011	-6.133	0.113	-0.076
-454.997	-5.183	-0.332	-0.227
-453.982	-32.206	0.293	-0.162
-452.968	30.467	0.316	-0.268
-451.953	-200.000	0.016	-0.268
-450.938	511.305	-0.024	-0.055
-449.924	-62.801	-0.242	0.099
-448.909	31.045	0.211	0.179
-447.895	-170.867	-0.169	-0.006
-446.880	464.888	-0.133	-0.296
-445.865	-200.000	0.003	0.076
-444.851	-33.675	0.113	0.062
-443.836	800.000	0.069	-0.225
-442.822	604.188	-0.047	-0.117
-441.807	-43.024	0.293	-0.147
-440.792	-48.606	0.187	0.089
-439.778	-200.000	0.037	-0.228
-438.763	800.000	-0.003	-0.009
-437.749	800.000	0.035	-0.104
-436.734	-58.710	-0.103	-0.044
-435.719	106.340	0.060	0.071
-434.705	754.469	0.039	-0.103
-433.690	-200.000	0.014	0.078
-432.676	520.948	-0.052	-0.121
-431.661	-123.371	0.162	0.026
-430.646	-96.741	-0.233	-0.061
-429.632	540.996	0.145	-0.342
-428.617	-7.119	-0.123	0.082
-427.603	-126.658	-0.404	0.059
-426.588	-200.000	0.000	0.482
-425.573	13.161	0.105	-0.081
-424.559	-28.428	-0.151	-0.086
-423.544	170.392	0.075	-0.106
-422.530	-200.000	-0.010	-0.127
-421.515	286.172	0.150	0.267
-420.500	-200.000	-0.015	0.272
-419.486	-13.398	-0.174	0.112
-418.471	37.518	-0.202	-0.177
-417.457	137.891	0.050	-0.064
-416.442	-200.000	0.009	0.096
-415.428	270.767	0.169	0.295
-414.413	800.000	0.035	-0.141
-413.398	800.000	-0.076	-0.247
-412.384	-148.059	0.091	0.007
-411.369	77.467	-0.072	0.076
-410.355	-129.138	0.094	0.013
-409.340	-200.000	-0.046	-0.229
-408.325	68.271	-0.114	0.115
-407.311	-129.388	-0.278	-0.038
-406.296	-200.000	0.030	-0.348
-405.282	800.000	0.049	-0.181
-404.267	1.174	0.126	0.090
-403.252	139.206	-0.147	-0.191
-402.238	-11.572	0.131	0.085
-401.223	35.295	-0.073	-0.063
-400.209	-36.015	0.263	0.141
-399.194	-149.282	-0.234	-0.018
-398.179	-146.008	-0.215	-0.019
-397.165	800.000	0.030	0.118
-396.150	-23.959	-0.199	0.118
-395.136	-103.162	0.290	-0.068
-394.121	-87.127	-0.228	-0.068
-393.106	-17.802	0.267	0.166
-392.092	-79.020	0.253	-0.085
-391.077	800.000	0.080	-0.218
-390.063	-110.136	0.135	0.028
-389.048	-99.803	0.155	-0.038
-388.033	-174.441	0.218	-0.006
-387.019	-200.000	-0.023	0.114
-386.004	242.058	0.158	0.261
-384.990	-200.000	-0.043	0.242
-383.975	11.502	0.216	0.163
-382.960	-72.328	-0.189	0.069
-381.946	-200.000	-0.001	-0.028
-380.931	137.508	-0.201	0.260
-379.917	-2.114	0.244	-0.169
-378.902	15.004	0.206	-0.159
-377.888	-200.000	-0.053	-0.233
-376.873	-138.147	0.315	0.035
-375.858	-33.832	0.250	0.136
-374.844	196.691	-0.121	0.182
-373.829	800.000	-0.070	0.191
-372.815	242.781	-0.160	0.264
-371.800	800.000	0.117	0.326
-370.785	-200.000	0.073	-0.434
-369.771	623.695	0.109	0.271
-368.756	433.857	-0.088	0.188
-367.742	63.562	-0.161	-0.160
-366.727	-53.274	-0.067	0.030
-365.712	155.608	0.258	0.351
-364.698	-200.000	-0.005	0.217
-363.683	-200.000	-0.090	-0.407
-362.669	217.243	-0.113	-0.177
-361.654	44.593	-0.069	-0.063
-360.639	264.126	0.026	-0.044
-359.625	800.000	-0.109	-0.316
-358.610	155.289	0.137	0.186
-357.596	-28.290	-0.021	-0.012
-356.581	-144.764	-0.629	-0.057
-355.566	155.493	0.066	0.090
-354.552	-200.000	0.015	-0.157
-353.537	-45.791	-0.124	0.060
-352.523	164.599	0.205	0.286
-351.508	-200.000	-0.001	0.153
-350.493	-140.316	0.584	0.060
-349.479	-200.000	0.008	0.170
-348.464	69.974	-0.117	0.120
-347.450	-9.676	-0.077	0.051
-346.435	22.790	0.091	0.073
-345.420	800.000	0.085	-0.331
-344.406	-155.968	-0.243	-0.015
-343.391	-200.000	0.037	0.307
-342.377	-200.000	-0.012	0.155
-341.362	-39.860	0.208	0.107
-340.348	-41.289	-0.169	-0.086
-339.333	568.131	0.106	-0.254
-338.318	-185.809	0.043	0.001
-337.304	277.080	0.085	-0.149
-336.289	-57.398	-0.284	0.123
-335.275	31.930	0.045	0.039
-334.260	800.000	-0.075	0.245
-333.245	-200.000	0.022	0.100
-332.231	-77.565	-0.255	0.087
-331.216	191.169	-0.092	0.136
-330.202	-97.806	-0.069	0.018
-329.187	-15.185	-0.288	-0.182
-328.172	61.916	0.245	0.241
-327.158	431.972	-0.021	0.045
-326.143	800.000	0.065	0.273
-325.129	-200.000	0.038	-0.419
-324.114	800.000	-0.036	0.149
-323.099	-177.587	-0.208	-0.005
-322.085	-200.000	-0.004	0.138
-321.070	-72.500	-0.289	-0.105
-320.056	150.074	0.118	-0.158
-319.041	-163.089	-0.305	-0.014
-318.026	164.345	-0.010	-0.014
-317.012	82.392	-0.147	0.157
-315.997	341.051	0.090	-0.174
-314.983	351.108	0.072	-0.140
-313.968	800.000	0.113	0.314
-312.953	-104.456	0.231	-0.053
-311.939	51.712	0.071	-0.066
-310.924	759.130	-0.109	0.290
-309.910	-115.725	0.277	-0.051
-308.895	82.830	0.103	-0.110
-307.880	-78.062	-0.143	-0.049
-306.866	-85.853	-0.296	0.091
-305.851	7.177	-0.066	-0.049
-304.837	-108.299	-0.094	0.020
-303.822	284.136	-0.041	-0.072
-302.807	-93.447	0.176	-0.048
-301.793	-125.483	-0.388	0.058
-300.778	127.571	0.050	-0.062
-299.764	-83.770	0.188	0.059
-298.749	-200.000	0.027	-0.247
-297.735	114.447	-0.071	-0.086
-296.720	-39.753	0.347	-0.179
-295.705	-200.000	-0.020	0.128
-294.691	349.711	-0.118	-0.229
-293.676	35.146	0.072	-0.062
-292.662	-5.451	0.191	-0.129
-291.647	-106.013	0.274	0.061
-290.632	-154.162	-0.301	0.020
-289.618	36.604	-0.283	-0.246
-288.603	-28.919	-0.094	-0.053
-287.589	-200.000	-0.006	-0.045
-286.574	-200.000	-0.090	0.395
-285.559	-108.997	0.209	-0.044
-284.545	-127.785	0.036	0.005
-283.530	473.075	-0.114	0.253
-282.516	-200.000	0.013	-0.105
-281.501	-200.000	-0.010	0.140
-280.486	56.722	-0.061	-0.059
-279.472	-80.992	0.180	-0.059
-278.457	-102.843	0.379	0.089
-277.443	-151.353	-0.358	0.026
-276.428	91.869	0.093	-0.103
-275.413	-198.683	0.331	0.002
-274.399	-6.755	-0.093	-0.063
-273.384	-152.931	-0.142	-0.010
-272.370	222.191	0.071	-0.112
-271.355	-200.000	-0.004	0.095
-270.340	-38.942	-0.140	-0.073
-269.326	-20.011	0.239	-0.145
-268.311	15.337	0.039	-0.030
-267.297	-128.484	0.325	-0.045
-266.282	-134.941	0.227	0.027
-265.267	-200.000	0.002	-0.049
-264.253	747.579	0.084	0.221
-263.238	-8.900	-0.256	0.169
-262.224	-51.032	-0.175	0.081
-261.209	-200.000	0.028	0.619
-260.195	800.000	0.072	0.232
-259.180	-36.729	-0.195	0.103
-258.165	86.898	0.326	0.355
-257.151	-72.835	0.143	-0.052
-256.136	-99.670	-0.407	-0.101
-255.122	-92.512	0.167	-0.046
-254.107	-11.901	0.324	-0.209
-253.092	64.989	0.114	0.114
-252.078	385.847	0.082	-0.167
-251.063	81.492	0.072	0.077
-250.049	453.372	-0.103	-0.223
-249.034	800.000	0.083	0.297
-248.019	-27.246	-0.207	-0.118
-247.005	-79.907	-0.237	0.078
-245.990	800.000	0.011	0.033
-244.976	-123.167	-0.558	0.088
-243.961	-81.989	0.236	0.076
-242.946	-106.633	-0.066	0.014
-241.932	219.495	0.115	0.182
-240.917	-192.336	-0.139	-0.001
-239.903	-87.621	0.235	0.070
-238.888	5.074	-0.290	-0.210
-237.873	-109.315	0.132	0.027
-236.859	800.000	0.027	-0.102
-235.844	97.361	0.061	0.069
-234.830	-200.000	0.070	-0.477
-233.815	-83.915	0.149	-0.047
-232.800	44.114	-0.043	0.038
-231.786	-38.222	-0.347	-0.181
-230.771	-200.000	-0.018	0.245
-229.757	-28.789	0.384	0.217
-228.742	-79.890	0.037	-0.012
-227.727	-200.000	0.036	-0.298
-226.713	-121.084	-0.076	0.012
-225.698	29.778	-0.194	-0.163
-224.684	-79.107	0.339	0.113
-223.669	-142.020	0.107	0.010
-222.655	-140.852	0.139	-0.014
-221.640	-200.000	-0.027	0.176
-220.625	-200.000	-0.019	-0.138
-219.611	-123.881	0.275	0.043
-218.596	-123.452	-0.091	0.014
-217.582	800.000	0.092	0.263
-216.567	96.493	-0.083	0.094
-215.552	104.210	0.198	0.228
-214.538	-122.063	0.216	0.035
-213.523	-106.226	-0.058	0.013
-212.509	-38.886	0.269	-0.139
-211.494	796.111	0.049	0.134
-210.479	-200.000	-0.009	-0.157
-209.465	144.582	0.086	0.113
-208.450	-200.000	0.051	-0.288
-207.436	311.217	0.092	-0.168
-206.421	800.000	0.119	0.471
-205.406	-66.663	-0.219	0.085
-204.392	241.231	0.200	0.329
-203.377	-122.054	-0.353	-0.057
-202.363	-47.179	0.348	-0.167
-201.348	-200.000	0.052	-0.403
-200.333	-78.751	0.106	0.035
-199.319	-6.859	0.384	-0.256
-198.304	397.389	-0.102	-0.209
-197.290	-79.512	0.276	-0.092
-196.275	-200.000	-0.053	0.266
-195.260	437.296	0.033	0.071
-194.246	-53.919	0.319	0.143
-193.231	-119.324	-0.407	0.069
-192.217	136.493	0.152	0.194
-191.202	9.281	-0.212	0.158
-190.187	-134.879	0.472	0.056
-189.173	45.081	-0.019	0.018
-188.158	47.808	-0.092	0.085
-187.144	-200.000	-0.042	0.253
-186.129	-174.925	0.255	0.007
-185.114	27.543	0.041	0.034
-184.100	372.869	0.084	0.167
-183.085	-123.042	0.152	0.024
-182.071	233.116	-0.072	-0.116
-181.056	192.424	0.191	-0.283
-180.042	322.447	0.082	-0.153
-179.027	-9.288	0.255	0.167
-178.012	800.000	-0.064	-0.210
-176.998	-49.143	0.135	0.063
-175.983	800.000	-0.085	-0.253
-174.969	-148.513	-0.163	0.013
-173.954	-200.000	0.023	0.143
-172.939	784.673	0.103	0.277
-171.925	-200.000	0.035	-0.262
-170.910	142.326	-0.159	-0.206
-169.896	187.229	0.120	-0.176
-168.881	606.372	0.021	0.052
-167.866	353.960	0.204	-0.397
-166.852	63.837	0.108	0.107
-165.837	-66.237	0.047	-0.018
-164.823	466.656	0.182	0.400
-163.808	-22.856	-0.109	0.064
-162.793	-134.772	-0.071	-0.008
-161.779	-95.430	-0.167	-0.044
-160.764	-35.247	-0.277	0.148
-159.750	-200.000	-0.005	-0.079
-158.735	-16.653	0.147	0.091
-157.720	-122.849	0.188	-0.030
-156.706	-28.839	-0.133	0.075
-155.691	-156.877	0.321	0.019
-154.677	-159.421	-0.115	0.006
-153.662	268.724	0.029	-0.050
-152.647	181.671	-0.192	-0.277
-151.633	71.742	-0.082	-0.084
-150.618	-200.000	0.001	-0.054
-149.604	-108.557	-0.118	-0.025
-148.589	-154.902	0.306	0.020
-147.574	-57.950	0.085	-0.036
-146.560	496.300	0.128	0.289
-145.545	-200.000	0.052	-0.233
-144.531	133.996	-0.216	-0.275
-143.516	-197.528	0.287	-0.002
-142.502	-63.031	0.481	0.195
-141.487	-78.588	0.365	0.122
-140.472	800.000	-0.032	0.134
-139.458	290.527	0.094	0.167
-138.443	-83.145	0.211	0.066
-137.429	800.000	0.076	-0.218
-136.414	-113.079	-0.178	0.034
-135.399	-200.000	-0.005	-0.032
-134.385	217.124	-0.186	-0.290
-133.370	-16.995	0.149	-0.092
-132.356	-27.128	-0.133	0.076
-131.341	-95.691	-0.111	-0.029
-130.326	-200.000	-0.053	0.459
-129.312	645.067	-0.063	-0.157
-128.297	126.147	0.144	0.178
-127.283	800.000	0.044	0.152
-126.268	-38.743	0.056	-0.029
-125.253	-25.837	0.083	0.048
-124.239	800.000	0.059	-0.160
-123.224	448.467	0.127	0.274
-122.210	800.000	0.086	0.250
-121.195	175.397	0.143	-0.203
-120.180	-200.000	0.011	0.193
-119.166	273.504	0.193	0.334
-118.151	39.788	-0.058	0.051
-117.137	-51.512	0.144	-0.066
-116.122	20.091	0.169	0.133
-115.107	-200.000	0.005	0.094
-114.093	219.389	0.090	0.141
-113.078	-171.171	0.239	0.008
-112.064	-200.000	0.034	-0.206
-111.049	-144.150	-0.121	-0.011
-110.034	247.275	0.209	-0.345
-109.020	800.000	0.014	0.049
-108.005	-122.082	0.047	-0.008
-106.991	568.265	-0.115	-0.273
-105.976	-200.000	-0.035	0.207
-104.962	-6.770	0.159	0.105
-103.947	800.000	-0.116	-0.338
-102.932	-85.684	0.271	-0.082
-101.918	87.043	0.014	-0.015
-100.903	-200.000	-0.029	0.244
-99.889	-77.423	0.194	-0.066
-98.874	800.000	0.025	-0.083
-97.859	-55.487	0.109	-0.048
-96.845	105.722	-0.187	0.216
-95.830	234.619	-0.059	0.095
-94.816	800.000	-0.091	0.246
-93.801	-43.585	0.224	-0.110
-92.786	-170.618	0.139	-0.005
-91.772	-89.152	-0.060	-0.017
-90.757	-12.680	0.078	-0.050
-89.743	-41.743	0.152	-0.076
-88.728	262.847	-0.079	0.134
-87.713	800.000	-0.062	0.186
-86.699	50.998	0.087	0.080
-85.684	-40.658	0.409	-0.207
-84.670	443.574	0.167	0.358
-83.655	46.340	0.223	0.202
-82.640	158.644	-0.080	0.108
-81.626	-140.684	-0.080	0.008
-80.611	86.415	0.260	0.280
-79.597	-10.804	0.176	0.113
-78.582	133.610	0.148	-0.187
-77.567	428.944	-0.112	0.236
-76.553	-45.966	0.317	0.152
-75.538	-71.494	0.182	-0.067
-74.524	800.000	-0.107	0.339
-73.509	-108.863	0.170	0.035
-72.494	-4.856	0.147	-0.099
-71.480	427.835	0.032	-0.068
-70.465	347.129	-0.180	0.346
-69.451	-118.282	-0.238	-0.041
-68.436	174.155	-0.120	0.169
-67.422	382.805	-0.106	0.212
-66.407	-178.894	0.431	0.010
-65.392	-200.000	-0.005	0.344
-64.378	86.428	-0.264	0.284
-63.363	-116.519	-0.071	-0.013
-62.349	158.392	-0.067	-0.091
-61.334	50.271	-1.232	-1.136
-60.319	388.052	0.493	0.995
-59.305	680.352	-0.397	-1.010
-58.290	504.976	0.592	1.339
-57.276	800.000	0.571	1.631
-56.261	-200.000	115.117	641.282
-55.246	506.711	1532.770	3469.019
-54.232	177.743	2700.798	3842.291
-53.217	105.229	2167.376	2497.001
-52.203	37.230	1685.388	1456.764
-51.188	29.716	1501.348	1247.176
-50.173	27.425	1476.861	1211.556
-49.159	49.224	1537.115	1409.863
-48.144	47.971	1551.594	1414.559
-47.130	29.766	1506.984	1251.997
-46.115	26.828	1491.746	1219.564
-45.100	26.652	1488.257	1215.483
-44.086	26.601	1486.268	1213.467
-43.071	26.561	1484.196	1211.460
-42.057	26.527	1482.905	1210.130
-41.042	26.483	1481.859	1208.931
-40.027	26.544	1480.147	1207.895
-39.013	26.467	1478.915	1206.328
-37.998	26.475	1477.724	1205.362
-36.984	26.542	1476.343	1204.637
-35.969	26.582	1475.044	1203.791
-34.954	26.519	1473.778	1202.294
-33.940	26.571	1472.418	1201.480
-32.925	26.588	1470.677	1200.127
-31.911	26.560	1469.358	1198.819
-30.896	26.593	1468.349	1198.165
-29.881	26.678	1467.055	1197.621
-28.867	26.650	1465.612	1196.212
-27.852	26.645	1464.493	1195.217
-26.838	26.563	1463.571	1193.881
-25.823	26.565	1462.123	1192.663
-24.809	26.562	1460.312	1191.120
-23.794	26.542	1459.128	1189.974
-22.779	26.606	1457.517	1189.031
-21.765	26.598	1456.862	1188.397
-20.750	26.593	1455.613	1187.303
-19.736	26.630	1454.357	1186.472
-18.721	26.591	1453.608	1185.557
-17.706	26.608	1452.290	1184.549
-16.692	26.574	1450.919	1183.160
-15.677	26.568	1450.104	1182.406
-14.663	26.562	1449.300	1181.668
-13.648	26.531	1448.172	1180.495
-12.633	26.578	1447.224	1179.986
-11.619	26.585	1446.498	1179.392
-10.604	26.593	1445.716	1178.760
-9.590	26.553	1444.586	1177.534
-8.575	26.448	1444.027	1176.348
-7.560	26.582	1442.600	1176.010
-6.546	26.569	1442.336	1175.658
-5.531	26.474	1441.592	1174.393
-4.517	26.520	1440.353	1173.630
-3.502	26.543	1439.261	1172.845
-2.487	26.498	1438.641	1172.004
-1.473	26.490	1437.337	1170.841
-0.458	26.525	1436.266	1170.147
0.556	26.858	1426.067	1158.619
1.571	23.802	1400.896	1118.863
2.586	20.195	1340.373	1048.659
3.600	18.750	1258.615	976.399
4.615	17.477	1215.624	935.968
5.629	15.098	1159.913	880.496
6.644	8.768	1078.824	787.821
7.659	3.866	1042.451	737.848
8.673	3.209	1037.250	730.981
9.688	3.144	1034.078	728.376
10.702	3.126	1032.664	727.230
11.717	3.191	1030.677	726.074
12.731	5.074	1031.361	735.374
13.746	11.668	1040.715	773.256
14.761	18.096	1048.937	809.847
15.775	19.881	1050.270	819.261
16.790	19.411	1048.895	815.894
17.804	18.362	1047.309	809.631
18.819	17.504	1045.319	803.972
19.834	17.135	1043.618	800.850
20.848	16.847	1043.616	799.423
21.863	16.863	1042.587	798.635
22.877	16.683	1041.381	796.795
23.892	16.465	1041.000	795.409
24.907	16.367	1040.514	794.505
25.921	16.326	1039.063	793.134
26.936	16.387	1038.216	792.702
27.950	16.421	1037.433	792.198
28.965	16.507	1036.338	791.694
29.980	16.538	1035.440	791.082
30.994	16.673	1034.294	790.765
32.009	16.585	1033.496	789.677
33.023	16.800	1033.042	790.263
34.038	16.807	1031.951	789.389
35.053	16.632	1030.734	787.575
36.067	16.481	1030.018	786.257
37.082	16.511	1029.083	785.610
38.096	16.497	1028.663	785.158
39.111	16.511	1028.274	784.854
40.126	16.645	1027.142	784.543
41.140	16.562	1025.754	783.027
42.155	16.421	1024.707	781.508
43.169	16.192	1023.770	779.668
44.184	16.219	1022.684	778.897
45.199	16.153	1021.584	777.685
46.213	16.245	1020.321	777.078
47.228	16.316	1019.643	776.817
48.242	16.375	1018.870	776.431
49.257	16.507	1017.878	776.214
50.271	16.479	1016.938	775.301
51.286	16.501	1016.067	774.668
52.301	16.602	1015.145	774.361
53.315	16.543	1014.375	773.436
54.330	16.511	1013.976	772.913
55.344	16.370	1012.733	771.254
56.359	16.244	1011.269	769.497
57.374	16.407	1010.869	769.869
58.388	16.298	1010.202	768.795
59.403	16.290	1008.996	767.771
60.417	16.166	1008.416	766.699
61.432	16.192	1008.166	766.561
62.447	16.160	1006.868	765.363
63.461	16.051	1006.462	764.489
64.476	16.093	1005.000	763.500
65.490	16.110	1004.357	763.022
66.505	15.984	1003.831	761.985
67.520	16.048	1002.952	761.542
68.534	16.146	1002.176	761.327
69.549	16.195	1001.669	761.094
70.563	16.215	1000.458	760.195
71.578	16.067	1000.314	759.352
72.593	15.982	999.354	758.174
73.607	15.898	998.269	756.909
74.622	15.849	997.214	755.822
75.636	15.867	996.094	754.987
76.651	15.995	995.600	755.119
77.666	15.958	994.702	754.205
78.680	16.029	994.145	754.034
79.695	15.978	993.778	753.462
80.709	16.059	993.098	753.241
81.724	16.035	992.641	752.718
82.739	16.211	991.653	752.687
83.753	16.299	990.904	752.448
84.768	16.509	990.413	752.944
85.782	16.577	989.881	752.776
86.797	16.848	989.155	753.358
87.812	16.754	988.096	752.071
88.826	16.516	987.308	750.346
89.841	16.487	986.542	749.569
90.855	16.562	985.672	749.175
91.870	16.689	985.236	749.340
92.884	16.872	984.024	749.161
93.899	16.717	983.685	748.148
94.914	16.703	982.700	747.275
95.928	16.819	981.791	747.029
96.943	16.765	981.350	746.387
97.957	16.707	980.436	745.373
98.972	16.643	979.820	744.555
99.987	16.637	978.987	743.831
101.001	16.628	978.533	743.381
102.016	16.610	977.305	742.301
103.030	16.663	976.463	741.828
104.045	16.658	975.661	741.133
105.060	16.595	974.535	739.935
106.074	16.586	973.368	738.945
107.089	16.509	972.607	737.967
108.103	16.290	971.638	736.212
109.118	16.196	970.525	734.892
110.133	16.131	970.016	734.158
111.147	16.198	969.133	733.717
112.162	16.127	968.285	732.702
113.176	16.025	968.223	732.146
114.191	16.215	966.612	731.690
115.206	16.302	965.813	731.395
116.220	16.336	965.132	730.961
117.235	16.182	964.385	729.667
118.249	16.203	963.648	729.134
119.264	16.307	962.501	728.653
120.279	16.126	961.586	727.113
121.293	16.230	960.789	726.895
122.308	16.175	959.904	725.922
123.322	16.036	959.461	724.926
124.337	15.987	958.226	723.719
125.352	16.101	956.752	723.033
126.366	15.958	955.922	721.728
127.381	16.010	954.879	721.097
128.395	15.911	953.956	719.914
129.410	15.857	953.443	719.232
130.424	16.076	952.185	719.155
131.439	16.259	951.168	719.103
132.454	16.215	950.383	718.259
133.468	16.359	949.820	718.383
134.483	16.207	949.489	717.422
135.497	16.296	948.426	716.931
136.512	16.258	948.083	716.451
137.527	16.436	947.384	716.611
138.541	16.197	946.864	715.143
139.556	16.074	946.303	714.135
140.570	16.308	945.084	714.141
141.585	16.399	944.449	713.983
142.600	16.566	943.716	714.071
143.614	16.642	943.193	713.933
144.629	16.639	942.734	713.507
145.643	16.852	941.471	713.385
146.658	16.819	940.534	712.476
147.673	16.690	939.558	711.130
148.687	16.520	938.670	709.683
149.702	16.343	938.073	708.426
150.716	16.290	936.749	707.140
151.731	16.352	935.967	706.748
152.746	16.391	935.682	706.631
153.760	16.440	934.743	706.066
154.775	16.420	934.147	705.470
155.789	16.532	933.198	705.158
156.804	16.546	932.870	704.904
157.819	16.550	932.128	704.298
158.833	16.686	931.277	704.161
159.848	16.752	930.603	703.860
160.862	16.851	930.136	703.857
161.877	16.894	928.905	703.042
162.892	16.518	928.593	701.187
163.906	16.479	927.275	699.965
164.921	16.359	926.636	698.924
165.935	16.366	925.345	697.919
166.950	16.456	924.367	697.492
167.964	16.568	923.502	697.240
168.979	16.718	922.316	696.900
169.994	16.408	921.753	695.136
171.008	16.518	920.678	694.716
172.023	16.676	919.883	694.705
173.037	16.643	919.574	694.275
174.052	16.685	919.541	694.359
175.067	16.807	918.371	693.913
176.081	16.604	917.222	692.152
177.096	16.487	916.615	691.159
178.110	16.465	915.666	690.288
179.125	16.588	914.752	690.042
180.140	16.688	913.955	689.786
181.154	16.477	913.725	688.691
182.169	16.484	913.264	688.314
183.183	16.677	912.370	688.364
184.198	16.870	912.023	688.826
185.213	16.904	911.261	688.327
186.227	16.781	910.634	687.292
187.242	16.810	910.136	686.972
188.256	16.937	909.388	686.861
189.271	16.989	908.808	686.576
190.286	17.058	908.095	686.254
191.300	16.834	907.196	684.607
192.315	16.423	906.405	682.290
193.329	16.311	905.615	681.185
194.344	16.434	904.524	680.801
195.359	16.400	904.699	680.734
196.373	16.637	904.358	681.373
197.388	16.711	903.595	681.034
198.402	16.938	902.775	681.269
199.417	16.983	902.944	681.517
200.432	17.122	902.200	681.454
201.446	17.141	902.102	681.394
202.461	17.230	901.450	681.198
203.475	17.294	900.943	681.010
204.490	17.437	899.987	680.801
205.504	17.237	899.512	679.580
206.519	17.042	898.306	677.830
207.534	16.965	897.703	677.008
208.548	17.074	896.918	676.793
209.563	17.129	896.189	676.402
210.577	17.152	895.273	675.740
211.592	17.103	894.991	675.273
212.607	17.160	894.976	675.430
213.621	17.116	894.752	675.027
214.636	17.267	893.965	674.974
215.650	17.180	892.987	673.830
216.665	17.146	892.624	673.359
217.680	17.304	891.903	673.385
218.694	17.396	891.351	673.269
219.709	17.361	890.968	672.783
220.723	17.382	890.147	672.186
221.738	17.455	889.418	671.865
222.753	17.378	888.446	670.767
223.767	17.120	888.048	669.392
224.782	17.478	887.199	670.100
225.796	17.509	886.648	669.749
226.811	17.598	886.056	669.591
227.826	17.573	885.263	668.836
228.840	17.424	884.641	667.720
229.855	17.298	884.359	666.953
230.869	17.444	883.116	666.530
231.884	17.190	883.050	665.425
232.899	17.344	882.005	665.180
233.913	17.206	881.525	664.221
234.928	17.152	880.918	663.495
235.942	17.188	879.929	662.831
236.957	17.184	878.851	661.946
237.972	17.230	878.662	661.923
238.986	17.288	877.834	661.468
240.001	17.106	877.649	660.562
241.015	17.166	877.228	660.418
242.030	17.365	876.059	660.252
243.045	17.331	875.389	659.560
244.059	17.481	874.846	659.672
245.074	17.376	874.582	659.007
246.088	17.403	874.159	658.735
247.103	17.554	873.159	658.507
248.117	17.429	872.878	657.753
249.132	17.710	872.132	658.218
250.147	17.767	871.912	658.214
251.161	18.060	871.426	658.920
252.176	17.971	871.257	658.389
253.190	18.077	870.252	657.982
254.205	18.147	869.757	657.818
255.220	18.260	869.104	657.699
256.234	18.099	868.554	656.606
257.249	18.172	867.576	656.089
258.263	18.121	866.940	655.355
259.278	18.244	866.457	655.404
260.293	18.155	866.109	654.743
261.307	17.964	866.052	653.908
262.322	18.330	865.010	654.463
263.336	18.335	864.556	654.081
264.351	18.319	864.136	653.644
265.366	18.304	863.478	653.030
266.380	18.394	862.586	652.642
267.395	18.298	862.406	652.083
268.409	18.297	861.321	651.202
269.424	18.171	860.447	650.002
270.439	18.044	860.381	649.414
271.453	18.166	859.341	649.034
272.468	18.115	858.857	648.418
273.482	18.107	857.847	647.566
274.497	18.082	856.956	646.744
275.512	18.077	856.501	646.324
276.526	18.008	855.860	645.520
277.541	18.086	855.206	645.265
278.555	18.115	855.112	645.248
279.570	18.246	854.584	645.285
280.585	18.415	854.037	645.453
281.599	18.409	853.552	645.008
282.614	18.332	852.415	643.800
283.628	18.300	851.527	642.954
284.643	18.180	851.387	642.339
285.657	18.383	850.854	642.642
286.672	18.263	850.483	641.855
287.687	18.260	849.946	641.380
288.701	18.346	849.458	641.278
289.716	18.318	848.705	640.551
290.730	18.195	848.458	639.844
291.745	18.307	847.609	639.568
292.760	18.484	846.575	639.391
293.774	18.442	846.179	638.879
294.789	18.480	845.886	638.741
295.803	18.543	845.158	638.369
296.818	18.495	844.334	637.512
297.833	18.461	843.749	636.888
298.847	18.358	843.370	636.162
299.862	18.460	842.700	635.981
300.876	18.411	842.042	635.246
301.891	18.505	841.393	635.048
302.906	18.561	841.145	635.014
303.920	18.699	839.924	634.543
304.935	18.858	839.678	634.892
305.949	18.951	838.987	634.656
306.964	18.885	838.404	633.915
307.979	18.862	837.757	633.285
308.993	18.609	837.096	631.797
310.008	18.901	836.693	632.513
311.022	18.843	836.319	631.960
312.037	18.786	835.983	631.441
313.052	18.735	835.154	630.570
314.066	18.479	834.699	629.231
315.081	18.601	833.749	628.909
316.095	18.560	833.240	628.317
317.110	18.521	832.870	627.840
318.125	18.589	832.166	627.502
319.139	18.496	831.639	626.708
320.154	18.537	831.451	626.662
321.168	18.610	830.584	626.219
322.183	18.696	829.913	625.971
323.197	18.592	829.789	625.445
324.212	18.726	829.376	625.567
325.227	18.747	828.666	625.053
326.241	18.779	828.407	624.915
327.256	18.559	827.826	623.623
328.270	18.668	827.052	623.382
329.285	18.583	826.455	622.567
330.300	18.694	825.664	622.321
331.314	18.672	825.238	621.863
332.329	18.657	824.658	621.315
333.343	18.711	824.531	621.363
334.358	18.844	823.619	621.099
335.373	18.837	823.352	620.817
336.387	18.899	822.735	620.522
337.402	19.048	822.038	620.478
338.416	19.061	821.382	619.977
339.431	19.006	821.698	619.961
340.446	19.092	820.730	619.484
341.460	19.292	820.054	619.639
342.475	19.259	819.965	619.400
343.489	19.313	819.115	618.897
344.504	19.301	818.432	618.283
345.519	19.384	818.527	618.596
346.533	19.556	817.958	618.730
347.548	19.501	817.315	617.990
348.562	19.213	816.681	616.425
349.577	19.091	816.052	615.461
350.592	19.050	815.441	614.797
351.606	19.026	814.863	614.223
352.621	19.067	814.266	613.866
353.635	19.201	813.708	613.869
354.650	19.016	813.703	613.150
355.665	18.975	813.525	612.814
356.679	19.199	812.941	613.119
357.694	19.272	812.215	612.776
358.708	19.326	811.695	612.521
359.723	19.344	810.969	611.983
360.738	19.295	810.479	611.387
361.752	19.150	810.390	610.750
362.767	19.189	809.816	610.402
363.781	19.501	809.315	611.077
364.796	19.483	809.236	610.899
365.810	19.440	809.033	610.539
366.825	19.626	808.299	610.586
367.840	19.726	808.055	610.703
368.854	19.639	807.812	610.156
369.869	19.626	806.846	609.329
370.883	19.521	806.348	608.530
371.898	19.633	805.745	608.414
372.913	19.810	804.801	608.271
373.927	19.775	804.883	608.153
374.942	19.646	803.954	606.946
375.956	19.696	803.596	606.798
376.971	19.826	802.652	606.487
377.986	19.867	802.150	606.198
379.000	19.918	801.890	606.125
380.015	19.876	801.666	605.756
381.029	19.912	800.941	605.279
382.044	19.719	800.633	604.318
383.059	20.043	799.444	604.500
384.073	19.923	799.209	603.850
385.088	19.875	798.739	603.272
386.102	19.678	798.205	602.132
387.117	19.618	797.742	601.520
388.132	19.618	797.277	601.114
389.146	19.623	796.837	600.749
390.161	19.808	796.237	600.885
391.175	19.791	796.044	600.629
392.190	19.897	795.823	600.777
393.205	20.044	794.769	600.436
394.219	19.772	794.558	599.281
395.234	19.743	793.994	598.700
396.248	19.672	793.421	597.970
397.263	19.573	792.983	597.247
398.278	19.606	792.662	597.067
399.292	19.612	792.221	596.702
400.307	19.530	791.791	596.040
401.321	19.654	791.235	595.999
402.336	19.776	790.974	596.167
403.350	19.721	790.638	595.674
404.365	19.856	790.176	595.738
405.380	20.052	789.709	596.007
406.394	19.931	789.801	595.608
407.409	20.155	789.188	595.862
408.423	20.203	788.442	595.412
409.438	20.176	787.813	594.791
410.453	20.389	787.441	595.188
411.467	20.340	787.394	594.932
412.482	20.388	786.747	594.553
413.496	20.431	786.300	594.312
414.511	20.241	786.211	593.540
415.526	20.434	785.839	593.869
416.540	20.311	785.359	593.032
417.555	20.346	785.103	592.905
418.569	20.200	784.410	591.833
419.584	20.407	783.956	592.143
420.599	20.456	783.264	591.734
421.613	162.674	1370.751	1797.445
422.628	140.700	1456.364	1797.523
