DTS Sentinel unit serial number:	SN413079Multiplexer serial number:	ORYXHardware model number:	OX4-SRSoftware version number:	ORYX F/W v4.00 Oryx Data Collector v3.7.2.0data status	okinstallation	princeton_trtdifferential loss correction	single-endedforward channel	channel 3reverse channel	N/Adate	2019/09/14time	21:56:34forward acquisition time	60.00reverse acquisition time	0.00gamma	496.2192k internal	0.2318k external	0.2318temperature offset calibration	0.9994default loss term (dB/km)	0.3790temperature slope calibration	1.0000multiplexer offset coefficient	1.0000multiplexer slope coefficient	1.0000fibre end	0.00T internal ref (°C)	32.69T ext. ref 1 (°C)	4.72T ext. ref 2 (°C)	27.67length (m)	temperature (°C)	Stokes	anti-Stokes-747.200	291.071	-0.123	-0.227
-746.185	-141.225	-0.237	-0.024
-745.171	-104.129	0.420	0.099
-744.156	322.500	-0.140	0.269
-743.142	800.000	-0.011	-0.035
-742.127	87.338	-0.203	0.228
-741.112	771.882	0.116	-0.319
-740.098	23.850	0.091	0.076
-739.083	173.951	-0.043	-0.062
-738.069	0.273	0.105	0.076
-737.054	105.705	0.113	-0.135
-736.039	-4.628	-0.160	0.112
-735.025	-200.000	-0.015	0.174
-734.010	109.235	0.123	0.149
-732.996	69.672	0.080	0.084
-731.981	-114.791	0.147	-0.028
-730.966	-174.747	0.253	-0.007
-729.952	211.032	0.081	0.129
-728.937	-17.929	0.236	-0.149
-727.923	-64.987	-0.278	0.113
-726.908	-68.642	0.136	-0.053
-725.894	0.629	0.183	0.132
-724.879	-91.238	-0.247	-0.072
-723.864	26.240	0.078	0.066
-722.850	15.866	-0.219	0.175
-721.835	-27.094	0.415	0.245
-720.821	192.750	0.115	-0.176
-719.806	51.023	-0.223	0.214
-718.791	489.267	0.049	0.113
-717.777	800.000	0.061	0.172
-716.762	-200.000	0.008	-0.075
-715.748	-22.708	-0.108	-0.066
-714.733	171.405	-0.082	-0.119
-713.718	-200.000	-0.031	-0.459
-712.704	-167.948	0.112	-0.004
-711.689	46.693	-0.106	-0.100
-710.675	800.000	0.013	-0.039
-709.660	53.208	-0.346	-0.335
-708.645	-103.478	0.350	-0.083
-707.631	-161.141	-0.200	-0.011
-706.616	140.105	-0.149	-0.199
-705.602	-109.704	-0.096	-0.020
-704.587	800.000	0.120	0.388
-703.572	67.476	0.060	0.062
-702.558	523.256	-0.083	0.197
-701.543	-200.000	-0.010	-0.292
-700.529	-24.290	-0.253	0.153
-699.514	-145.557	-0.087	0.008
-698.499	24.796	-0.105	-0.088
-697.485	-20.122	0.070	0.044
-696.470	-182.700	-0.104	-0.002
-695.456	-4.739	-0.028	-0.020
-694.441	45.009	0.024	-0.022
-693.426	-104.392	-0.541	-0.127
-692.412	-94.624	0.126	0.035
-691.397	246.628	-0.010	0.018
-690.383	563.539	-0.106	-0.259
-689.368	62.180	-0.157	-0.158
-688.354	-148.157	-0.311	-0.026
-687.339	472.775	0.085	-0.194
-686.324	-124.802	0.201	-0.031
-685.310	-123.391	-0.188	-0.030
-684.295	71.231	-0.250	-0.262
-683.281	-65.057	0.162	0.066
-682.266	800.000	-0.044	-0.151
-681.251	-200.000	-0.017	0.087
-680.237	21.022	0.201	0.164
-679.222	-200.000	-0.067	-0.312
-678.208	47.438	0.103	-0.097
-677.193	-200.000	0.039	-0.383
-676.178	382.813	-0.074	-0.154
-675.164	357.887	0.046	0.094
-674.149	-10.300	0.011	-0.008
-673.135	-88.318	0.245	0.074
-672.120	-51.684	0.429	-0.202
-671.105	-200.000	-0.038	-0.200
-670.091	-102.969	0.063	0.015
-669.076	268.075	0.090	0.160
-668.062	-200.000	-0.014	-0.156
-667.047	303.866	-0.118	0.221
-666.032	-71.611	0.372	0.140
-665.018	-200.000	-0.033	-0.299
-664.003	170.553	0.096	0.138
-662.989	278.374	0.053	-0.096
-661.974	39.934	0.089	-0.080
-660.959	-89.378	0.365	-0.109
-659.945	-150.238	-0.218	-0.017
-658.930	-200.000	-0.064	-0.536
-657.916	140.130	0.305	-0.405
-656.901	-77.327	-0.393	-0.138
-655.886	193.679	0.137	-0.210
-654.872	-52.221	-0.156	-0.073
-653.857	-66.473	0.122	0.049
-652.843	800.000	0.044	-0.129
-651.828	371.647	-0.094	-0.193
-650.814	-123.500	-0.273	-0.044
-649.799	13.208	0.121	-0.094
-648.784	63.588	-0.074	0.075
-647.770	-71.346	-0.163	0.062
-646.755	800.000	-0.170	0.474
-645.741	-200.000	0.046	-0.245
-644.726	-180.531	0.385	-0.008
-643.711	-120.652	0.209	-0.036
-642.697	395.129	-0.050	0.104
-641.682	-28.140	-0.300	0.175
-640.668	-108.220	-0.046	0.010
-639.653	-31.188	-0.148	-0.084
-638.638	-121.259	0.312	0.052
-637.624	-13.770	-0.131	0.085
-636.609	-152.285	0.122	0.009
-635.595	66.674	0.128	0.132
-634.580	7.088	0.245	0.184
-633.565	253.256	0.115	-0.198
-632.551	-154.380	0.228	0.015
-631.536	800.000	0.040	-0.113
-630.522	-55.843	0.150	-0.068
-629.507	107.513	-0.244	0.293
-628.492	-64.649	-0.343	-0.140
-627.478	-200.000	-0.018	0.202
-626.463	120.326	0.165	-0.206
-625.449	-38.294	-0.228	-0.122
-624.434	-89.138	-0.119	0.035
-623.419	97.154	0.086	-0.100
-622.405	-200.000	0.029	0.183
-621.390	800.000	0.044	-0.164
-620.376	-140.165	-0.255	0.027
-619.361	-132.668	0.355	0.046
-618.346	-177.290	-0.179	-0.004
-617.332	-153.919	-0.134	0.009
-616.317	-111.232	-0.234	0.048
-615.303	43.986	0.089	-0.082
-614.288	216.098	-0.017	0.027
-613.273	800.000	0.086	0.298
-612.259	-110.471	0.399	-0.083
-611.244	-110.841	0.121	0.025
-610.230	233.837	-0.156	0.258
-609.215	800.000	0.070	0.237
-608.201	-22.020	0.098	0.060
-607.186	81.228	-0.196	-0.213
-606.171	434.970	-0.063	0.138
-605.157	-200.000	-0.014	-0.328
-604.142	262.487	-0.167	-0.292
-603.128	60.803	-0.170	-0.170
-602.113	800.000	-0.004	0.014
-601.098	-153.260	-0.350	-0.025
-600.084	690.109	-0.102	-0.269
-599.069	73.828	0.102	-0.107
-598.055	-88.599	-0.187	-0.056
-597.040	463.020	-0.183	0.411
-596.025	800.000	0.081	-0.341
-595.011	-140.940	0.287	-0.030
-593.996	-200.000	0.043	-0.254
-592.982	800.000	-0.069	-0.247
-591.967	800.000	-0.023	-0.096
-590.952	-12.328	0.016	0.010
-589.938	140.831	-0.181	0.241
-588.923	277.073	-0.052	-0.093
-587.909	33.368	-0.112	-0.098
-586.894	-30.120	0.245	0.140
-585.879	-123.043	0.267	0.043
-584.865	428.086	0.120	-0.262
-583.850	-200.000	-0.066	-0.307
-582.836	55.781	-0.054	-0.052
-581.821	-53.959	0.264	-0.121
-580.806	62.748	-0.252	0.253
-579.792	17.960	-0.076	0.061
-578.777	-4.153	-0.139	0.097
-577.763	-200.000	-0.011	0.261
-576.748	-71.971	0.369	-0.138
-575.733	800.000	-0.054	-0.235
-574.719	-59.017	-0.389	0.169
-573.704	-200.000	-0.019	-0.309
-572.690	-34.967	0.255	-0.140
-571.675	29.132	0.206	-0.176
-570.661	-141.778	0.434	-0.044
-569.646	-86.905	0.084	-0.026
-568.631	800.000	-0.055	-0.211
-567.617	-57.453	-0.267	0.118
-566.602	-3.521	-0.241	-0.168
-565.588	-107.878	0.101	-0.022
-564.573	-126.707	0.245	0.036
-563.558	138.842	-0.079	-0.105
-562.544	800.000	-0.052	-0.225
-561.529	-200.000	0.053	0.291
-560.515	101.633	0.219	-0.257
-559.500	-104.003	-0.070	-0.016
-558.485	-200.000	0.002	-0.260
-557.471	-12.246	-0.294	0.193
-556.456	-25.323	-0.430	0.256
-555.442	-8.757	-0.029	-0.020
-554.427	486.652	-0.054	0.123
-553.412	111.082	0.053	0.064
-552.398	-84.162	-0.202	0.064
-551.383	301.994	0.168	-0.312
-550.369	-44.357	-0.121	0.061
-549.354	16.046	-0.119	-0.094
-548.339	-200.000	0.002	0.068
-547.325	102.173	0.115	-0.135
-546.310	83.889	-0.360	-0.394
-545.296	602.749	0.085	-0.213
-544.281	-200.000	0.023	-0.285
-543.266	-150.413	-0.277	0.021
-542.252	13.528	0.161	-0.125
-541.237	86.981	-0.117	-0.130
-540.223	-33.726	0.056	-0.031
-539.208	-96.283	-0.070	-0.019
-538.193	440.012	-0.021	-0.045
-537.179	16.072	-0.065	-0.052
-536.164	-22.913	-0.277	0.168
-535.150	-28.980	-0.162	0.093
-534.135	800.000	-0.077	0.270
-533.121	570.357	0.023	-0.056
-532.106	-200.000	-0.002	0.040
-531.091	-200.000	0.023	0.184
-530.077	-200.000	0.093	-0.429
-529.062	204.360	0.099	-0.154
-528.048	-113.922	0.212	-0.041
-527.033	-181.877	-0.465	-0.009
-526.018	-1.469	-0.261	0.185
-525.004	-200.000	0.022	-0.217
-523.989	-62.663	-0.204	-0.085
-522.975	-182.444	-0.313	-0.006
-521.960	-200.000	0.026	-0.155
-520.945	-200.000	0.044	-0.204
-519.931	-138.778	0.618	0.068
-518.916	-200.000	-0.005	-0.068
-517.902	165.086	0.144	0.205
-516.887	681.455	-0.091	-0.238
-515.872	5.795	0.327	-0.243
-514.858	98.126	0.132	-0.152
-513.843	-61.896	0.020	0.008
-512.829	544.438	-0.027	-0.065
-511.814	-200.000	-0.002	0.272
-510.799	89.026	-0.202	-0.226
-509.785	-142.600	0.418	0.041
-508.770	-46.579	-0.197	-0.097
-507.756	12.483	-0.050	0.038
-506.741	321.571	-0.176	0.337
-505.726	204.207	0.082	-0.128
-504.712	-200.000	0.024	0.291
-503.697	-139.658	-0.472	0.050
-502.683	-109.743	-0.058	0.012
-501.668	291.237	-0.078	0.143
-500.653	-200.000	-0.021	0.108
-499.639	230.113	0.097	-0.159
-498.624	800.000	0.034	-0.141
-497.610	17.778	0.069	0.055
-496.595	-190.201	-0.094	0.001
-495.581	-139.768	-0.301	-0.032
-494.566	186.907	0.182	0.272
-493.551	-195.694	0.285	-0.002
-492.537	31.350	-0.258	-0.222
-491.522	-132.942	0.266	-0.034
-490.508	242.029	0.027	-0.046
-489.493	-200.000	-0.004	-0.260
-488.478	99.615	0.030	0.035
-487.464	-100.672	0.152	-0.038
-486.449	-101.150	-0.218	0.053
-485.435	-200.000	-0.005	-0.251
-484.420	-119.177	0.220	0.039
-483.405	140.481	-0.083	0.109
-482.391	-84.294	-0.190	-0.060
-481.376	264.145	-0.108	0.188
-480.362	75.036	-0.126	-0.133
-479.347	-15.147	-0.208	-0.133
-478.332	-77.455	0.051	-0.018
-477.318	-200.000	0.044	-0.462
-476.303	-200.000	0.009	0.090
-475.289	-200.000	-0.007	0.459
-474.274	-45.952	0.203	0.100
-473.259	-51.035	0.141	-0.066
-472.245	-63.536	-0.210	0.086
-471.230	800.000	0.102	0.287
-470.216	-200.000	0.034	0.323
-469.201	-104.739	0.385	0.089
-468.186	-115.984	0.283	0.053
-467.172	301.786	-0.014	0.026
-466.157	58.412	-0.149	-0.147
-465.143	20.297	-0.165	0.133
-464.128	348.462	-0.057	0.112
-463.113	-69.861	0.327	0.125
-462.099	15.323	0.294	0.231
-461.084	52.246	-0.272	-0.259
-460.070	-154.734	0.163	0.011
-459.055	-193.253	-0.254	0.002
-458.040	-32.184	0.112	-0.063
-457.026	-200.000	-0.043	-0.190
-456.011	88.561	-0.075	-0.084
-454.997	-200.000	-0.011	-0.145
-453.982	113.700	0.152	-0.185
-452.968	800.000	-0.071	-0.208
-451.953	-200.000	0.290	-0.000
-450.938	377.762	0.087	-0.178
-449.924	800.000	0.102	-0.355
-448.909	686.390	-0.035	0.092
-447.895	85.678	0.148	0.163
-446.880	309.136	-0.085	-0.160
-445.865	390.923	-0.111	-0.231
-444.851	197.075	0.168	-0.256
-443.836	-56.188	0.209	-0.093
-442.822	-79.156	-0.050	0.017
-441.807	-107.418	0.100	0.022
-440.792	-158.547	0.036	0.002
-439.778	-200.000	-0.028	0.479
-438.763	560.051	0.052	0.126
-437.749	-153.762	-0.259	0.018
-436.734	-14.096	-0.214	-0.138
-435.719	-19.523	0.210	0.130
-434.705	-134.759	0.266	-0.032
-433.690	-200.000	-0.028	-0.178
-432.676	128.193	0.207	0.264
-431.661	800.000	0.037	0.108
-430.646	147.677	-0.184	0.247
-429.632	-114.783	-0.143	0.027
-428.617	363.380	-0.197	0.396
-427.603	48.470	0.194	0.182
-426.588	-41.297	0.125	-0.064
-425.573	104.529	0.140	0.165
-424.559	-58.472	0.563	0.244
-423.544	-200.000	-0.048	-0.244
-422.530	-200.000	-0.134	0.000
-421.515	-161.753	-0.105	0.005
-420.500	14.812	0.054	-0.043
-419.486	-26.863	0.132	-0.077
-418.471	53.864	0.071	-0.069
-417.457	-200.000	0.069	-0.464
-416.442	-10.906	-0.215	0.142
-415.428	682.011	0.046	-0.119
-414.413	-200.000	-0.038	-0.252
-413.398	-200.000	-0.058	-0.373
-412.384	-106.759	0.110	0.024
-411.369	80.824	-0.168	0.182
-410.355	387.553	-0.111	0.229
-409.340	421.722	0.281	0.602
-408.325	-101.562	0.189	0.046
-407.311	208.227	-0.138	-0.216
-406.296	-200.000	0.008	-0.357
-405.282	-108.814	-0.314	-0.067
-404.267	-200.000	0.027	-0.243
-403.252	-142.177	-0.256	0.025
-402.238	-64.707	-0.078	-0.032
-401.223	-17.188	-0.097	-0.061
-400.209	60.048	0.206	-0.204
-399.194	-200.000	0.007	-0.122
-398.179	-108.523	-0.282	0.061
-397.165	800.000	0.023	-0.072
-396.150	213.316	-0.206	0.326
-395.136	55.169	0.239	-0.231
-394.121	-41.786	-0.331	-0.169
-393.106	-200.000	0.005	0.052
-392.092	-104.750	0.079	-0.018
-391.077	58.308	-0.337	0.330
-390.063	18.979	0.174	0.139
-389.048	71.282	0.091	0.094
-388.033	-64.900	0.196	0.079
-387.019	-12.581	-0.215	0.140
-386.004	102.619	0.146	-0.170
-384.990	-108.428	-0.300	-0.065
-383.975	81.746	0.161	0.174
-382.960	8.313	-0.149	-0.112
-381.946	-200.000	-0.005	0.100
-380.931	-116.793	0.063	0.012
-379.917	634.042	-0.067	0.168
-378.902	-200.000	-0.035	0.363
-377.888	578.233	-0.102	0.248
-376.873	-182.090	-0.245	0.005
-375.858	20.142	0.186	-0.150
-374.844	128.718	0.074	0.094
-373.829	-45.216	-0.258	-0.128
-372.815	-200.000	0.037	-0.262
-371.800	178.039	0.044	-0.063
-370.785	-45.004	0.178	0.088
-369.771	-69.643	0.265	0.101
-368.756	105.457	-0.123	-0.145
-367.742	-200.000	0.009	0.059
-366.727	-62.301	0.474	-0.197
-365.712	-101.057	0.170	-0.042
-364.698	-200.000	0.006	0.051
-363.683	296.547	0.121	0.222
-362.669	-200.000	0.015	0.218
-361.654	0.410	0.249	0.178
-360.639	-27.963	-0.087	0.050
-359.625	85.448	-0.020	0.022
-358.610	800.000	-0.109	-0.415
-357.596	115.643	0.044	-0.054
-356.581	179.475	-0.115	-0.167
-355.566	-85.484	-0.237	0.074
-354.552	321.290	-0.146	0.277
-353.537	-163.968	-0.316	-0.015
-352.523	-168.293	0.235	-0.009
-351.508	-173.464	-0.354	-0.011
-350.493	440.431	-0.043	0.093
-349.479	800.000	-0.120	-0.412
-348.464	118.863	0.223	0.275
-347.450	-177.901	0.099	-0.002
-346.435	-200.000	0.018	-0.304
-345.420	178.593	-0.155	-0.225
-344.406	800.000	0.044	-0.150
-343.391	103.220	-0.105	0.123
-342.377	-139.148	0.237	0.026
-341.362	48.208	-0.367	0.342
-340.348	169.013	0.081	0.114
-339.333	447.117	0.078	0.171
-338.318	-126.221	-0.282	-0.042
-337.304	800.000	0.065	0.245
-336.289	-85.067	0.434	-0.136
-335.275	283.755	-0.061	-0.109
-334.260	-93.039	0.142	-0.039
-333.245	46.093	0.195	0.180
-332.231	344.658	-0.134	0.261
-331.216	792.150	-0.094	0.257
-330.202	800.000	-0.155	0.497
-329.187	-33.843	0.326	0.179
-328.172	-139.678	-0.260	0.028
-327.158	-200.000	-0.036	0.240
-326.143	-200.000	-0.046	0.266
-325.129	-200.000	0.084	0.445
-324.114	800.000	0.046	-0.198
-323.099	-98.264	0.095	0.024
-322.085	-27.027	-0.272	-0.158
-321.070	800.000	-0.068	0.206
-320.056	474.122	-0.064	-0.143
-319.041	800.000	0.035	0.122
-318.026	-200.000	0.038	0.168
-317.012	-94.160	0.050	0.014
-315.997	-200.000	-0.026	0.161
-314.983	101.553	0.146	-0.170
-313.968	-25.059	-0.402	-0.237
-312.953	380.241	0.163	-0.334
-311.939	-23.030	0.184	-0.110
-310.924	-112.588	-0.202	-0.040
-309.910	800.000	0.080	0.310
-308.895	271.633	-0.085	0.150
-307.880	436.932	-0.086	0.186
-306.866	-112.596	0.249	0.049
-305.851	-200.000	0.001	-0.225
-304.837	-49.756	-0.145	-0.069
-303.822	69.718	-0.135	0.138
-302.807	-32.687	-0.155	0.086
-301.793	-16.239	0.110	-0.069
-300.778	-12.325	0.204	-0.133
-299.764	-200.000	-0.054	0.278
-298.749	-25.639	-0.127	0.075
-297.735	474.972	0.084	0.188
-296.720	-82.725	0.031	-0.010
-295.705	-200.000	0.047	-0.277
-294.691	-200.000	0.002	0.118
-293.676	79.345	-0.175	-0.186
-292.662	126.269	0.230	0.289
-291.647	-49.438	-0.347	0.164
-290.632	800.000	-0.040	-0.133
-289.618	-87.732	0.427	0.128
-288.603	-41.265	0.069	-0.035
-287.589	-200.000	0.000	0.326
-286.574	-200.000	0.017	-0.110
-285.559	103.818	-0.075	-0.088
-284.545	800.000	-0.004	-0.014
-283.530	-200.000	-0.044	0.269
-282.516	-27.910	-0.255	0.147
-281.501	-141.347	0.316	0.032
-280.486	296.187	-0.091	0.167
-279.472	-137.429	0.046	-0.005
-278.457	105.022	0.258	-0.303
-277.443	-52.246	0.391	-0.180
-276.428	-180.850	-0.604	0.012
-275.413	-200.000	0.032	-0.145
-274.399	63.312	-0.044	-0.044
-273.384	800.000	-0.008	-0.024
-272.370	-200.000	-0.031	0.205
-271.355	199.127	0.090	0.137
-270.340	536.625	-0.105	-0.248
-269.326	-100.173	0.029	0.007
-268.311	-200.000	0.033	-0.220
-267.297	234.396	-0.060	0.098
-266.282	800.000	0.085	0.279
-265.267	-200.000	0.002	-0.194
-264.253	399.048	0.039	0.081
-263.238	352.823	0.046	0.091
-262.224	590.773	0.013	0.033
-261.209	-47.873	-0.132	-0.063
-260.195	645.367	0.040	0.100
-259.180	-2.687	-0.227	-0.158
-258.165	-91.233	0.301	-0.086
-257.151	-50.831	-0.069	-0.032
-256.136	-200.000	0.004	0.347
-255.122	25.855	-0.225	0.187
-254.107	800.000	0.028	0.085
-253.092	-84.428	0.193	-0.061
-252.078	79.922	0.289	-0.309
-251.063	-144.853	0.232	0.021
-250.049	4.742	-0.158	-0.115
-249.034	-77.805	0.234	0.080
-248.019	261.093	-0.145	0.249
-247.005	-200.000	0.006	-0.087
-245.990	196.428	0.129	-0.195
-244.976	-200.000	0.037	0.283
-243.961	-39.021	-0.096	-0.050
-242.946	257.546	-0.074	-0.126
-241.932	10.754	0.287	0.218
-240.917	-66.070	0.247	-0.098
-239.903	-109.078	-0.038	0.008
-238.888	-105.114	0.407	0.092
-237.873	24.211	-0.229	0.188
-236.859	127.505	0.107	-0.134
-235.844	-200.000	0.030	0.416
-234.830	-200.000	0.002	-0.153
-233.815	6.757	-0.265	-0.196
-232.800	800.000	-0.115	0.388
-231.786	382.619	-0.138	-0.281
-230.771	-114.892	0.410	-0.078
-229.757	-172.733	-0.029	0.001
-228.742	-20.172	0.302	-0.184
-227.727	181.354	-0.127	0.186
-226.713	716.158	-0.115	0.304
-225.698	23.808	-0.044	-0.036
-224.684	-200.000	-0.019	0.140
-223.669	375.212	-0.075	-0.152
-222.655	-103.226	-0.149	0.035
-221.640	-121.086	-0.224	0.037
-220.625	-200.000	0.004	-0.326
-219.611	507.849	-0.077	-0.177
-218.596	212.255	0.062	-0.096
-217.582	321.116	-0.089	-0.168
-216.567	81.973	0.080	0.085
-215.552	707.555	-0.110	-0.288
-214.538	800.000	-0.065	-0.227
-213.523	80.393	-0.218	0.233
-212.509	65.138	-0.087	0.087
-211.494	200.128	-0.076	-0.115
-210.479	127.911	-0.084	0.106
-209.465	639.675	0.134	0.339
-208.450	60.176	-0.223	0.219
-207.436	158.014	0.218	0.299
-206.421	-28.306	0.032	0.018
-205.406	800.000	-0.072	0.200
-204.392	-108.781	0.212	0.045
-203.377	47.845	-0.077	0.072
-202.363	469.416	-0.064	-0.142
-201.348	800.000	-0.064	-0.268
-200.333	22.400	-0.255	-0.207
-199.319	-60.350	-0.253	-0.107
-198.304	-8.654	0.229	-0.152
-197.290	-200.000	-0.010	-0.121
-196.275	17.826	-0.105	-0.082
-195.260	-68.223	-0.027	-0.011
-194.246	-58.421	-0.303	-0.130
-193.231	-49.175	0.200	-0.095
-192.217	-118.243	0.373	-0.066
-191.202	235.264	0.090	0.148
-190.187	-6.493	-0.120	0.081
-189.173	164.450	-0.205	0.286
-188.158	-200.000	0.056	0.245
-187.144	279.301	-0.065	-0.115
-186.129	119.174	0.224	0.274
-185.114	-200.000	0.026	-0.217
-184.100	800.000	-0.085	0.327
-183.085	40.527	0.145	0.130
-182.071	6.816	0.066	0.048
-181.056	-86.212	-0.181	-0.055
-180.042	-200.000	-0.004	0.216
-179.027	-131.079	-0.081	-0.011
-178.012	-104.515	-0.230	0.053
-176.998	-200.000	0.044	-0.277
-175.983	-134.231	0.275	-0.034
-174.969	-200.000	-0.031	0.140
-173.954	-200.000	-0.094	0.563
-172.939	4.792	-0.301	-0.219
-171.925	252.279	-0.159	-0.269
-170.910	-44.177	0.237	0.118
-169.896	45.162	0.119	-0.108
-168.881	-180.987	0.186	-0.004
-167.866	221.067	0.081	-0.128
-166.852	253.144	0.171	-0.289
-165.837	-200.000	-0.072	-0.408
-164.823	245.667	0.037	-0.062
-163.808	-200.000	-0.052	-0.290
-162.793	53.378	0.150	-0.143
-161.779	-161.400	-0.139	0.007
-160.764	12.636	0.311	0.238
-159.750	-79.782	0.382	-0.127
-158.735	-100.089	0.216	0.053
-157.720	-200.000	0.059	-0.295
-156.706	58.415	-0.156	-0.151
-155.691	-200.000	0.039	0.402
-154.677	-35.555	0.046	-0.025
-153.662	-200.000	-0.021	0.092
-152.647	429.934	0.055	-0.118
-151.633	800.000	-0.077	0.282
-150.618	14.994	0.276	0.214
-149.604	-200.000	0.031	0.176
-148.589	-22.112	-0.160	0.096
-147.574	-149.000	0.250	0.020
-146.560	-154.640	-0.367	0.024
-145.545	77.747	-0.092	-0.097
-144.531	-200.000	0.040	-0.274
-143.516	-22.601	-0.103	-0.062
-142.502	-200.000	0.048	0.300
-141.487	64.273	0.168	0.167
-140.472	701.221	-0.084	-0.219
-139.458	118.922	-0.088	0.108
-138.443	-200.000	0.029	0.329
-137.429	-116.233	-0.162	0.030
-136.414	-125.388	-0.317	-0.048
-135.399	232.116	0.134	0.217
-134.385	-157.695	0.348	0.020
-133.370	132.079	-0.269	-0.342
-132.356	113.279	-0.274	0.329
-131.341	-91.193	-0.237	0.067
-130.326	9.783	0.243	0.182
-129.312	-154.056	-0.170	0.011
-128.297	-111.272	0.333	-0.067
-127.283	-186.108	-0.031	-0.000
-126.268	222.225	0.038	0.060
-125.253	-51.005	0.144	-0.067
-124.239	-51.220	0.120	-0.055
-123.224	-151.758	0.247	-0.018
-122.210	-200.000	-0.026	0.117
-121.195	-200.000	0.025	-0.116
-120.180	-71.212	0.254	0.094
-119.166	-200.000	0.026	0.441
-118.151	-200.000	-0.036	0.231
-117.137	-20.136	-0.129	-0.078
-116.122	117.749	0.134	-0.163
-115.107	800.000	-0.073	0.265
-114.093	800.000	0.070	0.272
-113.078	-43.469	-0.176	0.088
-112.064	440.043	-0.037	0.079
-111.049	-168.492	0.027	0.001
-110.034	321.073	0.087	-0.163
-109.020	-3.688	0.292	-0.200
-108.005	245.259	-0.059	0.099
-106.991	319.384	-0.076	0.143
-105.976	221.270	-0.040	0.063
-104.962	-200.000	0.002	0.165
-103.947	-8.740	0.204	-0.135
-102.932	-36.297	0.050	-0.027
-101.918	150.979	-0.118	-0.159
-100.903	-200.000	0.022	0.299
-99.889	-27.880	-0.328	0.188
-98.874	205.259	-0.173	-0.265
-97.859	114.143	0.144	-0.173
-96.845	-200.000	-0.004	0.269
-95.830	144.127	0.158	-0.208
-94.816	-20.433	-0.293	0.178
-93.801	-162.517	-0.049	0.002
-92.786	-57.703	0.380	0.164
-91.772	-56.248	-0.230	-0.101
-90.757	-17.223	0.280	-0.174
-89.743	-200.000	-0.039	-0.214
-88.728	88.368	-0.079	-0.087
-87.713	204.257	-0.109	0.166
-86.699	190.243	0.122	0.181
-85.684	-137.097	0.034	-0.004
-84.670	800.000	0.056	0.198
-83.655	-103.016	0.117	0.027
-82.640	-121.499	-0.133	-0.022
-81.626	152.179	0.178	0.240
-80.611	-1.387	-0.095	0.066
-79.597	103.327	0.212	0.245
-78.582	380.149	0.072	0.146
-77.567	-92.007	-0.213	-0.059
-76.553	-17.470	0.060	-0.037
-75.538	226.668	0.120	0.192
-74.524	-155.571	0.140	-0.009
-73.509	111.802	0.135	-0.161
-72.494	68.317	0.274	-0.277
-71.480	800.000	0.079	-0.243
-70.465	156.902	-0.126	0.172
-69.451	302.176	-0.045	-0.083
-68.436	123.567	-0.169	0.209
-67.422	158.948	-0.102	0.140
-66.407	-200.000	-0.028	0.138
-65.392	-96.501	0.143	-0.037
-64.378	-165.073	0.166	-0.007
-63.363	-74.975	-0.186	0.066
-62.349	-90.923	-0.118	0.034
-61.334	192.029	-0.609	-0.906
-60.319	-167.985	0.335	0.013
-59.305	800.000	-0.315	-1.287
-58.290	66.988	0.903	0.907
-57.276	392.793	0.824	1.688
-56.261	-200.000	95.051	572.347
-55.246	646.591	1374.755	3460.505
-54.232	198.977	2545.393	3841.544
-53.217	118.366	2161.354	2627.113
-52.203	43.168	1707.915	1535.844
-51.188	35.875	1521.439	1318.373
-50.173	33.532	1494.340	1279.056
-49.159	52.486	1542.657	1450.749
-48.144	54.243	1560.166	1479.205
-47.130	36.019	1520.289	1318.152
-46.115	32.869	1506.110	1284.411
-45.100	32.826	1502.327	1280.840
-44.086	32.726	1500.921	1278.915
-43.071	32.722	1498.718	1276.961
-42.057	32.707	1497.314	1275.614
-41.042	32.661	1495.792	1273.952
-40.027	32.745	1493.960	1272.911
-39.013	32.701	1492.645	1271.442
-37.998	32.554	1491.654	1269.556
-36.984	32.681	1490.275	1269.190
-35.969	32.735	1489.060	1268.468
-34.954	32.691	1487.772	1267.026
-33.940	32.715	1486.390	1265.959
-32.925	32.746	1484.862	1264.810
-31.911	32.778	1483.072	1263.456
-30.896	32.763	1482.132	1262.498
-29.881	32.748	1481.178	1261.541
-28.867	32.752	1479.024	1259.683
-27.852	32.798	1477.520	1258.656
-26.838	32.773	1476.426	1257.505
-25.823	32.700	1475.081	1255.827
-24.809	32.791	1472.808	1254.445
-23.794	32.675	1471.619	1252.611
-22.779	32.725	1470.848	1252.242
-21.765	32.800	1469.345	1251.405
-20.750	32.703	1468.477	1249.976
-19.736	32.731	1467.046	1248.890
-18.721	32.708	1466.318	1248.071
-17.706	32.702	1465.112	1246.956
-16.692	32.668	1464.273	1245.964
-15.677	32.638	1463.251	1244.849
-14.663	32.660	1462.202	1244.050
-13.648	32.655	1460.941	1242.896
-12.633	32.675	1459.969	1242.152
-11.619	32.659	1459.358	1241.481
-10.604	32.610	1458.573	1240.442
-9.590	32.610	1457.649	1239.604
-8.575	32.625	1456.975	1239.081
-7.560	32.592	1455.769	1237.787
-6.546	32.689	1454.940	1237.670
-5.531	32.552	1454.349	1236.222
-4.517	32.601	1453.008	1235.357
-3.502	32.537	1452.750	1234.667
-2.487	32.619	1451.104	1233.753
-1.473	32.558	1450.156	1232.499
-0.458	32.646	1448.779	1231.854
0.556	31.803	1439.029	1220.680
1.571	28.958	1413.802	1180.941
2.586	25.460	1353.116	1108.613
3.600	23.609	1272.093	1031.389
4.615	22.299	1226.305	986.837
5.629	19.285	1169.638	925.000
6.644	11.498	1086.941	820.538
7.659	5.622	1046.598	761.508
8.673	4.768	1041.494	753.595
9.688	4.765	1038.362	751.246
10.702	4.624	1037.208	749.664
11.717	4.734	1034.700	748.315
12.731	6.882	1036.617	759.976
13.746	14.003	1046.684	801.757
14.761	19.099	1052.980	831.181
15.775	18.945	1051.337	829.069
16.790	17.769	1049.036	821.518
17.804	16.800	1047.169	815.324
18.819	15.922	1044.748	809.149
19.834	15.464	1043.607	805.997
20.848	15.185	1042.852	804.002
21.863	14.976	1041.976	802.253
22.877	14.717	1041.522	800.592
23.892	14.552	1040.785	799.165
24.907	14.399	1040.108	797.839
25.921	14.405	1039.035	796.978
26.936	14.547	1038.395	797.093
27.950	14.524	1037.122	795.937
28.965	14.609	1035.976	795.390
29.980	14.695	1035.134	795.082
30.994	14.822	1033.992	794.738
32.009	14.881	1033.054	794.229
33.023	14.779	1032.486	793.237
34.038	14.749	1032.104	792.729
35.053	14.707	1030.711	791.394
36.067	14.671	1029.660	790.345
37.082	14.579	1029.322	789.580
38.096	14.664	1028.387	789.195
39.111	14.638	1027.686	788.467
40.126	14.725	1026.786	788.113
41.140	14.716	1025.288	786.853
42.155	14.542	1023.986	784.964
43.169	14.320	1023.209	783.255
44.184	14.398	1022.187	782.769
45.199	14.335	1021.307	781.730
46.213	14.496	1019.851	781.305
47.228	14.370	1019.473	780.354
48.242	14.610	1018.388	780.580
49.257	14.515	1017.484	779.373
50.271	14.645	1016.213	778.936
51.286	14.661	1015.245	778.197
52.301	14.607	1014.971	777.669
53.315	14.789	1013.833	777.575
54.330	14.609	1013.346	776.296
55.344	14.290	1012.465	774.070
56.359	14.548	1011.108	774.163
57.374	14.337	1010.725	772.823
58.388	14.545	1009.644	772.890
59.403	14.471	1008.828	771.852
60.417	14.370	1008.051	770.724
61.432	14.323	1007.525	770.034
62.447	14.208	1007.087	769.103
63.461	14.301	1005.896	768.553
64.476	14.262	1004.737	767.418
65.490	14.254	1004.025	766.773
66.505	14.174	1003.056	765.597
67.520	14.262	1002.641	765.617
68.534	14.332	1001.836	765.255
69.549	14.312	1001.100	764.534
70.563	14.347	1000.215	763.950
71.578	14.292	999.710	763.247
72.593	14.272	998.748	762.350
73.607	14.249	997.652	761.343
74.622	14.279	996.512	760.540
75.636	14.273	995.714	759.836
76.651	14.090	995.165	758.517
77.666	14.165	994.517	758.298
78.680	14.262	993.807	758.131
79.695	14.183	993.240	757.273
80.709	14.264	992.824	757.254
81.724	14.239	992.133	756.547
82.739	14.353	990.760	755.954
83.753	14.521	990.035	756.095
84.768	14.586	989.575	755.971
85.782	14.627	988.784	755.483
86.797	14.841	988.163	755.912
87.812	14.748	987.321	754.778
88.826	14.597	986.726	753.575
89.841	14.593	985.755	752.749
90.855	14.588	984.887	751.997
91.870	14.757	983.916	751.949
92.884	14.775	983.781	751.864
93.899	14.811	983.077	751.417
94.914	14.673	982.210	750.069
95.928	14.823	981.437	750.088
96.943	14.803	980.781	749.430
97.957	14.739	979.963	748.453
98.972	14.716	979.039	747.575
99.987	14.606	978.743	746.793
101.001	14.710	977.966	746.598
102.016	14.736	977.388	746.206
103.030	14.577	976.426	744.695
104.045	14.647	975.140	743.964
105.060	14.822	974.408	744.116
106.074	14.589	973.648	742.436
107.089	14.435	972.878	741.098
108.103	14.447	971.402	739.959
109.118	14.371	970.810	739.108
110.133	14.339	969.818	738.145
111.147	14.298	968.908	737.207
112.162	14.339	968.327	736.881
113.176	14.434	967.248	736.411
114.191	14.449	966.647	735.958
115.206	14.554	965.904	735.789
116.220	14.463	964.774	734.463
117.235	14.523	963.759	733.889
118.249	14.401	963.257	732.905
119.264	14.510	962.438	732.696
120.279	14.510	961.460	731.883
121.293	14.323	960.471	730.250
122.308	14.365	959.997	730.006
123.322	14.422	959.170	729.566
124.337	14.285	958.241	728.192
125.352	14.262	956.848	726.968
126.366	14.295	956.665	726.911
127.381	14.169	955.617	725.502
128.395	14.354	954.245	725.201
129.410	14.450	953.042	724.641
130.424	14.287	952.598	723.528
131.439	14.331	951.647	722.933
132.454	14.343	950.468	722.028
133.468	14.506	950.513	722.703
134.483	14.530	949.718	722.140
135.497	14.477	948.994	721.294
136.512	14.546	948.048	720.809
137.527	14.436	947.703	720.010
138.541	14.475	946.590	719.270
139.556	14.641	945.816	719.331
140.570	14.474	944.697	717.698
141.585	14.633	944.328	718.039
142.600	14.775	943.829	718.205
143.614	14.697	943.004	717.180
144.629	14.738	942.068	716.582
145.643	14.743	941.603	716.185
146.658	14.871	940.592	715.902
147.673	14.739	939.828	714.690
148.687	14.657	938.670	713.396
149.702	14.560	938.075	712.465
150.716	14.462	937.420	711.487
151.731	14.476	936.578	710.848
152.746	14.592	935.361	710.355
153.760	14.678	934.736	710.180
154.775	14.747	933.963	709.824
155.789	14.618	933.220	708.648
156.804	14.844	932.538	709.029
157.819	14.755	931.890	708.097
158.833	14.673	931.015	707.020
159.848	14.672	931.012	706.952
160.862	14.700	930.224	706.407
161.877	14.829	929.378	706.251
162.892	14.717	928.544	705.080
163.906	14.689	927.358	703.998
164.921	14.604	926.745	703.113
165.935	14.633	925.452	702.193
166.950	14.665	924.790	701.761
167.964	14.776	923.849	701.453
168.979	14.696	923.096	700.481
169.994	14.561	922.050	699.060
171.008	14.672	921.099	698.745
172.023	14.659	920.558	698.217
173.037	14.813	919.554	698.036
174.052	14.896	919.104	697.979
175.067	14.869	918.241	697.151
176.081	14.718	917.760	696.093
177.096	14.582	917.088	694.958
178.110	14.668	916.386	694.721
179.125	14.810	915.374	694.483
180.140	14.749	914.239	693.306
181.154	14.771	913.852	693.043
182.169	14.753	913.500	692.638
183.183	15.076	912.336	693.034
184.198	15.035	912.002	692.548
185.213	15.023	911.378	691.964
186.227	14.801	911.261	690.895
187.242	15.013	909.832	690.625
188.256	15.004	909.516	690.290
189.271	14.983	908.969	689.726
190.286	15.099	908.356	689.676
191.300	14.994	907.190	688.300
192.315	14.800	906.228	686.711
193.329	14.685	905.783	685.843
194.344	14.594	905.432	685.143
195.359	14.742	904.611	685.065
196.373	14.816	904.102	684.924
197.388	14.944	903.504	684.932
198.402	15.112	903.049	685.216
199.417	15.283	902.423	685.377
200.432	15.205	902.405	684.984
201.446	15.336	901.577	684.830
202.461	15.265	901.299	684.268
203.475	15.506	900.689	684.729
204.490	15.406	900.027	683.756
205.504	15.337	898.918	682.575
206.519	15.375	898.367	682.252
207.534	15.208	897.631	680.954
208.548	15.191	896.659	680.087
209.563	15.191	896.084	679.589
210.577	15.240	895.755	679.476
211.592	15.192	894.992	678.646
212.607	15.348	894.679	678.981
213.621	15.475	894.190	679.061
214.636	15.516	893.116	678.353
215.650	15.349	892.785	677.366
216.665	15.261	892.432	676.685
217.680	15.408	891.694	676.657
218.694	15.430	891.347	676.422
219.709	15.564	890.648	676.370
220.723	15.618	889.597	675.731
221.738	15.450	889.167	674.667
222.753	15.447	888.505	674.097
223.767	15.481	887.609	673.492
224.782	15.448	887.534	673.242
225.796	15.525	886.471	672.687
226.811	15.745	885.682	672.908
227.826	15.575	885.463	672.002
228.840	15.606	884.599	671.408
229.855	15.563	883.568	670.395
230.869	15.501	883.077	669.715
231.884	15.555	882.147	669.168
232.899	15.505	881.652	668.535
233.913	15.388	881.290	667.734
234.928	15.365	880.328	666.854
235.942	15.548	879.248	666.704
236.957	15.269	879.043	665.384
237.972	15.501	878.214	665.617
238.986	15.466	877.918	665.193
240.001	15.590	876.752	664.745
241.015	15.433	876.620	663.965
242.030	15.499	875.916	663.631
243.045	15.581	875.017	663.216
244.059	15.539	874.567	662.651
245.074	15.640	873.965	662.533
246.088	15.663	873.376	662.120
247.103	15.778	872.725	662.021
248.117	15.658	872.413	661.252
249.132	15.821	871.901	661.445
250.147	15.958	871.517	661.634
251.161	16.030	871.082	661.530
252.176	16.082	870.536	661.260
253.190	16.210	869.279	660.748
254.205	16.186	868.656	660.119
255.220	16.175	868.358	659.792
256.234	16.190	867.538	659.170
257.249	16.146	866.898	658.456
258.263	16.180	866.451	658.189
259.278	16.112	865.936	657.475
260.293	16.257	865.361	657.545
261.307	16.186	865.057	656.980
262.322	16.383	864.030	656.909
263.336	16.348	863.425	656.252
264.351	16.376	862.524	655.618
265.366	16.356	862.331	655.336
266.380	16.280	861.760	654.550
267.395	16.433	861.259	654.704
268.409	16.329	860.234	653.463
269.424	16.245	859.823	652.772
270.439	16.353	859.010	652.513
271.453	16.320	857.956	651.527
272.468	16.291	857.073	650.687
273.482	16.203	856.776	650.065
274.497	16.298	856.166	649.911
275.512	16.227	855.938	649.405
276.526	16.098	854.961	648.113
277.541	16.161	854.684	648.086
278.555	16.265	853.761	647.728
279.570	16.399	853.565	648.038
280.585	16.497	853.162	648.048
281.599	16.460	852.570	647.401
282.614	16.484	852.065	647.051
283.628	16.406	851.033	645.912
284.643	16.409	850.679	645.597
285.657	16.468	849.894	645.168
286.672	16.536	849.102	644.772
287.687	16.437	849.027	644.280
288.701	16.411	848.657	643.844
289.716	16.535	847.857	643.651
290.730	16.518	847.604	643.336
291.745	16.539	847.044	642.934
292.760	16.515	846.024	642.011
293.774	16.629	845.283	641.824
294.789	16.740	844.757	641.791
295.803	16.644	844.604	641.252
296.818	16.700	843.524	640.587
297.833	16.524	843.176	639.601
298.847	16.599	842.341	639.194
299.862	16.619	841.820	638.817
300.876	16.649	841.222	638.422
301.891	16.611	840.749	637.862
302.906	16.686	840.310	637.755
303.920	16.756	839.433	637.297
304.935	16.872	838.582	637.029
305.949	16.863	838.850	637.146
306.964	16.874	837.753	636.295
307.979	16.725	837.308	635.342
308.993	16.763	836.494	634.813
310.008	16.903	836.413	635.220
311.022	16.951	835.518	634.661
312.037	16.976	835.233	634.482
313.052	16.754	835.009	633.427
314.066	16.866	833.716	632.806
315.081	16.803	833.061	632.018
316.095	16.760	832.627	631.473
317.110	16.767	832.374	631.252
318.125	16.754	831.584	630.548
319.139	16.817	831.273	630.492
320.154	16.794	830.738	629.945
321.168	16.708	830.155	629.127
322.183	16.857	829.631	629.230
323.197	16.880	828.987	628.768
324.212	16.888	828.912	628.684
325.227	16.934	828.157	628.230
326.241	16.911	827.521	627.606
327.256	17.067	826.588	627.418
328.270	16.963	826.502	626.914
329.285	16.980	825.675	626.292
330.300	16.960	825.201	625.804
331.314	16.842	824.802	625.013
332.329	16.898	823.891	624.474
333.343	17.015	823.481	624.536
334.358	17.149	822.561	624.278
335.373	17.162	821.957	623.809
336.387	17.008	821.987	623.212
337.402	17.028	821.520	622.875
338.416	17.071	821.321	622.828
339.431	17.144	820.250	622.230
340.446	17.382	819.914	622.790
341.460	17.200	819.722	621.924
342.475	17.315	818.976	621.721
343.489	17.374	818.206	621.297
344.504	17.402	817.808	621.044
345.519	17.508	817.406	621.071
346.533	17.430	817.048	620.459
347.548	17.605	816.372	620.527
348.562	17.366	816.010	619.327
349.577	17.448	814.578	618.483
350.592	17.281	814.278	617.595
351.606	17.217	813.819	616.960
352.621	17.287	813.274	616.747
353.635	17.260	813.300	616.612
354.650	17.323	812.780	616.393
355.665	17.509	812.023	616.436
356.679	17.470	811.684	615.985
357.694	17.428	811.569	615.690
358.708	17.448	810.663	615.022
359.723	17.527	810.037	614.778
360.738	17.635	809.895	615.006
361.752	17.505	809.500	614.181
362.767	17.515	809.040	613.815
363.781	17.581	808.752	613.779
364.796	17.570	808.211	613.276
365.810	17.703	807.586	613.225
366.825	17.865	807.375	613.592
367.840	17.886	807.138	613.432
368.854	17.866	806.728	612.997
369.869	17.892	805.886	612.395
370.883	17.703	805.425	611.312
371.898	17.792	804.603	610.954
372.913	17.867	804.155	610.828
373.927	17.753	803.919	610.188
374.942	17.924	803.027	610.066
375.956	17.886	802.057	609.141
376.971	17.912	801.778	608.967
377.986	17.893	801.290	608.474
379.000	18.146	801.082	609.166
380.015	18.132	800.617	608.706
381.029	17.880	800.260	607.486
382.044	17.980	799.380	607.119
383.059	18.043	798.716	606.785
384.073	18.129	798.209	606.651
385.088	18.028	797.837	605.956
386.102	17.907	797.318	605.079
387.117	17.911	796.687	604.562
388.132	18.033	796.041	604.451
389.146	18.078	795.642	604.251
390.161	17.950	795.739	603.820
391.175	17.975	795.337	603.551
392.190	18.068	795.000	603.568
393.205	18.057	794.353	602.987
394.219	17.810	794.154	601.910
395.234	18.026	793.357	602.014
396.248	18.042	792.645	601.475
397.263	17.932	792.046	600.582
398.278	17.999	791.430	600.296
399.292	17.948	791.355	600.008
400.307	17.873	790.546	599.077
401.321	17.852	790.854	599.183
402.336	17.900	790.388	598.948
403.350	17.987	789.497	598.523
404.365	18.159	789.038	598.726
405.380	18.087	788.915	598.328
406.394	18.221	788.527	598.447
407.409	18.160	788.025	597.800
408.423	18.203	787.526	597.519
409.438	18.458	787.240	598.141
410.453	18.458	786.844	597.787
411.467	18.407	786.361	597.188
412.482	18.477	785.932	597.053
413.496	18.520	785.161	596.565
414.511	18.424	785.204	596.210
415.526	18.404	784.989	595.924
416.540	18.487	784.399	595.713
417.555	18.614	784.005	595.802
418.569	18.508	783.440	594.952
419.584	18.529	782.891	594.554
420.599	18.554	782.731	594.469
421.613	156.174	1369.863	1794.615
422.628	134.847	1455.378	1794.705
