DTS Sentinel unit serial number:	SN413079Multiplexer serial number:	ORYXHardware model number:	OX4-SRSoftware version number:	ORYX F/W v4.00 Oryx Data Collector v3.7.2.0data status	okinstallation	princeton_trtdifferential loss correction	single-endedforward channel	channel 3reverse channel	N/Adate	2019/09/18time	10:32:34forward acquisition time	60.00reverse acquisition time	0.00gamma	496.2192k internal	0.2330k external	0.2330temperature offset calibration	0.9954default loss term (dB/km)	0.3790temperature slope calibration	1.0000multiplexer offset coefficient	1.0000multiplexer slope coefficient	1.0000fibre end	0.00T internal ref (°C)	28.44T ext. ref 1 (°C)	0.36T ext. ref 2 (°C)	25.12length (m)	temperature (°C)	Stokes	anti-Stokes-747.200	444.827	0.131	-0.289
-746.185	-14.406	-0.119	-0.077
-745.171	-124.056	0.307	0.049
-744.156	43.746	-0.086	-0.079
-743.142	-92.290	-0.426	-0.121
-742.127	67.564	0.039	0.040
-741.112	-14.446	-0.126	0.082
-740.098	-157.745	-0.292	-0.017
-739.083	23.620	0.171	0.142
-738.069	201.398	0.059	0.091
-737.054	-168.746	-0.336	0.013
-736.039	58.031	-0.162	-0.159
-735.025	-40.863	-0.098	-0.051
-734.010	55.194	-0.160	0.156
-732.996	7.709	-0.124	-0.093
-731.981	-95.567	-0.199	-0.054
-730.966	522.067	0.071	0.168
-729.952	-200.000	0.031	0.145
-728.937	2.999	-0.124	-0.090
-727.923	800.000	-0.030	-0.096
-726.908	220.832	0.088	-0.142
-725.894	-200.000	-0.018	-0.185
-724.879	-0.559	-0.169	-0.121
-723.864	72.695	0.119	-0.125
-722.850	-192.102	-0.319	-0.003
-721.835	19.999	0.027	-0.022
-720.821	14.175	-0.136	-0.107
-719.806	-200.000	-0.009	-0.183
-718.791	119.839	-0.109	-0.136
-717.777	-36.771	-0.202	-0.109
-716.762	15.515	0.092	0.073
-715.748	-121.224	-0.446	-0.075
-714.733	254.211	-0.121	-0.208
-713.718	79.635	-0.020	-0.021
-712.704	-1.385	-0.089	0.063
-711.689	800.000	0.075	0.212
-710.675	20.175	0.177	0.144
-709.660	-111.439	0.278	-0.057
-708.645	-200.000	0.060	-0.281
-707.631	-106.599	0.162	0.036
-706.616	144.612	-0.081	-0.109
-705.602	-69.766	-0.130	0.050
-704.587	233.280	-0.163	-0.269
-703.572	155.130	-0.015	-0.020
-702.558	-200.000	-0.004	-0.177
-701.543	-200.000	0.043	-0.286
-700.529	-35.489	-0.345	-0.188
-699.514	-163.439	-0.109	0.005
-698.499	676.125	0.094	-0.244
-697.485	4.664	-0.185	0.137
-696.470	127.790	-0.112	-0.143
-695.456	237.834	0.135	-0.225
-694.441	-71.850	-0.040	0.015
-693.426	356.712	-0.086	0.172
-692.412	-12.001	-0.088	0.058
-691.397	305.817	0.126	0.235
-690.383	-200.000	-0.002	-0.029
-689.368	-24.354	0.147	-0.088
-688.354	-27.906	-0.126	0.073
-687.339	210.528	0.052	0.082
-686.324	176.472	0.084	-0.123
-685.310	123.963	0.102	-0.129
-684.295	-125.606	-0.196	-0.030
-683.281	-143.342	0.180	-0.017
-682.266	-52.523	-0.319	0.148
-681.251	28.726	-0.150	-0.128
-680.237	-134.939	0.133	-0.016
-679.222	286.777	0.071	0.128
-678.208	-47.994	0.289	0.141
-677.193	-200.000	0.031	0.218
-676.178	-10.439	-0.250	0.166
-675.164	299.337	-0.109	-0.202
-674.149	135.084	-0.048	0.062
-673.135	246.781	0.064	-0.108
-672.120	-162.232	0.243	0.012
-671.105	800.000	-0.075	0.241
-670.091	164.808	-0.261	-0.370
-669.076	-200.000	-0.037	-0.173
-668.062	8.259	0.070	-0.053
-667.047	-153.229	0.262	0.018
-666.032	-42.337	0.224	-0.115
-665.018	110.506	-0.081	0.098
-664.003	-62.515	-0.299	0.125
-662.989	-200.000	0.033	0.261
-661.974	-68.418	-0.160	-0.062
-660.959	-80.200	0.197	0.066
-659.945	-30.096	-0.146	-0.083
-658.930	800.000	0.076	0.215
-657.916	-101.282	0.160	0.039
-656.901	184.940	0.152	-0.227
-655.886	-39.241	-0.279	-0.147
-654.872	-4.711	0.156	0.108
-653.857	54.534	-0.132	-0.127
-652.843	800.000	-0.166	-0.491
-651.828	233.958	0.138	-0.228
-650.814	92.415	-0.108	-0.122
-649.799	442.644	0.069	0.152
-648.784	190.993	-0.070	0.105
-647.770	-200.000	-0.085	-0.726
-646.755	-38.463	0.229	0.122
-645.741	-96.988	0.157	-0.041
-644.726	42.322	-0.207	0.189
-643.711	-171.177	0.027	0.001
-642.697	-200.000	-0.050	-0.296
-641.682	-48.206	-0.263	0.127
-640.668	-200.000	-0.018	0.106
-639.653	-100.757	0.225	-0.056
-638.638	360.484	-0.173	-0.348
-637.624	-138.730	-0.146	-0.016
-636.609	629.598	-0.152	-0.386
-635.595	180.935	-0.136	-0.201
-634.580	-111.048	0.329	0.068
-633.565	5.040	-0.151	0.111
-632.551	66.236	0.232	0.237
-631.536	57.674	-0.096	0.094
-630.522	-101.840	0.200	-0.049
-629.507	-5.460	0.190	-0.131
-628.492	-149.376	0.250	0.020
-627.478	0.841	-0.058	0.042
-626.463	-33.185	-0.168	-0.093
-625.449	-2.706	-0.248	0.174
-624.434	800.000	-0.084	0.269
-623.419	127.822	0.245	-0.312
-622.405	131.164	-0.269	-0.347
-621.390	-106.538	-0.161	0.036
-620.376	-21.910	0.176	-0.107
-619.361	-42.635	0.186	0.095
-618.346	5.990	-0.338	-0.251
-617.332	-125.542	0.146	-0.022
-616.317	-134.090	-0.171	0.021
-615.303	800.000	-0.089	0.286
-614.288	27.070	-0.271	0.228
-613.273	345.138	-0.049	0.097
-612.259	3.321	-0.157	-0.114
-611.244	76.963	0.035	0.038
-610.230	15.108	-0.065	0.051
-609.215	800.000	0.064	0.229
-608.201	30.003	-0.269	0.230
-607.186	-200.000	0.031	-0.139
-606.171	800.000	0.008	-0.023
-605.157	-6.779	0.039	0.027
-604.142	-200.000	-0.013	0.128
-603.128	3.756	-0.311	-0.227
-602.113	99.096	0.103	0.120
-601.098	-140.287	-0.106	-0.011
-600.084	-200.000	-0.066	-0.415
-599.069	-200.000	0.019	-0.492
-598.055	435.118	-0.061	-0.132
-597.040	90.900	-0.088	-0.099
-596.025	50.338	0.226	-0.214
-595.011	-200.000	0.062	0.276
-593.996	43.217	0.196	0.179
-592.982	800.000	-0.054	0.186
-591.967	-200.000	-0.047	-0.259
-590.952	-117.084	-0.207	0.038
-589.938	-200.000	0.028	0.124
-588.923	-86.047	0.224	0.069
-587.909	-7.526	-0.193	-0.131
-586.894	-70.303	-0.293	-0.111
-585.879	41.349	-0.209	-0.189
-584.865	116.608	0.401	-0.493
-583.850	-33.267	-0.442	-0.245
-582.836	-33.672	0.342	0.189
-581.821	-103.001	-0.312	0.074
-580.806	-46.945	0.044	0.022
-579.792	800.000	0.052	0.165
-578.777	-26.352	-0.082	-0.048
-577.763	215.089	-0.103	-0.163
-576.748	-157.640	0.217	0.013
-575.733	-3.071	-0.145	-0.101
-574.719	33.707	-0.222	0.193
-573.704	-200.000	0.016	-0.197
-572.690	3.199	-0.039	0.028
-571.675	26.518	0.015	0.013
-570.661	304.322	0.054	-0.100
-569.646	21.519	-0.235	0.191
-568.631	-200.000	-0.030	-0.334
-567.617	-180.694	0.400	0.008
-566.602	-162.127	-0.116	0.006
-565.588	-64.628	0.054	0.022
-564.573	134.932	0.228	0.296
-563.558	-18.201	0.143	-0.090
-562.544	-95.811	-0.236	0.063
-561.529	-103.520	-0.242	0.057
-560.515	-194.853	0.283	-0.002
-559.500	-81.818	0.129	-0.042
-558.485	378.234	0.083	0.170
-557.471	-132.177	-0.183	0.024
-556.456	-91.641	-0.271	0.077
-555.442	664.124	-0.065	-0.167
-554.427	-117.854	-0.276	-0.050
-553.412	800.000	-0.045	-0.156
-552.398	-71.789	-0.041	0.015
-551.383	96.415	-0.266	-0.304
-550.369	42.098	-0.087	-0.079
-549.354	800.000	-0.088	0.285
-548.339	-0.331	-0.151	0.108
-547.325	189.349	-0.119	-0.179
-546.310	-45.348	-0.148	-0.073
-545.296	359.598	-0.130	0.260
-544.281	-146.051	0.207	0.018
-543.266	40.168	0.166	-0.149
-542.252	-136.634	0.173	-0.020
-541.237	518.372	-0.139	0.325
-540.223	-200.000	0.037	0.560
-539.208	-106.947	-0.289	0.064
-538.193	-200.000	0.030	0.169
-537.179	800.000	-0.060	0.261
-536.164	-200.000	-0.010	0.325
-535.150	800.000	-0.117	-0.376
-534.135	-88.590	-0.170	0.051
-533.121	-200.000	0.048	0.491
-532.106	29.285	0.186	-0.158
-531.091	11.613	-0.037	0.028
-530.077	-76.268	-0.251	-0.088
-529.062	-24.509	-0.256	0.152
-528.048	-42.624	-0.252	0.128
-527.033	-106.076	0.149	-0.033
-526.018	800.000	0.061	0.198
-525.004	-31.315	-0.252	0.142
-523.989	-35.396	0.081	0.044
-522.975	-13.123	0.141	-0.092
-521.960	800.000	0.062	0.240
-520.945	800.000	0.080	0.312
-519.931	95.691	0.331	0.377
-518.916	195.623	0.013	0.019
-517.902	-123.940	0.113	-0.018
-516.887	18.009	0.052	-0.041
-515.872	53.436	-0.121	-0.116
-514.858	210.800	0.117	0.183
-513.843	93.181	0.056	-0.064
-512.829	-101.253	0.049	0.012
-511.814	-8.329	-0.175	0.117
-510.799	-174.104	-0.172	-0.005
-509.785	-141.311	0.136	0.014
-508.770	-107.562	0.194	0.042
-507.756	-114.656	-0.161	0.031
-506.741	-108.471	0.189	0.041
-505.726	1.553	0.044	-0.031
-504.712	274.640	-0.020	0.035
-503.697	-200.000	-0.051	0.442
-502.683	-200.000	-0.001	-0.067
-501.668	-61.717	-0.208	0.087
-500.653	-86.073	-0.041	0.012
-499.639	-200.000	-0.016	-0.199
-498.624	135.507	0.128	0.166
-497.610	26.991	0.219	0.183
-496.595	-68.637	-0.204	0.079
-495.581	-150.972	-0.292	0.022
-494.566	131.075	0.249	-0.319
-493.551	-60.492	-0.241	0.102
-492.537	-97.763	0.706	0.182
-491.522	-4.668	0.167	0.115
-490.508	-53.083	0.241	0.110
-489.493	-200.000	-0.050	-0.283
-488.478	-200.000	0.076	0.523
-487.464	-103.517	-0.316	0.074
-486.449	800.000	0.061	-0.209
-485.435	181.166	0.165	-0.242
-484.420	107.478	0.117	-0.139
-483.405	181.600	-0.180	0.263
-482.391	189.463	-0.088	-0.132
-481.376	146.672	-0.152	-0.204
-480.362	-200.000	-0.044	0.237
-479.347	3.694	0.168	-0.122
-478.332	752.566	-0.050	0.135
-477.318	159.616	0.100	-0.139
-476.303	-151.817	0.290	-0.021
-475.289	800.000	0.064	0.185
-474.274	-9.716	0.138	0.092
-473.259	-12.665	-0.095	0.062
-472.245	-200.000	-0.020	-0.311
-471.230	-46.895	-0.305	-0.149
-470.216	271.154	-0.070	0.123
-469.201	227.116	-0.060	-0.097
-468.186	197.779	-0.095	-0.145
-467.172	423.643	0.162	0.346
-466.157	-1.328	-0.193	-0.136
-465.143	165.101	-0.044	0.062
-464.128	30.780	-0.134	-0.115
-463.113	-146.344	0.131	-0.011
-462.099	-79.639	0.187	-0.063
-461.084	-200.000	-0.006	-0.034
-460.070	-200.000	-0.033	-0.226
-459.055	-5.464	-0.271	0.185
-458.040	800.000	-0.054	-0.165
-457.026	800.000	-0.039	-0.110
-456.011	-109.321	0.199	0.042
-454.997	-126.542	-0.125	0.018
-453.982	-27.295	0.207	-0.120
-452.968	-78.066	-0.186	0.064
-451.953	420.556	0.087	0.187
-450.938	800.000	0.034	-0.145
-449.924	199.074	-0.111	0.169
-448.909	61.888	-0.160	0.158
-447.895	-115.358	0.103	0.019
-446.880	-200.000	0.023	0.209
-445.865	800.000	0.080	-0.311
-444.851	-200.000	-0.030	0.254
-443.836	148.329	-0.104	-0.140
-442.822	-91.249	-0.126	-0.036
-441.807	32.434	0.106	0.091
-440.792	-26.114	-0.218	0.127
-439.778	800.000	-0.146	0.484
-438.763	-32.253	0.101	-0.056
-437.749	86.600	0.121	0.132
-436.734	-169.497	0.123	0.004
-435.719	-166.848	-0.548	0.022
-434.705	-34.413	-0.311	0.170
-433.690	-200.000	0.025	-0.160
-432.676	-200.000	-0.007	-0.173
-431.661	239.649	0.082	-0.136
-430.646	-46.852	-0.035	-0.017
-429.632	-193.289	-0.320	-0.003
-428.617	307.145	-0.041	-0.075
-427.603	112.682	-0.324	0.391
-426.588	3.522	0.139	-0.101
-425.573	-163.381	0.184	-0.009
-424.559	-74.606	-0.135	-0.048
-423.544	-96.003	-0.451	0.119
-422.530	-4.433	-0.123	0.084
-421.515	-6.918	0.038	-0.026
-420.500	-113.235	-0.226	-0.044
-419.486	21.624	-0.109	0.088
-418.471	-59.543	-0.114	-0.049
-417.457	496.050	-0.104	-0.238
-416.442	-97.801	-0.079	-0.020
-415.428	131.250	-0.160	0.204
-414.413	-147.352	0.219	-0.019
-413.398	-151.890	-0.216	0.016
-412.384	-200.000	-0.046	0.000
-411.369	-135.608	0.434	-0.051
-410.355	-200.000	0.149	-0.001
-409.340	164.754	0.073	-0.103
-408.325	437.937	-0.080	-0.173
-407.311	-171.342	0.048	-0.002
-406.296	95.580	-0.093	-0.105
-405.282	344.871	-0.058	0.113
-404.267	-200.000	0.013	-0.162
-403.252	800.000	0.066	0.224
-402.238	-17.415	-0.459	-0.287
-401.223	-6.139	0.228	-0.155
-400.209	346.597	-0.032	0.063
-399.194	406.396	0.130	-0.272
-398.179	-34.516	-0.125	-0.068
-397.165	217.776	0.122	0.194
-396.150	-200.000	0.005	0.249
-395.136	95.972	-0.183	-0.208
-394.121	153.916	0.124	-0.169
-393.106	305.256	-0.084	-0.155
-392.092	800.000	0.078	0.319
-391.077	73.187	-0.169	0.175
-390.063	-200.000	0.041	0.248
-389.048	51.056	-0.075	-0.070
-388.033	13.992	0.165	0.128
-387.019	20.733	-0.246	0.198
-386.004	586.594	-0.027	0.066
-384.990	-32.576	-0.182	-0.101
-383.975	65.888	-0.092	0.093
-382.960	-114.184	0.282	0.054
-381.946	-33.541	0.286	-0.157
-380.931	-200.000	-0.017	-0.159
-379.917	376.479	-0.128	-0.258
-378.902	-200.000	0.008	0.098
-377.888	135.009	0.019	0.024
-376.873	-42.566	0.311	0.157
-375.858	800.000	0.055	-0.229
-374.844	-86.329	-0.173	0.053
-373.829	10.605	0.116	0.088
-372.815	-113.140	0.178	0.035
-371.800	327.006	0.100	-0.191
-370.785	800.000	0.023	0.072
-369.771	-200.000	0.006	0.102
-368.756	-200.000	0.048	0.221
-367.742	21.090	0.133	0.107
-366.727	800.000	-0.127	0.398
-365.712	104.103	0.038	0.045
-364.698	-79.466	-0.175	-0.059
-363.683	614.465	0.146	0.364
-362.669	513.557	-0.070	-0.161
-361.654	120.949	0.246	-0.304
-360.639	145.221	0.091	0.120
-359.625	-50.616	-0.270	-0.126
-358.610	-177.749	0.253	-0.006
-357.596	60.477	-0.156	0.153
-356.581	544.740	-0.080	0.189
-355.566	-200.000	-0.015	0.081
-354.552	-200.000	-0.008	-0.040
-353.537	-159.675	-0.183	-0.010
-352.523	-70.282	0.081	-0.031
-351.508	-200.000	-0.074	-0.357
-350.493	85.469	0.095	-0.103
-349.479	-200.000	0.026	0.158
-348.464	800.000	-0.078	-0.244
-347.450	128.085	-0.189	0.238
-346.435	-200.000	-0.482	0.001
-345.420	82.241	0.180	0.193
-344.406	64.079	-0.242	-0.242
-343.391	-200.000	0.001	0.082
-342.377	-8.959	-0.089	-0.059
-341.362	49.381	-0.159	-0.148
-340.348	-200.000	-0.002	-0.167
-339.333	-86.008	0.184	-0.056
-338.318	60.420	-0.199	-0.196
-337.304	-200.000	0.023	-0.444
-336.289	-45.683	0.219	-0.107
-335.275	205.136	-0.233	-0.359
-334.260	81.538	0.102	0.109
-333.245	-118.072	0.084	0.015
-332.231	-121.323	0.448	0.074
-331.216	369.634	0.161	-0.324
-330.202	-28.673	0.280	-0.160
-329.187	342.031	0.069	0.133
-328.172	800.000	-0.031	-0.094
-327.158	103.322	0.278	-0.323
-326.143	-194.099	-0.161	-0.001
-325.129	-90.191	-0.192	0.055
-324.114	145.058	0.129	0.171
-323.099	-200.000	-0.040	-0.284
-322.085	-129.388	0.194	0.027
-321.070	194.099	-0.075	-0.113
-320.056	692.160	0.137	-0.354
-319.041	-200.000	0.023	0.319
-318.026	-164.583	-0.261	0.012
-317.012	20.415	0.214	-0.171
-315.997	-2.468	0.280	-0.195
-314.983	-113.159	-0.178	0.035
-313.968	-200.000	0.045	-0.428
-312.953	-88.746	0.285	-0.084
-311.939	20.846	-0.170	0.137
-310.924	237.417	0.101	-0.166
-309.910	-200.000	0.044	0.239
-308.895	18.317	0.106	0.084
-307.880	-200.000	-0.021	-0.212
-306.866	800.000	-0.039	-0.154
-305.851	-0.989	0.124	-0.087
-304.837	-200.000	0.023	-0.158
-303.822	-200.000	0.031	-0.189
-302.807	-27.867	0.352	0.202
-301.793	300.521	0.109	0.200
-300.778	131.589	0.162	0.206
-299.764	22.377	-0.287	-0.233
-298.749	-62.185	0.131	0.054
-297.735	800.000	0.029	-0.112
-296.720	-200.000	-0.044	-0.220
-295.705	-96.542	-0.084	-0.022
-294.691	-17.912	0.112	0.069
-293.676	800.000	-0.127	0.423
-292.662	71.168	0.264	0.271
-291.647	93.515	-0.072	-0.081
-290.632	510.780	0.168	-0.388
-289.618	-200.000	-0.020	-0.134
-288.603	219.758	0.154	-0.245
-287.589	49.783	0.225	0.210
-286.574	-200.000	0.032	0.165
-285.559	800.000	0.089	0.262
-284.545	-14.579	0.162	-0.103
-283.530	8.362	0.303	0.226
-282.516	800.000	-0.041	0.124
-281.501	-36.261	0.214	0.114
-280.486	800.000	0.120	-0.380
-279.472	117.032	0.074	-0.090
-278.457	91.196	-0.117	-0.130
-277.443	800.000	0.065	0.241
-276.428	-133.909	-0.168	0.021
-275.413	23.315	0.239	-0.194
-274.399	-80.482	-0.227	-0.075
-273.384	118.069	0.224	-0.273
-272.370	-200.000	0.001	-0.168
-271.355	-197.586	-0.167	-0.001
-270.340	-47.377	-0.174	0.084
-269.326	800.000	0.078	0.301
-268.311	-200.000	-0.015	0.170
-267.297	443.514	-0.069	0.150
-266.282	27.083	0.333	-0.276
-265.267	-200.000	0.051	-0.318
-264.253	37.812	-0.313	-0.274
-263.238	736.802	-0.041	-0.107
-262.224	19.796	-0.279	-0.222
-261.209	585.300	0.150	0.364
-260.195	-80.672	0.165	0.054
-259.180	559.213	-0.037	-0.089
-258.165	231.878	0.122	-0.198
-257.151	-200.000	0.060	-0.492
-256.136	164.306	-0.058	-0.081
-255.122	-166.606	0.155	-0.006
-254.107	40.881	0.147	0.131
-253.092	-21.298	-0.078	0.047
-252.078	-200.000	-0.047	-0.492
-251.063	-200.000	0.042	0.195
-250.049	-8.892	-0.025	0.016
-249.034	56.140	0.072	-0.069
-248.019	13.784	-0.137	-0.105
-247.005	-101.018	0.575	-0.139
-245.990	205.228	0.076	-0.117
-244.976	800.000	0.041	0.154
-243.961	28.987	-0.161	0.135
-242.946	-19.787	-0.158	0.096
-241.932	-68.472	-0.271	-0.104
-240.917	73.016	0.192	-0.198
-239.903	461.311	-0.133	0.292
-238.888	292.574	0.043	-0.078
-237.873	-200.000	0.090	0.420
-236.859	49.573	0.050	-0.047
-235.844	474.073	-0.031	-0.070
-234.830	-110.617	0.354	-0.072
-233.815	218.266	-0.244	-0.384
-232.800	-134.496	-0.265	-0.032
-231.786	-105.664	-0.153	0.034
-230.771	-200.000	-0.023	-0.164
-229.757	-103.010	0.392	-0.092
-228.742	-200.000	-0.018	0.144
-227.727	594.950	-0.049	-0.119
-226.713	50.080	-0.128	-0.120
-225.698	-200.000	0.010	-0.386
-224.684	-200.000	0.043	0.258
-223.669	800.000	0.072	0.248
-222.655	-47.191	-0.066	0.032
-221.640	800.000	0.042	0.121
-220.625	-86.418	-0.224	0.068
-219.611	-63.569	0.224	0.091
-218.596	800.000	0.083	-0.235
-217.582	-79.198	0.209	0.070
-216.567	-11.014	-0.151	-0.099
-215.552	-200.000	-0.049	-0.269
-214.538	207.123	-0.166	-0.255
-213.523	-38.638	0.275	0.143
-212.509	-63.626	-0.384	0.155
-211.494	240.573	0.101	0.165
-210.479	-0.823	0.317	-0.221
-209.465	-200.000	0.013	-0.246
-208.450	72.490	0.137	-0.141
-207.436	98.039	-0.148	-0.168
-206.421	121.642	-0.209	0.257
-205.406	-48.976	-0.272	0.128
-204.392	-200.000	0.005	-0.421
-203.377	160.519	-0.060	0.083
-202.363	800.000	-0.080	0.265
-201.348	-200.000	-0.015	0.088
-200.333	-15.720	0.242	0.152
-199.319	-152.835	0.124	0.009
-198.304	44.051	0.263	0.237
-197.290	-200.000	-0.004	0.125
-196.275	-83.851	-0.306	0.096
-195.260	-173.010	0.157	0.005
-194.246	239.939	-0.146	0.240
-193.231	800.000	0.100	0.285
-192.217	-36.914	0.179	-0.095
-191.202	150.836	-0.200	0.268
-190.187	800.000	0.094	-0.322
-189.173	639.057	-0.041	0.103
-188.158	459.866	-0.077	0.169
-187.144	-200.000	-0.035	-0.208
-186.129	-149.603	-0.063	-0.005
-185.114	800.000	0.098	0.320
-184.100	542.681	0.146	0.342
-183.085	-146.630	0.176	0.015
-182.071	157.604	0.126	-0.172
-181.056	192.936	0.150	-0.223
-180.042	135.789	0.028	-0.036
-179.027	393.189	-0.047	-0.097
-178.012	-65.988	0.128	0.050
-176.998	-168.434	-0.074	-0.003
-175.983	520.611	0.043	0.100
-174.969	-200.000	0.034	0.304
-173.954	-194.849	-0.133	-0.001
-172.939	-164.665	-0.234	0.010
-171.925	-200.000	0.006	0.304
-170.910	351.837	0.206	0.401
-169.896	196.696	0.196	-0.293
-168.881	404.256	0.020	-0.041
-167.866	-200.000	-0.026	0.245
-166.852	-120.702	0.190	0.032
-165.837	616.224	0.102	0.252
-164.823	100.953	0.273	0.313
-163.808	-153.613	-0.288	-0.020
-162.793	131.397	0.181	-0.229
-161.779	-114.317	-0.166	-0.032
-160.764	75.606	0.232	-0.241
-159.750	-90.586	0.286	0.081
-158.735	-100.487	0.269	-0.066
-157.720	-189.214	-0.129	0.002
-156.706	-200.000	-0.013	0.159
-155.691	88.108	-0.203	0.222
-154.677	800.000	0.071	0.221
-153.662	-200.000	0.036	-0.165
-152.647	-200.000	-0.011	0.084
-151.633	-74.721	0.357	0.126
-150.618	-200.000	-0.017	-0.130
-149.604	-200.000	0.035	0.303
-148.589	17.232	0.105	0.082
-147.574	39.434	0.090	-0.079
-146.560	167.640	0.124	-0.173
-145.545	-86.787	-0.254	0.076
-144.531	-134.458	-0.159	0.019
-143.516	-41.116	0.199	-0.101
-142.502	-61.833	-0.136	-0.056
-141.487	263.497	0.176	-0.302
-140.472	-87.328	-0.115	0.034
-139.458	-200.000	0.014	0.283
-138.443	574.294	-0.082	-0.197
-137.429	87.189	0.099	0.108
-136.414	539.602	0.132	-0.309
-135.399	800.000	0.035	-0.133
-134.385	-50.423	-0.243	-0.113
-133.370	-89.529	-0.229	0.066
-132.356	-36.992	0.004	-0.002
-131.341	-13.901	-0.088	0.056
-130.326	-1.126	0.111	0.077
-129.312	-60.731	-0.033	0.014
-128.297	142.948	0.145	0.190
-127.283	357.460	-0.074	-0.146
-126.268	215.414	-0.200	0.312
-125.253	34.398	0.352	0.302
-124.239	-161.073	0.087	0.004
-123.224	-109.674	-0.237	0.049
-122.210	-25.444	0.057	-0.033
-121.195	-159.850	0.066	0.004
-120.180	-159.174	-0.110	0.006
-119.166	-200.000	-0.004	-0.198
-118.151	-151.399	-0.187	0.014
-117.137	-141.986	0.247	0.024
-116.122	80.343	0.180	0.191
-115.107	172.700	-0.040	-0.056
-114.093	-125.014	0.310	0.047
-113.078	-134.142	-0.155	-0.019
-112.064	800.000	0.070	0.208
-111.049	-128.802	-0.142	-0.020
-110.034	147.501	0.109	-0.144
-109.020	800.000	-0.066	-0.204
-108.005	-200.000	0.046	0.307
-106.991	342.103	0.068	0.132
-105.976	-200.000	0.006	0.102
-104.962	92.199	0.240	-0.265
-103.947	-19.197	0.154	0.094
-102.932	-200.000	-0.058	-0.258
-101.918	-73.844	0.308	-0.110
-100.903	-74.947	0.316	0.111
-99.889	61.711	-0.087	-0.085
-98.874	124.717	0.055	-0.068
-97.859	473.050	0.183	-0.404
-96.845	800.000	0.088	-0.340
-95.830	219.949	0.160	-0.252
-94.816	237.083	0.079	-0.129
-93.801	-28.356	0.186	0.106
-92.786	164.030	0.010	-0.015
-91.772	244.991	-0.137	0.227
-90.757	-61.958	-0.299	0.123
-89.743	-26.848	0.194	-0.111
-88.728	-102.594	0.084	0.020
-87.713	182.906	-0.154	0.223
-86.699	-124.501	-0.401	-0.061
-85.684	800.000	0.096	0.392
-84.670	-98.293	0.264	-0.067
-83.655	-131.051	-0.080	-0.011
-82.640	-143.588	-0.053	0.005
-81.626	800.000	0.069	0.205
-80.611	110.542	0.150	-0.177
-79.597	800.000	-0.128	-0.374
-78.582	-200.000	0.003	-0.043
-77.567	-200.000	-0.015	0.226
-76.553	-200.000	-0.074	-0.449
-75.538	-108.319	0.254	0.054
-74.524	-97.723	0.267	0.068
-73.509	80.893	-0.199	0.211
-72.494	49.774	-0.195	-0.180
-71.480	343.276	-0.147	0.282
-70.465	-200.000	0.030	0.217
-69.451	-200.000	-0.029	-0.277
-68.436	-200.000	-0.002	-0.182
-67.422	-200.000	0.006	0.197
-66.407	-200.000	0.002	0.494
-65.392	454.493	-0.083	-0.181
-64.378	-200.000	-0.024	-0.121
-63.363	-113.957	-0.277	-0.053
-62.349	-186.267	0.252	0.004
-61.334	44.434	-0.780	-0.702
-60.319	294.345	0.478	0.856
-59.305	800.000	-0.252	-1.050
-58.290	800.000	0.257	1.004
-57.276	664.248	0.572	1.446
-56.261	-200.000	109.382	581.114
-55.246	412.033	1526.821	3178.560
-54.232	140.651	2721.644	3523.582
-53.217	101.692	2214.685	2531.161
-52.203	38.559	1736.478	1517.803
-51.188	31.411	1551.180	1306.068
-50.173	29.164	1525.434	1268.874
-49.159	49.975	1582.222	1462.809
-48.144	50.036	1598.516	1478.246
-47.130	31.752	1554.198	1310.782
-46.115	28.762	1538.468	1276.721
-45.100	28.577	1535.350	1272.802
-44.086	28.583	1533.541	1271.292
-43.071	28.561	1531.524	1269.415
-42.057	28.476	1530.064	1267.570
-41.042	28.432	1528.789	1266.159
-40.027	28.395	1527.118	1264.468
-39.013	28.428	1525.504	1263.311
-37.998	28.353	1524.634	1262.021
-36.984	28.390	1523.212	1261.047
-35.969	28.508	1521.447	1260.353
-34.954	28.361	1520.638	1258.623
-33.940	28.433	1518.478	1257.278
-32.925	28.393	1517.656	1256.272
-31.911	28.392	1515.857	1254.726
-30.896	28.448	1514.816	1254.199
-29.881	28.430	1513.460	1252.903
-28.867	28.518	1511.912	1252.168
-27.852	28.418	1510.791	1250.509
-26.838	28.429	1509.829	1249.741
-25.823	28.427	1507.925	1248.099
-24.809	28.482	1506.484	1247.233
-23.794	28.587	1504.520	1246.271
-22.779	28.442	1504.159	1244.934
-21.765	28.470	1503.110	1244.207
-20.750	28.519	1502.083	1243.640
-19.736	28.506	1500.384	1242.100
-18.721	28.452	1499.645	1241.075
-17.706	28.475	1498.621	1240.329
-16.692	28.490	1497.480	1239.441
-15.677	28.567	1495.814	1238.532
-14.663	28.461	1495.015	1237.108
-13.648	28.390	1494.210	1235.913
-12.633	28.371	1493.417	1235.079
-11.619	28.426	1492.613	1234.730
-10.604	28.361	1491.891	1233.648
-9.590	28.447	1490.544	1233.063
-8.575	28.473	1489.546	1232.369
-7.560	28.438	1488.705	1231.388
-6.546	28.441	1487.961	1230.745
-5.531	28.374	1486.970	1229.425
-4.517	28.343	1486.300	1228.611
-3.502	28.442	1484.758	1227.951
-2.487	28.444	1483.410	1226.805
-1.473	28.442	1482.486	1225.974
-0.458	28.460	1481.291	1225.063
0.556	27.043	1472.144	1215.523
1.571	24.485	1447.035	1177.835
2.586	21.355	1385.033	1107.473
3.600	19.877	1300.219	1030.765
4.615	18.502	1254.999	986.915
5.629	15.971	1197.207	927.469
6.644	7.934	1110.371	818.930
7.659	1.489	1070.386	757.334
8.673	0.546	1064.113	748.159
9.688	0.392	1061.279	745.341
10.702	0.253	1059.910	743.625
11.717	0.239	1057.664	741.917
12.731	2.686	1060.327	755.789
13.746	10.490	1070.787	801.902
14.761	16.256	1077.314	835.334
15.775	17.037	1077.824	839.523
16.790	16.508	1076.445	835.755
17.804	15.645	1074.134	829.630
18.819	14.635	1072.606	823.398
19.834	14.311	1071.047	820.532
20.848	13.963	1070.078	818.005
21.863	13.675	1068.868	815.591
22.877	13.473	1068.466	814.220
23.892	13.191	1067.881	812.312
24.907	13.272	1066.611	811.675
25.921	13.246	1065.573	810.683
26.936	13.140	1065.335	809.912
27.950	13.183	1064.588	809.484
28.965	13.350	1063.998	809.782
29.980	13.306	1062.974	808.713
30.994	13.323	1062.201	808.139
32.009	13.389	1061.295	807.700
33.023	13.430	1060.238	807.025
34.038	13.436	1059.311	806.277
35.053	13.372	1058.695	805.421
36.067	13.379	1057.786	804.693
37.082	13.411	1056.960	804.149
38.096	13.329	1056.341	803.209
39.111	13.340	1055.723	802.721
40.126	13.310	1054.601	801.654
41.140	13.400	1053.494	801.174
42.155	13.168	1052.865	799.504
43.169	13.167	1051.815	798.631
44.184	13.160	1051.255	798.103
45.199	13.212	1049.781	797.161
46.213	13.201	1048.836	796.324
47.228	13.258	1047.255	795.324
48.242	13.270	1046.789	794.957
49.257	13.201	1045.901	793.884
50.271	13.296	1044.605	793.282
51.286	13.251	1044.125	792.634
52.301	13.358	1043.273	792.429
53.315	13.344	1042.283	791.541
54.330	13.416	1041.163	790.964
55.344	13.348	1040.461	790.036
56.359	13.238	1039.741	788.895
57.374	13.303	1038.393	788.111
58.388	13.221	1037.902	787.282
59.403	13.215	1037.230	786.673
60.417	13.239	1035.942	785.740
61.432	13.182	1035.494	785.059
62.447	13.212	1034.721	784.547
63.461	13.118	1033.911	783.414
64.476	13.159	1033.264	783.050
65.490	13.084	1032.321	781.912
66.505	13.069	1031.313	781.009
67.520	13.142	1030.566	780.716
68.534	13.046	1030.084	779.831
69.549	13.258	1028.868	779.839
70.563	13.174	1028.215	778.882
71.578	13.168	1027.670	778.369
72.593	13.154	1026.371	777.255
73.607	13.118	1025.646	776.464
74.622	13.061	1025.024	775.660
75.636	13.134	1023.821	775.024
76.651	13.301	1022.575	774.795
77.666	13.064	1022.286	773.397
78.680	13.194	1021.506	773.343
79.695	13.127	1020.941	772.537
80.709	13.211	1020.297	772.372
81.724	13.332	1019.012	771.896
82.739	13.223	1018.380	770.840
83.753	13.256	1017.859	770.532
84.768	13.162	1017.317	769.617
85.782	13.269	1016.481	769.414
86.797	13.445	1015.693	769.568
87.812	13.331	1014.677	768.197
88.826	13.401	1013.745	767.749
89.841	13.289	1012.835	766.473
90.855	13.222	1012.782	766.054
91.870	13.325	1011.610	765.577
92.884	13.373	1011.003	765.272
93.899	13.375	1010.439	764.787
94.914	13.496	1009.090	764.257
95.928	13.367	1008.822	763.391
96.943	13.345	1008.059	762.647
97.957	13.381	1007.247	762.130
98.972	13.374	1006.435	761.414
99.987	13.258	1005.575	760.163
101.001	13.460	1004.559	760.256
102.016	13.365	1003.691	759.096
103.030	13.372	1002.954	758.503
104.045	13.432	1001.823	757.858
105.060	13.535	1000.439	757.213
106.074	13.373	999.771	755.899
107.089	13.309	998.715	754.743
108.103	13.192	998.607	754.063
109.118	13.207	997.593	753.298
110.133	13.363	996.057	752.781
111.147	13.247	995.505	751.769
112.162	13.208	994.601	750.843
113.176	13.251	993.987	750.507
114.191	13.294	992.631	749.612
115.206	13.259	992.179	749.048
116.220	13.191	991.410	748.092
117.235	13.297	990.535	747.847
118.249	13.288	989.340	746.838
119.264	13.433	988.447	746.748
120.279	13.397	987.336	745.680
121.293	13.196	987.200	744.607
122.308	13.327	985.810	744.081
123.322	13.292	985.100	743.325
124.337	13.151	983.993	741.790
125.352	13.283	983.165	741.694
126.366	13.189	981.651	740.063
127.381	13.233	980.557	739.370
128.395	13.180	979.734	738.447
129.410	13.299	978.659	738.105
130.424	13.228	977.985	737.211
131.439	13.218	977.175	736.495
132.454	13.344	975.769	735.928
133.468	13.300	975.635	735.565
134.483	13.229	975.253	734.896
135.497	13.266	974.234	734.228
136.512	13.349	973.165	733.724
137.527	13.269	972.425	732.750
138.541	13.404	972.188	733.104
139.556	13.308	970.867	731.617
140.570	13.253	969.949	730.620
141.585	13.467	969.279	730.996
142.600	13.359	968.915	730.178
143.614	13.471	968.209	730.075
144.629	13.387	967.466	729.083
145.643	13.366	966.884	728.486
146.658	13.438	965.772	727.899
147.673	13.452	964.796	727.162
148.687	13.495	963.589	726.375
149.702	13.468	962.620	725.463
150.716	13.412	961.756	724.501
151.731	13.354	961.387	723.905
152.746	13.433	960.493	723.516
153.760	13.430	959.645	722.799
154.775	13.453	959.208	722.507
155.789	13.578	958.024	722.096
156.804	13.516	957.155	721.105
157.819	13.502	956.514	720.499
158.833	13.639	955.551	720.306
159.848	13.486	955.297	719.385
160.862	13.493	954.557	718.796
161.877	13.687	953.348	718.663
162.892	13.474	952.620	717.127
163.906	13.438	951.968	716.415
164.921	13.444	951.267	715.853
165.935	13.463	949.878	714.823
166.950	13.596	948.644	714.405
167.964	13.524	948.281	713.760
168.979	13.507	947.360	712.931
169.994	13.431	946.059	711.562
171.008	13.471	945.460	711.217
172.023	13.540	944.625	710.823
173.037	13.615	944.036	710.641
174.052	13.606	943.134	709.859
175.067	13.590	942.797	709.475
176.081	13.540	941.995	708.594
177.096	13.507	940.856	707.534
178.110	13.557	940.191	707.183
179.125	13.713	939.158	707.009
180.140	13.628	938.460	706.059
181.154	13.607	937.908	705.493
182.169	13.666	937.646	705.486
183.183	13.774	936.745	705.201
184.198	13.832	935.565	704.500
185.213	13.760	935.145	703.815
186.227	13.852	934.330	703.531
187.242	13.947	934.060	703.665
188.256	13.993	932.989	702.991
189.271	13.866	933.124	702.492
190.286	13.937	931.672	701.637
191.300	13.866	930.910	700.703
192.315	13.818	930.060	699.798
193.329	13.731	929.660	699.068
194.344	13.717	928.787	698.292
195.359	13.722	928.222	697.828
196.373	13.725	928.025	697.628
197.388	13.793	927.472	697.439
198.402	13.889	927.074	697.479
199.417	13.915	926.310	696.954
200.432	14.075	925.854	697.220
201.446	14.015	925.046	696.298
202.461	14.116	925.192	696.769
203.475	14.159	924.319	696.230
204.490	14.175	923.422	695.557
205.504	14.267	922.429	695.132
206.519	14.136	922.096	694.275
207.534	14.037	921.649	693.463
208.548	14.067	920.697	692.812
209.563	14.086	919.794	692.147
210.577	14.148	919.228	691.920
211.592	14.185	918.602	691.543
212.607	14.208	917.789	690.964
213.621	14.089	917.753	690.382
214.636	14.131	916.833	689.803
215.650	14.232	916.000	689.534
216.665	14.145	915.606	688.813
217.680	14.230	915.151	688.765
218.694	14.237	914.593	688.311
219.709	14.355	913.588	687.981
220.723	14.447	912.953	687.822
221.738	14.322	912.710	687.063
222.753	14.265	911.661	685.977
223.767	14.391	910.542	685.595
224.782	14.305	910.074	684.825
225.796	14.270	909.578	684.249
226.811	14.333	908.908	683.945
227.826	14.474	907.800	683.626
228.840	14.326	907.718	682.897
229.855	14.287	907.025	682.157
230.869	14.390	905.813	681.606
231.884	14.308	905.284	680.814
232.899	14.411	904.694	680.729
233.913	14.284	904.146	679.737
234.928	14.166	903.613	678.794
235.942	14.342	902.587	678.681
236.957	14.394	901.682	678.154
237.972	14.437	901.125	677.850
238.986	14.387	900.535	677.142
240.001	14.445	899.692	676.685
241.015	14.426	899.297	676.251
242.030	14.475	898.425	675.732
243.045	14.368	898.193	675.067
244.059	14.406	897.565	674.689
245.074	14.503	896.572	674.275
246.088	14.602	895.947	674.143
247.103	14.583	895.410	673.602
248.117	14.534	895.155	673.156
249.132	14.653	894.035	672.734
250.147	14.580	893.809	672.206
251.161	14.733	892.872	672.058
252.176	14.805	892.371	671.914
253.190	14.849	891.700	671.525
254.205	14.815	891.155	670.920
255.220	14.841	890.293	670.315
256.234	14.846	889.703	669.832
257.249	14.926	889.356	669.830
258.263	14.975	888.490	669.314
259.278	14.974	887.913	668.817
260.293	14.877	887.632	668.158
261.307	14.919	887.094	667.861
262.322	14.948	886.366	667.370
263.336	15.020	885.868	667.223
264.351	14.946	885.438	666.547
265.366	15.145	884.459	666.541
266.380	15.055	883.828	665.651
267.395	15.165	882.931	665.350
268.409	15.062	882.761	664.756
269.424	15.145	881.580	664.136
270.439	15.025	881.420	663.484
271.453	15.232	880.292	663.396
272.468	15.065	879.593	662.147
273.482	15.159	879.010	662.021
274.497	15.030	878.695	661.216
275.512	15.057	877.844	660.626
276.526	15.132	876.686	659.991
277.541	14.998	876.583	659.325
278.555	15.232	875.808	659.606
279.570	15.073	875.418	658.628
280.585	15.192	874.846	658.609
281.599	15.224	874.245	658.223
282.614	15.202	873.489	657.509
283.628	15.273	872.788	657.204
284.643	15.313	872.008	656.713
285.657	15.354	871.879	656.717
286.672	15.247	871.326	655.826
287.687	15.332	870.718	655.642
288.701	15.329	870.479	655.392
289.716	15.323	869.787	654.787
290.730	15.321	868.753	653.946
291.745	15.333	868.186	653.507
292.760	15.396	867.687	653.319
293.774	15.488	866.851	652.989
294.789	15.415	866.631	652.482
295.803	15.410	865.919	651.870
296.818	15.492	865.318	651.678
297.833	15.434	864.884	651.068
298.847	15.562	863.921	650.781
299.862	15.458	863.470	649.983
300.876	15.536	862.485	649.484
301.891	15.618	861.822	649.244
302.906	15.587	861.294	648.668
303.920	15.517	860.695	647.892
304.935	15.709	859.934	648.001
305.949	15.798	859.166	647.706
306.964	15.717	858.775	647.044
307.979	15.734	858.283	646.680
308.993	15.638	857.937	645.992
310.008	15.778	857.016	645.780
311.022	15.811	856.435	645.413
312.037	15.772	855.887	644.791
313.052	15.780	855.768	644.675
314.066	15.740	854.808	643.744
315.081	15.614	854.196	642.743
316.095	15.739	853.713	642.799
317.110	15.786	853.042	642.418
318.125	15.678	852.648	641.653
319.139	15.661	852.262	641.240
320.154	15.738	851.560	640.950
321.168	15.733	851.082	640.513
322.183	15.823	850.448	640.321
323.197	15.709	850.114	639.579
324.212	15.843	849.641	639.678
325.227	15.758	848.949	638.777
326.241	15.841	848.398	638.621
327.256	15.956	847.509	638.331
328.270	15.804	847.051	637.354
329.285	15.974	846.534	637.552
330.300	16.018	845.900	637.185
331.314	15.887	845.679	636.464
332.329	15.954	844.868	636.051
333.343	15.895	844.028	635.140
334.358	15.966	843.593	635.024
335.373	16.082	843.113	635.044
336.387	16.009	842.473	634.232
337.402	16.131	842.194	634.423
338.416	16.220	841.143	633.910
339.431	16.077	840.932	633.161
340.446	16.091	840.505	632.835
341.460	16.041	840.041	632.241
342.475	16.187	839.012	631.959
343.489	16.305	838.548	631.992
344.504	16.290	838.239	631.650
345.519	16.212	837.666	630.869
346.533	16.363	837.288	631.093
347.548	16.294	836.588	630.253
348.562	16.313	836.232	630.000
349.577	16.336	835.518	629.491
350.592	16.133	835.105	628.368
351.606	16.398	834.257	628.662
352.621	16.451	833.622	628.324
353.635	16.229	833.773	627.555
354.650	16.332	833.230	627.476
355.665	16.228	832.781	626.696
356.679	16.335	832.330	626.697
357.694	16.456	831.567	626.516
358.708	16.417	830.589	625.580
359.723	16.471	830.301	625.506
360.738	16.349	829.959	624.744
361.752	16.447	829.736	624.882
362.767	16.333	829.367	624.127
363.781	16.564	828.766	624.471
364.796	16.510	828.134	623.742
365.810	16.476	828.065	623.511
366.825	16.616	827.228	623.338
367.840	16.540	827.223	623.002
368.854	16.575	826.870	622.807
369.869	16.549	826.549	622.415
370.883	16.489	825.978	621.712
371.898	16.680	824.837	621.500
372.913	16.548	825.022	621.096
373.927	16.821	823.663	621.019
374.942	16.801	822.939	620.347
375.956	16.657	822.549	619.469
376.971	16.875	821.711	619.581
377.986	16.772	821.288	618.833
379.000	16.766	820.916	618.474
380.015	16.870	820.537	618.513
381.029	17.045	819.735	618.491
382.044	16.974	819.304	617.853
383.059	16.856	818.761	616.960
384.073	16.986	818.174	616.935
385.088	16.842	817.962	616.197
386.102	16.843	817.381	615.711
387.117	16.756	816.682	614.812
388.132	16.836	816.351	614.798
389.146	16.760	816.040	614.236
390.161	16.958	815.352	614.380
391.175	16.963	814.984	614.066
392.190	16.960	814.738	613.816
393.205	16.970	814.162	613.362
394.219	17.001	813.801	613.151
395.234	16.991	813.343	612.713
396.248	17.013	812.679	612.238
397.263	17.009	812.038	611.686
398.278	16.990	811.516	611.170
399.292	16.988	811.160	610.842
400.307	17.052	810.885	610.812
401.321	17.083	810.320	610.444
402.336	16.991	810.184	609.956
403.350	17.096	809.773	609.969
404.365	16.959	809.427	609.165
405.380	17.079	808.826	609.088
406.394	17.085	808.484	608.798
407.409	17.177	807.575	608.388
408.423	17.303	807.269	608.554
409.438	17.248	806.833	607.978
410.453	17.302	806.570	607.918
411.467	17.342	806.139	607.683
412.482	17.328	805.069	606.773
413.496	17.272	805.057	606.508
414.511	17.341	804.461	606.251
415.526	17.459	804.448	606.609
416.540	17.455	803.922	606.146
417.555	17.356	803.255	605.237
418.569	17.249	803.219	604.773
419.584	17.245	802.684	604.304
420.599	17.395	801.777	604.099
421.613	110.306	1295.084	1475.827
422.628	94.982	1366.941	1475.888
