DTS Sentinel unit serial number:	SN413079Multiplexer serial number:	ORYXHardware model number:	OX4-SRSoftware version number:	ORYX F/W v4.00 Oryx Data Collector v3.7.2.0data status	okinstallation	princeton_trtdifferential loss correction	single-endedforward channel	channel 3reverse channel	N/Adate	2019/09/12time	12:50:10forward acquisition time	60.00reverse acquisition time	0.00gamma	496.2192k internal	0.2292k external	0.2292temperature offset calibration	1.0044default loss term (dB/km)	0.3790temperature slope calibration	1.0000multiplexer offset coefficient	1.0000multiplexer slope coefficient	1.0000fibre end	0.00T internal ref (°C)	40.69T ext. ref 1 (°C)	2.07T ext. ref 2 (°C)	37.04length (m)	temperature (°C)	Stokes	anti-Stokes-747.200	-17.906	-0.286	0.183
-746.185	-200.000	-0.011	0.121
-745.171	-200.000	-0.040	-0.230
-744.156	175.756	0.145	-0.215
-743.142	-160.478	-0.196	0.011
-742.127	800.000	-0.075	-0.222
-741.112	-1.466	-0.173	0.125
-740.098	-149.888	-0.223	0.018
-739.083	-170.221	0.280	-0.010
-738.069	-144.848	-0.131	-0.012
-737.054	-81.330	0.049	-0.017
-736.039	-200.000	-0.013	0.411
-735.025	199.599	0.067	0.105
-734.010	-48.740	0.267	-0.131
-732.996	774.477	-0.028	-0.079
-731.981	-200.000	-0.042	-0.264
-730.966	17.982	0.057	0.047
-729.952	-26.255	-0.134	0.081
-728.937	-57.177	0.017	-0.008
-727.923	-105.406	0.274	-0.064
-726.908	-32.025	-0.264	-0.151
-725.894	38.099	-0.414	0.377
-724.879	33.329	-0.328	0.292
-723.864	0.892	-0.160	0.118
-722.850	-41.959	-0.351	-0.184
-721.835	172.293	-0.085	-0.126
-720.821	-74.760	0.108	0.040
-719.806	394.600	-0.141	-0.301
-718.791	50.086	-0.144	-0.139
-717.777	-142.092	0.385	-0.039
-716.762	-39.687	0.221	0.118
-715.748	-182.770	0.142	-0.003
-714.733	26.493	0.177	0.151
-713.718	19.684	-0.123	0.101
-712.704	-75.326	-0.088	0.032
-711.689	120.203	0.067	-0.085
-710.675	71.979	-0.076	0.081
-709.660	-76.268	0.385	0.139
-708.645	606.070	0.161	-0.411
-707.631	-200.000	-0.009	-0.171
-706.616	-200.000	-0.008	-0.130
-705.602	-200.000	-0.028	-0.367
-704.587	-129.466	-0.221	-0.031
-703.572	366.202	-0.051	0.104
-702.558	-191.827	-0.024	0.000
-701.543	67.145	-0.122	-0.127
-700.529	-200.000	0.016	-0.156
-699.514	800.000	-0.060	-0.241
-698.499	-28.122	0.250	-0.148
-697.485	54.829	0.146	0.144
-696.470	326.387	0.157	0.307
-695.456	-106.514	-0.116	-0.026
-694.441	549.021	-0.168	-0.412
-693.426	441.286	-0.073	0.163
-692.412	465.423	-0.102	0.234
-691.397	-173.724	0.138	0.004
-690.383	-200.000	0.016	0.133
-689.368	-167.696	-0.145	-0.006
-688.354	-200.000	-0.033	-0.270
-687.339	15.856	-0.186	0.149
-686.324	-42.919	-0.097	0.050
-685.310	-135.805	0.073	-0.009
-684.295	-113.675	-0.204	0.041
-683.281	709.788	0.073	-0.197
-682.266	-132.931	0.160	-0.021
-681.251	57.112	-0.146	0.145
-680.237	-68.449	0.301	0.119
-679.222	59.344	0.037	0.037
-678.208	-165.388	-0.150	-0.007
-677.193	-133.076	-0.198	0.026
-676.178	-200.000	0.001	0.094
-675.164	59.697	0.278	-0.280
-674.149	-123.628	-0.118	-0.019
-673.135	270.052	-0.133	-0.239
-672.120	-84.868	0.319	-0.102
-671.105	165.577	0.141	-0.204
-670.091	-93.418	-0.012	0.003
-669.076	-94.954	-0.270	0.075
-668.062	-150.137	-0.046	-0.004
-667.047	80.155	0.173	-0.189
-666.032	-197.700	-0.467	0.003
-665.018	132.522	-0.140	0.185
-664.003	9.613	0.341	0.264
-662.989	227.138	-0.198	-0.329
-661.974	741.443	0.132	0.363
-660.959	-0.520	-0.264	-0.191
-659.945	800.000	0.034	-0.116
-658.930	-92.554	-0.095	0.027
-657.916	-116.501	-0.327	-0.062
-656.901	-115.767	0.127	0.024
-655.886	21.632	0.075	-0.062
-654.872	-153.254	-0.225	0.016
-653.857	447.076	0.013	0.029
-652.843	-84.419	-0.301	0.097
-651.828	345.958	0.070	0.140
-650.814	-68.446	0.170	-0.067
-649.799	8.809	-0.280	0.215
-648.784	800.000	0.021	0.089
-647.770	800.000	0.011	0.036
-646.755	-102.749	-0.185	-0.045
-645.741	-91.992	0.135	-0.039
-644.726	-200.000	0.038	0.344
-643.711	-123.655	-0.082	-0.013
-642.697	-0.115	-0.220	-0.160
-641.682	590.804	-0.137	-0.344
-640.668	-200.000	0.001	-0.170
-639.653	800.000	0.043	-0.188
-638.638	87.026	0.136	-0.153
-637.624	-52.916	0.134	-0.063
-636.609	800.000	-0.040	0.118
-635.595	-127.542	-0.381	-0.056
-634.580	-200.000	0.028	-0.187
-633.565	-200.000	-0.011	-0.117
-632.551	103.008	0.251	-0.300
-631.536	64.674	0.340	-0.350
-630.522	-200.000	0.015	0.199
-629.507	-115.504	-0.181	-0.035
-628.492	335.033	0.108	0.213
-627.478	8.060	-0.017	0.013
-626.463	25.043	-0.421	-0.356
-625.449	-100.168	-0.249	-0.063
-624.434	-200.000	-0.040	0.000
-623.419	-200.000	-0.008	0.102
-622.405	178.760	0.194	0.290
-621.390	-48.041	0.474	0.233
-620.376	29.067	-0.049	0.042
-619.361	17.106	-0.216	0.175
-618.346	-33.760	-0.238	-0.134
-617.332	-200.000	0.114	0.572
-616.317	-155.981	0.130	-0.008
-615.303	759.086	0.139	0.384
-614.288	11.171	-0.055	0.043
-613.273	-168.990	0.119	0.005
-612.259	16.496	0.113	-0.091
-611.244	-163.168	0.252	-0.012
-610.230	75.623	-0.060	-0.064
-609.215	-131.130	0.231	0.031
-608.201	30.025	-0.256	0.222
-607.186	10.419	-0.043	0.033
-606.171	3.078	-0.096	0.071
-605.157	157.043	-0.036	0.050
-604.142	412.596	-0.137	0.295
-603.128	-200.000	0.031	-0.148
-602.113	-101.017	0.228	0.057
-601.098	57.524	-0.094	0.093
-600.084	239.527	-0.081	0.137
-599.069	195.791	-0.064	-0.100
-598.055	800.000	-0.024	-0.105
-597.040	-81.575	0.157	0.052
-596.025	-200.000	-0.005	-0.069
-595.011	-18.876	-0.126	-0.080
-593.996	-44.453	-0.329	-0.167
-592.982	-141.619	-0.592	-0.061
-591.967	294.556	0.171	-0.318
-590.952	21.118	0.082	-0.068
-589.938	129.966	0.204	-0.265
-588.923	-200.000	-0.023	0.112
-587.909	800.000	-0.040	-0.145
-586.894	-183.758	0.091	0.002
-585.879	108.361	0.111	-0.134
-584.865	800.000	0.114	0.333
-583.850	-59.029	-0.296	-0.130
-582.836	62.983	-0.107	-0.109
-581.821	800.000	0.056	-0.208
-580.806	-200.000	-0.037	-0.181
-579.792	-58.974	0.168	-0.074
-578.777	800.000	0.118	0.406
-577.763	-200.000	0.003	0.322
-576.748	-173.735	-0.209	0.006
-575.733	800.000	-0.147	-0.427
-574.719	200.317	-0.094	-0.146
-573.704	-200.000	0.014	0.080
-572.690	101.743	-0.101	0.120
-571.675	-9.554	-0.295	-0.200
-570.661	-30.411	-0.194	-0.112
-569.646	746.355	0.076	-0.207
-568.631	-72.118	0.128	-0.048
-567.617	-51.558	-0.518	-0.246
-566.602	-45.133	-0.295	-0.149
-565.588	-36.021	0.100	0.055
-564.573	-89.388	0.248	-0.074
-563.558	70.896	0.118	-0.124
-562.544	-200.000	0.002	-0.141
-561.529	-13.786	0.098	-0.065
-560.515	389.069	0.049	0.102
-559.500	68.962	-0.215	0.224
-558.485	-27.270	0.343	-0.203
-557.471	-200.000	-0.102	0.488
-556.456	-56.468	0.276	0.124
-555.442	-75.223	-0.151	0.055
-554.427	21.117	0.245	-0.202
-553.412	-200.000	0.003	0.137
-552.398	-71.992	-0.272	-0.103
-551.383	-73.857	-0.171	-0.063
-550.369	133.588	-0.094	0.123
-549.354	20.126	-0.231	0.189
-548.339	-69.064	0.096	0.038
-547.325	-28.820	-0.348	-0.203
-546.310	90.847	-0.188	0.214
-545.296	-125.320	-0.242	-0.037
-544.281	46.250	-0.297	-0.279
-543.266	-200.000	0.017	-0.216
-542.252	598.351	-0.102	0.258
-541.237	276.899	0.168	0.303
-540.223	-118.315	-0.320	-0.058
-539.208	-200.000	-0.030	-0.145
-538.193	-186.456	-0.126	-0.002
-537.179	-123.580	-0.282	-0.045
-536.164	20.216	0.118	0.097
-535.150	36.330	0.088	0.079
-534.135	-89.722	0.077	-0.023
-533.121	386.457	0.019	-0.039
-532.106	444.853	-0.097	-0.216
-531.091	468.710	0.057	-0.131
-530.077	179.979	0.049	0.073
-529.062	-38.079	-0.238	0.128
-528.048	0.408	-0.221	0.160
-527.033	182.326	-0.164	-0.245
-526.018	105.268	-0.238	-0.285
-525.004	-173.569	-0.147	0.004
-523.989	-65.998	-0.274	-0.111
-522.975	43.384	0.244	0.226
-521.960	-54.837	-0.180	0.082
-520.945	255.024	-0.033	-0.057
-519.931	-50.153	-0.099	-0.048
-518.916	800.000	-0.030	-0.104
-517.902	-39.167	-0.125	0.067
-516.887	-200.000	0.006	-0.168
-515.872	-98.076	-0.395	-0.103
-514.858	-47.864	-0.270	0.133
-513.843	40.396	-0.177	0.161
-512.829	-66.782	0.063	-0.025
-511.814	21.006	0.149	-0.123
-510.799	800.000	-0.067	0.236
-509.785	178.456	0.189	-0.279
-508.770	137.906	0.181	0.240
-507.756	4.443	-0.214	0.159
-506.741	-91.758	-0.056	-0.016
-505.726	-15.351	-0.154	0.100
-504.712	-81.470	0.111	0.037
-503.697	465.849	0.067	0.151
-502.683	800.000	-0.043	0.121
-501.668	-200.000	0.047	0.223
-500.653	-130.870	0.253	-0.034
-499.639	495.832	-0.169	0.395
-498.624	101.827	0.096	-0.113
-497.610	90.149	0.274	-0.311
-496.595	-200.000	-0.027	-0.221
-495.581	-172.660	0.328	-0.010
-494.566	-61.343	0.016	0.007
-493.551	174.003	0.111	-0.162
-492.537	-28.328	-0.077	0.045
-491.522	169.631	0.060	0.087
-490.508	78.643	0.273	0.296
-489.493	93.028	0.147	-0.168
-488.478	106.232	0.104	0.125
-487.464	-200.000	0.004	0.130
-486.449	-14.530	0.173	0.113
-485.435	643.553	-0.136	0.351
-484.420	-198.497	0.136	0.001
-483.405	-40.281	-0.095	-0.050
-482.391	205.737	-0.100	-0.158
-481.376	800.000	0.037	0.123
-480.362	-73.497	-0.219	0.081
-479.347	128.882	0.077	-0.099
-478.332	287.814	-0.127	0.233
-477.318	24.287	0.181	0.151
-476.303	-26.818	0.204	0.121
-475.289	-200.000	0.014	0.120
-474.274	65.355	-0.105	-0.107
-473.259	-200.000	0.011	-0.193
-472.245	800.000	0.039	-0.144
-471.230	-169.504	0.239	0.009
-470.216	-40.677	-0.048	0.025
-469.201	76.712	0.200	-0.215
-468.186	-93.859	0.235	0.066
-467.172	-63.411	0.169	0.070
-466.157	499.376	-0.064	0.150
-465.143	-77.200	0.157	-0.055
-464.128	800.000	0.084	-0.355
-463.113	-33.347	0.193	0.108
-462.099	-144.169	-0.196	0.019
-461.084	-124.536	0.132	-0.021
-460.070	800.000	-0.072	0.239
-459.055	-156.770	-0.427	0.027
-458.040	-157.364	-0.134	0.008
-457.026	-135.100	-0.338	0.041
-456.011	-139.674	0.232	0.025
-454.997	44.825	0.266	-0.247
-453.982	-200.000	-0.044	0.299
-452.968	239.474	0.040	0.068
-451.953	800.000	0.041	0.142
-450.938	-176.499	0.280	-0.007
-449.924	-200.000	0.029	0.423
-448.909	-27.847	-0.330	-0.194
-447.895	263.298	-0.106	0.186
-446.880	-102.139	0.003	0.001
-445.865	-58.112	-0.334	-0.147
-444.851	445.131	-0.141	0.314
-443.836	-14.728	0.237	0.154
-442.822	3.464	-0.138	-0.102
-441.807	-114.157	-0.084	-0.016
-440.792	-200.000	-0.029	0.274
-439.778	-87.205	0.220	-0.068
-438.763	-130.185	-0.261	-0.036
-437.749	145.953	0.187	-0.254
-436.734	-40.992	0.103	-0.054
-435.719	-88.341	0.230	0.069
-434.705	-117.972	0.354	-0.064
-433.690	800.000	-0.018	0.050
-432.676	800.000	-0.047	0.153
-431.661	-60.688	0.180	0.077
-430.646	10.271	0.108	0.083
-429.632	15.608	-0.131	0.104
-428.617	629.899	0.042	0.108
-427.603	800.000	-0.062	0.181
-426.588	-200.000	0.034	0.193
-425.573	-69.889	-0.126	0.049
-424.559	206.671	-0.159	0.251
-423.544	260.861	-0.159	0.277
-422.530	90.742	-0.112	0.127
-421.515	800.000	0.025	-0.088
-420.500	-200.000	-0.010	0.047
-419.486	30.332	0.177	-0.153
-418.471	11.961	-0.071	0.055
-417.457	368.683	-0.081	-0.166
-416.442	59.345	-0.115	0.115
-415.428	386.860	0.099	0.206
-414.413	438.859	-0.084	-0.185
-413.398	-200.000	0.052	0.335
-412.384	-82.039	0.118	-0.039
-411.369	-55.521	-0.207	0.094
-410.355	-62.439	-0.369	0.155
-409.340	-200.000	0.012	-0.244
-408.325	-88.260	-0.081	-0.025
-407.311	-66.256	-0.239	-0.096
-406.296	50.092	-0.200	0.190
-405.282	401.408	0.048	-0.102
-404.267	326.544	0.013	-0.025
-403.252	-196.643	-0.477	-0.003
-402.238	41.929	0.154	-0.141
-401.223	-200.000	0.033	-0.309
-400.209	48.900	0.096	-0.091
-399.194	-80.128	0.213	0.072
-398.179	12.152	-0.229	-0.178
-397.165	650.816	-0.086	-0.222
-396.150	-106.279	0.255	-0.058
-395.136	-22.238	0.124	0.076
-394.121	38.928	0.114	0.103
-393.106	95.936	0.059	0.069
-392.092	-200.000	0.005	0.286
-391.077	-151.279	-0.212	-0.016
-390.063	-44.851	0.215	-0.108
-389.048	47.381	-0.104	-0.098
-388.033	-200.000	0.003	-0.344
-387.019	-82.857	0.373	0.122
-386.004	800.000	0.212	0.615
-384.990	-40.488	-0.062	0.033
-383.975	-40.569	0.080	-0.042
-382.960	269.754	0.036	0.064
-381.946	800.000	-0.049	-0.151
-380.931	213.973	-0.162	-0.259
-379.917	-200.000	0.018	0.193
-378.902	146.608	0.162	-0.220
-377.888	292.942	-0.158	-0.292
-376.873	7.848	-0.050	0.038
-375.858	55.923	0.227	0.222
-374.844	156.066	-0.202	-0.281
-373.829	-18.015	0.178	0.113
-372.815	-200.000	0.013	-0.366
-371.800	-139.766	0.229	-0.025
-370.785	-200.000	0.056	0.270
-369.771	-23.683	-0.340	0.206
-368.756	-143.987	0.104	0.010
-367.742	-200.000	-0.020	-0.322
-366.727	137.984	0.159	0.211
-365.712	-10.465	0.166	0.111
-364.698	-200.000	-0.040	-0.189
-363.683	-24.445	-0.126	0.076
-362.669	-200.000	0.005	0.096
-361.654	174.976	-0.102	0.149
-360.639	-163.689	-0.388	0.018
-359.625	476.264	0.134	0.306
-358.610	-200.000	-0.007	-0.172
-357.596	-109.097	-0.057	0.012
-356.581	394.532	-0.069	0.144
-355.566	-200.000	0.063	-0.298
-354.552	800.000	-0.062	0.192
-353.537	667.005	-0.130	-0.339
-352.523	-38.877	0.153	-0.081
-351.508	291.695	0.221	0.405
-350.493	-122.613	-0.211	-0.034
-349.479	39.011	0.185	0.167
-348.464	549.488	0.100	-0.243
-347.450	-188.450	0.345	-0.004
-346.435	591.832	0.106	-0.264
-345.420	281.190	-0.085	-0.154
-344.406	745.834	-0.075	-0.204
-343.391	185.450	0.118	-0.177
-342.377	-200.000	0.254	-0.001
-341.362	-200.000	-0.016	-0.264
-340.348	-200.000	-0.011	-0.217
-339.333	109.907	0.260	-0.314
-338.318	-23.433	-0.105	0.064
-337.304	46.587	-0.168	-0.157
-336.289	741.781	-0.079	-0.214
-335.275	122.201	-0.274	0.345
-334.260	40.236	0.244	0.221
-333.245	-28.399	0.194	0.113
-332.231	173.882	-0.157	0.229
-331.216	-60.130	0.255	-0.110
-330.202	-97.315	0.364	0.096
-329.187	170.567	0.136	-0.196
-328.172	334.994	-0.018	-0.034
-327.158	-0.274	-0.056	-0.040
-326.143	-32.287	-0.114	0.064
-325.129	57.422	-0.122	-0.120
-324.114	-28.836	0.325	-0.188
-323.099	33.659	-0.183	-0.160
-322.085	88.023	-0.136	0.152
-321.070	304.794	-0.148	0.277
-320.056	800.000	0.066	-0.185
-319.041	-157.054	0.206	-0.013
-318.026	-72.651	0.238	0.088
-317.012	-160.717	0.054	0.003
-315.997	-84.764	0.212	-0.067
-314.983	-14.205	-0.480	-0.312
-313.968	283.150	0.028	0.051
-312.953	124.632	-0.159	0.202
-311.939	-131.641	0.132	-0.017
-310.924	-200.000	0.044	-0.284
-309.910	-93.930	0.267	0.074
-308.895	719.706	0.072	-0.193
-307.880	434.566	-0.077	-0.168
-306.866	224.416	0.126	0.206
-305.851	797.102	0.125	-0.346
-304.837	17.398	-0.295	-0.236
-303.822	-100.268	-0.162	-0.041
-302.807	0.348	-0.225	-0.161
-301.793	-200.000	-0.004	0.134
-300.778	-60.235	-0.260	0.111
-299.764	800.000	0.047	-0.152
-298.749	-104.716	0.405	-0.094
-297.735	25.792	0.118	-0.099
-296.720	-118.340	-0.251	-0.045
-295.705	-200.000	0.044	0.303
-294.691	37.019	-0.041	-0.037
-293.676	-11.605	-0.102	0.067
-292.662	108.160	0.192	0.230
-291.647	-19.323	-0.418	-0.261
-290.632	389.511	0.048	0.101
-289.618	-45.382	0.339	-0.169
-288.603	475.647	-0.131	-0.298
-287.589	-14.594	0.237	-0.153
-286.574	-94.823	0.287	-0.078
-285.559	-86.117	-0.284	0.088
-284.545	-53.617	-0.157	0.072
-283.530	250.197	0.216	-0.369
-282.516	-140.255	0.180	0.019
-281.501	-200.000	0.056	0.344
-280.486	800.000	0.044	-0.174
-279.472	-6.071	0.059	0.040
-278.457	-93.704	-0.177	-0.049
-277.443	785.356	0.157	0.433
-276.428	-65.340	-0.188	0.076
-275.413	800.000	-0.020	-0.060
-274.399	-116.569	0.352	-0.065
-273.384	800.000	-0.033	-0.143
-272.370	234.810	-0.249	0.413
-271.355	792.211	0.059	-0.164
-270.340	-103.462	-0.352	0.083
-269.326	85.187	-0.038	0.042
-268.311	110.875	0.235	-0.284
-267.297	595.511	0.065	-0.161
-266.282	206.587	0.105	-0.164
-265.267	313.947	-0.165	-0.312
-264.253	-200.000	-0.007	0.116
-263.238	-65.772	0.213	-0.086
-262.224	209.607	-0.179	-0.282
-261.209	182.059	-0.170	0.251
-260.195	54.879	0.105	0.102
-259.180	-123.932	0.403	0.064
-258.165	-95.791	-0.294	0.079
-257.151	321.922	-0.064	0.122
-256.136	337.976	0.018	-0.036
-255.122	22.909	-0.057	-0.047
-254.107	-200.000	0.030	0.289
-253.092	-141.146	-0.323	0.033
-252.078	-58.147	0.298	0.131
-251.063	-200.000	0.031	0.448
-250.049	-44.208	-0.046	0.023
-249.034	-143.758	0.258	-0.025
-248.019	422.606	0.099	-0.214
-247.005	800.000	-0.067	-0.238
-245.990	-90.295	0.289	-0.084
-244.976	55.381	-0.246	-0.239
-243.961	-97.536	0.250	-0.065
-242.946	-200.000	0.063	0.368
-241.932	677.954	0.086	0.224
-240.917	366.166	0.026	-0.052
-239.903	284.251	-0.126	-0.228
-238.888	-59.892	-0.285	0.122
-237.873	760.671	0.023	-0.063
-236.859	109.694	0.056	-0.068
-235.844	-53.556	-0.080	-0.037
-234.830	-200.000	0.000	-0.189
-233.815	264.423	-0.124	-0.216
-232.800	-108.065	0.061	0.013
-231.786	-67.612	-0.209	0.082
-230.771	800.000	-0.139	0.480
-229.757	55.760	0.078	0.076
-228.742	-37.250	0.211	0.113
-227.727	-200.000	0.020	-0.318
-226.713	246.153	-0.017	-0.028
-225.698	-59.124	0.256	0.111
-224.684	-141.420	0.077	-0.008
-223.669	-35.793	0.095	-0.052
-222.655	-200.000	0.006	-0.140
-221.640	18.059	0.026	-0.021
-220.625	525.505	0.028	-0.066
-219.611	206.340	0.123	-0.192
-218.596	48.547	0.263	-0.248
-217.582	-200.000	-0.042	0.209
-216.567	-76.219	0.275	0.097
-215.552	97.513	-0.033	-0.038
-214.538	184.613	-0.210	-0.312
-213.523	-72.979	-0.318	-0.117
-212.509	481.883	0.026	0.059
-211.494	-167.055	-0.144	0.006
-210.479	-173.126	0.201	-0.006
-209.465	18.874	0.064	-0.051
-208.450	45.290	-0.092	0.085
-207.436	-200.000	-0.013	0.179
-206.421	-12.171	-0.152	0.100
-205.406	25.366	0.139	0.116
-204.392	-56.668	0.193	-0.086
-203.377	167.607	0.091	-0.129
-202.363	6.320	-0.210	0.156
-201.348	-36.925	0.138	-0.074
-200.333	-116.610	0.195	0.036
-199.319	-200.000	-0.058	0.355
-198.304	396.881	0.108	-0.226
-197.290	47.506	0.263	-0.246
-196.275	37.608	0.248	-0.220
-195.260	800.000	0.099	-0.292
-194.246	27.061	0.088	-0.074
-193.231	-200.000	0.010	0.046
-192.217	-80.948	-0.079	-0.026
-191.202	179.326	0.130	-0.190
-190.187	-187.081	-0.057	0.001
-189.173	-77.749	-0.204	0.071
-188.158	360.626	-0.068	0.137
-187.144	800.000	-0.026	0.074
-186.129	344.338	0.082	0.160
-185.114	77.348	0.199	0.212
-184.100	-74.128	0.182	0.066
-183.085	46.257	0.143	0.133
-182.071	800.000	0.121	0.448
-181.056	-69.574	-0.055	0.021
-180.042	-10.420	-0.163	0.108
-179.027	194.534	-0.079	-0.120
-178.012	-152.049	-0.200	0.015
-176.998	220.926	0.108	0.174
-175.983	-80.734	0.243	-0.081
-174.969	800.000	0.099	-0.387
-173.954	-13.456	-0.168	0.109
-172.939	-87.075	0.118	0.036
-171.925	183.277	-0.025	0.037
-170.910	-126.142	0.039	0.006
-169.896	264.913	-0.115	0.201
-168.881	-129.369	0.130	-0.018
-167.866	141.944	0.065	0.086
-166.852	137.856	0.146	0.192
-165.837	-57.564	-0.356	0.156
-164.823	4.311	-0.188	0.138
-163.808	272.505	0.143	0.253
-162.793	31.261	-0.095	0.082
-161.779	-180.523	0.414	-0.009
-160.764	-88.922	-0.112	0.033
-159.750	-200.000	-0.019	0.126
-158.735	-148.596	0.024	-0.002
-157.720	741.105	0.086	-0.232
-156.706	17.278	0.150	-0.119
-155.691	-81.149	0.018	0.006
-154.677	-23.142	0.074	-0.044
-153.662	310.282	-0.072	-0.134
-152.647	-60.622	-0.418	-0.177
-151.633	-5.391	0.139	0.096
-150.618	-10.625	0.077	0.051
-149.604	-69.604	0.230	0.088
-148.589	-74.837	0.089	-0.032
-147.574	-200.000	-0.068	0.371
-146.560	-47.540	0.106	-0.051
-145.545	-55.544	0.180	-0.081
-144.531	-175.324	-0.349	0.010
-143.516	226.839	-0.119	0.193
-142.502	123.805	0.208	-0.261
-141.487	708.272	-0.041	0.108
-140.472	137.749	-0.155	-0.203
-139.458	-128.713	-0.315	-0.044
-138.443	-53.129	-0.231	0.106
-137.429	-200.000	0.043	-0.236
-136.414	-200.000	-0.015	-0.103
-135.399	800.000	-0.051	-0.190
-134.385	800.000	-0.016	0.048
-133.370	72.586	0.325	0.339
-132.356	-81.346	-0.036	-0.012
-131.341	-87.106	-0.149	-0.045
-130.326	800.000	0.143	0.483
-129.312	72.814	0.048	-0.050
-128.297	-91.598	0.447	0.127
-127.283	-9.648	0.353	-0.235
-126.268	350.800	-0.085	0.168
-125.253	3.042	-0.160	0.116
-124.239	3.441	-0.124	0.090
-123.224	-200.000	-0.026	0.151
-122.210	112.355	0.061	-0.074
-121.195	-200.000	-0.007	-0.194
-120.180	-200.000	0.019	0.154
-119.166	176.180	-0.214	-0.311
-118.151	303.059	-0.092	-0.171
-117.137	-200.000	-0.010	-0.158
-116.122	31.149	-0.178	0.152
-115.107	54.672	0.206	-0.199
-114.093	35.874	0.113	0.099
-113.078	-200.000	0.029	0.170
-112.064	235.515	-0.104	-0.172
-111.049	800.000	0.034	-0.115
-110.034	-200.000	-0.066	0.312
-109.020	531.102	-0.126	0.297
-108.005	-200.000	0.068	0.313
-106.991	-23.840	-0.224	-0.134
-105.976	-107.931	0.194	0.042
-104.962	-200.000	-0.013	0.402
-103.947	239.646	-0.244	-0.406
-102.932	91.382	0.118	0.132
-101.918	20.537	0.114	-0.092
-100.903	-200.000	0.012	0.075
-99.889	-129.264	-0.170	0.024
-98.874	514.238	-0.113	0.262
-97.859	136.837	0.183	-0.238
-96.845	-173.888	-0.235	-0.007
-95.830	-136.452	-0.100	-0.012
-94.816	-200.000	-0.035	0.184
-93.801	-123.294	-0.219	-0.035
-92.786	-200.000	0.010	0.093
-91.772	-14.871	-0.161	-0.103
-90.757	15.417	0.095	0.075
-89.743	-200.000	0.011	0.085
-88.728	90.020	0.140	0.156
-87.713	-200.000	-0.139	0.000
-86.699	-96.058	0.110	0.029
-85.684	63.156	0.190	0.190
-84.670	-18.486	0.245	-0.153
-83.655	-200.000	0.040	-0.287
-82.640	-148.131	0.244	-0.020
-81.626	-5.348	0.161	0.111
-80.611	649.472	-0.127	0.325
-79.597	-200.000	0.007	-0.065
-78.582	311.277	0.186	0.348
-77.567	-22.705	0.295	-0.178
-76.553	-157.777	0.228	0.014
-75.538	-126.613	0.234	0.035
-74.524	428.534	0.143	0.307
-73.509	401.250	0.130	-0.273
-72.494	65.846	-0.129	-0.131
-71.480	-35.638	-0.261	-0.141
-70.465	800.000	-0.044	-0.130
-69.451	275.670	0.261	0.461
-68.436	-31.530	-0.074	-0.041
-67.422	123.632	0.052	0.065
-66.407	336.074	-0.051	-0.100
-65.392	-200.000	0.017	-0.238
-64.378	56.406	0.015	-0.014
-63.363	-200.000	-0.001	0.076
-62.349	-57.347	0.193	0.085
-61.334	61.345	-0.940	-0.931
-60.319	94.344	0.275	0.311
-59.305	-200.000	-0.208	-0.970
-58.290	800.000	0.262	0.828
-57.276	800.000	0.515	1.514
-56.261	-200.000	76.547	510.213
-55.246	518.646	1331.622	3107.024
-54.232	145.773	2563.985	3424.586
-53.217	116.694	2247.764	2748.237
-52.203	51.254	1769.856	1673.828
-51.188	44.035	1567.486	1431.660
-50.173	41.363	1537.210	1385.418
-49.159	57.625	1573.864	1532.791
-48.144	63.551	1593.645	1593.519
-47.130	44.679	1557.670	1426.984
-46.115	41.038	1542.887	1388.044
-45.100	40.755	1539.661	1383.118
-44.086	40.716	1537.718	1381.044
-43.071	40.635	1535.727	1378.637
-42.057	40.574	1534.082	1376.682
-41.042	40.758	1532.252	1376.263
-40.027	40.594	1530.958	1373.909
-39.013	40.586	1529.607	1372.587
-37.998	40.747	1527.790	1372.016
-36.984	40.687	1526.766	1370.631
-35.969	40.683	1525.496	1369.405
-34.954	40.763	1523.534	1368.142
-33.940	40.622	1522.792	1366.451
-32.925	40.778	1520.717	1365.605
-31.911	40.728	1519.796	1364.378
-30.896	40.666	1518.278	1362.536
-29.881	40.737	1517.287	1362.083
-28.867	40.766	1515.523	1360.640
-27.852	40.771	1514.693	1359.878
-26.838	40.781	1512.542	1357.960
-25.823	40.731	1511.037	1356.213
-24.809	40.700	1509.378	1354.459
-23.794	40.715	1508.000	1353.275
-22.779	40.752	1507.379	1352.916
-21.765	40.659	1506.221	1351.186
-20.750	40.781	1504.812	1350.697
-19.736	40.741	1504.106	1349.743
-18.721	40.721	1502.677	1348.266
-17.706	40.736	1501.409	1347.176
-16.692	40.791	1500.414	1346.606
-15.677	40.600	1499.475	1344.414
-14.663	40.570	1498.411	1343.205
-13.648	40.566	1497.660	1342.448
-12.633	40.721	1495.939	1341.905
-11.619	40.671	1495.374	1341.005
-10.604	40.597	1494.778	1339.917
-9.590	40.576	1494.162	1339.174
-8.575	40.695	1492.367	1338.314
-7.560	40.696	1491.532	1337.518
-6.546	40.663	1491.006	1336.766
-5.531	40.621	1490.058	1335.583
-4.517	40.561	1489.442	1334.578
-3.502	40.566	1488.767	1333.951
-2.487	40.625	1487.345	1333.022
-1.473	40.675	1486.093	1332.178
-0.458	40.653	1484.807	1330.825
0.556	41.104	1475.586	1321.779
1.571	38.302	1448.989	1279.538
2.586	34.634	1387.047	1201.693
3.600	32.580	1303.900	1117.389
4.615	30.632	1255.311	1064.515
5.629	25.754	1196.730	988.057
6.644	13.684	1103.773	849.741
7.659	3.919	1055.907	764.744
8.673	2.430	1049.563	752.763
9.688	2.107	1046.247	748.733
10.702	1.858	1044.858	746.456
11.717	1.866	1043.669	745.578
12.731	5.349	1047.742	765.501
13.746	16.440	1063.917	832.143
14.761	24.620	1073.985	880.423
15.775	25.550	1074.228	885.129
16.790	25.473	1073.855	884.363
17.804	25.407	1072.967	883.228
18.819	25.256	1071.885	881.519
19.834	25.296	1071.598	881.398
20.848	25.496	1070.804	881.648
21.863	25.491	1070.500	881.298
22.877	25.474	1070.102	880.810
23.892	25.396	1069.563	879.906
24.907	25.278	1069.004	878.789
25.921	25.426	1067.816	878.457
26.936	25.476	1067.201	878.118
27.950	25.325	1066.092	876.393
28.965	25.291	1064.744	875.040
29.980	25.141	1063.476	873.193
30.994	25.194	1062.464	872.539
32.009	25.494	1061.381	873.029
33.023	25.519	1060.586	872.423
34.038	25.310	1060.014	870.858
35.053	25.180	1059.499	869.730
36.067	25.352	1058.786	869.899
37.082	25.359	1058.027	869.232
38.096	25.409	1056.926	868.496
39.111	25.649	1056.191	868.972
40.126	25.663	1055.543	868.428
41.140	25.695	1053.616	866.923
42.155	25.270	1052.529	863.904
43.169	24.953	1051.190	861.205
44.184	24.886	1050.592	860.320
45.199	25.035	1049.614	860.158
46.213	24.991	1048.484	858.943
47.228	24.997	1047.678	858.237
48.242	25.173	1046.612	858.129
49.257	25.172	1046.523	857.973
50.271	25.327	1045.614	857.894
51.286	25.340	1044.931	857.321
52.301	25.579	1044.099	857.703
53.315	25.491	1043.198	856.468
54.330	25.437	1042.670	855.699
55.344	25.188	1042.333	854.163
56.359	25.369	1040.980	853.836
57.374	25.462	1040.349	853.686
58.388	25.192	1039.262	851.437
59.403	25.120	1038.916	850.740
60.417	25.161	1037.977	850.089
61.432	25.110	1036.986	848.960
62.447	25.022	1036.610	848.162
63.461	25.150	1035.775	848.009
64.476	25.204	1035.153	847.680
65.490	25.141	1033.919	846.297
66.505	25.055	1033.155	845.191
67.520	25.029	1032.410	844.382
68.534	25.180	1031.810	844.528
69.549	25.052	1030.615	842.873
70.563	24.667	1029.673	840.222
71.578	24.607	1028.896	839.229
72.593	24.649	1028.293	838.859
73.607	24.477	1027.227	837.111
74.622	24.435	1025.913	835.767
75.636	24.869	1024.941	836.932
76.651	24.922	1024.607	836.835
77.666	24.892	1023.833	835.988
78.680	24.722	1022.434	833.978
79.695	24.690	1022.185	833.550
80.709	24.778	1021.922	833.673
81.724	24.979	1021.184	833.934
82.739	24.968	1019.904	832.762
83.753	24.829	1019.461	831.681
84.768	25.128	1019.066	832.673
85.782	25.396	1018.519	833.400
86.797	25.725	1017.401	833.932
87.812	25.661	1016.885	833.140
88.826	25.597	1015.472	831.614
89.841	25.472	1015.257	830.785
90.855	25.635	1013.923	830.372
91.870	25.616	1013.269	829.679
92.884	25.616	1012.340	828.844
93.899	25.574	1011.345	827.760
94.914	25.458	1010.271	826.278
95.928	25.458	1009.780	825.800
96.943	25.501	1009.010	825.294
97.957	25.287	1007.737	823.203
98.972	25.002	1006.834	821.083
99.987	24.847	1005.160	818.938
101.001	25.078	1004.586	819.452
102.016	25.302	1004.523	820.354
103.030	25.354	1003.370	819.578
104.045	25.197	1002.559	818.126
105.060	25.122	1001.559	816.894
106.074	24.883	1000.567	814.926
107.089	24.995	999.582	814.563
108.103	25.266	999.490	815.644
109.118	25.370	998.396	815.154
110.133	25.077	997.586	813.090
111.147	24.947	996.456	811.507
112.162	24.949	995.208	810.430
113.176	24.702	993.984	808.245
114.191	24.869	993.488	808.526
115.206	24.863	993.056	808.072
116.220	24.714	991.419	806.001
117.235	24.545	990.271	804.232
118.249	24.513	990.647	804.325
119.264	24.795	989.146	804.301
120.279	24.653	988.259	802.870
121.293	24.611	987.565	802.046
122.308	24.674	986.969	801.776
123.322	24.764	986.106	801.409
124.337	24.723	984.944	800.209
125.352	24.525	983.844	798.359
126.366	24.187	982.078	795.346
127.381	23.988	981.165	793.650
128.395	24.390	981.092	795.314
129.410	25.042	980.957	798.035
130.424	25.234	979.879	797.943
131.439	25.187	979.194	797.108
132.454	25.167	977.815	795.826
133.468	25.235	977.228	795.577
134.483	25.186	976.453	794.661
135.497	25.095	975.807	793.661
136.512	25.382	975.424	794.548
137.527	25.473	974.515	794.142
138.541	25.568	973.809	793.912
139.556	25.450	973.199	792.827
140.570	25.456	972.165	791.938
141.585	25.645	971.505	792.162
142.600	25.679	970.488	791.413
143.614	25.558	969.336	789.872
144.629	25.637	968.942	789.830
145.643	25.729	968.608	789.890
146.658	25.638	967.641	788.633
147.673	25.624	965.873	787.063
148.687	25.356	964.977	785.091
149.702	25.400	964.093	784.495
150.716	25.179	963.483	782.965
151.731	25.200	962.162	781.912
152.746	25.286	961.436	781.629
153.760	25.387	961.006	781.646
154.775	25.608	960.202	781.884
155.789	25.562	959.754	781.251
156.804	25.727	958.446	780.834
157.819	25.622	957.151	779.254
158.833	25.644	956.807	779.002
159.848	25.615	956.461	778.527
160.862	25.683	956.062	778.427
161.877	25.610	954.569	776.829
162.892	25.530	953.774	775.765
163.906	25.551	953.330	775.424
164.921	25.476	952.600	774.442
165.935	25.512	950.584	772.888
166.950	25.577	949.718	772.393
167.964	25.634	948.713	771.753
168.979	25.590	948.153	771.040
169.994	25.510	947.000	769.694
171.008	25.310	946.103	768.042
172.023	25.562	945.250	768.357
173.037	25.816	944.502	768.765
174.052	25.444	944.278	766.927
175.067	25.355	942.545	765.073
176.081	25.269	941.712	763.961
177.096	25.382	941.236	763.990
178.110	25.449	940.399	763.525
179.125	25.269	939.148	761.678
180.140	24.993	938.269	759.731
181.154	24.994	937.641	759.157
182.169	24.968	937.523	758.884
183.183	25.188	937.206	759.493
184.198	25.616	936.451	760.624
185.213	25.451	935.947	759.450
186.227	25.614	935.320	759.564
187.242	25.564	934.998	759.021
188.256	25.643	933.897	758.396
189.271	25.662	933.489	758.078
190.286	25.735	932.912	757.849
191.300	25.740	931.447	756.614
192.315	24.988	930.633	752.725
193.329	24.273	928.749	748.136
194.344	23.737	927.876	745.119
195.359	24.332	928.010	747.656
196.373	25.155	928.741	751.630
197.388	25.584	928.189	752.913
198.402	25.488	927.441	751.836
199.417	25.526	927.209	751.741
200.432	25.599	926.636	751.515
201.446	25.527	926.088	750.706
202.461	25.116	925.113	748.133
203.475	25.243	924.170	747.833
204.490	24.838	922.988	745.126
205.504	23.776	920.882	738.945
206.519	23.995	920.891	739.795
207.534	24.993	921.404	744.291
208.548	25.190	920.652	744.436
209.563	25.348	920.654	745.026
210.577	25.352	919.859	744.337
211.592	25.173	919.124	742.931
212.607	25.380	919.508	744.037
213.621	25.675	918.656	744.502
214.636	25.580	917.720	743.285
215.650	25.668	916.784	742.824
216.665	25.711	916.532	742.733
217.680	25.571	916.008	741.665
218.694	25.822	915.450	742.180
219.709	25.539	914.586	740.248
220.723	25.002	913.522	737.114
221.738	25.253	913.031	737.685
222.753	25.601	912.713	738.789
223.767	25.488	911.806	737.529
224.782	25.482	911.284	737.014
225.796	25.638	910.949	737.320
226.811	25.730	910.604	737.351
227.826	25.304	909.475	734.629
228.840	24.572	907.792	730.215
229.855	24.442	906.948	728.938
230.869	24.902	906.321	730.246
231.884	24.582	905.564	728.269
232.899	24.418	905.086	727.153
233.913	25.300	905.378	730.916
234.928	25.550	904.775	731.380
235.942	25.376	904.337	730.255
236.957	25.422	903.375	729.600
237.972	25.067	902.794	727.626
238.986	25.044	901.815	726.678
240.001	25.142	901.562	726.807
241.015	25.173	901.057	726.463
242.030	25.189	900.446	725.971
243.045	25.306	899.848	725.898
244.059	25.301	899.407	725.457
245.074	25.456	899.178	725.834
246.088	25.569	898.171	725.411
247.103	25.278	896.963	723.199
248.117	25.248	896.551	722.682
249.132	25.615	896.664	724.188
250.147	25.942	896.888	725.623
251.161	26.191	895.889	725.750
252.176	26.348	895.711	726.171
253.190	26.299	894.834	725.201
254.205	26.413	894.370	725.216
255.220	26.606	893.896	725.541
256.234	26.491	893.737	724.889
257.249	26.487	892.947	724.168
258.263	26.295	891.668	722.301
259.278	26.297	891.579	722.172
260.293	26.456	890.778	722.094
261.307	26.390	890.488	721.532
262.322	26.377	889.914	720.948
263.336	26.281	888.997	719.759
264.351	25.826	887.900	716.996
265.366	24.734	886.154	711.186
266.380	24.152	885.293	708.117
267.395	25.074	885.395	711.800
268.409	25.876	885.386	714.915
269.424	25.901	884.498	714.232
270.439	25.942	884.277	714.153
271.453	26.068	883.733	714.149
272.468	26.165	882.958	713.844
273.482	26.187	882.977	713.881
274.497	26.532	881.952	714.351
275.512	26.262	881.179	712.598
276.526	25.525	879.939	708.630
277.541	25.774	879.319	709.045
278.555	26.191	879.343	710.647
279.570	26.103	878.633	709.665
280.585	25.854	878.033	708.138
281.599	26.029	877.296	708.165
282.614	26.075	877.080	708.112
283.628	25.582	875.851	705.123
284.643	25.110	875.269	702.743
285.657	25.703	875.176	704.927
286.672	25.654	873.941	703.681
287.687	25.202	872.971	701.071
288.701	25.318	873.172	701.624
289.716	25.762	872.893	703.070
290.730	25.416	871.927	700.881
291.745	25.372	871.058	699.951
292.760	25.319	870.195	698.990
293.774	25.084	869.799	697.694
294.789	25.789	870.625	701.041
295.803	26.648	870.099	703.895
296.818	26.740	869.922	704.045
297.833	26.717	869.462	703.521
298.847	26.532	867.961	701.527
299.862	26.113	867.122	699.167
300.876	26.359	866.893	699.872
301.891	26.630	866.800	700.782
302.906	26.701	866.066	700.401
303.920	26.511	864.789	698.573
304.935	26.132	864.542	696.848
305.949	26.529	863.835	697.749
306.964	26.610	863.673	697.867
307.979	26.592	862.721	696.969
308.993	26.431	862.082	695.772
310.008	26.739	862.051	696.869
311.022	26.918	861.855	697.338
312.037	26.763	860.858	695.875
313.052	26.254	860.683	693.715
314.066	26.255	859.979	693.090
315.081	25.628	858.009	689.043
316.095	24.897	856.865	685.266
317.110	25.336	857.454	687.357
318.125	26.252	857.634	690.943
319.139	25.870	856.811	688.763
320.154	24.774	854.708	682.829
321.168	24.218	853.608	679.770
322.183	24.992	853.772	682.789
323.197	25.894	854.097	686.426
324.212	26.275	853.949	687.697
325.227	26.288	853.617	687.419
326.241	26.413	853.335	687.609
327.256	26.389	852.689	686.933
328.270	26.323	851.686	685.816
329.285	26.134	851.753	685.093
330.300	26.068	850.420	683.708
331.314	25.765	849.484	681.749
332.329	25.782	849.309	681.614
333.343	26.391	848.970	683.583
334.358	26.539	848.979	684.090
335.373	26.513	847.657	682.864
336.387	26.595	847.425	682.927
337.402	26.897	847.301	683.906
338.416	27.175	846.946	684.604
339.431	26.953	846.595	683.425
340.446	26.935	845.920	682.751
341.460	27.231	845.358	683.351
342.475	27.125	844.865	682.494
343.489	26.848	844.080	680.758
344.504	27.070	843.389	680.973
345.519	27.148	843.416	681.229
346.533	27.255	843.613	681.729
347.548	27.429	842.711	681.590
348.562	27.477	842.133	681.240
349.577	27.458	841.471	680.575
350.592	27.371	841.391	680.127
351.606	27.281	840.358	678.896
352.621	27.091	840.061	677.887
353.635	27.245	839.234	677.733
354.650	27.181	838.982	677.231
355.665	26.870	837.935	675.168
356.679	25.671	836.467	669.468
357.694	25.633	835.647	668.612
358.708	26.445	835.631	671.557
359.723	26.346	835.157	670.749
360.738	26.269	835.270	670.493
361.752	26.885	835.170	672.639
362.767	26.994	834.921	672.783
363.781	27.301	834.369	673.414
364.796	27.624	833.913	674.180
365.810	27.667	834.026	674.371
366.825	27.756	833.446	674.173
367.840	27.818	833.084	674.048
368.854	27.677	832.036	672.621
369.869	27.189	831.596	670.407
370.883	26.988	830.812	668.976
371.898	27.116	830.052	668.774
372.913	27.006	829.673	668.006
373.927	27.113	828.818	667.652
374.942	27.155	828.370	667.386
375.956	27.262	827.893	667.335
376.971	27.390	827.368	667.320
377.986	27.421	827.266	667.293
379.000	27.661	826.554	667.541
380.015	27.852	825.866	667.625
381.029	27.586	825.396	666.211
382.044	27.532	824.699	665.394
383.059	27.470	824.697	665.106
384.073	27.574	824.101	664.947
385.088	27.757	823.338	664.941
386.102	27.764	822.802	664.474
387.117	27.519	821.891	662.786
388.132	27.555	821.217	662.315
389.146	27.253	820.375	660.482
390.161	26.661	819.815	657.822
391.175	26.601	819.838	657.565
392.190	27.188	819.651	659.487
393.205	27.205	819.252	659.170
394.219	26.337	817.335	654.427
395.234	24.694	814.767	646.380
396.248	23.745	814.115	642.374
397.263	24.898	814.933	647.135
398.278	26.724	816.057	654.570
399.292	27.303	816.093	656.632
400.307	27.053	815.160	654.922
401.321	27.017	814.636	654.316
402.336	27.030	814.506	654.197
403.350	27.338	814.535	655.272
404.365	27.617	814.530	656.216
405.380	27.937	814.416	657.216
406.394	28.270	813.900	657.938
407.409	28.314	813.797	657.957
408.423	28.513	813.034	657.996
409.438	28.185	812.800	656.572
410.453	28.250	812.193	656.256
411.467	28.388	811.942	656.488
412.482	28.256	811.066	655.249
413.496	28.305	810.563	654.960
414.511	28.408	810.263	655.030
415.526	28.386	809.850	654.559
416.540	28.424	809.673	654.493
417.555	28.407	808.977	653.812
418.569	28.020	808.282	651.813
419.584	28.002	807.840	651.335
420.599	28.065	807.321	651.082
421.613	95.342	1263.571	1376.496
422.628	81.871	1330.068	1376.635
