DTS Sentinel unit serial number:	SN413079Multiplexer serial number:	ORYXHardware model number:	OX4-SRSoftware version number:	ORYX F/W v4.00 Oryx Data Collector v3.7.2.0data status	okinstallation	princeton_trtdifferential loss correction	single-endedforward channel	channel 3reverse channel	N/Adate	2019/09/15time	00:00:35forward acquisition time	60.00reverse acquisition time	0.00gamma	496.2192k internal	0.2320k external	0.2320temperature offset calibration	0.9979default loss term (dB/km)	0.3790temperature slope calibration	1.0000multiplexer offset coefficient	1.0000multiplexer slope coefficient	1.0000fibre end	0.00T internal ref (°C)	32.25T ext. ref 1 (°C)	4.59T ext. ref 2 (°C)	27.17length (m)	temperature (°C)	Stokes	anti-Stokes-747.200	69.842	-0.118	-0.123
-746.185	3.859	-0.226	0.167
-745.171	-115.573	-0.294	0.056
-744.156	663.849	-0.080	0.209
-743.142	375.583	0.032	0.065
-742.127	-83.792	-0.027	-0.009
-741.112	102.466	0.129	-0.153
-740.098	-108.588	-0.326	0.071
-739.083	-164.975	0.055	0.002
-738.069	-200.000	-0.018	0.132
-737.054	-91.750	0.085	-0.025
-736.039	-108.849	-0.201	0.043
-735.025	-130.326	0.301	-0.041
-734.010	-89.634	0.195	0.058
-732.996	18.524	0.210	-0.169
-731.981	53.578	-0.243	0.235
-730.966	37.420	-0.081	0.073
-729.952	-7.666	-0.047	-0.032
-728.937	-109.899	-0.559	0.118
-727.923	-167.128	0.066	0.003
-726.908	565.089	-0.068	-0.165
-725.894	174.124	-0.063	-0.091
-724.879	317.674	-0.167	-0.319
-723.864	-169.016	0.251	-0.009
-722.850	-200.000	-0.014	-0.337
-721.835	269.865	0.114	0.203
-720.821	-104.767	-0.413	0.096
-719.806	-114.040	-0.635	-0.124
-718.791	-16.168	-0.171	-0.110
-717.777	-86.091	0.332	0.104
-716.762	-200.000	-0.005	-0.159
-715.748	131.696	-0.146	-0.189
-714.733	-140.750	-0.326	-0.034
-713.718	-107.714	-0.381	-0.084
-712.704	182.236	0.137	-0.204
-711.689	-200.000	-0.005	0.167
-710.675	-147.265	0.319	0.027
-709.660	-17.377	-0.086	0.054
-708.645	215.997	-0.123	-0.197
-707.631	55.515	0.111	-0.109
-706.616	-64.924	-0.005	-0.002
-705.602	-200.000	-0.059	-0.401
-704.587	34.814	0.056	0.049
-703.572	-24.282	-0.279	0.168
-702.558	-200.000	-0.054	0.254
-701.543	-200.000	-0.048	-0.343
-700.529	455.872	0.085	0.190
-699.514	28.551	0.132	-0.113
-698.499	-200.000	0.013	-0.062
-697.485	689.140	-0.064	-0.169
-696.470	8.374	-0.097	0.074
-695.456	216.398	-0.151	-0.243
-694.441	-200.000	0.008	0.215
-693.426	8.740	-0.150	-0.114
-692.412	800.000	0.061	-0.247
-691.397	800.000	0.042	-0.149
-690.383	19.747	0.287	0.233
-689.368	-27.517	-0.125	-0.074
-688.354	800.000	-0.064	0.203
-687.339	-125.437	-0.239	0.037
-686.324	-146.286	-0.199	0.018
-685.310	46.635	-0.161	-0.151
-684.295	-98.421	-0.149	-0.038
-683.281	-163.572	-0.428	-0.020
-682.266	800.000	-0.048	0.203
-681.251	124.377	-0.067	0.085
-680.237	-54.655	0.359	0.164
-679.222	443.786	0.059	-0.129
-678.208	119.743	-0.109	0.136
-677.193	94.868	-0.337	0.387
-676.178	-200.000	-0.003	0.058
-675.164	-200.000	-0.013	-0.075
-674.149	309.529	0.041	-0.078
-673.135	-200.000	-0.007	0.229
-672.120	122.267	-0.026	0.033
-671.105	800.000	-0.026	-0.080
-670.091	-60.096	-0.186	-0.080
-669.076	565.988	0.136	-0.332
-668.062	113.930	0.018	-0.022
-667.047	270.834	0.109	-0.193
-666.032	231.313	0.073	0.120
-665.018	-16.915	0.201	-0.128
-664.003	203.849	0.229	0.358
-662.989	7.964	-0.123	-0.093
-661.974	-124.990	0.064	-0.010
-660.959	-135.004	-0.083	0.010
-659.945	-55.623	0.101	0.046
-658.930	15.795	0.186	0.147
-657.916	211.185	0.128	-0.202
-656.901	425.664	0.045	-0.097
-655.886	-200.000	-0.045	0.303
-654.872	320.103	0.169	-0.324
-653.857	17.896	0.180	0.145
-652.843	2.723	0.313	-0.229
-651.828	800.000	-0.097	-0.319
-650.814	183.304	-0.155	-0.231
-649.799	327.691	0.159	-0.308
-648.784	-68.734	-0.192	0.075
-647.770	-81.456	0.173	0.057
-646.755	499.815	0.007	-0.016
-645.741	332.905	-0.150	-0.293
-644.726	-86.166	-0.364	-0.113
-643.711	-200.000	0.102	0.493
-642.697	12.731	-0.042	0.032
-641.682	-147.960	0.212	0.018
-640.668	-119.586	-0.321	0.056
-639.653	10.905	-0.225	-0.173
-638.638	307.078	0.130	-0.244
-637.624	-200.000	0.216	-0.000
-636.609	-92.914	0.058	-0.016
-635.595	723.875	0.095	0.255
-634.580	113.011	0.294	0.359
-633.565	285.958	0.060	-0.108
-632.551	-106.898	-0.218	0.049
-631.536	-149.158	-0.084	0.007
-630.522	-53.677	0.137	-0.063
-629.507	800.000	-0.026	-0.108
-628.492	-153.388	-0.133	-0.009
-627.478	147.957	-0.099	0.134
-626.463	188.969	-0.116	-0.175
-625.449	252.470	-0.197	-0.339
-624.434	-135.469	-0.461	0.055
-623.419	-200.000	-0.025	0.211
-622.405	-200.000	-0.015	-0.256
-621.390	7.123	0.060	0.045
-620.376	-20.160	0.208	-0.129
-619.361	49.758	0.049	0.047
-618.346	-15.420	-0.262	-0.168
-617.332	25.179	0.188	-0.157
-616.317	152.110	-0.027	-0.037
-615.303	289.982	-0.142	-0.260
-614.288	-8.215	0.107	-0.072
-613.273	53.925	0.113	0.109
-612.259	125.883	0.207	0.263
-611.244	126.696	0.083	-0.105
-610.230	-103.523	-0.113	-0.027
-609.215	-75.244	0.082	0.030
-608.201	31.511	0.175	0.151
-607.186	-42.578	0.139	-0.071
-606.171	-132.093	0.097	0.013
-605.157	-110.611	0.203	-0.042
-604.142	19.488	0.332	-0.269
-603.128	-14.857	-0.243	0.157
-602.113	-200.000	0.030	-0.183
-601.098	-200.000	-0.010	0.127
-600.084	-80.380	-0.318	0.107
-599.069	773.549	-0.125	0.343
-598.055	-19.302	-0.155	-0.097
-597.040	-36.739	-0.379	-0.204
-596.025	800.000	0.056	0.205
-595.011	-39.756	-0.033	-0.018
-593.996	-152.504	-0.202	0.015
-592.982	149.910	-0.092	0.125
-591.967	-80.415	0.044	0.015
-590.952	-34.558	-0.242	-0.133
-589.938	-153.297	0.129	0.009
-588.923	-175.539	-0.105	-0.003
-587.909	-50.165	0.073	-0.035
-586.894	-71.690	-0.089	-0.033
-585.879	146.803	-0.156	-0.210
-584.865	-200.000	0.077	-0.474
-583.850	18.169	-0.142	-0.114
-582.836	-70.667	-0.133	0.050
-581.821	799.195	0.043	0.120
-580.806	-24.825	0.354	-0.212
-579.792	-121.318	0.087	-0.015
-578.777	25.933	-0.292	-0.244
-577.763	800.000	-0.007	0.021
-576.748	371.900	0.090	0.184
-575.733	800.000	-0.098	-0.332
-574.719	448.742	-0.138	0.306
-573.704	-72.141	0.154	-0.057
-572.690	-61.168	-0.150	-0.064
-571.675	-150.194	-0.242	-0.019
-570.661	-83.842	0.191	-0.061
-569.646	-200.000	-0.006	-0.048
-568.631	-77.904	0.157	0.055
-567.617	-144.651	-0.242	-0.022
-566.602	-52.472	-0.340	0.158
-565.588	75.756	-0.326	0.346
-564.573	-14.057	0.190	-0.123
-563.558	-122.658	-0.141	-0.023
-562.544	-200.000	-0.039	0.316
-561.529	-97.687	-0.111	0.029
-560.515	49.378	-0.107	-0.101
-559.500	224.894	0.128	-0.207
-558.485	-121.552	0.288	-0.048
-557.471	-200.000	-0.025	0.373
-556.456	800.000	0.026	0.111
-555.442	19.345	-0.226	-0.182
-554.427	-200.000	0.009	-0.187
-553.412	-200.000	-0.006	0.115
-552.398	-66.114	-0.161	-0.064
-551.383	-152.809	-0.450	-0.032
-550.369	-105.519	0.186	-0.042
-549.354	-200.000	-0.044	-0.264
-548.339	800.000	0.066	0.275
-547.325	800.000	0.076	-0.262
-546.310	290.187	-0.104	0.190
-545.296	-45.194	0.223	0.111
-544.281	-161.022	0.427	0.022
-543.266	800.000	0.079	-0.253
-542.252	276.180	-0.109	0.193
-541.237	58.509	-0.312	0.307
-540.223	-39.322	0.088	0.046
-539.208	97.378	-0.200	-0.230
-538.193	25.536	-0.131	0.109
-537.179	800.000	-0.106	-0.309
-536.164	-103.172	-0.095	-0.022
-535.150	-143.965	0.283	0.027
-534.135	-20.444	-0.145	0.089
-533.121	530.881	-0.044	-0.104
-532.106	-200.000	0.060	-0.349
-531.091	109.829	0.147	-0.177
-530.077	190.143	0.063	-0.094
-529.062	-200.000	-0.002	0.196
-528.048	-58.366	0.168	-0.073
-527.033	-200.000	-0.040	-0.211
-526.018	-23.105	-0.093	-0.056
-525.004	-25.693	0.086	0.051
-523.989	106.424	-0.165	-0.196
-522.975	800.000	0.032	-0.117
-521.960	-200.000	-0.019	-0.116
-520.945	24.250	-0.039	-0.033
-519.931	-32.788	-0.496	0.277
-518.916	-200.000	0.029	0.169
-517.902	48.988	-0.267	0.251
-516.887	-78.413	-0.078	0.027
-515.872	-200.000	-0.046	-0.232
-514.858	68.326	0.310	-0.319
-513.843	600.225	-0.046	0.113
-512.829	-91.049	0.236	-0.068
-511.814	67.549	-0.305	-0.313
-510.799	-144.430	-0.154	-0.014
-509.785	-169.062	0.304	-0.011
-508.770	335.030	-0.170	-0.331
-507.756	-200.000	-0.029	-0.136
-506.741	-178.616	-0.211	-0.005
-505.726	47.524	0.113	-0.106
-504.712	-42.497	0.054	0.028
-503.697	255.451	0.154	0.264
-502.683	-200.000	-0.027	-0.126
-501.668	445.640	0.208	-0.457
-500.653	22.750	0.117	0.096
-499.639	-49.525	0.271	0.129
-498.624	1.188	-0.198	0.142
-497.610	-200.000	0.024	-0.233
-496.595	-76.689	-0.109	0.038
-495.581	-15.715	-0.216	0.138
-494.566	-105.761	0.260	0.059
-493.551	800.000	0.061	-0.213
-492.537	-91.560	0.198	0.057
-491.522	-82.248	-0.127	0.041
-490.508	800.000	0.028	-0.116
-489.493	213.530	-0.120	0.191
-488.478	87.809	0.247	0.274
-487.464	192.856	0.113	0.171
-486.449	-1.450	-0.131	-0.092
-485.435	16.075	-0.097	0.076
-484.420	-10.963	0.151	0.100
-483.405	131.007	0.160	-0.205
-482.391	-52.677	0.339	-0.157
-481.376	60.177	-0.215	-0.213
-480.362	25.134	-0.337	0.280
-479.347	800.000	-0.033	-0.116
-478.332	241.187	-0.081	0.136
-477.318	-80.937	-0.437	-0.145
-476.303	-200.000	-0.003	0.024
-475.289	800.000	-0.039	0.165
-474.274	-61.672	0.433	0.182
-473.259	1.830	-0.090	-0.065
-472.245	-91.628	0.190	-0.054
-471.230	-200.000	0.004	0.111
-470.216	-180.910	-0.251	0.005
-469.201	224.559	0.192	-0.311
-468.186	251.475	0.081	-0.138
-467.172	-149.327	-0.150	0.012
-466.157	565.759	0.103	0.249
-465.143	-159.937	-0.237	0.013
-464.128	-200.000	0.011	-0.108
-463.113	-116.553	-0.318	-0.059
-462.099	178.634	0.075	0.110
-461.084	77.522	0.059	-0.063
-460.070	319.278	0.166	0.315
-459.055	-67.108	-0.245	0.096
-458.040	-180.330	0.105	-0.002
-457.026	6.301	0.260	-0.193
-456.011	320.818	0.105	0.200
-454.997	737.312	-0.110	0.295
-453.982	-200.000	-0.004	0.053
-452.968	800.000	-0.030	0.111
-451.953	-125.574	-0.369	0.056
-450.938	181.494	0.145	-0.213
-449.924	-84.988	-0.092	0.029
-448.909	6.740	-0.144	0.107
-447.895	-200.000	0.110	-0.498
-446.880	-54.288	-0.216	-0.098
-445.865	-152.614	0.214	0.015
-444.851	-40.334	-0.097	0.051
-443.836	386.409	0.155	-0.320
-442.822	-68.323	-0.060	-0.023
-441.807	-200.000	-0.029	0.183
-440.792	258.067	0.080	0.138
-439.778	55.504	-0.030	-0.029
-438.763	203.058	0.100	0.155
-437.749	175.586	-0.203	0.295
-436.734	-200.000	0.034	-0.194
-435.719	-191.212	0.344	-0.004
-434.705	-200.000	-0.006	0.160
-433.690	-84.993	0.128	-0.040
-432.676	-158.138	0.113	-0.007
-431.661	235.883	-0.151	-0.249
-430.646	153.592	-0.135	0.185
-429.632	692.889	-0.050	-0.130
-428.617	800.000	-0.022	0.085
-427.603	-84.986	-0.236	-0.074
-426.588	678.979	-0.103	0.268
-425.573	-103.913	-0.153	-0.036
-424.559	800.000	0.111	-0.322
-423.544	491.339	-0.043	-0.098
-422.530	104.096	-0.111	0.130
-421.515	423.721	-0.174	-0.373
-420.500	-81.417	0.149	-0.049
-419.486	-75.625	-0.233	-0.083
-418.471	-13.376	-0.218	-0.141
-417.457	-159.807	0.144	0.008
-416.442	29.876	0.125	-0.107
-415.428	25.401	-0.106	0.088
-414.413	233.407	0.109	0.180
-413.398	619.599	0.063	0.157
-412.384	71.781	-0.095	-0.098
-411.369	-30.690	0.217	0.122
-410.355	-77.301	-0.172	-0.060
-409.340	142.433	0.022	0.029
-408.325	-126.043	-0.056	-0.008
-407.311	-200.000	0.015	-0.340
-406.296	139.674	0.195	-0.256
-405.282	800.000	-0.068	-0.230
-404.267	-69.044	-0.014	-0.006
-403.252	-200.000	-0.060	0.368
-402.238	-164.154	-0.028	0.001
-401.223	-55.976	-0.403	0.179
-400.209	-200.000	0.007	0.095
-399.194	-60.993	0.078	-0.033
-398.179	800.000	0.066	-0.280
-397.165	-14.329	0.330	0.212
-396.150	-74.228	-0.122	0.044
-395.136	-63.342	0.240	0.098
-394.121	-77.004	0.239	0.083
-393.106	-152.461	-0.369	0.026
-392.092	-12.159	-0.189	0.123
-391.077	113.587	0.083	-0.101
-390.063	-200.000	-0.012	-0.286
-389.048	800.000	-0.008	-0.028
-388.033	651.769	0.021	-0.053
-387.019	-200.000	-0.030	0.165
-386.004	-9.117	-0.324	0.216
-384.990	-200.000	0.022	-0.213
-383.975	224.656	0.059	-0.094
-382.960	-150.060	0.202	-0.016
-381.946	622.113	0.126	0.317
-380.931	288.053	-0.161	0.290
-379.917	-27.199	0.280	0.163
-378.902	5.597	-0.241	0.178
-377.888	417.577	-0.042	0.090
-376.873	95.669	-0.120	0.137
-375.858	421.145	-0.189	-0.404
-374.844	306.261	0.127	0.235
-373.829	-200.000	0.013	0.062
-372.815	-200.000	-0.021	-0.270
-371.800	-100.164	-0.267	-0.066
-370.785	-128.907	-0.190	-0.027
-369.771	-11.581	0.073	-0.048
-368.756	-78.852	0.204	-0.069
-367.742	800.000	-0.150	-0.417
-366.727	-200.000	0.022	0.164
-365.712	-137.161	0.253	-0.029
-364.698	-157.069	-0.224	-0.014
-363.683	-58.042	-0.328	-0.142
-362.669	-200.000	0.032	0.310
-361.654	218.368	0.327	0.521
-360.639	238.269	-0.162	0.269
-359.625	37.000	0.131	0.116
-358.610	-148.116	-0.399	0.033
-357.596	297.687	0.200	0.367
-356.581	-29.071	-0.227	0.130
-355.566	800.000	-0.047	0.145
-354.552	18.306	0.176	0.140
-353.537	-182.701	0.159	-0.003
-352.523	244.539	0.057	-0.096
-351.508	-49.315	-0.110	-0.052
-350.493	-200.000	0.064	-0.329
-349.479	95.400	0.123	0.139
-348.464	800.000	0.102	-0.285
-347.450	-28.920	0.280	0.160
-346.435	58.723	0.064	0.062
-345.420	0.474	-0.146	-0.104
-344.406	-200.000	-0.019	0.153
-343.391	492.902	0.058	-0.132
-342.377	145.489	-0.184	-0.245
-341.362	-200.000	0.003	0.329
-340.348	-48.842	0.221	0.105
-339.333	-52.554	0.284	0.131
-338.318	26.006	0.145	0.120
-337.304	24.545	0.151	0.125
-336.289	47.353	0.061	-0.056
-335.275	800.000	0.067	-0.211
-334.260	800.000	-0.114	0.429
-333.245	88.183	-0.101	-0.112
-332.231	299.481	0.096	-0.176
-331.216	-16.596	-0.201	-0.127
-330.202	376.850	0.096	-0.195
-329.187	-200.000	-0.002	-0.017
-328.172	-200.000	-0.018	0.108
-327.158	-113.081	0.105	0.021
-326.143	-9.860	-0.209	-0.138
-325.129	-196.814	0.059	0.000
-324.114	-200.000	0.065	-0.489
-323.099	-200.000	-0.002	-0.141
-322.085	182.388	0.063	0.092
-321.070	221.485	-0.026	0.041
-320.056	137.925	-0.099	-0.130
-319.041	-20.652	-0.287	0.175
-318.026	-191.677	0.318	0.003
-317.012	-144.357	0.084	0.008
-315.997	-200.000	0.011	0.150
-314.983	-146.092	0.187	-0.016
-313.968	-200.000	-0.017	0.256
-312.953	-200.000	-0.066	-0.301
-311.939	-200.000	-0.032	-0.202
-310.924	-83.456	-0.288	0.092
-309.910	-200.000	0.033	-0.180
-308.895	-137.717	0.183	-0.020
-307.880	-159.651	0.197	0.011
-306.866	-31.994	-0.200	-0.111
-305.851	15.058	-0.005	-0.004
-304.837	72.859	-0.153	0.159
-303.822	-11.972	0.142	0.092
-302.807	22.401	0.258	0.210
-301.793	-142.886	0.249	-0.024
-300.778	800.000	-0.108	0.335
-299.764	-91.830	0.403	-0.114
-298.749	2.962	-0.231	-0.167
-297.735	-200.000	-0.019	-0.163
-296.720	131.317	0.199	-0.254
-295.705	595.990	-0.098	0.241
-294.691	-13.418	0.454	0.293
-293.676	-117.853	0.292	0.052
-292.662	38.613	0.160	-0.141
-291.647	38.846	-0.245	0.218
-290.632	192.957	-0.053	-0.080
-289.618	47.545	0.047	0.044
-288.603	18.666	0.119	-0.094
-287.589	-200.000	-0.039	0.265
-286.574	-200.000	-0.059	0.563
-285.559	-28.644	0.220	0.126
-284.545	-44.319	-0.301	-0.150
-283.530	31.421	-0.535	0.457
-282.516	115.995	0.211	-0.257
-281.501	800.000	0.047	0.128
-280.486	-148.466	0.256	0.021
-279.472	244.722	-0.168	-0.280
-278.457	-15.290	-0.104	-0.066
-277.443	-106.906	0.154	0.034
-276.428	-200.000	-0.057	0.280
-275.413	800.000	-0.078	-0.242
-274.399	-79.372	0.074	0.025
-273.384	-51.249	0.025	-0.012
-272.370	148.403	0.168	-0.225
-271.355	0.867	-0.291	0.207
-270.340	-200.000	-0.011	-0.348
-269.326	-161.521	0.329	0.017
-268.311	115.128	-0.084	-0.102
-267.297	-142.935	0.231	-0.022
-266.282	72.373	-0.126	0.131
-265.267	-200.000	-0.019	-0.231
-264.253	-138.578	-0.059	0.006
-263.238	-90.148	0.155	0.045
-262.224	-21.621	-0.139	0.084
-261.209	195.923	-0.123	0.186
-260.195	732.679	-0.053	0.141
-259.180	300.086	-0.102	0.186
-258.165	800.000	-0.034	-0.110
-257.151	49.198	0.080	0.075
-256.136	30.873	-0.252	-0.214
-255.122	205.189	-0.161	0.248
-254.107	-56.686	0.352	-0.155
-253.092	326.129	-0.128	-0.243
-252.078	133.393	0.233	-0.299
-251.063	49.990	-0.327	0.306
-250.049	-200.000	0.009	0.233
-249.034	699.315	0.137	-0.356
-248.019	227.766	0.095	0.154
-247.005	-30.742	-0.339	-0.190
-245.990	-61.411	0.233	-0.097
-244.976	-81.517	-0.249	-0.081
-243.961	-200.000	0.019	-0.134
-242.946	-29.263	-0.072	0.041
-241.932	-200.000	-0.015	-0.387
-240.917	-89.757	-0.163	0.047
-239.903	285.341	-0.152	0.272
-238.888	800.000	0.038	0.120
-237.873	343.110	-0.052	-0.100
-236.859	597.585	0.068	0.167
-235.844	-132.817	0.310	-0.039
-234.830	-33.381	-0.337	0.185
-233.815	452.699	-0.065	-0.142
-232.800	32.636	-0.066	-0.057
-231.786	800.000	0.059	0.214
-230.771	-20.262	0.073	-0.044
-229.757	31.152	-0.083	0.071
-228.742	-200.000	0.009	-0.313
-227.727	62.434	-0.100	-0.099
-226.713	587.942	-0.021	0.051
-225.698	280.912	-0.092	0.162
-224.684	388.238	-0.071	0.146
-223.669	787.491	0.127	0.344
-222.655	67.713	-0.233	0.236
-221.640	-200.000	0.009	0.459
-220.625	398.950	0.046	0.095
-219.611	-200.000	-0.032	-0.182
-218.596	-113.281	0.008	-0.002
-217.582	-200.000	0.014	0.091
-216.567	24.224	0.192	-0.157
-215.552	-151.383	0.152	-0.011
-214.538	61.042	-0.182	-0.179
-213.523	78.159	0.143	0.151
-212.509	110.284	0.174	0.207
-211.494	-28.418	-0.238	0.136
-210.479	-155.146	0.602	-0.039
-209.465	159.010	0.208	0.286
-208.450	-101.333	0.344	0.083
-207.436	94.752	0.092	-0.104
-206.421	-172.431	0.287	-0.009
-205.406	4.339	-0.241	-0.175
-204.392	-200.000	0.002	0.014
-203.377	-200.000	-0.031	0.197
-202.363	200.579	0.131	0.199
-201.348	-71.573	-0.217	-0.080
-200.333	97.056	0.229	-0.260
-199.319	-18.638	0.253	0.156
-198.304	151.853	0.178	0.241
-197.290	800.000	-0.056	0.207
-196.275	800.000	-0.106	-0.446
-195.260	-123.226	0.186	0.029
-194.246	800.000	-0.096	-0.416
-193.231	-98.585	-0.142	-0.036
-192.217	-23.114	-0.195	0.116
-191.202	176.879	-0.207	0.298
-190.187	800.000	-0.051	0.177
-189.173	-77.097	0.176	-0.061
-188.158	-32.626	0.444	0.245
-187.144	-104.996	-0.276	-0.063
-186.129	2.349	-0.168	0.120
-185.114	119.355	0.199	0.244
-184.100	157.071	0.244	0.334
-183.085	137.939	0.128	-0.166
-182.071	281.189	-0.054	0.096
-181.056	99.132	0.061	0.070
-180.042	526.896	-0.013	0.031
-179.027	38.029	-0.110	-0.096
-178.012	800.000	0.105	-0.347
-176.998	60.579	-0.161	-0.157
-175.983	-200.000	-0.055	-0.281
-174.969	-64.640	0.279	-0.112
-173.954	-137.973	0.064	-0.007
-172.939	433.545	-0.087	0.186
-171.925	98.964	0.146	0.167
-170.910	-13.214	-0.086	-0.055
-169.896	-157.767	-0.048	0.003
-168.881	37.984	-0.146	-0.128
-167.866	128.374	0.177	-0.222
-166.852	-163.626	0.189	0.009
-165.837	-98.665	0.434	-0.109
-164.823	800.000	0.081	0.286
-163.808	-142.102	0.169	-0.017
-162.793	82.459	0.288	0.309
-161.779	-97.825	0.236	0.060
-160.764	-80.611	0.500	0.165
-159.750	-200.000	-0.008	-0.448
-158.735	605.537	-0.091	-0.225
-157.720	-19.554	-0.216	0.132
-156.706	181.326	-0.078	-0.113
-155.691	585.912	-0.014	-0.035
-154.677	-200.000	0.028	-0.516
-153.662	482.551	-0.084	0.189
-152.647	800.000	-0.022	-0.073
-151.633	-200.000	-0.006	0.334
-150.618	-139.567	-0.338	-0.036
-149.604	800.000	-0.041	-0.171
-148.589	299.370	0.083	-0.151
-147.574	800.000	-0.076	-0.292
-146.560	-45.313	-0.241	-0.118
-145.545	7.663	0.179	0.132
-144.531	-98.177	0.408	-0.104
-143.516	-200.000	0.114	0.517
-142.502	-49.718	0.271	-0.127
-141.487	-200.000	-0.019	-0.168
-140.472	110.735	0.218	-0.259
-139.458	-200.000	-0.034	-0.184
-138.443	-90.599	-0.350	0.100
-137.429	-195.332	-0.037	-0.000
-136.414	-62.271	0.293	0.121
-135.399	-24.026	0.138	0.081
-134.385	134.298	-0.278	-0.355
-133.370	-60.306	-0.353	-0.148
-132.356	-103.142	0.118	0.028
-131.341	-26.306	-0.161	0.093
-130.326	-40.065	0.168	-0.086
-129.312	87.010	0.102	-0.111
-128.297	-118.758	0.185	0.032
-127.283	482.183	-0.077	-0.173
-126.268	-56.342	-0.257	0.113
-125.253	-200.000	-0.006	-0.353
-124.239	-87.455	-0.322	0.096
-123.224	-125.375	-0.171	0.026
-122.210	54.816	0.306	0.291
-121.195	312.467	-0.014	0.026
-120.180	17.876	0.090	-0.071
-119.166	-200.000	-0.044	-0.193
-118.151	-140.593	0.085	-0.009
-117.137	800.000	0.181	-0.555
-116.122	44.680	-0.217	0.197
-115.107	-103.484	0.330	-0.076
-114.093	-200.000	0.032	-0.390
-113.078	-1.312	-0.077	0.054
-112.064	35.533	-0.115	0.100
-111.049	-200.000	0.027	0.176
-110.034	-114.490	-0.074	0.014
-109.020	-126.960	0.155	-0.023
-108.005	-34.759	0.211	-0.114
-106.991	56.431	-0.187	-0.179
-105.976	354.243	-0.093	-0.181
-104.962	651.132	-0.069	-0.174
-103.947	-200.000	0.030	-0.201
-102.932	-28.699	0.336	0.190
-101.918	243.981	0.170	-0.281
-100.903	266.703	-0.201	-0.346
-99.889	-68.579	-0.240	-0.092
-98.874	150.538	-0.178	0.238
-97.859	159.830	0.152	0.208
-96.845	244.711	-0.212	0.351
-95.830	800.000	0.101	0.300
-94.816	102.641	-0.122	-0.141
-93.801	-99.216	0.059	0.015
-92.786	-75.909	0.605	0.211
-91.772	-121.483	-0.264	0.043
-90.757	26.510	-0.382	0.315
-89.743	800.000	-0.113	-0.316
-88.728	-138.253	0.220	0.024
-87.713	388.675	0.026	-0.053
-86.699	100.813	-0.207	0.238
-85.684	-140.600	-0.160	-0.016
-84.670	-119.197	0.258	0.044
-83.655	544.774	-0.078	0.183
-82.640	96.026	0.240	0.270
-81.626	-112.692	0.130	-0.025
-80.611	32.716	-0.033	0.028
-79.597	-46.832	-0.152	0.073
-78.582	-76.412	-0.149	-0.052
-77.567	213.353	0.112	-0.174
-76.553	-29.230	-0.176	0.099
-75.538	184.910	0.195	-0.285
-74.524	-73.191	-0.255	-0.092
-73.509	-200.000	-0.034	-0.170
-72.494	116.814	-0.226	-0.273
-71.480	35.891	0.196	0.169
-70.465	800.000	0.022	-0.076
-69.451	-176.672	-0.192	0.005
-68.436	386.777	-0.098	-0.200
-67.422	769.812	-0.104	0.279
-66.407	239.229	0.159	0.261
-65.392	-122.776	-0.118	0.019
-64.378	93.647	0.254	-0.283
-63.363	13.843	-0.175	-0.134
-62.349	-200.000	-0.039	-0.176
-61.334	44.519	-0.979	-0.886
-60.319	-9.471	0.290	0.191
-59.305	93.851	-0.729	-0.813
-58.290	190.109	0.529	0.782
-57.276	421.365	0.652	1.377
-56.261	-200.000	95.181	595.242
-55.246	676.355	1367.400	3497.312
-54.232	200.104	2541.818	3842.050
-53.217	120.902	2160.647	2645.204
-52.203	43.191	1706.362	1533.134
-51.188	35.587	1518.828	1312.869
-50.173	33.229	1491.974	1273.753
-49.159	52.159	1540.819	1445.408
-48.144	53.952	1558.363	1474.075
-47.130	35.593	1519.075	1312.916
-46.115	32.496	1504.298	1279.093
-45.100	32.379	1500.295	1274.845
-44.086	32.366	1498.303	1273.018
-43.071	32.371	1496.722	1271.651
-42.057	32.189	1495.441	1269.284
-41.042	32.109	1494.121	1267.578
-40.027	32.269	1492.545	1267.268
-39.013	32.201	1491.191	1265.607
-37.998	32.213	1489.739	1264.408
-36.984	32.261	1488.207	1263.379
-35.969	32.327	1486.733	1262.520
-34.954	32.226	1485.908	1261.092
-33.940	32.296	1484.047	1259.934
-32.925	32.315	1482.621	1258.800
-31.911	32.303	1481.472	1257.691
-30.896	32.358	1480.165	1256.898
-29.881	32.248	1479.149	1255.253
-28.867	32.294	1477.815	1254.381
-27.852	32.182	1476.066	1252.095
-26.838	32.383	1474.475	1252.037
-25.823	32.392	1472.721	1250.558
-24.809	32.375	1471.168	1249.075
-23.794	32.358	1469.741	1247.703
-22.779	32.343	1468.781	1246.740
-21.765	32.244	1467.595	1245.026
-20.750	32.282	1466.274	1244.106
-19.736	32.360	1464.851	1243.370
-18.721	32.256	1464.304	1242.169
-17.706	32.239	1463.397	1241.236
-16.692	32.281	1462.016	1240.295
-15.677	32.256	1461.307	1239.475
-14.663	32.190	1460.399	1238.225
-13.648	32.202	1459.348	1237.360
-12.633	32.176	1458.257	1236.218
-11.619	32.223	1457.317	1235.679
-10.604	32.167	1456.872	1234.882
-9.590	32.172	1456.015	1234.139
-8.575	32.173	1455.070	1233.297
-7.560	32.112	1453.969	1231.914
-6.546	32.135	1453.443	1231.573
-5.531	32.200	1452.281	1230.963
-4.517	32.093	1451.315	1229.394
-3.502	32.195	1450.153	1229.029
-2.487	32.254	1449.166	1228.532
-1.473	32.245	1447.846	1227.303
-0.458	32.195	1446.872	1226.106
0.556	31.140	1436.812	1215.058
1.571	28.146	1411.868	1174.671
2.586	24.708	1351.678	1103.318
3.600	23.076	1269.889	1026.993
4.615	21.680	1224.149	982.092
5.629	18.891	1167.730	921.811
6.644	11.189	1085.200	818.057
7.659	5.408	1046.096	760.462
8.673	4.673	1040.425	752.717
9.688	4.587	1037.875	750.388
10.702	4.571	1036.046	748.926
11.717	4.549	1034.403	747.562
12.731	6.661	1036.126	758.908
13.746	13.614	1045.752	799.543
14.761	18.619	1051.958	828.448
15.775	18.595	1050.727	827.288
16.790	17.657	1048.269	820.765
17.804	16.536	1046.029	813.548
18.819	15.576	1044.409	807.606
19.834	15.184	1042.615	804.262
20.848	14.858	1041.682	801.909
21.863	14.669	1041.397	800.713
22.877	14.478	1040.371	798.937
23.892	14.153	1039.680	796.779
24.907	14.204	1038.901	796.355
25.921	14.228	1037.872	795.613
26.936	14.233	1037.688	795.424
27.950	14.349	1036.157	794.734
28.965	14.244	1035.518	793.671
29.980	14.243	1034.125	792.529
30.994	14.449	1033.128	792.676
32.009	14.427	1032.332	791.892
33.023	14.587	1031.317	791.803
34.038	14.498	1030.651	790.798
35.053	14.458	1029.622	789.748
36.067	14.349	1028.883	788.597
37.082	14.344	1027.760	787.640
38.096	14.279	1027.532	787.090
39.111	14.464	1026.515	787.115
40.126	14.546	1025.195	786.419
41.140	14.332	1024.556	784.853
42.155	14.226	1023.378	783.381
43.169	14.020	1022.779	781.882
44.184	14.159	1021.172	781.241
45.199	14.062	1019.983	779.807
46.213	14.139	1019.017	779.360
47.228	14.127	1018.411	778.768
48.242	14.198	1017.210	778.116
49.257	14.346	1016.525	778.216
50.271	14.254	1015.320	776.794
51.286	14.336	1014.554	776.520
52.301	14.378	1013.804	776.074
53.315	14.386	1013.196	775.576
54.330	14.380	1011.768	774.385
55.344	14.238	1011.166	773.200
56.359	14.313	1009.948	772.545
57.374	14.156	1009.469	771.383
58.388	14.264	1008.507	771.081
59.403	14.143	1007.852	769.951
60.417	13.937	1007.212	768.440
61.432	14.108	1006.272	768.449
62.447	14.039	1005.655	767.586
63.461	14.099	1004.638	767.020
64.476	14.026	1003.758	765.946
65.490	13.969	1002.816	764.898
66.505	14.023	1002.148	764.567
67.520	14.117	1001.184	764.195
68.534	14.147	1000.262	763.562
69.549	14.044	1000.082	762.887
70.563	14.126	999.137	762.474
71.578	13.991	998.468	761.277
72.593	14.027	997.267	760.456
73.607	13.919	996.467	759.286
74.622	13.924	995.537	758.534
75.636	13.926	994.568	757.737
76.651	13.958	993.815	757.242
77.666	13.850	993.426	756.387
78.680	14.009	992.844	756.600
79.695	13.885	992.277	755.539
80.709	14.051	991.755	755.830
81.724	14.020	991.428	755.372
82.739	14.155	989.991	754.824
83.753	14.065	989.408	753.903
84.768	14.195	988.613	753.818
85.782	14.369	988.215	754.238
86.797	14.448	987.330	753.852
87.812	14.489	986.393	753.255
88.826	14.395	985.390	751.999
89.841	14.256	984.828	750.877
90.855	14.265	984.044	750.252
91.870	14.469	983.066	750.361
92.884	14.456	982.661	749.924
93.899	14.320	981.614	748.448
94.914	14.334	981.146	748.087
95.928	14.605	980.464	748.718
96.943	14.630	979.485	748.016
97.957	14.526	978.591	746.802
98.972	14.468	977.706	745.801
99.987	14.501	977.131	745.444
101.001	14.598	976.054	744.987
102.016	14.469	975.600	744.000
103.030	14.340	974.529	742.545
104.045	14.587	973.680	742.931
105.060	14.538	972.993	742.122
106.074	14.357	972.270	740.702
107.089	14.244	971.211	739.328
108.103	14.115	970.591	738.216
109.118	14.014	969.541	736.904
110.133	14.079	968.692	736.481
111.147	14.164	967.474	735.865
112.162	14.152	966.719	735.175
113.176	14.115	965.999	734.401
114.191	14.261	964.996	734.216
115.206	14.283	964.161	733.611
116.220	14.353	963.443	733.307
117.235	14.156	962.799	731.885
118.249	14.234	961.761	731.379
119.264	14.133	961.352	730.558
120.279	14.104	960.462	729.691
121.293	14.061	959.934	729.034
122.308	14.142	958.809	728.471
123.322	14.035	958.044	727.357
124.337	14.061	956.615	726.320
125.352	13.985	955.785	725.296
126.366	14.017	954.934	724.723
127.381	14.088	953.324	723.748
128.395	14.074	952.796	723.222
129.410	14.058	952.178	722.617
130.424	14.122	951.147	722.053
131.439	14.195	950.099	721.508
132.454	14.265	949.424	721.235
133.468	14.211	948.847	720.497
134.483	14.238	948.269	720.112
135.497	14.240	947.584	719.537
136.512	14.207	946.952	718.852
137.527	14.245	945.764	718.050
138.541	14.225	945.213	717.483
139.556	14.170	944.406	716.568
140.570	14.180	943.778	716.071
141.585	14.243	943.323	715.936
142.600	14.421	942.676	716.147
143.614	14.404	941.908	715.426
144.629	14.514	941.043	715.176
145.643	14.437	940.447	714.332
146.658	14.359	939.458	713.184
147.673	14.455	938.452	712.767
148.687	14.348	937.276	711.355
149.702	14.340	936.923	710.989
150.716	14.278	935.712	709.742
151.731	14.248	935.201	709.162
152.746	14.376	934.172	708.866
153.760	14.329	933.720	708.258
154.775	14.301	932.860	707.425
155.789	14.308	932.423	707.062
156.804	14.362	931.695	706.673
157.819	14.483	930.519	706.235
158.833	14.593	929.850	706.131
159.848	14.505	929.381	705.338
160.862	14.633	929.001	705.528
161.877	14.629	927.730	704.484
162.892	14.477	927.015	703.236
163.906	14.387	926.087	702.091
164.921	14.323	925.610	701.399
165.935	14.305	924.148	700.152
166.950	14.442	923.312	700.033
167.964	14.437	922.579	699.396
168.979	14.364	921.888	698.505
169.994	14.388	921.070	697.924
171.008	14.368	919.970	696.944
172.023	14.372	919.460	696.514
173.037	14.566	918.663	696.656
174.052	14.657	917.873	696.375
175.067	14.730	917.199	696.107
176.081	14.539	916.748	694.908
177.096	14.382	915.792	693.469
178.110	14.379	914.828	692.665
179.125	14.496	913.802	692.313
180.140	14.493	913.237	691.810
181.154	14.595	912.376	691.520
182.169	14.612	912.017	691.257
183.183	14.592	911.859	690.994
184.198	14.653	911.152	690.649
185.213	14.643	910.763	690.251
186.227	14.689	909.690	689.565
187.242	14.669	909.461	689.251
188.256	14.777	908.483	688.890
189.271	14.846	907.569	688.422
190.286	14.897	907.313	688.380
191.300	14.769	906.200	686.945
192.315	14.498	905.394	685.160
193.329	14.359	904.688	683.994
194.344	14.440	904.020	683.763
195.359	14.455	903.375	683.275
196.373	14.651	903.091	683.804
197.388	14.647	902.688	683.419
198.402	14.838	902.283	683.836
199.417	14.950	901.347	683.523
200.432	15.034	901.179	683.679
201.446	14.988	900.601	682.990
202.461	14.970	900.444	682.738
203.475	15.074	900.235	682.943
204.490	15.120	899.169	682.264
205.504	15.002	898.120	680.926
206.519	15.023	897.801	680.709
207.534	14.903	896.719	679.340
208.548	14.937	896.132	678.976
209.563	14.899	895.319	678.144
210.577	14.937	894.830	677.868
211.592	15.027	894.122	677.637
212.607	15.043	893.799	677.395
213.621	15.175	892.835	677.138
214.636	15.161	892.416	676.704
215.650	15.062	891.859	675.821
216.665	15.175	891.257	675.763
217.680	15.123	890.906	675.225
218.694	15.299	890.231	675.366
219.709	15.165	889.696	674.360
220.723	15.180	889.309	674.068
221.738	15.229	888.466	673.564
222.753	15.182	887.553	672.626
223.767	15.194	886.738	671.994
224.782	15.245	886.115	671.668
225.796	15.344	885.053	671.202
226.811	15.297	884.754	670.725
227.826	15.494	883.848	670.768
228.840	15.411	883.385	670.025
229.855	15.229	883.175	669.080
230.869	15.242	882.263	668.383
231.884	15.268	881.598	667.922
232.899	15.121	880.906	666.756
233.913	15.150	879.915	666.059
234.928	15.137	879.210	665.416
235.942	15.020	879.048	664.771
236.957	15.176	877.913	664.471
237.972	15.106	877.881	664.112
238.986	15.177	876.913	663.602
240.001	15.171	876.370	663.109
241.015	15.132	875.846	662.499
242.030	15.300	874.788	662.304
243.045	15.254	874.468	661.819
244.059	15.289	873.831	661.416
245.074	15.430	873.213	661.447
246.088	15.483	872.260	660.874
247.103	15.493	871.957	660.628
248.117	15.551	871.365	660.346
249.132	15.587	870.763	659.974
250.147	15.495	870.824	659.603
251.161	15.776	869.805	659.874
252.176	15.753	869.389	659.409
253.190	15.933	868.391	659.299
254.205	15.740	868.174	658.320
255.220	15.946	867.075	658.234
256.234	15.902	866.928	657.891
257.249	15.947	865.813	657.161
258.263	15.965	865.655	657.053
259.278	15.911	864.943	656.247
260.293	15.849	864.513	655.622
261.307	15.907	863.956	655.367
262.322	15.959	863.667	655.290
263.336	15.913	862.617	654.256
264.351	16.128	861.996	654.563
265.366	16.160	861.414	654.186
266.380	16.070	860.977	653.449
267.395	15.993	860.306	652.585
268.409	16.022	859.461	651.999
269.424	15.994	858.949	651.443
270.439	15.977	858.311	650.835
271.453	16.040	857.609	650.488
272.468	16.074	856.885	650.013
273.482	16.062	856.129	649.336
274.497	15.905	855.450	648.159
275.512	16.070	854.902	648.323
276.526	15.990	854.017	647.285
277.541	15.968	853.705	646.907
278.555	16.060	853.123	646.762
279.570	15.985	852.617	646.033
280.585	16.318	851.904	646.712
281.599	16.155	851.533	645.749
282.614	16.235	850.893	645.511
283.628	16.092	850.038	644.262
284.643	16.316	849.035	644.297
285.657	16.128	849.293	643.720
286.672	16.202	848.447	643.302
287.687	16.073	848.251	642.605
288.701	16.122	847.419	642.105
289.716	16.155	846.831	641.730
290.730	16.239	846.175	641.494
291.745	16.312	845.364	641.099
292.760	16.394	845.021	641.093
293.774	16.298	844.708	640.434
294.789	16.419	844.225	640.473
295.803	16.365	843.775	639.868
296.818	16.273	843.096	638.949
297.833	16.352	842.199	638.513
298.847	16.326	841.754	638.018
299.862	16.330	840.723	637.197
300.876	16.311	840.376	636.807
301.891	16.529	839.302	636.755
302.906	16.483	839.146	636.409
303.920	16.629	838.434	636.361
304.935	16.661	837.451	635.678
305.949	16.765	836.992	635.665
306.964	16.473	836.869	634.421
307.979	16.652	836.096	634.446
308.993	16.615	835.464	633.774
310.008	16.721	834.974	633.741
311.022	16.654	834.499	633.076
312.037	16.597	834.159	632.547
313.052	16.708	833.427	632.351
314.066	16.545	832.552	631.024
315.081	16.622	832.047	630.874
316.095	16.525	831.726	630.213
317.110	16.485	831.239	629.638
318.125	16.421	830.683	628.923
319.139	16.491	830.146	628.723
320.154	16.562	829.657	628.559
321.168	16.715	828.802	628.423
322.183	16.490	828.216	627.091
323.197	16.688	827.763	627.426
324.212	16.598	827.595	626.907
325.227	16.697	827.046	626.804
326.241	16.548	826.604	625.862
327.256	16.592	826.027	625.533
328.270	16.739	825.106	625.322
329.285	16.495	824.792	624.130
330.300	16.694	824.225	624.379
331.314	16.765	823.187	623.796
332.329	16.747	822.737	623.336
333.343	16.724	822.522	623.032
334.358	16.840	821.571	622.684
335.373	16.806	821.219	622.237
336.387	16.841	820.882	622.055
337.402	16.850	820.623	621.837
338.416	16.878	819.574	621.088
339.431	16.929	819.210	620.944
340.446	17.100	818.997	621.355
341.460	16.982	818.525	620.509
342.475	17.117	817.626	620.266
343.489	17.089	817.053	619.675
344.504	17.207	816.544	619.665
345.519	17.440	815.728	619.837
346.533	17.346	815.513	619.278
347.548	17.179	815.096	618.301
348.562	17.070	814.514	617.407
349.577	17.168	813.668	617.068
350.592	17.068	813.356	616.415
351.606	17.074	812.899	616.034
352.621	17.072	812.429	615.615
353.635	17.043	812.187	615.271
354.650	17.173	811.640	615.275
355.665	17.071	811.321	614.609
356.679	17.162	810.761	614.459
357.694	17.245	809.998	614.126
358.708	17.321	809.449	613.932
359.723	17.187	809.215	613.216
360.738	17.194	808.531	612.669
361.752	17.197	808.018	612.234
362.767	17.293	807.497	612.132
363.781	17.408	807.217	612.280
364.796	17.386	806.667	611.730
365.810	17.473	806.421	611.802
366.825	17.340	806.609	611.414
367.840	17.600	806.100	611.908
368.854	17.714	805.390	611.722
369.869	17.612	804.613	610.710
370.883	17.510	804.181	609.964
371.898	17.415	803.681	609.192
372.913	17.468	803.052	608.850
373.927	17.559	802.934	609.032
374.942	17.503	802.118	608.159
375.956	17.638	801.253	607.931
376.971	17.569	800.896	607.361
377.986	17.685	800.550	607.456
379.000	17.683	799.994	606.977
380.015	17.852	799.261	606.966
381.029	17.601	799.119	605.911
382.044	17.676	798.682	605.794
383.059	17.721	797.743	605.189
384.073	17.789	797.219	604.977
385.088	17.733	796.877	604.466
386.102	17.571	796.259	603.370
387.117	17.688	795.644	603.266
388.132	17.700	795.132	602.866
389.146	17.718	794.689	602.539
390.161	17.793	794.362	602.505
391.175	17.925	793.877	602.551
392.190	17.793	793.528	601.764
393.205	17.816	793.315	601.632
394.219	17.707	792.867	600.855
395.234	17.708	792.300	600.373
396.248	17.759	791.509	599.900
397.263	17.753	791.228	599.613
398.278	17.649	790.466	598.619
399.292	17.733	790.255	598.702
400.307	17.539	789.862	597.670
401.321	17.656	789.260	597.572
402.336	17.635	789.201	597.400
403.350	17.701	789.029	597.447
404.365	17.731	788.338	596.976
405.380	17.925	787.641	597.075
406.394	17.969	787.321	596.934
407.409	18.108	786.869	597.025
408.423	17.882	786.820	596.146
409.438	18.090	786.282	596.407
410.453	18.090	785.816	596.005
411.467	18.095	785.513	595.737
412.482	18.263	784.696	595.650
413.496	18.177	784.647	595.262
414.511	18.186	784.212	594.911
415.526	18.376	783.814	595.214
416.540	18.177	783.702	594.386
417.555	18.244	782.938	593.988
418.569	18.244	782.497	593.600
419.584	18.270	781.792	593.103
420.599	18.306	781.357	592.844
421.613	156.214	1369.096	1794.648
422.628	134.850	1454.720	1794.749
