DTS Sentinel unit serial number:	SN413079Multiplexer serial number:	ORYXHardware model number:	OX4-SRSoftware version number:	ORYX F/W v4.00 Oryx Data Collector v3.7.2.0data status	okinstallation	princeton_trtdifferential loss correction	single-endedforward channel	channel 3reverse channel	N/Adate	2019/09/11time	12:02:10forward acquisition time	60.00reverse acquisition time	0.00gamma	496.2192k internal	0.2292k external	0.2292temperature offset calibration	0.9934default loss term (dB/km)	0.3790temperature slope calibration	1.0000multiplexer offset coefficient	1.0000multiplexer slope coefficient	1.0000fibre end	0.00T internal ref (°C)	39.34T ext. ref 1 (°C)	0.21T ext. ref 2 (°C)	37.18length (m)	temperature (°C)	Stokes	anti-Stokes-747.200	-62.479	-0.112	0.048
-746.185	59.227	-0.120	0.121
-745.171	-200.000	0.016	0.327
-744.156	-130.181	-0.282	-0.039
-743.142	38.627	0.132	-0.120
-742.127	-15.570	-0.222	0.145
-741.112	59.768	0.102	-0.103
-740.098	-200.000	0.039	0.513
-739.083	26.937	0.204	-0.175
-738.069	73.494	0.074	0.079
-737.054	-41.677	-0.161	0.085
-736.039	454.129	-0.068	0.155
-735.025	-200.000	-0.035	-0.176
-734.010	-200.000	0.038	-0.198
-732.996	800.000	0.092	-0.355
-731.981	-200.000	0.051	0.303
-730.966	153.075	0.032	0.045
-729.952	-200.000	-0.041	0.206
-728.937	-171.974	-0.151	0.005
-727.923	-200.000	-0.023	-0.371
-726.908	-200.000	-0.004	-0.168
-725.894	238.898	-0.310	-0.527
-724.879	-146.992	0.279	-0.024
-723.864	-68.492	0.103	-0.041
-722.850	-200.000	0.011	-0.413
-721.835	800.000	-0.038	-0.119
-720.821	199.978	0.065	-0.101
-719.806	80.884	-0.299	-0.330
-718.791	800.000	-0.009	-0.037
-717.777	-200.000	-0.003	-0.351
-716.762	21.056	0.043	0.036
-715.748	-17.161	-0.095	0.061
-714.733	10.370	0.069	0.054
-713.718	-104.149	-0.196	-0.047
-712.704	737.286	-0.142	-0.388
-711.689	-55.726	-0.092	0.042
-710.675	-18.363	-0.182	0.117
-709.660	-78.894	0.168	0.059
-708.645	229.796	-0.112	0.187
-707.631	-200.000	-0.006	-0.203
-706.616	31.899	-0.094	0.083
-705.602	185.516	-0.068	0.103
-704.587	195.281	0.039	-0.061
-703.572	11.682	-0.390	0.306
-702.558	660.531	0.102	0.269
-701.543	-175.836	-0.163	0.004
-700.529	-200.000	0.004	0.149
-699.514	341.337	-0.152	-0.304
-698.499	199.822	0.082	0.128
-697.485	800.000	-0.046	0.133
-696.470	-200.000	-0.083	-0.373
-695.456	-200.000	-0.056	-0.348
-694.441	800.000	-0.028	-0.083
-693.426	-82.677	0.365	-0.121
-692.412	-141.670	-0.501	-0.051
-691.397	564.076	0.117	-0.289
-690.383	117.181	-0.061	-0.077
-689.368	-20.241	-0.294	0.185
-688.354	233.811	0.085	0.142
-687.339	-200.000	-0.008	-0.092
-686.324	734.642	-0.156	-0.427
-685.310	790.192	-0.029	0.081
-684.295	-50.590	-0.496	0.239
-683.281	800.000	-0.085	-0.331
-682.266	-44.806	0.287	-0.146
-681.251	-186.004	0.108	-0.002
-680.237	83.639	-0.217	0.241
-679.222	38.932	-0.065	-0.060
-678.208	-52.579	0.401	-0.189
-677.193	120.987	0.173	0.219
-676.178	215.879	0.085	0.138
-675.164	-92.954	0.226	0.064
-674.149	-200.000	-0.002	-0.031
-673.135	468.313	-0.027	0.062
-672.120	-31.981	0.107	0.061
-671.105	241.993	-0.072	-0.124
-670.091	800.000	-0.096	-0.323
-669.076	-200.000	0.017	-0.358
-668.062	234.797	0.159	0.268
-667.047	-200.000	-0.005	-0.416
-666.032	-90.274	0.196	-0.058
-665.018	-149.591	0.637	0.051
-664.003	-89.081	0.062	-0.019
-662.989	-200.000	-0.003	-0.132
-661.974	499.813	-0.065	0.153
-660.959	-98.025	0.214	0.056
-659.945	130.285	0.065	0.085
-658.930	-99.127	0.089	0.023
-657.916	-7.111	-0.122	0.085
-656.901	44.970	-0.075	0.070
-655.886	11.825	0.090	-0.070
-654.872	69.439	-0.067	0.070
-653.857	-200.000	0.008	-0.545
-652.843	660.597	0.067	0.177
-651.828	800.000	0.110	0.318
-650.814	-71.718	0.110	-0.042
-649.799	-200.000	-0.011	0.198
-648.784	68.398	-0.240	-0.251
-647.770	-120.850	-0.110	-0.019
-646.755	800.000	0.077	-0.249
-645.741	-126.058	0.261	0.040
-644.726	332.731	0.193	-0.381
-643.711	-200.000	0.053	0.252
-642.697	-102.305	0.382	0.094
-641.682	800.000	0.158	0.478
-640.668	-31.554	-0.137	0.078
-639.653	792.442	0.121	-0.340
-638.638	229.290	-0.095	0.159
-637.624	-43.392	0.201	0.104
-636.609	59.080	0.068	-0.068
-635.595	-166.253	-0.242	-0.010
-634.580	-28.518	0.048	0.028
-633.565	-99.033	-0.276	0.071
-632.551	-147.246	0.074	0.006
-631.536	-142.637	0.241	0.024
-630.522	-200.000	-0.065	-0.295
-629.507	672.046	-0.025	-0.067
-628.492	-39.663	-0.007	-0.004
-627.478	-85.680	0.195	-0.062
-626.463	-200.000	-0.059	0.359
-625.449	800.000	-0.038	0.167
-624.434	108.599	0.060	-0.074
-623.419	250.343	0.140	0.242
-622.405	-177.088	-0.396	0.010
-621.390	-200.000	-0.019	-0.116
-620.376	-93.467	0.079	-0.022
-619.361	800.000	-0.023	0.102
-618.346	-131.371	-0.081	0.011
-617.332	84.961	-0.133	-0.148
-616.317	-8.471	0.131	-0.090
-615.303	-134.330	-0.137	0.017
-614.288	800.000	-0.035	0.103
-613.273	-81.839	-0.132	0.044
-612.259	11.780	-0.054	0.042
-611.244	-200.000	-0.037	-0.351
-610.230	585.159	-0.062	0.156
-609.215	117.451	0.201	-0.252
-608.201	-35.812	0.100	0.055
-607.186	-181.950	0.300	-0.006
-606.171	-200.000	0.106	0.522
-605.157	-81.673	-0.148	0.050
-604.142	-200.000	-0.037	-0.257
-603.128	-41.487	-0.126	-0.066
-602.113	-119.937	0.329	0.058
-601.098	239.463	0.061	0.103
-600.084	277.876	-0.073	0.132
-599.069	64.657	-0.122	0.125
-598.055	133.261	-0.205	0.269
-597.040	249.024	-0.040	-0.069
-596.025	372.598	-0.098	-0.202
-595.011	-200.000	0.020	0.095
-593.996	739.364	0.068	0.185
-592.982	-200.000	0.018	-0.166
-591.967	-190.142	-0.130	-0.001
-590.952	-116.190	-0.181	0.034
-589.938	63.106	-0.172	-0.175
-588.923	370.957	0.055	0.114
-587.909	13.771	0.335	-0.265
-586.894	325.589	-0.124	-0.241
-585.879	-89.751	-0.383	0.114
-584.865	-81.820	-0.284	0.095
-583.850	-13.178	0.110	0.073
-582.836	-200.000	0.014	-0.438
-581.821	62.451	0.107	0.108
-580.806	167.146	0.090	0.130
-579.792	172.294	0.150	-0.219
-578.777	-32.748	-0.195	-0.110
-577.763	-55.768	-0.124	-0.056
-576.748	-25.371	0.095	0.057
-575.733	420.811	-0.105	-0.228
-574.719	130.186	-0.227	-0.295
-573.704	19.864	-0.096	0.078
-572.690	800.000	-0.057	-0.174
-571.675	800.000	-0.076	0.217
-570.661	-2.726	-0.183	0.130
-569.646	151.143	-0.088	-0.121
-568.631	800.000	0.087	-0.297
-567.617	64.731	-0.084	0.086
-566.602	4.474	-0.087	-0.065
-565.588	-42.833	-0.191	0.099
-564.573	-200.000	-0.016	0.149
-563.558	800.000	0.082	-0.314
-562.544	-200.000	-0.003	-0.243
-561.529	29.319	-0.048	-0.042
-560.515	-12.584	-0.033	-0.022
-559.500	-60.804	0.463	-0.199
-558.485	-110.034	-0.151	-0.032
-557.471	-44.256	0.262	0.133
-556.456	454.160	0.126	-0.283
-555.442	-200.000	0.044	-0.371
-554.427	114.489	-0.205	-0.253
-553.412	-99.012	-0.146	-0.038
-552.398	-154.356	0.165	0.011
-551.383	485.914	0.059	0.137
-550.369	-200.000	-0.057	-0.386
-549.354	-200.000	0.026	-0.320
-548.339	12.092	0.154	0.120
-547.325	-84.695	0.293	-0.094
-546.310	-186.515	-0.053	-0.001
-545.296	-160.042	-0.075	-0.004
-544.281	-18.032	0.352	0.224
-543.266	800.000	-0.058	0.207
-542.252	-200.000	0.006	-0.040
-541.237	78.337	-0.120	0.130
-540.223	98.859	-0.101	0.119
-539.208	-200.000	0.033	-0.299
-538.193	66.881	-0.074	0.076
-537.179	415.008	-0.151	0.326
-536.164	33.248	0.190	0.167
-535.150	61.923	0.157	0.159
-534.135	-71.534	-0.195	0.074
-533.121	-66.622	0.207	-0.083
-532.106	-65.243	-0.142	-0.058
-531.091	50.813	0.223	-0.214
-530.077	209.906	-0.105	-0.167
-529.062	-98.573	0.461	-0.120
-528.048	-162.144	0.117	-0.006
-527.033	65.373	0.090	-0.093
-526.018	135.909	-0.335	0.442
-525.004	-10.502	0.111	-0.074
-523.989	-53.633	0.436	0.202
-522.975	120.464	0.272	0.343
-521.960	61.788	0.065	0.066
-520.945	-39.397	0.357	-0.190
-519.931	-75.153	-0.282	0.102
-518.916	-1.742	0.217	-0.155
-517.902	-146.195	-0.321	-0.029
-516.887	800.000	-0.117	0.358
-515.872	154.023	-0.099	-0.138
-514.858	392.262	-0.111	-0.235
-513.843	-200.000	0.029	-0.181
-512.829	-25.294	0.238	-0.143
-511.814	-173.873	-0.199	-0.006
-510.799	800.000	-0.075	0.230
-509.785	-102.052	-0.051	0.013
-508.770	-19.975	-0.221	-0.138
-507.756	57.534	0.088	0.087
-506.741	-76.423	0.225	0.080
-505.726	-139.213	-0.572	0.063
-504.712	-87.929	-0.202	-0.062
-503.697	-200.000	-0.003	-0.238
-502.683	157.309	0.266	-0.373
-501.668	-200.000	0.019	-0.127
-500.653	-72.028	-0.229	0.086
-499.639	-80.499	0.284	0.096
-498.624	-100.941	-0.107	-0.027
-497.610	190.014	0.231	-0.352
-496.595	-67.898	0.182	0.072
-495.581	221.378	0.147	-0.239
-494.566	-51.825	-0.366	0.173
-493.551	35.599	0.268	0.239
-492.537	55.982	-0.265	0.261
-491.522	32.263	-0.130	-0.114
-490.508	-200.000	-0.047	-0.299
-489.493	-142.831	0.398	0.039
-488.478	-123.126	0.283	-0.046
-487.464	-200.000	-0.058	-0.339
-486.449	-200.000	-0.003	-0.117
-485.435	800.000	0.056	0.231
-484.420	100.367	0.107	0.125
-483.405	-200.000	0.068	0.322
-482.391	342.962	0.057	-0.114
-481.376	-200.000	0.014	-0.190
-480.362	800.000	0.041	0.155
-479.347	-200.000	-0.017	-0.294
-478.332	-145.647	0.275	-0.025
-477.318	-92.665	-0.300	-0.085
-476.303	51.494	-0.252	0.242
-475.289	-45.817	-0.143	0.072
-474.274	190.518	0.121	-0.185
-473.259	25.507	0.068	-0.057
-472.245	-200.000	-0.006	-0.331
-471.230	510.831	-0.057	-0.135
-470.216	356.587	0.105	-0.212
-469.201	-37.418	-0.183	0.099
-468.186	225.861	0.167	0.274
-467.172	800.000	-0.101	0.286
-466.157	-101.576	0.140	-0.034
-465.143	-110.599	-0.232	-0.049
-464.128	227.076	-0.161	0.265
-463.113	800.000	0.068	0.210
-462.099	-20.424	0.300	-0.187
-461.084	-116.375	0.275	-0.051
-460.070	72.150	-0.201	0.212
-459.055	-176.283	0.392	0.010
-458.040	-191.535	0.176	0.002
-457.026	-42.663	0.162	-0.084
-456.011	-11.009	0.231	-0.155
-454.997	-200.000	-0.037	-0.254
-453.982	567.229	-0.077	0.190
-452.968	-135.591	-0.139	0.017
-451.953	-132.335	-0.364	0.048
-450.938	-200.000	0.004	-0.026
-449.924	-165.154	0.178	-0.008
-448.909	73.027	0.235	-0.248
-447.895	317.275	0.180	-0.344
-446.880	211.105	-0.084	-0.134
-445.865	62.637	0.352	-0.356
-444.851	1.904	-0.013	-0.010
-443.836	-175.671	-0.234	0.006
-442.822	-200.000	0.010	-0.072
-441.807	-200.000	-0.010	0.201
-440.792	334.604	-0.039	-0.076
-439.778	-84.368	-0.191	-0.061
-438.763	800.000	0.057	0.240
-437.749	-137.703	-0.077	-0.009
-436.734	-163.056	0.243	-0.012
-435.719	800.000	0.020	0.057
-434.705	-56.775	-0.195	0.087
-433.690	409.949	-0.092	-0.197
-432.676	-77.266	0.388	-0.136
-431.661	524.672	0.090	0.215
-430.646	135.842	0.145	-0.191
-429.632	-35.768	-0.165	-0.090
-428.617	800.000	-0.060	0.175
-427.603	-23.097	0.270	-0.165
-426.588	90.936	0.105	0.119
-425.573	-200.000	0.043	-0.281
-424.559	40.990	-0.072	0.065
-423.544	-143.158	-0.269	-0.026
-422.530	-29.155	0.201	-0.117
-421.515	-200.000	0.044	-0.262
-420.500	800.000	-0.069	-0.216
-419.486	287.139	-0.136	-0.249
-418.471	-19.565	-0.147	-0.092
-417.457	-32.100	0.081	-0.046
-416.442	-98.697	0.149	-0.038
-415.428	-35.141	-0.184	0.101
-414.413	569.856	0.079	0.195
-413.398	-125.563	-0.090	-0.014
-412.384	47.012	-0.180	-0.169
-411.369	283.471	-0.121	0.220
-410.355	-39.663	-0.131	0.069
-409.340	56.852	-0.024	-0.024
-408.325	647.715	0.017	0.044
-407.311	491.929	-0.093	-0.216
-406.296	-60.706	-0.385	0.165
-405.282	155.756	0.267	0.371
-404.267	43.319	-0.125	0.115
-403.252	11.501	-0.170	0.132
-402.238	-5.768	-0.230	-0.159
-401.223	-43.038	-0.306	0.157
-400.209	800.000	0.082	-0.323
-399.194	97.505	0.132	0.153
-398.179	800.000	-0.094	0.279
-397.165	-200.000	0.038	0.319
-396.150	-200.000	0.026	0.246
-395.136	98.701	-0.301	0.351
-394.121	800.000	-0.037	0.157
-393.106	-200.000	-0.014	-0.577
-392.092	113.210	-0.116	-0.142
-391.077	-142.127	-0.320	0.032
-390.063	-151.305	-0.268	-0.020
-389.048	198.551	0.121	0.187
-388.033	30.677	0.293	0.254
-387.019	324.259	0.031	-0.060
-386.004	117.957	-0.083	-0.103
-384.990	-104.357	-0.240	0.056
-383.975	143.408	0.108	0.145
-382.960	80.250	-0.097	0.106
-381.946	800.000	-0.029	-0.104
-380.931	-200.000	-0.026	0.267
-379.917	-122.042	0.194	0.032
-378.902	-42.310	0.144	0.074
-377.888	60.252	0.275	0.274
-376.873	-181.503	0.218	-0.004
-375.858	-52.948	0.045	0.021
-374.844	-173.239	-0.116	0.004
-373.829	-133.866	-0.216	0.027
-372.815	-62.824	0.168	-0.070
-371.800	-200.000	0.021	0.120
-370.785	343.023	-0.105	-0.207
-369.771	-173.089	0.281	0.009
-368.756	-53.132	-0.249	-0.115
-367.742	-84.923	-0.554	0.175
-366.727	-48.818	-0.118	-0.057
-365.712	467.363	0.126	-0.285
-364.698	800.000	0.087	-0.333
-363.683	-200.000	-0.008	0.079
-362.669	277.044	-0.059	0.105
-361.654	42.826	-0.180	0.165
-360.639	-200.000	0.032	0.223
-359.625	-200.000	-0.044	-0.396
-358.610	166.336	0.098	-0.141
-357.596	-72.314	-0.136	-0.051
-356.581	-112.592	-0.317	0.064
-355.566	-41.991	-0.093	-0.048
-354.552	-48.413	-0.286	0.139
-353.537	162.160	0.177	0.250
-352.523	-200.000	-0.045	-0.273
-351.508	-102.630	-0.133	0.032
-350.493	443.880	-0.064	0.141
-349.479	-200.000	-0.125	-0.000
-348.464	-77.985	0.134	-0.047
-347.450	2.751	0.409	0.299
-346.435	-19.467	0.216	-0.135
-345.420	-80.024	-0.340	-0.115
-344.406	140.704	0.099	0.131
-343.391	44.396	0.044	-0.040
-342.377	-46.784	-0.083	-0.041
-341.362	-75.423	0.120	-0.043
-340.348	800.000	-0.170	-0.522
-339.333	11.635	0.162	0.125
-338.318	-84.189	0.215	0.069
-337.304	-12.017	0.134	-0.089
-336.289	-143.730	0.087	0.008
-335.275	-200.000	-0.034	-0.258
-334.260	9.187	-0.172	0.131
-333.245	-200.000	-0.019	0.210
-332.231	-87.599	0.199	-0.061
-331.216	497.454	0.128	0.298
-330.202	-64.571	-0.128	0.052
-329.187	104.812	0.216	0.256
-328.172	-200.000	0.002	0.086
-327.158	800.000	-0.112	0.392
-326.143	-107.312	0.343	0.076
-325.129	800.000	0.029	0.087
-324.114	125.081	0.147	-0.186
-323.099	176.164	0.155	0.226
-322.085	45.509	-0.109	-0.101
-321.070	-0.383	-0.192	-0.137
-320.056	-73.252	0.220	-0.081
-319.041	43.540	0.086	-0.079
-318.026	258.076	0.107	-0.186
-317.012	453.625	0.111	0.247
-315.997	81.238	-0.060	-0.065
-314.983	-18.795	-0.201	0.126
-313.968	29.960	0.076	0.065
-312.953	357.920	-0.118	-0.237
-311.939	-131.074	0.434	-0.058
-310.924	-122.924	0.170	-0.028
-309.910	-200.000	0.034	-0.262
-308.895	274.518	0.170	-0.302
-307.880	-132.503	-0.116	-0.015
-306.866	262.804	0.113	-0.198
-305.851	96.359	-0.276	0.318
-304.837	-47.394	-0.051	0.025
-303.822	-159.747	0.107	0.006
-302.807	-94.114	-0.219	0.060
-301.793	-200.000	0.042	0.274
-300.778	487.083	0.225	0.516
-299.764	-136.091	-0.148	0.018
-298.749	-32.853	-0.255	0.142
-297.735	509.634	-0.069	-0.161
-296.720	112.121	0.156	-0.190
-295.705	327.275	0.056	0.108
-294.691	165.361	-0.113	0.160
-293.676	-180.486	-0.271	0.006
-292.662	300.052	0.107	-0.198
-291.647	261.904	0.160	-0.279
-290.632	1.009	-0.124	-0.089
-289.618	195.162	0.281	0.429
-288.603	121.975	-0.193	0.242
-287.589	-57.202	-0.284	-0.126
-286.574	-27.205	0.352	0.206
-285.559	-200.000	0.013	0.316
-284.545	-14.782	0.058	-0.037
-283.530	184.805	0.046	-0.068
-282.516	35.720	0.148	0.131
-281.501	-78.238	0.239	-0.082
-280.486	785.835	0.054	0.149
-279.472	-200.000	0.004	-0.027
-278.457	-120.459	0.339	-0.058
-277.443	-124.266	0.180	0.028
-276.428	92.518	-0.116	0.132
-275.413	764.731	-0.088	0.240
-274.399	-77.610	-0.035	0.012
-273.384	-200.000	0.038	0.298
-272.370	-65.444	0.129	0.052
-271.355	-137.357	-0.304	-0.035
-270.340	138.857	-0.043	0.057
-269.326	-64.737	-0.152	-0.062
-268.311	800.000	0.087	-0.281
-267.297	-17.622	0.125	-0.079
-266.282	27.592	0.232	0.196
-265.267	-200.000	-0.052	-0.232
-264.253	169.914	-0.131	0.188
-263.238	12.939	0.121	-0.094
-262.224	-174.399	-0.486	0.014
-261.209	27.447	-0.100	0.084
-260.195	169.374	0.046	-0.066
-259.180	800.000	0.012	0.045
-258.165	-71.858	-0.308	0.115
-257.151	151.066	-0.171	0.234
-256.136	800.000	-0.050	-0.138
-255.122	18.043	0.116	-0.093
-254.107	-131.717	-0.253	-0.033
-253.092	111.113	-0.139	0.168
-252.078	-28.903	0.026	-0.015
-251.063	-11.205	-0.074	-0.049
-250.049	-15.202	0.129	-0.083
-249.034	-19.064	-0.234	-0.146
-248.019	124.788	-0.075	-0.095
-247.005	195.314	0.154	0.235
-245.990	120.738	0.093	-0.116
-244.976	19.036	-0.073	0.059
-243.961	-37.570	0.045	0.024
-242.946	-57.561	0.187	0.082
-241.932	-62.055	-0.168	-0.071
-240.917	-56.316	-0.204	-0.091
-239.903	51.134	-0.134	0.127
-238.888	65.938	-0.162	0.165
-237.873	182.970	0.056	-0.084
-236.859	-63.334	0.065	-0.027
-235.844	-200.000	0.027	-0.418
-234.830	-181.261	0.149	-0.003
-233.815	-21.887	0.165	0.101
-232.800	-192.797	0.163	0.001
-231.786	0.167	0.211	-0.151
-230.771	-60.269	0.262	0.112
-229.757	800.000	0.044	0.147
-228.742	-200.000	0.036	0.172
-227.727	53.321	0.190	0.183
-226.713	-154.644	0.144	-0.010
-225.698	-86.863	0.331	0.101
-224.684	-101.510	-0.055	-0.013
-223.669	800.000	-0.116	-0.397
-222.655	785.244	0.038	-0.104
-221.640	91.124	-0.150	0.169
-220.625	-67.821	-0.224	0.088
-219.611	15.791	0.169	-0.133
-218.596	186.209	-0.050	0.074
-217.582	366.294	0.123	0.250
-216.567	-52.440	0.219	0.101
-215.552	-200.000	-0.005	-0.225
-214.538	199.762	-0.116	-0.178
-213.523	-31.420	0.204	-0.115
-212.509	-50.405	-0.085	0.040
-211.494	74.840	-0.218	0.231
-210.479	107.679	0.172	0.205
-209.465	-20.316	-0.076	-0.047
-208.450	-63.768	-0.154	0.063
-207.436	60.839	0.074	-0.074
-206.421	585.934	0.109	0.270
-205.406	-60.111	0.424	-0.181
-204.392	-200.000	-0.023	-0.416
-203.377	-200.000	-0.013	0.139
-202.363	267.619	-0.121	-0.212
-201.348	-23.244	-0.297	0.179
-200.333	-200.000	-0.075	-0.422
-199.319	246.506	-0.119	0.200
-198.304	26.607	-0.251	0.210
-197.290	65.550	-0.115	-0.116
-196.275	800.000	-0.028	0.093
-195.260	268.146	-0.122	0.214
-194.246	185.438	0.028	-0.042
-193.231	-200.000	-0.017	-0.130
-192.217	198.417	-0.255	-0.390
-191.202	-200.000	0.040	-0.280
-190.187	-67.234	0.232	-0.091
-189.173	800.000	0.038	0.127
-188.158	-73.480	-0.413	-0.151
-187.144	755.655	-0.089	0.241
-186.129	-200.000	-0.056	0.258
-185.114	-65.091	-0.079	-0.032
-184.100	217.842	0.120	0.192
-183.085	135.643	0.236	-0.307
-182.071	800.000	-0.033	0.131
-181.056	0.577	0.016	0.012
-180.042	77.591	0.257	0.274
-179.027	-200.000	-0.030	0.250
-178.012	-69.078	0.214	0.083
-176.998	-200.000	0.034	-0.205
-175.983	-21.684	0.251	-0.153
-174.969	-200.000	-0.007	-0.171
-173.954	283.213	-0.125	0.224
-172.939	-200.000	-0.041	0.262
-171.925	-52.933	-0.093	0.043
-170.910	338.592	0.175	-0.340
-169.896	226.352	-0.116	0.188
-168.881	138.671	0.257	-0.338
-167.866	236.779	-0.087	0.144
-166.852	-114.495	0.088	-0.017
-165.837	-76.045	0.042	-0.015
-164.823	67.284	0.091	0.093
-163.808	308.372	-0.128	0.239
-162.793	-200.000	-0.017	0.377
-161.779	-148.681	-0.352	-0.029
-160.764	-200.000	0.021	-0.168
-159.750	-200.000	-0.059	-0.282
-158.735	725.059	-0.040	-0.106
-157.720	-105.263	-0.151	-0.034
-156.706	85.209	-0.083	0.091
-155.691	800.000	0.077	0.260
-154.677	12.122	-0.215	-0.166
-153.662	-8.095	-0.346	0.233
-152.647	23.181	-0.223	0.183
-151.633	800.000	-0.009	0.032
-150.618	17.605	0.257	0.204
-149.604	-94.696	0.217	-0.059
-148.589	-139.232	0.338	0.036
-147.574	247.775	0.174	0.294
-146.560	353.051	0.188	0.374
-145.545	143.511	0.073	-0.097
-144.531	-26.514	-0.144	-0.084
-143.516	735.884	0.118	-0.317
-142.502	-200.000	0.002	0.193
-141.487	8.785	0.131	-0.099
-140.472	169.261	0.187	-0.267
-139.458	127.908	-0.070	-0.089
-138.443	62.487	-0.132	0.132
-137.429	-58.092	0.135	0.059
-136.414	-73.963	0.078	0.028
-135.399	-84.623	0.283	-0.089
-134.385	25.855	0.385	-0.321
-133.370	312.457	-0.093	-0.174
-132.356	-200.000	0.011	-0.307
-131.341	800.000	-0.116	-0.380
-130.326	-109.581	-0.153	-0.032
-129.312	410.968	-0.089	0.188
-128.297	-12.117	0.075	0.049
-127.283	-121.743	-0.134	-0.022
-126.268	-45.908	-0.071	-0.035
-125.253	-65.500	-0.344	0.138
-124.239	-115.858	0.527	0.098
-123.224	-97.473	-0.060	0.016
-122.210	491.805	-0.050	-0.113
-121.195	-8.507	-0.247	0.166
-120.180	58.001	-0.456	-0.446
-119.166	80.993	-0.117	0.126
-118.151	-147.324	-0.126	-0.011
-117.137	42.435	-0.234	-0.213
-116.122	17.984	-0.149	-0.119
-115.107	-26.740	0.258	0.151
-114.093	69.394	-0.031	0.032
-113.078	-129.580	0.309	-0.043
-112.064	501.372	-0.072	0.167
-111.049	-200.000	-0.001	-0.160
-110.034	-195.088	-0.042	-0.000
-109.020	-90.955	0.245	-0.070
-108.005	-42.668	0.293	-0.149
-106.991	76.245	-0.143	-0.152
-105.976	-139.085	-0.243	0.026
-104.962	-200.000	0.051	0.523
-103.947	123.428	0.106	-0.133
-102.932	-116.369	0.279	0.051
-101.918	-150.650	0.227	0.017
-100.903	36.300	0.243	-0.214
-99.889	-200.000	-0.062	-0.561
-98.874	-49.162	0.210	0.100
-97.859	-86.900	0.389	-0.118
-96.845	-200.000	0.070	0.376
-95.830	800.000	-0.143	0.523
-94.816	-127.326	-0.340	0.050
-93.801	700.589	-0.019	-0.049
-92.786	800.000	0.014	-0.040
-91.772	-94.394	-0.180	0.049
-90.757	-200.000	-0.008	0.229
-89.743	209.658	0.286	0.447
-88.728	-112.928	-0.158	0.031
-87.713	-68.507	0.268	-0.104
-86.699	248.440	-0.147	0.248
-85.684	130.068	0.209	0.266
-84.670	-37.616	-0.195	-0.104
-83.655	-32.052	-0.145	-0.081
-82.640	12.922	-0.127	-0.098
-81.626	40.072	-0.232	-0.208
-80.611	-200.000	0.087	-0.395
-79.597	800.000	0.070	0.195
-78.582	800.000	0.029	-0.113
-77.567	-200.000	-0.027	-0.214
-76.553	167.305	-0.197	0.280
-75.538	800.000	0.101	-0.430
-74.524	301.779	-0.096	-0.176
-73.509	-200.000	0.003	-0.053
-72.494	85.345	0.268	-0.294
-71.480	-200.000	0.018	-0.140
-70.465	-33.142	0.306	-0.169
-69.451	-81.100	0.273	-0.090
-68.436	77.139	0.260	-0.275
-67.422	-180.575	0.280	0.006
-66.407	-128.828	-0.225	-0.032
-65.392	-108.964	-0.320	-0.068
-64.378	-187.038	-0.184	0.003
-63.363	93.408	0.134	-0.152
-62.349	53.016	0.185	0.176
-61.334	-5.488	-0.803	-0.549
-60.319	-46.393	0.409	0.200
-59.305	-200.000	-0.038	-0.560
-58.290	46.020	0.355	0.327
-57.276	704.870	0.700	1.842
-56.261	-200.000	77.722	490.084
-55.246	563.971	1361.688	3286.817
-54.232	179.335	2605.739	3799.941
-53.217	122.542	2272.442	2831.159
-52.203	49.809	1796.391	1687.330
-51.188	42.581	1596.736	1447.899
-50.173	40.058	1566.730	1402.763
-49.159	55.791	1603.421	1548.566
-48.144	61.110	1623.450	1605.941
-47.130	43.071	1587.419	1442.732
-46.115	39.704	1573.170	1405.780
-45.100	39.503	1569.650	1401.149
-44.086	39.526	1568.001	1399.786
-43.071	39.400	1565.480	1396.591
-42.057	39.319	1564.447	1395.039
-41.042	39.341	1562.602	1393.494
-40.027	39.321	1560.878	1391.759
-39.013	39.229	1559.773	1390.065
-37.998	39.363	1557.712	1389.119
-36.984	39.304	1557.270	1388.253
-35.969	39.353	1555.602	1387.060
-34.954	39.357	1554.216	1385.793
-33.940	39.375	1553.090	1384.860
-32.925	39.471	1551.253	1383.842
-31.911	39.389	1550.111	1382.196
-30.896	39.454	1548.952	1381.561
-29.881	39.532	1546.883	1380.212
-28.867	39.453	1545.827	1378.660
-27.852	39.436	1544.471	1377.275
-26.838	39.412	1543.352	1376.055
-25.823	39.375	1541.851	1374.408
-24.809	39.386	1540.010	1372.787
-23.794	39.486	1538.209	1371.820
-22.779	39.392	1537.099	1370.122
-21.765	39.471	1535.900	1369.551
-20.750	39.410	1534.868	1368.154
-19.736	39.416	1533.917	1367.288
-18.721	39.279	1532.951	1365.426
-17.706	39.337	1531.333	1364.333
-16.692	39.380	1529.943	1363.339
-15.677	39.239	1529.983	1362.340
-14.663	39.305	1528.295	1361.242
-13.648	39.264	1527.493	1360.193
-12.633	39.249	1526.033	1358.731
-11.619	39.316	1525.799	1358.933
-10.604	39.314	1524.337	1357.566
-9.590	39.227	1523.621	1356.274
-8.575	39.217	1522.806	1355.422
-7.560	39.244	1521.725	1354.592
-6.546	39.236	1520.549	1353.436
-5.531	39.261	1519.731	1352.830
-4.517	39.202	1519.279	1351.965
-3.502	39.299	1517.882	1351.337
-2.487	39.280	1516.520	1349.936
-1.473	39.236	1515.743	1348.892
-0.458	39.229	1514.587	1347.759
0.556	37.625	1505.782	1339.837
1.571	35.372	1479.118	1300.743
2.586	32.343	1416.552	1225.904
3.600	30.868	1331.722	1143.342
4.615	28.856	1282.402	1088.994
5.629	23.747	1221.918	1008.618
6.644	11.216	1127.053	864.177
7.659	1.770	1078.745	778.936
8.673	0.423	1072.112	767.230
9.688	0.207	1069.266	764.030
10.702	0.133	1067.730	762.486
11.717	0.087	1066.324	761.183
12.731	4.295	1071.549	786.206
13.746	15.707	1088.693	857.190
14.761	22.815	1097.401	900.362
15.775	22.624	1096.332	898.433
16.790	22.309	1095.257	895.870
17.804	21.995	1094.962	893.949
18.819	21.931	1093.429	892.293
19.834	22.096	1092.845	892.575
20.848	22.130	1092.222	892.158
21.863	22.141	1092.188	892.109
22.877	22.179	1091.596	891.741
23.892	22.117	1090.507	890.459
24.907	22.110	1089.724	889.706
25.921	22.097	1089.307	889.217
26.936	22.164	1088.337	888.687
27.950	21.943	1087.508	886.813
28.965	21.977	1085.941	885.630
29.980	21.795	1084.734	883.653
30.994	21.933	1082.937	882.802
32.009	22.090	1082.579	883.220
33.023	22.073	1081.873	882.484
34.038	21.968	1080.674	880.897
35.053	21.931	1079.904	880.009
36.067	22.058	1079.261	880.041
37.082	22.020	1078.336	879.022
38.096	22.205	1077.723	879.368
39.111	22.136	1077.356	878.647
40.126	22.371	1075.936	878.585
41.140	22.318	1074.973	877.454
42.155	22.016	1073.342	874.545
43.169	21.656	1072.685	872.138
44.184	21.697	1071.621	871.401
45.199	21.773	1070.424	870.725
46.213	21.649	1069.302	869.121
47.228	21.661	1068.156	868.173
48.242	21.793	1067.618	868.312
49.257	21.930	1066.621	868.102
50.271	22.078	1065.542	867.879
51.286	22.078	1065.234	867.553
52.301	22.235	1064.564	867.702
53.315	22.119	1063.772	866.409
54.330	22.142	1062.984	865.806
55.344	21.969	1062.035	864.101
56.359	22.065	1061.149	863.779
57.374	21.987	1060.734	862.979
58.388	21.881	1059.604	861.464
59.403	21.842	1058.552	860.341
60.417	21.792	1058.120	859.668
61.432	21.614	1057.140	857.924
62.447	21.711	1056.401	857.723
63.461	21.809	1056.065	857.853
64.476	21.899	1055.223	857.536
65.490	21.932	1054.330	856.895
66.505	21.779	1053.336	855.265
67.520	21.758	1052.328	854.267
68.534	21.970	1051.210	854.315
69.549	21.738	1050.594	852.613
70.563	21.363	1049.349	849.706
71.578	21.280	1048.626	848.638
72.593	21.399	1047.663	848.364
73.607	21.192	1046.349	846.223
74.622	21.236	1045.381	845.574
75.636	21.404	1045.023	846.022
76.651	21.757	1044.044	846.861
77.666	21.655	1043.013	845.457
78.680	21.431	1042.391	843.799
79.695	21.512	1041.677	843.538
80.709	21.596	1041.344	843.596
81.724	21.690	1040.946	843.656
82.739	21.681	1039.422	842.301
83.753	21.647	1038.931	841.664
84.768	21.944	1038.516	842.683
85.782	22.235	1037.824	843.439
86.797	22.343	1037.329	843.480
87.812	22.394	1035.676	842.307
88.826	22.132	1034.718	840.199
89.841	22.036	1034.577	839.554
90.855	22.274	1033.038	839.366
91.870	22.239	1032.482	838.671
92.884	22.206	1031.637	837.752
93.899	22.220	1030.713	836.995
94.914	22.141	1029.340	835.434
95.928	22.232	1028.794	835.349
96.943	22.218	1028.466	834.943
97.957	21.978	1026.652	832.257
98.972	21.891	1025.597	830.918
99.987	21.672	1024.344	828.792
101.001	21.668	1024.069	828.477
102.016	21.993	1023.280	829.301
103.030	21.911	1022.741	828.404
104.045	21.964	1021.780	827.800
105.060	21.859	1020.185	825.943
106.074	21.673	1018.961	824.001
107.089	21.705	1018.390	823.618
108.103	21.983	1017.926	824.478
109.118	22.096	1016.952	824.147
110.133	21.820	1016.162	822.139
111.147	21.792	1015.029	821.018
112.162	21.685	1013.459	819.172
113.176	21.523	1012.483	817.557
114.191	21.575	1011.376	816.834
115.206	21.740	1010.550	816.864
116.220	21.428	1009.553	814.533
117.235	21.354	1008.333	813.132
118.249	21.427	1008.059	813.179
119.264	21.487	1007.382	812.836
120.279	21.344	1006.085	811.055
121.293	21.412	1005.411	810.754
122.308	21.463	1004.861	810.475
123.322	21.322	1004.309	809.308
124.337	21.479	1003.219	809.081
125.352	21.421	1001.495	807.356
126.366	20.938	1000.226	804.030
127.381	20.715	998.680	801.690
128.395	21.269	998.146	803.742
129.410	21.888	997.729	806.178
130.424	21.991	996.770	805.807
131.439	21.940	995.579	804.537
132.454	21.863	995.149	803.765
133.468	21.963	993.935	803.173
134.483	21.880	993.256	802.175
135.497	21.908	992.295	801.454
136.512	22.119	991.951	802.069
137.527	22.346	990.971	802.242
138.541	22.216	989.994	800.788
139.556	22.287	989.658	800.769
140.570	22.309	988.502	799.860
141.585	22.283	987.438	798.812
142.600	22.253	987.375	798.555
143.614	22.157	986.115	797.029
144.629	22.338	985.058	796.924
145.643	22.470	984.864	797.294
146.658	22.540	983.370	796.330
147.673	22.218	982.338	793.969
148.687	22.159	981.160	792.680
149.702	22.060	980.367	791.525
150.716	21.868	979.287	789.719
151.731	21.871	978.237	788.816
152.746	22.058	977.315	788.843
153.760	22.197	976.712	788.908
154.775	22.351	976.263	789.165
155.789	22.302	974.949	787.817
156.804	22.298	974.110	787.050
157.819	22.346	972.959	786.264
158.833	22.343	972.114	785.497
159.848	22.453	971.471	785.401
160.862	22.440	970.797	784.727
161.877	22.392	969.720	783.574
162.892	22.210	969.141	782.226
163.906	22.282	968.112	781.649
164.921	22.303	966.960	780.740
165.935	22.345	965.780	779.907
166.950	22.276	964.955	778.865
167.964	22.280	964.206	778.211
168.979	22.352	962.936	777.435
169.994	22.211	962.144	776.106
171.008	22.133	961.333	775.036
172.023	22.177	960.390	774.403
173.037	22.386	959.332	774.402
174.052	22.228	958.194	772.719
175.067	22.110	957.166	771.302
176.081	22.052	956.432	770.389
177.096	22.165	955.648	770.183
178.110	22.198	954.695	769.492
179.125	21.965	953.909	767.773
180.140	21.709	952.589	765.524
181.154	21.640	951.869	764.575
182.169	21.855	951.645	765.267
183.183	22.133	950.946	765.846
184.198	22.393	950.772	766.775
185.213	22.288	950.386	765.937
186.227	22.188	949.697	764.880
187.242	22.241	949.199	764.639
188.256	22.405	948.187	764.470
189.271	22.402	947.241	763.625
190.286	22.459	946.217	762.982
191.300	22.133	945.666	761.059
192.315	21.734	944.169	758.060
193.329	21.006	942.597	753.583
194.344	20.673	941.573	751.262
195.359	21.195	942.067	753.844
196.373	21.996	942.290	757.415
197.388	22.236	942.065	758.202
198.402	21.986	941.406	756.526
199.417	21.992	940.620	755.852
200.432	22.235	939.819	756.190
201.446	22.101	939.050	754.926
202.461	21.776	938.318	752.877
203.475	21.801	938.183	752.810
204.490	21.533	936.319	750.098
205.504	20.437	934.063	743.535
206.519	20.675	934.379	744.741
207.534	21.573	934.827	748.876
208.548	21.775	934.066	749.063
209.563	22.182	933.907	750.605
210.577	22.170	933.413	750.092
211.592	21.955	931.953	747.935
212.607	22.304	932.033	749.422
213.621	22.417	931.668	749.543
214.636	22.302	930.792	748.282
215.650	22.296	930.390	747.869
216.665	22.375	929.451	747.381
217.680	22.295	929.316	746.865
218.694	22.430	928.660	746.845
219.709	22.146	927.558	744.690
220.723	21.818	926.676	742.527
221.738	21.975	926.097	742.662
222.753	22.090	925.581	742.669
223.767	22.135	925.091	742.400
224.782	22.202	924.058	741.790
225.796	22.282	923.869	741.908
226.811	22.494	923.305	742.285
227.826	22.091	921.744	739.269
228.840	21.313	919.966	734.507
229.855	21.186	919.937	733.885
230.869	21.286	919.741	734.084
231.884	21.256	918.515	732.915
232.899	21.277	917.737	732.316
233.913	22.053	917.821	735.573
234.928	22.187	917.524	735.829
235.942	22.002	916.887	734.480
236.957	22.101	916.306	734.363
237.972	21.924	914.790	732.343
238.986	21.776	914.157	731.154
240.001	21.780	913.744	730.778
241.015	21.735	913.232	730.114
242.030	21.908	912.427	730.128
243.045	22.090	911.766	730.288
244.059	22.101	911.795	730.293
245.074	22.082	911.422	729.852
246.088	22.357	910.187	729.938
247.103	21.932	909.431	727.507
248.117	21.951	908.528	726.801
249.132	22.574	908.608	729.377
250.147	22.760	908.629	730.101
251.161	22.878	908.072	730.076
252.176	23.033	907.459	730.159
253.190	23.068	906.552	729.507
254.205	23.145	906.359	729.606
255.220	23.233	905.931	729.558
256.234	23.278	905.248	729.132
257.249	23.114	904.606	727.873
258.263	23.054	903.862	726.964
259.278	22.939	903.220	725.913
260.293	23.027	902.819	725.888
261.307	23.035	902.379	725.502
262.322	23.054	901.550	724.846
263.336	23.019	900.853	724.080
264.351	22.545	899.182	720.736
265.366	21.399	897.363	714.532
266.380	20.966	896.274	711.834
267.395	21.788	896.649	715.426
268.409	22.522	897.222	718.815
269.424	22.597	896.313	718.331
270.439	22.763	895.783	718.516
271.453	22.842	895.307	718.391
272.468	22.768	894.664	717.514
273.482	22.980	894.341	718.050
274.497	23.188	893.589	718.228
275.512	22.930	892.361	716.134
276.526	22.334	891.116	712.658
277.541	22.514	890.607	712.914
278.555	22.945	890.794	714.744
279.570	22.795	889.683	713.186
280.585	22.679	888.497	711.702
281.599	22.773	888.497	712.020
282.614	22.881	888.150	712.112
283.628	22.366	886.960	709.023
284.643	21.927	886.123	706.524
285.657	22.435	885.931	708.353
286.672	22.145	885.710	706.945
287.687	21.853	884.061	704.394
288.701	22.204	884.068	705.745
289.716	22.568	883.910	707.018
290.730	22.226	882.913	704.788
291.745	22.067	882.097	703.437
292.760	21.910	881.166	702.005
293.774	21.805	880.692	701.147
294.789	22.606	881.243	704.725
295.803	23.280	881.333	707.430
296.818	23.360	880.187	706.767
297.833	23.422	880.045	706.835
298.847	23.211	878.648	704.814
299.862	22.964	878.108	703.333
300.876	23.017	877.442	702.949
301.891	23.307	877.383	703.990
302.906	23.380	876.812	703.762
303.920	23.101	875.516	701.550
304.935	22.907	874.704	700.070
305.949	23.132	874.822	700.995
306.964	23.295	874.045	700.955
307.979	23.102	873.533	699.721
308.993	23.144	872.939	699.348
310.008	23.258	872.845	699.662
311.022	23.568	872.132	700.250
312.037	23.465	871.346	699.151
313.052	23.141	870.949	697.493
314.066	23.024	870.037	696.240
315.081	22.499	868.402	692.806
316.095	21.654	867.237	688.496
317.110	22.227	867.387	690.805
318.125	23.047	867.501	694.055
319.139	22.657	866.833	691.931
320.154	21.495	864.980	685.839
321.168	21.119	863.871	683.427
322.183	21.781	863.838	685.931
323.197	22.443	864.569	689.042
324.212	22.928	864.375	690.724
325.227	23.020	864.016	690.735
326.241	23.240	863.499	691.117
327.256	23.072	862.621	689.699
328.270	23.059	861.677	688.834
329.285	22.969	861.280	688.105
330.300	22.779	860.619	686.775
331.314	22.669	859.624	685.493
332.329	22.629	859.122	684.879
333.343	23.004	858.642	685.889
334.358	23.249	858.733	686.854
335.373	23.171	857.693	685.660
336.387	23.307	857.642	686.084
337.402	23.507	857.029	686.308
338.416	23.757	856.514	686.800
339.431	23.693	855.770	685.897
340.446	23.625	855.606	685.439
341.460	23.806	855.012	685.604
342.475	23.848	854.177	685.034
343.489	23.634	853.457	683.572
344.504	23.566	853.068	682.940
345.519	23.756	853.034	683.584
346.533	24.212	852.536	684.877
347.548	24.112	851.894	683.914
348.562	24.145	851.271	683.481
349.577	24.135	850.734	682.952
350.592	24.107	850.317	682.450
351.606	23.966	849.780	681.415
352.621	23.936	849.347	680.895
353.635	23.908	848.727	680.230
354.650	23.929	848.275	679.886
355.665	23.553	847.127	677.474
356.679	22.457	845.727	672.111
357.694	22.338	844.790	670.853
358.708	23.080	844.956	673.756
359.723	22.897	844.413	672.567
360.738	23.163	844.207	673.355
361.752	23.663	844.067	675.085
362.767	23.764	843.494	674.949
363.781	23.983	843.626	675.829
364.796	24.264	843.607	676.819
365.810	24.248	843.388	676.523
366.825	24.431	842.451	676.407
367.840	24.415	842.250	676.124
368.854	24.382	841.453	675.302
369.869	23.873	840.494	672.544
370.883	23.677	839.896	671.268
371.898	23.855	839.438	671.514
372.913	23.551	838.788	669.785
373.927	23.584	838.170	669.359
374.942	23.859	837.500	669.801
375.956	23.963	837.150	669.851
376.971	23.965	836.780	669.506
377.986	24.221	836.067	669.838
379.000	24.216	835.751	669.506
380.015	24.427	834.868	669.533
381.029	24.245	834.437	668.444
382.044	24.066	833.956	667.330
383.059	24.305	833.281	667.626
384.073	24.324	832.701	667.174
385.088	24.344	832.273	666.843
386.102	24.249	832.092	666.286
387.117	24.176	830.954	665.044
388.132	24.024	830.400	663.973
389.146	23.956	829.750	663.142
390.161	23.334	828.888	660.079
391.175	23.397	828.727	660.127
392.190	23.943	828.362	661.808
393.205	23.982	827.983	661.592
394.219	23.051	826.225	656.673
395.234	21.638	823.596	649.291
396.248	20.711	822.893	645.242
397.263	21.655	823.784	649.387
398.278	23.456	825.292	657.202
399.292	24.129	824.948	659.360
400.307	23.770	824.258	657.422
401.321	23.561	823.770	656.204
402.336	23.603	823.424	656.025
403.350	23.955	823.442	657.281
404.365	24.519	823.257	659.157
405.380	24.609	823.031	659.252
406.394	24.876	822.750	659.953
407.409	24.890	822.519	659.762
408.423	25.032	821.822	659.664
409.438	24.967	821.134	658.816
410.453	24.839	820.922	658.116
411.467	25.047	820.683	658.633
412.482	24.982	819.860	657.676
413.496	25.083	818.926	657.239
414.511	25.004	819.119	657.043
415.526	25.197	818.102	656.879
416.540	24.976	818.051	655.968
417.555	24.993	817.419	655.465
418.569	24.758	816.561	653.862
419.584	24.650	816.006	652.963
420.599	24.732	815.574	652.862
421.613	144.721	1356.758	1752.095
422.628	125.792	1435.631	1752.223
