DTS Sentinel unit serial number:	SN413079Multiplexer serial number:	ORYXHardware model number:	OX4-SRSoftware version number:	ORYX F/W v4.00 Oryx Data Collector v3.7.2.0data status	okinstallation	princeton_trtdifferential loss correction	single-endedforward channel	channel 3reverse channel	N/Adate	2019/09/15time	07:24:35forward acquisition time	60.00reverse acquisition time	0.00gamma	496.2192k internal	0.2324k external	0.2324temperature offset calibration	0.9975default loss term (dB/km)	0.3790temperature slope calibration	1.0000multiplexer offset coefficient	1.0000multiplexer slope coefficient	1.0000fibre end	0.00T internal ref (°C)	30.56T ext. ref 1 (°C)	4.86T ext. ref 2 (°C)	25.79length (m)	temperature (°C)	Stokes	anti-Stokes-747.200	7.028	0.201	0.151
-746.185	689.097	0.066	-0.174
-745.171	-139.924	-0.211	-0.022
-744.156	-200.000	-0.047	0.294
-743.142	-8.631	-0.084	0.057
-742.127	-15.325	-0.137	0.088
-741.112	-58.966	0.205	0.089
-740.098	800.000	0.073	-0.212
-739.083	14.943	-0.067	-0.053
-738.069	-200.000	0.073	0.504
-737.054	-200.000	-0.221	0.001
-736.039	-200.000	0.022	-0.291
-735.025	-17.853	0.267	0.169
-734.010	112.718	-0.269	-0.329
-732.996	-200.000	0.074	-0.397
-731.981	410.415	-0.195	-0.418
-730.966	16.337	0.435	-0.346
-729.952	163.227	0.234	-0.333
-728.937	800.000	-0.084	0.315
-727.923	292.012	0.050	-0.093
-726.908	81.161	-0.488	-0.532
-725.894	-43.300	0.290	0.148
-724.879	388.946	-0.081	0.170
-723.864	-132.200	-0.361	-0.047
-722.850	110.878	-0.165	0.201
-721.835	-200.000	-0.010	-0.272
-720.821	295.009	-0.191	-0.353
-719.806	-134.293	0.265	0.033
-718.791	-200.000	0.016	-0.115
-717.777	394.425	-0.030	0.062
-716.762	-200.000	0.011	0.131
-715.748	122.830	0.257	0.324
-714.733	358.354	0.053	0.107
-713.718	-108.182	-0.230	-0.050
-712.704	452.496	0.117	0.261
-711.689	197.538	0.047	-0.073
-710.675	31.248	0.236	0.204
-709.660	-147.790	0.388	-0.033
-708.645	75.961	0.173	-0.184
-707.631	800.000	-0.078	-0.261
-706.616	-37.431	-0.144	-0.078
-705.602	-109.503	0.102	0.022
-704.587	29.800	0.059	0.050
-703.572	185.811	0.233	-0.349
-702.558	466.975	-0.025	0.057
-701.543	-66.831	0.090	0.036
-700.529	490.185	-0.081	0.187
-699.514	205.874	0.134	0.211
-698.499	-31.155	0.115	0.065
-697.485	-69.155	-0.199	-0.077
-696.470	-12.707	0.086	-0.057
-695.456	731.804	0.073	0.197
-694.441	1.901	0.085	0.062
-693.426	-200.000	-0.035	-0.206
-692.412	-41.108	-0.155	-0.081
-691.397	-86.870	-0.274	-0.084
-690.383	-200.000	-0.048	0.238
-689.368	308.913	0.075	0.142
-688.354	800.000	-0.021	0.058
-687.339	157.135	-0.040	0.055
-686.324	85.178	-0.313	-0.346
-685.310	-134.201	-0.118	-0.015
-684.295	-111.223	0.278	-0.057
-683.281	-106.126	-0.366	-0.083
-682.266	139.495	-0.116	0.154
-681.251	-62.696	-0.326	0.136
-680.237	59.774	-0.081	-0.081
-679.222	-101.805	-0.398	-0.097
-678.208	61.201	0.114	0.115
-677.193	516.059	0.143	-0.336
-676.178	-11.445	0.119	0.079
-675.164	182.980	-0.095	0.142
-674.149	-200.000	-0.034	0.168
-673.135	-200.000	-0.008	-0.133
-672.120	-21.740	0.250	-0.153
-671.105	58.623	0.214	-0.211
-670.091	-56.227	0.022	0.010
-669.076	333.970	0.049	-0.096
-668.062	-185.413	0.168	-0.003
-667.047	-52.009	-0.250	0.117
-666.032	-200.000	0.010	0.266
-665.018	-164.873	0.302	0.014
-664.003	-89.016	-0.151	0.045
-662.989	105.468	0.061	0.073
-661.974	800.000	-0.029	0.128
-660.959	-61.996	-0.103	0.043
-659.945	25.460	-0.119	-0.100
-658.930	45.216	0.169	-0.157
-657.916	-120.110	0.110	-0.019
-656.901	-92.455	0.380	0.107
-655.886	800.000	-0.064	-0.223
-654.872	-200.000	-0.002	-0.209
-653.857	-200.000	0.072	0.429
-652.843	-200.000	-0.028	-0.167
-651.828	19.429	0.198	-0.160
-650.814	-134.870	0.131	0.016
-649.799	800.000	-0.059	-0.186
-648.784	-200.000	-0.114	-0.517
-647.770	800.000	0.076	-0.288
-646.755	32.338	-0.215	-0.187
-645.741	-200.000	-0.015	0.161
-644.726	-12.216	-0.213	0.140
-643.711	17.274	0.307	0.245
-642.697	384.901	-0.091	-0.189
-641.682	747.042	0.120	0.324
-640.668	77.057	-0.113	-0.121
-639.653	-200.000	0.008	-0.074
-638.638	-162.860	0.125	-0.006
-637.624	-200.000	-0.016	-0.263
-636.609	82.802	-0.134	-0.147
-635.595	9.404	-0.106	0.080
-634.580	-54.767	0.121	-0.055
-633.565	-200.000	0.040	-0.247
-632.551	-200.000	-0.061	-0.288
-631.536	343.596	-0.025	-0.049
-630.522	73.469	0.055	-0.058
-629.507	800.000	0.052	-0.194
-628.492	-63.072	-0.363	0.151
-627.478	-17.791	-0.269	0.170
-626.463	348.008	0.108	0.214
-625.449	-200.000	-0.018	0.251
-624.434	800.000	-0.134	-0.420
-623.419	253.927	-0.082	0.142
-622.405	-200.000	0.026	0.402
-621.390	-97.020	-0.343	0.090
-620.376	91.805	0.172	0.194
-619.361	-38.055	-0.354	-0.189
-618.346	-36.264	0.019	-0.010
-617.332	-50.374	-0.276	-0.131
-616.317	800.000	0.054	0.234
-615.303	67.150	-0.140	0.143
-614.288	-61.565	0.192	0.081
-613.273	790.558	-0.112	0.309
-612.259	-112.043	0.248	-0.050
-611.244	-26.672	-0.269	0.158
-610.230	-52.928	-0.165	0.076
-609.215	-200.000	0.051	-0.350
-608.201	252.694	0.079	-0.135
-607.186	-26.857	0.234	-0.137
-606.171	-200.000	-0.068	-0.327
-605.157	11.458	-0.106	-0.081
-604.142	-22.843	-0.395	0.239
-603.128	132.879	-0.203	0.263
-602.113	4.326	0.112	-0.082
-601.098	800.000	-0.042	-0.126
-600.084	160.755	0.084	-0.118
-599.069	72.947	0.141	-0.148
-598.055	-200.000	0.045	0.356
-597.040	-163.335	-0.187	-0.009
-596.025	-142.938	0.073	0.007
-595.011	679.800	0.031	-0.080
-593.996	34.582	-0.232	0.204
-592.982	-48.732	0.120	0.058
-591.967	-200.000	-0.037	0.252
-590.952	-24.058	-0.161	0.097
-589.938	34.828	-0.274	0.241
-588.923	141.719	0.256	-0.341
-587.909	-163.221	-0.153	0.007
-586.894	292.374	-0.047	0.085
-585.879	-131.901	-0.019	0.002
-584.865	15.447	-0.120	0.094
-583.850	-30.553	0.259	0.147
-582.836	-12.902	-0.040	0.026
-581.821	-35.008	-0.367	0.201
-580.806	-67.461	-0.158	-0.062
-579.792	-156.926	0.124	-0.008
-578.777	160.987	0.252	-0.353
-577.763	34.537	-0.176	0.154
-576.748	-200.000	-0.001	0.199
-575.733	-170.602	-0.289	0.010
-574.719	59.232	0.235	-0.232
-573.704	-26.029	-0.166	-0.098
-572.690	-66.342	-0.263	-0.105
-571.675	209.535	0.060	0.094
-570.661	-88.351	-0.262	-0.079
-569.646	152.272	-0.263	-0.359
-568.631	-3.455	0.079	-0.055
-567.617	-43.339	0.195	0.099
-566.602	405.885	0.075	-0.158
-565.588	344.517	-0.141	-0.278
-564.573	93.575	0.225	-0.256
-563.558	138.190	0.231	-0.304
-562.544	251.326	0.149	-0.253
-561.529	314.822	0.033	0.063
-560.515	413.000	-0.074	-0.157
-559.500	-92.365	0.072	0.020
-558.485	258.202	-0.070	0.122
-557.471	153.980	-0.057	0.078
-556.456	224.888	0.196	0.317
-555.442	118.087	-0.020	-0.024
-554.427	-92.512	-0.285	-0.080
-553.412	309.194	0.063	0.118
-552.398	-56.759	-0.129	-0.057
-551.383	-200.000	-0.031	0.256
-550.369	-89.618	-0.180	-0.053
-549.354	88.133	0.248	-0.276
-548.339	-112.687	-0.178	0.035
-547.325	-76.975	0.183	-0.064
-546.310	-62.526	0.207	0.086
-545.296	-200.000	-0.033	-0.324
-544.281	15.200	0.201	0.158
-543.266	-200.000	-0.035	0.244
-542.252	-6.737	0.317	-0.216
-541.237	226.226	0.168	-0.273
-540.223	-127.516	-0.199	-0.029
-539.208	45.381	-0.078	-0.072
-538.193	410.013	-0.195	0.414
-537.179	59.773	0.161	-0.159
-536.164	800.000	-0.045	-0.192
-535.150	-76.474	0.064	-0.023
-534.135	-86.657	-0.164	0.050
-533.121	-76.043	-0.202	0.071
-532.106	-43.642	0.239	-0.120
-531.091	31.109	0.059	-0.051
-530.077	317.676	-0.087	-0.165
-529.062	-86.435	0.086	-0.026
-528.048	95.521	0.031	0.035
-527.033	-200.000	-0.003	-0.033
-526.018	204.859	-0.125	-0.194
-525.004	-200.000	0.065	0.289
-523.989	-200.000	0.050	0.234
-522.975	-200.000	-0.021	-0.357
-521.960	-77.949	0.491	-0.169
-520.945	-200.000	-0.023	0.135
-519.931	800.000	-0.072	-0.234
-518.916	343.840	-0.110	-0.215
-517.902	-54.686	-0.300	-0.136
-516.887	4.276	-0.160	0.117
-515.872	45.433	0.151	-0.139
-514.858	-58.737	0.165	-0.071
-513.843	-18.812	-0.186	0.116
-512.829	-63.856	0.166	0.068
-511.814	-150.073	-0.207	0.016
-510.799	-49.972	0.086	0.041
-509.785	800.000	0.064	0.179
-508.770	-61.237	0.413	0.174
-507.756	125.934	0.113	-0.142
-506.741	102.087	-0.154	0.180
-505.726	248.135	-0.092	0.156
-504.712	-43.031	0.169	0.086
-503.697	-77.070	0.361	-0.126
-502.683	21.885	-0.087	-0.071
-501.668	-84.765	0.168	0.053
-500.653	203.388	0.043	-0.067
-499.639	138.636	0.045	-0.059
-498.624	-200.000	0.039	0.223
-497.610	91.105	-0.183	0.206
-496.595	-163.110	0.275	-0.013
-495.581	172.728	-0.220	-0.317
-494.566	-173.783	-0.361	-0.011
-493.551	-95.259	-0.340	-0.092
-492.537	-200.000	0.031	0.273
-491.522	-200.000	0.012	-0.179
-490.508	-133.188	-0.386	0.049
-489.493	348.654	0.058	0.115
-488.478	61.078	0.087	-0.086
-487.464	-144.972	0.424	0.039
-486.449	-172.399	0.335	0.011
-485.435	-200.000	0.031	0.189
-484.420	191.396	0.282	-0.424
-483.405	-48.449	-0.247	-0.119
-482.391	-63.980	0.305	-0.124
-481.376	-200.000	-0.039	0.212
-480.362	800.000	0.070	0.238
-479.347	599.129	0.095	0.237
-478.332	-77.265	0.233	0.081
-477.318	180.918	0.163	-0.239
-476.303	-200.000	-0.018	0.135
-475.289	-100.988	-0.121	-0.030
-474.274	94.767	-0.167	0.190
-473.259	-200.000	-0.049	-0.323
-472.245	-200.000	0.025	-0.160
-471.230	-175.638	-0.069	0.002
-470.216	595.612	-0.081	-0.201
-469.201	-43.370	-0.153	0.077
-468.186	-62.474	-0.285	-0.118
-467.172	2.536	-0.208	-0.151
-466.157	90.537	-0.315	-0.353
-465.143	21.706	-0.033	-0.027
-464.128	-78.232	-0.525	-0.180
-463.113	-35.287	-0.187	0.102
-462.099	-127.212	0.074	0.011
-461.084	-4.168	0.099	0.069
-460.070	22.095	0.263	0.214
-459.055	169.089	0.088	0.126
-458.040	-113.332	-0.241	-0.047
-457.026	64.852	0.063	-0.063
-456.011	229.497	0.125	0.204
-454.997	-8.577	0.080	-0.053
-453.982	-49.622	-0.077	0.037
-452.968	-133.600	0.028	-0.003
-451.953	-200.000	-0.020	0.177
-450.938	-109.797	0.216	-0.045
-449.924	-73.332	0.282	-0.103
-448.909	632.460	0.175	0.443
-447.895	560.860	-0.096	0.231
-446.880	79.641	-0.074	-0.080
-445.865	-144.829	0.163	-0.015
-444.851	690.414	0.107	-0.280
-443.836	800.000	0.013	0.052
-442.822	627.030	0.091	-0.230
-441.807	138.832	-0.201	-0.263
-440.792	-200.000	-0.005	-0.056
-439.778	339.889	0.090	0.175
-438.763	-18.976	-0.214	0.133
-437.749	-200.000	0.041	0.316
-436.734	-168.451	-0.243	-0.009
-435.719	179.569	0.215	0.314
-434.705	-198.766	-0.121	-0.001
-433.690	416.177	0.085	0.181
-432.676	93.806	-0.200	-0.226
-431.661	-200.000	-0.012	0.216
-430.646	209.369	-0.023	-0.037
-429.632	-179.692	-0.224	0.005
-428.617	69.198	0.327	-0.335
-427.603	-51.881	0.433	-0.201
-426.588	-200.000	-0.007	-0.260
-425.573	-200.000	0.020	-0.245
-424.559	72.002	0.151	0.157
-423.544	-200.000	0.080	0.493
-422.530	-119.585	0.330	-0.057
-421.515	-30.414	-0.115	-0.065
-420.500	800.000	0.030	-0.126
-419.486	187.984	-0.126	0.187
-418.471	-200.000	0.034	0.178
-417.457	72.474	-0.194	0.202
-416.442	800.000	0.033	-0.128
-415.428	-69.267	0.232	-0.089
-414.413	-154.292	0.293	-0.020
-413.398	203.335	0.095	0.147
-412.384	-200.000	-0.040	-0.270
-411.369	306.544	-0.111	0.207
-410.355	-64.874	-0.191	-0.077
-409.340	800.000	0.049	-0.194
-408.325	-200.000	0.049	0.264
-407.311	97.261	-0.138	0.158
-406.296	-8.924	-0.060	-0.040
-405.282	-74.358	-0.146	-0.052
-404.267	-103.688	-0.080	-0.019
-403.252	-32.628	-0.185	-0.103
-402.238	-109.364	0.171	-0.036
-401.223	122.072	-0.055	0.069
-400.209	800.000	0.049	-0.161
-399.194	197.894	-0.188	-0.286
-398.179	-26.262	-0.070	0.041
-397.165	-200.000	0.000	-0.245
-396.150	-161.461	-0.117	0.006
-395.136	-200.000	0.001	-0.049
-394.121	-120.295	-0.017	0.003
-393.106	-200.000	-0.011	-0.173
-392.092	-16.704	0.354	-0.223
-391.077	800.000	0.026	-0.107
-390.063	-21.111	0.113	-0.069
-389.048	-200.000	-0.008	0.200
-388.033	287.302	-0.044	-0.079
-387.019	677.875	0.082	-0.213
-386.004	-200.000	0.019	0.144
-384.990	800.000	0.080	0.276
-383.975	-44.814	0.152	0.075
-382.960	-200.000	0.001	0.023
-381.946	-160.570	-0.401	-0.021
-380.931	-22.973	0.402	-0.242
-379.917	-33.833	-0.313	0.172
-378.902	-18.002	0.061	-0.038
-377.888	-200.000	-0.031	-0.202
-376.873	-200.000	-0.036	-0.220
-375.858	800.000	-0.050	0.151
-374.844	140.459	-0.040	0.052
-373.829	100.902	-0.203	0.235
-372.815	-0.784	-0.182	-0.128
-371.800	-200.000	0.022	-0.256
-370.785	-28.381	-0.233	0.134
-369.771	-178.793	-0.265	0.006
-368.756	-171.587	0.096	-0.003
-367.742	-123.878	0.315	-0.049
-366.727	-26.045	-0.132	-0.077
-365.712	-122.969	0.216	-0.035
-364.698	-88.018	0.319	-0.095
-363.683	-149.902	-0.026	-0.002
-362.669	-39.371	-0.259	0.135
-361.654	369.744	-0.157	0.316
-360.639	112.173	0.117	-0.141
-359.625	-66.041	-0.281	-0.112
-358.610	303.553	0.054	0.099
-357.596	-80.414	0.134	-0.045
-356.581	-160.403	-0.195	-0.010
-355.566	657.300	0.027	-0.070
-354.552	-134.721	0.059	-0.007
-353.537	-6.411	0.048	0.032
-352.523	-200.000	0.035	0.267
-351.508	-108.855	-0.158	-0.034
-350.493	13.356	0.102	0.079
-349.479	-44.713	0.323	0.160
-348.464	-151.027	-0.050	-0.004
-347.450	21.135	0.212	0.171
-346.435	158.074	0.170	0.234
-345.420	-83.193	-0.299	0.096
-344.406	800.000	-0.075	-0.308
-343.391	297.196	-0.080	0.145
-342.377	169.607	-0.098	0.140
-341.362	-75.117	-0.275	0.098
-340.348	800.000	-0.097	-0.328
-339.333	-98.997	0.051	-0.013
-338.318	47.015	0.075	-0.070
-337.304	-200.000	-0.096	0.476
-336.289	-40.417	0.136	-0.070
-335.275	-68.554	0.264	-0.102
-334.260	-75.282	-0.216	-0.077
-333.245	-177.946	-0.260	-0.006
-332.231	-200.000	-0.008	-0.068
-331.216	25.881	0.293	0.242
-330.202	-26.142	0.108	0.063
-329.187	-200.000	-0.041	-0.208
-328.172	-41.606	0.103	0.052
-327.158	565.413	-0.108	0.259
-326.143	-200.000	0.022	0.189
-325.129	-140.029	0.345	0.036
-324.114	-200.000	-0.002	-0.196
-323.099	-75.819	0.054	-0.019
-322.085	-33.908	0.147	-0.080
-321.070	76.041	-0.169	0.178
-320.056	-200.000	-0.042	-0.292
-319.041	-73.388	0.096	-0.035
-318.026	91.774	0.120	-0.134
-317.012	13.501	-0.067	-0.051
-315.997	298.529	-0.054	-0.098
-314.983	-88.794	0.357	-0.105
-313.968	-200.000	0.003	-0.230
-312.953	14.161	0.178	0.138
-311.939	535.195	-0.063	0.147
-310.924	-50.571	0.362	-0.169
-309.910	-200.000	0.013	0.420
-308.895	-59.635	0.311	0.132
-307.880	-100.631	0.220	-0.054
-306.866	-82.884	-0.208	-0.067
-305.851	-62.381	0.341	0.141
-304.837	-151.960	-0.083	0.006
-303.822	82.206	0.157	-0.169
-302.807	123.933	0.235	-0.293
-301.793	3.708	-0.082	0.059
-300.778	62.148	-0.091	0.090
-299.764	71.503	-0.188	0.194
-298.749	-49.296	0.368	0.174
-297.735	88.300	0.211	-0.233
-296.720	-200.000	-0.011	0.050
-295.705	-200.000	-0.068	0.399
-294.691	-200.000	0.025	0.170
-293.676	-124.738	0.217	0.033
-292.662	-113.876	-0.129	0.025
-291.647	-50.176	-0.308	0.145
-290.632	622.777	-0.127	-0.317
-289.618	800.000	0.051	0.153
-288.603	-200.000	-0.015	0.098
-287.589	95.514	0.084	-0.095
-286.574	612.569	0.073	-0.181
-285.559	-89.767	0.179	-0.052
-284.545	-80.595	-0.194	-0.064
-283.530	347.721	-0.208	0.406
-282.516	800.000	-0.122	0.356
-281.501	40.567	0.186	-0.166
-280.486	47.370	-0.273	-0.252
-279.472	-60.379	-0.134	0.056
-278.457	-180.462	0.018	-0.000
-277.443	-106.083	-0.154	-0.034
-276.428	713.719	0.111	0.291
-275.413	-71.087	0.180	-0.067
-274.399	49.313	-0.301	0.280
-273.384	18.186	0.148	0.117
-272.370	-64.610	-0.125	-0.050
-271.355	305.092	-0.113	-0.208
-270.340	143.006	-0.069	0.091
-269.326	522.554	-0.039	-0.091
-268.311	-110.253	0.159	-0.033
-267.297	-56.093	0.093	0.041
-266.282	-79.328	0.465	0.156
-265.267	702.485	-0.037	0.097
-264.253	-70.529	0.285	-0.107
-263.238	26.793	-0.194	-0.161
-262.224	-156.946	0.138	-0.008
-261.209	-130.042	0.191	0.026
-260.195	-181.525	0.088	0.002
-259.180	-87.288	-0.114	0.034
-258.165	800.000	-0.076	0.271
-257.151	133.022	0.119	0.152
-256.136	-53.957	0.163	0.074
-255.122	255.810	-0.231	-0.392
-254.107	103.038	-0.056	-0.065
-253.092	29.978	-0.051	-0.043
-252.078	800.000	0.065	0.243
-251.063	-3.548	0.117	0.081
-250.049	-200.000	0.035	0.292
-249.034	-38.356	-0.151	-0.079
-248.019	-53.257	0.197	0.089
-247.005	-59.417	0.095	-0.040
-245.990	-104.221	0.213	0.049
-244.976	-200.000	0.009	0.241
-243.961	147.641	-0.110	-0.146
-242.946	-42.242	0.173	0.088
-241.932	-51.193	0.318	-0.148
-240.917	-107.165	-0.072	0.016
-239.903	-94.577	0.221	0.060
-238.888	-24.521	-0.088	0.052
-237.873	30.362	0.103	-0.087
-236.859	-144.008	0.451	0.042
-235.844	447.917	0.100	0.218
-234.830	250.349	-0.148	-0.248
-233.815	-187.180	0.192	0.003
-232.800	-21.829	0.354	-0.213
-231.786	-51.745	-0.346	-0.160
-230.771	-200.000	-0.004	-0.181
-229.757	-162.744	0.265	-0.013
-228.742	-170.602	0.352	-0.012
-227.727	103.773	-0.179	0.208
-226.713	25.570	0.205	-0.169
-225.698	245.830	-0.031	-0.051
-224.684	35.248	-0.046	-0.040
-223.669	-175.637	-0.197	-0.005
-222.655	-62.460	0.280	0.115
-221.640	82.446	-0.106	-0.114
-220.625	800.000	-0.130	0.445
-219.611	-111.190	-0.302	-0.061
-218.596	-31.874	-0.187	-0.103
-217.582	800.000	-0.030	0.089
-216.567	-74.213	-0.168	0.060
-215.552	-200.000	-0.028	0.307
-214.538	-200.000	0.066	0.304
-213.523	-28.994	-0.427	0.242
-212.509	-171.975	0.271	0.009
-211.494	800.000	-0.047	0.155
-210.479	307.559	-0.050	-0.093
-209.465	187.874	-0.055	-0.081
-208.450	800.000	-0.045	0.133
-207.436	-200.000	0.062	-0.373
-206.421	-135.410	-0.239	-0.028
-205.406	93.205	-0.097	0.108
-204.392	-200.000	0.124	0.543
-203.377	51.391	0.186	-0.175
-202.363	-179.398	0.220	-0.005
-201.348	-91.386	-0.111	0.031
-200.333	-95.121	-0.193	-0.052
-199.319	-200.000	-0.003	-0.102
-198.304	172.761	-0.108	-0.154
-197.290	272.816	0.087	0.151
-196.275	800.000	-0.110	-0.410
-195.260	-4.984	0.007	-0.005
-194.246	13.649	-0.289	0.222
-193.231	21.648	0.211	0.169
-192.217	241.285	0.134	0.221
-191.202	443.756	-0.046	0.100
-190.187	-200.000	-0.007	-0.074
-189.173	-1.839	-0.174	-0.121
-188.158	-200.000	0.022	-0.173
-187.144	-35.102	0.336	0.181
-186.129	173.239	-0.090	-0.128
-185.114	331.177	0.098	0.186
-184.100	364.587	-0.118	0.235
-183.085	287.000	-0.163	0.290
-182.071	800.000	0.076	-0.226
-181.056	-48.114	-0.074	-0.035
-180.042	800.000	0.051	-0.189
-179.027	376.923	0.105	-0.213
-178.012	531.226	-0.046	-0.108
-176.998	800.000	-0.083	-0.234
-175.983	0.740	-0.193	-0.136
-174.969	561.423	-0.004	0.009
-173.954	230.928	-0.055	-0.090
-172.939	373.873	-0.064	0.129
-171.925	-200.000	0.007	-0.099
-170.910	-200.000	-0.051	-0.263
-169.896	-38.547	-0.159	-0.083
-168.881	767.101	-0.048	0.130
-167.866	148.926	-0.203	0.271
-166.852	249.447	0.046	-0.077
-165.837	-200.000	-0.034	0.250
-164.823	76.956	0.220	0.230
-163.808	50.858	0.229	-0.215
-162.793	-200.000	0.015	0.144
-161.779	25.975	-0.051	-0.042
-160.764	-31.673	-0.346	0.192
-159.750	-9.545	0.166	0.109
-158.735	451.933	-0.068	-0.148
-157.720	-171.629	-0.202	-0.007
-156.706	-200.000	0.032	-0.147
-155.691	-200.000	0.177	-0.000
-154.677	13.141	0.129	0.098
-153.662	-84.451	-0.151	0.047
-152.647	10.725	0.074	-0.056
-151.633	-4.940	-0.332	-0.225
-150.618	-94.064	0.122	-0.033
-149.604	97.376	-0.023	0.026
-148.589	-113.011	-0.402	0.078
-147.574	-66.061	0.246	0.097
-146.560	-107.733	0.301	0.065
-145.545	-61.274	-0.121	0.050
-144.531	-140.763	0.130	-0.013
-143.516	-170.789	-0.060	0.002
-142.502	18.094	0.178	0.140
-141.487	-31.355	-0.061	0.034
-140.472	-158.374	0.152	0.009
-139.458	218.745	-0.205	0.323
-138.443	20.082	0.203	0.161
-137.429	-85.438	0.091	-0.028
-136.414	180.522	0.221	-0.319
-135.399	441.409	0.132	-0.285
-134.385	-43.986	-0.095	-0.047
-133.370	490.635	0.116	0.262
-132.356	-77.357	0.307	-0.105
-131.341	-41.432	-0.061	0.031
-130.326	66.138	0.078	0.078
-129.312	147.059	-0.185	-0.245
-128.297	430.000	0.099	-0.211
-127.283	-120.356	0.258	-0.043
-126.268	3.047	-0.128	0.091
-125.253	99.907	-0.073	-0.084
-124.239	-108.278	0.263	-0.056
-123.224	-49.221	0.146	0.069
-122.210	155.704	-0.173	-0.235
-121.195	-84.919	-0.317	-0.098
-120.180	-55.970	-0.071	-0.031
-119.166	-200.000	-0.002	-0.020
-118.151	-200.000	0.059	0.291
-117.137	88.968	-0.136	0.149
-116.122	-59.636	0.210	0.089
-115.107	-109.576	-0.218	0.045
-114.093	800.000	0.064	-0.201
-113.078	800.000	-0.058	0.191
-112.064	-142.227	0.180	0.018
-111.049	800.000	-0.065	0.188
-110.034	-145.623	-0.206	0.018
-109.020	-32.399	0.528	0.290
-108.005	-200.000	-0.040	0.227
-106.991	624.504	0.122	0.302
-105.976	-49.304	0.204	0.096
-104.962	736.730	0.110	0.291
-103.947	730.484	0.034	-0.090
-102.932	-177.688	-0.191	0.005
-101.918	-26.220	-0.175	-0.101
-100.903	-24.419	0.266	-0.156
-99.889	30.709	-0.289	-0.243
-98.874	-136.894	-0.289	-0.033
-97.859	-97.206	-0.313	-0.081
-96.845	800.000	-0.043	-0.144
-95.830	-65.012	-0.145	-0.058
-94.816	-34.936	0.111	0.060
-93.801	-60.285	0.214	0.090
-92.786	-23.024	-0.220	-0.131
-91.772	171.750	-0.181	0.257
-90.757	118.718	-0.119	0.144
-89.743	20.518	-0.105	0.083
-88.728	-155.039	-0.110	0.007
-87.713	556.794	0.069	0.163
-86.699	-96.512	0.319	0.083
-85.684	36.767	-0.055	0.048
-84.670	98.707	0.150	0.171
-83.655	-137.105	0.178	0.020
-82.640	33.852	-0.132	0.113
-81.626	800.000	-0.021	0.065
-80.611	-200.000	-0.005	0.111
-79.597	-31.559	-0.233	0.129
-78.582	-200.000	0.083	0.410
-77.567	800.000	-0.034	-0.109
-76.553	-128.978	0.263	0.036
-75.538	-63.316	0.095	0.039
-74.524	12.101	0.061	-0.046
-73.509	-181.822	-0.170	-0.003
-72.494	-138.390	0.191	-0.021
-71.480	407.760	-0.169	-0.351
-70.465	-47.641	-0.129	-0.061
-69.451	-200.000	-0.011	-0.081
-68.436	130.583	-0.132	-0.166
-67.422	596.037	0.113	0.275
-66.407	-200.000	-0.004	0.214
-65.392	-200.000	0.008	-0.090
-64.378	234.091	0.090	-0.146
-63.363	605.338	0.210	0.514
-62.349	-66.711	0.284	0.111
-61.334	42.599	-0.921	-0.824
-60.319	427.870	0.313	0.663
-59.305	800.000	-0.294	-1.051
-58.290	71.828	0.842	0.861
-57.276	314.228	0.740	1.370
-56.261	-200.000	102.301	596.597
-55.246	558.586	1435.284	3403.540
-54.232	186.807	2624.490	3842.292
-53.217	116.360	2169.536	2613.097
-52.203	41.342	1697.710	1508.897
-51.188	33.746	1506.841	1287.910
-50.173	31.288	1479.789	1248.333
-49.159	52.171	1533.090	1435.890
-48.144	53.000	1550.496	1457.776
-47.130	33.900	1507.572	1289.375
-46.115	30.839	1492.766	1256.054
-45.100	30.576	1489.659	1251.620
-44.086	30.514	1487.719	1249.524
-43.071	30.509	1485.564	1247.628
-42.057	30.598	1483.503	1246.441
-41.042	30.622	1481.990	1245.289
-40.027	30.490	1481.213	1243.700
-39.013	30.561	1479.532	1242.716
-37.998	30.522	1478.640	1241.654
-36.984	30.583	1476.900	1240.549
-35.969	30.547	1475.535	1239.117
-34.954	30.585	1474.020	1238.048
-33.940	30.562	1472.468	1236.537
-32.925	30.638	1471.423	1236.122
-31.911	30.568	1469.995	1234.405
-30.896	30.638	1469.215	1234.167
-29.881	30.665	1467.558	1232.907
-28.867	30.638	1466.354	1231.664
-27.852	30.579	1464.742	1229.876
-26.838	30.654	1463.481	1229.262
-25.823	30.582	1462.136	1227.607
-24.809	30.543	1460.522	1225.948
-23.794	30.690	1459.263	1225.808
-22.779	30.638	1458.179	1224.509
-21.765	30.609	1456.936	1223.227
-20.750	30.566	1456.327	1222.380
-19.736	30.554	1455.061	1221.191
-18.721	30.552	1453.796	1220.071
-17.706	30.511	1452.727	1218.853
-16.692	30.553	1450.915	1217.563
-15.677	30.427	1450.223	1216.103
-14.663	30.556	1449.287	1216.118
-13.648	30.624	1448.435	1215.796
-12.633	30.613	1447.025	1214.493
-11.619	30.533	1446.734	1213.681
-10.604	30.524	1446.095	1213.033
-9.590	30.549	1444.711	1211.990
-8.575	30.551	1443.833	1211.222
-7.560	30.445	1443.226	1209.972
-6.546	30.521	1442.117	1209.487
-5.531	30.465	1441.609	1208.647
-4.517	30.432	1441.024	1207.896
-3.502	30.496	1439.787	1207.225
-2.487	30.546	1438.543	1206.460
-1.473	30.593	1437.786	1206.085
-0.458	30.538	1436.312	1204.440
0.556	29.432	1426.855	1194.160
1.571	26.465	1402.340	1154.640
2.586	23.247	1343.885	1086.692
3.600	21.473	1263.635	1011.462
4.615	20.134	1217.775	967.202
5.629	17.486	1162.294	908.935
6.644	10.711	1081.170	811.661
7.659	5.601	1043.377	758.520
8.673	5.078	1038.025	752.041
9.688	4.906	1034.813	748.823
10.702	4.785	1033.307	747.084
11.717	4.681	1031.038	744.880
12.731	6.685	1032.798	755.689
13.746	13.246	1042.226	794.132
14.761	18.158	1047.951	822.093
15.775	18.363	1047.467	822.629
16.790	17.349	1045.258	815.957
17.804	16.317	1043.224	809.355
18.819	15.530	1041.104	803.870
19.834	15.005	1039.637	800.160
20.848	14.769	1038.603	798.166
21.863	14.484	1038.099	796.347
22.877	14.254	1037.186	794.478
23.892	14.078	1036.441	792.997
24.907	13.943	1035.817	791.806
25.921	14.017	1034.932	791.413
26.936	14.020	1034.378	790.931
27.950	14.094	1032.914	790.094
28.965	14.005	1032.670	789.416
29.980	14.153	1030.693	788.535
30.994	14.206	1029.757	788.001
32.009	14.231	1028.994	787.463
33.023	14.255	1028.776	787.343
34.038	14.385	1027.281	786.742
35.053	14.259	1026.507	785.484
36.067	14.150	1025.559	784.178
37.082	14.104	1024.907	783.390
38.096	14.206	1023.697	782.878
39.111	14.222	1023.338	782.609
40.126	14.257	1022.046	781.718
41.140	14.186	1021.262	780.715
42.155	14.021	1019.741	778.710
43.169	13.928	1019.112	777.726
44.184	13.836	1018.009	776.385
45.199	13.893	1016.999	775.811
46.213	14.022	1015.576	775.259
47.228	14.018	1015.077	774.790
48.242	14.132	1014.450	774.773
49.257	14.020	1013.504	773.465
50.271	14.210	1012.169	773.259
51.286	14.126	1011.614	772.375
52.301	14.170	1010.749	771.850
53.315	14.198	1009.789	771.178
54.330	14.056	1009.237	770.035
55.344	14.042	1008.274	769.166
56.359	13.963	1007.093	767.829
57.374	13.847	1006.672	766.907
58.388	14.001	1005.290	766.495
59.403	13.918	1004.729	765.618
60.417	13.916	1003.629	764.701
61.432	13.958	1003.119	764.439
62.447	13.961	1002.618	764.002
63.461	13.767	1001.780	762.405
64.476	13.689	1000.822	761.252
65.490	13.728	1000.306	760.973
66.505	13.736	999.089	760.012
67.520	13.850	998.019	759.656
68.534	13.797	997.726	759.122
69.549	13.895	996.780	758.782
70.563	13.901	995.894	758.071
71.578	13.920	995.351	757.676
72.593	13.810	994.623	756.554
73.607	13.777	993.406	755.410
74.622	13.774	992.349	754.526
75.636	13.716	991.844	753.810
76.651	13.766	990.744	753.137
77.666	13.679	990.695	752.635
78.680	13.712	989.335	751.687
79.695	13.799	989.177	751.892
80.709	13.790	988.533	751.297
81.724	13.821	987.690	750.728
82.739	14.039	986.604	750.823
83.753	13.984	986.118	750.138
84.768	14.027	985.499	749.795
85.782	14.192	984.717	749.878
86.797	14.226	984.249	749.607
87.812	14.282	983.388	749.139
88.826	14.246	982.213	748.014
89.841	14.053	982.003	746.921
90.855	14.213	981.124	746.904
91.870	14.248	980.029	746.162
92.884	14.161	979.577	745.363
93.899	14.328	978.531	745.248
94.914	14.231	977.809	744.199
95.928	14.214	977.483	743.808
96.943	14.425	976.335	743.811
97.957	14.367	975.737	743.032
98.972	14.065	975.212	741.221
99.987	14.134	974.394	740.838
101.001	14.115	973.863	740.287
102.016	14.245	973.101	740.218
103.030	14.265	971.618	739.111
104.045	14.243	970.707	738.256
105.060	14.274	969.742	737.594
106.074	14.150	968.887	736.333
107.089	14.226	967.952	735.890
108.103	13.982	967.518	734.417
109.118	13.921	966.585	733.375
110.133	13.822	966.188	732.571
111.147	13.993	964.730	732.155
112.162	13.917	963.871	731.106
113.176	14.013	962.742	730.606
114.191	14.083	962.137	730.387
115.206	14.005	961.468	729.472
116.220	13.997	960.846	728.902
117.235	14.023	959.894	728.231
118.249	14.043	958.823	727.440
119.264	14.008	958.290	726.820
120.279	14.007	957.380	726.061
121.293	13.930	957.291	725.593
122.308	13.915	956.210	724.641
123.322	13.940	955.340	724.031
124.337	13.880	954.244	722.873
125.352	13.848	953.151	721.843
126.366	13.806	952.133	720.826
127.381	13.838	950.990	720.034
128.395	13.864	949.723	719.122
129.410	13.866	949.339	718.780
130.424	13.903	948.436	718.193
131.439	13.951	947.777	717.837
132.454	14.003	946.825	717.276
133.468	14.042	945.926	716.699
134.483	14.098	945.337	716.429
135.497	14.086	944.729	715.855
136.512	14.036	944.038	715.054
137.527	14.010	943.074	714.150
138.541	14.019	942.544	713.721
139.556	14.028	941.876	713.194
140.570	14.075	940.888	712.582
141.585	14.023	940.203	711.778
142.600	14.268	939.454	712.195
143.614	14.153	938.968	711.272
144.629	14.236	938.068	710.881
145.643	14.268	937.655	710.644
146.658	14.179	936.590	709.392
147.673	14.298	935.608	709.093
148.687	14.169	934.617	707.732
149.702	14.132	934.079	707.102
150.716	14.109	933.473	706.484
151.731	14.102	932.705	705.812
152.746	14.050	931.867	704.895
153.760	14.107	931.090	704.486
154.775	14.023	930.466	703.594
155.789	14.105	929.938	703.479
156.804	14.158	929.274	703.142
157.819	14.226	927.903	702.329
158.833	14.153	928.211	702.191
159.848	14.479	926.734	702.384
160.862	14.359	926.354	701.529
161.877	14.276	925.301	700.322
162.892	14.329	924.540	699.905
163.906	14.270	923.530	698.833
164.921	14.211	922.746	697.930
165.935	14.163	921.751	696.914
166.950	14.254	920.736	696.467
167.964	14.163	919.979	695.452
168.979	14.233	919.061	694.988
169.994	14.219	917.945	694.023
171.008	14.226	917.298	693.503
172.023	14.341	916.241	693.122
173.037	14.392	915.548	692.748
174.052	14.399	914.898	692.224
175.067	14.360	914.305	691.553
176.081	14.412	913.336	690.973
177.096	14.202	912.762	689.606
178.110	14.283	912.167	689.432
179.125	14.242	911.165	688.444
180.140	14.331	910.093	687.941
181.154	14.294	909.538	687.306
182.169	14.336	909.076	687.069
183.183	14.357	908.697	686.809
184.198	14.460	908.208	686.805
185.213	14.554	907.203	686.369
186.227	14.540	906.450	685.682
187.242	14.425	906.374	685.090
188.256	14.675	905.315	685.257
189.271	14.669	904.281	684.389
190.286	14.755	903.541	684.121
191.300	14.514	903.187	682.805
192.315	14.345	902.183	681.293
193.329	14.209	901.965	680.514
194.344	14.255	901.102	679.992
195.359	14.396	900.207	679.829
196.373	14.459	900.084	679.934
197.388	14.508	899.439	679.585
198.402	14.703	898.772	679.816
199.417	14.712	898.754	679.780
200.432	14.720	898.395	679.478
201.446	14.865	898.001	679.710
202.461	14.744	897.535	678.806
203.475	14.886	897.089	678.986
204.490	14.835	896.331	678.147
205.504	14.874	895.036	677.264
206.519	14.710	894.853	676.401
207.534	14.719	893.736	675.531
208.548	14.751	892.870	674.949
209.563	14.626	892.682	674.240
210.577	14.880	891.306	674.167
211.592	14.902	890.710	673.747
212.607	14.912	890.585	673.632
213.621	14.861	890.304	673.152
214.636	15.041	889.286	673.049
215.650	14.758	889.388	671.928
216.665	14.851	888.772	671.777
217.680	14.981	887.367	671.175
218.694	15.032	887.404	671.351
219.709	15.006	886.616	670.590
220.723	14.936	886.378	670.070
221.738	15.037	885.478	669.733
222.753	15.048	884.628	669.078
223.767	15.069	883.770	668.453
224.782	15.199	882.712	668.110
225.796	15.150	882.455	667.665
226.811	15.120	882.363	667.413
227.826	15.088	881.479	666.559
228.840	15.091	880.613	665.859
229.855	15.046	879.973	665.138
230.869	15.108	879.379	664.875
231.884	14.968	878.739	663.775
232.899	15.021	878.120	663.461
233.913	14.989	877.329	662.678
234.928	14.924	876.658	661.852
235.942	14.988	875.945	661.511
236.957	15.011	875.134	660.929
237.972	15.057	874.355	660.466
238.986	14.994	873.892	659.809
240.001	15.048	873.513	659.677
241.015	15.170	872.343	659.217
242.030	15.059	872.025	658.479
243.045	15.218	871.129	658.369
244.059	15.231	870.668	658.016
245.074	15.278	870.029	657.656
246.088	15.221	869.490	656.969
247.103	15.300	868.989	656.840
248.117	15.255	868.655	656.352
249.132	15.360	868.311	656.446
250.147	15.241	867.964	655.661
251.161	15.600	866.903	656.206
252.176	15.604	866.355	655.747
253.190	15.597	865.406	654.944
254.205	15.671	865.061	654.911
255.220	15.732	864.471	654.646
256.234	15.720	864.188	654.328
257.249	15.707	863.416	653.633
258.263	15.658	863.129	653.166
259.278	15.754	862.143	652.735
260.293	15.728	861.588	652.159
261.307	15.824	860.998	652.026
262.322	15.815	860.636	651.659
263.336	15.865	860.085	651.376
264.351	15.879	859.426	650.875
265.366	15.974	858.761	650.681
266.380	15.851	858.700	650.102
267.395	15.807	857.731	649.140
268.409	15.744	856.719	648.073
269.424	15.784	856.013	647.637
270.439	15.719	855.468	646.917
271.453	15.712	854.684	646.241
272.468	15.843	853.949	646.132
273.482	15.727	853.407	645.218
274.497	15.862	852.978	645.353
275.512	15.726	852.347	644.300
276.526	15.819	851.422	643.898
277.541	15.886	850.739	643.580
278.555	15.796	850.641	643.104
279.570	15.965	849.346	642.713
280.585	15.997	849.291	642.740
281.599	15.984	848.277	641.866
282.614	15.906	848.088	641.366
283.628	16.009	847.293	641.101
284.643	16.011	846.840	640.710
285.657	16.124	846.318	640.688
286.672	16.032	845.701	639.814
287.687	15.979	845.534	639.431
288.701	16.000	845.259	639.245
289.716	15.968	844.495	638.489
290.730	16.069	843.726	638.234
291.745	16.096	843.182	637.871
292.760	16.058	842.142	636.881
293.774	16.037	841.697	636.411
294.789	16.244	841.364	636.881
295.803	16.154	840.574	635.890
296.818	16.069	839.910	635.010
297.833	16.046	839.267	634.380
298.847	16.141	838.320	633.967
299.862	16.167	838.006	633.772
300.876	16.060	837.499	632.929
301.891	16.184	836.861	632.855
302.906	16.227	836.276	632.518
303.920	16.472	835.314	632.652
304.935	16.386	834.656	631.776
305.949	16.488	833.943	631.561
306.964	16.484	833.897	631.455
307.979	16.388	833.280	630.573
308.993	16.478	832.819	630.508
310.008	16.428	832.214	629.807
311.022	16.575	831.284	629.593
312.037	16.477	831.379	629.244
313.052	16.386	830.603	628.262
314.066	16.205	830.075	627.135
315.081	16.398	829.163	627.109
316.095	16.270	828.590	626.143
317.110	16.382	828.235	626.235
318.125	16.337	828.133	625.939
319.139	16.334	827.546	625.427
320.154	16.323	826.730	624.713
321.168	16.321	825.650	623.835
322.183	16.446	825.573	624.184
323.197	16.368	825.076	623.466
324.212	16.440	824.284	623.077
325.227	16.409	824.109	622.774
326.241	16.547	823.600	622.842
327.256	16.468	822.872	621.947
328.270	16.550	821.926	621.477
329.285	16.501	821.865	621.198
330.300	16.449	821.364	620.573
331.314	16.498	820.835	620.297
332.329	16.447	820.340	619.681
333.343	16.585	819.883	619.789
334.358	16.663	819.170	619.478
335.373	16.543	818.721	618.645
336.387	16.673	817.819	618.384
337.402	16.674	817.696	618.241
338.416	16.696	817.411	618.049
339.431	16.842	816.664	617.964
340.446	16.883	815.892	617.472
341.460	16.787	815.644	616.883
342.475	16.947	814.748	616.732
343.489	16.848	814.651	616.245
344.504	17.023	813.954	616.299
345.519	16.936	813.527	615.604
346.533	17.067	813.097	615.700
347.548	17.000	812.834	615.202
348.562	16.900	812.040	614.186
349.577	16.886	811.134	613.396
350.592	16.747	810.615	612.444
351.606	16.637	810.488	611.896
352.621	16.818	809.815	611.987
353.635	16.753	809.510	611.470
354.650	16.887	809.065	611.563
355.665	16.868	808.505	611.018
356.679	16.935	807.888	610.739
357.694	17.087	807.280	610.771
358.708	16.999	807.164	610.314
359.723	16.818	807.020	609.499
360.738	16.949	806.193	609.292
361.752	16.894	805.934	608.842
362.767	16.943	805.741	608.820
363.781	17.055	805.026	608.627
364.796	17.188	804.521	608.668
365.810	17.242	804.002	608.414
366.825	17.363	803.597	608.488
367.840	17.307	803.158	607.900
368.854	17.257	802.791	607.391
369.869	17.310	802.202	607.083
370.883	17.283	801.641	606.507
371.898	17.334	801.085	606.214
372.913	17.483	800.133	605.969
373.927	17.472	799.721	605.566
374.942	17.411	799.209	604.907
375.956	17.334	799.014	604.433
376.971	17.419	798.249	604.102
377.986	17.506	797.465	603.763
379.000	17.462	797.313	603.439
380.015	17.582	796.510	603.205
381.029	17.625	796.253	603.107
382.044	17.651	795.122	602.289
383.059	17.535	795.118	601.822
384.073	17.519	794.782	601.459
385.088	17.711	794.059	601.537
386.102	17.464	793.378	600.097
387.117	17.479	793.173	599.942
388.132	17.315	792.849	599.065
389.146	17.356	792.309	598.747
390.161	17.564	791.971	599.170
391.175	17.603	791.516	598.914
392.190	17.656	791.092	598.725
393.205	17.525	790.505	597.766
394.219	17.441	790.243	597.222
395.234	17.689	789.462	597.448
396.248	17.624	788.781	596.651
397.263	17.532	788.350	595.951
398.278	17.442	787.917	595.255
399.292	17.453	787.544	594.962
400.307	17.481	787.412	594.907
401.321	17.508	787.037	594.665
402.336	17.358	786.776	593.891
403.350	17.653	785.821	594.147
404.365	17.552	785.758	593.694
405.380	17.620	785.259	593.501
406.394	17.742	784.736	593.476
407.409	17.747	784.395	593.186
408.423	17.716	784.152	592.839
409.438	17.795	783.646	592.678
410.453	17.769	783.314	592.284
411.467	17.903	782.963	592.432
412.482	17.896	782.521	592.023
413.496	17.988	782.035	591.919
414.511	18.001	781.588	591.574
415.526	18.150	780.462	591.184
416.540	18.122	780.379	590.975
417.555	18.144	779.901	590.636
418.569	18.118	779.654	590.306
419.584	18.064	779.248	589.762
420.599	18.034	778.708	589.194
421.613	156.902	1368.503	1795.057
422.628	135.391	1454.436	1795.162
