DTS Sentinel unit serial number:	SN413079Multiplexer serial number:	ORYXHardware model number:	OX4-SRSoftware version number:	ORYX F/W v4.00 Oryx Data Collector v3.7.2.0data status	okinstallation	princeton_trtdifferential loss correction	single-endedforward channel	channel 3reverse channel	N/Adate	2019/09/15time	03:20:35forward acquisition time	60.00reverse acquisition time	0.00gamma	496.2192k internal	0.2323k external	0.2323temperature offset calibration	0.9967default loss term (dB/km)	0.3790temperature slope calibration	1.0000multiplexer offset coefficient	1.0000multiplexer slope coefficient	1.0000fibre end	0.00T internal ref (°C)	31.06T ext. ref 1 (°C)	4.60T ext. ref 2 (°C)	25.72length (m)	temperature (°C)	Stokes	anti-Stokes-747.200	48.378	-0.073	-0.069
-746.185	140.528	-0.341	0.455
-745.171	800.000	-0.082	0.242
-744.156	61.982	0.214	0.215
-743.142	800.000	-0.127	-0.368
-742.127	-200.000	-0.016	-0.271
-741.112	375.633	0.065	-0.134
-740.098	41.920	-0.112	0.102
-739.083	-126.572	0.199	0.030
-738.069	73.505	-0.199	0.210
-737.054	76.274	0.102	0.109
-736.039	800.000	0.043	-0.186
-735.025	492.485	0.141	0.327
-734.010	800.000	-0.016	0.063
-732.996	800.000	-0.064	-0.237
-731.981	800.000	-0.021	0.091
-730.966	-8.626	-0.171	-0.116
-729.952	-48.200	-0.272	-0.132
-728.937	-121.257	-0.390	-0.066
-727.923	-38.087	-0.116	-0.062
-726.908	118.275	-0.085	0.106
-725.894	-108.185	-0.482	-0.105
-724.879	92.142	0.121	0.138
-723.864	-176.320	-0.436	-0.011
-722.850	110.237	-0.226	-0.273
-721.835	800.000	0.014	-0.053
-720.821	-49.989	-0.211	-0.101
-719.806	800.000	-0.092	0.314
-718.791	-200.000	-0.024	-0.362
-717.777	-200.000	-0.008	-0.430
-716.762	-8.932	0.141	0.096
-715.748	52.801	-0.151	0.146
-714.733	109.523	0.134	-0.162
-713.718	-16.391	-0.327	-0.209
-712.704	15.430	-0.214	0.170
-711.689	74.450	0.114	-0.121
-710.675	-141.633	-0.152	0.015
-709.660	745.649	0.023	0.062
-708.645	70.827	-0.114	0.119
-707.631	305.367	0.090	-0.169
-706.616	-200.000	0.024	-0.245
-705.602	-68.321	0.088	-0.034
-704.587	52.337	-0.102	0.098
-703.572	-200.000	-0.021	-0.260
-702.558	71.725	0.047	-0.049
-701.543	-69.362	-0.059	0.023
-700.529	-22.428	-0.243	-0.149
-699.514	404.843	0.180	0.383
-698.499	800.000	-0.010	0.041
-697.485	139.356	-0.057	0.075
-696.470	15.351	-0.183	-0.145
-695.456	-78.436	-0.141	-0.049
-694.441	-200.000	-0.025	-0.221
-693.426	336.536	0.109	0.212
-692.412	-68.135	-0.272	-0.107
-691.397	-125.424	0.227	0.035
-690.383	-158.720	-0.398	-0.023
-689.368	-117.373	0.155	-0.028
-688.354	-19.991	0.206	-0.128
-687.339	-156.336	0.234	-0.015
-686.324	-46.253	-0.058	-0.029
-685.310	175.068	-0.227	-0.331
-684.295	10.435	-0.179	0.137
-683.281	500.789	0.170	0.394
-682.266	-68.592	-0.182	0.071
-681.251	-29.989	-0.205	0.118
-680.237	-128.367	-0.473	0.068
-679.222	800.000	-0.059	0.192
-678.208	58.425	-0.215	0.212
-677.193	-72.924	0.160	0.059
-676.178	25.048	-0.180	0.150
-675.164	-104.803	-0.316	0.073
-674.149	-16.057	-0.454	-0.291
-673.135	139.279	-0.169	0.224
-672.120	-200.000	-0.085	0.398
-671.105	35.842	0.059	-0.052
-670.091	538.039	0.133	-0.318
-669.076	-200.000	0.046	-0.504
-668.062	-2.746	-0.143	0.101
-667.047	-70.116	0.307	-0.118
-666.032	330.321	-0.160	-0.311
-665.018	236.999	0.115	0.192
-664.003	417.989	0.046	-0.099
-662.989	113.220	0.109	0.133
-661.974	-71.499	0.210	-0.079
-660.959	97.502	-0.283	0.328
-659.945	-110.075	0.157	-0.033
-658.930	303.344	-0.118	-0.220
-657.916	-200.000	0.065	0.291
-656.901	650.240	0.123	-0.316
-655.886	63.715	0.091	0.092
-654.872	-53.856	-0.319	-0.146
-653.857	-113.108	0.246	0.049
-652.843	-141.002	-0.173	0.018
-651.828	-200.000	0.086	0.401
-650.814	77.056	-0.048	-0.052
-649.799	-14.406	-0.228	-0.147
-648.784	-138.078	-0.263	0.029
-647.770	186.963	-0.114	0.171
-646.755	-200.000	-0.042	-0.372
-645.741	-40.054	0.204	-0.107
-644.726	123.962	-0.008	-0.010
-643.711	-58.273	0.395	0.173
-642.697	115.052	0.021	-0.026
-641.682	20.988	-0.145	-0.119
-640.668	232.893	-0.103	-0.171
-639.653	-81.026	-0.174	-0.058
-638.638	-4.125	-0.421	0.293
-637.624	33.490	-0.173	-0.151
-636.609	49.589	-0.102	-0.097
-635.595	116.764	-0.176	-0.218
-634.580	-40.134	-0.132	0.069
-633.565	271.243	-0.038	0.066
-632.551	19.452	-0.310	0.251
-631.536	-200.000	-0.021	-0.119
-630.522	-200.000	-0.030	0.356
-629.507	453.086	-0.034	0.076
-628.492	-200.000	0.010	0.229
-627.478	-84.340	-0.279	-0.089
-626.463	151.111	0.121	-0.166
-625.449	14.002	-0.064	-0.050
-624.434	-38.635	-0.037	0.020
-623.419	-112.888	-0.472	-0.094
-622.405	271.319	-0.055	-0.098
-621.390	800.000	-0.142	0.444
-620.376	-154.737	0.048	0.003
-619.361	155.335	-0.186	0.257
-618.346	800.000	0.040	-0.128
-617.332	222.986	0.126	0.204
-616.317	-200.000	0.078	-0.493
-615.303	-200.000	-0.033	-0.360
-614.288	-200.000	0.056	-0.317
-613.273	-141.476	-0.318	0.032
-612.259	540.723	0.076	-0.181
-611.244	-200.000	-0.065	-0.348
-610.230	-200.000	-0.016	-0.201
-609.215	72.471	-0.158	-0.165
-608.201	-200.000	0.025	0.322
-607.186	-200.000	0.069	0.332
-606.171	800.000	-0.095	-0.273
-605.157	182.483	-0.180	-0.267
-604.142	611.088	-0.162	0.407
-603.128	82.247	0.244	0.265
-602.113	-200.000	-0.045	0.244
-601.098	85.004	-0.178	0.196
-600.084	-111.820	-0.165	-0.033
-599.069	719.254	0.017	-0.044
-598.055	173.729	-0.139	0.201
-597.040	-98.194	0.105	-0.027
-596.025	171.588	0.155	0.223
-595.011	-200.000	-0.082	0.371
-593.996	-139.542	-0.053	0.006
-592.982	-200.000	-0.009	0.118
-591.967	38.988	0.105	-0.094
-590.952	800.000	-0.141	0.413
-589.938	-200.000	-0.036	0.212
-588.923	-200.000	-0.009	-0.144
-587.909	616.867	-0.073	-0.185
-586.894	8.238	0.118	0.089
-585.879	492.193	-0.131	0.301
-584.865	-30.585	0.102	-0.058
-583.850	668.337	0.092	-0.240
-582.836	450.482	-0.138	0.306
-581.821	-200.000	0.012	0.140
-580.806	-16.669	-0.380	-0.241
-579.792	-49.112	0.099	0.048
-578.777	67.606	-0.026	-0.027
-577.763	-200.000	-0.024	-0.118
-576.748	800.000	0.033	-0.131
-575.733	800.000	0.107	-0.342
-574.719	230.514	-0.163	0.267
-573.704	-95.726	-0.289	0.078
-572.690	-161.975	0.393	-0.020
-571.675	-90.729	0.338	0.098
-570.661	-200.000	0.024	-0.141
-569.646	-11.987	-0.127	0.083
-568.631	-200.000	0.002	0.074
-567.617	196.031	-0.085	-0.130
-566.602	-200.000	-0.011	-0.132
-565.588	800.000	0.075	0.245
-564.573	21.172	0.174	0.142
-563.558	-69.771	-0.269	0.103
-562.544	37.962	0.044	0.039
-561.529	204.759	-0.149	0.232
-560.515	38.343	0.100	-0.089
-559.500	800.000	0.062	0.231
-558.485	-165.048	-0.140	-0.006
-557.471	-8.931	-0.412	0.276
-556.456	404.706	-0.089	-0.188
-555.442	149.728	0.142	0.193
-554.427	-200.000	0.012	0.211
-553.412	14.043	-0.025	0.020
-552.398	800.000	-0.086	-0.359
-551.383	-98.082	0.516	-0.133
-550.369	-149.398	-0.326	-0.026
-549.354	-102.746	0.058	0.014
-548.339	105.129	-0.079	0.094
-547.325	39.634	0.219	0.196
-546.310	-200.000	-0.003	0.150
-545.296	800.000	0.097	0.372
-544.281	90.141	-0.241	-0.270
-543.266	-49.392	-0.167	0.080
-542.252	157.653	-0.278	-0.385
-541.237	-23.080	0.024	0.014
-540.223	-75.424	0.068	0.024
-539.208	-200.000	-0.027	-0.243
-538.193	83.392	0.143	-0.156
-537.179	-9.125	-0.076	-0.051
-536.164	176.961	0.049	-0.071
-535.150	800.000	-0.086	-0.342
-534.135	469.581	0.106	0.238
-533.121	130.972	-0.195	-0.250
-532.106	-190.073	0.156	0.002
-531.091	27.003	0.263	0.221
-530.077	-79.209	0.142	0.048
-529.062	-102.716	-0.074	0.018
-528.048	-200.000	-0.008	-0.073
-527.033	-181.062	0.121	-0.002
-526.018	107.714	0.102	-0.121
-525.004	-177.490	-0.052	0.001
-523.989	59.627	-0.127	-0.125
-522.975	-111.357	0.334	0.068
-521.960	81.976	0.123	-0.133
-520.945	46.305	0.182	-0.169
-519.931	201.910	0.060	0.093
-518.916	48.712	-0.264	0.248
-517.902	124.542	0.278	0.350
-516.887	-19.178	-0.301	-0.187
-515.872	-93.669	0.264	-0.073
-514.858	-200.000	0.006	-0.033
-513.843	-96.100	-0.161	0.043
-512.829	-16.034	0.102	0.065
-511.814	800.000	0.069	0.221
-510.799	800.000	-0.029	0.106
-509.785	800.000	-0.160	0.442
-508.770	-6.868	-0.284	-0.193
-507.756	-200.000	-0.021	-0.151
-506.741	800.000	0.095	-0.418
-505.726	132.176	-0.249	-0.321
-504.712	114.464	-0.167	0.203
-503.697	-200.000	0.022	0.412
-502.683	800.000	0.102	0.319
-501.668	282.683	-0.011	-0.019
-500.653	764.933	-0.074	-0.200
-499.639	35.330	0.213	0.187
-498.624	-200.000	0.010	-0.248
-497.610	-200.000	-0.009	-0.159
-496.595	-134.777	0.217	-0.026
-495.581	-24.910	-0.158	0.094
-494.566	5.500	0.152	-0.112
-493.551	11.187	-0.129	0.099
-492.537	439.936	0.113	0.246
-491.522	-33.658	0.142	0.079
-490.508	-193.001	-0.208	0.002
-489.493	0.612	-0.105	0.075
-488.478	-200.000	0.043	0.250
-487.464	207.881	0.087	0.136
-486.449	-39.315	0.054	0.029
-485.435	-129.957	-0.477	-0.065
-484.420	-27.640	0.339	0.197
-483.405	632.121	-0.021	0.054
-482.391	-7.858	-0.241	-0.163
-481.376	-47.550	-0.023	-0.011
-480.362	634.474	-0.086	0.218
-479.347	-117.333	0.195	-0.035
-478.332	800.000	0.013	0.050
-477.318	-148.987	-0.144	-0.012
-476.303	-0.425	-0.369	0.262
-475.289	-200.000	0.033	0.150
-474.274	-67.117	0.102	-0.040
-473.259	453.262	0.137	-0.303
-472.245	135.322	-0.200	0.260
-471.230	-200.000	-0.001	-0.077
-470.216	71.517	0.278	-0.288
-469.201	-200.000	0.042	0.186
-468.186	-161.166	-0.167	0.009
-467.172	-1.375	0.217	-0.153
-466.157	-200.000	0.015	-0.341
-465.143	-27.226	-0.275	0.160
-464.128	31.919	0.239	-0.205
-463.113	378.465	-0.038	0.077
-462.099	45.599	-0.200	0.184
-461.084	800.000	-0.016	-0.060
-460.070	-97.760	0.168	0.044
-459.055	-9.140	-0.096	0.064
-458.040	-89.845	0.489	0.143
-457.026	39.407	0.093	-0.083
-456.011	67.880	-0.305	-0.311
-454.997	-102.007	0.285	-0.069
-453.982	-33.874	-0.268	0.147
-452.968	-200.000	-0.017	-0.275
-451.953	33.479	-0.148	-0.128
-450.938	-70.062	0.328	-0.125
-449.924	-200.000	0.018	-0.103
-448.909	-70.810	0.280	-0.105
-447.895	800.000	0.129	-0.364
-446.880	47.070	0.032	0.030
-445.865	189.929	0.252	-0.377
-444.851	564.002	-0.094	-0.226
-443.836	-55.436	0.176	-0.079
-442.822	-200.000	0.006	0.218
-441.807	57.555	-0.087	-0.085
-440.792	73.605	-0.111	0.116
-439.778	-12.525	0.159	-0.103
-438.763	-179.516	-0.338	0.007
-437.749	-200.000	-0.028	0.188
-436.734	-129.377	-0.569	0.079
-435.719	102.675	0.122	-0.142
-434.705	63.049	0.162	-0.162
-433.690	-103.235	0.227	0.053
-432.676	-200.000	-0.007	0.444
-431.661	-92.171	-0.112	-0.031
-430.646	18.618	-0.191	-0.152
-429.632	41.220	-0.140	-0.126
-428.617	-156.075	-0.125	-0.008
-427.603	-200.000	0.050	-0.332
-426.588	265.915	-0.053	-0.092
-425.573	98.102	0.027	0.030
-424.559	259.055	0.224	-0.385
-423.544	-6.515	-0.100	0.068
-422.530	-200.000	0.029	-0.342
-421.515	510.382	-0.040	-0.093
-420.500	320.925	0.086	-0.164
-419.486	-70.169	0.193	-0.073
-418.471	191.046	0.061	-0.091
-417.457	27.775	0.315	0.265
-416.442	78.937	-0.192	0.205
-415.428	263.413	-0.110	0.191
-414.413	56.296	0.033	-0.032
-413.398	-31.089	0.334	-0.188
-412.384	800.000	-0.089	-0.246
-411.369	-45.864	0.069	-0.034
-410.355	-40.239	0.448	-0.232
-409.340	125.366	0.174	-0.218
-408.325	-146.583	0.309	-0.027
-407.311	-200.000	0.000	-0.061
-406.296	145.172	-0.046	-0.061
-405.282	-50.551	-0.182	0.085
-404.267	-14.470	-0.092	0.059
-403.252	-103.524	0.086	-0.020
-402.238	-94.628	-0.156	-0.042
-401.223	-200.000	-0.110	-0.000
-400.209	115.173	0.038	0.046
-399.194	328.396	0.166	-0.317
-398.179	-174.506	-0.170	0.005
-397.165	29.944	-0.281	-0.238
-396.150	655.562	0.093	0.238
-395.136	-70.190	0.093	-0.035
-394.121	0.421	0.195	0.139
-393.106	-177.654	0.366	0.009
-392.092	800.000	-0.035	-0.121
-391.077	127.392	-0.229	0.290
-390.063	-120.383	-0.146	0.025
-389.048	24.954	0.007	-0.005
-388.033	335.650	-0.096	-0.186
-387.019	210.042	0.167	-0.260
-386.004	-34.613	-0.161	-0.088
-384.990	-60.153	-0.205	-0.087
-383.975	594.733	0.092	0.228
-382.960	800.000	-0.045	-0.136
-381.946	-83.906	0.315	-0.100
-380.931	-4.345	-0.183	-0.126
-379.917	246.714	-0.113	-0.190
-378.902	800.000	-0.060	-0.230
-377.888	-110.383	-0.113	-0.023
-376.873	768.856	-0.071	-0.191
-375.858	-200.000	0.001	-0.178
-374.844	-200.000	0.032	-0.278
-373.829	21.461	-0.119	0.096
-372.815	-1.343	-0.115	0.081
-371.800	157.183	-0.165	0.227
-370.785	150.151	-0.261	0.353
-369.771	-200.000	0.021	-0.161
-368.756	-4.136	-0.194	0.134
-367.742	-5.223	0.272	-0.186
-366.727	93.835	0.094	-0.106
-365.712	-28.847	0.294	-0.168
-364.698	-173.804	-0.138	-0.004
-363.683	-117.304	0.363	-0.066
-362.669	-101.928	-0.213	0.051
-361.654	-22.754	-0.155	0.093
-360.639	443.333	-0.221	0.481
-359.625	54.480	-0.404	0.387
-358.610	-107.627	0.251	-0.055
-357.596	800.000	0.103	-0.335
-356.581	-177.313	-0.250	-0.006
-355.566	-200.000	0.026	0.259
-354.552	-92.538	0.390	0.109
-353.537	-83.822	0.114	0.036
-352.523	144.960	-0.071	0.094
-351.508	-200.000	0.006	-0.177
-350.493	72.336	0.046	-0.048
-349.479	-45.063	0.134	0.066
-348.464	27.635	-0.019	-0.016
-347.450	120.275	0.215	0.265
-346.435	-58.725	-0.333	0.143
-345.420	73.125	-0.278	0.289
-344.406	-200.000	0.008	0.073
-343.391	-71.885	0.264	-0.098
-342.377	12.649	-0.070	-0.054
-341.362	53.321	0.094	-0.089
-340.348	-2.049	0.079	-0.056
-339.333	-27.894	-0.124	0.071
-338.318	-16.544	0.435	-0.274
-337.304	-24.821	0.054	-0.032
-336.289	-97.352	0.018	0.005
-335.275	333.389	0.067	0.129
-334.260	369.044	0.006	0.013
-333.245	233.080	0.252	-0.411
-332.231	458.699	0.186	-0.412
-331.216	-200.000	0.195	0.000
-330.202	800.000	-0.051	0.171
-329.187	148.480	0.224	0.300
-328.172	167.000	-0.123	0.174
-327.158	211.834	-0.071	0.111
-326.143	-68.200	0.242	-0.094
-325.129	-96.545	-0.193	0.051
-324.114	-107.308	-0.188	0.041
-323.099	800.000	-0.098	-0.275
-322.085	800.000	-0.091	0.387
-321.070	-32.311	-0.303	-0.168
-320.056	167.646	0.129	0.182
-319.041	-80.066	-0.107	0.036
-318.026	-200.000	-0.009	0.243
-317.012	-57.158	0.393	0.172
-315.997	-137.725	-0.152	-0.017
-314.983	-200.000	0.017	-0.202
-313.968	-65.461	0.208	0.083
-312.953	506.370	-0.113	0.261
-311.939	38.578	0.075	-0.066
-310.924	-200.000	0.010	0.161
-309.910	-125.617	-0.265	-0.040
-308.895	147.563	-0.111	-0.148
-307.880	-48.413	0.157	-0.075
-306.866	-200.000	0.020	-0.125
-305.851	44.777	-0.174	-0.159
-304.837	471.536	0.106	-0.237
-303.822	61.864	0.169	-0.167
-302.807	-127.720	-0.181	-0.026
-301.793	70.438	-0.202	-0.207
-300.778	189.790	-0.140	0.209
-299.764	-124.307	-0.075	0.012
-298.749	36.277	0.008	-0.007
-297.735	-92.860	-0.063	-0.018
-296.720	14.832	-0.115	0.090
-295.705	-66.121	0.221	-0.087
-294.691	107.450	-0.066	0.078
-293.676	108.540	0.285	0.338
-292.662	-200.000	-0.003	-0.039
-291.647	-104.865	-0.146	-0.033
-290.632	-32.187	-0.445	-0.247
-289.618	-200.000	-0.032	0.245
-288.603	-43.068	0.187	0.094
-287.589	-167.423	-0.143	-0.006
-286.574	-123.501	0.152	-0.024
-285.559	345.672	0.026	-0.050
-284.545	149.176	-0.167	0.224
-283.530	-200.000	0.021	0.302
-282.516	-49.548	0.117	-0.055
-281.501	-24.983	0.230	0.135
-280.486	-31.951	-0.170	-0.094
-279.472	163.916	-0.066	-0.092
-278.457	-9.072	0.128	0.085
-277.443	-65.662	-0.129	0.051
-276.428	-164.926	-0.130	0.006
-275.413	-200.000	0.031	-0.152
-274.399	-59.756	0.296	-0.126
-273.384	-88.618	-0.143	-0.042
-272.370	318.932	-0.095	0.179
-271.355	800.000	-0.015	0.065
-270.340	-49.407	-0.146	-0.069
-269.326	53.660	0.151	0.144
-268.311	-158.695	-0.151	0.009
-267.297	800.000	0.118	0.363
-266.282	81.942	0.155	-0.167
-265.267	800.000	0.045	-0.146
-264.253	-200.000	0.022	0.140
-263.238	-157.066	0.156	-0.009
-262.224	-200.000	0.003	-0.167
-261.209	-41.839	-0.144	-0.073
-260.195	35.110	0.281	0.244
-259.180	-35.982	-0.059	0.031
-258.165	-70.703	-0.141	-0.053
-257.151	800.000	0.067	-0.214
-256.136	-91.842	0.434	-0.122
-255.122	-68.307	0.121	-0.047
-254.107	774.246	-0.043	0.116
-253.092	-168.072	0.171	-0.007
-252.078	58.601	0.205	-0.200
-251.063	-73.442	-0.211	-0.076
-250.049	24.214	0.196	-0.161
-249.034	65.559	-0.243	0.244
-248.019	-134.883	0.253	-0.030
-247.005	38.970	-0.161	-0.142
-245.990	-24.776	-0.393	0.231
-244.976	800.000	-0.095	0.368
-243.961	-200.000	0.014	0.092
-242.946	-104.713	0.169	-0.039
-241.932	-200.000	0.010	0.489
-240.917	-78.315	0.245	-0.083
-239.903	-39.021	0.406	-0.212
-238.888	22.035	0.330	0.267
-237.873	-200.000	0.076	-0.340
-236.859	-200.000	-0.011	0.076
-235.844	-57.159	0.128	0.056
-234.830	-173.446	0.250	-0.007
-233.815	1.246	-0.331	0.235
-232.800	-56.543	0.243	-0.107
-231.786	238.073	0.185	0.303
-230.771	-32.356	-0.400	0.221
-229.757	800.000	-0.059	0.183
-228.742	800.000	0.060	0.244
-227.727	782.649	0.052	-0.140
-226.713	800.000	0.054	0.164
-225.698	-97.815	0.100	-0.026
-224.684	-108.929	-0.280	0.059
-223.669	-73.674	0.151	0.054
-222.655	-30.348	0.087	0.049
-221.640	-168.226	0.384	-0.015
-220.625	800.000	-0.074	-0.271
-219.611	470.065	0.074	-0.165
-218.596	28.810	0.257	0.215
-217.582	314.448	0.175	-0.327
-216.567	549.306	-0.094	0.223
-215.552	-200.000	-0.060	0.293
-214.538	-73.785	0.191	-0.069
-213.523	-0.799	0.180	0.126
-212.509	-152.399	-0.126	-0.009
-211.494	-136.271	0.295	0.034
-210.479	-99.063	0.088	0.022
-209.465	-26.685	-0.319	-0.185
-208.450	365.273	0.154	0.306
-207.436	-173.943	0.284	0.008
-206.421	-131.313	-0.356	0.047
-205.406	800.000	0.050	0.206
-204.392	-200.000	-0.034	0.176
-203.377	82.209	-0.126	-0.135
-202.363	18.176	0.434	0.343
-201.348	800.000	-0.008	-0.033
-200.333	64.661	-0.167	0.166
-199.319	188.638	-0.099	-0.147
-198.304	219.492	-0.034	-0.053
-197.290	-76.103	-0.061	0.021
-196.275	589.479	-0.139	-0.338
-195.260	398.110	0.071	0.147
-194.246	800.000	-0.056	-0.207
-193.231	-200.000	0.048	0.491
-192.217	85.072	0.010	0.011
-191.202	-188.074	-0.173	0.002
-190.187	-200.000	-0.021	-0.304
-189.173	138.563	-0.019	0.025
-188.158	800.000	-0.055	-0.174
-187.144	172.315	0.086	-0.122
-186.129	-200.000	0.019	0.279
-185.114	302.090	0.112	-0.204
-184.100	203.443	0.136	0.208
-183.085	3.937	-0.111	0.080
-182.071	207.743	-0.110	-0.170
-181.056	800.000	-0.059	0.178
-180.042	12.425	-0.263	-0.201
-179.027	-30.903	0.127	-0.071
-178.012	-180.426	-0.184	-0.004
-176.998	626.644	0.155	-0.386
-175.983	-118.925	-0.209	-0.036
-174.969	-118.500	-0.158	-0.028
-173.954	42.108	0.132	-0.118
-172.939	800.000	0.065	0.271
-171.925	87.634	0.129	-0.141
-170.910	-168.146	-0.084	0.003
-169.896	-200.000	-0.003	-0.075
-168.881	-70.049	0.365	-0.137
-167.866	-200.000	0.005	-0.250
-166.852	254.363	0.076	-0.129
-165.837	95.616	-0.088	0.099
-164.823	-200.000	0.000	0.108
-163.808	66.138	0.113	0.114
-162.793	84.337	-0.113	-0.122
-161.779	118.569	0.038	0.046
-160.764	800.000	-0.053	0.190
-159.750	-200.000	0.024	-0.200
-158.735	100.413	0.124	-0.142
-157.720	-150.037	0.356	0.027
-156.706	-200.000	-0.006	0.088
-155.691	800.000	-0.018	0.067
-154.677	-63.016	-0.106	-0.043
-153.662	800.000	0.180	-0.512
-152.647	-67.944	-0.302	0.116
-151.633	-91.769	0.333	-0.093
-150.618	87.797	0.143	-0.156
-149.604	-33.959	-0.157	-0.085
-148.589	292.095	-0.123	0.222
-147.574	151.071	-0.177	0.237
-146.560	800.000	-0.056	-0.230
-145.545	287.163	0.093	-0.165
-144.531	395.873	-0.157	0.323
-143.516	-126.549	0.178	0.026
-142.502	-193.026	0.239	-0.002
-141.487	7.120	0.164	0.120
-140.472	-200.000	-0.023	0.298
-139.458	-190.480	0.144	-0.002
-138.443	31.496	0.188	-0.159
-137.429	144.200	-0.079	0.104
-136.414	-131.585	0.217	0.028
-135.399	64.883	-0.142	0.141
-134.385	-21.481	-0.307	-0.184
-133.370	293.987	0.147	-0.266
-132.356	-153.845	0.258	-0.017
-131.341	-90.132	-0.219	-0.063
-130.326	220.288	-0.197	-0.311
-129.312	-200.000	-0.004	0.328
-128.297	473.613	0.078	0.174
-127.283	-135.837	0.297	-0.035
-126.268	61.405	-0.139	-0.136
-125.253	526.016	0.067	-0.155
-124.239	-18.990	-0.229	-0.141
-123.224	327.878	-0.038	-0.071
-122.210	-28.769	-0.298	-0.169
-121.195	-147.554	0.251	-0.021
-120.180	-200.000	-0.025	-0.175
-119.166	-140.042	-0.261	0.027
-118.151	-200.000	-0.005	-0.298
-117.137	-127.752	0.172	0.024
-116.122	-28.046	0.198	-0.113
-115.107	-30.143	-0.024	0.013
-114.093	64.265	-0.260	0.258
-113.078	-75.902	0.098	0.034
-112.064	-9.337	-0.409	-0.269
-111.049	13.057	0.226	-0.172
-110.034	-71.219	0.194	0.072
-109.020	-156.523	-0.040	0.002
-108.005	-200.000	0.006	-0.171
-106.991	800.000	0.082	0.251
-105.976	279.377	0.131	0.230
-104.962	158.143	0.259	-0.354
-103.947	111.457	-0.161	-0.192
-102.932	-130.099	0.187	-0.025
-101.918	-126.951	-0.166	-0.024
-100.903	-163.883	0.159	-0.007
-99.889	-200.000	-0.028	-0.359
-98.874	-2.067	-0.046	-0.032
-97.859	-200.000	-0.047	0.230
-96.845	107.184	0.158	-0.185
-95.830	144.313	0.131	-0.173
-94.816	-200.000	-0.034	-0.188
-93.801	281.930	0.133	-0.236
-92.786	-200.000	-0.014	0.105
-91.772	37.996	0.116	0.101
-90.757	-67.089	0.285	0.111
-89.743	102.543	0.077	0.089
-88.728	-100.859	-0.207	-0.050
-87.713	230.149	0.089	-0.143
-86.699	-200.000	-0.028	0.261
-85.684	178.902	-0.085	0.122
-84.670	-65.129	-0.308	0.122
-83.655	306.062	-0.198	-0.362
-82.640	16.589	0.075	-0.058
-81.626	159.718	-0.185	-0.254
-80.611	223.139	-0.164	0.259
-79.597	300.251	-0.104	-0.189
-78.582	-96.834	0.253	-0.065
-77.567	-14.074	-0.209	-0.133
-76.553	8.697	0.218	-0.161
-75.538	-19.853	-0.169	0.103
-74.524	-200.000	-0.041	0.309
-73.509	-200.000	0.096	0.459
-72.494	-37.854	0.376	0.197
-71.480	-91.391	0.277	0.078
-70.465	491.042	0.129	0.290
-69.451	69.512	-0.062	-0.063
-68.436	-65.927	-0.217	-0.085
-67.422	14.006	-0.255	0.196
-66.407	-40.790	-0.143	-0.073
-65.392	105.567	-0.184	0.214
-64.378	-131.043	-0.352	-0.046
-63.363	800.000	-0.059	0.248
-62.349	-200.000	-0.044	-0.226
-61.334	126.841	-0.775	-0.966
-60.319	38.271	0.737	0.645
-59.305	-200.000	0.057	-0.763
-58.290	219.395	0.569	0.896
-57.276	163.366	0.937	1.295
-56.261	-200.000	101.129	608.684
-55.246	588.681	1411.326	3417.947
-54.232	192.029	2593.789	3844.476
-53.217	117.809	2162.426	2617.447
-52.203	41.891	1696.715	1512.500
-51.188	34.254	1507.087	1291.854
-50.173	31.870	1480.670	1253.248
-49.159	51.701	1532.299	1432.307
-48.144	53.592	1549.907	1461.574
-47.130	34.530	1507.897	1294.219
-46.115	31.358	1493.237	1260.234
-45.100	31.156	1489.355	1255.550
-44.086	31.165	1487.849	1254.290
-43.071	31.064	1485.476	1251.561
-42.057	31.099	1484.084	1250.573
-41.042	31.232	1482.164	1249.792
-40.027	31.150	1481.154	1248.344
-39.013	31.106	1479.509	1246.614
-37.998	31.029	1478.445	1245.156
-36.984	31.038	1477.514	1244.380
-35.969	31.027	1476.067	1243.037
-34.954	30.990	1474.990	1241.836
-33.940	31.072	1473.411	1241.008
-32.925	31.150	1471.629	1239.973
-31.911	31.101	1471.057	1239.119
-30.896	31.165	1469.642	1238.299
-29.881	31.114	1468.604	1237.034
-28.867	31.204	1466.551	1235.858
-27.852	31.154	1465.482	1234.576
-26.838	31.152	1464.128	1233.372
-25.823	31.234	1462.117	1232.171
-24.809	31.168	1460.936	1230.690
-23.794	31.080	1459.475	1228.829
-22.779	31.082	1458.856	1228.275
-21.765	31.036	1457.751	1226.994
-20.750	31.008	1456.661	1225.841
-19.736	31.038	1455.300	1224.846
-18.721	31.061	1453.825	1223.707
-17.706	31.006	1453.237	1222.806
-16.692	31.049	1451.508	1221.579
-15.677	31.041	1450.758	1220.852
-14.663	31.073	1449.887	1220.276
-13.648	31.013	1448.940	1219.042
-12.633	30.902	1448.577	1217.957
-11.619	31.057	1446.790	1217.418
-10.604	31.054	1445.592	1216.344
-9.590	31.058	1445.050	1215.865
-8.575	31.022	1444.520	1215.135
-7.560	31.027	1443.743	1214.468
-6.546	31.045	1442.793	1213.737
-5.531	30.994	1441.817	1212.535
-4.517	30.914	1441.296	1211.531
-3.502	30.997	1440.080	1210.998
-2.487	30.977	1438.959	1209.882
-1.473	30.970	1438.081	1209.048
-0.458	30.948	1436.815	1207.795
0.556	29.641	1427.445	1197.200
1.571	26.700	1402.204	1157.179
2.586	23.277	1344.383	1088.363
3.600	21.577	1263.716	1013.138
4.615	20.333	1217.880	969.361
5.629	17.652	1162.545	910.925
6.644	10.749	1080.715	812.318
7.659	5.480	1042.135	757.786
8.673	4.693	1037.568	750.600
9.688	4.634	1034.066	747.720
10.702	4.539	1032.875	746.335
11.717	4.535	1030.687	744.667
12.731	6.596	1032.178	755.561
13.746	12.970	1041.497	793.044
14.761	18.058	1047.331	821.950
15.775	18.301	1046.765	822.599
16.790	17.391	1044.427	816.323
17.804	16.286	1042.406	809.377
18.819	15.318	1040.828	803.445
19.834	14.996	1038.895	800.342
20.848	14.695	1038.104	798.222
21.863	14.463	1037.658	796.699
22.877	14.356	1036.259	795.044
23.892	14.005	1036.043	793.133
24.907	13.909	1035.768	792.396
25.921	13.994	1034.492	791.754
26.936	13.889	1034.376	791.096
27.950	14.136	1032.291	790.603
28.965	13.994	1031.693	789.403
29.980	14.078	1030.779	789.032
30.994	14.157	1029.505	788.362
32.009	14.227	1029.033	788.260
33.023	14.385	1027.659	787.889
34.038	14.224	1027.212	786.716
35.053	14.133	1026.419	785.607
36.067	14.111	1025.070	784.401
37.082	14.223	1024.235	784.220
38.096	14.156	1023.441	783.229
39.111	14.116	1023.259	782.830
40.126	14.158	1022.039	782.024
41.140	14.104	1020.904	780.833
42.155	13.974	1019.819	779.326
43.169	13.964	1018.534	778.229
44.184	13.883	1017.889	777.286
45.199	14.001	1016.157	776.449
46.213	13.955	1015.682	775.799
47.228	13.857	1014.732	774.551
48.242	14.135	1013.848	775.102
49.257	14.077	1012.950	774.077
50.271	14.071	1012.153	773.373
51.286	14.013	1011.800	772.763
52.301	14.087	1010.714	772.211
53.315	14.146	1009.606	771.569
54.330	14.075	1009.019	770.722
55.344	13.965	1008.090	769.437
56.359	13.960	1006.821	768.375
57.374	13.975	1006.222	767.919
58.388	13.916	1005.396	766.948
59.403	13.779	1004.730	765.740
60.417	13.942	1003.529	765.510
61.432	13.930	1003.011	764.989
62.447	13.805	1002.202	763.733
63.461	13.811	1001.410	763.087
64.476	13.798	1000.613	762.355
65.490	13.811	999.416	761.433
66.505	13.823	998.769	760.926
67.520	13.809	998.108	760.293
68.534	13.871	997.357	759.935
69.549	13.820	997.024	759.383
70.563	13.755	996.127	758.336
71.578	13.880	995.287	758.201
72.593	13.685	994.334	756.516
73.607	13.756	993.184	755.897
74.622	13.672	992.704	755.085
75.636	13.511	991.995	753.743
76.651	13.664	990.775	753.449
77.666	13.707	989.999	752.985
78.680	13.667	989.748	752.545
79.695	13.819	988.570	752.274
80.709	13.780	988.314	751.833
81.724	13.779	987.887	751.439
82.739	13.936	986.660	751.150
83.753	13.941	986.365	750.881
84.768	14.089	985.474	750.803
85.782	14.180	984.624	750.501
86.797	14.163	984.258	750.077
87.812	14.175	983.275	749.315
88.826	14.159	982.319	748.451
89.841	14.000	981.841	747.304
90.855	14.194	980.798	747.315
91.870	14.194	980.440	746.979
92.884	14.059	980.048	746.006
93.899	14.249	978.493	745.607
94.914	14.186	977.782	744.717
95.928	14.207	977.485	744.522
96.943	14.220	976.546	743.799
97.957	14.160	975.715	742.829
98.972	14.137	974.886	742.034
99.987	14.239	974.108	741.828
101.001	14.102	973.883	740.981
102.016	14.239	972.602	740.550
103.030	14.149	972.013	739.638
104.045	14.130	971.192	738.860
105.060	14.166	970.132	738.149
106.074	14.116	969.484	737.371
107.089	13.992	968.223	735.798
108.103	13.882	967.242	734.499
109.118	13.808	966.296	733.390
110.133	13.935	965.427	733.223
111.147	13.790	964.672	731.948
112.162	13.793	964.419	731.704
113.176	13.896	963.269	731.219
114.191	13.937	962.361	730.644
115.206	13.965	961.648	730.162
116.220	13.972	960.780	729.471
117.235	14.071	959.724	729.038
118.249	14.037	958.908	728.204
119.264	14.006	958.135	727.417
120.279	13.901	957.677	726.548
121.293	13.939	956.565	725.804
122.308	13.748	956.440	724.812
123.322	13.807	955.162	724.036
124.337	13.834	953.943	723.164
125.352	13.891	952.531	722.278
126.366	13.730	951.890	721.029
127.381	13.813	951.022	720.668
128.395	13.752	950.071	719.618
129.410	13.847	949.251	719.345
130.424	13.833	948.373	718.556
131.439	13.896	947.359	717.998
132.454	13.912	946.818	717.594
133.468	13.911	945.941	716.862
134.483	13.975	945.638	716.844
135.497	13.888	944.973	715.901
136.512	13.941	943.646	715.060
137.527	14.040	942.735	714.734
138.541	14.015	942.083	714.070
139.556	14.044	941.384	713.600
140.570	13.968	941.190	713.064
141.585	13.990	940.318	712.434
142.600	14.163	939.847	712.754
143.614	14.235	938.770	712.181
144.629	14.209	938.121	711.518
145.643	14.192	937.360	710.804
146.658	14.274	936.285	710.274
147.673	14.211	935.330	709.222
148.687	14.011	935.067	708.104
149.702	14.174	933.657	707.667
150.716	14.033	932.779	706.343
151.731	14.034	932.098	705.767
152.746	14.121	931.170	705.371
153.760	13.974	931.122	704.650
154.775	14.071	930.145	704.260
155.789	14.205	929.294	704.119
156.804	14.246	928.487	703.619
157.819	14.233	927.793	702.975
158.833	14.315	926.946	702.618
159.848	14.381	926.344	702.375
160.862	14.406	925.619	701.871
161.877	14.234	925.331	700.866
162.892	14.094	924.771	699.791
163.906	13.955	923.508	698.189
164.921	14.114	922.739	698.214
165.935	14.145	921.440	697.298
166.950	14.054	921.038	696.552
167.964	14.103	920.231	696.085
168.979	14.258	919.006	695.745
169.994	14.219	917.959	694.725
171.008	14.285	917.069	694.268
172.023	14.253	916.515	693.653
173.037	14.294	915.766	693.197
174.052	14.351	915.529	693.190
175.067	14.355	914.351	692.258
176.081	14.322	913.525	691.432
177.096	14.192	912.897	690.357
178.110	14.158	912.144	689.584
179.125	14.249	911.127	689.132
180.140	14.149	910.581	688.242
181.154	14.151	910.037	687.781
182.169	14.330	909.387	687.968
183.183	14.304	909.235	687.683
184.198	14.512	907.975	687.530
185.213	14.425	907.441	686.704
186.227	14.384	907.028	686.162
187.242	14.477	906.138	685.809
188.256	14.442	906.020	685.518
189.271	14.615	904.960	685.364
190.286	14.637	904.080	684.729
191.300	14.390	903.464	683.188
192.315	14.340	902.416	682.130
193.329	14.168	901.919	680.989
194.344	14.159	901.470	680.555
195.359	14.304	900.508	680.362
196.373	14.429	900.322	680.669
197.388	14.472	900.362	680.818
198.402	14.680	899.008	680.580
199.417	14.623	898.619	679.992
200.432	14.693	898.623	680.220
201.446	14.757	898.101	680.028
202.461	14.871	897.659	680.094
203.475	14.891	897.232	679.795
204.490	14.941	896.382	679.294
205.504	14.693	895.979	677.918
206.519	14.606	895.034	676.789
207.534	14.636	893.953	676.037
208.548	14.747	893.195	675.851
209.563	14.757	892.313	675.164
210.577	14.721	892.023	674.740
211.592	14.746	891.356	674.275
212.607	14.877	891.009	674.485
213.621	14.868	890.425	673.944
214.636	14.805	889.711	673.091
215.650	14.898	889.029	672.890
216.665	14.995	888.266	672.643
217.680	14.901	888.070	672.059
218.694	14.823	887.913	671.565
219.709	14.932	887.366	671.529
220.723	15.034	886.277	671.057
221.738	14.985	885.467	670.186
222.753	14.997	884.953	669.788
223.767	15.034	883.950	669.115
224.782	15.097	883.005	668.594
225.796	15.107	882.721	668.358
226.811	15.017	882.304	667.624
227.826	15.102	881.330	667.170
228.840	14.983	880.798	666.233
229.855	14.891	880.265	665.403
230.869	14.884	879.313	664.597
231.884	15.056	878.571	664.662
232.899	15.027	877.943	664.010
233.913	15.017	876.809	663.054
234.928	14.972	876.869	662.866
235.942	14.903	876.034	661.900
236.957	14.976	874.980	661.335
237.972	14.947	874.482	660.784
238.986	15.011	873.914	660.549
240.001	15.055	873.119	660.065
241.015	14.868	873.100	659.254
242.030	14.990	871.910	658.777
243.045	15.135	871.260	658.798
244.059	15.088	870.824	658.224
245.074	15.163	869.988	657.832
246.088	15.164	869.610	657.489
247.103	15.242	869.091	657.345
248.117	15.223	868.850	657.032
249.132	15.261	868.025	656.498
250.147	15.306	867.599	656.295
251.161	15.496	867.216	656.688
252.176	15.584	865.969	656.030
253.190	15.554	865.555	655.542
254.205	15.613	864.928	655.238
255.220	15.654	864.402	654.942
256.234	15.720	863.718	654.622
257.249	15.680	863.053	653.904
258.263	15.609	862.762	653.350
259.278	15.664	861.843	652.812
260.293	15.614	861.752	652.491
261.307	15.770	861.013	652.476
262.322	15.650	861.092	652.014
263.336	15.542	860.096	650.785
264.351	15.729	859.358	650.893
265.366	16.016	858.258	651.112
266.380	15.929	858.158	650.640
267.395	15.866	857.676	649.974
268.409	15.808	856.671	648.931
269.424	15.844	855.717	648.289
270.439	15.646	855.704	647.459
271.453	15.851	854.540	647.312
272.468	15.774	853.391	646.088
273.482	15.772	853.150	645.841
274.497	15.700	852.990	645.385
275.512	15.608	852.322	644.469
276.526	15.703	851.146	643.886
277.541	15.948	850.057	643.944
278.555	15.901	849.802	643.513
279.570	15.956	849.410	643.372
280.585	15.932	849.373	643.195
281.599	15.850	848.702	642.316
282.614	15.935	848.142	642.158
283.628	16.009	847.238	641.702
284.643	15.785	846.840	640.491
285.657	15.983	846.015	640.562
286.672	16.006	845.508	640.207
287.687	16.035	844.779	639.711
288.701	16.054	844.585	639.578
289.716	15.863	843.994	638.348
290.730	15.903	843.809	638.306
291.745	16.085	842.589	638.015
292.760	16.004	842.028	637.228
293.774	16.059	841.260	636.797
294.789	16.204	841.081	637.153
295.803	16.098	840.679	636.391
296.818	16.068	839.972	635.689
297.833	16.022	839.382	635.010
298.847	16.069	838.349	634.352
299.862	16.119	837.743	634.025
300.876	16.180	837.431	633.962
301.891	16.249	836.186	633.222
302.906	16.264	836.083	633.144
303.920	16.452	835.500	633.352
304.935	16.354	834.726	632.339
305.949	16.462	833.930	632.088
306.964	16.439	833.579	631.676
307.979	16.297	832.964	630.626
308.993	16.332	832.498	630.347
310.008	16.436	831.841	630.183
311.022	16.435	831.418	629.802
312.037	16.512	830.765	629.539
313.052	16.454	830.074	628.742
314.066	16.377	829.487	627.956
315.081	16.347	829.011	627.429
316.095	16.243	828.934	626.928
317.110	16.167	828.091	625.953
318.125	16.280	827.346	625.756
319.139	16.318	827.107	625.659
320.154	16.304	826.266	624.917
321.168	16.294	826.239	624.803
322.183	16.301	825.936	624.546
323.197	16.418	825.036	624.241
324.212	16.481	824.379	623.921
325.227	16.418	824.014	623.357
326.241	16.375	823.547	622.791
327.256	16.427	822.873	622.417
328.270	16.393	822.529	621.977
329.285	16.495	821.663	621.642
330.300	16.400	820.884	620.648
331.314	16.470	820.520	620.576
332.329	16.594	819.793	620.426
333.343	16.367	819.921	619.635
334.358	16.630	818.792	619.688
335.373	16.612	818.583	619.411
336.387	16.545	817.738	618.473
337.402	16.501	817.794	618.298
338.416	16.489	817.125	617.694
339.431	16.646	816.496	617.738
340.446	16.917	815.777	618.125
341.460	16.787	815.425	617.331
342.475	16.872	814.702	617.039
343.489	16.875	814.411	616.775
344.504	16.961	813.521	616.358
345.519	16.962	813.185	616.052
346.533	17.010	812.481	615.640
347.548	17.024	812.231	615.446
348.562	16.923	811.777	614.682
349.577	16.746	811.315	613.638
350.592	16.713	810.772	613.053
351.606	16.836	809.941	612.813
352.621	16.794	809.723	612.444
353.635	16.879	809.172	612.281
354.650	16.991	808.624	612.214
355.665	16.884	808.450	611.643
356.679	16.890	807.946	611.231
357.694	16.924	807.563	611.009
358.708	16.980	806.994	610.723
359.723	16.998	805.952	609.948
360.738	17.054	805.718	609.919
361.752	16.999	805.387	609.414
362.767	16.970	805.081	609.024
363.781	17.078	804.691	609.064
364.796	17.239	804.216	609.227
365.810	17.106	803.816	608.396
366.825	17.264	803.309	608.523
367.840	17.361	802.953	608.545
368.854	17.284	802.414	607.810
369.869	17.177	802.316	607.298
370.883	17.304	801.339	606.959
371.898	17.200	800.818	606.138
372.913	17.203	800.707	606.013
373.927	17.319	800.031	605.860
374.942	17.111	799.362	604.559
375.956	17.355	798.762	604.919
376.971	17.388	798.289	604.625
377.986	17.507	797.218	604.182
379.000	17.351	796.955	603.376
380.015	17.441	796.742	603.480
381.029	17.523	795.937	603.108
382.044	17.385	795.654	602.352
383.059	17.551	794.861	602.288
384.073	17.393	794.588	601.465
385.088	17.532	793.898	601.383
386.102	17.538	793.115	600.756
387.117	17.438	792.751	600.074
388.132	17.406	792.275	599.550
389.146	17.376	792.181	599.320
390.161	17.448	791.264	598.826
391.175	17.532	791.285	599.083
392.190	17.490	791.179	598.802
393.205	17.481	790.476	598.188
394.219	17.497	789.715	597.615
395.234	17.464	789.532	597.307
396.248	17.360	789.304	596.718
397.263	17.327	788.597	596.014
398.278	17.320	788.138	595.591
399.292	17.406	787.412	595.288
400.307	17.415	786.981	594.941
401.321	17.309	786.685	594.296
402.336	17.431	786.613	594.615
403.350	17.546	786.137	594.604
404.365	17.520	785.587	594.044
405.380	17.553	785.573	594.097
406.394	17.621	784.843	593.727
407.409	17.794	784.111	593.725
408.423	17.823	783.861	593.585
409.438	17.711	783.317	592.730
410.453	17.978	782.827	593.233
411.467	17.909	782.585	592.759
412.482	17.832	782.298	592.220
413.496	17.925	781.437	591.838
414.511	18.043	781.006	591.871
415.526	18.077	780.858	591.822
416.540	17.891	780.568	590.908
417.555	17.872	780.440	590.691
418.569	17.922	779.856	590.372
419.584	17.852	779.382	589.719
420.599	18.027	778.656	589.722
421.613	156.745	1369.386	1797.250
422.628	135.228	1455.466	1797.351
