DTS Sentinel unit serial number:	SN413079Multiplexer serial number:	ORYXHardware model number:	OX4-SRSoftware version number:	ORYX F/W v4.00 Oryx Data Collector v3.7.2.0data status	okinstallation	princeton_trtdifferential loss correction	single-endedforward channel	channel 3reverse channel	N/Adate	2019/09/12time	18:55:04forward acquisition time	15.00reverse acquisition time	0.00gamma	496.2192k internal	0.2318k external	0.2318temperature offset calibration	1.0096default loss term (dB/km)	0.3790temperature slope calibration	1.0000multiplexer offset coefficient	1.0000multiplexer slope coefficient	1.0000fibre end	0.00T internal ref (°C)	32.81T ext. ref 1 (°C)	3.00T ext. ref 2 (°C)	27.33length (m)	temperature (°C)	Stokes	anti-Stokes-747.200	147.864	0.703	-0.960
-746.185	11.545	-0.071	-0.055
-745.171	-145.888	-0.726	0.065
-744.156	-200.000	0.043	0.371
-743.142	-101.380	-0.297	0.073
-742.127	40.503	0.270	0.246
-741.112	-200.000	-0.020	-0.372
-740.098	72.338	0.231	-0.244
-739.083	800.000	0.339	-0.958
-738.069	-200.000	-0.033	0.986
-737.054	35.679	-0.401	-0.357
-736.039	800.000	-0.213	-0.802
-735.025	800.000	-0.083	-0.348
-734.010	-73.503	0.516	-0.191
-732.996	-91.006	-0.533	-0.155
-731.981	-74.740	0.542	-0.197
-730.966	-75.869	0.552	-0.198
-729.952	-76.122	-0.484	-0.173
-728.937	42.294	-0.706	-0.649
-727.923	209.037	0.108	-0.171
-726.908	-200.000	-0.001	-0.887
-725.894	-35.347	-0.470	0.259
-724.879	120.215	0.447	-0.561
-723.864	-200.000	-0.787	0.001
-722.850	1.550	0.345	0.251
-721.835	510.563	-0.212	0.498
-720.821	574.115	-0.208	0.512
-719.806	153.348	-0.532	0.736
-718.791	-200.000	-0.108	-0.561
-717.777	102.654	-0.156	0.185
-716.762	-82.700	0.335	0.110
-715.748	-7.557	-0.111	0.076
-714.733	129.446	-0.149	0.192
-713.718	283.838	-0.499	-0.907
-712.704	800.000	-0.139	-0.519
-711.689	-73.225	-0.288	0.106
-710.675	52.852	0.504	0.487
-709.660	-167.504	-0.764	0.031
-708.645	-80.929	0.285	-0.095
-707.631	-50.501	-0.285	-0.136
-706.616	-147.843	0.134	-0.011
-705.602	-27.816	0.461	-0.270
-704.587	-67.859	-0.590	0.233
-703.572	158.893	0.314	0.441
-702.558	-200.000	0.033	0.185
-701.543	-28.248	-0.752	-0.439
-700.529	-130.066	-0.460	0.064
-699.514	-54.983	0.485	-0.221
-698.499	800.000	-0.164	-0.644
-697.485	-65.295	0.592	-0.241
-696.470	367.339	-0.198	-0.404
-695.456	-50.287	-0.515	0.246
-694.441	-79.525	-0.507	0.173
-693.426	2.365	-0.564	0.412
-692.412	-150.474	-1.161	0.090
-691.397	-85.217	0.872	0.275
-690.383	165.954	0.187	-0.267
-689.368	277.458	-0.234	-0.420
-688.354	-200.000	0.057	-0.645
-687.339	-75.214	-0.310	0.112
-686.324	-108.335	0.452	-0.098
-685.310	-88.681	-0.906	0.272
-684.295	240.569	-0.080	-0.134
-683.281	-71.203	-0.172	-0.065
-682.266	-200.000	-0.032	0.384
-681.251	-23.170	0.789	-0.479
-680.237	-125.463	-0.984	-0.151
-679.222	55.663	0.841	-0.822
-678.208	40.770	0.112	0.102
-677.193	331.361	0.297	-0.578
-676.178	800.000	0.135	0.449
-675.164	-0.145	0.050	-0.036
-674.149	-200.000	-0.047	0.857
-673.135	-135.355	-0.480	-0.058
-672.120	309.834	-0.204	0.384
-671.105	-37.840	-0.305	0.163
-670.091	800.000	0.032	0.124
-669.076	128.186	-0.276	-0.355
-668.062	-176.476	-0.905	-0.024
-667.047	44.117	0.150	-0.139
-666.032	699.718	-0.152	-0.402
-665.018	-200.000	-0.078	0.691
-664.003	-64.653	-0.597	0.244
-662.989	29.139	-0.542	0.464
-661.974	74.812	-0.385	-0.409
-660.959	-83.513	-0.670	0.216
-659.945	105.348	-0.112	0.133
-658.930	-149.489	-0.566	0.045
-657.916	-160.455	-0.747	0.040
-656.901	-200.000	-0.022	0.266
-655.886	-73.574	0.316	0.116
-654.872	800.000	0.066	0.276
-653.857	-5.278	-0.394	0.273
-652.843	-67.343	0.359	0.142
-651.828	-44.879	-0.166	-0.083
-650.814	12.431	0.093	-0.072
-649.799	351.869	-0.020	0.040
-648.784	419.038	0.028	-0.061
-647.770	286.662	-0.133	0.242
-646.755	332.184	-0.310	-0.604
-645.741	-134.808	-0.313	-0.038
-644.726	427.400	0.310	0.673
-643.711	252.652	-0.237	0.408
-642.697	182.205	-0.587	-0.872
-641.682	487.770	0.268	-0.617
-640.668	-85.882	0.481	-0.150
-639.653	-200.000	0.026	-0.891
-638.638	521.079	0.296	0.699
-637.624	106.363	0.264	-0.315
-636.609	-200.000	-0.063	0.514
-635.595	800.000	0.029	-0.085
-634.580	96.671	-0.390	0.450
-633.565	-148.311	0.281	-0.023
-632.551	-200.000	-0.028	-0.289
-631.536	800.000	0.144	0.613
-630.522	-77.414	-0.366	-0.128
-629.507	-200.000	-0.024	0.163
-628.492	-74.919	-0.592	0.214
-627.478	-154.280	0.424	-0.029
-626.463	-64.372	-0.567	0.232
-625.449	14.266	-0.795	0.624
-624.434	-113.249	0.463	-0.092
-623.419	-164.769	0.273	0.012
-622.405	-14.091	0.237	0.154
-621.390	402.087	-0.352	-0.745
-620.376	223.083	0.369	0.600
-619.361	38.802	0.359	0.323
-618.346	-89.451	-0.273	-0.081
-617.332	18.232	0.136	-0.109
-616.317	-200.000	0.020	-0.214
-615.303	-42.799	0.949	-0.486
-614.288	213.031	-0.110	-0.175
-613.273	800.000	-0.136	-0.395
-612.259	-200.000	0.003	-0.393
-611.244	-108.595	0.776	-0.168
-610.230	-148.147	0.686	-0.057
-609.215	-20.405	0.319	-0.198
-608.201	-63.271	-0.460	-0.191
-607.186	662.764	0.163	-0.423
-606.171	-200.000	0.001	-0.100
-605.157	-80.702	0.329	-0.110
-604.142	-74.680	-0.373	-0.135
-603.128	-55.015	-0.182	-0.083
-602.113	-22.909	-0.197	0.119
-601.098	-130.441	-0.219	0.030
-600.084	-90.385	0.324	-0.095
-599.069	126.987	-0.661	0.843
-598.055	52.539	-0.443	0.425
-597.040	143.396	-0.514	-0.688
-596.025	-122.291	-0.410	-0.067
-595.011	50.534	0.626	-0.596
-593.996	-24.818	0.424	-0.254
-592.982	-200.000	0.008	0.060
-591.967	-120.299	-0.948	-0.163
-590.952	-95.379	-0.588	0.159
-589.938	-71.596	-0.349	-0.131
-588.923	-75.161	0.770	0.277
-587.909	454.950	0.187	-0.417
-586.894	-76.447	0.489	-0.173
-585.879	-100.677	0.293	0.073
-584.865	-55.939	0.055	-0.025
-583.850	-95.125	0.535	0.145
-582.836	-124.301	-0.567	-0.089
-581.821	-75.793	0.528	-0.188
-580.806	-53.543	0.636	0.292
-579.792	-38.394	-0.665	-0.354
-578.777	-200.000	0.015	0.787
-577.763	68.837	-0.692	0.714
-576.748	255.805	-0.019	-0.033
-575.733	19.040	0.553	0.446
-574.719	10.179	-0.166	0.127
-573.704	-200.000	0.060	-0.273
-572.690	307.816	0.219	0.411
-571.675	-200.000	0.006	-0.878
-570.661	800.000	0.072	0.214
-569.646	-81.238	-0.376	-0.125
-568.631	110.477	-0.305	0.369
-567.617	-200.000	0.047	0.554
-566.602	-200.000	-0.143	-0.750
-565.588	46.286	-0.188	0.175
-564.573	-74.454	0.250	0.091
-563.558	-140.328	-0.370	0.039
-562.544	800.000	-0.158	0.568
-561.529	-61.107	-0.373	0.158
-560.515	-115.161	0.391	-0.074
-559.500	800.000	-0.175	-0.638
-558.485	800.000	-0.120	0.364
-557.471	-131.793	-0.339	-0.045
-556.456	-115.005	0.081	0.015
-555.442	-200.000	-0.187	-0.847
-554.427	-72.067	-0.308	0.115
-553.412	-107.055	-0.229	0.051
-552.398	-116.418	-0.315	-0.058
-551.383	8.635	0.222	0.168
-550.369	395.482	-0.190	-0.399
-549.354	-200.000	0.088	-0.713
-548.339	-105.212	0.131	-0.030
-547.325	-7.643	0.249	0.169
-546.310	-120.138	-0.719	-0.123
-545.296	-200.000	-0.293	-0.001
-544.281	451.378	0.286	-0.634
-543.266	85.531	-0.515	0.568
-542.252	-200.000	-0.115	-0.657
-541.237	110.512	-0.201	0.243
-540.223	-200.000	-0.038	0.317
-539.208	800.000	-0.091	-0.359
-538.193	-25.941	-0.270	0.159
-537.179	47.488	-0.493	0.461
-536.164	111.766	-0.371	0.450
-535.150	800.000	-0.184	-0.762
-534.135	-48.905	-0.197	-0.095
-533.121	-65.641	-0.352	0.142
-532.106	-200.000	-0.047	0.419
-531.091	77.458	0.865	0.924
-530.077	-78.606	-0.777	0.266
-529.062	120.207	-0.485	0.604
-528.048	206.714	0.334	0.523
-527.033	800.000	-0.150	0.654
-526.018	264.396	-0.578	1.010
-525.004	1.357	-0.535	-0.386
-523.989	-43.080	0.664	0.338
-522.975	800.000	-0.035	-0.141
-521.960	-200.000	0.012	0.772
-520.945	-150.626	-0.544	0.042
-519.931	800.000	0.248	0.975
-518.916	-25.588	-0.602	-0.356
-517.902	800.000	0.226	-0.934
-516.887	-116.188	-0.333	-0.062
-515.872	420.052	0.102	0.219
-514.858	5.794	-0.659	-0.489
-513.843	165.055	0.338	0.478
-512.829	-200.000	-0.060	-0.885
-511.814	361.643	-0.516	-1.038
-510.799	61.361	0.154	-0.153
-509.785	-10.243	-0.184	-0.123
-508.770	-120.820	0.559	-0.095
-507.756	-200.000	0.045	-0.382
-506.741	103.146	-0.190	-0.223
-505.726	-64.423	-0.213	0.087
-504.712	-53.694	-0.503	0.230
-503.697	-49.965	-0.308	-0.146
-502.683	-200.000	-0.093	-1.049
-501.668	36.558	-0.241	-0.213
-500.653	411.083	-0.022	0.047
-499.639	-55.407	-0.286	0.129
-498.624	130.689	-0.510	0.655
-497.610	185.079	-0.273	-0.406
-496.595	-63.743	0.940	-0.386
-495.581	-159.706	-0.833	-0.046
-494.566	-200.000	-0.032	0.185
-493.551	11.379	0.514	-0.395
-492.537	-98.795	0.193	0.049
-491.522	-69.260	0.507	0.195
-490.508	-156.206	1.342	-0.085
-489.493	793.181	-0.181	-0.499
-488.478	183.411	-0.364	-0.539
-487.464	4.780	0.584	-0.430
-486.449	-48.385	0.672	0.324
-485.435	99.088	-0.483	0.559
-484.420	-78.290	1.001	-0.344
-483.405	-146.449	1.035	0.090
-482.391	-122.002	-0.609	0.100
-481.376	-148.552	-0.828	0.068
-480.362	-164.779	0.606	0.027
-479.347	-45.660	-1.011	0.501
-478.332	44.267	0.176	-0.162
-477.318	-127.244	-0.139	-0.020
-476.303	-131.231	0.584	0.078
-475.289	800.000	-0.160	-0.603
-474.274	-71.085	0.398	0.150
-473.259	-200.000	0.029	0.471
-472.245	-114.719	0.619	0.119
-471.230	-133.149	-0.520	0.066
-470.216	123.817	-0.689	-0.866
-469.201	264.803	0.064	0.112
-468.186	-156.493	0.508	-0.032
-467.172	-200.000	0.046	-0.922
-466.157	6.705	0.500	-0.372
-465.143	128.932	0.180	-0.230
-464.128	-95.577	0.430	-0.115
-463.113	-64.964	-0.509	0.206
-462.099	-127.498	-0.360	-0.052
-461.084	-163.857	-0.213	-0.010
-460.070	-58.059	0.265	-0.115
-459.055	-25.672	0.615	0.363
-458.040	-200.000	-0.013	0.119
-457.026	283.046	-0.348	-0.624
-456.011	800.000	0.368	1.387
-454.997	800.000	0.081	0.227
-453.982	422.814	0.231	-0.496
-452.968	-62.739	0.093	0.039
-451.953	-200.000	0.006	-0.511
-450.938	800.000	0.194	0.733
-449.924	-37.664	-0.449	-0.239
-448.909	328.081	-0.410	-0.787
-447.895	-200.000	-0.084	0.382
-446.880	367.170	0.220	-0.444
-445.865	90.164	0.251	0.281
-444.851	-200.000	-0.093	-0.567
-443.836	800.000	-0.251	1.091
-442.822	-14.950	0.125	-0.080
-441.807	-103.723	-0.322	-0.075
-440.792	390.101	-0.091	0.188
-439.778	412.321	-0.211	0.448
-438.763	103.928	0.512	-0.602
-437.749	641.352	0.343	-0.874
-436.734	107.457	-0.429	-0.510
-435.719	632.277	0.185	-0.468
-434.705	-200.000	0.028	0.670
-433.690	29.780	0.337	0.287
-432.676	-200.000	-0.114	0.566
-431.661	-68.102	1.405	0.547
-430.646	-39.513	-0.175	0.092
-429.632	800.000	0.178	-0.505
-428.617	-44.704	0.503	-0.251
-427.603	-88.452	-0.907	-0.271
-426.588	18.348	0.543	-0.433
-425.573	-141.993	-0.470	0.047
-424.559	-200.000	0.042	-0.292
-423.544	-81.825	0.152	0.050
-422.530	185.717	-0.411	-0.610
-421.515	341.325	0.491	-0.960
-420.500	73.624	-0.160	-0.167
-419.486	-198.487	0.688	-0.004
-418.471	-200.000	0.227	-1.015
-417.457	113.823	0.640	0.777
-416.442	522.394	-0.060	0.140
-415.428	-152.497	-0.647	-0.046
-414.413	-200.000	-0.242	0.001
-413.398	375.260	-0.146	-0.297
-412.384	800.000	-0.119	0.381
-411.369	-200.000	0.012	0.714
-410.355	-59.346	-0.206	-0.088
-409.340	151.040	0.390	-0.530
-408.325	-97.627	0.786	0.204
-407.311	-94.231	0.818	0.223
-406.296	15.701	0.514	-0.404
-405.282	323.205	-0.188	-0.359
-404.267	-200.000	-0.006	-0.298
-403.252	38.694	0.264	-0.235
-402.238	79.949	0.312	0.335
-401.223	122.801	-0.572	-0.715
-400.209	800.000	-0.071	-0.226
-399.194	-74.571	-0.283	0.102
-398.179	-67.571	-0.119	0.047
-397.165	-200.000	0.065	0.326
-396.150	29.145	-0.924	-0.783
-395.136	-200.000	0.071	-0.345
-394.121	-139.577	-0.237	-0.025
-393.106	-2.896	-0.561	0.391
-392.092	784.589	0.199	0.544
-391.077	41.268	-0.204	-0.184
-390.063	-126.519	0.241	-0.036
-389.048	7.755	0.209	-0.156
-388.033	-173.263	-0.938	0.029
-387.019	55.503	-0.447	-0.432
-386.004	-87.760	-0.263	0.079
-384.990	147.315	-0.203	-0.272
-383.975	-140.456	-0.837	-0.087
-382.960	-55.627	0.425	0.190
-381.946	-115.902	-0.557	-0.104
-380.931	113.311	-0.518	-0.627
-379.917	100.142	-0.611	0.707
-378.902	800.000	0.177	0.602
-377.888	-8.996	0.304	0.203
-376.873	800.000	-0.074	0.314
-375.858	49.972	0.459	0.432
-374.844	24.250	0.420	0.346
-373.829	-200.000	0.052	-0.769
-372.815	800.000	0.195	0.801
-371.800	-200.000	0.079	-0.586
-370.785	100.503	0.484	-0.561
-369.771	102.813	0.196	0.229
-368.756	66.764	-0.055	0.056
-367.742	258.670	0.389	-0.669
-366.727	-79.357	-0.806	-0.272
-365.712	10.661	0.865	0.658
-364.698	30.934	0.716	-0.612
-363.683	192.565	-0.181	-0.273
-362.669	-200.000	0.061	0.485
-361.654	800.000	0.336	-1.281
-360.639	354.861	0.217	0.430
-359.625	448.093	-0.088	-0.193
-358.610	118.841	-0.170	0.210
-357.596	-88.588	0.551	0.163
-356.581	25.772	0.201	-0.167
-355.566	190.162	-0.424	-0.634
-354.552	3.667	0.668	0.486
-353.537	-163.122	0.547	-0.026
-352.523	-200.000	-0.057	-0.445
-351.508	152.543	0.284	-0.387
-350.493	-117.305	0.698	0.126
-349.479	242.387	-0.509	0.849
-348.464	-200.000	0.043	0.209
-347.450	-120.793	0.950	-0.160
-346.435	-40.232	1.139	0.591
-345.420	100.603	-0.208	0.241
-344.406	-18.451	-0.346	-0.215
-343.391	355.107	0.083	0.164
-342.377	643.726	0.210	0.534
-341.362	607.610	-0.430	1.068
-340.348	11.997	-0.444	0.340
-339.333	-36.483	0.768	-0.412
-338.318	-24.177	0.422	-0.251
-337.304	81.547	-0.059	-0.064
-336.289	800.000	-0.224	-0.804
-335.275	69.410	0.299	-0.306
-334.260	-36.227	-0.723	0.389
-333.245	-116.711	-0.181	0.033
-332.231	0.524	-0.919	-0.654
-331.216	-200.000	-0.123	0.585
-330.202	-178.512	-0.386	-0.009
-329.187	-200.000	0.029	0.690
-328.172	7.844	-0.311	-0.232
-327.158	800.000	0.050	-0.186
-326.143	126.294	0.272	-0.343
-325.129	-45.803	0.223	-0.110
-324.114	56.874	0.299	-0.290
-323.099	-199.805	0.356	-0.002
-322.085	-157.320	1.067	0.064
-321.070	-200.000	-0.027	0.557
-320.056	-123.792	0.202	0.032
-319.041	-115.532	0.037	0.007
-318.026	-87.706	-0.895	0.269
-317.012	503.474	-0.306	-0.705
-315.997	728.116	-0.215	0.572
-314.983	29.084	0.477	0.403
-313.968	-200.000	-0.006	0.756
-312.953	-200.000	0.015	0.401
-311.939	-4.651	0.350	-0.241
-310.924	-155.292	-0.862	0.056
-309.910	668.901	-0.160	-0.412
-308.895	61.007	0.178	-0.175
-307.880	177.907	0.622	-0.902
-306.866	96.135	-0.334	0.380
-305.851	-200.000	-0.108	0.569
-304.837	-200.000	-0.058	0.534
-303.822	-81.578	0.640	-0.209
-302.807	800.000	-0.064	0.190
-301.793	295.913	-0.306	-0.557
-300.778	-1.782	0.441	0.308
-299.764	-91.372	0.271	0.077
-298.749	-38.194	-0.893	0.471
-297.735	-57.875	0.799	0.347
-296.720	-2.611	0.446	0.310
-295.705	-110.170	-0.144	-0.030
-294.691	800.000	0.141	0.394
-293.676	-79.995	0.599	-0.200
-292.662	-155.837	-0.265	0.017
-291.647	195.058	-0.182	0.275
-290.632	-200.000	-0.111	0.544
-289.618	-200.000	0.015	-0.214
-288.603	-77.141	0.939	0.325
-287.589	-29.506	-0.440	-0.250
-286.574	-185.817	0.267	0.004
-285.559	570.590	-0.080	-0.194
-284.545	-10.255	-0.719	0.474
-283.530	-138.701	-0.662	0.072
-282.516	800.000	0.023	0.097
-281.501	185.126	-0.546	0.806
-280.486	6.865	0.772	0.572
-279.472	-91.915	-0.318	-0.090
-278.457	-129.631	-0.616	0.085
-277.443	99.090	0.354	0.407
-276.428	-51.916	1.000	-0.462
-275.413	-160.720	-0.589	-0.031
-274.399	800.000	-0.207	-0.839
-273.384	-95.621	0.567	0.151
-272.370	-57.642	0.520	-0.226
-271.355	37.521	0.216	0.191
-270.340	113.891	1.000	1.208
-269.326	-34.874	0.135	0.073
-268.311	-72.989	0.467	0.170
-267.297	-45.368	-0.462	-0.228
-266.282	-15.072	-0.989	-0.629
-265.267	-129.434	0.569	0.078
-264.253	-84.264	0.364	-0.114
-263.238	-152.667	0.584	-0.041
-262.224	80.809	-0.175	0.187
-261.209	14.846	-0.387	-0.301
-260.195	-200.000	-0.002	-0.397
-259.180	-191.056	0.422	-0.004
-258.165	-63.672	-0.527	0.214
-257.151	-200.000	-0.140	0.720
-256.136	-117.948	-0.654	-0.116
-255.122	254.011	0.396	-0.671
-254.107	152.796	0.343	-0.465
-253.092	53.175	-1.040	0.989
-252.078	-110.173	-0.939	0.194
-251.063	266.299	0.256	0.444
-250.049	-104.576	0.577	0.132
-249.034	238.180	0.418	0.689
-248.019	-106.465	-0.484	0.107
-247.005	25.849	0.500	0.413
-245.990	-200.000	0.166	-0.853
-244.976	-91.858	-0.293	-0.082
-243.961	677.581	0.071	-0.183
-242.946	44.540	-0.408	0.372
-241.932	-170.428	0.229	0.008
-240.917	-84.459	-0.613	-0.192
-239.903	-200.000	-0.058	-0.360
-238.888	8.577	0.241	0.180
-237.873	-1.737	-0.451	0.315
-236.859	-47.258	-0.466	0.225
-235.844	800.000	0.075	0.260
-234.830	800.000	0.162	-0.601
-233.815	306.814	0.054	0.100
-232.800	-64.360	0.611	0.247
-231.786	-200.000	-0.013	-0.267
-230.771	-57.322	0.414	0.181
-229.757	-90.472	0.464	-0.133
-228.742	800.000	0.052	-0.220
-227.727	-117.860	-0.126	-0.022
-226.713	44.302	-0.801	-0.729
-225.698	-88.774	-1.143	-0.337
-224.684	-200.000	-0.040	-0.432
-223.669	526.613	-0.174	-0.408
-222.655	-128.776	-0.484	-0.068
-221.640	-104.484	0.487	-0.112
-220.625	800.000	0.171	0.537
-219.611	1.557	-0.117	0.083
-218.596	612.751	0.140	-0.348
-217.582	800.000	0.080	-0.314
-216.567	-10.162	-0.249	0.164
-215.552	-51.404	-0.126	-0.058
-214.538	-84.998	-0.506	-0.157
-213.523	246.622	0.607	1.014
-212.509	-200.000	0.005	-0.271
-211.494	-68.987	-0.125	-0.048
-210.479	588.138	-0.130	-0.317
-209.465	141.873	-0.135	-0.178
-208.450	800.000	-0.058	0.237
-207.436	152.848	0.267	-0.362
-206.421	105.606	-0.250	0.293
-205.406	-175.191	-0.445	-0.012
-204.392	-200.000	0.076	-0.578
-203.377	15.246	-0.189	0.147
-202.363	-35.814	-0.241	-0.130
-201.348	302.186	0.216	-0.396
-200.333	-134.029	0.130	0.016
-199.319	128.552	-0.060	-0.076
-198.304	740.042	0.279	0.741
-197.290	-200.000	0.010	-0.142
-196.275	-20.090	-0.830	-0.507
-195.260	668.422	0.304	-0.779
-194.246	-200.000	0.008	-0.222
-193.231	11.248	0.146	-0.111
-192.217	-126.230	0.698	-0.103
-191.202	28.455	0.154	0.129
-190.187	-47.645	-0.746	0.359
-189.173	800.000	-0.098	0.356
-188.158	736.458	-0.156	0.415
-187.144	-44.980	-0.602	0.297
-186.129	204.631	0.067	-0.104
-185.114	174.084	0.314	0.450
-184.100	140.917	0.076	0.100
-183.085	447.338	-0.461	1.004
-182.071	-149.205	-0.481	-0.038
-181.056	-83.444	0.408	0.129
-180.042	-200.000	0.071	0.355
-179.027	800.000	0.045	0.176
-178.012	-104.315	0.921	0.211
-176.998	-200.000	0.065	0.402
-175.983	49.030	0.519	-0.483
-174.969	336.145	0.100	-0.192
-173.954	142.128	-0.399	0.523
-172.939	-200.000	0.019	0.093
-171.925	-46.823	-0.402	-0.195
-170.910	222.622	0.382	0.609
-169.896	473.288	0.305	0.681
-168.881	636.370	-0.037	0.093
-167.866	-200.000	0.077	-0.541
-166.852	81.880	0.422	0.452
-165.837	77.000	-0.227	0.239
-164.823	-200.000	-0.054	0.392
-163.808	307.197	0.298	0.550
-162.793	-200.000	-0.015	0.277
-161.779	-69.495	0.387	0.147
-160.764	299.241	0.470	-0.856
-159.750	-3.950	0.304	-0.208
-158.735	411.159	0.147	-0.310
-157.720	396.645	-0.195	0.403
-156.706	800.000	-0.101	0.351
-155.691	-165.173	-0.712	-0.031
-154.677	16.345	-0.191	-0.149
-153.662	-98.865	0.094	-0.024
-152.647	442.171	-0.405	-0.876
-151.633	402.132	0.265	0.550
-150.618	144.627	0.472	0.623
-149.604	41.205	0.299	-0.267
-148.589	-200.000	-0.054	0.442
-147.574	-4.900	0.548	0.373
-146.560	43.365	-0.598	-0.540
-145.545	302.467	-0.482	-0.881
-144.531	130.946	-0.184	0.234
-143.516	117.278	0.278	0.338
-142.502	332.296	-0.166	-0.316
-141.487	-111.717	-1.284	0.257
-140.472	229.364	-0.142	-0.230
-139.458	-34.802	-0.312	0.168
-138.443	47.274	-0.064	0.059
-137.429	800.000	0.234	-0.678
-136.414	-64.545	0.197	-0.079
-135.399	-86.340	-0.267	-0.081
-134.385	283.347	0.350	-0.621
-133.370	8.099	0.141	0.105
-132.356	-160.662	0.720	0.038
-131.341	-89.409	1.048	0.305
-130.326	321.530	-0.570	1.072
-129.312	-36.874	-1.016	0.539
-128.297	-67.828	-0.463	-0.179
-127.283	196.619	0.420	-0.632
-126.268	307.996	-0.109	-0.201
-125.253	23.865	-0.547	0.446
-124.239	-41.796	0.806	0.409
-123.224	-200.000	0.023	-0.184
-122.210	-200.000	0.053	-0.849
-121.195	800.000	-0.201	-0.575
-120.180	-61.294	0.601	0.250
-119.166	-88.846	0.534	-0.156
-118.151	179.079	-0.478	0.690
-117.137	-48.731	0.257	0.122
-116.122	68.840	0.911	0.924
-115.107	77.806	-0.074	-0.078
-114.093	-25.123	-0.537	0.314
-113.078	476.282	-0.154	0.344
-112.064	147.136	-0.150	0.200
-111.049	393.984	0.123	0.253
-110.034	-200.000	-0.062	-1.285
-109.020	90.021	0.558	-0.615
-108.005	-127.305	0.396	-0.057
-106.991	800.000	0.029	0.100
-105.976	-103.535	0.093	-0.022
-104.962	9.979	0.285	0.213
-103.947	-67.216	-0.316	0.123
-102.932	-169.701	0.371	0.013
-101.918	-171.051	-0.915	0.031
-100.903	-132.976	0.487	-0.061
-99.889	-5.246	-0.294	0.199
-98.874	215.443	0.146	0.229
-97.859	95.593	0.258	-0.290
-96.845	-176.084	-1.240	0.032
-95.830	-200.000	0.021	-0.401
-94.816	-87.286	0.089	0.027
-93.801	-183.661	0.209	0.004
-92.786	555.020	-0.290	0.689
-91.772	-13.243	0.143	0.092
-90.757	29.932	0.219	-0.184
-89.743	-138.080	-0.585	-0.064
-88.728	399.526	0.148	0.305
-87.713	22.328	0.520	-0.419
-86.699	-175.135	0.625	-0.017
-85.684	-95.086	0.376	-0.100
-84.670	-148.221	0.670	-0.055
-83.655	800.000	0.313	1.007
-82.640	237.401	0.066	0.107
-81.626	-138.513	0.647	-0.070
-80.611	-38.844	0.488	-0.253
-79.597	-22.299	0.437	0.261
-78.582	-32.238	-0.793	-0.437
-77.567	-7.626	0.788	0.526
-76.553	108.499	0.398	-0.468
-75.538	-82.630	0.502	0.160
-74.524	-132.624	0.576	-0.073
-73.509	766.673	-0.123	0.329
-72.494	24.163	-0.141	0.115
-71.480	-92.698	0.198	0.055
-70.465	-195.813	0.225	-0.002
-69.451	-95.248	0.712	-0.189
-68.436	24.737	0.650	-0.530
-67.422	-133.324	-0.511	0.063
-66.407	-200.000	-0.085	0.958
-65.392	-200.000	-0.008	0.421
-64.378	-200.000	0.010	-0.752
-63.363	3.508	0.203	0.146
-62.349	-114.198	-0.516	0.098
-61.334	-39.263	-0.734	-0.380
-60.319	-102.383	0.177	-0.042
-59.305	-200.000	0.156	-0.950
-58.290	-200.000	0.192	1.360
-57.276	567.910	0.779	1.864
-56.261	-200.000	96.783	582.982
-55.246	657.728	1362.358	3450.643
-54.232	202.726	2523.126	3838.640
-53.217	117.268	2143.797	2595.845
-52.203	43.204	1695.662	1524.710
-51.188	35.842	1510.531	1308.371
-50.173	33.617	1484.219	1270.639
-49.159	53.891	1535.498	1453.139
-48.144	54.673	1552.044	1474.062
-47.130	36.100	1512.018	1311.204
-46.115	33.009	1496.877	1277.166
-45.100	32.884	1492.956	1272.929
-44.086	32.747	1492.621	1271.668
-43.071	33.002	1489.791	1270.920
-42.057	32.729	1489.505	1268.789
-41.042	32.814	1486.910	1267.097
-40.027	32.976	1484.802	1266.341
-39.013	32.689	1484.138	1263.802
-37.998	32.788	1483.593	1263.948
-36.984	32.896	1481.571	1262.897
-35.969	32.862	1480.846	1262.004
-34.954	32.856	1478.080	1259.557
-33.940	32.658	1477.749	1257.905
-32.925	32.791	1476.724	1257.867
-31.911	32.703	1475.577	1256.251
-30.896	32.942	1473.057	1255.650
-29.881	32.862	1471.975	1254.147
-28.867	32.850	1470.955	1253.143
-27.852	32.903	1469.014	1251.791
-26.838	32.896	1467.823	1250.684
-25.823	32.866	1466.712	1249.486
-24.809	32.765	1464.262	1246.686
-23.794	32.811	1463.507	1246.295
-22.779	32.711	1462.833	1245.010
-21.765	32.982	1460.570	1244.825
-20.750	32.849	1460.015	1243.425
-19.736	32.838	1460.033	1243.314
-18.721	33.077	1457.865	1242.991
-17.706	32.803	1456.234	1239.751
-16.692	32.905	1455.404	1239.668
-15.677	32.795	1454.798	1238.380
-14.663	32.750	1454.194	1237.520
-13.648	32.642	1453.320	1236.020
-12.633	32.908	1451.813	1236.430
-11.619	32.810	1450.720	1234.812
-10.604	32.904	1449.854	1234.639
-9.590	32.553	1449.129	1231.680
-8.575	33.013	1448.505	1234.107
-7.560	32.816	1446.864	1231.370
-6.546	32.510	1446.737	1229.217
-5.531	32.853	1445.301	1230.184
-4.517	32.840	1445.095	1229.874
-3.502	32.823	1443.781	1228.596
-2.487	32.875	1442.678	1227.947
-1.473	32.844	1442.300	1227.380
-0.458	32.766	1440.525	1225.314
0.556	33.575	1431.664	1213.192
1.571	30.471	1406.981	1172.615
2.586	27.144	1348.366	1103.500
3.600	25.362	1268.681	1028.001
4.615	23.829	1222.101	981.711
5.629	20.596	1164.938	918.658
6.644	11.095	1080.096	804.921
7.659	4.453	1038.630	742.290
8.673	3.142	1034.052	732.710
9.688	2.934	1030.693	729.280
10.702	3.031	1028.455	728.087
11.717	2.893	1027.138	726.442
12.731	6.090	1030.320	743.778
13.746	15.130	1043.652	796.506
14.761	22.974	1051.685	840.007
15.775	24.386	1053.882	848.404
16.790	24.390	1053.170	847.779
17.804	24.275	1052.425	846.558
18.819	24.017	1051.978	844.895
19.834	24.194	1051.766	845.493
20.848	24.024	1051.119	844.091
21.863	24.431	1049.216	844.414
22.877	24.259	1048.682	843.095
23.892	24.035	1048.881	842.124
24.907	24.277	1048.297	842.724
25.921	24.356	1047.094	842.056
26.936	24.241	1046.342	840.831
27.950	24.025	1045.987	839.453
28.965	23.853	1045.417	838.112
29.980	23.962	1042.753	836.415
30.994	23.900	1041.601	835.126
32.009	23.937	1041.470	835.118
33.023	24.271	1040.756	836.039
34.038	23.972	1040.476	834.340
35.053	24.004	1038.836	833.100
36.067	23.906	1038.405	832.223
37.082	24.041	1037.134	831.759
38.096	23.918	1036.480	830.587
39.111	23.878	1036.525	830.363
40.126	24.204	1035.421	830.928
41.140	23.870	1034.768	828.771
42.155	23.991	1033.209	828.016
43.169	23.858	1030.931	825.496
44.184	23.724	1030.934	824.805
45.199	23.470	1030.028	822.830
46.213	23.463	1028.888	821.813
47.228	23.783	1027.780	822.337
48.242	23.591	1028.214	821.721
49.257	24.178	1027.622	823.890
50.271	24.205	1025.954	822.607
51.286	24.230	1024.753	821.684
52.301	24.410	1023.542	821.469
53.315	24.186	1023.307	820.180
54.330	24.527	1022.719	821.202
55.344	24.093	1022.569	819.014
56.359	23.997	1021.494	817.638
57.374	24.043	1020.429	816.925
58.388	24.038	1019.544	816.119
59.403	23.947	1018.766	815.008
60.417	24.202	1017.492	815.086
61.432	23.578	1017.955	812.529
62.447	23.938	1016.654	813.061
63.461	23.722	1016.362	811.769
64.476	24.022	1015.458	812.346
65.490	23.954	1013.325	810.259
66.505	23.568	1014.387	809.273
67.520	24.114	1012.250	809.982
68.534	23.669	1012.631	808.189
69.549	23.394	1012.059	806.409
70.563	23.558	1010.390	805.754
71.578	23.495	1010.089	805.160
72.593	23.383	1008.985	803.700
73.607	22.705	1007.283	799.199
74.622	22.635	1006.926	798.529
75.636	23.118	1006.079	799.972
76.651	23.309	1005.263	800.117
77.666	23.488	1003.614	799.539
78.680	23.212	1004.916	799.261
79.695	23.304	1003.281	798.304
80.709	23.378	1002.272	797.764
81.724	23.423	1002.096	797.755
82.739	23.456	1000.568	796.615
83.753	23.272	1000.571	795.723
84.768	23.899	1000.192	798.166
85.782	24.635	998.920	800.375
86.797	24.583	999.050	800.180
87.812	24.644	998.114	799.629
88.826	24.440	996.932	797.702
89.841	24.382	996.077	796.685
90.855	24.412	995.538	796.318
91.870	24.548	994.737	796.216
92.884	24.395	993.745	794.668
93.899	24.504	993.285	794.714
94.914	24.381	992.035	793.097
95.928	24.577	991.318	793.326
96.943	24.675	990.642	793.148
97.957	24.196	989.619	790.136
98.972	24.072	989.098	789.102
99.987	24.098	988.366	788.561
101.001	24.194	988.259	788.834
102.016	24.420	987.219	788.931
103.030	24.305	986.332	787.647
104.045	24.215	985.732	786.701
105.060	24.241	985.600	786.637
106.074	24.401	983.667	785.730
107.089	24.237	982.134	783.716
108.103	24.344	981.074	783.273
109.118	24.050	980.514	781.466
110.133	23.767	979.301	779.188
111.147	23.496	979.703	778.249
112.162	23.299	978.400	776.282
113.176	23.348	977.052	775.358
114.191	23.703	975.951	775.968
115.206	23.700	974.869	775.025
116.220	23.652	974.162	774.187
117.235	23.741	973.113	773.669
118.249	23.581	972.472	772.395
119.264	23.336	972.940	771.630
120.279	23.240	971.322	769.864
121.293	23.159	970.609	768.878
122.308	23.032	971.165	768.699
123.322	23.087	968.488	766.749
124.337	23.066	968.050	766.243
125.352	22.923	967.072	764.785
126.366	23.092	965.298	764.044
127.381	23.281	964.024	763.784
128.395	23.593	963.473	764.621
129.410	23.829	963.389	765.504
130.424	23.791	962.908	764.890
131.439	23.728	962.241	764.023
132.454	23.996	960.848	764.000
133.468	24.110	960.705	764.309
134.483	23.820	959.705	762.202
135.497	23.826	959.116	761.694
136.512	23.908	958.687	761.637
137.527	24.013	957.508	761.081
138.541	23.988	956.997	760.501
139.556	24.319	955.275	760.476
140.570	24.227	955.080	759.860
141.585	24.275	954.523	759.556
142.600	24.449	953.540	759.447
143.614	24.440	952.736	758.701
144.629	24.063	953.127	757.342
145.643	24.624	952.538	759.190
146.658	24.650	950.164	757.343
147.673	24.401	948.471	754.872
148.687	24.220	948.583	754.130
149.702	24.044	947.349	752.339
150.716	24.094	945.741	751.204
151.731	24.071	945.832	751.113
152.746	23.744	945.690	749.554
153.760	24.186	944.137	750.119
154.775	24.181	943.883	749.830
155.789	24.093	942.930	748.637
156.804	24.369	941.892	748.905
157.819	24.168	941.976	748.063
158.833	24.043	941.850	747.370
159.848	24.288	940.362	747.149
160.862	24.619	939.654	747.906
161.877	24.443	937.907	745.715
162.892	24.188	936.949	743.822
163.906	23.937	936.748	742.551
164.921	23.931	935.581	741.534
165.935	24.188	933.474	740.869
166.950	23.879	934.217	740.106
167.964	24.412	932.108	740.583
168.979	24.278	931.177	739.221
169.994	24.283	930.593	738.714
171.008	23.839	930.001	736.338
172.023	23.959	928.749	735.777
173.037	24.169	928.347	736.265
174.052	24.774	927.545	738.060
175.067	24.450	926.437	735.775
176.081	24.247	925.292	733.966
177.096	23.801	924.925	731.777
178.110	23.829	923.694	730.851
179.125	23.787	922.110	729.361
180.140	23.450	923.062	728.663
181.154	23.478	921.119	727.181
182.169	23.997	920.316	728.609
183.183	23.965	921.729	729.533
184.198	24.325	920.952	730.324
185.213	23.968	919.450	727.612
186.227	24.101	919.365	728.024
187.242	24.132	919.727	728.372
188.256	24.332	917.870	727.653
189.271	24.374	916.879	726.976
190.286	24.544	916.065	726.956
191.300	24.525	914.934	725.919
192.315	23.707	914.576	722.242
193.329	23.197	913.118	718.958
194.344	23.014	912.591	717.736
195.359	23.560	912.584	719.882
196.373	23.915	913.357	721.871
197.388	24.396	911.531	722.311
198.402	24.470	911.713	722.691
199.417	24.451	912.774	723.391
200.432	24.706	911.440	723.303
201.446	24.829	910.856	723.271
202.461	24.468	910.572	721.525
203.475	24.619	909.610	721.306
204.490	24.662	908.741	720.729
205.504	23.764	906.825	715.528
206.519	23.914	906.327	715.676
207.534	24.036	905.373	715.348
208.548	24.336	904.753	716.003
209.563	24.406	904.495	716.015
210.577	24.499	904.544	716.365
211.592	24.014	903.178	713.273
212.607	24.436	903.703	715.317
213.621	24.841	902.843	716.197
214.636	24.873	901.076	714.857
215.650	24.677	900.401	713.478
216.665	24.736	900.364	713.622
217.680	24.987	898.949	713.435
218.694	24.678	899.671	712.712
219.709	24.883	898.860	712.824
220.723	24.655	897.820	711.029
221.738	24.416	898.062	710.208
222.753	24.317	897.244	709.104
223.767	23.931	895.780	706.350
224.782	24.454	894.839	707.622
225.796	24.670	894.582	708.211
226.811	24.809	894.205	708.403
227.826	24.903	893.326	708.014
228.840	24.011	892.856	704.049
229.855	24.170	890.801	702.994
230.869	24.036	891.256	702.764
231.884	23.921	890.942	701.999
232.899	23.917	890.590	701.646
233.913	24.397	889.006	702.224
234.928	24.649	888.984	703.136
235.942	24.120	887.398	699.742
236.957	23.762	887.289	698.189
237.972	23.526	887.086	697.037
238.986	23.833	886.417	697.657
240.001	23.724	884.537	695.686
241.015	23.937	885.143	696.937
242.030	23.845	884.175	695.752
243.045	24.100	883.472	696.137
244.059	24.247	882.991	696.272
245.074	24.050	883.182	695.589
246.088	24.280	882.334	695.758
247.103	24.269	881.525	695.013
248.117	24.625	881.036	695.957
249.132	24.991	881.449	697.643
250.147	24.866	881.893	697.449
251.161	25.092	881.280	697.780
252.176	25.184	880.666	697.593
253.190	25.251	879.752	697.064
254.205	25.377	878.502	696.503
255.220	25.524	878.690	697.158
256.234	25.201	877.809	695.147
257.249	25.193	876.972	694.393
258.263	25.101	876.314	693.453
259.278	24.897	875.942	692.308
260.293	24.932	875.346	691.914
261.307	25.271	875.131	692.992
262.322	25.144	875.131	692.439
263.336	25.330	874.129	692.302
264.351	25.267	873.234	691.289
265.366	25.031	871.299	688.788
266.380	24.447	871.892	686.951
267.395	24.914	870.720	687.759
268.409	25.504	869.703	689.157
269.424	25.496	869.664	689.037
270.439	25.101	868.976	686.916
271.453	25.494	867.813	687.440
272.468	25.223	866.601	685.386
273.482	25.035	867.140	685.030
274.497	25.188	866.774	685.264
275.512	25.197	866.949	685.378
276.526	25.237	864.812	683.780
277.541	25.166	865.122	683.694
278.555	25.380	864.264	683.770
279.570	25.138	864.265	682.789
280.585	25.409	862.578	682.426
281.599	25.519	862.191	682.475
282.614	25.140	862.080	680.889
283.628	24.795	861.343	678.938
284.643	24.779	860.558	678.199
285.657	24.973	859.191	677.797
286.672	24.930	860.411	678.536
287.687	24.717	859.577	677.011
288.701	24.976	859.151	677.597
289.716	25.153	857.929	677.242
290.730	24.726	858.073	675.682
291.745	24.896	857.098	675.495
292.760	24.845	856.393	674.686
293.774	25.177	855.089	674.850
294.789	25.265	855.887	675.751
295.803	26.002	854.675	677.503
296.818	25.474	854.795	675.556
297.833	25.527	854.080	675.130
298.847	25.117	853.397	672.992
299.862	25.333	852.218	672.813
300.876	25.075	852.671	672.144
301.891	25.719	850.980	673.161
302.906	25.718	850.339	672.591
303.920	25.467	850.350	671.600
304.935	25.553	849.515	671.201
305.949	25.710	849.567	671.768
306.964	25.816	848.503	671.264
307.979	25.628	847.622	669.807
308.993	25.396	846.772	668.216
310.008	25.695	846.472	669.031
311.022	25.474	846.142	667.889
312.037	25.214	845.987	666.742
313.052	25.340	845.731	666.949
314.066	25.392	844.879	666.410
315.081	24.997	843.893	664.110
316.095	25.022	842.916	663.375
317.110	25.084	843.118	663.705
318.125	24.994	842.413	662.757
319.139	24.817	842.204	661.879
320.154	24.528	841.446	660.156
321.168	24.113	840.377	657.730
322.183	24.612	839.391	658.739
323.197	24.833	839.002	659.188
324.212	24.938	839.674	660.045
325.227	24.642	839.918	659.086
326.241	24.939	838.322	658.870
327.256	25.060	837.164	658.346
328.270	24.642	837.331	656.884
329.285	24.512	837.190	656.236
330.300	24.563	835.377	654.946
331.314	24.771	835.441	655.701
332.329	24.605	834.507	654.302
333.343	24.666	834.400	654.383
334.358	24.937	834.190	655.152
335.373	25.007	834.104	655.281
336.387	25.462	832.060	655.276
337.402	25.477	832.668	655.753
338.416	25.163	832.048	654.063
339.431	25.550	831.095	654.664
340.446	25.862	831.458	656.028
341.460	25.993	830.845	655.961
342.475	25.811	830.486	654.959
343.489	25.750	830.036	654.326
344.504	25.877	829.336	654.175
345.519	26.112	829.432	655.046
346.533	26.189	828.704	654.694
347.548	26.135	827.943	653.839
348.562	25.814	827.101	651.955
349.577	25.582	827.155	651.100
350.592	25.565	826.951	650.821
351.606	25.607	825.300	649.615
352.621	25.288	825.487	648.552
353.635	25.477	824.244	648.200
354.650	25.509	824.288	648.292
355.665	25.461	822.811	646.902
356.679	25.354	822.178	645.959
357.694	25.265	822.280	645.665
358.708	25.776	821.532	646.855
359.723	25.586	820.823	645.556
360.738	25.267	820.157	643.834
361.752	25.201	820.579	643.871
362.767	25.691	819.581	644.786
363.781	25.609	820.025	644.785
364.796	26.021	818.931	645.341
365.810	25.894	819.233	645.067
366.825	25.956	819.044	645.082
367.840	25.975	818.915	644.993
368.854	25.838	817.787	643.558
369.869	25.400	817.682	641.855
370.883	25.647	816.061	641.405
371.898	25.037	816.154	639.248
372.913	25.751	815.589	641.290
373.927	25.939	815.002	641.442
374.942	25.845	813.642	639.982
375.956	25.583	813.689	639.031
376.971	25.557	812.842	638.217
377.986	25.723	811.937	638.039
379.000	26.208	811.523	639.374
380.015	26.296	810.622	638.919
381.029	25.938	811.151	638.011
382.044	25.980	810.703	637.752
383.059	26.575	809.155	638.578
384.073	26.251	809.133	637.362
385.088	26.258	808.101	636.515
386.102	25.917	807.834	635.048
387.117	25.675	806.807	633.334
388.132	25.359	806.331	631.791
389.146	25.475	805.851	631.766
390.161	25.235	805.677	630.732
391.175	25.802	805.383	632.436
392.190	26.403	804.601	633.875
393.205	26.223	803.591	632.394
394.219	25.651	803.040	629.901
395.234	25.011	802.488	627.172
396.248	24.332	802.110	624.447
397.263	24.870	802.201	626.343
398.278	25.752	801.337	628.694
399.292	25.768	799.790	627.482
400.307	25.072	800.402	625.477
401.321	25.098	800.200	625.357
402.336	24.999	799.319	624.269
403.350	25.398	799.635	625.849
404.365	25.635	800.075	626.963
405.380	26.090	799.417	627.977
406.394	26.720	799.063	629.832
407.409	26.661	798.620	629.224
408.423	26.536	798.776	628.857
409.438	26.747	797.182	628.278
410.453	26.544	797.356	627.654
411.467	26.788	796.323	627.631
412.482	26.146	796.520	625.507
413.496	26.366	796.247	626.001
414.511	26.283	796.161	625.589
415.526	26.569	794.117	624.914
416.540	26.212	794.070	623.590
417.555	26.532	794.076	624.646
418.569	26.286	793.728	623.468
419.584	26.457	793.115	623.521
420.599	26.484	792.888	623.380
421.613	159.563	1370.119	1792.487
422.628	138.231	1454.244	1792.551
