DTS Sentinel unit serial number:	SN413079Multiplexer serial number:	ORYXHardware model number:	OX4-SRSoftware version number:	ORYX F/W v4.00 Oryx Data Collector v3.7.2.0data status	okinstallation	princeton_trtdifferential loss correction	single-endedforward channel	channel 3reverse channel	N/Adate	2019/09/15time	03:16:35forward acquisition time	60.00reverse acquisition time	0.00gamma	496.2192k internal	0.2324k external	0.2324temperature offset calibration	0.9967default loss term (dB/km)	0.3790temperature slope calibration	1.0000multiplexer offset coefficient	1.0000multiplexer slope coefficient	1.0000fibre end	0.00T internal ref (°C)	31.12T ext. ref 1 (°C)	4.59T ext. ref 2 (°C)	25.72length (m)	temperature (°C)	Stokes	anti-Stokes-747.200	3.867	-0.163	-0.120
-746.185	-125.751	-0.126	-0.019
-745.171	-117.365	0.286	-0.052
-744.156	-15.014	-0.228	-0.147
-743.142	-78.156	-0.269	0.093
-742.127	800.000	-0.095	0.303
-741.112	-36.817	0.189	-0.103
-740.098	-107.393	-0.352	0.078
-739.083	-48.975	0.313	0.151
-738.069	365.554	0.166	0.337
-737.054	800.000	-0.033	-0.130
-736.039	-200.000	0.058	-0.313
-735.025	-37.415	-0.205	0.110
-734.010	-162.259	-0.399	-0.020
-732.996	6.068	0.128	-0.096
-731.981	38.245	0.100	-0.090
-730.966	800.000	0.050	-0.173
-729.952	310.216	-0.073	0.139
-728.937	119.273	-0.291	-0.363
-727.923	800.000	0.083	-0.236
-726.908	-68.755	0.113	-0.044
-725.894	36.887	0.214	0.191
-724.879	-200.000	-0.026	-0.212
-723.864	-159.929	-0.417	-0.023
-722.850	-200.000	-0.007	-0.276
-721.835	-187.222	-0.370	-0.005
-720.821	298.033	-0.038	0.070
-719.806	32.610	-0.167	-0.146
-718.791	165.181	-0.103	-0.147
-717.777	109.942	0.138	-0.166
-716.762	800.000	0.175	-0.507
-715.748	287.400	-0.226	-0.412
-714.733	-84.325	0.218	-0.070
-713.718	-200.000	-0.001	0.166
-712.704	-28.282	0.219	0.127
-711.689	-200.000	-0.024	0.106
-710.675	800.000	-0.028	-0.083
-709.660	-71.174	-0.298	-0.113
-708.645	251.615	0.156	0.268
-707.631	-126.922	0.222	-0.033
-706.616	240.337	-0.075	-0.126
-705.602	-200.000	-0.026	0.311
-704.587	-111.417	0.158	0.033
-703.572	-200.000	-0.038	0.217
-702.558	800.000	-0.128	-0.546
-701.543	127.876	0.201	-0.257
-700.529	608.890	0.072	0.181
-699.514	43.021	0.203	-0.186
-698.499	-200.000	0.013	-0.358
-697.485	-200.000	0.003	0.429
-696.470	800.000	0.020	-0.082
-695.456	-200.000	0.059	0.326
-694.441	50.532	0.072	0.069
-693.426	-69.809	0.156	0.060
-692.412	160.634	0.206	-0.289
-691.397	199.262	-0.052	-0.081
-690.383	-2.957	-0.119	0.083
-689.368	224.768	-0.055	-0.090
-688.354	259.136	-0.109	-0.190
-687.339	-36.420	-0.195	0.106
-686.324	-200.000	0.013	0.162
-685.310	-92.841	-0.110	0.031
-684.295	504.029	0.134	0.313
-683.281	135.123	-0.035	0.046
-682.266	-74.981	-0.401	-0.145
-681.251	25.214	-0.202	0.169
-680.237	-200.000	-0.038	0.262
-679.222	62.616	0.261	-0.263
-678.208	102.495	0.176	0.207
-677.193	-37.864	0.092	0.049
-676.178	-200.000	0.006	-0.110
-675.164	-200.000	-0.080	-0.435
-674.149	89.910	-0.187	0.210
-673.135	-200.000	-0.022	0.176
-672.120	-186.600	0.279	-0.004
-671.105	311.887	-0.017	-0.032
-670.091	266.584	-0.053	-0.094
-669.076	407.692	-0.042	0.089
-668.062	800.000	-0.071	-0.258
-667.047	329.558	0.156	-0.301
-666.032	2.821	-0.144	-0.105
-665.018	-200.000	0.005	0.260
-664.003	15.081	0.220	0.174
-662.989	-70.225	0.209	0.080
-661.974	231.832	0.090	-0.149
-660.959	38.114	-0.161	-0.144
-659.945	28.189	0.210	-0.179
-658.930	-200.000	0.013	-0.070
-657.916	77.746	-0.070	0.075
-656.901	-85.212	0.274	0.086
-655.886	800.000	0.051	0.218
-654.872	-34.421	-0.205	-0.113
-653.857	-114.606	0.205	0.040
-652.843	255.290	-0.163	-0.281
-651.828	-30.216	0.184	-0.105
-650.814	-200.000	0.045	-0.204
-649.799	-200.000	-0.051	0.457
-648.784	-5.033	0.117	0.081
-647.770	573.807	0.042	0.102
-646.755	270.945	-0.024	-0.042
-645.741	-178.153	0.089	0.002
-644.726	372.020	-0.105	0.215
-643.711	-95.551	-0.243	-0.066
-642.697	-200.000	0.012	-0.070
-641.682	331.788	0.008	-0.015
-640.668	-41.293	-0.061	-0.032
-639.653	-9.188	0.119	0.080
-638.638	-42.720	-0.169	-0.087
-637.624	-1.582	0.327	-0.232
-636.609	-66.789	0.368	0.146
-635.595	65.401	-0.041	-0.042
-634.580	-200.000	0.032	0.195
-633.565	800.000	-0.110	-0.352
-632.551	354.297	0.051	-0.102
-631.536	-200.000	0.004	-0.253
-630.522	144.712	-0.121	-0.162
-629.507	-200.000	0.010	-0.159
-628.492	-115.620	0.183	-0.034
-627.478	-27.690	-0.223	-0.130
-626.463	10.772	-0.092	0.070
-625.449	-85.626	-0.051	-0.016
-624.434	800.000	-0.046	0.164
-623.419	-141.072	-0.067	0.007
-622.405	18.837	0.334	0.269
-621.390	800.000	-0.103	-0.407
-620.376	-18.904	-0.137	0.086
-619.361	38.540	-0.169	-0.151
-618.346	36.136	0.147	0.130
-617.332	-200.000	0.071	-0.368
-616.317	-43.307	-0.373	-0.189
-615.303	-66.160	0.330	-0.132
-614.288	691.545	0.156	-0.411
-613.273	800.000	0.038	0.119
-612.259	25.896	0.108	0.091
-611.244	35.100	-0.133	0.117
-610.230	-200.000	0.005	-0.053
-609.215	800.000	-0.052	-0.156
-608.201	67.489	-0.028	-0.029
-607.186	-200.000	0.034	-0.270
-606.171	254.229	0.092	-0.158
-605.157	103.337	-0.049	0.057
-604.142	66.311	0.344	0.351
-603.128	-200.000	0.010	0.134
-602.113	110.829	-0.031	-0.038
-601.098	-198.017	0.120	-0.001
-600.084	594.975	0.121	-0.300
-599.069	1.045	-0.481	-0.346
-598.055	-42.005	0.074	0.038
-597.040	631.730	-0.136	-0.345
-596.025	-52.737	-0.052	-0.024
-595.011	-137.877	-0.197	0.022
-593.996	293.408	-0.048	0.087
-592.982	-127.993	0.188	-0.027
-591.967	-39.925	0.243	0.127
-590.952	21.562	-0.206	0.168
-589.938	289.738	-0.099	0.180
-588.923	195.887	-0.062	0.095
-587.909	141.764	0.090	-0.120
-586.894	-200.000	-0.024	-0.189
-585.879	53.989	0.190	-0.184
-584.865	361.828	-0.049	0.098
-583.850	45.664	-0.108	-0.100
-582.836	42.091	-0.103	0.094
-581.821	-81.180	0.077	-0.025
-580.806	9.235	-0.078	0.059
-579.792	749.021	0.104	-0.283
-578.777	-200.000	0.025	-0.195
-577.763	-200.000	0.029	-0.265
-576.748	800.000	0.079	0.257
-575.733	18.339	0.077	0.062
-574.719	-164.538	-0.390	-0.018
-573.704	-148.090	-0.126	0.011
-572.690	-138.160	0.141	-0.016
-571.675	-79.065	-0.161	-0.055
-570.661	44.497	-0.270	0.248
-569.646	194.946	0.056	0.086
-568.631	-123.745	-0.160	0.025
-567.617	625.099	-0.045	-0.114
-566.602	147.070	0.073	0.098
-565.588	604.183	0.055	-0.137
-564.573	800.000	0.042	-0.124
-563.558	523.571	-0.042	0.098
-562.544	216.364	0.140	0.224
-561.529	-149.165	-0.309	-0.025
-560.515	800.000	0.032	0.128
-559.500	-200.000	0.009	-0.342
-558.485	0.890	0.331	-0.238
-557.471	-42.231	-0.123	-0.063
-556.456	594.283	-0.072	0.178
-555.442	32.140	0.197	0.170
-554.427	-78.739	0.447	0.153
-553.412	-73.307	-0.323	-0.119
-552.398	42.394	0.137	-0.125
-551.383	35.589	-0.070	-0.061
-550.369	133.212	-0.266	-0.345
-549.354	-82.776	0.038	0.012
-548.339	237.717	-0.104	-0.173
-547.325	-84.010	-0.195	-0.062
-546.310	-143.822	0.340	-0.032
-545.296	123.740	-0.075	-0.095
-544.281	800.000	-0.099	-0.366
-543.266	800.000	0.038	0.155
-542.252	-6.746	-0.109	0.074
-541.237	10.741	-0.226	-0.172
-540.223	-53.213	0.262	-0.121
-539.208	-200.000	-0.004	-0.227
-538.193	-33.538	0.136	0.075
-537.179	-200.000	0.016	0.113
-536.164	209.506	0.162	-0.254
-535.150	-38.856	-0.121	0.064
-534.135	61.870	0.195	-0.195
-533.121	207.842	-0.175	0.274
-532.106	-160.158	-0.173	0.009
-531.091	-169.843	0.253	-0.009
-530.077	-96.390	0.056	-0.015
-529.062	-160.858	-0.147	-0.008
-528.048	-17.158	0.137	-0.086
-527.033	800.000	-0.103	0.299
-526.018	-31.679	0.190	-0.107
-525.004	-200.000	-0.011	-0.431
-523.989	800.000	0.051	-0.191
-522.975	54.239	0.127	-0.122
-521.960	-200.000	0.009	0.292
-520.945	141.424	-0.035	-0.047
-519.931	236.454	0.114	0.189
-518.916	135.394	-0.045	-0.059
-517.902	15.132	-0.103	-0.081
-516.887	-200.000	0.006	0.259
-515.872	-3.000	-0.176	-0.123
-514.858	-200.000	-0.009	-0.226
-513.843	800.000	0.106	-0.392
-512.829	-75.569	0.166	-0.059
-511.814	-200.000	-0.019	0.167
-510.799	-149.213	0.367	0.029
-509.785	-36.340	-0.231	0.125
-508.770	172.959	-0.140	0.201
-507.756	-113.970	0.335	0.065
-506.741	142.770	-0.061	-0.081
-505.726	80.594	0.237	0.256
-504.712	-14.931	-0.305	0.196
-503.697	75.042	-0.041	-0.043
-502.683	168.716	0.198	-0.282
-501.668	40.108	0.157	-0.141
-500.653	-200.000	0.006	-0.134
-499.639	800.000	-0.112	0.347
-498.624	-107.523	0.093	-0.020
-497.610	-164.638	0.058	-0.003
-496.595	800.000	0.067	-0.256
-495.581	615.563	-0.139	-0.348
-494.566	302.673	-0.161	-0.297
-493.551	-200.000	-0.059	-0.412
-492.537	800.000	-0.035	-0.125
-491.522	282.484	-0.180	0.323
-490.508	385.792	0.084	0.174
-489.493	-63.625	0.352	-0.144
-488.478	-27.773	-0.177	-0.103
-487.464	48.483	-0.433	0.405
-486.449	-142.639	0.325	0.032
-485.435	527.048	0.102	0.241
-484.420	428.378	-0.130	0.281
-483.405	62.765	-0.321	0.321
-482.391	-200.000	-0.004	-0.194
-481.376	50.619	-0.084	0.080
-480.362	-200.000	-0.052	-0.261
-479.347	-200.000	0.000	-0.342
-478.332	-107.739	-0.143	-0.031
-477.318	61.315	0.143	0.142
-476.303	-27.620	-0.156	-0.090
-475.289	-200.000	-0.017	-0.292
-474.274	513.079	-0.103	0.240
-473.259	-130.050	-0.413	-0.056
-472.245	-92.966	-0.298	0.083
-471.230	-176.867	-0.347	0.009
-470.216	59.776	0.156	0.154
-469.201	153.758	0.213	0.292
-468.186	-200.000	0.002	-0.201
-467.172	-108.566	-0.162	-0.035
-466.157	-200.000	-0.073	-0.346
-465.143	-60.672	-0.147	-0.062
-464.128	-87.306	-0.208	-0.063
-463.113	-125.429	0.178	-0.027
-462.099	286.773	-0.211	0.380
-461.084	192.002	0.065	-0.098
-460.070	289.717	0.103	-0.187
-459.055	-173.429	0.168	0.005
-458.040	58.776	-0.216	0.212
-457.026	-65.807	0.048	-0.019
-456.011	800.000	0.092	-0.295
-454.997	-121.402	0.225	0.037
-453.982	184.300	0.063	-0.093
-452.968	226.790	0.167	0.271
-451.953	800.000	-0.048	0.177
-450.938	-200.000	-0.064	0.378
-449.924	164.605	-0.177	0.250
-448.909	113.037	0.148	-0.180
-447.895	-17.525	-0.188	-0.118
-446.880	95.062	-0.256	-0.291
-445.865	-200.000	-0.012	0.265
-444.851	-200.000	-0.008	-0.053
-443.836	-100.942	-0.311	0.076
-442.822	153.653	-0.148	-0.202
-441.807	-182.822	0.370	0.007
-440.792	-22.191	0.097	0.059
-439.778	120.903	0.101	0.126
-438.763	519.525	0.048	0.111
-437.749	346.335	-0.071	0.139
-436.734	800.000	0.026	-0.094
-435.719	-3.559	-0.123	0.086
-434.705	566.229	-0.112	0.271
-433.690	-110.799	-0.312	0.064
-432.676	9.755	-0.113	0.086
-431.661	-70.722	0.128	-0.048
-430.646	71.225	-0.100	0.103
-429.632	462.291	0.082	0.183
-428.617	-36.075	0.177	-0.096
-427.603	-9.400	-0.200	0.133
-426.588	24.861	0.265	-0.219
-425.573	-49.527	-0.285	-0.135
-424.559	73.097	-0.101	-0.105
-423.544	-67.873	-0.056	-0.022
-422.530	-2.337	-0.150	0.105
-421.515	320.881	0.037	0.070
-420.500	-14.938	-0.030	0.019
-419.486	159.789	-0.126	0.174
-418.471	-200.000	-0.014	0.210
-417.457	800.000	0.125	-0.388
-416.442	345.131	-0.167	0.327
-415.428	-200.000	0.047	0.486
-414.413	324.794	-0.063	-0.119
-413.398	35.330	-0.316	0.276
-412.384	49.850	0.137	0.129
-411.369	219.708	-0.132	-0.211
-410.355	58.539	0.313	-0.307
-409.340	-38.751	0.390	0.205
-408.325	-139.753	-0.329	-0.035
-407.311	-37.152	0.284	0.151
-406.296	-139.680	0.423	0.045
-405.282	-52.851	0.172	-0.079
-404.267	425.457	-0.108	-0.231
-403.252	-70.513	0.183	-0.069
-402.238	-19.143	0.442	-0.274
-401.223	8.344	0.221	-0.165
-400.209	160.643	-0.147	-0.205
-399.194	-1.050	0.202	-0.142
-398.179	-88.748	-0.140	-0.041
-397.165	477.153	0.039	-0.087
-396.150	-33.223	-0.079	0.044
-395.136	111.813	-0.203	-0.244
-394.121	800.000	0.010	0.034
-393.106	3.175	-0.183	-0.132
-392.092	22.737	-0.260	0.212
-391.077	-200.000	-0.025	0.124
-390.063	-200.000	0.023	0.263
-389.048	-80.608	0.279	0.093
-388.033	118.980	-0.214	-0.263
-387.019	-41.679	0.222	0.114
-386.004	-91.122	0.268	-0.077
-384.990	491.533	-0.142	0.323
-383.975	-124.054	-0.526	0.082
-382.960	-34.898	-0.180	0.098
-381.946	174.192	0.118	0.169
-380.931	526.050	-0.026	-0.062
-379.917	-91.526	0.255	0.072
-378.902	617.316	0.052	-0.129
-377.888	-143.659	-0.264	0.025
-376.873	62.889	-0.098	0.097
-375.858	-48.743	0.275	-0.131
-374.844	-200.000	-0.009	0.364
-373.829	-200.000	0.042	-0.207
-372.815	-82.660	-0.170	0.055
-371.800	-200.000	-0.052	-0.389
-370.785	304.951	-0.105	0.195
-369.771	-125.293	-0.225	0.034
-368.756	34.521	-0.330	-0.287
-367.742	71.042	-0.405	-0.418
-366.727	67.139	0.055	0.055
-365.712	149.883	0.054	0.072
-364.698	101.460	0.099	-0.114
-363.683	800.000	-0.115	0.448
-362.669	-200.000	-0.018	0.172
-361.654	-200.000	0.004	0.063
-360.639	-200.000	-0.005	0.076
-359.625	800.000	-0.028	-0.094
-358.610	-123.774	0.182	-0.029
-357.596	293.193	0.111	0.201
-356.581	302.936	0.059	-0.108
-355.566	83.505	-0.155	-0.168
-354.552	800.000	-0.041	-0.166
-353.537	27.644	0.403	-0.338
-352.523	-200.000	-0.030	-0.270
-351.508	73.267	0.031	0.032
-350.493	-200.000	0.002	0.065
-349.479	800.000	0.091	-0.345
-348.464	-200.000	0.003	-0.427
-347.450	-59.289	0.250	0.107
-346.435	-78.494	0.156	-0.053
-345.420	47.392	0.179	0.165
-344.406	-200.000	-0.014	0.327
-343.391	-106.496	0.085	-0.019
-342.377	800.000	-0.077	-0.244
-341.362	-138.415	-0.160	0.018
-340.348	-71.847	-0.242	0.089
-339.333	-50.994	-0.050	0.023
-338.318	-29.769	-0.066	0.037
-337.304	-200.000	-0.043	0.201
-336.289	-194.399	-0.033	0.000
-335.275	26.575	-0.071	-0.059
-334.260	471.051	0.003	-0.007
-333.245	-6.387	0.288	-0.195
-332.231	435.843	-0.099	-0.215
-331.216	-139.407	-0.078	-0.008
-330.202	95.602	-0.253	-0.286
-329.187	16.815	-0.256	-0.202
-328.172	391.811	-0.038	-0.079
-327.158	-200.000	-0.037	-0.366
-326.143	-200.000	0.008	-0.136
-325.129	-54.205	-0.225	0.101
-324.114	-134.596	-0.176	-0.021
-323.099	-45.072	0.282	0.139
-322.085	800.000	-0.014	0.058
-321.070	-200.000	-0.011	0.271
-320.056	518.768	0.047	0.110
-319.041	-86.578	-0.186	0.057
-318.026	-200.000	-0.003	0.031
-317.012	60.238	-0.109	-0.107
-315.997	214.060	0.108	-0.170
-314.983	800.000	-0.064	-0.202
-313.968	-107.835	0.223	-0.048
-312.953	-200.000	-0.050	0.311
-311.939	-200.000	-0.022	0.290
-310.924	-110.462	-0.029	0.006
-309.910	-200.000	-0.001	0.182
-308.895	398.349	0.043	0.089
-307.880	-88.417	-0.133	0.039
-306.866	-82.844	0.328	0.105
-305.851	-4.671	-0.012	0.008
-304.837	800.000	-0.068	0.291
-303.822	-24.875	0.121	0.072
-302.807	-53.303	0.147	-0.067
-301.793	-34.029	-0.149	0.081
-300.778	82.612	-0.191	0.206
-299.764	800.000	-0.053	-0.203
-298.749	-93.785	0.112	-0.031
-297.735	-49.324	-0.098	-0.047
-296.720	366.055	-0.083	0.166
-295.705	721.399	0.049	-0.129
-294.691	-86.654	0.287	0.087
-293.676	152.129	0.148	0.201
-292.662	-73.888	-0.113	0.041
-291.647	71.668	-0.168	-0.174
-290.632	52.253	0.253	-0.239
-289.618	4.294	-0.147	-0.107
-288.603	-200.000	-0.003	-0.087
-287.589	-19.083	0.232	-0.143
-286.574	85.603	0.162	-0.176
-285.559	631.256	-0.111	-0.279
-284.545	-40.119	0.382	-0.197
-283.530	189.787	-0.058	-0.086
-282.516	67.580	-0.255	-0.258
-281.501	-105.151	0.110	-0.025
-280.486	-114.049	0.090	0.017
-279.472	-166.651	0.241	0.010
-278.457	800.000	0.019	0.059
-277.443	-125.983	0.143	-0.021
-276.428	36.307	-0.100	0.087
-275.413	233.792	-0.153	0.249
-274.399	-67.900	0.180	0.070
-273.384	5.362	0.110	0.080
-272.370	-49.419	-0.154	0.073
-271.355	-41.969	0.076	-0.039
-270.340	-135.060	-0.082	0.010
-269.326	-166.055	0.326	0.014
-268.311	-35.713	-0.250	0.135
-267.297	30.401	0.188	0.159
-266.282	-200.000	-0.056	-0.306
-265.267	-200.000	-0.030	0.159
-264.253	88.035	-0.163	-0.179
-263.238	-108.331	-0.108	0.023
-262.224	-55.545	0.529	-0.235
-261.209	800.000	-0.056	0.202
-260.195	152.722	-0.027	0.037
-259.180	0.605	-0.347	0.246
-258.165	-15.705	0.280	0.177
-257.151	-200.000	-0.013	-0.405
-256.136	-122.630	-0.335	-0.054
-255.122	-69.634	-0.047	0.018
-254.107	320.845	0.060	0.113
-253.092	146.456	0.070	-0.093
-252.078	-68.973	-0.192	-0.073
-251.063	800.000	0.046	0.172
-250.049	103.296	0.227	0.263
-249.034	-117.029	-0.201	-0.036
-248.019	683.420	-0.098	0.253
-247.005	800.000	0.031	-0.093
-245.990	-175.499	0.445	-0.012
-244.976	142.406	0.150	-0.198
-243.961	-200.000	0.107	0.534
-242.946	-200.000	0.005	0.102
-241.932	142.039	-0.096	0.126
-240.917	691.844	-0.036	0.093
-239.903	-126.553	-0.216	-0.032
-238.888	-172.555	-0.170	0.005
-237.873	800.000	-0.051	-0.184
-236.859	-200.000	0.047	-0.222
-235.844	670.016	0.078	0.200
-234.830	-200.000	0.009	0.126
-233.815	800.000	-0.070	0.210
-232.800	-120.663	0.227	0.038
-231.786	198.618	0.140	0.212
-230.771	-136.275	-0.081	0.009
-229.757	-148.367	-0.164	-0.013
-228.742	125.727	-0.088	0.110
-227.727	140.835	0.020	-0.026
-226.713	-3.388	0.061	0.042
-225.698	405.214	0.045	0.095
-224.684	4.719	0.254	-0.185
-223.669	179.376	0.093	-0.134
-222.655	-8.453	0.213	-0.142
-221.640	103.190	-0.237	0.275
-220.625	363.688	-0.021	-0.041
-219.611	800.000	-0.079	0.234
-218.596	-200.000	-0.011	0.282
-217.582	-200.000	0.021	0.119
-216.567	234.546	-0.210	0.342
-215.552	748.962	-0.069	0.183
-214.538	538.262	-0.047	0.109
-213.523	-200.000	-0.007	0.133
-212.509	-5.854	0.128	-0.087
-211.494	-200.000	-0.051	0.323
-210.479	-77.842	0.111	-0.038
-209.465	137.646	-0.080	-0.104
-208.450	628.888	-0.047	0.117
-207.436	107.048	0.106	0.124
-206.421	-106.292	0.043	0.010
-205.406	510.545	-0.066	0.152
-204.392	-86.517	0.507	0.154
-203.377	-78.211	-0.136	0.046
-202.363	-27.683	-0.102	0.058
-201.348	40.462	-0.057	-0.051
-200.333	650.747	0.085	-0.215
-199.319	800.000	-0.085	0.250
-198.304	-85.126	-0.245	0.076
-197.290	-200.000	0.068	-0.337
-196.275	800.000	0.023	0.087
-195.260	-70.180	-0.070	0.026
-194.246	-67.677	-0.331	-0.128
-193.231	314.379	-0.031	-0.058
-192.217	-200.000	-0.020	0.168
-191.202	254.073	-0.157	-0.266
-190.187	-200.000	-0.017	0.280
-189.173	-200.000	0.074	0.323
-188.158	225.608	0.120	0.192
-187.144	129.878	-0.188	-0.238
-186.129	-78.241	-0.249	-0.085
-185.114	32.376	-0.225	0.192
-184.100	800.000	-0.032	0.108
-183.085	-200.000	0.032	0.194
-182.071	-29.812	0.243	0.137
-181.056	-149.808	0.191	-0.015
-180.042	2.271	0.140	-0.100
-179.027	-26.454	-0.184	0.106
-178.012	430.491	0.092	0.198
-176.998	-100.671	0.065	0.016
-175.983	355.215	-0.027	-0.054
-174.969	551.625	-0.068	-0.161
-173.954	-70.988	0.423	-0.157
-172.939	-46.255	0.163	0.079
-171.925	-200.000	0.011	-0.108
-170.910	-149.189	-0.109	-0.009
-169.896	-122.782	-0.101	-0.016
-168.881	-10.767	0.026	0.017
-167.866	-17.151	0.260	-0.162
-166.852	800.000	0.016	0.066
-165.837	186.525	-0.101	0.149
-164.823	-48.130	0.294	-0.140
-163.808	30.187	0.169	-0.142
-162.793	800.000	0.034	-0.102
-161.779	484.525	-0.078	0.175
-160.764	-3.493	0.242	0.166
-159.750	-33.240	0.257	0.140
-158.735	-166.887	0.283	0.011
-157.720	-183.437	0.271	-0.005
-156.706	449.556	0.064	0.140
-155.691	-76.812	0.028	0.010
-154.677	388.330	0.065	0.133
-153.662	-200.000	-0.006	0.037
-152.647	-200.000	0.002	0.092
-151.633	484.487	0.057	0.129
-150.618	-200.000	0.039	0.308
-149.604	-200.000	-0.031	-0.137
-148.589	-200.000	-0.056	-0.254
-147.574	63.898	0.128	-0.127
-146.560	62.653	0.171	-0.169
-145.545	366.256	-0.167	-0.332
-144.531	-200.000	0.004	0.082
-143.516	-53.094	-0.331	-0.150
-142.502	-54.804	-0.171	-0.076
-141.487	-33.189	0.436	0.238
-140.472	-38.063	0.174	-0.091
-139.458	229.465	0.142	-0.228
-138.443	21.784	-0.034	0.027
-137.429	-22.190	0.092	0.055
-136.414	11.254	0.245	-0.185
-135.399	800.000	0.092	-0.327
-134.385	-114.854	0.174	-0.033
-133.370	299.839	0.090	-0.163
-132.356	36.560	0.337	-0.293
-131.341	800.000	-0.045	-0.126
-130.326	-9.680	-0.098	-0.065
-129.312	-107.418	-0.119	0.026
-128.297	407.607	-0.142	-0.296
-127.283	440.911	0.144	-0.311
-126.268	75.626	0.319	-0.332
-125.253	-11.012	-0.079	-0.052
-124.239	-29.883	0.187	-0.105
-123.224	800.000	0.056	0.182
-122.210	235.618	-0.117	-0.191
-121.195	46.467	-0.146	0.134
-120.180	157.188	-0.133	-0.182
-119.166	-31.202	0.242	-0.134
-118.151	-151.471	-0.471	0.034
-117.137	-156.051	-0.277	-0.017
-116.122	-103.963	-0.105	0.024
-115.107	-200.000	-0.022	0.109
-114.093	588.061	-0.129	0.313
-113.078	-80.865	0.230	0.075
-112.064	243.469	-0.098	-0.162
-111.049	161.904	0.095	-0.131
-110.034	800.000	-0.093	-0.271
-109.020	800.000	-0.089	-0.316
-108.005	237.905	-0.074	-0.122
-106.991	-82.915	0.663	0.211
-105.976	76.303	0.367	0.383
-104.962	-6.668	-0.123	-0.082
-103.947	-198.734	0.049	-0.000
-102.932	-164.214	0.302	-0.014
-101.918	765.770	-0.049	0.131
-100.903	-200.000	0.036	0.245
-99.889	-200.000	0.020	-0.136
-98.874	221.051	0.043	-0.068
-97.859	-93.692	0.144	0.039
-96.845	113.918	0.247	-0.296
-95.830	800.000	-0.050	-0.150
-94.816	-141.869	-0.122	0.012
-93.801	49.273	0.159	0.147
-92.786	358.135	-0.106	0.209
-91.772	335.805	-0.074	-0.141
-90.757	-200.000	-0.027	-0.117
-89.743	106.700	-0.086	0.100
-88.728	-66.853	-0.244	-0.095
-87.713	-200.000	0.032	0.426
-86.699	-83.516	0.232	0.073
-85.684	-43.841	0.191	-0.095
-84.670	-87.568	0.109	0.032
-83.655	237.478	-0.072	0.118
-82.640	800.000	-0.029	-0.096
-81.626	-200.000	-0.014	0.150
-80.611	-200.000	-0.018	0.230
-79.597	86.193	0.196	0.213
-78.582	259.003	-0.073	-0.123
-77.567	-125.529	0.209	0.031
-76.553	-112.380	0.330	0.065
-75.538	-100.792	0.318	0.077
-74.524	325.588	0.081	-0.153
-73.509	-37.348	-0.556	0.292
-72.494	-200.000	-0.068	0.497
-71.480	36.834	0.081	0.071
-70.465	-200.000	-0.025	-0.251
-69.451	-200.000	-0.040	0.330
-68.436	-57.345	0.184	0.080
-67.422	413.394	-0.161	-0.336
-66.407	548.994	-0.030	-0.071
-65.392	-171.696	0.331	0.011
-64.378	43.096	0.147	0.132
-63.363	17.445	0.285	0.223
-62.349	-188.300	0.027	-0.000
-61.334	16.871	-0.989	-0.770
-60.319	-121.986	0.388	0.063
-59.305	-200.000	-0.003	-0.888
-58.290	10.193	1.071	0.801
-57.276	608.138	0.512	1.256
-56.261	-200.000	100.990	604.983
-55.246	586.565	1410.095	3409.327
-54.232	192.219	2593.200	3844.368
-53.217	117.662	2161.914	2614.958
-52.203	41.934	1697.093	1512.810
-51.188	34.339	1508.039	1292.943
-50.173	31.893	1481.468	1253.780
-49.159	51.771	1532.821	1432.928
-48.144	53.646	1550.665	1462.312
-47.130	34.550	1508.694	1294.732
-46.115	31.414	1493.471	1260.513
-45.100	31.223	1490.630	1256.775
-44.086	31.204	1488.322	1254.656
-43.071	31.146	1486.453	1252.639
-42.057	31.203	1484.750	1251.538
-41.042	31.225	1483.567	1250.639
-40.027	31.139	1482.045	1248.730
-39.013	31.123	1480.406	1247.191
-37.998	31.260	1478.857	1246.754
-36.984	31.172	1477.576	1245.034
-35.969	31.033	1476.632	1243.264
-34.954	31.124	1475.360	1242.753
-33.940	31.068	1474.189	1241.339
-32.925	31.182	1472.388	1240.532
-31.911	31.269	1470.968	1239.868
-30.896	31.237	1469.723	1238.551
-29.881	31.155	1468.924	1237.287
-28.867	31.229	1467.521	1236.548
-27.852	31.336	1465.514	1235.517
-26.838	31.132	1464.820	1233.531
-25.823	31.180	1463.217	1232.449
-24.809	31.176	1461.319	1230.779
-23.794	31.127	1460.079	1229.359
-22.779	31.184	1458.527	1228.378
-21.765	31.154	1457.813	1227.535
-20.750	31.069	1456.937	1226.185
-19.736	31.100	1456.116	1225.652
-18.721	31.142	1454.540	1224.555
-17.706	31.113	1453.548	1223.480
-16.692	31.107	1452.139	1222.204
-15.677	31.142	1451.105	1221.515
-14.663	31.060	1450.374	1220.311
-13.648	31.130	1449.168	1219.707
-12.633	31.043	1448.802	1218.782
-11.619	31.062	1447.582	1217.832
-10.604	31.089	1446.429	1216.989
-9.590	31.049	1445.793	1216.147
-8.575	31.030	1444.995	1215.304
-7.560	31.022	1444.347	1214.657
-6.546	31.155	1443.064	1214.398
-5.531	31.033	1442.619	1213.182
-4.517	31.144	1441.416	1212.839
-3.502	31.195	1440.332	1212.214
-2.487	31.135	1439.622	1211.178
-1.473	31.041	1438.169	1209.299
-0.458	31.139	1436.746	1208.685
0.556	29.719	1427.746	1197.760
1.571	26.751	1402.841	1157.837
2.586	23.479	1344.295	1089.350
3.600	21.711	1263.707	1013.735
4.615	20.430	1218.477	970.217
5.629	17.860	1163.232	912.421
6.644	10.784	1081.479	812.931
7.659	5.418	1043.249	758.169
8.673	4.746	1038.039	751.072
9.688	4.577	1035.191	748.131
10.702	4.553	1033.167	746.489
11.717	4.494	1031.341	744.821
12.731	6.501	1032.710	755.371
13.746	13.120	1042.048	794.050
14.761	18.174	1048.219	823.066
15.775	18.287	1047.452	822.932
16.790	17.448	1045.201	817.067
17.804	16.332	1043.000	809.923
18.819	15.485	1041.002	804.243
19.834	14.989	1040.005	801.028
20.848	14.602	1039.051	798.374
21.863	14.512	1038.060	797.110
22.877	14.424	1036.890	795.721
23.892	14.000	1036.580	793.388
24.907	14.024	1036.023	793.008
25.921	13.985	1035.211	792.130
26.936	13.949	1034.545	791.378
27.950	13.966	1033.224	790.376
28.965	14.122	1032.154	790.230
29.980	14.208	1031.140	789.796
30.994	14.281	1030.107	789.276
32.009	14.348	1028.995	788.675
33.023	14.338	1028.488	788.169
34.038	14.394	1027.542	787.636
35.053	14.287	1026.646	786.377
36.067	14.057	1026.082	784.788
37.082	14.061	1025.416	784.227
38.096	14.260	1024.309	784.250
39.111	14.199	1023.539	783.306
40.126	14.241	1022.781	782.850
41.140	14.249	1021.006	781.464
42.155	14.056	1020.021	779.732
43.169	14.025	1019.357	779.012
44.184	13.865	1018.186	777.299
45.199	13.934	1017.044	776.682
46.213	13.965	1015.981	775.947
47.228	13.835	1015.453	774.866
48.242	13.964	1014.366	774.573
49.257	14.161	1013.808	774.994
50.271	14.107	1012.573	773.730
51.286	14.079	1011.898	773.016
52.301	14.212	1010.860	772.773
53.315	14.166	1010.420	772.152
54.330	14.090	1009.479	771.015
55.344	14.108	1008.602	770.357
56.359	14.094	1007.261	769.202
57.374	13.922	1007.116	768.228
58.388	14.024	1005.777	767.611
59.403	13.995	1004.957	766.781
60.417	13.838	1004.320	765.504
61.432	13.871	1003.766	765.164
62.447	13.781	1002.968	764.077
63.461	13.840	1002.164	763.667
64.476	13.784	1001.220	762.623
65.490	13.785	1000.314	761.870
66.505	13.807	999.825	761.532
67.520	14.008	998.468	761.349
68.534	13.936	997.868	760.496
69.549	13.763	997.432	759.305
70.563	13.835	996.672	758.989
71.578	13.864	996.316	758.783
72.593	13.722	995.150	757.181
73.607	13.631	994.106	755.901
74.622	13.634	993.271	755.214
75.636	13.686	992.055	754.459
76.651	13.756	991.228	754.083
77.666	13.704	990.714	753.387
78.680	13.718	990.216	753.006
79.695	13.784	989.274	752.522
80.709	13.796	989.087	752.369
81.724	13.816	988.424	751.886
82.739	13.789	987.883	751.288
83.753	13.942	986.939	751.194
84.768	14.120	986.069	751.271
85.782	14.234	985.384	751.198
86.797	14.285	985.163	751.191
87.812	14.152	984.086	749.704
88.826	14.149	982.902	748.723
89.841	14.084	982.179	747.816
90.855	14.143	981.598	747.572
91.870	14.159	980.665	746.864
92.884	14.239	980.040	746.683
93.899	14.244	979.058	745.892
94.914	14.260	978.473	745.453
95.928	14.395	977.524	745.266
96.943	14.269	977.124	744.332
97.957	14.393	975.703	743.736
98.972	14.295	975.287	742.916
99.987	14.256	974.815	742.317
101.001	14.180	974.015	741.307
102.016	14.211	973.214	740.766
103.030	14.298	972.324	740.409
104.045	14.152	972.052	739.490
105.060	14.214	970.601	738.593
106.074	14.284	969.272	737.827
107.089	14.171	968.290	736.515
108.103	13.964	967.587	735.000
109.118	13.842	967.196	734.100
110.133	13.780	966.293	733.075
111.147	13.880	965.624	732.944
112.162	13.948	964.580	732.386
113.176	13.892	963.749	731.441
114.191	14.045	962.827	731.353
115.206	14.063	961.925	730.681
116.220	13.912	961.543	729.664
117.235	13.913	960.462	728.783
118.249	14.024	959.307	728.329
119.264	14.091	958.448	727.907
120.279	13.829	958.338	726.609
121.293	13.966	957.438	726.463
122.308	13.995	956.629	725.910
123.322	13.862	955.749	724.598
124.337	13.872	954.776	723.839
125.352	13.703	953.545	722.109
126.366	13.814	952.232	721.532
127.381	13.832	951.391	720.907
128.395	13.859	950.648	720.402
129.410	13.826	949.798	719.548
130.424	13.871	948.936	719.028
131.439	13.938	947.763	718.366
132.454	13.944	947.067	717.800
133.468	14.005	946.114	717.276
134.483	13.984	945.874	716.939
135.497	14.051	944.844	716.383
136.512	14.042	944.370	715.923
137.527	14.016	943.624	715.181
138.541	14.002	942.489	714.200
139.556	13.982	942.319	713.923
140.570	13.992	941.409	713.211
141.585	14.118	940.685	713.138
142.600	14.159	940.323	712.977
143.614	14.211	939.467	712.488
144.629	14.174	938.888	711.828
145.643	14.321	937.898	711.642
146.658	14.310	937.120	710.942
147.673	14.356	935.999	710.224
148.687	14.163	934.947	708.543
149.702	14.070	934.169	707.497
150.716	14.125	933.198	706.930
151.731	14.037	932.764	706.164
152.746	14.163	932.105	706.139
153.760	14.165	931.248	705.437
154.775	14.130	930.890	704.953
155.789	14.192	929.790	704.319
156.804	14.206	929.107	703.798
157.819	14.269	928.132	703.267
158.833	14.363	927.645	703.232
159.848	14.381	926.982	702.742
160.862	14.522	926.063	702.579
161.877	14.343	925.775	701.543
162.892	14.282	924.925	700.579
163.906	14.220	924.061	699.603
164.921	14.166	923.262	698.708
165.935	13.955	922.516	697.196
166.950	14.158	921.269	697.045
167.964	14.278	920.337	696.780
168.979	14.298	919.027	695.810
169.994	14.187	918.683	695.025
171.008	14.248	917.512	694.332
172.023	14.219	917.041	693.791
173.037	14.319	916.550	693.779
174.052	14.409	915.569	693.346
175.067	14.431	914.969	692.922
176.081	14.359	914.346	692.091
177.096	14.254	913.332	690.825
178.110	14.249	912.401	690.041
179.125	14.200	911.476	689.077
180.140	14.358	911.002	689.312
181.154	14.416	910.410	689.043
182.169	14.393	909.629	688.293
183.183	14.478	909.279	688.321
184.198	14.339	908.729	687.268
185.213	14.505	907.990	687.334
186.227	14.372	907.345	686.235
187.242	14.489	906.990	686.391
188.256	14.513	906.113	685.764
189.271	14.579	905.563	685.557
190.286	14.643	905.158	685.455
191.300	14.444	904.127	683.798
192.315	14.254	903.324	682.349
193.329	14.247	902.301	681.486
194.344	14.246	901.732	680.993
195.359	14.315	901.281	680.873
196.373	14.365	900.721	680.597
197.388	14.552	900.078	680.812
198.402	14.591	899.762	680.672
199.417	14.679	899.494	680.768
200.432	14.833	898.978	680.944
201.446	14.854	898.526	680.628
202.461	14.919	898.228	680.606
203.475	14.962	897.796	680.392
204.490	14.832	897.297	679.428
205.504	14.801	896.463	678.610
206.519	14.739	895.470	677.544
207.534	14.851	894.427	677.153
208.548	14.735	893.804	676.148
209.563	14.794	892.666	675.468
210.577	14.770	891.973	674.785
211.592	14.863	891.803	674.974
212.607	14.840	891.294	674.438
213.621	14.982	890.771	674.552
214.636	14.977	890.125	673.983
215.650	14.837	890.010	673.272
216.665	14.813	889.048	672.388
217.680	14.900	888.659	672.387
218.694	14.960	888.264	672.270
219.709	14.915	887.535	671.475
220.723	15.069	886.899	671.552
221.738	15.007	886.499	670.944
222.753	15.023	885.530	670.215
223.767	15.004	884.702	669.454
224.782	15.158	883.738	669.277
225.796	15.101	883.257	668.627
226.811	15.159	882.909	668.538
227.826	15.237	881.931	668.047
228.840	15.023	881.167	666.559
229.855	15.035	880.251	665.853
230.869	15.093	879.448	665.417
231.884	15.037	879.149	664.909
232.899	15.066	878.395	664.395
233.913	14.976	877.567	663.356
234.928	15.140	876.610	663.221
235.942	14.962	876.418	662.315
236.957	14.951	875.597	661.591
237.972	14.970	874.902	661.084
238.986	15.021	874.262	660.740
240.001	14.954	874.050	660.259
241.015	14.849	873.548	659.408
242.030	14.920	872.967	659.190
243.045	15.081	871.786	658.873
244.059	15.159	871.361	658.802
245.074	15.259	870.773	658.689
246.088	15.084	869.908	657.291
247.103	15.162	869.601	657.306
248.117	15.358	868.654	657.303
249.132	15.325	868.316	656.857
250.147	15.574	867.879	657.445
251.161	15.668	867.144	657.197
252.176	15.603	866.610	656.482
253.190	15.732	865.646	656.195
254.205	15.629	865.434	655.575
255.220	15.729	864.989	655.570
256.234	15.757	864.049	654.909
257.249	15.766	863.352	654.356
258.263	15.734	862.899	653.829
259.278	15.895	861.866	653.617
260.293	15.767	861.837	653.039
261.307	15.824	861.270	652.772
262.322	15.858	860.845	652.524
263.336	15.873	860.361	652.159
264.351	15.884	859.677	651.625
265.366	15.777	859.326	650.888
266.380	15.917	858.536	650.770
267.395	15.893	857.939	650.169
268.409	15.903	857.049	649.474
269.424	15.840	856.312	648.616
270.439	15.800	855.630	647.890
271.453	15.728	855.042	647.110
272.468	15.690	854.284	646.331
273.482	15.625	853.828	645.678
274.497	15.653	853.626	645.576
275.512	15.762	852.445	645.046
276.526	15.763	851.681	644.413
277.541	15.783	851.016	643.931
278.555	15.774	850.749	643.637
279.570	15.841	850.030	643.292
280.585	16.020	849.382	643.427
281.599	16.144	848.414	643.110
282.614	16.045	847.984	642.352
283.628	16.110	847.336	642.049
284.643	15.935	847.176	641.208
285.657	15.992	846.645	640.966
286.672	15.980	846.078	640.434
287.687	16.026	845.595	640.184
288.701	15.875	845.294	639.327
289.716	15.988	844.534	639.127
290.730	15.902	843.974	638.317
291.745	16.064	843.348	638.400
292.760	16.083	842.544	637.809
293.774	16.175	841.833	637.560
294.789	16.161	841.409	637.133
295.803	16.138	840.871	636.581
296.818	16.018	840.286	635.628
297.833	16.085	839.531	635.254
298.847	15.965	838.998	634.343
299.862	16.179	838.101	634.415
300.876	16.193	837.486	633.943
301.891	16.121	837.160	633.372
302.906	16.141	836.418	632.828
303.920	16.265	835.678	632.677
304.935	16.360	835.297	632.690
305.949	16.507	834.471	632.558
306.964	16.481	834.112	632.133
307.979	16.315	833.571	631.045
308.993	16.343	832.856	630.552
310.008	16.324	832.342	630.038
311.022	16.579	832.161	630.794
312.037	16.468	831.554	629.865
313.052	16.547	830.837	629.562
314.066	16.296	830.465	628.291
315.081	16.313	829.914	627.879
316.095	16.283	829.068	627.075
317.110	16.367	828.488	626.889
318.125	16.376	828.126	626.594
319.139	16.243	827.781	625.786
320.154	16.246	827.359	625.423
321.168	16.445	826.558	625.500
322.183	16.454	825.949	625.016
323.197	16.377	825.614	624.421
324.212	16.514	824.752	624.222
325.227	16.392	824.601	623.601
326.241	16.386	824.304	623.297
327.256	16.574	823.237	623.130
328.270	16.509	822.731	622.451
329.285	16.320	822.635	621.627
330.300	16.395	821.675	621.122
331.314	16.649	820.416	621.048
332.329	16.588	820.515	620.845
333.343	16.544	820.253	620.429
334.358	16.532	819.689	619.904
335.373	16.612	818.744	619.430
336.387	16.617	818.327	619.077
337.402	16.567	818.078	618.652
338.416	16.602	817.437	618.237
339.431	16.688	817.328	618.416
340.446	16.802	816.242	617.956
341.460	16.845	816.022	617.889
342.475	16.901	815.224	617.435
343.489	16.906	814.530	616.876
344.504	17.056	813.924	616.905
345.519	17.033	813.392	616.366
346.533	16.844	813.565	615.755
347.548	17.062	812.700	615.835
348.562	16.959	812.172	615.007
349.577	16.890	811.338	614.072
350.592	16.914	810.727	613.643
351.606	16.979	810.373	613.554
352.621	16.829	809.794	612.521
353.635	16.964	809.382	612.640
354.650	16.945	808.951	612.192
355.665	16.929	808.757	611.935
356.679	16.953	808.155	611.510
357.694	16.962	808.004	611.375
358.708	16.954	807.203	610.687
359.723	16.986	806.704	610.369
360.738	17.042	806.052	610.023
361.752	17.004	805.570	609.470
362.767	16.985	805.725	609.462
363.781	17.068	805.264	609.360
364.796	17.301	804.514	609.573
365.810	17.265	804.121	609.092
366.825	17.261	803.778	608.763
367.840	17.209	803.624	608.407
368.854	17.417	802.700	608.397
369.869	17.322	802.293	607.698
370.883	17.335	801.679	607.225
371.898	17.178	801.098	606.170
372.913	17.034	801.246	605.716
373.927	17.365	800.558	606.322
374.942	17.395	799.143	605.301
375.956	17.382	798.761	604.913
376.971	17.487	798.318	604.896
377.986	17.424	797.861	604.275
379.000	17.490	797.340	604.059
380.015	17.574	797.063	604.096
381.029	17.565	796.264	603.403
382.044	17.544	795.751	602.888
383.059	17.541	795.183	602.394
384.073	17.629	794.600	602.209
385.088	17.566	794.214	601.640
386.102	17.595	793.661	601.270
387.117	17.277	793.257	599.791
388.132	17.444	792.484	599.741
389.146	17.411	792.191	599.349
390.161	17.331	791.806	598.725
391.175	17.539	791.502	599.172
392.190	17.747	791.107	599.551
393.205	17.550	790.731	598.522
394.219	17.471	790.325	597.882
395.234	17.412	789.887	597.293
396.248	17.433	789.434	596.970
397.263	17.391	788.514	596.076
398.278	17.408	788.199	595.844
399.292	17.567	787.733	595.996
400.307	17.379	787.478	595.093
401.321	17.396	786.907	594.668
402.336	17.398	786.684	594.454
403.350	17.552	786.381	594.708
404.365	17.586	786.023	594.503
405.380	17.548	785.883	594.214
406.394	17.723	785.017	594.117
407.409	17.770	784.421	593.776
408.423	17.968	783.953	594.059
409.438	17.852	783.562	593.306
410.453	17.763	783.406	592.827
411.467	17.837	783.290	592.943
412.482	17.970	782.387	592.669
413.496	17.972	781.871	592.231
414.511	17.981	781.320	591.793
415.526	18.050	781.179	591.874
416.540	17.962	781.149	591.493
417.555	18.076	780.372	591.247
418.569	18.027	779.859	590.635
419.584	17.983	779.354	590.051
420.599	18.023	779.236	590.048
421.613	156.791	1369.430	1797.225
422.628	135.290	1455.423	1797.330
