DTS Sentinel unit serial number:	SN413079Multiplexer serial number:	ORYXHardware model number:	OX4-SRSoftware version number:	ORYX F/W v4.00 Oryx Data Collector v3.7.2.0data status	okinstallation	princeton_trtdifferential loss correction	single-endedforward channel	channel 3reverse channel	N/Adate	2019/09/12time	19:06:03forward acquisition time	15.00reverse acquisition time	0.00gamma	496.2192k internal	0.2320k external	0.2320temperature offset calibration	1.0091default loss term (dB/km)	0.3790temperature slope calibration	1.0000multiplexer offset coefficient	1.0000multiplexer slope coefficient	1.0000fibre end	0.00T internal ref (°C)	32.69T ext. ref 1 (°C)	3.02T ext. ref 2 (°C)	27.18length (m)	temperature (°C)	Stokes	anti-Stokes-747.200	-56.871	-0.334	0.149
-746.185	196.545	-0.316	-0.486
-745.171	74.161	0.786	-0.834
-744.156	-2.519	-0.560	-0.397
-743.142	266.103	0.454	0.801
-742.127	-87.951	0.647	-0.197
-741.112	486.729	0.202	0.465
-740.098	11.151	0.527	0.408
-739.083	60.630	0.286	-0.286
-738.069	-7.991	0.490	-0.334
-737.054	-93.550	-0.631	0.176
-736.039	800.000	0.094	-0.361
-735.025	-68.898	-1.220	-0.476
-734.010	-27.754	-0.811	-0.476
-732.996	-132.867	-0.466	-0.060
-731.981	62.892	0.557	-0.564
-730.966	-200.000	-0.040	-0.607
-729.952	-186.376	-1.214	0.018
-728.937	-200.000	-0.057	-0.374
-727.923	-200.000	0.031	0.333
-726.908	-174.753	-0.912	-0.026
-725.894	-29.970	-0.303	-0.174
-724.879	-168.707	-0.604	0.023
-723.864	55.303	-0.119	0.116
-722.850	-200.000	0.035	-0.506
-721.835	23.398	0.326	-0.271
-720.821	147.281	0.393	0.535
-719.806	800.000	-0.121	-0.522
-718.791	194.551	-0.453	-0.694
-717.777	-97.450	-0.510	-0.134
-716.762	-200.000	0.062	-0.588
-715.748	-107.634	-0.638	0.141
-714.733	-200.000	-0.093	0.548
-713.718	323.102	-0.299	-0.575
-712.704	-200.000	-0.023	0.157
-711.689	-9.984	0.365	-0.245
-710.675	-200.000	0.031	-0.328
-709.660	279.829	-0.119	-0.215
-708.645	-200.000	0.137	-0.869
-707.631	14.546	0.464	-0.366
-706.616	164.945	-0.433	-0.617
-705.602	-86.762	0.491	0.151
-704.587	-135.033	-0.586	0.071
-703.572	14.419	0.310	0.244
-702.558	117.622	-0.198	0.246
-701.543	-66.213	-0.501	-0.201
-700.529	199.691	0.247	0.382
-699.514	89.984	0.373	-0.421
-698.499	580.570	0.193	-0.478
-697.485	-118.099	1.039	-0.187
-696.470	-34.482	-1.141	-0.631
-695.456	47.808	0.613	-0.577
-694.441	76.593	-0.478	-0.512
-693.426	-8.721	-0.815	0.552
-692.412	800.000	-0.106	-0.399
-691.397	0.952	0.085	-0.062
-690.383	-49.793	-0.699	-0.335
-689.368	448.112	0.373	-0.829
-688.354	-42.784	-0.494	-0.253
-687.339	574.134	0.359	-0.884
-686.324	-188.551	-0.948	0.012
-685.310	-200.000	0.064	-0.400
-684.295	535.407	0.026	0.062
-683.281	-200.000	0.051	0.284
-682.266	173.247	-0.123	-0.178
-681.251	-200.000	0.172	-0.822
-680.237	34.151	-0.557	0.489
-679.222	-200.000	0.078	-0.472
-678.208	-200.000	0.079	-0.777
-677.193	-92.977	0.400	-0.113
-676.178	-100.175	0.450	-0.113
-675.164	438.021	-0.165	-0.362
-674.149	61.339	0.699	-0.700
-673.135	-94.445	0.632	0.174
-672.120	-132.354	1.052	0.137
-671.105	206.329	-0.119	-0.186
-670.091	-52.394	-0.406	-0.190
-669.076	104.066	0.777	-0.921
-668.062	364.115	-0.240	0.487
-667.047	128.545	-0.123	0.158
-666.032	-147.114	0.400	0.034
-665.018	-200.000	0.039	-1.040
-664.003	234.729	-0.266	-0.442
-662.989	-85.966	-0.703	0.219
-661.974	32.040	-0.420	-0.365
-660.959	287.650	-0.197	-0.359
-659.945	-29.401	0.170	0.098
-658.930	-200.000	0.063	-0.321
-657.916	800.000	0.145	-0.415
-656.901	206.225	0.204	0.320
-655.886	-200.000	0.028	0.315
-654.872	-200.000	0.052	-0.368
-653.857	-110.209	-0.740	0.155
-652.843	-116.278	-0.698	-0.130
-651.828	-200.000	-0.166	0.833
-650.814	-49.981	0.811	-0.388
-649.799	-68.059	0.235	-0.092
-648.784	272.597	-0.105	-0.187
-647.770	800.000	0.168	-0.558
-646.755	800.000	0.101	0.428
-645.741	266.927	0.155	-0.273
-644.726	-200.000	-0.010	0.202
-643.711	150.247	-0.288	0.394
-642.697	-129.300	-0.281	0.039
-641.682	50.794	0.146	-0.140
-640.668	-200.000	0.096	-0.857
-639.653	5.101	0.050	-0.037
-638.638	-200.000	-0.007	0.383
-637.624	-200.000	-0.022	-0.656
-636.609	-78.627	-0.172	-0.059
-635.595	-154.017	0.057	0.004
-634.580	-85.584	0.323	0.101
-633.565	-65.338	-0.292	-0.118
-632.551	800.000	0.187	0.621
-631.536	-200.000	0.209	0.994
-630.522	31.626	-0.523	0.453
-629.507	462.465	0.224	0.503
-628.492	32.438	0.532	0.462
-627.478	-200.000	-0.027	0.471
-626.463	18.781	-0.306	0.246
-625.449	-78.284	-0.196	-0.068
-624.434	201.258	0.166	0.257
-623.419	-94.918	0.683	0.186
-622.405	-77.161	-0.013	-0.005
-621.390	26.263	0.593	-0.498
-620.376	378.691	0.293	-0.603
-619.361	-42.737	0.676	-0.346
-618.346	-200.000	0.016	-1.234
-617.332	136.795	-0.349	-0.459
-616.317	-46.457	0.258	-0.127
-615.303	-200.000	0.082	-0.737
-614.288	-44.858	0.155	0.078
-613.273	78.491	-0.160	0.172
-612.259	150.277	0.691	0.944
-611.244	-85.050	-0.519	-0.164
-610.230	-44.470	0.627	-0.315
-609.215	-50.934	-0.312	-0.148
-608.201	-200.000	-0.000	-0.326
-607.186	-200.000	0.001	0.381
-606.171	276.617	0.384	-0.686
-605.157	-200.000	0.051	0.433
-604.142	-200.000	0.004	-0.445
-603.128	-82.024	0.256	0.084
-602.113	146.680	-0.163	-0.220
-601.098	-200.000	-0.174	0.808
-600.084	73.100	0.440	0.462
-599.069	-200.000	-0.116	0.682
-598.055	800.000	-0.086	-0.376
-597.040	751.829	0.397	-1.078
-596.025	-200.000	0.114	-0.947
-595.011	-28.688	0.621	0.359
-593.996	58.409	-0.437	-0.431
-592.982	-24.950	-0.147	-0.088
-591.967	-200.000	-0.010	-0.600
-590.952	-92.943	0.980	-0.275
-589.938	350.007	0.285	0.566
-588.923	800.000	-0.276	-0.996
-587.909	-53.689	-0.398	-0.183
-586.894	17.914	0.094	-0.075
-585.879	-200.000	0.092	1.104
-584.865	-46.594	0.161	0.080
-583.850	88.978	0.285	0.319
-582.836	-49.290	-0.758	0.364
-581.821	-93.760	-0.451	-0.125
-580.806	35.626	0.500	-0.441
-579.792	274.592	-0.339	0.604
-578.777	34.324	-0.184	0.161
-577.763	-200.000	-0.053	-0.710
-576.748	363.178	0.371	-0.749
-575.733	-105.857	0.381	0.086
-574.719	12.962	-0.643	-0.500
-573.704	800.000	0.103	0.416
-572.690	-5.771	0.304	0.209
-571.675	800.000	0.089	0.252
-570.661	553.570	0.356	-0.860
-569.646	-86.745	1.135	0.349
-568.631	-22.232	0.201	0.122
-567.617	-200.000	0.016	-0.179
-566.602	-200.000	0.081	-0.693
-565.588	800.000	0.325	-0.930
-564.573	-200.000	0.035	0.395
-563.558	-200.000	0.012	0.186
-562.544	-200.000	-0.080	-0.519
-561.529	-159.926	-0.463	0.025
-560.515	54.853	0.603	0.585
-559.500	325.107	-0.225	0.431
-558.485	-40.389	-0.744	-0.388
-557.471	800.000	0.287	0.984
-556.456	47.746	0.122	0.114
-555.442	-125.097	0.668	0.103
-554.427	-30.933	0.549	0.312
-553.412	-127.155	0.196	0.029
-552.398	-170.461	-0.749	0.026
-551.383	-128.177	0.649	-0.093
-550.369	-88.240	-0.326	0.098
-549.354	-50.624	0.420	-0.199
-548.339	-101.884	0.663	-0.161
-547.325	-4.966	0.541	-0.374
-546.310	800.000	-0.098	-0.290
-545.296	-130.255	-0.944	-0.129
-544.281	189.249	-0.592	0.889
-543.266	-157.863	0.329	-0.020
-542.252	477.896	-0.220	0.500
-541.237	-95.053	0.454	0.123
-540.223	-142.895	-0.435	-0.042
-539.208	1.789	-0.171	0.123
-538.193	-36.962	0.668	-0.359
-537.179	-86.874	-0.307	0.094
-536.164	549.508	-0.045	-0.109
-535.150	800.000	0.022	0.072
-534.135	3.544	-0.126	-0.092
-533.121	-17.532	-0.508	-0.320
-532.106	-5.112	0.252	0.174
-531.091	112.247	-0.636	-0.771
-530.077	362.347	-0.168	0.339
-529.062	-145.647	-0.440	0.039
-528.048	726.659	-0.148	-0.397
-527.033	-27.205	0.418	-0.244
-526.018	-145.912	-1.221	0.109
-525.004	23.752	0.533	0.440
-523.989	100.044	-0.389	-0.452
-522.975	-124.883	-0.432	0.067
-521.960	94.204	-0.300	0.342
-520.945	-200.000	0.093	0.556
-519.931	-200.000	-0.018	0.501
-518.916	88.729	-0.593	-0.661
-517.902	-200.000	0.107	0.843
-516.887	681.889	-0.239	-0.624
-515.872	316.683	0.509	-0.963
-514.858	118.063	0.494	0.610
-513.843	85.060	0.238	-0.261
-512.829	729.721	-0.327	0.874
-511.814	-188.803	-0.144	0.002
-510.799	9.168	0.606	-0.458
-509.785	-137.014	1.108	0.127
-508.770	-200.000	-0.030	0.643
-507.756	32.969	0.466	0.404
-506.741	800.000	-0.094	0.319
-505.726	372.675	-0.267	0.544
-504.712	20.591	0.253	0.205
-503.697	-200.000	0.108	-0.697
-502.683	-77.486	0.728	0.253
-501.668	-114.362	-0.961	-0.185
-500.653	110.069	0.459	-0.552
-499.639	-200.000	-0.015	1.387
-498.624	-141.370	-0.483	-0.049
-497.610	-137.767	0.760	0.085
-496.595	241.850	-0.251	-0.420
-495.581	-200.000	-0.081	-0.701
-494.566	96.814	-0.434	0.498
-493.551	49.970	-0.034	-0.032
-492.537	-200.000	0.141	-0.629
-491.522	430.042	0.408	0.883
-490.508	87.865	-0.461	0.512
-489.493	800.000	0.074	-0.256
-488.478	-200.000	0.029	-0.241
-487.464	-142.673	1.362	0.133
-486.449	716.643	0.027	-0.073
-485.435	203.747	-0.122	0.189
-484.420	315.477	-0.330	0.623
-483.405	-200.000	-0.142	-0.751
-482.391	25.235	0.221	-0.184
-481.376	171.797	0.529	0.761
-480.362	28.552	-0.206	0.174
-479.347	-117.136	-0.400	0.073
-478.332	-99.156	-0.731	0.185
-477.318	-42.881	-0.472	0.240
-476.303	225.350	0.098	0.159
-475.289	30.987	0.376	0.323
-474.274	33.548	-0.605	0.526
-473.259	-146.096	-0.358	0.032
-472.245	-200.000	0.071	-0.362
-471.230	-165.077	-1.082	0.048
-470.216	216.602	-0.342	-0.544
-469.201	76.676	-0.701	0.744
-468.186	-200.000	-0.009	-0.226
-467.172	-177.386	-0.722	0.018
-466.157	380.383	-0.152	0.312
-465.143	-110.422	0.400	-0.083
-464.128	-15.060	-0.311	0.199
-463.113	-35.000	0.616	-0.336
-462.099	800.000	-0.102	0.330
-461.084	-48.669	-0.411	-0.198
-460.070	-131.651	0.509	-0.067
-459.055	30.736	0.586	0.501
-458.040	63.731	-0.119	0.120
-457.026	-149.915	-0.525	0.041
-456.011	4.760	-0.390	0.286
-454.997	580.235	0.138	0.338
-453.982	-200.000	0.025	0.205
-452.968	-200.000	0.025	0.393
-451.953	-78.697	-0.380	-0.130
-450.938	-135.469	-0.231	0.028
-449.924	-24.941	-0.564	-0.335
-448.909	606.177	-0.151	0.377
-447.895	-30.045	-1.251	0.711
-446.880	74.711	0.287	-0.302
-445.865	-54.876	-0.510	0.230
-444.851	-105.408	0.455	0.103
-443.836	-140.796	-0.342	-0.035
-442.822	-200.000	0.062	0.485
-441.807	-65.289	-0.632	-0.254
-440.792	-200.000	0.166	-0.815
-439.778	70.300	0.236	0.244
-438.763	-13.302	0.254	-0.165
-437.749	-25.815	-0.192	-0.113
-436.734	47.633	0.771	0.719
-435.719	800.000	-0.118	0.445
-434.705	-26.399	-1.164	0.682
-433.690	3.226	0.110	0.080
-432.676	-200.000	0.107	0.670
-431.661	-32.654	-0.374	0.208
-430.646	-105.203	-0.660	-0.150
-429.632	-150.472	-0.352	-0.027
-428.617	237.045	0.426	0.704
-427.603	71.460	-0.095	-0.099
-426.588	800.000	-0.077	-0.317
-425.573	-79.637	0.896	-0.302
-424.559	-22.506	0.362	-0.219
-423.544	325.269	-0.320	-0.611
-422.530	75.531	-0.461	0.486
-421.515	-200.000	-0.000	-0.747
-420.500	-200.000	0.008	-0.602
-419.486	-200.000	-0.122	0.617
-418.471	-144.123	0.431	-0.040
-417.457	-124.957	0.321	0.049
-416.442	55.940	-0.618	-0.599
-415.428	6.215	-0.166	0.123
-414.413	140.995	-0.207	0.273
-413.398	38.593	0.225	0.200
-412.384	101.606	0.347	-0.403
-411.369	18.416	-0.774	-0.617
-410.355	-127.641	-0.788	-0.114
-409.340	118.096	-0.279	0.343
-408.325	-200.000	-0.005	0.428
-407.311	800.000	-0.175	0.565
-406.296	800.000	-0.265	0.864
-405.282	228.264	0.099	-0.160
-404.267	115.586	0.107	-0.130
-403.252	-117.442	-0.437	0.079
-402.238	-200.000	-0.003	-0.284
-401.223	-123.479	-0.346	0.055
-400.209	-10.691	-0.196	-0.129
-399.194	310.207	-0.348	0.649
-398.179	-24.240	0.527	-0.314
-397.165	-93.076	0.766	-0.213
-396.150	-200.000	-0.067	-0.679
-395.136	-48.118	-0.293	0.141
-394.121	-200.000	-0.029	0.426
-393.106	0.089	0.237	0.169
-392.092	-111.371	0.679	0.138
-391.077	81.382	0.470	-0.507
-390.063	-75.499	0.484	0.172
-389.048	123.097	-0.768	0.959
-388.033	-174.430	1.001	0.029
-387.019	-132.645	0.494	-0.063
-386.004	406.121	0.220	0.462
-384.990	-115.842	0.427	-0.080
-383.975	329.068	-0.089	-0.171
-382.960	293.265	-0.230	-0.418
-381.946	188.151	-0.545	-0.812
-380.931	-101.544	-0.763	-0.185
-379.917	-200.000	0.242	1.060
-378.902	-75.724	0.160	-0.057
-377.888	-200.000	0.095	-0.449
-376.873	-200.000	-0.035	-0.440
-375.858	273.696	-0.718	-1.266
-374.844	-200.000	-0.019	0.150
-373.829	88.647	0.218	0.242
-372.815	-200.000	-0.043	-0.432
-371.800	164.094	0.119	-0.167
-370.785	-44.737	-0.448	0.223
-369.771	800.000	0.074	-0.229
-368.756	-27.250	0.416	0.241
-367.742	800.000	-0.079	-0.299
-366.727	800.000	-0.184	-0.761
-365.712	90.492	-0.158	0.176
-364.698	102.003	0.269	0.313
-363.683	31.242	0.393	0.336
-362.669	-81.613	0.509	-0.166
-361.654	-88.082	-0.230	0.069
-360.639	-23.487	-0.275	0.164
-359.625	800.000	-0.081	-0.223
-358.610	514.726	0.140	-0.324
-357.596	-200.000	0.072	-0.918
-356.581	383.034	-0.208	0.426
-355.566	215.488	0.248	0.393
-354.552	-200.000	-0.104	0.551
-353.537	-172.473	0.695	-0.022
-352.523	-44.466	-0.255	-0.127
-351.508	-200.000	-0.172	1.086
-350.493	-97.942	-0.676	-0.174
-349.479	-120.288	0.475	-0.081
-348.464	-119.903	-0.520	0.089
-347.450	-167.726	0.539	0.021
-346.435	231.548	0.231	0.377
-345.420	226.893	0.454	-0.734
-344.406	-141.276	0.638	0.065
-343.391	53.661	-0.362	-0.346
-342.377	745.492	0.154	-0.413
-341.362	-54.739	-0.372	0.167
-340.348	-135.423	0.470	-0.056
-339.333	123.654	0.485	-0.606
-338.318	-82.608	0.107	0.035
-337.304	-121.675	-0.497	0.082
-336.289	-160.243	-0.347	0.019
-335.275	-23.539	0.771	-0.460
-334.260	-46.481	0.324	0.158
-333.245	-94.459	0.345	-0.094
-332.231	800.000	-0.248	-0.694
-331.216	245.444	-0.604	-1.012
-330.202	88.457	-0.246	0.272
-329.187	-200.000	0.003	0.795
-328.172	242.197	0.297	0.493
-327.158	140.643	0.549	0.721
-326.143	-129.410	-0.458	-0.063
-325.129	-55.617	-0.114	0.051
-324.114	-157.093	0.243	-0.015
-323.099	-62.830	0.545	0.224
-322.085	-23.663	-0.448	-0.267
-321.070	-152.728	0.579	0.041
-320.056	-101.781	0.857	-0.206
-319.041	800.000	-0.090	0.301
-318.026	-64.677	0.210	-0.085
-317.012	-200.000	0.137	-0.670
-315.997	-60.914	-0.967	0.407
-314.983	800.000	-0.177	0.662
-313.968	787.134	-0.339	-0.926
-312.953	245.967	0.337	-0.565
-311.939	-200.000	-0.133	-0.730
-310.924	-200.000	-0.065	-0.512
-309.910	-73.011	0.557	-0.203
-308.895	-200.000	-0.073	0.544
-307.880	51.665	0.982	0.928
-306.866	117.951	0.580	-0.710
-305.851	488.887	-0.439	0.996
-304.837	800.000	-0.058	-0.198
-303.822	-200.000	-0.039	-0.192
-302.807	36.002	-0.399	0.349
-301.793	67.825	-0.399	-0.405
-300.778	31.477	-0.497	-0.425
-299.764	1.123	-0.893	-0.637
-298.749	229.162	0.657	-1.066
-297.735	-200.000	-0.033	0.246
-296.720	140.239	-0.184	-0.241
-295.705	-200.000	0.073	-0.595
-294.691	20.172	-0.884	-0.709
-293.676	-77.803	-0.390	-0.134
-292.662	-124.017	-0.594	-0.093
-291.647	800.000	-0.052	-0.214
-290.632	-137.147	-0.301	0.034
-289.618	800.000	-0.240	-0.884
-288.603	-152.025	-0.509	-0.037
-287.589	83.145	0.540	-0.584
-286.574	-44.532	0.320	0.159
-285.559	-200.000	-0.033	0.487
-284.545	186.195	0.190	-0.281
-283.530	-143.404	-0.399	0.038
-282.516	800.000	0.109	0.301
-281.501	-58.964	0.300	-0.128
-280.486	-200.000	-0.079	0.739
-279.472	42.419	0.684	-0.618
-278.457	-33.600	-0.506	-0.278
-277.443	351.509	-0.245	0.481
-276.428	-102.507	-0.642	-0.153
-275.413	63.521	0.529	-0.527
-274.399	-61.643	-0.383	0.159
-273.384	-200.000	0.004	0.538
-272.370	-18.737	0.824	0.510
-271.355	-26.851	0.167	-0.097
-270.340	102.004	0.375	0.435
-269.326	-200.000	0.010	0.211
-268.311	133.044	0.207	-0.266
-267.297	-200.000	0.067	-0.757
-266.282	-136.691	-0.297	0.034
-265.267	278.005	-0.338	-0.597
-264.253	-81.789	-0.598	-0.195
-263.238	800.000	-0.148	0.446
-262.224	-33.628	-0.788	-0.432
-261.209	-48.770	0.248	0.118
-260.195	-85.961	-0.905	-0.278
-259.180	-127.450	0.607	0.088
-258.165	-61.320	-0.514	-0.214
-257.151	217.305	0.256	-0.404
-256.136	-100.483	0.267	-0.066
-255.122	220.086	0.805	1.279
-254.107	-113.543	-0.370	-0.072
-253.092	136.890	-0.260	0.337
-252.078	-75.619	-0.171	0.060
-251.063	221.350	0.297	-0.472
-250.049	800.000	0.157	-0.544
-249.034	-10.326	-0.447	0.294
-248.019	-67.603	-0.870	-0.338
-247.005	800.000	0.172	-0.562
-245.990	686.625	0.517	-1.340
-244.976	-21.076	-0.626	0.380
-243.961	-200.000	-0.105	0.509
-242.946	202.539	0.101	0.155
-241.932	229.846	0.453	-0.734
-240.917	67.423	0.256	-0.259
-239.903	30.310	-0.447	-0.379
-238.888	-86.406	-0.549	-0.167
-237.873	80.061	0.763	0.813
-236.859	800.000	-0.200	-0.711
-235.844	-200.000	-0.048	-0.319
-234.830	-186.667	0.910	-0.013
-233.815	800.000	0.063	-0.258
-232.800	-150.863	0.509	0.038
-231.786	184.928	0.322	0.474
-230.771	437.666	0.319	0.688
-229.757	368.171	-0.190	-0.380
-228.742	474.163	-0.215	0.480
-227.727	-58.386	0.332	-0.143
-226.713	-93.734	0.667	0.182
-225.698	151.646	-0.254	0.343
-224.684	-104.884	0.564	0.128
-223.669	800.000	0.139	0.486
-222.655	118.822	-0.513	-0.628
-221.640	-158.114	0.650	-0.038
-220.625	109.019	0.268	0.317
-219.611	-129.439	-0.330	0.045
-218.596	800.000	0.237	-0.685
-217.582	13.947	-0.375	-0.289
-216.567	-104.274	0.358	-0.082
-215.552	-200.000	-0.069	0.401
-214.538	-122.248	0.308	0.050
-213.523	-4.460	0.212	-0.145
-212.509	0.214	0.298	0.211
-211.494	356.004	0.277	0.546
-210.479	-162.508	-0.297	0.015
-209.465	207.611	-0.416	0.643
-208.450	-185.809	-0.471	0.007
-207.436	-2.718	0.483	0.334
-206.421	366.067	0.049	-0.098
-205.406	-85.903	0.525	-0.161
-204.392	-27.273	1.062	-0.613
-203.377	136.911	-0.171	0.221
-202.363	120.828	-0.372	0.458
-201.348	-83.181	-0.374	0.119
-200.333	-72.391	0.204	0.075
-199.319	433.494	0.432	0.928
-198.304	-145.174	-0.518	0.046
-197.290	-15.275	-0.210	-0.133
-196.275	-144.285	-0.259	-0.024
-195.260	119.384	-0.289	0.354
-194.246	-99.362	-0.624	-0.156
-193.231	-200.000	-0.104	-0.531
-192.217	800.000	-0.062	-0.212
-191.202	-200.000	0.037	-0.498
-190.187	-200.000	0.076	0.375
-189.173	111.735	-0.013	0.016
-188.158	191.820	-0.136	0.203
-187.144	7.032	-0.406	0.300
-186.129	-200.000	0.025	0.221
-185.114	-127.925	-0.632	-0.090
-184.100	175.541	-0.185	-0.265
-183.085	-93.187	-0.179	-0.049
-182.071	800.000	0.070	0.268
-181.056	-116.617	-0.890	0.162
-180.042	-200.000	0.041	0.288
-179.027	-51.629	-0.240	0.110
-178.012	-200.000	0.062	0.354
-176.998	53.846	-0.525	0.499
-175.983	-121.565	-0.293	-0.048
-174.969	21.407	0.421	-0.339
-173.954	346.929	0.143	-0.278
-172.939	-131.048	-0.769	0.101
-171.925	6.901	0.258	0.190
-170.910	-200.000	0.152	0.724
-169.896	-116.917	0.664	-0.120
-168.881	-93.416	-1.010	-0.277
-167.866	-132.198	0.634	0.081
-166.852	-120.560	0.997	-0.167
-165.837	-200.000	0.079	0.480
-164.823	800.000	-0.088	0.326
-163.808	12.169	0.256	-0.195
-162.793	57.057	0.537	0.517
-161.779	-200.000	0.041	-0.631
-160.764	18.316	-0.337	-0.266
-159.750	800.000	0.125	0.512
-158.735	60.116	-0.245	-0.240
-157.720	71.717	0.211	-0.217
-156.706	-200.000	0.071	0.974
-155.691	-136.010	-0.222	0.026
-154.677	352.724	0.150	-0.293
-153.662	-200.000	0.005	-0.364
-152.647	-57.306	0.532	0.231
-151.633	-74.621	-0.409	0.146
-150.618	-102.751	-0.783	0.184
-149.604	-4.716	-0.610	-0.416
-148.589	-0.457	0.801	0.562
-147.574	157.832	-0.066	0.091
-146.560	207.952	-0.125	-0.192
-145.545	-94.709	-0.538	0.144
-144.531	162.515	0.245	0.340
-143.516	-54.804	0.480	-0.214
-142.502	-155.466	-0.353	-0.023
-141.487	-200.000	0.140	-0.665
-140.472	-200.000	-0.005	-0.164
-139.458	-200.000	0.067	-0.621
-138.443	-200.000	-0.054	0.377
-137.429	-121.007	-0.521	0.086
-136.414	72.820	-0.287	0.296
-135.399	-134.162	-0.954	-0.116
-134.385	276.205	-0.130	-0.228
-133.370	120.873	-0.404	-0.496
-132.356	27.344	0.499	-0.414
-131.341	51.774	0.386	-0.363
-130.326	-8.792	0.334	0.221
-129.312	-24.510	0.350	0.206
-128.297	-200.000	-0.068	0.823
-127.283	-71.662	-0.357	-0.132
-126.268	598.668	-0.124	0.304
-125.253	-92.873	-0.466	-0.129
-124.239	-190.425	-0.489	-0.005
-123.224	-0.496	0.281	-0.197
-122.210	-68.328	0.261	-0.100
-121.195	63.577	0.219	-0.217
-120.180	-164.224	-0.929	-0.042
-119.166	15.548	-0.944	0.732
-118.151	347.236	-0.224	-0.435
-117.137	6.367	-0.973	-0.713
-116.122	376.817	0.191	-0.385
-115.107	800.000	-0.321	0.989
-114.093	800.000	-0.162	0.673
-113.078	229.777	0.198	-0.320
-112.064	-200.000	-0.170	-0.815
-111.049	-141.987	-0.551	-0.054
-110.034	465.008	0.231	-0.509
-109.020	-200.000	-0.093	0.733
-108.005	-147.492	0.881	-0.073
-106.991	-8.040	0.523	0.347
-105.976	800.000	0.038	-0.143
-104.962	-3.098	0.664	0.457
-103.947	476.334	-0.108	0.242
-102.932	-35.232	-0.160	-0.086
-101.918	-200.000	-0.368	-0.001
-100.903	102.668	0.863	-0.995
-99.889	-136.950	0.642	0.073
-98.874	455.183	0.424	-0.928
-97.859	-200.000	-0.061	-0.911
-96.845	157.193	0.219	0.299
-95.830	263.456	0.377	-0.646
-94.816	-109.440	1.149	-0.239
-93.801	-125.994	0.442	-0.066
-92.786	-141.826	0.389	-0.038
-91.772	5.138	-0.164	0.119
-90.757	-14.157	0.838	0.533
-89.743	515.242	-0.130	-0.298
-88.728	172.108	0.338	-0.479
-87.713	591.397	-0.149	0.364
-86.699	800.000	-0.076	0.285
-85.684	-49.104	-0.764	0.360
-84.670	-200.000	-0.074	-1.006
-83.655	326.281	0.157	-0.296
-82.640	-39.117	0.940	0.487
-81.626	-169.861	-0.201	0.007
-80.611	33.388	0.518	0.443
-79.597	-66.376	0.099	0.039
-78.582	-123.301	-0.157	0.025
-77.567	393.873	-0.468	-0.961
-76.553	-54.242	0.256	-0.115
-75.538	-132.257	0.965	-0.123
-74.524	-94.997	-0.276	-0.073
-73.509	-138.221	-0.552	-0.060
-72.494	-61.417	-0.533	-0.221
-71.480	-200.000	0.179	-1.031
-70.465	55.396	-0.120	-0.114
-69.451	-182.419	-0.195	0.004
-68.436	800.000	0.090	0.385
-67.422	-189.928	0.493	-0.005
-66.407	800.000	-0.240	-0.703
-65.392	-6.478	-0.395	0.265
-64.378	-200.000	0.114	-0.876
-63.363	-200.000	-0.029	-0.152
-62.349	-129.043	0.289	0.040
-61.334	27.674	-1.006	-0.834
-60.319	300.598	0.268	-0.488
-59.305	216.293	-0.589	-0.922
-58.290	-200.000	0.227	1.232
-57.276	800.000	0.480	1.404
-56.261	-200.000	95.134	586.667
-55.246	673.036	1354.349	3457.124
-54.232	203.887	2519.023	3838.869
-53.217	118.314	2142.555	2600.952
-52.203	43.239	1695.022	1523.106
-51.188	36.089	1509.437	1307.988
-50.173	33.543	1483.619	1268.554
-49.159	53.632	1534.443	1449.163
-48.144	54.240	1552.439	1470.240
-47.130	35.885	1511.827	1308.462
-46.115	32.830	1497.647	1275.523
-45.100	32.865	1493.116	1271.850
-44.086	32.774	1491.241	1269.590
-43.071	32.752	1489.209	1267.662
-42.057	32.631	1488.363	1266.077
-41.042	32.907	1486.107	1265.961
-40.027	32.870	1484.649	1264.421
-39.013	32.560	1483.864	1261.625
-37.998	32.424	1483.367	1260.240
-36.984	32.599	1481.743	1259.985
-35.969	32.666	1480.213	1259.080
-34.954	32.808	1478.125	1258.202
-33.940	32.388	1477.519	1254.838
-32.925	32.802	1475.838	1256.115
-31.911	32.720	1475.151	1254.936
-30.896	32.619	1474.284	1253.477
-29.881	32.688	1472.247	1252.150
-28.867	32.695	1470.238	1250.439
-27.852	32.670	1468.845	1249.040
-26.838	32.821	1467.751	1249.057
-25.823	32.846	1466.248	1247.897
-24.809	32.775	1464.340	1245.757
-23.794	32.814	1462.982	1244.806
-22.779	32.868	1460.220	1242.765
-21.765	32.780	1459.967	1241.917
-20.750	32.777	1459.136	1241.143
-19.736	32.903	1458.682	1241.540
-18.721	32.711	1457.500	1239.221
-17.706	32.699	1456.320	1238.090
-16.692	32.820	1454.856	1237.586
-15.677	32.728	1454.082	1236.280
-14.663	32.628	1453.364	1234.964
-13.648	32.785	1451.757	1234.574
-12.633	32.732	1451.287	1233.783
-11.619	32.702	1450.645	1232.990
-10.604	32.536	1449.959	1231.269
-9.590	32.542	1448.729	1230.220
-8.575	32.337	1449.763	1229.707
-7.560	32.621	1447.860	1229.897
-6.546	32.870	1446.401	1230.232
-5.531	32.675	1445.781	1228.389
-4.517	32.689	1444.400	1227.257
-3.502	32.640	1443.607	1226.211
-2.487	32.687	1441.783	1224.924
-1.473	32.708	1440.782	1224.161
-0.458	32.779	1440.175	1224.054
0.556	33.515	1430.704	1211.534
1.571	30.511	1405.441	1171.134
2.586	26.747	1347.021	1099.568
3.600	25.083	1266.042	1023.878
4.615	23.660	1219.720	978.496
5.629	20.256	1163.024	915.009
6.644	11.076	1078.926	803.650
7.659	4.356	1036.774	740.217
8.673	3.319	1031.903	731.751
9.688	2.871	1029.055	727.546
10.702	2.831	1027.365	726.095
11.717	3.059	1024.777	725.280
12.731	6.305	1028.295	743.048
13.746	15.274	1041.731	795.419
14.761	22.823	1050.153	837.749
15.775	24.292	1052.106	846.206
16.790	24.202	1051.460	845.188
17.804	24.014	1050.279	843.272
18.819	23.738	1049.238	841.055
19.834	23.865	1048.094	840.662
20.848	23.867	1047.947	840.481
21.863	23.907	1047.567	840.290
22.877	23.965	1047.683	840.582
23.892	23.821	1047.009	839.289
24.907	23.865	1045.676	838.355
25.921	23.855	1044.047	836.929
26.936	23.776	1043.320	835.896
27.950	23.750	1042.456	835.011
28.965	23.607	1040.749	832.898
29.980	23.336	1040.925	831.692
30.994	23.612	1039.564	831.825
32.009	23.917	1039.003	832.729
33.023	23.679	1038.699	831.299
34.038	23.888	1037.002	830.844
35.053	23.554	1037.311	829.458
36.067	23.744	1035.475	828.803
37.082	23.475	1035.706	827.658
38.096	23.538	1034.417	826.847
39.111	23.801	1032.721	826.642
40.126	23.754	1031.864	825.665
41.140	24.162	1030.456	826.362
42.155	23.579	1029.530	822.839
43.169	22.994	1029.381	819.939
44.184	23.210	1027.956	819.727
45.199	23.259	1026.557	818.765
46.213	23.230	1026.397	818.435
47.228	22.973	1026.350	817.138
48.242	23.550	1025.463	819.022
49.257	23.839	1024.657	819.638
50.271	23.749	1023.203	817.991
51.286	23.821	1022.827	817.947
52.301	24.103	1022.368	818.806
53.315	24.102	1021.573	818.088
54.330	23.904	1020.632	816.357
55.344	23.803	1019.198	814.672
56.359	23.695	1018.951	813.910
57.374	23.447	1018.411	812.271
58.388	23.687	1017.742	812.763
59.403	23.696	1015.516	810.954
60.417	23.336	1016.009	809.630
61.432	23.218	1016.136	809.120
62.447	23.657	1013.496	808.948
63.461	23.367	1014.271	808.173
64.476	23.224	1013.849	807.114
65.490	23.549	1011.307	806.496
66.505	22.844	1012.258	803.974
67.520	23.322	1010.224	804.457
68.534	23.576	1009.574	805.023
69.549	23.277	1008.703	802.902
70.563	23.002	1008.482	801.408
71.578	22.670	1007.670	799.188
72.593	22.850	1006.085	798.676
73.607	22.563	1004.703	796.211
74.622	22.232	1004.592	794.558
75.636	22.742	1003.999	796.317
76.651	22.913	1002.977	796.209
77.666	22.943	1001.757	795.303
78.680	23.243	1000.577	795.644
79.695	22.724	1001.375	793.876
80.709	22.984	1000.238	794.072
81.724	22.787	1000.191	793.079
82.739	23.199	998.575	793.578
83.753	22.773	998.107	791.222
84.768	23.256	998.802	793.870
85.782	23.970	997.676	796.101
86.797	24.074	997.686	796.504
87.812	24.016	996.447	795.184
88.826	24.150	995.146	794.675
89.841	23.966	994.055	792.916
90.855	23.924	993.615	792.306
91.870	24.294	992.447	792.952
92.884	24.085	992.006	791.601
93.899	23.704	992.736	790.414
94.914	24.041	990.525	790.081
95.928	23.862	990.312	789.045
96.943	24.110	989.775	789.650
97.957	23.776	988.387	786.992
98.972	23.768	986.150	785.106
99.987	23.805	986.339	785.350
101.001	24.147	984.173	785.066
102.016	24.045	985.231	785.391
103.030	23.794	983.713	783.006
104.045	24.075	983.492	783.997
105.060	23.804	982.599	782.022
106.074	24.173	980.757	782.111
107.089	23.631	981.441	780.202
108.103	23.679	979.308	778.648
109.118	23.631	978.572	777.785
110.133	23.552	976.744	775.916
111.147	23.200	976.539	774.147
112.162	23.064	974.741	772.060
113.176	23.181	974.430	772.256
114.191	23.211	973.536	771.610
115.206	23.031	972.660	770.060
116.220	23.190	971.913	770.096
117.235	23.105	971.372	769.228
118.249	23.230	969.926	768.559
119.264	23.115	969.715	767.823
120.279	22.376	969.526	764.397
121.293	22.467	968.415	763.847
122.308	22.786	966.946	764.005
123.322	22.657	966.848	763.300
124.337	22.998	964.489	762.841
125.352	22.359	964.793	760.256
126.366	22.534	963.236	759.714
127.381	22.784	962.343	760.022
128.395	22.740	961.727	759.277
129.410	23.170	960.488	760.080
130.424	23.191	959.222	759.100
131.439	23.209	959.130	759.040
132.454	23.496	958.025	759.325
133.468	23.311	957.884	758.355
134.483	23.334	957.711	758.250
135.497	23.317	956.920	757.485
136.512	23.750	955.000	757.744
137.527	23.238	955.270	755.704
138.541	23.623	954.106	756.360
139.556	23.455	953.678	755.240
140.570	23.564	952.404	754.627
141.585	23.506	952.745	754.583
142.600	24.103	952.396	756.779
143.614	23.960	951.236	755.182
144.629	23.896	951.618	755.146
145.643	24.368	949.917	755.731
146.658	24.350	948.763	754.666
147.673	23.861	947.867	751.821
148.687	23.591	946.968	749.902
149.702	23.551	946.082	748.966
150.716	23.339	944.925	747.086
151.731	23.579	943.882	747.206
152.746	23.551	943.762	746.928
153.760	23.679	943.415	747.125
154.775	23.871	941.646	746.465
155.789	23.943	941.109	746.275
156.804	24.168	940.298	746.511
157.819	23.690	940.171	744.342
158.833	23.759	938.779	743.462
159.848	23.940	938.475	743.914
160.862	24.281	937.845	744.772
161.877	23.904	937.472	742.835
162.892	23.830	936.000	741.296
163.906	23.823	934.218	739.789
164.921	23.712	933.837	738.960
165.935	23.356	933.336	737.016
166.950	23.575	931.698	736.567
167.964	23.918	930.976	737.356
168.979	23.418	930.473	734.819
169.994	23.661	929.033	734.622
171.008	23.353	929.009	733.262
172.023	23.543	928.164	733.315
173.037	24.093	927.108	734.688
174.052	24.284	925.991	734.525
175.067	24.235	924.936	733.421
176.081	23.445	924.590	729.833
177.096	23.352	922.878	728.032
178.110	23.341	922.718	727.798
179.125	23.217	921.150	725.988
180.140	23.329	921.187	726.414
181.154	23.136	920.819	725.266
182.169	23.668	919.112	726.032
183.183	23.721	919.796	726.726
184.198	23.948	919.060	727.011
185.213	23.852	917.756	725.520
186.227	23.885	917.043	725.029
187.242	23.592	917.634	724.235
188.256	24.054	916.998	725.551
189.271	24.320	916.470	726.154
190.286	24.061	916.343	724.936
191.300	23.882	914.605	722.768
192.315	23.393	912.925	719.393
193.329	22.963	911.653	716.584
194.344	23.185	910.539	716.541
195.359	23.367	910.282	717.012
196.373	23.248	911.808	717.669
197.388	23.600	911.371	718.687
198.402	23.755	911.173	719.094
199.417	24.279	909.731	720.010
200.432	24.536	909.186	720.554
201.446	24.309	909.332	719.689
202.461	24.627	908.348	720.126
203.475	24.082	909.158	718.508
204.490	24.514	907.016	718.489
205.504	23.755	906.473	714.944
206.519	23.393	905.845	712.928
207.534	23.749	905.353	713.909
208.548	23.762	904.389	713.139
209.563	24.057	904.103	714.035
210.577	24.043	903.197	713.197
211.592	24.306	901.552	712.889
212.607	24.307	900.978	712.376
213.621	24.340	901.723	713.033
214.636	24.504	900.570	712.711
215.650	24.417	899.715	711.626
216.665	24.239	898.869	710.185
217.680	24.238	898.593	709.899
218.694	24.368	898.452	710.243
219.709	23.993	898.306	708.572
220.723	24.143	896.222	707.462
221.738	23.861	896.977	706.872
222.753	23.816	895.630	705.570
223.767	23.996	894.354	705.218
224.782	24.314	893.464	705.711
225.796	23.882	894.269	704.572
226.811	24.129	893.778	705.102
227.826	23.994	892.894	703.807
228.840	23.575	892.338	701.652
229.855	23.607	891.066	700.714
230.869	23.826	889.944	700.635
231.884	23.947	889.089	700.376
232.899	23.583	889.399	699.124
233.913	23.893	888.645	699.690
234.928	23.773	888.157	698.772
235.942	23.405	888.107	697.223
236.957	23.525	886.319	696.229
237.972	23.388	885.442	694.942
238.986	23.377	885.091	694.560
240.001	23.719	884.066	695.034
241.015	23.261	883.691	692.885
242.030	23.399	883.272	693.033
243.045	23.968	881.700	693.959
244.059	23.785	881.635	693.133
245.074	23.683	881.713	692.738
246.088	23.778	881.205	692.645
247.103	23.841	881.368	692.960
248.117	24.388	880.227	694.131
249.132	24.718	879.803	695.016
250.147	24.829	880.531	695.961
251.161	24.866	879.369	695.124
252.176	24.912	879.009	694.959
253.190	25.095	879.035	695.627
254.205	25.317	877.540	695.242
255.220	25.145	877.753	694.684
256.234	24.696	878.151	693.196
257.249	24.871	876.107	692.197
258.263	25.077	874.630	691.767
259.278	24.742	875.544	691.134
260.293	24.826	875.376	691.263
261.307	24.800	874.317	690.266
262.322	24.815	872.954	689.187
263.336	24.903	872.827	689.365
264.351	24.685	872.065	687.864
265.366	24.578	870.215	685.930
266.380	24.577	870.281	685.920
267.395	24.755	870.370	686.613
268.409	24.954	869.444	686.584
269.424	24.967	868.802	686.067
270.439	25.028	868.062	685.653
271.453	24.460	867.879	683.276
272.468	24.432	867.206	682.579
273.482	24.729	866.062	682.751
274.497	24.856	866.125	683.227
275.512	24.799	865.135	682.168
276.526	24.773	865.734	682.481
277.541	24.626	864.269	680.704
278.555	24.758	863.544	680.575
279.570	24.719	863.051	679.978
280.585	25.029	862.957	681.022
281.599	24.968	862.757	680.573
282.614	24.854	861.078	678.757
283.628	24.633	861.019	677.812
284.643	24.707	859.257	676.644
285.657	24.533	859.324	675.977
286.672	24.188	859.978	675.126
287.687	24.535	858.194	674.976
288.701	24.566	858.764	675.484
289.716	24.793	857.702	675.445
290.730	24.446	857.704	674.076
291.745	24.788	856.442	674.314
292.760	24.682	856.184	673.651
293.774	24.401	855.445	671.954
294.789	25.125	855.283	674.491
295.803	24.934	855.612	673.971
296.818	25.042	854.381	673.348
297.833	24.902	853.379	671.973
298.847	24.693	852.782	670.659
299.862	24.728	851.395	669.642
300.876	24.937	851.435	670.397
301.891	24.934	850.687	669.738
302.906	25.272	850.543	670.826
303.920	25.284	849.568	670.046
304.935	25.278	848.838	669.386
305.949	25.349	848.637	669.432
306.964	25.573	848.220	669.879
307.979	24.987	847.080	666.741
308.993	24.945	846.470	666.045
310.008	25.047	845.941	665.950
311.022	24.936	846.670	666.052
312.037	25.439	844.819	666.402
313.052	25.055	845.070	665.114
314.066	24.788	844.269	663.437
315.081	24.628	842.466	661.369
316.095	24.435	841.720	660.011
317.110	24.712	842.015	661.207
318.125	24.506	842.030	660.399
319.139	24.711	840.245	659.698
320.154	24.265	839.403	657.335
321.168	23.892	839.106	655.668
322.183	24.109	838.645	656.049
323.197	24.797	837.571	657.683
324.212	24.422	838.765	657.181
325.227	24.354	837.795	656.112
326.241	24.366	838.108	656.343
327.256	24.345	836.897	655.261
328.270	24.269	835.657	653.953
329.285	24.675	833.934	654.034
330.300	24.472	834.630	653.777
331.314	24.201	833.609	651.927
332.329	24.251	833.835	652.229
333.343	24.146	834.795	652.538
334.358	24.953	832.296	653.472
335.373	24.993	831.788	653.162
336.387	24.482	832.448	651.758
337.402	24.902	831.705	652.651
338.416	25.207	830.994	653.146
339.431	25.207	831.191	653.242
340.446	25.487	830.186	653.413
341.460	25.765	829.359	653.712
342.475	25.879	828.764	653.600
343.489	25.782	830.010	654.171
344.504	26.101	827.711	653.459
345.519	25.965	827.414	652.674
346.533	26.043	828.138	653.468
347.548	25.871	827.918	652.616
348.562	25.674	827.324	651.376
349.577	25.256	825.952	648.727
350.592	25.615	823.976	648.413
351.606	25.234	824.681	647.535
352.621	24.992	824.187	646.218
353.635	24.977	823.604	645.650
354.650	25.121	822.985	645.624
355.665	25.223	821.809	645.011
356.679	25.130	820.502	643.596
357.694	24.972	821.337	643.623
358.708	25.238	820.829	644.124
359.723	25.047	820.055	642.774
360.738	25.319	818.829	642.731
361.752	24.796	819.058	640.980
362.767	25.144	818.838	641.998
363.781	25.586	818.445	643.216
364.796	25.773	818.346	643.747
365.810	25.817	818.245	643.769
366.825	26.153	817.602	644.407
367.840	26.191	816.695	643.771
368.854	26.037	816.102	642.696
369.869	25.449	816.540	640.888
370.883	25.373	815.566	639.798
371.898	24.887	815.656	638.078
372.913	25.447	814.430	639.055
373.927	25.785	814.526	640.276
374.942	25.298	813.481	637.667
375.956	25.193	812.250	636.275
376.971	25.693	811.225	637.185
377.986	25.759	811.382	637.485
379.000	26.229	810.814	638.646
380.015	26.019	810.909	637.921
381.029	25.570	810.776	636.172
382.044	25.639	810.080	635.815
383.059	26.023	809.114	636.356
384.073	25.914	808.952	635.787
385.088	25.921	807.756	634.816
386.102	25.889	807.076	634.113
387.117	25.535	805.715	631.743
388.132	25.280	806.198	631.171
389.146	25.216	804.606	629.644
390.161	25.243	805.084	630.056
391.175	25.154	805.166	629.750
392.190	25.770	805.085	631.795
393.205	25.676	803.889	630.471
394.219	25.360	803.535	629.032
395.234	24.965	801.567	626.053
396.248	24.461	800.851	623.678
397.263	24.336	801.930	624.025
398.278	24.708	801.543	624.969
399.292	24.969	800.799	625.247
400.307	24.794	799.549	623.607
401.321	24.410	799.938	622.514
402.336	24.381	799.636	622.123
403.350	25.214	798.152	623.810
404.365	25.909	798.592	626.517
405.380	26.091	798.851	627.298
406.394	26.378	798.513	627.974
407.409	26.335	798.460	627.725
408.423	26.366	797.244	626.824
409.438	26.353	796.700	626.294
410.453	26.467	796.307	626.324
411.467	26.433	796.796	626.537
412.482	26.220	795.843	624.994
413.496	25.991	794.583	623.159
414.511	26.076	795.463	624.089
415.526	26.161	794.474	623.549
416.540	26.273	793.683	623.260
417.555	26.261	793.583	623.087
418.569	26.011	793.750	622.298
419.584	26.343	792.203	622.173
420.599	26.299	791.688	621.564
421.613	159.915	1369.368	1792.495
422.628	138.534	1453.532	1792.579
