DTS Sentinel unit serial number:	SN413079Multiplexer serial number:	ORYXHardware model number:	OX4-SRSoftware version number:	ORYX F/W v4.00 Oryx Data Collector v3.7.2.0data status	okinstallation	princeton_trtdifferential loss correction	single-endedforward channel	channel 3reverse channel	N/Adate	2019/09/19time	14:56:35forward acquisition time	60.00reverse acquisition time	0.00gamma	496.2192k internal	0.2315k external	0.2315temperature offset calibration	1.0009default loss term (dB/km)	0.3790temperature slope calibration	1.0000multiplexer offset coefficient	1.0000multiplexer slope coefficient	1.0000fibre end	0.00T internal ref (°C)	33.00T ext. ref 1 (°C)	1.11T ext. ref 2 (°C)	29.97length (m)	temperature (°C)	Stokes	anti-Stokes-747.200	120.861	-0.150	0.189
-746.185	800.000	-0.093	0.295
-745.171	383.883	-0.106	0.221
-744.156	752.576	-0.028	0.076
-743.142	-200.000	0.001	0.132
-742.127	800.000	-0.089	0.347
-741.112	-113.996	0.194	0.038
-740.098	318.749	-0.181	0.347
-739.083	-146.412	-0.162	-0.014
-738.069	48.427	-0.099	0.093
-737.054	-121.810	-0.243	0.041
-736.039	-10.483	0.304	0.204
-735.025	-135.463	0.105	-0.013
-734.010	-121.014	-0.194	-0.033
-732.996	405.140	-0.140	-0.300
-731.981	-200.000	-0.257	0.000
-730.966	-9.763	0.179	0.121
-729.952	156.711	0.145	-0.203
-728.937	-21.622	-0.177	0.109
-727.923	800.000	0.070	0.208
-726.908	-200.000	-0.011	0.063
-725.894	-40.447	-0.139	0.073
-724.879	18.717	0.040	-0.033
-723.864	53.523	-0.052	0.050
-722.850	-101.099	-0.111	0.027
-721.835	-85.057	0.319	0.101
-720.821	-170.625	0.145	0.005
-719.806	365.123	-0.185	-0.378
-718.791	57.203	-0.344	0.340
-717.777	197.368	0.115	0.177
-716.762	584.367	-0.086	0.214
-715.748	-118.333	-0.195	-0.035
-714.733	50.910	0.281	-0.270
-713.718	-83.849	0.167	-0.054
-712.704	-149.301	0.480	-0.039
-711.689	189.672	-0.238	0.361
-710.675	-81.110	0.079	-0.027
-709.660	497.779	0.078	0.181
-708.645	173.212	-0.050	0.073
-707.631	800.000	0.022	0.077
-706.616	800.000	0.074	0.260
-705.602	3.419	-0.050	-0.037
-704.587	18.399	-0.093	-0.075
-703.572	-105.936	-0.135	-0.031
-702.558	61.969	-0.213	-0.215
-701.543	275.479	0.129	0.232
-700.529	106.383	-0.145	0.174
-699.514	-81.955	-0.086	-0.029
-698.499	-100.062	-0.255	-0.064
-697.485	213.154	0.109	-0.174
-696.470	800.000	0.041	0.126
-695.456	-23.535	-0.295	-0.179
-694.441	72.614	0.121	0.128
-693.426	-47.951	0.328	0.161
-692.412	-200.000	0.008	0.059
-691.397	-75.737	-0.168	-0.060
-690.383	611.422	-0.038	-0.097
-689.368	-29.948	-0.030	-0.017
-688.354	-200.000	-0.055	-0.286
-687.339	-29.461	0.162	0.094
-686.324	800.000	-0.058	0.172
-685.310	93.322	-0.181	0.207
-684.295	71.062	0.095	-0.099
-683.281	-200.000	-0.001	-0.049
-682.266	-86.945	-0.176	0.054
-681.251	-141.513	-0.241	0.025
-680.237	-193.423	0.156	0.001
-679.222	-200.000	0.005	-0.238
-678.208	54.296	-0.121	-0.118
-677.193	144.467	-0.027	0.037
-676.178	-200.000	0.028	-0.145
-675.164	125.580	-0.017	0.022
-674.149	550.359	0.064	-0.155
-673.135	-200.000	0.039	-0.186
-672.120	-156.047	0.041	-0.003
-671.105	-200.000	-0.019	-0.248
-670.091	-25.893	0.148	-0.088
-669.076	-200.000	0.012	-0.159
-668.062	632.486	-0.051	0.129
-667.047	-52.889	-0.383	-0.178
-666.032	165.349	-0.095	0.136
-665.018	-29.159	-0.092	0.053
-664.003	-35.984	-0.277	0.151
-662.989	-96.810	-0.225	-0.060
-661.974	-97.413	-0.326	0.086
-660.959	-73.066	-0.222	-0.082
-659.945	800.000	0.052	-0.189
-658.930	-200.000	0.011	-0.250
-657.916	-20.704	0.162	0.101
-656.901	169.030	0.072	-0.104
-655.886	369.447	-0.156	0.320
-654.872	-142.201	0.253	0.025
-653.857	40.128	-0.238	-0.216
-652.843	487.064	-0.120	-0.277
-651.828	-137.840	0.034	-0.004
-650.814	-51.549	0.347	0.164
-649.799	495.211	-0.056	-0.130
-648.784	-200.000	0.033	-0.158
-647.770	-200.000	-0.021	0.128
-646.755	800.000	-0.086	-0.261
-645.741	305.400	-0.093	0.174
-644.726	254.686	-0.066	0.114
-643.711	-152.097	-0.336	0.025
-642.697	-113.789	-0.392	-0.077
-641.682	228.097	0.147	0.241
-640.668	-23.930	-0.191	0.115
-639.653	15.133	-0.207	-0.164
-638.638	372.742	-0.032	0.066
-637.624	-100.182	-0.114	0.029
-636.609	-200.000	0.022	0.164
-635.595	641.208	-0.074	-0.191
-634.580	268.085	0.212	-0.375
-633.565	-28.468	0.032	0.019
-632.551	-78.446	0.179	0.062
-631.536	455.416	-0.037	-0.083
-630.522	-46.700	-0.153	0.075
-629.507	58.928	-0.066	0.065
-628.492	329.692	-0.277	-0.537
-627.478	-200.000	0.044	-0.252
-626.463	-200.000	0.005	-0.054
-625.449	-15.590	-0.090	0.058
-624.434	74.354	-0.400	-0.424
-623.419	740.482	0.061	0.166
-622.405	345.733	0.066	-0.131
-621.390	-84.730	-0.165	0.052
-620.376	217.545	-0.042	-0.067
-619.361	-200.000	-0.004	-0.041
-618.346	126.718	0.065	0.083
-617.332	-18.355	0.253	-0.160
-616.317	271.015	-0.091	-0.161
-615.303	285.775	0.018	0.033
-614.288	-70.183	0.081	0.031
-613.273	-184.202	-0.215	0.004
-612.259	-67.613	0.033	-0.013
-611.244	70.027	-0.130	0.136
-610.230	89.102	0.295	-0.332
-609.215	800.000	0.029	-0.093
-608.201	96.134	0.154	0.177
-607.186	207.366	-0.102	-0.160
-606.171	-13.994	-0.292	0.190
-605.157	-65.757	-0.136	-0.055
-604.142	-44.490	0.317	0.160
-603.128	24.012	-0.114	-0.095
-602.113	62.199	0.049	0.049
-601.098	-200.000	-0.014	0.070
-600.084	-200.000	-0.066	0.465
-599.069	800.000	-0.130	0.432
-598.055	-56.295	0.101	-0.045
-597.040	-172.514	-0.317	0.010
-596.025	30.548	0.104	0.090
-595.011	800.000	0.060	0.256
-593.996	-79.253	-0.391	0.134
-592.982	-24.141	-0.239	-0.144
-591.967	16.462	-0.168	-0.134
-590.952	-26.829	0.138	-0.081
-589.938	483.663	-0.046	-0.104
-588.923	-159.680	0.085	-0.005
-587.909	800.000	0.059	0.249
-586.894	-200.000	0.009	0.218
-585.879	-70.284	0.192	0.074
-584.865	4.122	-0.123	-0.091
-583.850	-119.906	0.152	-0.026
-582.836	-129.317	0.242	0.034
-581.821	-200.000	-0.005	-0.202
-580.806	-59.914	-0.156	-0.067
-579.792	-57.072	-0.109	0.048
-578.777	-116.318	0.164	0.031
-577.763	-200.000	-0.028	0.138
-576.748	587.387	-0.018	-0.045
-575.733	69.903	0.244	-0.253
-574.719	-200.000	-0.067	-0.333
-573.704	29.512	-0.266	-0.227
-572.690	145.693	0.264	-0.355
-571.675	-90.262	-0.222	-0.065
-570.661	-137.976	0.068	0.008
-569.646	-108.765	-0.152	0.033
-568.631	800.000	-0.031	0.121
-567.617	-23.909	-0.026	-0.015
-566.602	743.395	-0.070	0.190
-565.588	-200.000	-0.030	-0.323
-564.573	-161.083	-0.208	-0.011
-563.558	269.052	-0.089	-0.157
-562.544	-115.412	-0.409	-0.078
-561.529	-133.863	0.324	0.040
-560.515	-55.662	-0.322	-0.145
-559.500	438.135	-0.074	-0.161
-558.485	-200.000	-0.031	-0.176
-557.471	-124.967	-0.295	-0.046
-556.456	74.594	0.128	0.135
-555.442	-200.000	-0.000	-0.234
-554.427	-200.000	0.018	0.343
-553.412	-29.519	-0.221	-0.127
-552.398	275.039	0.072	0.129
-551.383	800.000	-0.059	-0.204
-550.369	-200.000	-0.086	-0.460
-549.354	115.438	-0.207	-0.254
-548.339	-59.614	-0.198	0.085
-547.325	-136.722	0.058	-0.007
-546.310	67.747	-0.150	-0.154
-545.296	800.000	-0.009	-0.027
-544.281	-200.000	0.003	0.048
-543.266	-58.103	-0.385	0.169
-542.252	434.475	-0.072	-0.156
-541.237	-29.624	0.389	-0.224
-540.223	235.254	0.141	-0.234
-539.208	423.894	0.049	-0.105
-538.193	607.560	0.075	0.188
-537.179	49.319	0.065	-0.061
-536.164	579.852	0.107	-0.264
-535.150	216.405	-0.132	0.211
-534.135	5.103	-0.077	0.057
-533.121	800.000	0.138	-0.390
-532.106	-165.447	0.301	0.013
-531.091	-42.436	-0.121	-0.062
-530.077	-126.508	-0.382	-0.057
-529.062	-70.939	0.188	-0.071
-528.048	440.090	0.168	-0.369
-527.033	66.438	-0.084	0.086
-526.018	-152.363	-0.174	-0.013
-525.004	-191.789	0.103	0.001
-523.989	-137.863	-0.342	-0.038
-522.975	-13.786	0.207	-0.134
-521.960	-106.508	0.271	0.061
-520.945	-129.950	0.166	0.023
-519.931	-43.320	0.289	-0.147
-518.916	800.000	0.027	-0.097
-517.902	800.000	-0.064	-0.180
-516.887	56.330	0.210	-0.205
-515.872	157.305	0.191	-0.266
-514.858	21.328	-0.273	0.222
-513.843	202.204	0.018	-0.028
-512.829	-129.689	0.303	-0.042
-511.814	146.779	-0.179	-0.241
-510.799	350.064	-0.102	-0.202
-509.785	-11.272	-0.134	-0.089
-508.770	-64.150	0.038	0.016
-507.756	-200.000	0.029	-0.162
-506.741	-92.862	-0.143	0.040
-505.726	91.474	-0.101	-0.114
-504.712	-38.071	0.249	-0.133
-503.697	800.000	-0.038	0.111
-502.683	105.550	0.064	0.075
-501.668	800.000	0.073	-0.212
-500.653	-68.401	-0.209	0.081
-499.639	253.284	-0.097	-0.166
-498.624	-54.419	-0.095	-0.043
-497.610	-164.160	-0.228	0.011
-496.595	800.000	0.027	0.096
-495.581	-200.000	-0.024	-0.215
-494.566	7.238	-0.222	0.167
-493.551	-52.642	-0.259	0.120
-492.537	-128.535	0.136	-0.019
-491.522	-200.000	-0.001	-0.092
-490.508	-63.736	0.110	0.045
-489.493	712.425	-0.015	-0.040
-488.478	39.115	0.380	-0.341
-487.464	-105.025	-0.051	0.012
-486.449	800.000	0.032	0.096
-485.435	598.541	0.152	-0.377
-484.420	-64.655	0.151	-0.061
-483.405	-200.000	0.011	-0.077
-482.391	-7.158	-0.208	0.142
-481.376	800.000	0.079	-0.219
-480.362	-6.339	0.196	0.134
-479.347	551.558	-0.077	-0.184
-478.332	-52.416	0.281	0.131
-477.318	800.000	-0.058	0.168
-476.303	-200.000	-0.013	-0.128
-475.289	-104.354	0.122	-0.028
-474.274	248.847	0.129	0.220
-473.259	64.917	0.332	-0.336
-472.245	-34.467	0.113	-0.062
-471.230	-25.694	-0.046	-0.027
-470.216	-117.516	0.035	-0.006
-469.201	159.582	0.042	0.059
-468.186	107.530	0.030	0.036
-467.172	170.800	0.050	-0.072
-466.157	148.277	0.287	0.389
-465.143	238.015	0.267	0.444
-464.128	-200.000	0.033	-0.248
-463.113	800.000	0.084	0.294
-462.099	800.000	-0.046	0.136
-461.084	-162.383	-0.087	0.004
-460.070	-89.400	-0.350	0.103
-459.055	-67.615	-0.083	0.033
-458.040	800.000	-0.006	-0.020
-457.026	-97.308	-0.233	-0.061
-456.011	-113.767	0.082	-0.016
-454.997	-71.450	0.317	0.119
-453.982	439.905	-0.020	-0.043
-452.968	800.000	-0.052	-0.179
-451.953	143.470	-0.054	-0.072
-450.938	800.000	-0.141	-0.425
-449.924	-200.000	-0.006	0.031
-448.909	40.799	-0.278	0.251
-447.895	231.020	0.204	-0.335
-446.880	800.000	0.095	-0.350
-445.865	800.000	0.039	-0.115
-444.851	-9.652	0.253	0.169
-443.836	-106.553	-0.250	0.056
-442.822	-189.682	0.119	0.001
-441.807	677.490	0.070	0.182
-440.792	29.654	-0.151	-0.128
-439.778	-28.371	0.194	0.112
-438.763	-64.730	0.170	0.069
-437.749	-14.154	-0.314	-0.203
-436.734	-82.304	0.078	-0.025
-435.719	-65.110	0.057	-0.023
-434.705	54.413	0.104	0.100
-433.690	-25.230	-0.377	0.224
-432.676	-200.000	0.031	0.227
-431.661	286.503	0.138	0.249
-430.646	-162.668	0.289	-0.014
-429.632	-91.957	-0.166	0.047
-428.617	38.387	-0.156	-0.139
-427.603	-19.034	-0.138	0.086
-426.588	-155.943	0.138	0.009
-425.573	154.120	-0.059	-0.080
-424.559	177.851	-0.149	0.218
-423.544	-151.940	-0.259	0.019
-422.530	-128.174	-0.324	0.046
-421.515	-200.000	0.002	0.344
-420.500	-200.000	0.004	0.130
-419.486	116.453	0.281	-0.345
-418.471	-175.400	-0.172	-0.005
-417.457	68.252	-0.180	0.184
-416.442	-168.983	-0.056	0.002
-415.428	-147.902	-0.294	-0.025
-414.413	-3.574	0.099	0.069
-413.398	-200.000	-0.037	-0.194
-412.384	-70.654	0.238	-0.090
-411.369	-200.000	0.049	0.247
-410.355	-89.464	0.263	-0.077
-409.340	-141.684	-0.193	-0.019
-408.325	126.761	-0.324	0.410
-407.311	-167.681	0.269	0.011
-406.296	-10.523	0.388	-0.257
-405.282	-200.000	-0.021	0.164
-404.267	396.638	0.061	-0.127
-403.252	448.879	-0.096	-0.212
-402.238	452.117	0.060	0.132
-401.223	151.081	-0.120	-0.163
-400.209	503.491	0.026	-0.061
-399.194	-7.745	-0.304	-0.206
-398.179	-200.000	0.003	0.188
-397.165	133.540	0.310	0.401
-396.150	-14.973	-0.190	-0.122
-395.136	-16.857	0.349	0.220
-394.121	-200.000	0.010	0.185
-393.106	51.819	-0.304	0.289
-392.092	-176.040	-0.422	0.011
-391.077	-53.393	-0.122	0.056
-390.063	110.946	-0.069	-0.084
-389.048	-200.000	-0.000	-0.085
-388.033	-101.322	0.063	0.015
-387.019	584.218	-0.052	0.127
-386.004	-200.000	0.001	0.358
-384.990	43.733	-0.196	-0.179
-383.975	-158.141	-0.317	0.019
-382.960	-173.198	-0.189	0.006
-381.946	-122.954	0.329	-0.053
-380.931	-141.912	-0.089	0.009
-379.917	29.167	-0.334	-0.283
-378.902	-61.289	-0.177	0.074
-377.888	-200.000	0.066	0.304
-376.873	-104.400	-0.094	-0.022
-375.858	-200.000	-0.017	-0.101
-374.844	195.467	0.174	-0.264
-373.829	-116.338	-0.199	0.037
-372.815	-200.000	-0.044	-0.451
-371.800	-30.482	0.304	0.172
-370.785	63.022	-0.261	0.261
-369.771	77.135	0.211	0.224
-368.756	772.650	0.030	0.082
-367.742	121.966	0.128	0.159
-366.727	21.144	-0.313	0.254
-365.712	85.567	-0.072	-0.079
-364.698	-200.000	-0.046	0.307
-363.683	-200.000	-0.003	-0.066
-362.669	284.240	0.125	0.225
-361.654	105.756	-0.279	-0.330
-360.639	-200.000	0.034	0.199
-359.625	-144.414	0.229	-0.021
-358.610	-103.403	0.168	0.040
-357.596	132.192	-0.249	-0.320
-356.581	-117.551	0.158	-0.029
-355.566	-135.648	0.276	0.033
-354.552	-80.976	-0.267	-0.088
-353.537	122.164	0.101	0.126
-352.523	-70.254	0.083	0.031
-351.508	-84.909	-0.122	-0.038
-350.493	-119.731	0.272	-0.047
-349.479	-74.949	0.068	0.024
-348.464	-132.250	-0.213	0.028
-347.450	-200.000	0.004	0.185
-346.435	-200.000	0.014	0.329
-345.420	218.557	0.288	0.459
-344.406	509.336	-0.016	0.037
-343.391	-200.000	-0.002	-0.122
-342.377	-116.939	0.269	-0.049
-341.362	11.977	0.115	-0.089
-340.348	14.877	-0.162	-0.126
-339.333	-200.000	0.088	-0.543
-338.318	1.906	-0.207	-0.149
-337.304	108.911	-0.093	-0.110
-336.289	583.598	0.122	0.299
-335.275	-97.345	0.343	0.089
-334.260	-200.000	-0.034	-0.223
-333.245	800.000	-0.056	-0.217
-332.231	254.338	-0.158	0.270
-331.216	-200.000	-0.025	0.390
-330.202	442.816	-0.137	-0.299
-329.187	33.418	0.114	-0.099
-328.172	59.020	-0.070	0.068
-327.158	451.684	0.090	0.198
-326.143	-154.716	-0.376	0.025
-325.129	-103.471	0.106	0.025
-324.114	-78.308	0.221	-0.076
-323.099	-52.514	0.239	-0.110
-322.085	408.418	0.132	0.278
-321.070	-6.425	0.254	0.172
-320.056	-200.000	-0.007	0.293
-319.041	439.011	-0.023	0.049
-318.026	800.000	-0.043	-0.140
-317.012	-11.464	0.324	0.212
-315.997	458.802	-0.063	0.140
-314.983	-32.652	-0.069	-0.038
-313.968	-52.155	-0.177	0.082
-312.953	-200.000	-0.032	-0.173
-311.939	-200.000	0.020	-0.387
-310.924	116.233	0.026	0.031
-309.910	325.170	-0.104	-0.198
-308.895	-84.260	0.114	-0.036
-307.880	800.000	-0.003	-0.010
-306.866	-54.717	-0.100	0.045
-305.851	556.236	0.069	-0.167
-304.837	-31.456	-0.091	-0.051
-303.822	-172.339	0.172	0.005
-302.807	1.309	0.100	0.072
-301.793	-115.497	0.299	-0.056
-300.778	-128.767	0.202	0.028
-299.764	800.000	0.062	0.249
-298.749	-186.480	0.273	0.004
-297.735	-200.000	-0.007	-0.064
-296.720	-179.416	-0.425	-0.009
-295.705	-100.399	-0.120	0.030
-294.691	368.900	-0.069	0.140
-293.676	-200.000	-0.027	-0.203
-292.662	800.000	-0.054	-0.207
-291.647	800.000	0.078	0.309
-290.632	-138.338	0.197	-0.022
-289.618	-80.488	-0.236	-0.079
-288.603	-179.315	-0.197	0.004
-287.589	-91.744	0.167	0.047
-286.574	342.839	-0.083	-0.162
-285.559	284.308	0.077	-0.137
-284.545	-37.454	0.141	0.075
-283.530	496.031	-0.016	0.037
-282.516	440.385	-0.049	0.106
-281.501	98.933	0.083	0.096
-280.486	800.000	-0.040	0.123
-279.472	649.426	-0.097	-0.248
-278.457	22.029	-0.144	-0.117
-277.443	-120.013	0.290	0.050
-276.428	-7.209	-0.538	0.363
-275.413	21.756	-0.166	-0.135
-274.399	296.731	0.092	0.167
-273.384	-200.000	0.007	0.153
-272.370	17.103	-0.047	0.037
-271.355	-39.331	-0.377	0.197
-270.340	-92.677	-0.259	0.072
-269.326	84.977	0.110	-0.120
-268.311	-77.688	0.101	-0.035
-267.297	800.000	0.104	0.352
-266.282	117.542	0.211	-0.259
-265.267	290.725	0.179	-0.323
-264.253	-200.000	-0.001	0.040
-263.238	-139.628	0.168	0.018
-262.224	47.890	-0.208	0.193
-261.209	-200.000	0.067	-0.468
-260.195	-200.000	0.049	-0.227
-259.180	800.000	0.033	0.124
-258.165	800.000	-0.024	0.084
-257.151	172.432	-0.057	0.081
-256.136	-73.557	-0.192	-0.070
-255.122	112.668	-0.063	0.076
-254.107	800.000	-0.059	0.243
-253.092	-95.260	0.274	0.073
-252.078	-83.036	0.316	0.101
-251.063	-172.817	0.379	-0.012
-250.049	-138.840	-0.298	-0.032
-249.034	800.000	-0.050	-0.153
-248.019	134.394	0.165	-0.212
-247.005	-88.124	0.197	0.059
-245.990	800.000	0.037	0.137
-244.976	8.092	0.096	-0.071
-243.961	322.960	-0.174	0.330
-242.946	2.482	0.178	0.128
-241.932	263.099	-0.104	0.179
-240.917	-87.184	0.152	0.046
-239.903	-115.355	-0.321	-0.060
-238.888	368.026	-0.160	-0.322
-237.873	348.760	0.090	0.176
-236.859	118.552	0.235	0.288
-235.844	-93.685	0.239	0.066
-234.830	62.715	0.183	0.181
-233.815	-147.906	0.272	-0.023
-232.800	-159.774	-0.196	-0.011
-231.786	-121.009	0.368	0.061
-230.771	-74.144	-0.347	0.125
-229.757	-164.208	-0.324	-0.015
-228.742	123.831	-0.126	0.157
-227.727	-110.456	-0.202	0.042
-226.713	345.995	-0.161	-0.313
-225.698	77.052	0.158	-0.167
-224.684	-80.681	0.218	0.072
-223.669	-36.562	0.176	0.094
-222.655	90.229	-0.074	0.082
-221.640	183.854	0.247	-0.363
-220.625	697.174	0.005	-0.014
-219.611	43.758	0.142	-0.129
-218.596	800.000	0.108	0.396
-217.582	-56.310	0.315	-0.139
-216.567	-15.250	0.280	-0.178
-215.552	-53.745	-0.154	0.070
-214.538	-39.726	-0.255	-0.133
-213.523	-99.776	-0.174	0.043
-212.509	556.304	0.144	0.344
-211.494	366.899	-0.140	0.280
-210.479	79.335	-0.216	0.229
-209.465	-200.000	0.001	0.276
-208.450	-34.918	0.231	0.125
-207.436	536.869	0.108	0.255
-206.421	-0.452	-0.144	0.102
-205.406	110.118	-0.109	0.130
-204.392	800.000	0.064	0.186
-203.377	-200.000	0.009	-0.104
-202.363	-200.000	-0.048	-0.313
-201.348	-54.079	0.261	-0.118
-200.333	56.157	0.299	0.288
-199.319	125.539	-0.092	0.115
-198.304	10.482	-0.090	0.068
-197.290	-53.875	0.276	0.125
-196.275	340.362	0.124	-0.241
-195.260	800.000	-0.053	0.182
-194.246	613.386	-0.090	0.224
-193.231	800.000	-0.123	0.366
-192.217	74.247	0.053	0.055
-191.202	406.676	0.074	0.154
-190.187	79.985	0.056	-0.060
-189.173	800.000	-0.011	0.044
-188.158	800.000	-0.079	-0.293
-187.144	800.000	-0.026	-0.076
-186.129	-200.000	0.048	-0.300
-185.114	117.817	0.239	-0.292
-184.100	-200.000	-0.019	-0.143
-183.085	-7.664	0.163	0.109
-182.071	-200.000	-0.010	0.096
-181.056	-66.039	-0.181	-0.071
-180.042	96.871	-0.258	0.294
-179.027	-141.658	-0.154	0.015
-178.012	93.514	0.182	-0.205
-176.998	-39.483	-0.236	0.123
-175.983	-135.602	0.335	-0.039
-174.969	-200.000	-0.001	0.182
-173.954	639.962	0.088	-0.223
-172.939	-78.945	0.268	0.090
-171.925	370.351	0.087	0.174
-170.910	-131.123	-0.305	-0.040
-169.896	-76.412	-0.227	0.079
-168.881	85.824	0.098	0.106
-167.866	-200.000	0.010	0.214
-166.852	-135.225	0.469	-0.056
-165.837	-200.000	0.033	-0.333
-164.823	800.000	0.031	-0.092
-163.808	-113.964	0.100	-0.019
-162.793	-90.153	-0.464	0.134
-161.779	220.476	-0.096	0.152
-160.764	-60.912	0.103	0.043
-159.750	-17.531	0.030	0.019
-158.735	757.739	0.221	-0.592
-157.720	-78.608	0.363	0.123
-156.706	-78.168	0.388	0.132
-155.691	-200.000	0.051	0.395
-154.677	582.785	0.106	0.256
-153.662	-27.192	0.261	-0.151
-152.647	333.810	-0.016	0.031
-151.633	133.647	-0.078	0.099
-150.618	-13.256	0.018	0.012
-149.604	-103.265	0.300	-0.070
-148.589	-200.000	0.018	-0.115
-147.574	-200.000	-0.012	0.148
-146.560	-9.052	-0.084	0.056
-145.545	800.000	-0.075	0.213
-144.531	-37.303	0.405	0.214
-143.516	34.375	0.110	0.095
-142.502	350.793	0.037	-0.073
-141.487	-96.593	0.215	0.056
-140.472	-200.000	0.039	-0.228
-139.458	59.944	-0.170	-0.166
-138.443	157.367	-0.103	-0.141
-137.429	-32.623	0.037	-0.020
-136.414	-39.050	0.203	-0.106
-135.399	10.969	-0.275	-0.208
-134.385	104.202	-0.120	0.139
-133.370	800.000	0.070	-0.210
-132.356	800.000	-0.088	-0.295
-131.341	-200.000	0.008	-0.083
-130.326	800.000	0.099	0.299
-129.312	-77.936	-0.217	-0.074
-128.297	800.000	0.058	0.246
-127.283	-100.461	0.157	0.038
-126.268	-163.427	-0.240	0.011
-125.253	115.343	-0.104	0.126
-124.239	78.340	-0.131	0.138
-123.224	23.211	-0.126	0.102
-122.210	-42.304	0.154	-0.078
-121.195	35.266	-0.174	-0.151
-120.180	80.194	0.055	-0.058
-119.166	-9.553	-0.300	-0.198
-118.151	-200.000	0.006	0.042
-117.137	-106.178	0.060	0.013
-116.122	-64.027	-0.197	-0.079
-115.107	-126.895	-0.215	-0.031
-114.093	17.871	-0.061	-0.048
-113.078	-84.337	-0.445	-0.139
-112.064	-88.647	0.193	0.057
-111.049	-60.215	-0.185	-0.078
-110.034	154.798	0.065	0.088
-109.020	800.000	-0.049	0.152
-108.005	198.597	0.128	-0.194
-106.991	187.017	-0.157	0.232
-105.976	-200.000	-0.011	0.128
-104.962	391.008	0.143	0.294
-103.947	-100.706	0.336	0.082
-102.932	-45.633	0.197	0.097
-101.918	-112.452	0.106	0.021
-100.903	29.516	-0.200	-0.168
-99.889	-200.000	-0.067	0.405
-98.874	270.033	0.031	0.053
-97.859	-91.268	0.257	-0.073
-96.845	800.000	-0.034	-0.105
-95.830	-36.525	0.127	0.068
-94.816	146.052	0.253	0.335
-93.801	-200.000	-0.082	-0.396
-92.786	-123.407	0.437	0.069
-91.772	800.000	0.062	0.176
-90.757	-109.549	0.071	0.015
-89.743	800.000	-0.103	0.282
-88.728	13.411	-0.051	-0.039
-87.713	55.718	-0.078	0.075
-86.699	-118.826	-0.362	-0.063
-85.684	366.409	-0.097	0.193
-84.670	-140.629	0.310	0.032
-83.655	-165.604	0.131	-0.006
-82.640	800.000	-0.053	0.154
-81.626	751.845	0.031	-0.084
-80.611	-86.068	-0.256	0.078
-79.597	13.838	-0.048	-0.037
-78.582	159.743	0.105	-0.144
-77.567	222.669	-0.063	0.101
-76.553	800.000	0.091	0.252
-75.538	84.774	0.085	-0.092
-74.524	-200.000	-0.003	0.246
-73.509	515.134	0.089	0.206
-72.494	203.702	0.213	0.325
-71.480	800.000	0.019	0.080
-70.465	185.405	0.310	0.455
-69.451	-200.000	0.008	-0.285
-68.436	264.788	0.124	-0.212
-67.422	203.656	0.122	0.186
-66.407	800.000	-0.055	0.211
-65.392	-38.612	0.190	0.099
-64.378	-200.000	-0.021	0.108
-63.363	133.260	0.021	-0.027
-62.349	125.590	0.147	0.184
-61.334	-9.494	-0.921	-0.607
-60.319	124.107	0.439	0.544
-59.305	391.061	-0.460	-0.941
-58.290	230.283	0.638	1.029
-57.276	353.048	0.638	1.248
-56.261	-200.000	95.575	541.914
-55.246	474.182	1437.294	3197.875
-54.232	145.311	2653.072	3502.830
-53.217	107.714	2239.910	2630.547
-52.203	43.250	1762.591	1587.319
-51.188	36.162	1570.100	1364.003
-50.173	33.727	1542.352	1322.895
-49.159	52.462	1590.566	1497.214
-48.144	54.169	1608.626	1526.232
-47.130	36.362	1568.080	1363.444
-46.115	33.277	1552.926	1328.600
-45.100	33.087	1549.523	1324.303
-44.086	33.124	1547.567	1322.839
-43.071	32.913	1545.995	1319.964
-42.057	33.006	1544.074	1318.924
-41.042	32.951	1542.728	1317.335
-40.027	32.973	1541.360	1316.272
-39.013	33.019	1539.796	1315.199
-37.998	32.900	1539.056	1313.691
-36.984	32.904	1537.729	1312.530
-35.969	33.068	1535.960	1312.106
-34.954	33.041	1534.362	1310.503
-33.940	32.990	1532.987	1308.927
-32.925	33.078	1531.364	1308.098
-31.911	33.045	1530.674	1307.223
-30.896	33.057	1528.670	1305.545
-29.881	32.989	1527.901	1304.371
-28.867	33.124	1525.834	1303.483
-27.852	33.012	1524.598	1301.604
-26.838	32.983	1523.671	1300.561
-25.823	33.083	1521.625	1299.452
-24.809	33.030	1520.254	1297.867
-23.794	32.996	1518.762	1296.304
-22.779	33.090	1516.969	1295.365
-21.765	33.061	1516.054	1294.336
-20.750	32.971	1515.078	1292.838
-19.736	33.082	1513.871	1292.511
-18.721	33.074	1512.676	1291.386
-17.706	33.076	1511.753	1290.564
-16.692	33.030	1510.694	1289.294
-15.677	33.044	1509.533	1288.343
-14.663	32.929	1508.580	1286.697
-13.648	33.032	1507.586	1286.502
-12.633	32.908	1507.098	1285.185
-11.619	32.876	1506.328	1284.267
-10.604	33.054	1504.978	1284.272
-9.590	32.848	1504.717	1282.599
-8.575	33.046	1503.511	1282.865
-7.560	33.012	1502.400	1281.633
-6.546	32.891	1501.527	1280.015
-5.531	32.904	1501.094	1279.684
-4.517	33.022	1499.301	1278.905
-3.502	32.979	1498.704	1278.052
-2.487	32.955	1497.429	1276.754
-1.473	32.898	1496.420	1275.457
-0.458	32.953	1495.188	1274.729
0.556	32.610	1486.471	1265.783
1.571	29.961	1460.222	1225.809
2.586	26.184	1395.371	1147.320
3.600	23.726	1308.468	1061.105
4.615	21.575	1260.835	1009.988
5.629	17.949	1202.352	943.070
6.644	9.331	1113.838	829.297
7.659	2.387	1071.643	763.259
8.673	1.209	1066.182	753.457
9.688	1.099	1062.875	750.507
10.702	1.173	1061.066	749.528
11.717	0.970	1059.864	747.611
12.731	3.405	1061.732	760.896
13.746	10.844	1072.121	805.243
14.761	16.435	1079.159	838.262
15.775	17.617	1079.761	844.522
16.790	17.309	1078.515	841.947
17.804	16.265	1076.012	834.757
18.819	15.423	1074.708	829.513
19.834	14.892	1072.945	825.457
20.848	14.732	1072.043	823.900
21.863	14.482	1070.903	821.718
22.877	14.146	1070.423	819.623
23.892	13.963	1069.523	817.963
24.907	13.824	1068.592	816.490
25.921	13.723	1068.259	815.667
26.936	13.793	1067.483	815.346
27.950	13.893	1066.210	814.797
28.965	13.890	1065.535	814.194
29.980	14.082	1064.663	814.395
30.994	14.030	1063.728	813.352
32.009	14.272	1062.239	813.324
33.023	14.053	1062.495	812.377
34.038	14.109	1061.533	811.843
35.053	14.060	1060.214	810.527
36.067	14.046	1059.145	809.565
37.082	14.047	1058.672	809.137
38.096	14.085	1057.596	808.431
39.111	13.988	1057.320	807.674
40.126	13.993	1056.449	806.964
41.140	14.069	1055.415	806.470
42.155	13.941	1054.781	805.293
43.169	13.863	1053.522	803.887
44.184	13.861	1052.374	802.929
45.199	13.791	1051.662	801.973
46.213	13.910	1050.177	801.346
47.228	13.868	1049.134	800.275
48.242	13.968	1048.061	799.869
49.257	13.872	1047.025	798.546
50.271	13.911	1046.050	797.918
51.286	14.039	1044.807	797.513
52.301	14.017	1044.441	797.058
53.315	13.978	1043.574	796.141
54.330	14.014	1042.515	795.435
55.344	13.900	1042.042	794.456
56.359	13.971	1040.848	793.814
57.374	13.935	1040.104	793.009
58.388	13.886	1039.235	792.040
59.403	13.941	1038.704	791.825
60.417	13.899	1037.503	790.642
61.432	13.886	1037.204	790.283
62.447	13.737	1036.466	788.942
63.461	13.809	1035.575	788.534
64.476	13.786	1034.640	787.647
65.490	13.694	1033.630	786.370
66.505	13.855	1032.868	786.484
67.520	13.829	1031.794	785.471
68.534	13.897	1030.854	785.011
69.549	13.881	1030.551	784.635
70.563	13.864	1029.936	784.014
71.578	13.672	1029.458	782.676
72.593	13.820	1028.346	782.461
73.607	13.745	1027.484	781.382
74.622	13.732	1026.479	780.486
75.636	13.765	1025.503	779.833
76.651	13.670	1024.895	778.852
77.666	13.768	1023.961	778.536
78.680	13.826	1023.280	778.219
79.695	13.883	1022.351	777.709
80.709	13.782	1022.064	776.951
81.724	13.870	1021.030	776.508
82.739	13.897	1020.164	775.905
83.753	13.820	1019.807	775.207
84.768	13.991	1018.478	774.926
85.782	13.971	1017.924	774.341
86.797	13.990	1017.308	773.895
87.812	14.080	1016.509	773.637
88.826	13.976	1015.985	772.684
89.841	13.961	1014.553	771.460
90.855	14.056	1013.563	771.077
91.870	13.858	1013.498	770.040
92.884	13.941	1012.364	769.496
93.899	14.034	1011.666	769.327
94.914	13.969	1011.258	768.651
95.928	14.059	1010.243	768.225
96.943	14.243	1009.106	768.144
97.957	14.081	1008.828	767.114
98.972	14.062	1007.498	765.948
99.987	13.997	1007.261	765.402
101.001	13.969	1006.624	764.720
102.016	13.925	1005.609	763.677
103.030	13.885	1004.714	762.749
104.045	14.039	1003.082	762.149
105.060	14.047	1002.316	761.537
106.074	13.940	1001.815	760.596
107.089	13.974	1000.771	759.891
108.103	13.887	999.894	758.762
109.118	13.887	999.099	758.094
110.133	13.985	998.239	757.818
111.147	13.899	997.251	756.609
112.162	13.914	996.278	755.872
113.176	13.888	995.650	755.211
114.191	13.975	994.447	754.628
115.206	13.994	993.492	753.922
116.220	13.951	993.092	753.356
117.235	14.012	992.203	752.892
118.249	14.101	990.897	752.236
119.264	14.142	989.766	751.500
120.279	14.026	989.318	750.566
121.293	13.838	988.966	749.385
122.308	13.995	987.826	749.163
123.322	14.005	987.165	748.640
124.337	13.953	986.243	747.641
125.352	13.960	984.333	746.158
126.366	13.886	983.685	745.271
127.381	13.933	982.436	744.469
128.395	13.977	981.330	743.760
129.410	13.893	980.820	742.933
130.424	13.801	980.021	741.852
131.439	14.030	978.367	741.553
132.454	14.065	977.860	741.260
133.468	13.997	977.215	740.402
134.483	13.928	976.747	739.677
135.497	13.986	976.157	739.421
136.512	14.145	974.877	739.091
137.527	14.003	974.323	737.977
138.541	14.015	973.731	737.519
139.556	14.043	973.060	737.067
140.570	13.972	972.517	736.276
141.585	14.036	971.729	735.900
142.600	14.063	971.225	735.570
143.614	14.161	969.495	734.627
144.629	14.136	968.929	734.025
145.643	14.160	968.125	733.457
146.658	14.146	967.441	732.812
147.673	14.109	966.322	731.737
148.687	14.004	965.606	730.668
149.702	13.973	964.936	729.960
150.716	14.083	963.990	729.660
151.731	14.174	962.780	729.079
152.746	14.043	962.399	728.152
153.760	14.111	961.071	727.381
154.775	14.073	960.567	726.769
155.789	14.065	960.155	726.360
156.804	14.124	959.327	725.927
157.819	14.090	958.618	725.175
158.833	14.075	957.954	724.546
159.848	14.309	957.051	724.817
160.862	14.259	956.547	724.154
161.877	14.265	955.557	723.365
162.892	14.151	955.075	722.440
163.906	14.193	954.048	721.781
164.921	14.122	953.384	720.910
165.935	14.196	952.163	720.241
166.950	14.212	951.168	719.497
167.964	14.247	950.121	718.789
168.979	14.352	949.325	718.578
169.994	14.169	948.504	717.106
171.008	14.169	947.454	716.246
172.023	14.444	946.284	716.481
173.037	14.177	946.295	715.276
174.052	14.332	945.368	715.180
175.067	14.375	944.279	714.478
176.081	14.238	943.674	713.371
177.096	14.276	943.154	713.075
178.110	14.156	942.266	711.829
179.125	14.231	941.412	711.439
180.140	14.339	940.299	710.999
181.154	14.288	939.988	710.480
182.169	14.258	939.158	709.665
183.183	14.347	938.456	709.448
184.198	14.417	937.772	709.167
185.213	14.452	937.002	708.671
186.227	14.586	936.016	708.431
187.242	14.364	936.722	707.962
188.256	14.452	935.553	707.388
189.271	14.608	934.453	707.155
190.286	14.637	933.794	706.717
191.300	14.497	933.010	705.468
192.315	14.509	932.105	704.770
193.329	14.293	931.764	703.538
194.344	14.511	930.543	703.475
195.359	14.504	930.370	703.250
196.373	14.478	929.935	702.752
197.388	14.571	929.086	702.441
198.402	14.521	928.903	702.029
199.417	14.601	928.365	701.895
200.432	14.673	927.552	701.523
201.446	14.739	927.321	701.564
202.461	14.765	926.827	701.234
203.475	14.673	926.530	700.564
204.490	14.726	925.525	699.965
205.504	14.684	924.849	699.214
206.519	14.727	923.668	698.438
207.534	14.783	923.216	698.271
208.548	14.590	922.753	697.049
209.563	14.863	921.715	697.343
210.577	14.664	921.463	696.265
211.592	14.789	920.695	696.142
212.607	14.750	920.513	695.778
213.621	14.741	919.755	695.106
214.636	14.864	918.645	694.719
215.650	15.056	917.896	694.888
216.665	14.970	917.399	694.093
217.680	15.035	916.910	693.931
218.694	14.946	916.240	692.994
219.709	14.951	916.015	692.782
220.723	15.019	915.300	692.464
221.738	15.008	914.358	691.644
222.753	14.914	913.775	690.751
223.767	14.916	913.036	690.140
224.782	15.049	912.492	690.217
225.796	15.045	911.607	689.471
226.811	14.893	911.026	688.345
227.826	15.035	910.762	688.669
228.840	15.108	909.603	688.030
229.855	15.187	908.697	687.607
230.869	14.962	908.264	686.298
231.884	15.017	907.657	686.005
232.899	14.993	906.833	685.222
233.913	15.148	905.969	685.144
234.928	15.036	905.438	684.222
235.942	15.066	904.891	683.869
236.957	15.122	903.747	683.175
237.972	14.954	903.562	682.287
238.986	15.077	902.769	682.129
240.001	15.091	902.484	681.911
241.015	15.092	901.483	681.100
242.030	15.132	900.495	680.457
243.045	15.036	899.988	679.622
244.059	15.146	899.698	679.790
245.074	15.264	898.628	679.400
246.088	15.214	898.460	679.010
247.103	15.378	897.542	678.919
248.117	15.266	897.314	678.236
249.132	15.224	896.667	677.515
250.147	15.247	895.783	676.878
251.161	15.310	894.766	676.305
252.176	15.393	894.385	676.291
253.190	15.475	893.602	675.972
254.205	15.492	892.776	675.355
255.220	15.536	892.321	675.128
256.234	15.583	891.549	674.673
257.249	15.562	891.617	674.580
258.263	15.727	890.695	674.486
259.278	15.710	889.838	673.706
260.293	15.613	889.692	673.147
261.307	15.744	888.957	673.058
262.322	15.645	888.577	672.314
263.336	15.656	887.527	671.503
264.351	15.750	887.273	671.627
265.366	15.617	886.443	670.411
266.380	15.740	886.042	670.537
267.395	15.778	885.069	669.894
268.409	15.856	884.239	669.517
269.424	15.871	883.212	668.737
270.439	15.823	882.773	668.158
271.453	15.807	881.971	667.429
272.468	15.858	881.278	667.044
273.482	15.715	880.992	666.204
274.497	15.787	880.402	665.984
275.512	15.798	879.887	665.580
276.526	15.831	879.011	664.990
277.541	15.816	878.158	664.223
278.555	15.816	877.663	663.790
279.570	15.819	877.567	663.672
280.585	15.946	876.844	663.568
281.599	15.841	876.191	662.602
282.614	15.912	875.489	662.291
283.628	15.926	875.249	662.107
284.643	15.930	874.695	661.643
285.657	16.058	874.084	661.626
286.672	16.045	873.723	661.241
287.687	16.076	872.828	660.629
288.701	15.996	872.432	659.958
289.716	16.018	871.626	659.375
290.730	16.035	871.206	659.065
291.745	16.071	870.428	658.559
292.760	16.043	870.107	658.146
293.774	16.117	869.238	657.721
294.789	16.196	868.536	657.437
295.803	16.253	867.696	656.968
296.818	16.162	867.353	656.296
297.833	16.122	866.696	655.583
298.847	16.281	865.503	655.243
299.862	16.205	865.539	654.915
300.876	16.170	864.945	654.273
301.891	16.185	864.194	653.704
302.906	16.275	863.274	653.299
303.920	16.219	862.825	652.686
304.935	16.325	862.127	652.510
305.949	16.257	861.639	651.820
306.964	16.474	860.799	651.965
307.979	16.522	860.189	651.628
308.993	16.579	859.332	651.140
310.008	16.475	858.986	650.421
311.022	16.527	858.413	650.129
312.037	16.554	858.215	650.027
313.052	16.478	857.408	649.065
314.066	16.426	856.895	648.420
315.081	16.522	855.795	647.899
316.095	16.269	856.137	647.130
317.110	16.380	855.723	647.184
318.125	16.410	854.796	646.541
319.139	16.480	853.896	646.069
320.154	16.549	853.951	646.319
321.168	16.538	853.175	645.633
322.183	16.503	852.615	645.018
323.197	16.530	852.141	644.704
324.212	16.629	851.399	644.464
325.227	16.540	851.039	643.796
326.241	16.665	850.132	643.529
327.256	16.431	850.323	642.724
328.270	16.582	849.078	642.303
329.285	16.612	848.685	642.061
330.300	16.608	848.080	641.531
331.314	16.711	847.351	641.312
332.329	16.671	846.864	640.736
333.343	16.732	846.280	640.467
334.358	16.678	846.007	640.000
335.373	16.719	845.329	639.585
336.387	16.759	844.678	639.189
337.402	16.843	844.014	638.945
338.416	16.764	843.633	638.303
339.431	16.838	843.116	638.133
340.446	16.844	842.605	637.714
341.460	16.911	841.421	637.014
342.475	16.907	841.034	636.651
343.489	16.792	840.965	636.108
344.504	16.854	840.290	635.773
345.519	17.019	839.527	635.760
346.533	17.076	839.087	635.583
347.548	17.095	838.443	635.109
348.562	17.040	838.072	634.565
349.577	17.069	837.450	634.148
350.592	16.797	837.183	632.872
351.606	17.034	836.392	633.103
352.621	16.909	836.291	632.504
353.635	17.089	835.636	632.626
354.650	16.924	835.453	631.816
355.665	17.038	834.962	631.811
356.679	17.023	834.385	631.264
357.694	17.094	834.088	631.247
358.708	17.164	833.214	630.789
359.723	17.185	832.899	630.573
360.738	17.135	832.109	629.734
361.752	17.087	831.303	628.893
362.767	17.064	831.259	628.716
363.781	17.241	831.012	629.130
364.796	17.232	830.557	628.697
365.810	17.303	829.730	628.279
366.825	17.315	829.192	627.859
367.840	17.277	829.220	627.685
368.854	17.303	828.670	627.308
369.869	17.346	828.411	627.216
370.883	17.488	827.407	626.923
371.898	17.443	826.722	626.184
372.913	17.254	826.481	625.251
373.927	17.387	825.710	625.099
374.942	17.366	825.435	624.760
375.956	17.274	824.639	623.764
376.971	17.388	824.246	623.829
377.986	17.479	823.315	623.404
379.000	17.481	822.918	623.054
380.015	17.579	822.541	623.074
381.029	17.632	821.937	622.753
382.044	17.460	821.381	621.649
383.059	17.500	820.894	621.370
384.073	17.638	820.278	621.352
385.088	17.676	819.540	620.877
386.102	17.681	819.154	620.549
387.117	17.582	818.564	619.685
388.132	17.652	818.106	619.540
389.146	17.564	817.862	618.979
390.161	17.743	817.547	619.336
391.175	17.748	816.929	618.831
392.190	17.609	816.489	617.940
393.205	17.609	816.371	617.797
394.219	17.771	815.696	617.816
395.234	17.757	815.194	617.332
396.248	17.675	814.788	616.673
397.263	17.715	814.208	616.325
398.278	17.664	813.941	615.883
399.292	17.713	813.143	615.402
400.307	17.696	812.979	615.161
401.321	17.550	812.793	614.439
402.336	17.697	812.184	614.453
403.350	17.746	811.951	614.400
404.365	17.733	811.228	613.751
405.380	18.050	810.835	614.540
406.394	17.886	810.062	613.313
407.409	17.875	809.688	612.933
408.423	17.870	809.343	612.602
409.438	17.908	808.969	612.401
410.453	17.962	808.330	612.058
411.467	18.093	807.601	611.920
412.482	18.018	807.701	611.673
413.496	17.953	806.984	610.841
414.511	17.962	806.607	610.534
415.526	18.008	806.315	610.425
416.540	18.031	806.454	610.556
417.555	18.044	805.727	610.000
418.569	18.086	805.264	609.746
419.584	18.111	804.514	609.212
420.599	18.082	804.499	609.044
421.613	107.718	1286.994	1454.828
422.628	92.826	1357.299	1454.954
