DTS Sentinel unit serial number:	SN413079Multiplexer serial number:	ORYXHardware model number:	OX4-SRSoftware version number:	ORYX F/W v4.00 Oryx Data Collector v3.7.2.0data status	okinstallation	princeton_trtdifferential loss correction	single-endedforward channel	channel 3reverse channel	N/Adate	2019/09/19time	00:44:35forward acquisition time	60.00reverse acquisition time	0.00gamma	496.2192k internal	0.2347k external	0.2347temperature offset calibration	0.9992default loss term (dB/km)	0.3790temperature slope calibration	1.0000multiplexer offset coefficient	1.0000multiplexer slope coefficient	1.0000fibre end	0.00T internal ref (°C)	22.19T ext. ref 1 (°C)	0.73T ext. ref 2 (°C)	15.44length (m)	temperature (°C)	Stokes	anti-Stokes-747.200	-43.479	0.103	0.052
-746.185	-200.000	0.110	0.595
-745.171	48.634	-0.156	-0.146
-744.156	-99.597	0.217	-0.054
-743.142	800.000	0.079	0.299
-742.127	148.954	-0.137	0.186
-741.112	598.383	-0.038	0.094
-740.098	-21.317	0.098	0.060
-739.083	-76.608	0.059	0.021
-738.069	39.408	-0.261	0.234
-737.054	415.106	0.076	0.162
-736.039	-149.391	-0.121	-0.010
-735.025	149.351	0.059	0.080
-734.010	-123.116	0.126	-0.020
-732.996	-56.333	0.175	0.078
-731.981	591.520	-0.097	-0.240
-730.966	-134.660	0.370	0.045
-729.952	12.973	0.097	0.075
-728.937	-135.818	-0.435	0.051
-727.923	-200.000	-0.019	0.175
-726.908	438.828	-0.102	-0.222
-725.894	-138.987	-0.303	0.033
-724.879	32.747	0.239	0.207
-723.864	-55.438	-0.410	-0.184
-722.850	-200.000	0.033	0.146
-721.835	-174.501	-0.169	-0.005
-720.821	319.958	0.027	-0.052
-719.806	-26.704	0.203	0.118
-718.791	-200.000	-0.030	0.138
-717.777	-128.026	-0.152	-0.022
-716.762	-79.910	-0.248	-0.083
-715.748	-135.768	0.152	0.018
-714.733	-155.269	-0.205	0.013
-713.718	169.991	-0.122	0.174
-712.704	-99.483	0.194	0.049
-711.689	-59.745	-0.323	-0.138
-710.675	-172.386	0.118	-0.004
-709.660	-200.000	-0.004	0.592
-708.645	144.041	-0.133	0.177
-707.631	-53.392	-0.210	0.096
-706.616	-123.577	0.222	0.035
-705.602	-31.867	-0.216	0.121
-704.587	-122.513	0.219	0.036
-703.572	-76.420	-0.098	-0.035
-702.558	47.987	-0.224	0.209
-701.543	-50.528	-0.176	-0.083
-700.529	-134.832	-0.292	0.035
-699.514	-158.128	0.121	-0.007
-698.499	800.000	-0.195	-0.577
-697.485	-40.867	-0.425	-0.219
-696.470	181.381	-0.131	0.192
-695.456	-200.000	0.005	-0.416
-694.441	-200.000	0.033	-0.235
-693.426	800.000	0.080	-0.252
-692.412	210.426	0.036	-0.056
-691.397	-89.385	0.180	-0.053
-690.383	-66.087	0.051	0.020
-689.368	299.011	-0.140	-0.257
-688.354	-200.000	-0.028	0.280
-687.339	-184.159	-0.095	-0.002
-686.324	345.359	0.114	-0.223
-685.310	-168.804	-0.472	-0.018
-684.295	-200.000	-0.021	0.395
-683.281	-170.948	-0.115	0.004
-682.266	-77.774	0.387	-0.134
-681.251	-47.421	-0.163	0.079
-680.237	39.663	-0.075	-0.067
-679.222	-200.000	-0.018	0.080
-678.208	727.906	-0.054	-0.144
-677.193	140.755	0.097	0.128
-676.178	19.100	-0.284	0.227
-675.164	195.976	0.095	0.145
-674.149	75.103	-0.187	-0.196
-673.135	90.210	0.181	0.202
-672.120	621.934	-0.040	-0.101
-671.105	-50.216	-0.072	-0.034
-670.091	-73.867	-0.042	-0.015
-669.076	-105.213	0.186	0.042
-668.062	-57.563	0.222	-0.097
-667.047	284.188	-0.057	-0.102
-666.032	312.844	0.136	0.254
-665.018	-120.483	-0.297	-0.050
-664.003	81.875	0.127	0.138
-662.989	-59.153	0.112	0.048
-661.974	-139.197	-0.327	-0.035
-660.959	800.000	0.116	-0.344
-659.945	563.816	-0.088	0.212
-658.930	-190.755	0.037	-0.000
-657.916	91.571	-0.271	-0.303
-656.901	-37.523	0.273	0.145
-655.886	-200.000	-0.001	-0.068
-654.872	104.038	-0.202	0.237
-653.857	-2.765	0.361	0.251
-652.843	-200.000	0.009	-0.427
-651.828	-68.733	-0.373	0.144
-650.814	529.987	-0.069	0.163
-649.799	137.402	-0.136	0.177
-648.784	-200.000	0.018	-0.177
-647.770	107.994	-0.084	0.100
-646.755	-160.831	-0.459	-0.024
-645.741	800.000	0.018	-0.078
-644.726	231.813	0.155	0.253
-643.711	75.994	-0.047	-0.050
-642.697	-15.999	-0.069	0.044
-641.682	-116.303	0.245	0.045
-640.668	800.000	-0.017	0.073
-639.653	45.753	0.132	0.122
-638.638	-200.000	0.013	-0.248
-637.624	-61.706	-0.307	0.128
-636.609	-76.090	-0.431	0.152
-635.595	800.000	-0.069	-0.225
-634.580	155.173	0.107	-0.146
-633.565	-12.935	0.164	-0.107
-632.551	-200.000	-0.017	-0.253
-631.536	-18.959	0.169	0.104
-630.522	-64.710	0.235	-0.095
-629.507	191.407	0.083	-0.124
-628.492	-200.000	-0.019	0.209
-627.478	48.770	-0.096	-0.090
-626.463	-200.000	-0.039	-0.229
-625.449	800.000	-0.074	-0.227
-624.434	266.155	0.087	-0.151
-623.419	45.189	-0.258	-0.237
-622.405	224.986	-0.094	0.151
-621.390	-200.000	0.034	-0.210
-620.376	486.901	0.077	-0.174
-619.361	-56.871	0.036	-0.016
-618.346	-83.547	-0.143	-0.046
-617.332	-109.929	-0.237	0.049
-616.317	-136.022	0.225	0.026
-615.303	-200.000	-0.040	0.230
-614.288	710.062	-0.019	-0.049
-613.273	-200.000	-0.009	0.216
-612.259	143.167	-0.139	0.184
-611.244	-200.000	-0.000	-0.041
-610.230	61.539	0.190	-0.188
-609.215	-33.629	-0.132	-0.073
-608.201	511.035	-0.068	0.159
-607.186	-200.000	0.018	-0.147
-606.171	36.615	-0.254	0.223
-605.157	-188.271	-0.450	-0.006
-604.142	-165.867	0.074	0.003
-603.128	471.134	0.064	0.142
-602.113	592.200	-0.079	-0.195
-601.098	-178.063	-0.171	-0.004
-600.084	-101.307	-0.636	-0.154
-599.069	529.753	-0.178	-0.417
-598.055	800.000	-0.060	0.172
-597.040	-200.000	-0.000	-0.116
-596.025	-17.254	0.152	0.095
-595.011	800.000	-0.010	0.035
-593.996	-178.265	-0.418	-0.010
-592.982	44.491	-0.087	-0.080
-591.967	-200.000	-0.035	-0.222
-590.952	97.603	-0.274	-0.313
-589.938	-35.943	0.368	-0.198
-588.923	71.513	-0.400	-0.413
-587.909	800.000	-0.011	-0.031
-586.894	12.778	-0.203	0.156
-585.879	-18.615	0.127	-0.079
-584.865	-200.000	0.048	0.293
-583.850	800.000	0.040	-0.158
-582.836	-31.872	0.323	-0.180
-581.821	-98.920	0.200	-0.051
-580.806	5.011	-0.169	-0.123
-579.792	-6.120	-0.106	0.072
-578.777	15.956	-0.166	-0.130
-577.763	-35.919	0.326	0.175
-576.748	800.000	0.118	-0.384
-575.733	800.000	0.078	-0.236
-574.719	-77.756	-0.094	0.032
-573.704	-94.600	-0.137	0.037
-572.690	800.000	0.051	0.201
-571.675	516.891	0.095	-0.221
-570.661	180.698	-0.043	0.063
-569.646	13.820	-0.307	-0.237
-568.631	1.690	0.046	0.033
-567.617	73.740	-0.039	0.041
-566.602	15.433	0.118	0.092
-565.588	80.464	-0.047	-0.050
-564.573	-24.103	0.208	0.123
-563.558	-118.726	0.056	0.010
-562.544	-117.557	-0.280	-0.050
-561.529	-200.000	0.014	-0.129
-560.515	800.000	0.063	-0.183
-559.500	-119.754	-0.254	0.044
-558.485	-67.065	0.407	0.159
-557.471	137.613	0.057	-0.074
-556.456	59.071	-0.148	0.145
-555.442	-13.640	-0.328	-0.211
-554.427	68.870	-0.089	0.091
-553.412	-82.388	-0.319	-0.103
-552.398	158.443	0.180	-0.248
-551.383	800.000	-0.101	-0.276
-550.369	-110.087	0.330	0.068
-549.354	-2.326	-0.035	0.025
-548.339	-65.541	0.093	0.037
-547.325	800.000	-0.075	-0.241
-546.310	794.492	-0.100	-0.272
-545.296	-137.712	0.156	0.017
-544.281	82.541	-0.244	-0.263
-543.266	800.000	-0.070	0.277
-542.252	-29.464	-0.154	0.087
-541.237	-200.000	-0.023	-0.100
-540.223	-17.149	-0.121	-0.076
-539.208	-200.000	-0.013	-0.076
-538.193	-53.193	-0.422	-0.192
-537.179	73.572	0.213	-0.221
-536.164	289.272	0.124	-0.222
-535.150	23.309	0.138	0.112
-534.135	-89.463	-0.362	0.106
-533.121	-200.000	-0.028	0.225
-532.106	558.044	0.079	-0.189
-531.091	-104.388	0.216	-0.050
-530.077	141.528	0.220	0.288
-529.062	247.023	-0.058	0.097
-528.048	-200.000	0.010	0.130
-527.033	77.110	0.148	-0.156
-526.018	-125.158	0.346	0.052
-525.004	-84.452	0.194	0.061
-523.989	-118.941	0.156	-0.027
-522.975	421.133	-0.152	-0.324
-521.960	19.499	-0.194	-0.155
-520.945	52.895	-0.219	-0.208
-519.931	2.961	-0.138	0.100
-518.916	409.520	0.033	0.068
-517.902	-137.061	0.178	0.020
-516.887	-93.038	-0.378	0.105
-515.872	-35.385	-0.375	0.202
-514.858	-185.052	0.462	0.007
-513.843	-138.947	-0.067	0.007
-512.829	400.847	0.033	0.069
-511.814	-126.080	-0.310	0.046
-510.799	671.127	-0.120	0.308
-509.785	26.683	-0.100	0.083
-508.770	800.000	-0.119	0.499
-507.756	-200.000	-0.003	0.157
-506.741	-107.825	0.131	0.028
-505.726	289.289	-0.100	-0.179
-504.712	-24.516	-0.313	-0.185
-503.697	-15.124	0.331	0.210
-502.683	36.569	0.189	0.165
-501.668	165.062	0.124	0.173
-500.653	255.699	0.165	0.279
-499.639	-67.046	0.235	0.092
-498.624	-47.264	-0.104	0.050
-497.610	-160.074	0.284	-0.015
-496.595	-18.356	-0.208	-0.129
-495.581	-97.211	0.102	-0.026
-494.566	-2.844	0.176	0.122
-493.551	-3.369	-0.122	-0.084
-492.537	121.469	-0.172	-0.212
-491.522	-137.936	0.378	0.042
-490.508	-200.000	0.018	0.158
-489.493	125.776	0.096	-0.121
-488.478	-87.855	-0.356	0.106
-487.464	-80.778	-0.032	0.011
-486.449	230.034	0.077	-0.125
-485.435	800.000	-0.127	0.377
-484.420	-29.794	-0.147	-0.083
-483.405	-73.216	0.179	-0.065
-482.391	21.976	-0.135	-0.109
-481.376	-200.000	0.037	0.168
-480.362	-102.032	0.334	0.080
-479.347	-200.000	-0.033	-0.231
-478.332	-110.729	-0.162	0.033
-477.318	15.263	0.109	0.085
-476.303	-26.333	0.201	-0.117
-475.289	-200.000	-0.040	0.175
-474.274	-161.040	0.199	-0.010
-473.259	-42.587	0.193	-0.097
-472.245	197.514	-0.178	-0.268
-471.230	48.310	0.211	-0.195
-470.216	-60.522	0.213	0.090
-469.201	-76.524	0.160	0.056
-468.186	30.745	-0.240	0.203
-467.172	773.819	-0.060	-0.161
-466.157	-200.000	-0.013	-0.123
-465.143	-160.858	-0.160	-0.008
-464.128	175.781	-0.305	0.438
-463.113	399.269	0.154	-0.318
-462.099	-106.858	0.272	0.060
-461.084	-200.000	-0.001	0.144
-460.070	264.487	0.184	-0.317
-459.055	-10.543	0.153	0.100
-458.040	-51.468	0.259	-0.120
-457.026	167.894	0.099	-0.140
-456.011	800.000	0.055	-0.166
-454.997	800.000	0.025	0.073
-453.982	-200.000	-0.035	0.175
-452.968	-103.897	0.189	0.044
-451.953	-5.141	-0.081	0.055
-450.938	-200.000	0.109	0.530
-449.924	-1.856	-0.107	0.074
-448.909	21.547	0.177	-0.142
-447.895	548.616	0.025	0.058
-446.880	456.094	-0.081	0.178
-445.865	143.087	0.159	0.209
-444.851	-38.325	-0.352	-0.184
-443.836	800.000	-0.137	0.392
-442.822	800.000	-0.057	0.225
-441.807	-51.868	0.095	0.044
-440.792	-126.535	-0.380	-0.056
-439.778	391.242	0.034	0.070
-438.763	127.701	0.177	0.222
-437.749	47.186	0.044	-0.040
-436.734	-200.000	-0.022	-0.190
-435.719	-200.000	0.045	0.303
-434.705	171.157	-0.064	0.091
-433.690	-45.283	-0.061	0.030
-432.676	-198.686	0.543	-0.003
-431.661	-32.387	0.084	0.046
-430.646	7.686	0.187	-0.139
-429.632	446.844	-0.085	-0.184
-428.617	-90.435	0.051	-0.015
-427.603	73.522	-0.117	0.121
-426.588	-27.570	-0.211	0.121
-425.573	-48.590	-0.162	-0.077
-424.559	-145.916	0.041	-0.004
-423.544	41.135	-0.060	-0.054
-422.530	55.335	-0.091	0.087
-421.515	-186.383	-0.174	-0.002
-420.500	-53.922	-0.169	0.076
-419.486	-182.707	0.245	-0.004
-418.471	800.000	0.032	-0.123
-417.457	-200.000	-0.045	-0.236
-416.442	-17.386	-0.198	-0.123
-415.428	196.727	0.230	0.345
-414.413	-12.221	-0.259	0.167
-413.398	800.000	-0.068	-0.238
-412.384	-199.359	-0.051	0.000
-411.369	-108.586	-0.185	-0.039
-410.355	-177.574	0.193	-0.005
-409.340	-47.581	0.332	0.159
-408.325	75.136	0.158	-0.164
-407.311	76.978	-0.099	-0.104
-406.296	-32.102	0.157	-0.087
-405.282	-99.029	-0.413	-0.103
-404.267	274.462	0.195	0.340
-403.252	236.989	0.212	0.346
-402.238	800.000	-0.081	-0.271
-401.223	137.537	0.058	-0.075
-400.209	-99.645	-0.182	0.045
-399.194	-187.974	-0.528	0.007
-398.179	303.142	-0.078	0.142
-397.165	-143.554	0.133	0.013
-396.150	373.071	-0.138	-0.276
-395.136	15.353	0.352	0.272
-394.121	-112.041	0.324	-0.064
-393.106	-27.978	-0.125	-0.071
-392.092	800.000	-0.037	0.125
-391.077	181.007	-0.134	-0.194
-390.063	-5.327	-0.206	0.140
-389.048	135.852	0.317	0.407
-388.033	-134.627	-0.096	0.012
-387.019	-200.000	-0.081	0.383
-386.004	45.310	-0.088	-0.080
-384.990	14.019	0.162	0.124
-383.975	-169.229	-0.290	-0.011
-382.960	-200.000	-0.019	0.211
-381.946	158.453	-0.022	-0.030
-380.931	300.556	0.124	0.225
-379.917	-200.000	0.010	-0.192
-378.902	800.000	-0.107	-0.349
-377.888	127.905	-0.255	-0.320
-376.873	-200.000	-0.023	-0.182
-375.858	11.754	-0.114	0.086
-374.844	-127.579	-0.109	0.016
-373.829	800.000	0.046	-0.159
-372.815	-200.000	0.010	0.172
-371.800	172.397	-0.085	0.120
-370.785	-97.933	-0.288	-0.073
-369.771	350.733	0.114	0.223
-368.756	-102.565	-0.102	-0.024
-367.742	118.720	-0.230	0.279
-366.727	-79.145	0.358	0.120
-365.712	-110.111	-0.236	0.049
-364.698	130.378	0.178	-0.225
-363.683	-66.871	0.154	-0.060
-362.669	44.916	0.087	0.079
-361.654	40.219	-0.290	0.257
-360.639	800.000	0.036	0.128
-359.625	-132.662	-0.212	-0.027
-358.610	-106.075	0.369	0.082
-357.596	-59.206	0.131	-0.055
-356.581	266.159	0.166	-0.285
-355.566	496.376	0.036	-0.083
-354.552	-142.826	0.348	-0.033
-353.537	-114.092	-0.173	-0.033
-352.523	611.667	0.164	0.404
-351.508	141.373	0.100	-0.130
-350.493	-11.058	0.195	-0.127
-349.479	-2.920	-0.182	-0.125
-348.464	-58.717	0.198	-0.084
-347.450	66.838	0.077	0.077
-346.435	170.554	0.067	0.095
-345.420	-42.354	-0.132	-0.067
-344.406	-24.724	0.042	0.025
-343.391	96.014	-0.116	0.131
-342.377	67.382	-0.094	0.095
-341.362	-46.253	0.228	0.111
-340.348	-102.219	-0.143	-0.034
-339.333	303.239	-0.173	0.316
-338.318	-89.455	-0.076	-0.022
-337.304	-49.900	-0.206	-0.096
-336.289	-10.613	-0.359	0.234
-335.275	-99.812	-0.180	-0.044
-334.260	-35.718	-0.072	0.038
-333.245	-148.955	0.169	-0.013
-332.231	-200.000	-0.049	0.224
-331.216	-77.584	-0.194	-0.066
-330.202	441.669	-0.052	0.113
-329.187	-21.069	-0.218	-0.131
-328.172	-138.766	-0.081	0.009
-327.158	-149.981	-0.013	0.001
-326.143	-102.084	0.159	0.038
-325.129	99.169	-0.167	0.190
-324.114	81.023	0.147	0.156
-323.099	-103.321	0.462	-0.107
-322.085	111.559	-0.161	-0.191
-321.070	-71.148	-0.499	-0.184
-320.056	1.470	0.310	-0.219
-319.041	267.251	0.122	0.209
-318.026	156.591	0.261	-0.355
-317.012	800.000	-0.033	0.138
-315.997	800.000	-0.057	-0.159
-314.983	13.456	-0.071	-0.054
-313.968	-200.000	-0.005	-0.056
-312.953	32.968	0.220	-0.188
-311.939	-200.000	0.207	-0.001
-310.924	-13.810	-0.148	0.094
-309.910	-117.816	0.266	0.047
-308.895	-7.372	0.154	0.102
-307.880	-139.515	-0.176	0.018
-306.866	-113.935	-0.223	-0.042
-305.851	-200.000	-0.008	-0.099
-304.837	800.000	-0.039	-0.166
-303.822	-200.000	0.047	-0.211
-302.807	-200.000	-0.005	-0.056
-301.793	325.078	-0.120	-0.226
-300.778	-74.466	0.500	0.177
-299.764	-109.419	-0.369	-0.077
-298.749	293.754	0.041	0.073
-297.735	204.262	0.152	0.231
-296.720	-22.293	0.170	0.101
-295.705	94.360	-0.100	-0.112
-294.691	677.949	-0.069	-0.177
-293.676	5.549	-0.069	-0.050
-292.662	78.093	0.174	0.182
-291.647	-150.744	0.243	0.018
-290.632	-118.348	0.302	0.053
-289.618	-116.925	-0.069	-0.012
-288.603	390.015	0.036	-0.074
-287.589	64.067	-0.296	0.293
-286.574	0.069	-0.132	-0.092
-285.559	57.490	0.246	-0.236
-284.545	-107.453	-0.365	0.079
-283.530	-52.835	0.204	-0.092
-282.516	24.744	0.137	0.111
-281.501	47.514	-0.091	-0.083
-280.486	800.000	0.056	-0.212
-279.472	-80.410	0.409	-0.134
-278.457	17.357	0.193	-0.150
-277.443	61.087	0.156	-0.152
-276.428	-0.647	0.020	0.014
-275.413	108.741	-0.097	-0.114
-274.399	478.810	0.135	-0.300
-273.384	-23.331	0.161	0.095
-272.370	-77.147	-0.214	-0.073
-271.355	155.070	-0.098	0.133
-270.340	98.505	-0.064	-0.073
-269.326	97.868	0.155	-0.175
-268.311	87.480	-0.285	0.310
-267.297	86.950	-0.125	0.136
-266.282	351.746	0.137	0.267
-265.267	-13.513	-0.198	0.126
-264.253	104.795	0.203	-0.235
-263.238	190.241	-0.082	-0.121
-262.224	82.354	0.194	0.206
-261.209	339.854	0.200	0.383
-260.195	800.000	0.064	-0.212
-259.180	353.339	-0.092	0.178
-258.165	34.680	0.131	-0.112
-257.151	-43.099	0.079	-0.039
-256.136	800.000	0.054	0.188
-255.122	56.618	0.174	-0.166
-254.107	-40.218	0.282	0.144
-253.092	-44.515	0.238	0.117
-252.078	103.862	0.142	0.164
-251.063	391.451	-0.103	-0.210
-250.049	20.152	0.085	0.067
-249.034	-13.892	-0.093	0.059
-248.019	-58.707	-0.256	-0.109
-247.005	468.656	-0.181	-0.399
-245.990	-34.511	0.094	-0.050
-244.976	-56.974	-0.300	0.130
-243.961	139.816	0.202	0.262
-242.946	-87.163	-0.270	-0.081
-241.932	-165.172	0.167	0.007
-240.917	-200.000	-0.016	0.073
-239.903	171.397	0.141	-0.198
-238.888	-171.482	0.244	-0.008
-237.873	337.836	-0.149	0.283
-236.859	800.000	0.147	0.427
-235.844	414.439	0.179	0.373
-234.830	398.442	-0.102	0.209
-233.815	-30.841	0.075	-0.042
-232.800	-200.000	0.072	0.311
-231.786	-75.526	-0.263	0.092
-230.771	-31.345	-0.029	0.016
-229.757	-94.501	-0.371	0.099
-228.742	-200.000	-0.024	-0.223
-227.727	348.643	0.093	-0.179
-226.713	284.990	-0.069	-0.122
-225.698	-41.046	0.255	0.129
-224.684	21.813	0.149	0.119
-223.669	800.000	0.070	0.190
-222.655	-200.000	0.010	-0.053
-221.640	225.164	0.179	0.284
-220.625	800.000	-0.013	0.056
-219.611	25.679	-0.249	-0.203
-218.596	316.658	-0.106	0.196
-217.582	-200.000	-0.006	-0.125
-216.567	141.770	-0.239	0.310
-215.552	-59.766	0.176	-0.074
-214.538	-78.965	-0.301	-0.100
-213.523	-200.000	0.042	-0.267
-212.509	-17.710	0.367	-0.225
-211.494	-23.750	0.228	-0.134
-210.479	24.009	0.163	-0.131
-209.465	-5.760	-0.223	0.149
-208.450	98.375	-0.280	0.316
-207.436	-200.000	0.010	0.069
-206.421	-162.547	-0.146	0.007
-205.406	29.179	0.112	-0.093
-204.392	159.420	0.107	-0.145
-203.377	72.223	0.127	-0.129
-202.363	3.359	0.166	-0.118
-201.348	4.681	-0.135	0.097
-200.333	-93.212	0.401	-0.109
-199.319	800.000	0.065	0.274
-198.304	-142.608	0.159	-0.015
-197.290	800.000	-0.072	0.228
-196.275	800.000	-0.066	0.274
-195.260	-99.557	0.240	0.059
-194.246	212.200	0.081	-0.125
-193.231	67.516	0.066	-0.066
-192.217	-200.000	-0.012	-0.060
-191.202	307.883	0.114	-0.207
-190.187	-200.000	0.038	-0.325
-189.173	-84.381	0.146	-0.045
-188.158	93.076	0.211	0.233
-187.144	-22.615	0.101	0.059
-186.129	148.507	-0.184	0.243
-185.114	82.543	-0.127	-0.134
-184.100	-183.862	-0.176	-0.003
-183.085	-200.000	0.023	-0.210
-182.071	738.045	0.071	-0.187
-181.056	208.445	0.253	0.387
-180.042	139.048	-0.085	0.109
-179.027	-200.000	-0.038	0.229
-178.012	-60.155	0.123	-0.051
-176.998	-32.547	0.273	0.149
-175.983	8.789	-0.116	-0.085
-174.969	-27.391	0.089	-0.051
-173.954	203.972	-0.125	0.190
-172.939	-200.000	-0.025	-0.157
-171.925	140.543	0.073	0.095
-170.910	42.108	0.214	0.190
-169.896	579.379	-0.077	-0.185
-168.881	-95.250	0.119	0.031
-167.866	125.543	0.016	-0.020
-166.852	228.563	-0.112	-0.179
-165.837	76.234	0.145	0.150
-164.823	-44.524	0.113	-0.055
-163.808	27.164	-0.179	-0.147
-162.793	750.289	0.056	-0.147
-161.779	-37.605	0.171	-0.089
-160.764	43.577	-0.198	-0.177
-159.750	-200.000	0.017	-0.163
-158.735	127.679	0.188	-0.233
-157.720	-200.000	-0.006	-0.170
-156.706	-117.081	-0.532	-0.095
-155.691	-200.000	0.063	-0.317
-154.677	-200.000	0.005	0.197
-153.662	23.009	-0.295	0.237
-152.647	-200.000	-0.000	0.016
-151.633	202.374	-0.087	0.131
-150.618	-140.302	-0.293	0.030
-149.604	43.677	-0.361	0.322
-148.589	800.000	0.017	0.060
-147.574	-52.464	0.240	-0.108
-146.560	353.376	0.104	-0.201
-145.545	425.175	-0.097	-0.205
-144.531	800.000	-0.109	0.323
-143.516	-200.000	0.026	0.174
-142.502	-141.191	-0.106	-0.011
-141.487	800.000	0.096	0.322
-140.472	-49.355	0.198	-0.092
-139.458	100.811	0.102	-0.115
-138.443	-112.287	0.184	0.036
-137.429	469.616	-0.196	0.430
-136.414	-200.000	0.045	-0.192
-135.399	800.000	-0.081	-0.229
-134.385	-27.986	-0.246	-0.139
-133.370	800.000	0.039	-0.157
-132.356	-11.997	0.241	-0.154
-131.341	-107.840	-0.269	-0.057
-130.326	99.267	-0.116	0.131
-129.312	-11.267	0.020	0.013
-128.297	15.128	-0.349	0.267
-127.283	-77.186	0.165	0.056
-126.268	-40.279	-0.118	-0.060
-125.253	-127.090	0.320	-0.046
-124.239	267.460	0.074	0.126
-123.224	126.546	0.056	0.069
-122.210	-99.876	0.399	0.097
-121.195	630.814	0.048	0.118
-120.180	-200.000	-0.032	0.246
-119.166	-83.830	0.298	-0.093
-118.151	65.660	-0.313	-0.309
-117.137	-200.000	0.060	0.367
-116.122	-71.309	-0.158	-0.058
-115.107	-139.644	0.130	0.014
-114.093	800.000	0.076	0.253
-113.078	130.002	-0.187	-0.233
-112.064	-200.000	0.002	-0.014
-111.049	800.000	-0.009	-0.027
-110.034	-8.684	-0.222	-0.145
-109.020	-90.301	0.103	0.029
-108.005	-6.326	-0.180	-0.120
-106.991	175.375	-0.156	-0.221
-105.976	-17.102	0.147	-0.090
-104.962	-70.479	-0.491	0.181
-103.947	-32.021	0.026	0.014
-102.932	-200.000	-0.032	-0.141
-101.918	2.476	0.171	-0.121
-100.903	79.551	-0.203	-0.212
-99.889	112.224	0.085	0.100
-98.874	40.397	0.253	0.222
-97.859	169.810	-0.058	0.081
-96.845	-58.402	0.216	0.092
-95.830	800.000	0.050	-0.147
-94.816	117.092	-0.101	-0.121
-93.801	54.223	-0.175	-0.164
-92.786	-62.843	0.212	0.085
-91.772	66.813	0.240	0.238
-90.757	85.914	-0.051	0.055
-89.743	330.388	0.033	-0.061
-88.728	47.489	-0.233	-0.212
-87.713	636.752	-0.126	-0.311
-86.699	21.927	-0.151	0.120
-85.684	22.014	0.221	-0.176
-84.670	0.861	-0.110	-0.077
-83.655	40.491	-0.158	0.139
-82.640	-169.973	0.327	-0.011
-81.626	-200.000	-0.020	0.259
-80.611	57.327	0.151	0.144
-79.597	298.591	0.188	-0.337
-78.582	98.259	-0.103	0.116
-77.567	-115.176	-0.271	0.050
-76.553	800.000	0.106	0.363
-75.538	-200.000	0.012	-0.355
-74.524	-90.551	-0.344	0.097
-73.509	291.510	0.125	-0.222
-72.494	-80.379	0.295	-0.096
-71.480	-200.000	-0.005	0.268
-70.465	-138.270	0.090	-0.010
-69.451	-200.000	-0.002	0.106
-68.436	-49.574	0.130	-0.060
-67.422	80.717	-0.250	0.262
-66.407	-132.227	0.126	0.016
-65.392	-200.000	0.028	0.240
-64.378	-66.839	0.200	-0.077
-63.363	-200.000	0.028	-0.371
-62.349	800.000	0.084	0.346
-61.334	94.036	-1.001	-1.105
-60.319	166.054	0.625	0.861
-59.305	-200.000	-0.185	-1.547
-58.290	382.511	0.632	1.263
-57.276	455.770	0.604	1.303
-56.261	-200.000	133.218	694.736
-55.246	362.757	1661.440	3246.313
-54.232	134.806	2800.310	3537.800
-53.217	91.832	2188.177	2395.488
-52.203	32.555	1701.810	1431.243
-51.188	25.219	1522.528	1230.322
-50.173	23.483	1499.458	1199.895
-49.159	47.976	1575.097	1431.894
-48.144	44.645	1586.581	1419.108
-47.130	25.324	1534.203	1240.282
-46.115	22.407	1517.921	1207.101
-45.100	22.249	1513.747	1202.654
-44.086	22.196	1512.025	1200.877
-43.071	22.128	1510.166	1198.892
-42.057	22.023	1508.992	1197.197
-41.042	22.144	1507.089	1196.464
-40.027	22.230	1505.601	1195.816
-39.013	22.138	1504.455	1194.235
-37.998	22.069	1503.054	1192.608
-36.984	22.171	1501.883	1192.323
-35.969	22.152	1500.505	1191.049
-34.954	22.180	1499.191	1190.151
-33.940	22.150	1497.752	1188.758
-32.925	22.138	1496.298	1187.474
-31.911	22.148	1495.180	1186.607
-30.896	22.237	1494.092	1186.302
-29.881	22.222	1493.267	1185.494
-28.867	22.207	1491.667	1184.080
-27.852	22.137	1490.693	1182.789
-26.838	22.203	1488.785	1181.666
-25.823	22.287	1487.016	1180.779
-24.809	22.295	1485.935	1179.929
-23.794	22.257	1484.040	1178.122
-22.779	22.266	1483.139	1177.425
-21.765	22.178	1482.342	1176.155
-20.750	22.232	1480.907	1175.328
-19.736	22.195	1480.135	1174.424
-18.721	22.199	1478.688	1173.255
-17.706	22.113	1477.629	1171.796
-16.692	22.142	1477.171	1171.581
-15.677	22.216	1475.675	1170.836
-14.663	22.212	1474.665	1169.962
-13.648	22.147	1473.387	1168.473
-12.633	22.238	1472.492	1168.319
-11.619	22.171	1472.383	1167.745
-10.604	22.171	1471.113	1166.690
-9.590	22.129	1470.323	1165.736
-8.575	22.311	1468.982	1165.833
-7.560	22.256	1468.220	1164.818
-6.546	22.227	1467.655	1164.133
-5.531	22.199	1466.841	1163.257
-4.517	22.237	1465.645	1162.512
-3.502	22.234	1464.455	1161.501
-2.487	22.230	1463.296	1160.511
-1.473	22.142	1462.490	1159.242
-0.458	22.102	1461.531	1158.175
0.556	21.135	1451.187	1146.334
1.571	17.717	1426.912	1104.943
2.586	14.164	1364.433	1034.413
3.600	12.540	1280.182	960.973
4.615	11.516	1236.865	922.592
5.629	10.058	1180.848	872.865
6.644	5.243	1100.929	789.427
7.659	1.341	1065.932	745.141
8.673	0.840	1060.312	738.703
9.688	0.664	1057.616	735.901
10.702	0.747	1056.084	735.176
11.717	0.669	1053.892	733.207
12.731	2.232	1054.430	741.098
13.746	7.924	1061.895	774.016
14.761	14.254	1069.987	810.764
15.775	17.099	1073.175	826.984
16.790	17.092	1072.250	826.165
17.804	15.995	1070.188	819.173
18.819	15.237	1068.113	813.832
19.834	14.662	1066.788	809.964
20.848	14.403	1066.114	808.124
21.863	14.251	1064.859	806.363
22.877	14.020	1063.971	804.503
23.892	13.742	1063.343	802.609
24.907	13.814	1062.263	802.074
25.921	13.755	1061.937	801.469
26.936	13.622	1061.589	800.495
27.950	13.743	1060.415	800.123
28.965	13.823	1059.670	799.877
29.980	13.759	1059.277	799.201
30.994	13.807	1057.844	798.277
32.009	13.868	1057.452	798.204
33.023	13.976	1056.247	797.744
34.038	13.924	1055.631	796.956
35.053	13.789	1055.355	796.030
36.067	13.852	1053.814	795.098
37.082	13.821	1052.936	794.219
38.096	13.933	1052.021	793.996
39.111	13.880	1051.735	793.454
40.126	13.984	1050.387	792.866
41.140	13.907	1049.073	791.434
42.155	13.766	1048.434	790.213
43.169	13.696	1047.948	789.443
44.184	13.763	1046.775	788.808
45.199	13.711	1045.458	787.496
46.213	13.706	1044.655	786.799
47.228	13.873	1043.159	786.392
48.242	13.831	1042.955	785.973
49.257	13.864	1041.474	784.943
50.271	13.890	1040.433	784.210
51.286	13.791	1040.028	783.367
52.301	13.846	1039.004	782.789
53.315	13.823	1038.383	782.141
54.330	13.874	1037.168	781.396
55.344	13.821	1036.665	780.700
56.359	13.727	1035.718	779.477
57.374	13.788	1034.772	778.984
58.388	13.780	1033.641	778.024
59.403	13.799	1033.138	777.664
60.417	13.739	1032.579	776.895
61.432	13.787	1031.472	776.216
62.447	13.730	1031.448	775.865
63.461	13.741	1030.104	774.838
64.476	13.641	1029.099	773.547
65.490	13.662	1028.516	773.136
66.505	13.758	1026.772	772.203
67.520	13.743	1026.667	771.987
68.534	13.656	1025.945	770.972
69.549	13.780	1024.898	770.691
70.563	13.729	1024.664	770.213
71.578	13.656	1023.876	769.213
72.593	13.644	1022.889	768.348
73.607	13.689	1021.583	767.506
74.622	13.618	1020.858	766.565
75.636	13.650	1020.291	766.217
76.651	13.688	1019.071	765.410
77.666	13.706	1018.379	764.905
78.680	13.814	1017.283	764.515
79.695	13.746	1017.013	763.928
80.709	13.612	1016.782	763.074
81.724	13.769	1015.496	762.760
82.739	13.810	1014.549	762.169
83.753	13.664	1014.196	761.170
84.768	13.771	1012.994	760.688
85.782	14.010	1011.836	760.845
86.797	13.923	1011.681	760.263
87.812	13.893	1010.991	759.542
88.826	13.918	1009.873	758.747
89.841	13.812	1009.532	757.940
90.855	13.896	1008.867	757.758
91.870	13.769	1007.792	756.305
92.884	13.837	1007.219	756.116
93.899	13.952	1006.598	756.107
94.914	13.837	1005.668	754.817
95.928	13.975	1005.064	754.928
96.943	14.077	1004.334	754.776
97.957	13.940	1003.875	753.742
98.972	13.933	1002.805	752.838
99.987	13.962	1002.029	752.322
101.001	13.947	1001.101	751.488
102.016	13.927	1000.148	750.616
103.030	14.001	999.215	750.186
104.045	14.078	998.283	749.769
105.060	13.982	997.495	748.674
106.074	13.915	996.476	747.542
107.089	13.945	995.777	747.085
108.103	13.893	995.097	746.279
109.118	13.731	994.379	744.945
110.133	13.892	993.585	745.006
111.147	13.910	992.681	744.346
112.162	13.807	991.633	743.031
113.176	13.806	990.571	742.166
114.191	13.879	989.845	741.883
115.206	13.981	988.789	741.481
116.220	13.960	987.830	740.602
117.235	13.975	987.330	740.228
118.249	13.893	986.704	739.329
119.264	13.935	985.618	738.637
120.279	13.863	984.944	737.746
121.293	13.839	983.792	736.713
122.308	13.765	983.372	736.004
123.322	13.804	982.688	735.598
124.337	13.769	981.213	734.274
125.352	13.808	980.301	733.698
126.366	13.738	979.120	732.440
127.381	13.872	977.823	731.997
128.395	13.833	977.290	731.362
129.410	13.746	975.936	729.899
130.424	13.883	974.651	729.479
131.439	13.830	974.312	728.928
132.454	13.957	973.364	728.710
133.468	13.983	972.678	728.245
134.483	13.953	972.169	727.669
135.497	14.077	971.071	727.327
136.512	13.966	970.455	726.313
137.527	13.853	969.808	725.272
138.541	13.821	969.178	724.599
139.556	13.875	968.605	724.341
140.570	13.887	967.915	723.813
141.585	13.955	966.716	723.147
142.600	14.058	965.823	722.863
143.614	13.928	965.629	722.089
144.629	14.043	964.588	721.745
145.643	14.086	963.898	721.353
146.658	14.029	962.963	720.340
147.673	13.896	962.146	719.090
148.687	14.017	961.320	718.935
149.702	14.085	960.538	718.579
150.716	13.924	959.736	717.221
151.731	13.984	958.923	716.809
152.746	14.046	957.934	716.275
153.760	13.956	957.473	715.478
154.775	14.173	956.246	715.432
155.789	14.152	955.676	714.850
156.804	14.172	954.989	714.360
157.819	14.064	954.381	713.377
158.833	14.212	953.527	713.312
159.848	14.230	953.137	713.034
160.862	14.244	952.304	712.405
161.877	14.281	951.313	711.762
162.892	14.229	950.565	710.914
163.906	14.191	949.474	709.874
164.921	14.066	949.153	709.040
165.935	14.207	947.584	708.404
166.950	14.137	947.318	707.846
167.964	14.270	946.330	707.610
168.979	14.204	944.723	706.063
169.994	14.220	944.250	705.716
171.008	14.069	943.494	704.450
172.023	14.201	942.507	704.211
173.037	14.228	941.899	703.805
174.052	14.279	940.908	703.218
175.067	14.407	939.861	702.914
176.081	14.225	939.685	701.952
177.096	14.304	938.764	701.534
178.110	14.233	937.874	700.509
179.125	14.238	937.284	700.028
180.140	14.247	936.532	699.444
181.154	14.312	935.620	698.972
182.169	14.166	935.691	698.352
183.183	14.334	934.436	698.055
184.198	14.447	933.372	697.671
185.213	14.450	932.998	697.346
186.227	14.441	932.325	696.743
187.242	14.423	931.973	696.342
188.256	14.568	930.875	696.065
189.271	14.534	930.551	695.619
190.286	14.605	929.426	695.013
191.300	14.431	929.087	693.972
192.315	14.358	928.067	692.848
193.329	14.374	927.671	692.555
194.344	14.327	926.894	691.719
195.359	14.559	926.016	691.964
196.373	14.586	925.745	691.812
197.388	14.520	925.397	691.219
198.402	14.484	925.092	690.782
199.417	14.708	924.123	690.923
200.432	14.650	923.931	690.478
201.446	14.562	923.536	689.758
202.461	14.652	922.983	689.657
203.475	14.765	922.231	689.500
204.490	14.715	921.690	688.827
205.504	14.886	920.311	688.442
206.519	14.819	919.816	687.732
207.534	14.667	919.099	686.511
208.548	14.643	918.580	685.963
209.563	14.659	917.796	685.382
210.577	14.772	916.881	685.105
211.592	14.760	916.652	684.822
212.607	14.779	915.652	684.094
213.621	14.817	915.442	684.031
214.636	14.933	914.412	683.676
215.650	14.833	913.879	682.808
216.665	14.857	913.668	682.686
217.680	14.858	912.957	682.102
218.694	15.052	912.302	682.340
219.709	15.020	911.693	681.693
220.723	14.991	911.059	681.044
221.738	14.969	910.477	680.458
222.753	14.955	909.747	679.793
223.767	15.006	908.856	679.274
224.782	14.863	908.384	678.284
225.796	15.035	907.309	678.119
226.811	15.108	906.803	677.975
227.826	15.088	906.464	677.579
228.840	15.084	905.490	676.775
229.855	15.245	904.675	676.758
230.869	14.998	904.441	675.523
231.884	15.037	903.429	674.867
232.899	15.115	902.897	674.724
233.913	14.894	902.559	673.521
234.928	14.962	901.523	672.962
235.942	14.971	900.979	672.532
236.957	14.939	900.193	671.760
237.972	15.187	898.994	671.799
238.986	15.106	898.376	670.954
240.001	15.076	897.898	670.415
241.015	15.316	897.086	670.712
242.030	15.234	896.489	669.879
243.045	15.140	895.996	669.075
244.059	15.188	895.502	668.836
245.074	15.248	894.741	668.448
246.088	15.241	893.825	667.678
247.103	15.219	893.610	667.372
248.117	15.356	893.218	667.566
249.132	15.226	892.413	666.386
250.147	15.390	891.644	666.405
251.161	15.505	891.105	666.398
252.176	15.575	890.083	665.854
253.190	15.569	889.658	665.453
254.205	15.591	888.966	664.964
255.220	15.546	888.322	664.246
256.234	15.595	887.776	663.970
257.249	15.534	887.295	663.313
258.263	15.765	886.334	663.445
259.278	15.657	885.878	662.621
260.293	15.522	885.742	661.930
261.307	15.603	884.717	661.423
262.322	15.681	884.157	661.252
263.336	15.695	883.422	660.698
264.351	15.645	883.130	660.227
265.366	15.770	882.401	660.115
266.380	15.780	881.494	659.414
267.395	15.866	881.037	659.351
268.409	15.794	880.173	658.364
269.424	15.769	879.682	657.843
270.439	15.823	878.891	657.402
271.453	15.813	877.912	656.572
272.468	15.852	877.337	656.236
273.482	15.764	876.863	655.483
274.497	15.777	876.019	654.843
275.512	15.919	875.262	654.772
276.526	15.896	874.339	653.935
277.541	15.789	874.080	653.267
278.555	15.840	873.573	653.030
279.570	16.028	872.292	652.743
280.585	15.879	872.450	652.226
281.599	16.063	871.675	652.300
282.614	16.030	871.216	651.772
283.628	16.050	870.272	651.084
284.643	16.054	870.102	650.916
285.657	16.066	869.301	650.304
286.672	16.059	869.019	650.010
287.687	16.025	868.573	649.485
288.701	15.967	868.203	648.928
289.716	16.152	866.492	648.305
290.730	16.153	866.282	648.093
291.745	16.118	866.249	647.878
292.760	16.165	865.290	647.282
293.774	16.206	864.884	647.078
294.789	16.058	864.480	646.152
295.803	16.123	863.874	645.889
296.818	16.265	862.741	645.529
297.833	16.132	862.172	644.539
298.847	16.231	861.511	644.367
299.862	16.282	860.773	643.952
300.876	16.280	860.099	643.382
301.891	16.206	859.418	642.536
302.906	16.213	858.930	642.138
303.920	16.374	858.172	642.127
304.935	16.373	857.698	641.712
305.949	16.383	857.156	641.290
306.964	16.394	856.499	640.780
307.979	16.478	855.898	640.594
308.993	16.449	855.325	640.000
310.008	16.602	854.453	639.867
311.022	16.499	854.194	639.227
312.037	16.514	853.895	639.005
313.052	16.499	853.135	638.321
314.066	16.248	853.173	637.347
315.081	16.350	852.229	636.968
316.095	16.448	851.556	636.781
317.110	16.449	850.831	636.186
318.125	16.532	850.231	635.992
319.139	16.490	849.762	635.428
320.154	16.572	849.419	635.421
321.168	16.492	848.876	634.660
322.183	16.627	848.133	634.553
323.197	16.684	847.988	634.604
324.212	16.616	847.001	633.555
325.227	16.591	846.270	632.856
326.241	16.553	845.976	632.440
327.256	16.612	845.460	632.217
328.270	16.582	844.672	631.463
329.285	16.530	844.583	631.145
330.300	16.568	843.990	630.786
331.314	16.638	843.385	630.541
332.329	16.789	842.613	630.469
333.343	16.625	841.790	629.189
334.358	16.723	841.774	629.485
335.373	16.675	840.915	628.610
336.387	17.010	840.126	629.207
337.402	16.813	839.955	628.289
338.416	16.684	839.417	627.354
339.431	16.734	839.002	627.174
340.446	16.887	838.065	626.985
341.460	16.885	837.315	626.361
342.475	16.827	837.420	626.171
343.489	16.902	836.413	625.638
344.504	16.845	835.998	625.064
345.519	16.944	835.473	624.980
346.533	16.995	834.648	624.494
347.548	16.957	834.763	624.384
348.562	17.039	834.173	624.191
349.577	17.037	833.193	623.396
350.592	17.002	832.721	622.857
351.606	16.983	831.986	622.185
352.621	16.877	832.165	621.873
353.635	16.922	831.508	621.491
354.650	17.042	830.948	621.458
355.665	17.133	830.499	621.400
356.679	17.071	830.338	620.998
357.694	17.088	829.561	620.422
358.708	17.070	829.075	619.940
359.723	17.240	828.010	619.709
360.738	17.130	827.973	619.225
361.752	17.105	827.610	618.807
362.767	17.234	826.749	618.578
363.781	17.113	826.595	617.970
364.796	17.285	825.893	618.013
365.810	17.314	825.374	617.678
366.825	17.217	825.192	617.132
367.840	17.324	824.841	617.205
368.854	17.267	824.441	616.645
369.869	17.462	823.442	616.547
370.883	17.432	823.331	616.302
371.898	17.282	823.013	615.468
372.913	17.392	822.187	615.193
373.927	17.449	821.332	614.705
374.942	17.464	820.728	614.251
375.956	17.285	820.532	613.406
376.971	17.523	819.914	613.747
377.986	17.528	819.261	613.222
379.000	17.625	818.348	612.834
380.015	17.565	818.343	612.560
381.029	17.722	817.621	612.527
382.044	17.544	817.036	611.398
383.059	17.597	816.455	611.100
384.073	17.575	816.256	610.815
385.088	17.625	815.826	610.618
386.102	17.592	815.039	609.859
387.117	17.652	814.440	609.570
388.132	17.481	814.118	608.665
389.146	17.551	813.507	608.404
390.161	17.610	813.481	608.543
391.175	17.591	812.932	608.009
392.190	17.800	812.488	608.367
393.205	17.772	811.983	607.836
394.219	17.768	811.133	607.133
395.234	17.655	811.149	606.688
396.248	17.742	810.675	606.590
397.263	17.663	810.206	605.904
398.278	17.711	809.180	605.253
399.292	17.774	809.077	605.345
400.307	17.836	808.563	605.130
401.321	17.639	808.438	604.282
402.336	17.707	808.065	604.192
403.350	17.934	807.382	604.430
404.365	17.672	807.250	603.352
405.380	17.832	806.627	603.400
406.394	18.026	806.146	603.672
407.409	17.801	806.026	602.733
408.423	17.983	804.932	602.502
409.438	18.112	804.846	602.839
410.453	18.069	804.189	602.145
411.467	17.942	803.914	601.436
412.482	18.006	803.316	601.162
413.496	18.074	803.034	601.136
414.511	18.183	802.474	601.048
415.526	18.231	802.182	600.945
416.540	17.958	802.010	599.802
417.555	18.198	801.338	600.088
418.569	18.130	800.603	599.247
419.584	18.223	800.358	599.336
420.599	18.118	800.142	598.754
421.613	115.895	1298.491	1490.850
422.628	100.023	1371.061	1490.917
