DTS Sentinel unit serial number:	SN413079Multiplexer serial number:	ORYXHardware model number:	OX4-SRSoftware version number:	ORYX F/W v4.00 Oryx Data Collector v3.7.2.0data status	okinstallation	princeton_trtdifferential loss correction	single-endedforward channel	channel 3reverse channel	N/Adate	2019/09/17time	06:04:35forward acquisition time	60.00reverse acquisition time	0.00gamma	496.2192k internal	0.2328k external	0.2328temperature offset calibration	0.9950default loss term (dB/km)	0.3790temperature slope calibration	1.0000multiplexer offset coefficient	1.0000multiplexer slope coefficient	1.0000fibre end	0.00T internal ref (°C)	28.69T ext. ref 1 (°C)	0.14T ext. ref 2 (°C)	22.26length (m)	temperature (°C)	Stokes	anti-Stokes-747.200	-76.465	-0.058	-0.021
-746.185	154.360	-0.072	-0.100
-745.171	-130.399	0.386	0.053
-744.156	256.703	-0.161	-0.278
-743.142	-200.000	0.080	0.433
-742.127	-144.365	-0.265	-0.025
-741.112	-72.177	0.273	-0.102
-740.098	-83.226	0.125	-0.040
-739.083	471.831	-0.048	0.109
-738.069	-159.270	-0.253	0.014
-737.054	-84.143	0.103	-0.033
-736.039	-138.396	0.118	0.013
-735.025	800.000	-0.008	0.026
-734.010	33.520	0.051	0.045
-732.996	-200.000	0.022	0.102
-731.981	-97.204	-0.166	-0.044
-730.966	-72.919	0.249	-0.092
-729.952	-120.320	0.160	-0.027
-728.937	-200.000	-0.233	0.001
-727.923	-29.843	-0.119	0.068
-726.908	-118.613	-0.357	0.063
-725.894	225.276	0.074	-0.120
-724.879	152.544	-0.129	-0.178
-723.864	800.000	-0.025	0.073
-722.850	-89.149	-0.395	0.118
-721.835	-86.400	0.345	-0.107
-720.821	800.000	-0.049	-0.161
-719.806	800.000	0.072	-0.234
-718.791	800.000	-0.006	0.026
-717.777	-42.725	0.060	0.031
-716.762	11.013	-0.169	-0.130
-715.748	-200.000	0.006	0.062
-714.733	-200.000	0.024	0.107
-713.718	344.804	-0.090	-0.177
-712.704	-200.000	-0.025	-0.173
-711.689	-200.000	0.018	0.100
-710.675	599.555	0.139	-0.347
-709.660	756.561	0.029	0.079
-708.645	-154.316	0.080	-0.005
-707.631	76.399	0.139	0.149
-706.616	800.000	-0.074	0.242
-705.602	-27.729	0.210	-0.123
-704.587	-14.444	-0.206	0.134
-703.572	-80.015	-0.272	-0.092
-702.558	314.555	0.064	-0.122
-701.543	136.863	0.069	-0.090
-700.529	129.682	-0.167	-0.215
-699.514	-76.318	0.179	-0.063
-698.499	77.376	0.065	0.069
-697.485	130.968	0.117	0.151
-696.470	-18.990	-0.135	0.085
-695.456	-200.000	-0.001	-0.138
-694.441	-200.000	0.236	0.001
-693.426	-200.000	0.036	-0.182
-692.412	39.476	0.175	0.158
-691.397	-8.457	-0.166	-0.112
-690.383	38.396	-0.089	-0.080
-689.368	-200.000	0.213	0.000
-688.354	-28.220	0.107	0.062
-687.339	-45.486	-0.142	0.071
-686.324	-70.265	0.146	-0.056
-685.310	67.716	0.346	-0.356
-684.295	173.084	-0.088	0.128
-683.281	1.552	0.048	0.035
-682.266	79.060	0.073	0.078
-681.251	-157.799	-0.175	-0.010
-680.237	63.102	0.269	-0.271
-679.222	800.000	-0.084	0.243
-678.208	740.068	-0.029	-0.078
-677.193	337.603	0.112	-0.219
-676.178	-61.404	0.198	-0.084
-675.164	93.346	-0.056	0.064
-674.149	52.700	-0.249	-0.239
-673.135	-33.840	0.283	-0.157
-672.120	-200.000	-0.026	-0.234
-671.105	-168.502	0.036	-0.001
-670.091	91.315	0.308	-0.348
-669.076	55.763	0.170	0.165
-668.062	280.003	-0.173	0.310
-667.047	-200.000	-0.036	0.394
-666.032	800.000	0.040	-0.147
-665.018	-136.453	0.067	0.008
-664.003	595.704	0.094	-0.233
-662.989	158.298	-0.114	0.159
-661.974	-50.606	0.190	-0.090
-660.959	29.643	0.104	-0.089
-659.945	405.085	0.121	0.256
-658.930	163.457	-0.055	0.078
-657.916	73.840	0.164	-0.172
-656.901	-35.863	0.147	-0.080
-655.886	29.589	0.103	0.088
-654.872	62.413	-0.313	0.313
-653.857	800.000	-0.058	-0.219
-652.843	-157.672	0.086	0.005
-651.828	403.997	0.123	-0.260
-650.814	-200.000	-0.038	-0.268
-649.799	126.762	0.163	-0.208
-648.784	61.267	0.114	0.114
-647.770	-200.000	-0.061	-0.462
-646.755	25.475	-0.301	-0.252
-645.741	-200.000	-0.084	-0.599
-644.726	40.735	0.174	-0.157
-643.711	-16.159	0.205	0.131
-642.697	50.988	-0.116	0.111
-641.682	36.552	-0.162	-0.143
-640.668	-5.872	-0.305	-0.210
-639.653	693.769	0.076	0.199
-638.638	-84.860	-0.376	-0.118
-637.624	8.010	0.318	-0.239
-636.609	13.877	-0.289	0.225
-635.595	153.993	-0.117	0.161
-634.580	-57.137	0.335	0.148
-633.565	536.832	-0.097	-0.232
-632.551	-71.898	0.241	0.090
-631.536	-11.371	-0.107	0.071
-630.522	191.437	-0.010	0.016
-629.507	129.546	0.071	-0.091
-628.492	-40.289	0.491	-0.256
-627.478	27.431	-0.067	-0.056
-626.463	0.665	-0.152	-0.109
-625.449	-119.591	0.129	-0.022
-624.434	59.808	-0.168	-0.166
-623.419	-1.120	0.199	-0.141
-622.405	800.000	-0.039	-0.155
-621.390	390.805	0.193	-0.401
-620.376	113.733	-0.086	-0.105
-619.361	-59.845	-0.142	0.061
-618.346	-75.184	0.062	0.022
-617.332	3.905	0.300	-0.220
-616.317	-95.607	-0.241	-0.065
-615.303	800.000	0.020	0.059
-614.288	208.839	-0.156	-0.245
-613.273	-3.073	-0.165	0.115
-612.259	-8.741	0.122	-0.082
-611.244	-200.000	0.027	-0.233
-610.230	-11.992	-0.182	-0.119
-609.215	800.000	-0.092	0.388
-608.201	-124.693	-0.093	-0.014
-607.186	172.454	-0.185	-0.267
-606.171	144.418	0.075	-0.100
-605.157	754.602	-0.080	-0.217
-604.142	156.708	-0.064	-0.089
-603.128	-90.232	0.170	0.050
-602.113	169.876	-0.198	0.283
-601.098	371.939	-0.140	0.284
-600.084	27.750	0.228	0.193
-599.069	197.022	0.137	0.209
-598.055	65.491	-0.147	0.149
-597.040	-200.000	-0.014	0.116
-596.025	-42.914	-0.122	-0.062
-595.011	486.443	0.054	0.123
-593.996	31.007	0.093	-0.079
-592.982	-90.036	-0.182	-0.053
-591.967	2.156	0.189	-0.137
-590.952	-200.000	-0.023	0.160
-589.938	800.000	-0.031	-0.099
-588.923	-48.227	-0.289	0.140
-587.909	721.948	-0.100	0.267
-586.894	441.812	0.156	0.341
-585.879	-72.718	0.034	0.012
-584.865	680.611	-0.176	-0.459
-583.850	724.098	0.071	-0.189
-582.836	-69.045	0.034	-0.013
-581.821	800.000	-0.067	-0.198
-580.806	800.000	-0.044	-0.155
-579.792	-15.272	0.151	0.097
-578.777	-77.270	-0.305	0.106
-577.763	-138.082	0.053	0.006
-576.748	-200.000	-0.009	-0.080
-575.733	280.584	0.013	0.023
-574.719	403.248	-0.117	-0.246
-573.704	800.000	-0.083	-0.282
-572.690	30.117	-0.212	0.181
-571.675	83.066	-0.150	0.163
-570.661	93.215	0.282	0.319
-569.646	62.534	-0.073	0.073
-568.631	800.000	0.040	0.154
-567.617	-114.740	0.387	-0.074
-566.602	-191.695	-0.097	0.001
-565.588	-81.948	0.034	-0.011
-564.573	800.000	-0.045	-0.132
-563.558	800.000	-0.057	0.193
-562.544	65.592	-0.039	0.040
-561.529	635.179	-0.140	-0.356
-560.515	-150.268	0.180	-0.014
-559.500	196.810	-0.090	-0.137
-558.485	-129.478	-0.259	0.036
-557.471	15.760	-0.266	-0.209
-556.456	103.495	-0.221	-0.259
-555.442	-88.050	-0.090	-0.027
-554.427	800.000	-0.047	-0.178
-553.412	225.650	-0.297	-0.482
-552.398	-200.000	0.016	0.314
-551.383	-200.000	-0.004	-0.076
-550.369	-95.418	-0.269	0.072
-549.354	-65.735	-0.203	0.081
-548.339	-131.367	-0.146	0.019
-547.325	-23.811	0.111	-0.066
-546.310	531.305	0.072	-0.171
-545.296	-200.000	0.071	-0.333
-544.281	-0.345	0.186	-0.132
-543.266	-75.607	-0.362	-0.128
-542.252	-140.202	0.299	0.031
-541.237	23.845	-0.320	0.264
-540.223	137.380	-0.240	-0.314
-539.208	448.917	0.106	-0.233
-538.193	530.126	-0.077	-0.181
-537.179	-200.000	-0.013	-0.476
-536.164	-200.000	0.021	-0.321
-535.150	800.000	0.027	0.103
-534.135	93.991	-0.140	0.158
-533.121	135.629	-0.042	-0.055
-532.106	223.924	0.089	0.144
-531.091	153.454	0.182	0.249
-530.077	-32.333	0.102	-0.057
-529.062	43.001	-0.023	0.021
-528.048	-200.000	0.040	0.220
-527.033	800.000	0.053	-0.208
-526.018	-200.000	0.023	0.194
-525.004	-31.043	0.214	0.120
-523.989	324.222	-0.030	0.057
-522.975	-128.287	0.118	0.017
-521.960	79.121	0.037	0.040
-520.945	330.657	0.048	-0.092
-519.931	-82.945	0.029	-0.009
-518.916	440.399	0.041	-0.089
-517.902	59.291	-0.169	0.166
-516.887	-200.000	-0.052	0.248
-515.872	800.000	-0.031	-0.088
-514.858	83.067	0.233	0.253
-513.843	800.000	0.123	0.348
-512.829	800.000	-0.015	0.050
-511.814	-134.174	-0.207	-0.025
-510.799	274.773	0.031	-0.054
-509.785	800.000	-0.068	-0.248
-508.770	-120.569	-0.075	0.013
-507.756	-100.692	-0.306	0.075
-506.741	-155.495	0.139	-0.009
-505.726	-9.365	0.306	0.204
-504.712	98.718	-0.077	-0.089
-503.697	800.000	0.104	-0.309
-502.683	-72.799	0.284	-0.104
-501.668	734.880	-0.122	-0.326
-500.653	17.998	-0.115	0.091
-499.639	270.929	0.103	-0.181
-498.624	57.691	0.104	0.102
-497.610	-1.472	0.243	-0.171
-496.595	-37.848	0.233	-0.123
-495.581	23.254	0.073	-0.060
-494.566	-140.938	-0.289	-0.030
-493.551	-50.918	-0.067	0.031
-492.537	173.478	0.062	0.089
-491.522	74.319	0.192	-0.202
-490.508	-200.000	0.044	0.254
-489.493	-83.863	-0.371	-0.118
-488.478	-64.970	0.379	0.153
-487.464	-184.797	-0.201	-0.003
-486.449	-33.356	-0.186	-0.103
-485.435	715.739	-0.040	0.106
-484.420	-113.760	0.144	0.028
-483.405	107.194	-0.230	0.273
-482.391	-122.971	-0.274	0.044
-481.376	29.995	-0.096	0.081
-480.362	127.979	-0.134	0.171
-479.347	-38.953	0.124	-0.065
-478.332	-65.714	0.115	-0.046
-477.318	326.554	0.062	-0.119
-476.303	-12.678	0.253	0.165
-475.289	-11.051	0.100	0.066
-474.274	116.155	-0.252	0.307
-473.259	-17.460	0.130	0.082
-472.245	9.299	0.161	-0.121
-471.230	-44.217	0.044	-0.022
-470.216	-200.000	0.008	-0.177
-469.201	69.847	-0.151	-0.155
-468.186	-13.043	0.023	-0.015
-467.172	-54.562	-0.126	-0.057
-466.157	-87.674	0.268	0.081
-465.143	-150.406	-0.197	0.015
-464.128	166.975	0.014	-0.020
-463.113	-77.131	0.509	0.177
-462.099	-2.412	-0.204	0.143
-461.084	136.402	0.116	0.150
-460.070	-200.000	0.017	-0.271
-459.055	80.931	0.064	-0.069
-458.040	-200.000	-0.010	-0.234
-457.026	42.152	0.247	-0.224
-456.011	800.000	0.045	-0.188
-454.997	-30.626	-0.193	-0.109
-453.982	171.320	-0.239	0.341
-452.968	-105.295	-0.281	-0.064
-451.953	106.786	-0.045	0.053
-450.938	800.000	-0.063	0.185
-449.924	775.703	0.037	-0.101
-448.909	79.265	0.148	-0.158
-447.895	-200.000	0.058	0.330
-446.880	800.000	-0.084	-0.304
-445.865	3.411	-0.179	-0.130
-444.851	800.000	0.080	0.271
-443.836	-138.770	-0.105	0.011
-442.822	800.000	0.039	0.157
-441.807	195.855	0.185	0.280
-440.792	-200.000	0.077	-0.388
-439.778	-85.418	0.187	0.058
-438.763	-200.000	0.039	0.396
-437.749	-140.647	-0.350	-0.036
-436.734	-28.635	0.172	0.099
-435.719	-101.258	-0.182	0.044
-434.705	-200.000	0.041	0.347
-433.690	378.318	0.067	-0.136
-432.676	19.728	0.094	-0.075
-431.661	62.653	0.151	0.150
-430.646	-36.501	-0.253	-0.136
-429.632	104.843	0.116	-0.136
-428.617	15.029	0.120	0.093
-427.603	-200.000	-0.042	0.616
-426.588	117.697	0.112	0.138
-425.573	-41.762	-0.057	-0.029
-424.559	541.016	-0.087	0.207
-423.544	3.762	-0.040	0.029
-422.530	-113.873	0.183	0.035
-421.515	-51.845	-0.252	0.117
-420.500	-66.191	-0.329	-0.130
-419.486	-200.000	-0.001	0.167
-418.471	556.775	0.096	0.230
-417.457	-149.546	-0.233	-0.018
-416.442	81.138	0.103	-0.111
-415.428	-17.767	-0.239	-0.149
-414.413	25.458	0.123	-0.102
-413.398	29.327	0.245	-0.207
-412.384	-99.709	0.169	-0.042
-411.369	157.324	0.065	-0.090
-410.355	1.839	0.231	0.165
-409.340	-83.928	-0.094	0.030
-408.325	217.088	-0.114	-0.180
-407.311	-200.000	-0.015	-0.467
-406.296	532.042	0.156	-0.367
-405.282	-40.429	0.106	0.055
-404.267	-200.000	-0.079	0.572
-403.252	-122.406	0.101	0.016
-402.238	719.444	-0.015	-0.040
-401.223	37.506	0.161	-0.142
-400.209	-59.821	0.205	-0.087
-399.194	21.062	0.018	0.015
-398.179	25.711	-0.415	0.343
-397.165	-200.000	-0.005	-0.023
-396.150	-94.817	-0.327	-0.088
-395.136	28.883	-0.103	0.086
-394.121	-200.000	-0.032	-0.248
-393.106	800.000	-0.096	-0.289
-392.092	-24.969	0.175	0.103
-391.077	-200.000	0.000	0.217
-390.063	466.254	-0.008	0.017
-389.048	800.000	-0.039	-0.121
-388.033	-37.223	0.085	0.045
-387.019	443.144	0.023	0.050
-386.004	-49.300	-0.267	0.127
-384.990	2.412	-0.198	0.142
-383.975	-200.000	0.012	-0.210
-382.960	-200.000	-0.017	0.250
-381.946	-200.000	0.026	-0.312
-380.931	-84.743	0.193	0.060
-379.917	-54.030	0.078	0.035
-378.902	4.639	-0.087	0.064
-377.888	359.388	0.049	0.098
-376.873	173.986	-0.395	0.567
-375.858	171.302	0.157	0.223
-374.844	-200.000	0.008	-0.072
-373.829	500.958	0.089	0.204
-372.815	800.000	-0.032	0.136
-371.800	357.067	0.183	0.363
-370.785	34.856	-0.195	-0.169
-369.771	7.377	-0.120	-0.089
-368.756	-36.997	0.144	-0.077
-367.742	-200.000	-0.028	-0.688
-366.727	-43.015	0.298	0.150
-365.712	800.000	-0.073	0.240
-364.698	-63.846	0.159	0.065
-363.683	-37.188	0.279	0.148
-362.669	214.520	0.160	-0.252
-361.654	-200.000	-0.021	0.101
-360.639	15.681	-0.277	0.216
-359.625	-200.000	0.001	-0.038
-358.610	-155.616	-0.232	0.015
-357.596	-130.537	0.112	0.015
-356.581	4.868	0.144	0.105
-355.566	-200.000	0.065	-0.326
-354.552	298.117	-0.106	-0.194
-353.537	-129.436	-0.333	0.046
-352.523	476.099	0.028	0.063
-351.508	-200.000	0.042	-0.191
-350.493	545.995	0.053	-0.126
-349.479	-15.972	-0.072	0.046
-348.464	3.503	0.255	0.185
-347.450	-194.796	0.221	-0.002
-346.435	-91.741	-0.127	-0.036
-345.420	-200.000	-0.007	-0.216
-344.406	800.000	-0.093	0.303
-343.391	325.220	0.149	0.282
-342.377	-200.000	0.013	-0.193
-341.362	-200.000	-0.028	-0.266
-340.348	313.931	0.100	-0.186
-339.333	-4.633	-0.149	-0.102
-338.318	-52.480	0.234	-0.108
-337.304	-9.968	0.238	-0.157
-336.289	800.000	-0.087	-0.255
-335.275	102.885	0.256	-0.298
-334.260	800.000	0.078	0.282
-333.245	-118.785	0.163	0.028
-332.231	-183.175	-0.141	0.002
-331.216	-0.570	0.106	-0.075
-330.202	-200.000	-0.012	-0.115
-329.187	800.000	0.052	-0.222
-328.172	-200.000	0.024	-0.161
-327.158	-200.000	-0.023	0.485
-326.143	800.000	0.016	-0.049
-325.129	134.552	-0.144	0.185
-324.114	800.000	-0.027	0.118
-323.099	421.880	0.151	-0.322
-322.085	-101.403	-0.023	0.006
-321.070	404.895	0.012	-0.026
-320.056	14.461	-0.085	-0.066
-319.041	778.905	0.041	0.110
-318.026	-129.183	0.370	0.051
-317.012	188.273	-0.092	0.136
-315.997	240.685	0.148	0.244
-314.983	-88.759	-0.180	-0.053
-313.968	252.293	0.100	0.169
-312.953	-200.000	-0.007	0.173
-311.939	800.000	0.041	0.136
-310.924	99.722	-0.245	0.281
-309.910	3.431	0.211	0.152
-308.895	168.962	-0.109	-0.154
-307.880	185.110	0.080	-0.118
-306.866	497.044	-0.151	-0.345
-305.851	658.239	0.054	-0.137
-304.837	-39.384	-0.038	-0.020
-303.822	158.449	0.066	0.090
-302.807	393.141	-0.070	0.143
-301.793	-81.511	-0.048	-0.016
-300.778	53.315	0.261	0.248
-299.764	-200.000	-0.030	-0.138
-298.749	-19.437	-0.418	-0.256
-297.735	318.669	0.117	0.219
-296.720	-7.278	-0.260	0.174
-295.705	-80.860	0.205	0.067
-294.691	-200.000	-0.034	0.295
-293.676	0.979	0.121	0.086
-292.662	800.000	-0.127	0.365
-291.647	-71.447	0.292	-0.108
-290.632	-200.000	0.001	-0.109
-289.618	222.313	0.117	-0.187
-288.603	73.944	-0.254	-0.263
-287.589	-74.312	-0.147	0.053
-286.574	-129.627	0.146	0.020
-285.559	-97.083	-0.124	0.032
-284.545	63.695	-0.383	-0.381
-283.530	-192.067	-0.211	0.002
-282.516	12.647	-0.175	0.134
-281.501	23.207	0.147	0.120
-280.486	-143.796	0.159	0.015
-279.472	-24.005	0.245	0.145
-278.457	800.000	-0.030	-0.123
-277.443	26.833	0.273	-0.226
-276.428	69.227	-0.072	-0.073
-275.413	590.264	-0.133	0.325
-274.399	-33.128	-0.096	0.053
-273.384	-64.065	-0.259	-0.105
-272.370	192.585	0.070	-0.104
-271.355	800.000	-0.047	0.160
-270.340	-46.530	0.141	0.069
-269.326	-35.903	0.098	0.053
-268.311	-60.998	0.117	0.049
-267.297	-121.172	-0.111	0.018
-266.282	14.665	0.250	0.193
-265.267	-200.000	0.053	0.371
-264.253	-200.000	0.008	0.273
-263.238	276.348	-0.247	0.434
-262.224	-113.134	-0.073	-0.014
-261.209	-66.273	0.226	-0.089
-260.195	800.000	-0.020	0.063
-259.180	-98.457	0.109	0.028
-258.165	385.538	0.114	0.233
-257.151	31.186	0.069	0.059
-256.136	-144.045	0.041	-0.004
-255.122	-55.082	0.268	-0.119
-254.107	800.000	0.046	0.129
-253.092	-27.418	0.253	0.146
-252.078	-23.933	-0.257	0.152
-251.063	10.396	-0.173	-0.130
-250.049	-59.609	-0.254	0.108
-249.034	-15.584	-0.109	-0.069
-248.019	-7.458	-0.242	0.162
-247.005	-86.283	0.185	0.056
-245.990	800.000	-0.095	-0.392
-244.976	-200.000	-0.010	-0.075
-243.961	-112.268	0.245	-0.049
-242.946	4.050	0.124	-0.089
-241.932	-128.617	0.162	0.023
-240.917	62.113	0.111	0.109
-239.903	302.324	-0.075	0.138
-238.888	-46.386	-0.058	0.028
-237.873	103.628	-0.221	0.257
-236.859	-196.020	-0.098	0.001
-235.844	-109.494	0.466	0.097
-234.830	-200.000	0.001	-0.310
-233.815	-200.000	0.048	-0.373
-232.800	139.665	-0.052	-0.067
-231.786	326.694	0.086	0.163
-230.771	-200.000	0.004	0.229
-229.757	-53.017	-0.050	-0.023
-228.742	-95.247	-0.081	0.021
-227.727	7.630	0.183	0.136
-226.713	-161.018	0.190	-0.010
-225.698	551.262	0.185	-0.439
-224.684	35.408	-0.063	-0.055
-223.669	800.000	-0.047	0.145
-222.655	800.000	0.114	0.342
-221.640	-200.000	-0.030	-0.152
-220.625	111.735	0.174	0.208
-219.611	800.000	0.010	0.038
-218.596	-200.000	0.034	0.277
-217.582	54.726	-0.188	0.179
-216.567	15.920	0.206	0.160
-215.552	8.996	0.181	0.135
-214.538	-73.248	0.183	-0.066
-213.523	-200.000	0.013	0.209
-212.509	-86.407	-0.306	-0.093
-211.494	-141.154	-0.175	0.018
-210.479	-0.147	-0.288	-0.202
-209.465	34.037	0.260	0.223
-208.450	-94.886	-0.247	-0.066
-207.436	528.058	-0.180	0.419
-206.421	-111.727	0.168	0.033
-205.406	441.026	-0.121	0.260
-204.392	800.000	0.145	-0.407
-203.377	160.902	0.284	-0.392
-202.363	-42.340	0.035	0.018
-201.348	800.000	0.013	-0.040
-200.333	-3.538	-0.310	-0.213
-199.319	-200.000	0.006	0.044
-198.304	-200.000	-0.025	0.193
-197.290	-44.794	0.102	0.050
-196.275	800.000	0.046	-0.135
-195.260	-200.000	0.000	0.059
-194.246	-200.000	0.005	0.190
-193.231	-53.063	0.110	0.050
-192.217	104.518	0.121	0.140
-191.202	76.923	0.229	-0.239
-190.187	800.000	0.008	-0.021
-189.173	-200.000	0.038	0.299
-188.158	-128.339	-0.306	-0.043
-187.144	427.721	0.185	0.393
-186.129	-200.000	0.032	-0.256
-185.114	-142.740	0.192	-0.018
-184.100	-144.778	0.298	-0.027
-183.085	-34.671	-0.465	0.251
-182.071	800.000	0.037	0.115
-181.056	-200.000	0.015	0.120
-180.042	126.362	0.090	-0.112
-179.027	-29.900	0.165	-0.093
-178.012	-200.000	-0.023	-0.145
-176.998	-200.000	-0.004	0.030
-175.983	621.101	-0.078	-0.195
-174.969	800.000	0.039	-0.141
-173.954	-200.000	-0.001	0.116
-172.939	-40.295	0.177	-0.091
-171.925	-100.354	0.259	0.063
-170.910	-200.000	-0.014	-0.088
-169.896	-200.000	-0.055	0.248
-168.881	26.635	0.228	-0.188
-167.866	607.713	-0.098	-0.241
-166.852	-50.930	-0.281	-0.130
-165.837	-128.102	-0.042	0.006
-164.823	-100.135	0.140	0.034
-163.808	-200.000	-0.018	-0.403
-162.793	96.891	-0.120	-0.136
-161.779	-70.862	-0.152	-0.056
-160.764	539.130	-0.045	-0.105
-159.750	579.472	0.066	0.158
-158.735	-67.281	-0.283	0.110
-157.720	64.158	0.048	0.048
-156.706	-38.422	0.134	0.070
-155.691	-166.329	-0.123	-0.005
-154.677	-84.301	-0.095	-0.030
-153.662	-39.587	-0.313	0.162
-152.647	76.579	0.086	-0.090
-151.633	-49.764	-0.193	0.090
-150.618	65.867	-0.120	-0.120
-149.604	-156.835	0.234	0.014
-148.589	800.000	-0.079	0.291
-147.574	-159.332	-0.376	0.021
-146.560	3.921	0.190	-0.137
-145.545	-57.192	0.055	-0.024
-144.531	24.072	-0.267	-0.217
-143.516	-200.000	0.007	0.075
-142.502	-116.277	0.323	-0.059
-141.487	612.818	-0.007	0.018
-140.472	35.217	-0.110	-0.095
-139.458	-200.000	0.022	0.114
-138.443	-200.000	0.036	0.305
-137.429	203.177	0.071	-0.108
-136.414	195.509	-0.184	-0.275
-135.399	228.538	0.148	-0.237
-134.385	-200.000	0.022	-0.386
-133.370	-62.119	0.147	-0.060
-132.356	415.087	-0.120	0.251
-131.341	49.964	-0.070	0.065
-130.326	220.187	0.101	-0.159
-129.312	-200.000	-0.029	0.233
-128.297	146.253	0.150	0.199
-127.283	-42.349	0.240	0.120
-126.268	-37.421	0.224	0.118
-125.253	108.861	-0.146	-0.172
-124.239	-78.283	-0.481	0.162
-123.224	-200.000	0.022	0.292
-122.210	-78.620	-0.216	0.073
-121.195	-63.952	-0.178	-0.071
-120.180	-88.866	-0.501	-0.146
-119.166	-116.689	-0.248	-0.045
-118.151	112.786	0.238	-0.284
-117.137	122.719	0.346	-0.425
-116.122	6.149	0.139	-0.102
-115.107	133.405	-0.152	0.193
-114.093	-126.752	0.134	0.020
-113.078	153.488	-0.278	0.374
-112.064	800.000	-0.099	0.320
-111.049	-200.000	-0.044	0.415
-110.034	167.186	-0.100	0.139
-109.020	5.961	0.218	-0.158
-108.005	-200.000	0.028	-0.150
-106.991	156.375	0.142	-0.193
-105.976	-66.381	0.319	-0.124
-104.962	-118.922	0.076	0.013
-103.947	-200.000	-0.083	-0.540
-102.932	-65.016	-0.095	-0.038
-101.918	237.122	0.072	0.117
-100.903	75.729	-0.081	0.085
-99.889	-28.927	-0.229	0.129
-98.874	-59.645	0.113	0.047
-97.859	-200.000	0.059	0.407
-96.845	44.658	0.261	0.236
-95.830	-58.571	-0.094	-0.040
-94.816	98.775	0.092	-0.104
-93.801	428.634	0.142	0.302
-92.786	13.794	0.144	0.110
-91.772	102.168	0.072	0.083
-90.757	-176.305	0.223	0.006
-89.743	-25.547	-0.354	0.205
-88.728	-13.140	0.060	-0.039
-87.713	-87.656	0.132	0.039
-86.699	226.139	0.141	0.224
-85.684	-200.000	-0.009	-0.369
-84.670	-55.237	-0.049	0.021
-83.655	43.237	-0.187	-0.168
-82.640	249.454	0.134	-0.222
-81.626	800.000	-0.047	-0.170
-80.611	209.836	0.187	0.288
-79.597	271.169	0.109	0.189
-78.582	-59.900	0.276	-0.116
-77.567	94.815	0.184	-0.205
-76.553	-154.579	0.233	0.015
-75.538	246.938	0.192	-0.318
-74.524	-155.903	-0.139	-0.009
-73.509	-200.000	-0.022	0.106
-72.494	800.000	-0.134	-0.429
-71.480	-95.995	0.264	-0.069
-70.465	-24.935	0.243	-0.142
-69.451	-69.911	0.349	0.131
-68.436	-200.000	-0.019	0.133
-67.422	-119.368	-0.136	0.023
-66.407	-200.000	-0.019	0.121
-65.392	-87.783	0.232	0.069
-64.378	-62.732	0.169	0.069
-63.363	370.973	-0.095	0.190
-62.349	-200.000	0.011	-0.064
-61.334	94.979	-0.969	-1.083
-60.319	154.447	0.460	0.620
-59.305	800.000	-0.246	-0.831
-58.290	722.562	0.512	1.337
-57.276	723.053	0.700	1.828
-56.261	-200.000	111.852	638.541
-55.246	461.425	1511.228	3305.404
-54.232	145.226	2682.263	3520.892
-53.217	105.587	2178.966	2526.240
-52.203	39.238	1709.495	1500.442
-51.188	31.948	1526.546	1289.913
-50.173	29.458	1502.221	1252.440
-49.159	52.168	1558.723	1457.099
-48.144	52.192	1574.373	1471.836
-47.130	32.196	1530.392	1294.667
-46.115	28.898	1516.435	1260.248
-45.100	28.797	1512.850	1256.529
-44.086	28.852	1510.262	1254.702
-43.071	28.774	1508.226	1252.431
-42.057	28.676	1507.002	1250.703
-41.042	28.693	1505.410	1249.441
-40.027	28.711	1504.123	1248.449
-39.013	28.623	1502.878	1246.770
-37.998	28.642	1501.899	1246.038
-36.984	28.636	1500.889	1245.105
-35.969	28.698	1499.107	1243.998
-34.954	28.598	1497.863	1242.241
-33.940	28.654	1496.152	1241.152
-32.925	28.609	1494.970	1239.818
-31.911	28.715	1493.307	1239.103
-30.896	28.703	1492.785	1238.541
-29.881	28.770	1490.800	1237.300
-28.867	28.831	1489.388	1236.484
-27.852	28.670	1488.860	1234.918
-26.838	28.757	1487.077	1233.975
-25.823	28.675	1485.599	1232.145
-24.809	28.688	1484.142	1230.979
-23.794	28.731	1483.080	1230.332
-22.779	28.721	1481.506	1228.916
-21.765	28.677	1481.031	1228.179
-20.750	28.724	1479.167	1226.896
-19.736	28.810	1478.182	1226.601
-18.721	28.706	1477.259	1225.095
-17.706	28.632	1476.717	1224.103
-16.692	28.679	1474.780	1222.763
-15.677	28.719	1473.858	1222.215
-14.663	28.655	1473.163	1221.164
-13.648	28.608	1472.321	1220.107
-12.633	28.728	1471.100	1219.843
-11.619	28.715	1470.242	1218.999
-10.604	28.727	1469.140	1218.117
-9.590	28.691	1468.257	1217.096
-8.575	28.712	1467.145	1216.267
-7.560	28.751	1466.394	1215.855
-6.546	28.644	1465.412	1214.280
-5.531	28.700	1464.583	1213.919
-4.517	28.700	1463.644	1213.091
-3.502	28.784	1462.489	1212.642
-2.487	28.675	1461.734	1211.247
-1.473	28.712	1460.325	1210.275
-0.458	28.699	1459.112	1209.138
0.556	26.930	1449.232	1197.155
1.571	23.598	1423.635	1154.268
2.586	19.766	1360.932	1079.463
3.600	17.788	1277.035	1001.225
4.615	16.705	1232.512	960.097
5.629	14.539	1176.339	904.522
6.644	7.468	1092.070	803.940
7.659	1.325	1052.931	744.985
8.673	0.287	1047.866	736.264
9.688	0.143	1044.125	732.869
10.702	0.023	1042.694	731.217
11.717	0.087	1040.715	730.077
12.731	2.535	1042.264	742.982
13.746	10.081	1053.200	787.591
14.761	16.255	1060.790	823.405
15.775	17.311	1061.235	828.825
16.790	16.549	1059.177	823.435
17.804	15.590	1056.922	816.951
18.819	14.713	1055.167	811.264
19.834	14.236	1053.957	807.947
20.848	13.980	1052.745	805.702
21.863	13.734	1051.827	803.740
22.877	13.494	1050.929	801.818
23.892	13.230	1050.555	800.186
24.907	13.097	1049.906	798.977
25.921	13.166	1048.802	798.396
26.936	13.233	1048.280	798.253
27.950	13.298	1047.473	797.881
28.965	13.382	1046.782	797.690
29.980	13.428	1045.655	796.981
30.994	13.382	1045.547	796.610
32.009	13.449	1044.354	795.951
33.023	13.385	1043.794	795.148
34.038	13.518	1042.810	794.963
35.053	13.497	1041.667	793.921
36.067	13.435	1040.726	792.838
37.082	13.330	1040.305	791.943
38.096	13.469	1039.263	791.745
39.111	13.425	1038.424	790.825
40.126	13.419	1037.917	790.339
41.140	13.356	1036.754	789.083
42.155	13.229	1035.550	787.492
43.169	13.250	1034.796	786.953
44.184	13.267	1033.904	786.283
45.199	13.094	1032.968	784.683
46.213	13.231	1031.914	784.463
47.228	13.234	1030.803	783.559
48.242	13.260	1029.623	782.716
49.257	13.319	1028.696	782.225
50.271	13.424	1027.596	781.811
51.286	13.382	1027.191	781.237
52.301	13.330	1026.307	780.249
53.315	13.317	1025.395	779.428
54.330	13.387	1024.523	779.027
55.344	13.304	1023.835	778.042
56.359	13.252	1022.842	776.975
57.374	13.388	1021.684	776.666
58.388	13.307	1020.731	775.493
59.403	13.275	1020.267	774.921
60.417	13.249	1019.362	774.046
61.432	13.262	1018.762	773.580
62.447	13.164	1018.308	772.710
63.461	13.180	1017.539	772.130
64.476	13.097	1016.498	770.885
65.490	13.137	1015.889	770.540
66.505	13.080	1015.329	769.782
67.520	13.180	1014.278	769.386
68.534	13.171	1013.526	768.704
69.549	13.293	1012.627	768.519
70.563	13.169	1011.837	767.277
71.578	13.122	1011.506	766.741
72.593	13.114	1010.414	765.808
73.607	13.169	1009.207	765.079
74.622	13.100	1008.141	763.884
75.636	13.153	1007.319	763.439
76.651	13.116	1006.802	762.807
77.666	13.054	1005.992	761.841
78.680	13.177	1004.857	761.483
79.695	13.136	1004.683	761.094
80.709	13.177	1003.868	760.596
81.724	13.150	1003.408	760.059
82.739	13.256	1002.389	759.705
83.753	13.266	1001.701	759.161
84.768	13.229	1001.018	758.409
85.782	13.281	1000.207	757.966
86.797	13.348	999.507	757.675
87.812	13.262	998.726	756.623
88.826	13.270	997.851	755.928
89.841	13.307	996.706	755.163
90.855	13.357	996.454	755.134
91.870	13.254	995.808	754.109
92.884	13.388	994.669	753.788
93.899	13.376	994.241	753.343
94.914	13.441	993.298	752.857
95.928	13.448	992.709	752.378
96.943	13.426	991.773	751.501
97.957	13.504	990.963	751.174
98.972	13.387	990.045	749.883
99.987	13.368	989.988	749.687
101.001	13.483	988.808	749.247
102.016	13.562	987.761	748.746
103.030	13.382	986.732	747.087
104.045	13.358	986.183	746.494
105.060	13.432	985.357	746.139
106.074	13.447	983.839	744.988
107.089	13.297	983.130	743.712
108.103	13.251	982.477	742.944
109.118	13.241	981.468	742.073
110.133	13.172	981.106	741.423
111.147	13.343	979.707	741.065
112.162	13.246	979.379	740.319
113.176	13.315	978.147	739.631
114.191	13.353	977.371	739.147
115.206	13.345	976.411	738.319
116.220	13.312	975.908	737.728
117.235	13.372	974.681	737.004
118.249	13.413	973.791	736.448
119.264	13.378	972.731	735.426
120.279	13.325	971.979	734.553
121.293	13.367	971.184	734.075
122.308	13.215	970.661	732.943
123.322	13.162	969.812	732.002
124.337	13.213	968.597	731.245
125.352	13.250	967.519	730.528
126.366	13.186	966.687	729.552
127.381	13.290	965.094	728.746
128.395	13.186	964.666	727.900
129.410	13.156	964.112	727.286
130.424	13.236	962.493	726.351
131.439	13.229	961.874	725.791
132.454	13.284	961.014	725.318
133.468	13.354	960.223	724.963
134.483	13.297	959.864	724.379
135.497	13.254	959.023	723.494
136.512	13.333	958.209	723.158
137.527	13.245	957.883	722.466
138.541	13.339	956.931	722.092
139.556	13.289	955.833	720.983
140.570	13.121	955.533	719.962
141.585	13.403	954.467	720.320
142.600	13.364	953.991	719.728
143.614	13.500	952.870	719.408
144.629	13.574	952.243	719.193
145.643	13.608	951.357	718.609
146.658	13.565	950.731	717.886
147.673	13.519	949.793	716.915
148.687	13.477	948.804	715.923
149.702	13.399	947.844	714.798
150.716	13.423	947.180	714.340
151.731	13.406	946.672	713.820
152.746	13.448	945.627	713.150
153.760	13.363	945.150	712.358
154.775	13.431	944.442	712.055
155.789	13.408	943.779	711.396
156.804	13.662	942.416	711.395
157.819	13.617	941.635	710.547
158.833	13.644	941.255	710.315
159.848	13.634	940.650	709.753
160.862	13.666	939.502	708.959
161.877	13.678	939.131	708.667
162.892	13.517	938.649	707.552
163.906	13.521	937.216	706.427
164.921	13.426	936.472	705.402
165.935	13.506	935.668	705.073
166.950	13.516	934.822	704.416
167.964	13.688	934.092	704.536
168.979	13.704	932.641	703.444
169.994	13.564	932.327	702.552
171.008	13.391	931.732	701.307
172.023	13.636	930.281	701.190
173.037	13.627	929.680	700.638
174.052	13.627	929.072	700.119
175.067	13.702	928.595	700.014
176.081	13.621	927.731	698.958
177.096	13.699	926.679	698.433
178.110	13.676	925.552	697.426
179.125	13.693	925.353	697.282
180.140	13.670	924.488	696.473
181.154	13.720	923.578	695.937
182.169	13.797	922.825	695.633
183.183	13.617	922.730	694.745
184.198	13.859	921.410	694.699
185.213	13.819	921.253	694.352
186.227	13.797	920.537	693.661
187.242	13.815	919.889	693.185
188.256	13.831	919.458	692.864
189.271	13.857	918.773	692.397
190.286	13.974	917.671	691.992
191.300	13.912	916.926	691.113
192.315	13.653	916.506	689.658
193.329	13.672	915.667	689.042
194.344	13.704	914.970	688.593
195.359	13.703	914.286	688.011
196.373	13.686	913.896	687.588
197.388	13.885	913.666	688.179
198.402	13.886	912.496	687.239
199.417	14.053	912.167	687.622
200.432	14.110	911.854	687.558
201.446	14.031	911.460	686.877
202.461	14.109	910.896	686.714
203.475	14.152	910.179	686.289
204.490	14.184	909.958	686.195
205.504	14.261	908.597	685.421
206.519	14.045	908.325	684.268
207.534	13.982	907.547	683.363
208.548	14.056	906.195	682.589
209.563	14.099	906.073	682.613
210.577	14.053	905.390	681.849
211.592	14.107	904.737	681.519
212.607	14.171	903.891	681.080
213.621	14.322	903.837	681.598
214.636	14.255	902.309	680.112
215.650	14.169	902.328	679.715
216.665	14.258	901.781	679.607
217.680	14.213	901.369	679.051
218.694	14.328	900.773	679.013
219.709	14.203	900.501	678.236
220.723	14.395	899.420	678.144
221.738	14.287	898.534	676.980
222.753	14.308	898.001	676.602
223.767	14.298	897.888	676.417
224.782	14.291	896.805	675.512
225.796	14.396	895.842	675.153
226.811	14.434	895.244	674.795
227.826	14.498	894.235	674.236
228.840	14.490	893.718	673.751
229.855	14.381	892.912	672.644
230.869	14.613	892.223	673.003
231.884	14.443	892.121	672.182
232.899	14.495	890.877	671.393
233.913	14.453	890.033	670.528
234.928	14.423	889.528	669.970
235.942	14.246	889.532	669.201
236.957	14.421	888.127	668.785
237.972	14.378	887.699	668.231
238.986	14.497	886.847	668.008
240.001	14.488	886.671	667.779
241.015	14.448	886.013	667.066
242.030	14.419	885.382	666.415
243.045	14.579	884.448	666.292
244.059	14.704	883.462	665.989
245.074	14.625	882.926	665.214
246.088	14.509	882.786	664.587
247.103	14.596	882.035	664.308
248.117	14.674	881.225	663.949
249.132	14.642	880.729	663.389
250.147	14.694	880.347	663.250
251.161	14.787	879.554	662.964
252.176	14.884	878.595	662.566
253.190	14.956	878.063	662.392
254.205	15.005	877.501	662.101
255.220	14.961	876.978	661.475
256.234	14.860	876.349	660.543
257.249	15.031	875.795	660.742
258.263	14.818	875.878	659.905
259.278	14.962	874.738	659.558
260.293	14.997	873.934	659.031
261.307	15.016	873.735	658.896
262.322	15.071	873.168	658.625
263.336	15.025	872.548	657.920
264.351	15.139	871.811	657.755
265.366	15.118	871.573	657.433
266.380	15.166	870.749	656.943
267.395	15.231	870.005	656.577
268.409	15.202	869.123	655.738
269.424	14.984	868.670	654.488
270.439	15.227	867.760	654.694
271.453	15.186	867.104	653.980
272.468	15.045	866.563	652.965
273.482	15.033	865.861	652.331
274.497	15.096	865.279	652.079
275.512	15.139	864.807	651.833
276.526	15.118	863.930	651.033
277.541	15.124	863.231	650.472
278.555	15.244	862.471	650.306
279.570	15.233	861.897	649.773
280.585	15.420	861.504	650.145
281.599	15.393	860.846	649.489
282.614	15.441	860.388	649.271
283.628	15.275	859.609	647.983
284.643	15.350	859.047	647.790
285.657	15.391	858.456	647.448
286.672	15.279	858.107	646.695
287.687	15.316	857.710	646.479
288.701	15.460	856.930	646.388
289.716	15.355	856.449	645.566
290.730	15.386	855.994	645.285
291.745	15.501	855.125	645.015
292.760	15.445	854.440	644.225
293.774	15.498	853.835	643.914
294.789	15.610	853.147	643.770
295.803	15.700	852.441	643.525
296.818	15.495	852.079	642.412
297.833	15.541	851.825	642.338
298.847	15.554	850.773	641.537
299.862	15.489	850.188	640.789
300.876	15.469	849.708	640.296
301.891	15.554	848.793	639.876
302.906	15.564	848.261	639.454
303.920	15.682	847.290	639.116
304.935	15.880	846.465	639.187
305.949	15.605	846.623	638.206
306.964	15.728	845.774	637.978
307.979	15.798	845.017	637.613
308.993	15.870	844.483	637.428
310.008	15.780	844.202	636.818
311.022	15.726	843.842	636.285
312.037	15.773	843.217	635.936
313.052	15.801	842.823	635.687
314.066	15.710	842.293	634.890
315.081	15.782	841.165	634.254
316.095	15.839	840.564	633.959
317.110	15.737	840.442	633.425
318.125	15.770	839.819	633.025
319.139	15.801	839.127	632.564
320.154	15.818	838.687	632.242
321.168	15.762	838.138	631.560
322.183	15.709	837.764	631.024
323.197	15.797	837.333	630.972
324.212	15.824	836.589	630.458
325.227	15.788	836.101	629.898
326.241	16.000	835.356	630.077
327.256	15.917	834.925	629.383
328.270	15.930	833.933	628.630
329.285	15.878	833.640	628.159
330.300	15.966	833.120	628.041
331.314	16.118	832.170	627.836
332.329	15.897	832.178	626.962
333.343	15.913	831.520	626.469
334.358	16.000	830.904	626.276
335.373	15.976	830.699	625.975
336.387	15.976	829.953	625.357
337.402	15.994	829.341	624.908
338.416	16.077	828.650	624.640
339.431	16.195	828.066	624.582
340.446	16.382	827.518	624.803
341.460	16.347	826.860	624.121
342.475	16.352	826.376	623.720
343.489	16.216	825.882	622.791
344.504	16.346	825.250	622.739
345.519	16.363	824.718	622.342
346.533	16.364	824.374	622.033
347.548	16.416	823.914	621.821
348.562	16.462	823.201	621.397
349.577	16.266	822.823	620.339
350.592	16.216	822.272	619.685
351.606	16.246	821.966	619.507
352.621	16.337	821.551	619.474
353.635	16.275	821.108	618.858
354.650	16.366	820.307	618.533
355.665	16.333	820.017	618.138
356.679	16.340	819.671	617.850
357.694	16.445	819.012	617.680
358.708	16.298	818.810	616.936
359.723	16.436	817.757	616.592
360.738	16.405	817.363	616.127
361.752	16.420	817.106	615.937
362.767	16.460	816.559	615.613
363.781	16.638	815.937	615.738
364.796	16.504	815.823	615.109
365.810	16.668	815.040	615.061
366.825	16.646	814.736	614.697
367.840	16.649	814.612	614.560
368.854	16.752	814.199	614.566
369.869	16.764	813.514	614.040
370.883	16.562	813.198	613.017
371.898	16.661	812.602	612.871
372.913	16.696	811.721	612.278
373.927	16.783	811.413	612.306
374.942	16.788	810.598	611.657
375.956	16.800	809.739	610.997
376.971	16.941	809.215	611.056
377.986	17.014	808.349	610.610
379.000	16.947	808.079	610.112
380.015	16.898	808.221	609.987
381.029	16.912	807.455	609.405
382.044	16.889	806.826	608.793
383.059	17.013	805.982	608.547
384.073	16.944	805.859	608.152
385.088	16.990	805.428	607.941
386.102	16.993	804.906	607.503
387.117	16.953	803.975	606.602
388.132	16.877	803.936	606.247
389.146	16.934	803.118	605.781
390.161	16.931	803.270	605.830
391.175	16.991	802.492	605.405
392.190	16.972	802.308	605.145
393.205	16.921	801.706	604.456
394.219	16.993	801.169	604.252
395.234	17.015	800.774	603.979
396.248	17.102	799.947	603.614
397.263	17.071	799.654	603.229
398.278	17.000	799.029	602.451
399.292	17.043	798.819	602.392
400.307	16.950	798.764	601.967
401.321	16.921	798.176	601.369
402.336	17.128	797.488	601.529
403.350	17.287	797.082	601.735
404.365	17.032	797.009	600.722
405.380	17.050	796.591	600.418
406.394	17.213	795.748	600.306
407.409	17.133	795.526	599.802
408.423	17.092	794.998	599.207
409.438	17.298	794.370	599.406
410.453	17.349	793.872	599.155
411.467	17.328	793.776	598.958
412.482	17.391	793.182	598.680
413.496	17.477	792.583	598.477
414.511	17.461	792.172	598.056
415.526	17.422	791.985	597.724
416.540	17.368	791.804	597.345
417.555	17.380	791.391	597.025
418.569	17.523	790.527	596.821
419.584	17.385	790.275	596.095
420.599	17.432	789.849	595.883
421.613	109.986	1292.607	1472.996
422.628	94.390	1365.849	1473.101
