DTS Sentinel unit serial number:	SN413079Multiplexer serial number:	ORYXHardware model number:	OX4-SRSoftware version number:	ORYX F/W v4.00 Oryx Data Collector v3.7.2.0data status	okinstallation	princeton_trtdifferential loss correction	single-endedforward channel	channel 3reverse channel	N/Adate	2019/09/16time	00:52:35forward acquisition time	60.00reverse acquisition time	0.00gamma	496.2192k internal	0.2338k external	0.2338temperature offset calibration	0.9953default loss term (dB/km)	0.3790temperature slope calibration	1.0000multiplexer offset coefficient	1.0000multiplexer slope coefficient	1.0000fibre end	0.00T internal ref (°C)	27.37T ext. ref 1 (°C)	9.70T ext. ref 2 (°C)	21.42length (m)	temperature (°C)	Stokes	anti-Stokes-747.200	-200.000	-0.042	0.212
-746.185	-56.531	-0.174	-0.077
-745.171	-200.000	-0.019	-0.457
-744.156	-174.254	-0.336	0.010
-743.142	-200.000	-0.057	0.259
-742.127	-35.745	-0.429	0.233
-741.112	238.590	-0.195	-0.326
-740.098	-200.000	-0.005	-0.062
-739.083	54.391	-0.087	-0.084
-738.069	460.495	0.054	-0.120
-737.054	3.677	0.171	0.125
-736.039	-200.000	0.003	-0.140
-735.025	4.533	-0.235	0.173
-734.010	-200.000	-0.005	-0.119
-732.996	800.000	-0.053	0.209
-731.981	-200.000	-0.013	-0.108
-730.966	-200.000	-0.014	-0.236
-729.952	26.421	-0.163	-0.136
-728.937	-97.915	0.150	-0.039
-727.923	204.473	0.062	0.096
-726.908	-121.995	0.113	0.019
-725.894	-200.000	0.064	-0.507
-724.879	800.000	-0.118	-0.368
-723.864	249.688	0.126	-0.215
-722.850	-141.826	-0.311	0.031
-721.835	-200.000	0.005	0.063
-720.821	-48.585	0.139	0.067
-719.806	-3.186	-0.173	-0.121
-718.791	-200.000	-0.018	-0.307
-717.777	268.569	0.070	-0.123
-716.762	-200.000	-0.033	0.171
-715.748	-8.291	-0.168	0.113
-714.733	800.000	-0.118	0.343
-713.718	-200.000	0.097	0.475
-712.704	-200.000	-0.052	0.307
-711.689	800.000	0.099	0.277
-710.675	-46.423	-0.255	0.126
-709.660	-119.959	-0.145	0.025
-708.645	800.000	-0.078	0.307
-707.631	-200.000	0.012	-0.253
-706.616	-57.854	0.093	-0.041
-705.602	95.839	-0.085	-0.098
-704.587	-108.209	0.194	-0.042
-703.572	-132.739	-0.171	-0.022
-702.558	221.740	-0.219	-0.352
-701.543	800.000	-0.093	-0.374
-700.529	-80.984	0.082	-0.027
-699.514	466.280	-0.054	0.121
-698.499	20.724	-0.070	-0.057
-697.485	252.064	0.140	0.238
-696.470	116.417	-0.043	-0.053
-695.456	22.450	0.192	-0.157
-694.441	-200.000	0.040	-0.186
-693.426	-200.000	0.018	-0.128
-692.412	-44.729	-0.047	0.024
-691.397	-58.250	-0.125	-0.055
-690.383	124.949	-0.133	-0.168
-689.368	18.367	-0.076	0.061
-688.354	114.530	0.225	-0.275
-687.339	-200.000	-0.000	-0.070
-686.324	-74.785	-0.091	0.033
-685.310	174.816	0.094	-0.136
-684.295	-121.170	-0.175	-0.029
-683.281	11.133	0.467	-0.358
-682.266	-179.013	-0.102	-0.002
-681.251	30.275	0.081	0.069
-680.237	21.101	-0.177	0.144
-679.222	260.152	0.016	0.028
-678.208	87.146	0.064	-0.071
-677.193	-200.000	-0.042	0.245
-676.178	159.327	-0.080	0.111
-675.164	-33.587	-0.242	-0.134
-674.149	448.724	-0.147	-0.324
-673.135	800.000	-0.074	-0.234
-672.120	-200.000	-0.037	0.162
-671.105	-171.573	0.094	-0.003
-670.091	602.217	0.108	-0.269
-669.076	-39.189	0.136	-0.072
-668.062	-81.002	0.224	0.074
-667.047	-7.012	-0.210	-0.142
-666.032	-133.426	-0.203	-0.026
-665.018	-54.992	0.119	-0.054
-664.003	-136.286	0.186	0.022
-662.989	456.830	-0.053	-0.117
-661.974	209.099	0.111	0.173
-660.959	800.000	-0.020	-0.084
-659.945	-200.000	0.002	-0.399
-658.930	-89.501	0.277	-0.081
-657.916	-92.816	-0.314	-0.088
-656.901	41.830	-0.242	-0.219
-655.886	33.214	-0.137	0.119
-654.872	731.161	-0.081	-0.215
-653.857	800.000	0.012	0.042
-652.843	-200.000	-0.025	0.226
-651.828	-82.471	-0.029	-0.009
-650.814	97.973	-0.231	-0.265
-649.799	800.000	-0.052	0.180
-648.784	-200.000	-0.008	0.092
-647.770	-107.064	0.145	-0.032
-646.755	-121.577	-0.365	0.061
-645.741	-200.000	-0.087	-0.413
-644.726	800.000	0.130	-0.483
-643.711	-59.896	-0.224	-0.096
-642.697	58.615	0.294	0.289
-641.682	39.800	-0.116	0.104
-640.668	-22.852	0.100	-0.060
-639.653	263.208	-0.044	0.077
-638.638	-182.885	-0.298	0.005
-637.624	-46.362	0.469	-0.230
-636.609	134.274	0.259	0.336
-635.595	-85.889	-0.111	-0.034
-634.580	-200.000	0.009	0.146
-633.565	668.333	0.052	0.135
-632.551	-53.626	0.232	0.106
-631.536	-44.593	-0.215	0.107
-630.522	-149.338	0.313	0.025
-629.507	179.821	0.010	0.015
-628.492	17.238	-0.207	0.164
-627.478	692.563	0.032	-0.084
-626.463	328.949	-0.036	-0.068
-625.449	-118.245	0.237	-0.042
-624.434	-34.688	-0.123	-0.067
-623.419	-181.539	-0.340	0.007
-622.405	-124.385	0.510	0.079
-621.390	-179.087	0.170	0.004
-620.376	466.961	0.070	-0.157
-619.361	-38.121	-0.278	-0.147
-618.346	-67.109	-0.192	-0.076
-617.332	-112.092	0.216	-0.043
-616.317	283.510	0.098	-0.175
-615.303	29.185	0.212	-0.180
-614.288	476.402	-0.176	-0.398
-613.273	114.718	-0.213	0.259
-612.259	-20.026	0.154	0.095
-611.244	800.000	-0.026	-0.104
-610.230	189.749	-0.095	-0.142
-609.215	800.000	0.022	-0.087
-608.201	-200.000	-0.045	-0.226
-607.186	-101.128	-0.164	0.040
-606.171	800.000	0.155	0.475
-605.157	-200.000	0.051	0.361
-604.142	800.000	0.059	0.252
-603.128	-87.567	-0.251	0.076
-602.113	-88.682	-0.114	0.034
-601.098	-103.126	0.181	0.043
-600.084	521.560	-0.053	-0.125
-599.069	-36.606	-0.375	0.201
-598.055	4.944	0.243	0.178
-597.040	66.860	-0.170	-0.173
-596.025	-143.402	0.051	-0.005
-595.011	135.205	-0.238	-0.309
-593.996	-200.000	0.032	-0.223
-592.982	0.239	0.137	-0.098
-591.967	381.990	0.142	-0.291
-590.952	-200.000	0.044	0.215
-589.938	24.295	-0.255	-0.210
-588.923	-84.100	-0.213	-0.068
-587.909	610.418	0.126	0.315
-586.894	101.130	0.084	-0.097
-585.879	72.669	-0.149	0.155
-584.865	118.194	0.048	0.059
-583.850	-99.279	-0.103	0.026
-582.836	602.441	-0.083	-0.206
-581.821	-111.652	0.158	-0.032
-580.806	-132.836	-0.186	-0.024
-579.792	619.466	-0.056	0.139
-578.777	-28.005	0.247	-0.143
-577.763	93.668	-0.093	0.105
-576.748	25.826	0.224	-0.186
-575.733	75.472	-0.122	-0.128
-574.719	-200.000	0.001	-0.068
-573.704	19.132	0.141	0.113
-572.690	-200.000	0.053	0.362
-571.675	-28.385	-0.077	0.044
-570.661	393.353	0.264	-0.547
-569.646	27.235	-0.088	-0.074
-568.631	-35.584	-0.214	-0.116
-567.617	-27.644	-0.272	0.157
-566.602	-16.044	-0.149	0.094
-565.588	673.418	0.061	0.158
-564.573	112.259	-0.204	-0.246
-563.558	-100.887	-0.162	0.040
-562.544	-109.314	-0.243	-0.051
-561.529	800.000	-0.028	0.122
-560.515	-200.000	0.015	-0.252
-559.500	744.194	0.052	-0.139
-558.485	-70.672	-0.289	0.109
-557.471	-120.372	0.187	0.032
-556.456	-53.806	0.319	-0.145
-555.442	-36.626	-0.244	0.131
-554.427	800.000	-0.040	0.110
-553.412	-110.864	-0.290	-0.059
-552.398	52.919	0.120	0.114
-551.383	-200.000	-0.056	0.274
-550.369	152.524	-0.130	0.177
-549.354	-172.589	0.099	0.003
-548.339	-200.000	-0.001	-0.086
-547.325	-200.000	-0.029	0.245
-546.310	-200.000	0.023	0.113
-545.296	-69.106	-0.277	-0.106
-544.281	-129.587	0.136	-0.019
-543.266	380.521	-0.101	-0.207
-542.252	-200.000	0.069	0.337
-541.237	118.112	0.122	0.150
-540.223	-200.000	0.003	0.060
-539.208	159.862	-0.029	0.040
-538.193	-15.022	0.228	0.146
-537.179	148.784	0.178	-0.239
-536.164	23.617	0.146	0.120
-535.150	627.227	0.015	-0.039
-534.135	-200.000	0.025	0.158
-533.121	-60.031	-0.179	-0.076
-532.106	98.641	-0.201	-0.230
-531.091	226.571	-0.096	-0.155
-530.077	159.937	-0.140	0.194
-529.062	81.694	0.199	-0.214
-528.048	800.000	0.015	0.060
-527.033	-56.229	0.073	-0.032
-526.018	82.791	0.098	0.106
-525.004	240.573	0.129	0.214
-523.989	466.604	0.140	-0.312
-522.975	-146.895	-0.277	-0.024
-521.960	-126.628	0.266	0.039
-520.945	-0.642	-0.099	-0.070
-519.931	-39.463	-0.323	0.168
-518.916	-75.299	0.260	0.092
-517.902	298.295	0.162	0.296
-516.887	-121.172	-0.469	0.078
-515.872	-44.979	0.456	0.226
-514.858	-73.258	0.226	-0.082
-513.843	-200.000	0.036	0.294
-512.829	-85.904	-0.400	0.123
-511.814	-45.219	-0.116	-0.057
-510.799	145.075	0.191	-0.254
-509.785	133.299	-0.166	-0.213
-508.770	108.204	-0.057	0.067
-507.756	184.266	0.056	0.083
-506.741	21.305	-0.203	-0.164
-505.726	-75.164	0.124	0.044
-504.712	44.862	0.324	-0.297
-503.697	78.765	-0.237	-0.252
-502.683	130.696	-0.197	0.251
-501.668	-168.489	0.189	-0.007
-500.653	375.193	0.099	-0.201
-499.639	216.641	-0.043	0.068
-498.624	-9.074	-0.073	-0.049
-497.610	-10.142	0.288	0.190
-496.595	-200.000	0.020	-0.253
-495.581	800.000	0.098	-0.279
-494.566	-191.222	-0.116	0.001
-493.551	48.259	-0.118	0.109
-492.537	141.379	0.211	-0.277
-491.522	-100.010	-0.239	0.059
-490.508	27.234	-0.093	0.078
-489.493	-117.153	-0.157	0.028
-488.478	-52.822	-0.199	0.091
-487.464	454.495	0.030	0.067
-486.449	37.207	0.232	-0.204
-485.435	31.493	-0.131	-0.112
-484.420	-87.295	-0.244	-0.073
-483.405	-136.221	0.298	0.035
-482.391	13.981	0.229	0.177
-481.376	800.000	0.060	0.229
-480.362	1.680	0.134	-0.096
-479.347	-200.000	0.090	0.503
-478.332	-66.072	-0.363	0.144
-477.318	-85.262	-0.213	0.066
-476.303	-94.077	0.166	-0.045
-475.289	176.142	0.169	-0.243
-474.274	-200.000	-0.066	0.301
-473.259	-46.231	-0.389	-0.190
-472.245	739.449	-0.036	-0.095
-471.230	800.000	-0.086	-0.331
-470.216	774.260	-0.036	-0.098
-469.201	800.000	0.165	0.627
-468.186	-200.000	0.002	0.052
-467.172	123.144	0.149	0.186
-466.157	-157.378	0.312	-0.019
-465.143	-126.745	0.161	-0.024
-464.128	98.155	-0.204	-0.234
-463.113	-106.180	-0.060	0.013
-462.099	-20.802	0.163	-0.099
-461.084	-200.000	-0.003	-0.501
-460.070	800.000	0.056	-0.155
-459.055	67.806	-0.270	0.274
-458.040	29.214	0.344	-0.289
-457.026	778.868	-0.076	-0.207
-456.011	-200.000	0.001	0.180
-454.997	-45.289	-0.081	0.040
-453.982	800.000	-0.009	0.029
-452.968	-35.343	0.072	-0.039
-451.953	-152.187	0.099	-0.007
-450.938	-31.096	-0.327	-0.183
-449.924	218.074	0.100	-0.158
-448.909	25.282	-0.242	0.199
-447.895	-100.076	0.297	0.073
-446.880	166.377	-0.233	0.328
-445.865	-180.985	-0.104	-0.002
-444.851	-39.462	-0.114	-0.059
-443.836	152.290	0.175	0.236
-442.822	-200.000	-0.008	-0.182
-441.807	241.661	-0.036	0.059
-440.792	-114.744	-0.051	-0.010
-439.778	461.975	-0.133	-0.293
-438.763	-67.028	-0.343	-0.134
-437.749	522.546	0.083	-0.194
-436.734	141.957	-0.122	0.160
-435.719	334.100	-0.033	-0.064
-434.705	800.000	0.052	0.146
-433.690	-200.000	0.004	-0.118
-432.676	164.312	-0.062	0.086
-431.661	125.957	-0.273	0.342
-430.646	-12.673	0.111	0.072
-429.632	-113.226	0.090	-0.018
-428.617	336.676	0.126	-0.243
-427.603	-200.000	0.021	-0.204
-426.588	-200.000	-0.015	-0.270
-425.573	26.550	-0.052	-0.043
-424.559	-175.601	0.240	-0.006
-423.544	139.078	0.209	0.272
-422.530	800.000	-0.144	-0.434
-421.515	-66.532	0.121	0.048
-420.500	-80.150	0.034	0.011
-419.486	-141.322	-0.286	0.029
-418.471	-9.191	0.168	-0.111
-417.457	533.308	-0.069	0.162
-416.442	800.000	0.057	0.244
-415.428	-72.627	0.079	-0.029
-414.413	-200.000	-0.046	-0.240
-413.398	18.885	0.251	0.199
-412.384	-44.353	-0.124	-0.061
-411.369	41.693	0.276	0.248
-410.355	-25.671	-0.184	0.107
-409.340	-36.916	-0.247	-0.131
-408.325	147.699	-0.137	0.183
-407.311	-200.000	-0.008	-0.091
-406.296	715.100	-0.026	0.069
-405.282	144.380	0.024	-0.031
-404.267	528.658	0.190	0.443
-403.252	-41.537	-0.401	0.204
-402.238	-200.000	0.019	-0.176
-401.223	-81.752	0.027	-0.009
-400.209	-200.000	-0.024	0.156
-399.194	-45.193	0.137	0.067
-398.179	124.128	-0.197	0.245
-397.165	6.467	0.146	-0.108
-396.150	-200.000	-0.011	0.151
-395.136	-54.403	-0.367	0.165
-394.121	-83.727	-0.028	-0.009
-393.106	-106.529	-0.112	0.025
-392.092	-91.795	-0.338	-0.095
-391.077	-191.342	-0.118	-0.001
-390.063	9.369	0.131	-0.098
-389.048	-128.727	0.136	-0.019
-388.033	-189.385	0.325	-0.004
-387.019	328.763	-0.014	-0.027
-386.004	-72.338	0.192	0.070
-384.990	-94.111	0.314	0.085
-383.975	71.998	0.100	0.103
-382.960	-160.985	-0.106	-0.005
-381.946	625.625	0.149	0.373
-380.931	48.649	0.280	0.259
-379.917	-113.896	-0.172	-0.033
-378.902	-124.962	0.093	-0.014
-377.888	-200.000	0.024	-0.189
-376.873	-187.687	-0.239	0.003
-375.858	800.000	-0.057	0.169
-374.844	-200.000	0.050	0.348
-373.829	-177.103	-0.147	0.004
-372.815	-200.000	0.003	-0.133
-371.800	-200.000	-0.104	-0.556
-370.785	14.748	-0.224	0.173
-369.771	576.014	-0.032	0.077
-368.756	19.154	0.416	0.330
-367.742	389.484	0.109	-0.224
-366.727	-107.352	-0.311	-0.068
-365.712	663.050	-0.044	0.113
-364.698	11.117	-0.349	-0.264
-363.683	176.293	0.039	-0.056
-362.669	-43.667	-0.053	-0.026
-361.654	-40.186	-0.204	-0.105
-360.639	-200.000	0.047	-0.254
-359.625	276.562	0.067	0.118
-358.610	-59.860	0.143	-0.061
-357.596	800.000	0.058	0.180
-356.581	-200.000	-0.026	0.146
-355.566	-14.641	-0.312	0.198
-354.552	-200.000	-0.024	-0.121
-353.537	307.630	0.084	0.154
-352.523	210.544	-0.227	0.352
-351.508	-3.823	-0.063	-0.043
-350.493	-8.631	0.234	-0.155
-349.479	374.797	-0.056	-0.112
-348.464	535.998	-0.139	-0.327
-347.450	208.045	0.198	-0.306
-346.435	-200.000	0.072	-0.352
-345.420	319.400	0.121	0.226
-344.406	-200.000	0.033	0.239
-343.391	156.466	-0.149	-0.203
-342.377	137.581	0.082	-0.105
-341.362	-138.131	-0.518	-0.057
-340.348	-200.000	0.043	-0.246
-339.333	-31.117	0.216	-0.120
-338.318	-4.662	-0.170	0.116
-337.304	-76.812	-0.169	-0.058
-336.289	-117.530	-0.120	0.021
-335.275	137.264	0.228	-0.294
-334.260	-143.209	-0.208	-0.020
-333.245	54.002	0.130	-0.123
-332.231	-61.124	-0.192	0.080
-331.216	-144.517	-0.063	0.006
-330.202	101.340	-0.230	-0.264
-329.187	753.612	-0.086	0.229
-328.172	544.004	0.101	-0.237
-327.158	-200.000	0.001	0.019
-326.143	-120.155	0.162	-0.027
-325.129	-197.030	-0.246	0.002
-324.114	503.053	-0.174	0.398
-323.099	800.000	0.078	-0.271
-322.085	-12.575	-0.031	0.020
-321.070	800.000	0.038	-0.116
-320.056	-98.167	0.251	-0.064
-319.041	-51.276	0.263	-0.122
-318.026	251.609	0.033	0.056
-317.012	4.904	-0.203	-0.147
-315.997	-84.614	-0.158	0.049
-314.983	-200.000	-0.028	-0.345
-313.968	800.000	0.050	-0.190
-312.953	-80.805	-0.122	-0.040
-311.939	91.636	-0.208	0.230
-310.924	-122.005	0.139	-0.022
-309.910	27.330	0.373	-0.309
-308.895	-200.000	-0.040	-0.216
-307.880	-146.912	-0.080	0.007
-306.866	-200.000	-0.053	-0.252
-305.851	-200.000	0.032	-0.153
-304.837	755.656	0.085	-0.226
-303.822	800.000	-0.049	-0.183
-302.807	367.705	0.059	-0.117
-301.793	0.268	-0.094	-0.066
-300.778	-111.208	0.154	0.031
-299.764	-103.747	-0.612	-0.141
-298.749	800.000	-0.041	0.132
-297.735	167.601	0.097	0.136
-296.720	-78.791	0.117	0.039
-295.705	-200.000	0.078	0.421
-294.691	229.001	0.095	0.152
-293.676	439.603	-0.146	0.314
-292.662	145.386	0.091	-0.120
-291.647	-154.857	-0.326	0.021
-290.632	70.739	-0.074	-0.075
-289.618	1.097	0.262	-0.185
-288.603	-91.890	-0.195	-0.055
-287.589	-46.437	-0.181	-0.088
-286.574	67.993	-0.076	0.076
-285.559	-168.479	0.393	-0.015
-284.545	395.834	0.019	0.038
-283.530	-200.000	-0.019	0.123
-282.516	-159.040	0.155	-0.009
-281.501	164.354	0.140	-0.194
-280.486	-33.617	0.106	-0.058
-279.472	69.215	-0.186	0.189
-278.457	613.324	-0.041	0.100
-277.443	800.000	0.070	-0.280
-276.428	63.210	0.204	-0.201
-275.413	-178.796	-0.112	0.003
-274.399	-46.081	0.162	-0.079
-273.384	488.929	0.178	0.401
-272.370	-16.956	-0.194	-0.121
-271.355	-20.815	-0.276	0.167
-270.340	39.061	-0.119	0.105
-269.326	100.986	0.144	0.165
-268.311	18.533	0.215	0.169
-267.297	-200.000	-0.040	0.260
-266.282	57.171	0.224	0.215
-265.267	602.241	0.102	-0.249
-264.253	-200.000	0.015	0.078
-263.238	36.785	-0.160	-0.139
-262.224	381.822	-0.078	-0.157
-261.209	107.721	-0.178	-0.209
-260.195	-73.071	0.292	0.106
-259.180	-64.072	-0.240	0.096
-258.165	-39.712	0.526	0.271
-257.151	-200.000	-0.006	-0.069
-256.136	800.000	-0.063	-0.180
-255.122	-161.371	0.341	-0.017
-254.107	800.000	0.055	-0.153
-253.092	-117.883	-0.343	-0.061
-252.078	215.634	0.187	0.292
-251.063	-94.930	0.168	-0.045
-250.049	-200.000	-0.050	0.296
-249.034	800.000	0.091	0.300
-248.019	-9.874	-0.351	0.230
-247.005	174.904	-0.231	0.329
-245.990	301.038	0.123	-0.224
-244.976	-97.430	0.137	0.035
-243.961	376.169	-0.113	0.226
-242.946	800.000	-0.125	-0.340
-241.932	-200.000	-0.014	-0.068
-240.917	-200.000	0.004	0.042
-239.903	265.883	-0.059	-0.101
-238.888	380.242	0.176	0.355
-237.873	-168.179	0.293	-0.011
-236.859	-111.502	0.230	0.046
-235.844	350.677	0.068	0.132
-234.830	30.342	0.253	0.213
-233.815	-63.786	-0.087	0.035
-232.800	-200.000	-0.048	-0.459
-231.786	-200.000	0.004	-0.176
-230.771	-77.786	0.432	0.147
-229.757	8.174	0.027	-0.020
-228.742	633.158	0.089	-0.222
-227.727	-89.971	0.207	0.059
-226.713	-121.894	0.143	-0.023
-225.698	4.929	-0.303	0.219
-224.684	-166.418	0.166	-0.007
-223.669	-158.717	-0.073	0.004
-222.655	208.501	0.123	0.189
-221.640	144.434	-0.261	0.342
-220.625	-132.521	0.473	0.060
-219.611	404.306	-0.059	0.122
-218.596	-126.577	-0.339	-0.049
-217.582	-93.390	-0.307	0.084
-216.567	800.000	-0.162	-0.505
-215.552	-28.281	0.128	-0.073
-214.538	800.000	0.109	0.312
-213.523	113.222	0.154	0.184
-212.509	371.351	0.017	0.035
-211.494	-200.000	0.058	0.365
-210.479	-200.000	-0.009	0.222
-209.465	800.000	0.062	-0.179
-208.450	32.412	-0.108	0.092
-207.436	-200.000	-0.027	0.166
-206.421	800.000	0.065	0.194
-205.406	75.016	0.320	0.331
-204.392	-66.289	-0.245	0.096
-203.377	-60.930	-0.170	-0.071
-202.363	-200.000	-0.025	-0.304
-201.348	46.723	0.122	0.111
-200.333	-97.809	0.261	-0.066
-199.319	77.993	0.068	-0.071
-198.304	33.638	-0.052	0.044
-197.290	-32.697	0.105	-0.058
-196.275	206.546	-0.094	0.144
-195.260	-200.000	0.002	0.172
-194.246	-55.152	-0.172	-0.076
-193.231	-122.320	0.293	0.047
-192.217	14.655	0.033	0.025
-191.202	-67.878	0.059	-0.022
-190.187	15.162	-0.242	0.186
-189.173	383.226	0.045	0.091
-188.158	-11.500	0.285	-0.184
-187.144	-150.732	0.257	-0.019
-186.129	-200.000	-0.012	0.180
-185.114	-72.522	0.332	-0.120
-184.100	800.000	-0.038	0.125
-183.085	8.762	-0.116	0.086
-182.071	312.322	0.100	0.184
-181.056	-200.000	-0.032	-0.183
-180.042	305.156	0.091	-0.167
-179.027	77.167	0.243	-0.253
-178.012	-94.822	0.111	-0.030
-176.998	-87.362	0.171	0.051
-175.983	-200.000	-0.018	-0.273
-174.969	-21.672	0.342	-0.205
-173.954	-200.000	-0.004	-0.293
-172.939	-66.450	-0.260	-0.101
-171.925	-200.000	-0.023	-0.182
-170.910	-97.587	-0.260	-0.066
-169.896	800.000	0.036	0.118
-168.881	-200.000	-0.053	-0.535
-167.866	-174.056	0.217	0.006
-166.852	608.031	0.012	0.029
-165.837	-59.232	-0.128	-0.054
-164.823	-76.094	-0.243	0.084
-163.808	-106.716	-0.348	-0.076
-162.793	-118.868	0.234	-0.040
-161.779	-44.491	0.070	-0.034
-160.764	528.485	-0.041	-0.094
-159.750	468.002	0.213	0.469
-158.735	450.894	0.059	0.128
-157.720	-200.000	0.025	-0.337
-156.706	187.452	-0.038	0.055
-155.691	-200.000	-0.023	-0.103
-154.677	-37.046	-0.064	0.034
-153.662	760.633	0.072	0.191
-152.647	-104.522	-0.135	-0.031
-151.633	800.000	0.047	-0.181
-150.618	150.094	0.139	0.185
-149.604	-101.565	-0.133	-0.032
-148.589	-58.882	-0.253	-0.107
-147.574	-78.811	-0.205	-0.069
-146.560	327.036	-0.010	-0.019
-145.545	94.725	-0.218	-0.243
-144.531	41.724	-0.026	0.023
-143.516	-200.000	0.023	-0.147
-142.502	-200.000	-0.017	-0.176
-141.487	-55.523	-0.143	-0.063
-140.472	-81.748	0.484	-0.156
-139.458	-131.334	0.097	0.013
-138.443	-65.489	0.365	0.144
-137.429	-53.384	-0.362	-0.163
-136.414	221.064	0.116	0.182
-135.399	-91.432	0.283	0.079
-134.385	800.000	-0.047	-0.135
-133.370	-92.142	-0.058	0.016
-132.356	646.260	0.175	0.438
-131.341	-28.116	0.136	-0.077
-130.326	1.812	0.057	0.040
-129.312	-4.299	0.072	0.049
-128.297	-103.013	-0.110	-0.026
-127.283	18.053	0.058	-0.045
-126.268	-200.000	-0.015	-0.147
-125.253	-38.001	-0.194	-0.101
-124.239	89.446	-0.171	-0.187
-123.224	91.849	0.058	-0.064
-122.210	30.471	0.117	0.098
-121.195	173.390	0.187	-0.265
-120.180	-96.671	0.118	-0.030
-119.166	-41.423	-0.087	0.044
-118.151	-64.460	-0.331	0.132
-117.137	-200.000	-0.021	-0.241
-116.122	-200.000	0.004	0.075
-115.107	-146.720	-0.250	0.021
-114.093	-125.427	0.325	-0.048
-113.078	-200.000	-0.077	0.369
-112.064	-127.129	-0.142	-0.020
-111.049	-5.931	0.101	0.068
-110.034	143.812	-0.055	-0.072
-109.020	-200.000	0.004	-0.160
-108.005	-7.860	0.088	0.058
-106.991	-89.626	-0.451	-0.129
-105.976	800.000	0.110	0.438
-104.962	-131.721	0.055	0.007
-103.947	800.000	0.045	0.184
-102.932	-200.000	-0.022	0.180
-101.918	-104.791	0.186	-0.042
-100.903	-200.000	0.037	-0.166
-99.889	-103.942	0.172	0.039
-98.874	681.612	0.116	0.297
-97.859	-144.557	-0.186	-0.017
-96.845	-200.000	-0.004	-0.160
-95.830	-200.000	0.211	0.001
-94.816	-200.000	0.011	-0.155
-93.801	-25.081	0.123	0.071
-92.786	-200.000	0.001	0.060
-91.772	-18.691	0.134	-0.082
-90.757	375.216	-0.101	-0.201
-89.743	50.480	-0.183	0.169
-88.728	-200.000	-0.009	-0.060
-87.713	-87.548	-0.298	0.088
-86.699	97.769	0.293	0.330
-85.684	-39.266	-0.131	0.067
-84.670	-66.646	0.262	0.101
-83.655	469.522	0.086	0.189
-82.640	-33.863	-0.134	0.072
-81.626	44.705	-0.126	-0.114
-80.611	70.596	-0.141	-0.143
-79.597	-29.097	-0.236	-0.132
-78.582	-102.791	-0.185	0.043
-77.567	-58.565	-0.110	-0.047
-76.553	97.523	-0.109	0.123
-75.538	-9.213	0.059	0.039
-74.524	-200.000	0.055	0.318
-73.509	-200.000	-0.061	0.318
-72.494	-32.200	-0.226	0.124
-71.480	482.612	0.073	0.163
-70.465	-200.000	0.007	0.347
-69.451	344.201	0.025	0.047
-68.436	-88.937	-0.167	0.049
-67.422	138.050	-0.156	-0.200
-66.407	7.344	0.199	0.146
-65.392	628.253	-0.004	-0.009
-64.378	-40.775	-0.317	0.161
-63.363	-200.000	-0.017	0.167
-62.349	603.069	0.038	-0.093
-61.334	130.518	-1.122	-1.405
-60.319	-59.106	0.723	0.305
-59.305	274.775	-0.531	-0.920
-58.290	336.905	0.715	1.356
-57.276	448.691	0.597	1.285
-56.261	-200.000	113.983	643.187
-55.246	481.110	1497.972	3320.630
-54.232	150.315	2658.823	3525.306
-53.217	102.543	2159.796	2467.125
-52.203	37.556	1690.542	1464.905
-51.188	30.475	1508.476	1259.301
-50.173	28.270	1483.992	1224.086
-49.159	51.568	1541.138	1430.548
-48.144	50.424	1557.563	1437.946
-47.130	30.673	1514.080	1265.127
-46.115	27.612	1499.694	1232.398
-45.100	27.470	1495.533	1227.974
-44.086	27.386	1493.528	1225.710
-43.071	27.343	1491.778	1223.940
-42.057	27.270	1490.388	1222.255
-41.042	27.351	1488.536	1221.236
-40.027	27.350	1487.557	1220.377
-39.013	27.384	1486.024	1219.297
-37.998	27.269	1484.743	1217.427
-36.984	27.313	1483.856	1216.948
-35.969	27.433	1481.781	1216.000
-34.954	27.390	1480.697	1214.772
-33.940	27.288	1479.907	1213.397
-32.925	27.360	1478.088	1212.335
-31.911	27.387	1476.729	1211.355
-30.896	27.458	1475.157	1210.490
-29.881	27.514	1474.234	1210.054
-28.867	27.356	1472.831	1207.804
-27.852	27.394	1471.497	1206.916
-26.838	27.476	1469.869	1206.077
-25.823	27.349	1468.618	1204.159
-24.809	27.503	1466.923	1203.739
-23.794	27.479	1465.594	1202.448
-22.779	27.422	1464.586	1201.197
-21.765	27.389	1463.702	1200.204
-20.750	27.430	1462.418	1199.377
-19.736	27.413	1461.638	1198.575
-18.721	27.379	1460.581	1197.437
-17.706	27.424	1458.991	1196.380
-16.692	27.475	1457.867	1195.744
-15.677	27.338	1457.624	1194.602
-14.663	27.346	1456.604	1193.771
-13.648	27.379	1455.841	1193.311
-12.633	27.262	1454.907	1191.734
-11.619	27.324	1453.791	1191.179
-10.604	27.373	1453.029	1190.826
-9.590	27.415	1452.035	1190.240
-8.575	27.275	1451.169	1188.569
-7.560	27.334	1450.300	1188.192
-6.546	27.359	1449.267	1187.465
-5.531	27.300	1448.579	1186.466
-4.517	27.313	1447.296	1185.453
-3.502	27.370	1446.336	1184.992
-2.487	27.375	1445.113	1183.975
-1.473	27.306	1444.506	1182.984
-0.458	27.381	1442.929	1182.130
0.556	25.646	1433.518	1170.432
1.571	22.571	1408.972	1130.597
2.586	19.192	1348.653	1061.314
3.600	17.710	1266.219	987.775
4.615	16.580	1221.421	946.423
5.629	15.839	1168.797	901.601
6.644	12.795	1093.451	828.129
7.659	10.253	1059.149	789.690
8.673	9.908	1054.012	784.114
9.688	9.754	1050.951	781.023
10.702	9.544	1049.452	778.822
11.717	9.595	1047.419	777.493
12.731	10.782	1046.852	782.725
13.746	13.836	1050.871	800.408
14.761	16.879	1054.382	817.715
15.775	17.741	1054.411	821.819
16.790	16.950	1052.647	816.563
17.804	15.952	1050.311	809.881
18.819	15.106	1049.052	804.777
19.834	14.500	1047.377	800.513
20.848	14.283	1045.791	798.191
21.863	13.906	1045.822	796.337
22.877	13.724	1044.622	794.478
23.892	13.678	1043.691	793.479
24.907	13.548	1043.286	792.478
25.921	13.429	1042.620	791.333
26.936	13.433	1041.844	790.694
27.950	13.669	1040.446	790.691
28.965	13.684	1039.487	789.962
29.980	13.692	1038.633	789.282
30.994	13.744	1037.381	788.506
32.009	13.808	1036.542	788.105
33.023	13.756	1035.769	787.203
34.038	13.721	1034.949	786.341
35.053	13.704	1034.254	785.661
36.067	13.764	1033.283	785.142
37.082	13.587	1032.706	783.795
38.096	13.733	1031.134	783.220
39.111	13.786	1030.834	783.175
40.126	13.792	1029.822	782.367
41.140	13.747	1028.609	781.161
42.155	13.575	1027.829	779.692
43.169	13.563	1026.582	778.622
44.184	13.485	1025.879	777.651
45.199	13.514	1024.652	776.790
46.213	13.623	1022.883	775.890
47.228	13.550	1022.661	775.312
48.242	13.579	1021.326	774.368
49.257	13.629	1020.816	774.145
50.271	13.621	1019.299	772.887
51.286	13.615	1018.688	772.331
52.301	13.666	1018.150	772.089
53.315	13.750	1016.857	771.432
54.330	13.729	1016.344	770.875
55.344	13.554	1015.483	769.342
56.359	13.647	1014.551	769.000
57.374	13.644	1013.788	768.338
58.388	13.558	1013.122	767.367
59.403	13.642	1011.978	766.824
60.417	13.424	1011.435	765.338
61.432	13.482	1010.925	765.148
62.447	13.523	1009.777	764.403
63.461	13.492	1009.275	763.814
64.476	13.353	1008.128	762.236
65.490	13.436	1006.960	761.666
66.505	13.463	1006.463	761.346
67.520	13.371	1005.769	760.334
68.534	13.334	1005.136	759.618
69.549	13.413	1004.016	759.068
70.563	13.474	1003.159	758.631
71.578	13.459	1002.478	757.982
72.593	13.469	1001.653	757.336
73.607	13.406	1000.474	756.088
74.622	13.340	999.953	755.325
75.636	13.351	999.154	754.706
76.651	13.448	998.255	754.403
77.666	13.374	997.673	753.560
78.680	13.445	996.497	752.929
79.695	13.357	996.753	752.652
80.709	13.475	995.515	752.189
81.724	13.459	995.072	751.713
82.739	13.561	993.881	751.212
83.753	13.618	993.316	750.973
84.768	13.638	992.641	750.487
85.782	13.698	991.910	750.140
86.797	13.846	990.990	750.050
87.812	13.815	990.208	749.248
88.826	13.796	989.098	748.261
89.841	13.660	988.886	747.420
90.855	13.779	987.813	747.075
91.870	13.577	987.464	745.839
92.884	13.842	986.308	746.090
93.899	13.712	985.815	745.067
94.914	13.934	984.518	745.018
95.928	13.820	983.987	744.036
96.943	13.833	983.327	743.531
97.957	13.789	982.517	742.655
98.972	13.754	981.804	741.896
99.987	13.726	981.018	741.111
101.001	13.751	980.586	740.830
102.016	13.730	980.153	740.342
103.030	13.697	978.491	738.877
104.045	13.840	977.193	738.466
105.060	13.765	976.366	737.445
106.074	13.719	975.639	736.626
107.089	13.612	974.929	735.550
108.103	13.488	974.210	734.389
109.118	13.522	973.370	733.842
110.133	13.539	972.232	732.993
111.147	13.420	971.917	732.168
112.162	13.499	970.690	731.527
113.176	13.501	969.915	730.886
114.191	13.560	968.779	730.228
115.206	13.660	968.281	730.225
116.220	13.769	967.103	729.753
117.235	13.544	966.758	728.440
118.249	13.609	965.737	727.892
119.264	13.629	964.936	727.312
120.279	13.576	963.901	726.234
121.293	13.548	963.052	725.406
122.308	13.625	962.425	725.209
123.322	13.540	961.528	724.097
124.337	13.552	960.697	723.460
125.352	13.470	959.459	722.103
126.366	13.591	958.328	721.719
127.381	13.569	957.230	720.728
128.395	13.454	956.564	719.663
129.410	13.409	955.505	718.611
130.424	13.507	954.500	718.213
131.439	13.623	953.418	717.841
132.454	13.485	953.084	716.929
133.468	13.616	952.107	716.696
134.483	13.622	951.676	716.334
135.497	13.633	950.787	715.648
136.512	13.624	950.221	715.120
137.527	13.521	949.528	714.092
138.541	13.711	948.482	714.058
139.556	13.624	947.874	713.164
140.570	13.588	947.354	712.555
141.585	13.638	946.295	711.911
142.600	13.751	945.697	711.884
143.614	13.767	944.954	711.328
144.629	13.800	944.206	710.846
145.643	13.919	943.506	710.764
146.658	13.796	943.326	710.039
147.673	13.778	942.141	709.005
148.687	13.866	940.603	708.161
149.702	13.632	940.342	706.906
150.716	13.841	938.865	706.622
151.731	13.866	937.707	705.795
152.746	13.657	937.548	704.725
153.760	13.781	936.713	704.563
154.775	13.816	935.806	703.964
155.789	13.798	935.181	703.357
156.804	13.792	934.539	702.787
157.819	13.834	933.796	702.344
158.833	13.941	932.764	701.958
159.848	13.968	932.107	701.515
160.862	13.925	931.780	701.022
161.877	13.922	931.473	700.718
162.892	13.859	930.244	699.466
163.906	13.781	929.272	698.347
164.921	13.717	928.814	697.670
165.935	13.811	927.480	697.000
166.950	13.815	926.575	696.275
167.964	13.904	925.809	696.012
168.979	13.816	924.926	694.919
169.994	13.958	923.848	694.642
171.008	13.964	922.998	693.966
172.023	13.752	922.602	692.720
173.037	14.012	921.937	693.246
174.052	14.040	921.179	692.732
175.067	13.941	920.350	691.633
176.081	13.983	919.803	691.334
177.096	13.766	918.895	689.689
178.110	13.770	917.911	688.909
179.125	13.843	917.373	688.745
180.140	13.958	916.221	688.295
181.154	14.048	915.728	688.236
182.169	14.013	915.102	687.563
183.183	14.003	914.423	686.949
184.198	14.032	913.801	686.539
185.213	14.080	913.238	686.254
186.227	14.200	912.088	685.825
187.242	14.093	912.272	685.461
188.256	14.106	911.800	685.101
189.271	14.282	910.193	684.556
190.286	14.238	909.661	683.912
191.300	14.109	908.664	682.573
192.315	13.999	908.415	681.876
193.329	13.916	907.422	680.731
194.344	13.845	906.631	679.787
195.359	14.002	906.149	680.007
196.373	13.951	905.867	679.524
197.388	13.971	905.403	679.201
198.402	14.107	905.040	679.421
199.417	14.248	904.667	679.659
200.432	14.394	903.391	679.234
201.446	14.285	903.254	678.628
202.461	14.393	902.855	678.708
203.475	14.341	902.830	678.415
204.490	14.424	901.469	677.670
205.504	14.379	900.771	676.903
206.519	14.373	899.617	675.954
207.534	14.356	899.309	675.590
208.548	14.432	898.390	675.151
209.563	14.214	898.309	674.145
210.577	14.451	897.123	674.155
211.592	14.450	896.889	673.917
212.607	14.500	896.531	673.789
213.621	14.485	895.960	673.239
214.636	14.535	894.961	672.632
215.650	14.516	894.271	671.978
216.665	14.538	893.671	671.554
217.680	14.555	893.488	671.425
218.694	14.543	892.997	670.950
219.709	14.582	892.694	670.821
220.723	14.708	891.446	670.327
221.738	14.625	890.917	669.540
222.753	14.668	890.013	668.973
223.767	14.658	889.378	668.397
224.782	14.576	888.976	667.706
225.796	14.652	888.517	667.605
226.811	14.765	887.664	667.358
227.826	14.779	887.042	666.885
228.840	14.680	886.188	665.792
229.855	14.602	885.742	665.088
230.869	14.709	884.900	664.821
231.884	14.566	884.180	663.652
232.899	14.835	883.134	663.877
233.913	14.633	882.895	662.838
234.928	14.635	882.244	662.298
235.942	14.740	881.050	661.758
236.957	14.769	880.371	661.305
237.972	14.780	879.973	660.992
238.986	14.658	879.279	659.929
240.001	14.738	879.024	659.995
241.015	14.771	878.338	659.553
242.030	14.838	877.831	659.378
243.045	14.711	877.238	658.373
244.059	14.876	876.378	658.320
245.074	14.885	875.413	657.570
246.088	14.905	875.241	657.464
247.103	14.852	874.807	656.870
248.117	14.819	874.615	656.538
249.132	14.966	873.720	656.386
250.147	14.999	873.067	655.967
251.161	15.164	872.057	655.796
252.176	15.131	871.746	655.373
253.190	15.256	870.805	655.096
254.205	15.220	870.469	654.647
255.220	15.261	869.803	654.248
256.234	15.259	869.218	653.742
257.249	15.255	868.774	653.332
258.263	15.379	868.103	653.255
259.278	15.284	867.560	652.418
260.293	15.203	866.940	651.578
261.307	15.247	866.488	651.351
262.322	15.427	865.549	651.287
263.336	15.419	865.051	650.826
264.351	15.401	864.475	650.264
265.366	15.512	863.764	650.100
266.380	15.461	863.492	649.641
267.395	15.476	862.774	649.100
268.409	15.481	861.944	648.438
269.424	15.427	861.000	647.463
270.439	15.431	860.821	647.285
271.453	15.471	859.917	646.704
272.468	15.411	859.144	645.836
273.482	15.387	858.766	645.400
274.497	15.373	858.284	644.928
275.512	15.336	857.257	643.957
276.526	15.498	856.715	644.115
277.541	15.603	855.776	643.753
278.555	15.571	855.364	643.266
279.570	15.463	854.922	642.461
280.585	15.611	854.139	642.382
281.599	15.658	853.601	642.100
282.614	15.560	853.170	641.345
283.628	15.534	852.474	640.667
284.643	15.527	852.000	640.227
285.657	15.602	851.729	640.252
286.672	15.542	851.081	639.479
287.687	15.676	850.584	639.559
288.701	15.755	849.901	639.289
289.716	15.751	849.185	638.678
290.730	15.659	848.753	637.949
291.745	15.699	848.080	637.538
292.760	15.697	847.528	637.058
293.774	15.727	846.929	636.665
294.789	15.885	846.133	636.609
295.803	15.933	845.317	636.121
296.818	15.831	845.111	635.522
297.833	15.775	844.125	634.514
298.847	15.812	843.906	634.433
299.862	15.715	843.147	633.443
300.876	15.862	842.016	633.088
301.891	15.829	841.897	632.820
302.906	15.981	841.050	632.696
303.920	16.036	840.371	632.336
304.935	16.097	839.665	631.977
305.949	16.000	839.576	631.491
306.964	16.190	838.593	631.409
307.979	16.005	838.222	630.381
308.993	16.078	837.878	630.339
310.008	16.002	837.137	629.442
311.022	16.062	836.442	629.087
312.037	16.283	835.681	629.284
313.052	16.135	835.507	628.544
314.066	16.005	835.140	627.729
315.081	16.093	834.390	627.436
316.095	16.038	833.905	626.812
317.110	16.094	832.966	626.260
318.125	16.056	832.782	625.926
319.139	16.060	832.326	625.540
320.154	15.980	831.574	624.625
321.168	16.098	830.985	624.563
322.183	16.176	830.480	624.417
323.197	16.112	830.335	624.018
324.212	16.182	829.562	623.638
325.227	16.068	829.379	623.027
326.241	16.237	828.595	623.005
327.256	16.103	828.244	622.190
328.270	16.185	827.323	621.748
329.285	16.199	826.795	621.346
330.300	16.254	826.217	621.058
331.314	16.190	825.698	620.377
332.329	16.191	825.083	619.866
333.343	16.226	824.676	619.633
334.358	16.403	823.915	619.655
335.373	16.162	823.708	618.562
336.387	16.328	823.205	618.737
337.402	16.381	822.541	618.377
338.416	16.598	821.455	618.299
339.431	16.549	821.277	617.933
340.446	16.535	820.909	617.550
341.460	16.558	820.494	617.268
342.475	16.442	819.850	616.306
343.489	16.705	819.186	616.709
344.504	16.699	818.687	616.258
345.519	16.626	818.315	615.655
346.533	16.683	817.813	615.431
347.548	16.703	817.404	615.142
348.562	16.686	816.619	614.435
349.577	16.600	816.138	613.708
350.592	16.597	815.616	613.249
351.606	16.462	815.346	612.503
352.621	16.518	814.797	612.240
353.635	16.442	814.560	611.732
354.650	16.623	814.049	611.950
355.665	16.623	813.491	611.475
356.679	16.665	813.006	611.208
357.694	16.758	812.442	611.066
358.708	16.701	811.968	610.450
359.723	16.626	811.783	609.987
360.738	16.743	810.934	609.716
361.752	16.622	810.592	608.969
362.767	16.767	810.418	609.304
363.781	16.781	809.646	608.720
364.796	16.877	809.130	608.625
365.810	16.936	808.905	608.614
366.825	16.846	808.528	607.952
367.840	17.095	808.054	608.436
368.854	17.014	807.470	607.653
369.869	16.949	807.495	607.384
370.883	17.030	806.435	606.822
371.898	16.810	806.401	605.957
372.913	16.929	805.749	605.837
373.927	17.093	804.859	605.699
374.942	16.985	804.516	605.003
375.956	17.126	803.606	604.767
376.971	17.165	802.709	604.179
377.986	17.075	802.457	603.614
379.000	17.260	802.030	603.897
380.015	17.194	801.406	603.140
381.029	17.203	800.982	602.801
382.044	17.188	800.376	602.237
383.059	17.335	799.890	602.338
384.073	17.225	799.591	601.669
385.088	17.203	799.111	601.180
386.102	17.180	798.138	600.313
387.117	17.254	797.548	600.078
388.132	17.144	797.581	599.661
389.146	17.198	796.631	599.082
390.161	17.237	796.458	599.039
391.175	17.175	796.576	598.853
392.190	17.399	795.573	598.835
393.205	17.264	795.571	598.306
394.219	17.150	794.918	597.361
395.234	17.152	794.452	596.965
396.248	17.378	793.746	597.174
397.263	17.164	793.660	596.308
398.278	17.124	792.910	595.549
399.292	17.275	792.350	595.605
400.307	17.203	792.176	595.170
401.321	17.272	791.287	594.692
402.336	17.187	791.234	594.303
403.350	17.284	790.787	594.251
404.365	17.297	790.541	594.061
405.380	17.304	790.246	593.809
406.394	17.504	789.389	593.811
407.409	17.526	788.898	593.467
408.423	17.583	788.488	593.304
409.438	17.634	788.079	593.120
410.453	17.619	787.962	592.929
411.467	17.584	787.461	592.378
412.482	17.728	786.848	592.363
413.496	17.720	786.436	591.973
414.511	17.627	786.459	591.617
415.526	17.718	785.714	591.318
416.540	17.672	785.566	590.996
417.555	17.734	785.139	590.835
418.569	17.678	784.573	590.166
419.584	17.747	783.986	589.911
420.599	17.917	783.437	590.030
421.613	112.194	1293.056	1477.722
422.628	96.221	1367.305	1477.810
