DTS Sentinel unit serial number:	SN413079Multiplexer serial number:	ORYXHardware model number:	OX4-SRSoftware version number:	ORYX F/W v4.00 Oryx Data Collector v3.7.2.0data status	okinstallation	princeton_trtdifferential loss correction	single-endedforward channel	channel 3reverse channel	N/Adate	2019/09/14time	06:12:35forward acquisition time	60.00reverse acquisition time	0.00gamma	496.2192k internal	0.2338k external	0.2338temperature offset calibration	1.0058default loss term (dB/km)	0.3790temperature slope calibration	1.0000multiplexer offset coefficient	1.0000multiplexer slope coefficient	1.0000fibre end	0.00T internal ref (°C)	26.69T ext. ref 1 (°C)	3.41T ext. ref 2 (°C)	20.80length (m)	temperature (°C)	Stokes	anti-Stokes-747.200	-100.734	-0.085	-0.021
-746.185	-82.028	-0.084	-0.027
-745.171	-200.000	-0.009	-0.052
-744.156	602.339	-0.010	0.024
-743.142	-125.423	-0.499	0.076
-742.127	-72.918	-0.109	-0.040
-741.112	-8.619	-0.321	-0.216
-740.098	84.652	-0.233	0.256
-739.083	-89.533	0.564	0.166
-738.069	-110.449	-0.310	0.065
-737.054	800.000	-0.056	0.212
-736.039	237.193	-0.207	0.343
-735.025	130.975	-0.134	0.173
-734.010	-200.000	0.034	-0.159
-732.996	-11.340	0.059	-0.039
-731.981	-95.465	-0.240	0.064
-730.966	-62.790	0.132	-0.055
-729.952	-107.521	-0.149	-0.033
-728.937	-109.574	-0.272	-0.058
-727.923	304.794	-0.256	-0.476
-726.908	136.430	-0.051	0.066
-725.894	120.296	0.020	-0.025
-724.879	-87.639	0.142	0.043
-723.864	-200.000	-0.072	0.416
-722.850	158.738	-0.014	-0.020
-721.835	58.403	-0.290	0.285
-720.821	464.770	0.069	-0.154
-719.806	303.787	-0.096	-0.179
-718.791	-200.000	-0.028	-0.303
-717.777	-200.000	-0.034	-0.457
-716.762	-143.160	0.062	-0.006
-715.748	-200.000	0.008	-0.081
-714.733	140.087	0.116	-0.153
-713.718	-172.025	-0.193	-0.006
-712.704	800.000	-0.017	0.070
-711.689	361.554	-0.138	0.277
-710.675	-200.000	0.006	0.332
-709.660	242.332	-0.136	0.229
-708.645	-23.037	-0.130	-0.079
-707.631	-200.000	0.014	-0.265
-706.616	-140.694	0.085	-0.009
-705.602	345.928	-0.197	0.388
-704.587	310.457	0.123	-0.230
-703.572	-63.886	-0.304	-0.125
-702.558	-37.467	0.268	0.144
-701.543	61.650	0.139	-0.138
-700.529	-200.000	-0.025	-0.148
-699.514	532.878	0.053	-0.126
-698.499	5.359	0.069	0.051
-697.485	24.068	0.110	0.091
-696.470	-200.000	0.010	0.097
-695.456	-200.000	0.031	0.166
-694.441	129.210	0.161	-0.205
-693.426	-138.243	-0.144	0.016
-692.412	221.849	-0.187	0.301
-691.397	267.650	-0.138	0.242
-690.383	410.860	-0.079	0.167
-689.368	-44.975	-0.189	-0.094
-688.354	-42.182	-0.029	-0.015
-687.339	210.634	0.084	0.132
-686.324	-26.677	-0.118	-0.069
-685.310	800.000	-0.055	0.212
-684.295	-200.000	-0.010	-0.137
-683.281	-98.340	-0.223	-0.057
-682.266	-119.537	-0.112	0.019
-681.251	-200.000	0.003	-0.321
-680.237	-104.673	0.141	0.033
-679.222	-200.000	-0.044	-0.248
-678.208	800.000	-0.061	0.257
-677.193	-200.000	-0.022	0.169
-676.178	-200.000	0.006	-0.038
-675.164	-89.499	-0.087	0.025
-674.149	203.909	0.104	0.161
-673.135	-82.080	-0.290	-0.095
-672.120	-200.000	-0.013	-0.089
-671.105	114.754	-0.070	-0.085
-670.091	141.332	-0.139	0.184
-669.076	519.359	-0.023	0.054
-668.062	-16.032	-0.268	0.171
-667.047	-200.000	0.001	0.276
-666.032	30.120	-0.084	0.071
-665.018	800.000	0.069	-0.242
-664.003	-63.335	0.072	-0.030
-662.989	800.000	0.117	-0.492
-661.974	-110.224	0.249	0.052
-660.959	513.210	-0.032	0.075
-659.945	800.000	-0.010	0.031
-658.930	-200.000	-0.057	0.255
-657.916	-23.191	-0.184	0.110
-656.901	-200.000	-0.087	-0.389
-655.886	-82.672	0.130	-0.042
-654.872	68.929	0.092	0.094
-653.857	59.929	-0.138	-0.136
-652.843	-117.964	-0.129	-0.023
-651.828	-55.040	-0.375	-0.169
-650.814	-200.000	-0.013	-0.353
-649.799	-53.507	-0.256	0.117
-648.784	-200.000	-0.020	0.363
-647.770	171.545	0.061	-0.087
-646.755	634.574	-0.130	-0.329
-645.741	25.428	0.031	0.026
-644.726	447.592	-0.116	-0.255
-643.711	-197.964	-0.227	-0.001
-642.697	-7.165	-0.312	0.211
-641.682	-73.212	0.023	0.008
-640.668	-78.790	0.398	-0.136
-639.653	-104.211	-0.166	0.039
-638.638	-1.498	-0.126	0.089
-637.624	338.846	-0.070	0.136
-636.609	-155.988	0.175	0.011
-635.595	-44.615	-0.231	-0.115
-634.580	30.854	-0.223	-0.191
-633.565	-42.067	0.081	0.042
-632.551	-20.910	0.183	0.112
-631.536	143.653	0.063	0.084
-630.522	-76.262	-0.170	-0.060
-629.507	160.664	0.175	0.245
-628.492	300.623	0.116	0.213
-627.478	663.248	-0.009	-0.023
-626.463	-200.000	-0.041	-0.296
-625.449	206.542	-0.067	-0.105
-624.434	-200.000	0.012	-0.085
-623.419	165.677	-0.067	0.095
-622.405	-124.239	-0.203	0.032
-621.390	-98.545	0.260	0.066
-620.376	-81.341	0.389	-0.128
-619.361	82.595	-0.143	-0.155
-618.346	-141.639	-0.059	-0.006
-617.332	-200.000	0.010	-0.043
-616.317	-200.000	-0.060	-0.283
-615.303	-54.172	-0.382	-0.173
-614.288	161.187	0.133	0.186
-613.273	-200.000	-0.034	0.214
-612.259	-109.455	0.282	0.059
-611.244	-87.639	-0.065	-0.020
-610.230	-138.457	-0.241	-0.026
-609.215	-200.000	-0.016	-0.237
-608.201	-100.554	0.227	-0.056
-607.186	-45.280	-0.272	-0.135
-606.171	-18.551	-0.135	0.084
-605.157	9.449	0.132	0.100
-604.142	-54.753	-0.217	-0.098
-603.128	-200.000	-0.017	-0.226
-602.113	-69.180	-0.112	-0.043
-601.098	-81.460	0.524	0.172
-600.084	-1.250	-0.157	0.111
-599.069	75.954	-0.036	-0.038
-598.055	-111.687	0.132	-0.027
-597.040	422.265	0.050	0.108
-596.025	371.957	0.115	0.233
-595.011	-200.000	0.017	-0.147
-593.996	-137.976	-0.228	0.025
-592.982	-64.688	0.120	-0.049
-591.967	-200.000	0.043	-0.205
-590.952	800.000	-0.086	-0.283
-589.938	-200.000	0.014	-0.100
-588.923	53.767	-0.076	-0.072
-587.909	79.441	0.158	-0.169
-586.894	800.000	-0.034	0.145
-585.879	800.000	0.110	-0.323
-584.865	-72.873	0.052	0.019
-583.850	-99.832	0.211	-0.053
-582.836	-200.000	0.046	-0.200
-581.821	270.535	0.136	-0.238
-580.806	37.092	0.140	-0.124
-579.792	-18.141	0.300	0.187
-578.777	-200.000	0.005	-0.263
-577.763	17.700	-0.027	0.022
-576.748	77.641	-0.175	-0.185
-575.733	800.000	-0.015	0.059
-574.719	800.000	0.048	0.158
-573.704	-200.000	-0.062	0.307
-572.690	16.149	-0.156	-0.123
-571.675	42.471	-0.221	0.200
-570.661	-200.000	-0.001	-0.189
-569.646	717.731	-0.034	-0.090
-568.631	-20.653	-0.231	0.142
-567.617	76.284	-0.256	0.270
-566.602	-200.000	0.004	0.042
-565.588	-29.857	-0.151	-0.086
-564.573	95.961	0.251	-0.285
-563.558	-17.102	0.129	0.081
-562.544	-110.026	-0.091	0.019
-561.529	23.531	-0.080	-0.065
-560.515	-56.379	-0.473	0.209
-559.500	-200.000	-0.059	0.315
-558.485	125.072	0.165	-0.207
-557.471	-138.738	-0.379	-0.041
-556.456	-116.788	0.123	0.023
-555.442	800.000	-0.041	-0.169
-554.427	-200.000	-0.014	-0.139
-553.412	-148.436	-0.229	-0.019
-552.398	-112.127	0.131	0.026
-551.383	-84.071	-0.074	-0.023
-550.369	-134.672	0.164	0.020
-549.354	281.682	0.076	0.135
-548.339	-80.883	0.144	0.048
-547.325	112.921	-0.300	0.362
-546.310	800.000	0.092	0.347
-545.296	-24.534	0.240	0.142
-544.281	-192.666	-0.144	0.001
-543.266	448.314	-0.095	0.208
-542.252	662.704	-0.062	-0.160
-541.237	-30.158	0.215	-0.122
-540.223	-83.711	0.206	-0.066
-539.208	68.627	-0.288	-0.294
-538.193	-75.892	-0.369	0.130
-537.179	636.778	-0.011	-0.028
-536.164	39.114	0.243	-0.217
-535.150	-87.977	-0.418	-0.125
-534.135	64.777	0.060	-0.060
-533.121	43.763	0.077	0.070
-532.106	-95.816	0.085	-0.023
-531.091	800.000	-0.140	-0.407
-530.077	800.000	-0.068	-0.288
-529.062	600.908	-0.023	0.056
-528.048	-152.154	0.444	-0.032
-527.033	-0.432	0.085	0.060
-526.018	193.779	0.208	0.314
-525.004	-75.980	-0.110	0.039
-523.989	-200.000	0.034	-0.181
-522.975	-74.435	-0.218	-0.078
-521.960	258.586	0.082	-0.141
-520.945	-161.913	-0.203	0.010
-519.931	91.865	0.137	0.154
-518.916	-22.273	-0.186	0.112
-517.902	-155.752	0.254	0.016
-516.887	-147.087	-0.075	-0.006
-515.872	46.478	-0.141	-0.130
-514.858	73.970	-0.119	0.124
-513.843	800.000	-0.009	0.039
-512.829	760.584	0.136	0.366
-511.814	-130.605	0.153	0.020
-510.799	371.972	0.167	-0.337
-509.785	800.000	0.117	0.348
-508.770	65.006	-0.025	0.025
-507.756	113.891	0.065	-0.079
-506.741	73.113	-0.197	-0.205
-505.726	-75.067	0.292	0.104
-504.712	-200.000	-0.008	-0.249
-503.697	-104.274	-0.289	0.067
-502.683	-28.854	-0.149	-0.085
-501.668	27.776	0.173	-0.144
-500.653	-117.040	0.277	-0.050
-499.639	-119.870	-0.067	0.011
-498.624	800.000	0.067	-0.274
-497.610	-151.153	-0.203	0.015
-496.595	-178.283	-0.205	-0.005
-495.581	261.776	0.027	-0.047
-494.566	29.578	0.167	0.141
-493.551	249.925	-0.141	-0.237
-492.537	191.615	0.080	-0.119
-491.522	318.211	-0.181	0.341
-490.508	-53.802	0.443	-0.201
-489.493	13.350	-0.122	0.094
-488.478	-89.096	-0.287	-0.084
-487.464	-90.929	0.167	-0.048
-486.449	18.103	0.212	-0.168
-485.435	55.454	0.247	-0.238
-484.420	-86.019	-0.112	0.034
-483.405	-44.822	0.129	-0.064
-482.391	-72.994	0.070	0.025
-481.376	63.722	0.093	0.093
-480.362	-196.061	-0.196	-0.001
-479.347	243.991	0.120	0.200
-478.332	-200.000	0.024	0.201
-477.318	-81.648	0.563	-0.183
-476.303	51.753	0.250	0.236
-475.289	-200.000	0.019	0.156
-474.274	-72.553	0.148	0.054
-473.259	81.432	0.260	-0.279
-472.245	105.365	0.126	-0.148
-471.230	3.316	-0.169	-0.122
-470.216	-30.728	0.094	-0.053
-469.201	42.422	-0.080	-0.072
-468.186	800.000	-0.048	-0.187
-467.172	-21.941	0.083	-0.050
-466.157	-200.000	-0.036	0.175
-465.143	-62.470	-0.064	0.027
-464.128	-124.742	0.304	0.047
-463.113	-50.777	0.222	-0.104
-462.099	5.122	0.101	-0.074
-461.084	33.621	0.322	0.278
-460.070	15.980	0.304	0.237
-459.055	800.000	-0.066	0.217
-458.040	-200.000	-0.081	0.361
-457.026	6.308	-0.025	0.019
-456.011	-79.591	-0.182	-0.061
-454.997	-200.000	-0.045	-0.213
-453.982	-22.554	-0.231	-0.138
-452.968	98.273	0.025	0.029
-451.953	-49.797	-0.190	0.090
-450.938	10.251	0.131	0.099
-449.924	-200.000	-0.061	0.395
-448.909	-200.000	0.030	-0.254
-447.895	20.655	0.160	0.129
-446.880	445.503	0.076	0.165
-445.865	300.088	-0.070	-0.128
-444.851	-200.000	-0.042	-0.240
-443.836	305.375	-0.128	0.236
-442.822	44.461	-0.273	0.248
-441.807	-151.725	0.206	-0.015
-440.792	-200.000	0.043	-0.194
-439.778	17.399	0.152	0.119
-438.763	-200.000	-0.006	-0.155
-437.749	-4.684	-0.134	-0.092
-436.734	470.866	0.050	0.111
-435.719	-200.000	0.001	0.158
-434.705	-17.147	0.125	-0.078
-433.690	-200.000	-0.036	-0.466
-432.676	-200.000	0.055	0.295
-431.661	-175.890	0.442	0.012
-430.646	-14.719	-0.227	-0.145
-429.632	-34.868	0.249	0.135
-428.617	143.031	-0.116	0.153
-427.603	-200.000	-0.016	-0.208
-426.588	714.881	-0.027	-0.072
-425.573	-118.886	-0.275	-0.048
-424.559	-101.139	-0.190	0.046
-423.544	524.513	0.147	0.341
-422.530	-78.462	-0.339	-0.115
-421.515	800.000	0.113	0.360
-420.500	11.535	-0.163	0.124
-419.486	39.420	0.053	0.047
-418.471	-118.219	0.150	-0.026
-417.457	172.228	0.087	0.124
-416.442	800.000	-0.090	-0.324
-415.428	-17.810	0.097	0.060
-414.413	400.135	0.170	-0.353
-413.398	-138.083	-0.206	0.023
-412.384	-79.805	-0.415	0.138
-411.369	-200.000	0.025	-0.218
-410.355	342.095	0.059	0.114
-409.340	-200.000	-0.064	0.367
-408.325	47.582	-0.257	-0.238
-407.311	-85.526	0.280	-0.086
-406.296	38.739	-0.126	0.112
-405.282	-200.000	0.035	0.317
-404.267	-17.765	0.240	0.149
-403.252	-200.000	0.032	-0.414
-402.238	373.823	0.061	0.123
-401.223	792.909	-0.073	-0.199
-400.209	-200.000	0.039	-0.285
-399.194	388.220	0.050	-0.102
-398.179	-200.000	-0.012	-0.260
-397.165	-200.000	-0.081	-0.386
-396.150	-112.114	-0.190	-0.038
-395.136	-42.830	0.038	-0.019
-394.121	-86.525	-0.117	0.035
-393.106	-152.863	0.618	-0.043
-392.092	-200.000	-0.020	-0.126
-391.077	-13.941	0.153	0.098
-390.063	-20.266	0.268	-0.163
-389.048	-139.106	-0.113	-0.012
-388.033	8.308	-0.374	0.278
-387.019	-144.959	0.255	-0.023
-386.004	-33.620	-0.067	-0.036
-384.990	291.518	0.152	0.273
-383.975	800.000	0.070	-0.197
-382.960	-123.637	-0.112	0.018
-381.946	167.178	-0.092	-0.129
-380.931	-29.357	-0.027	-0.015
-379.917	469.589	-0.026	0.059
-378.902	91.594	0.106	-0.118
-377.888	123.215	0.212	0.262
-376.873	800.000	-0.085	0.267
-375.858	519.128	0.061	-0.141
-374.844	-80.019	0.217	-0.072
-373.829	106.156	0.099	-0.116
-372.815	37.244	-0.182	-0.159
-371.800	-106.091	0.210	-0.047
-370.785	800.000	0.049	-0.142
-369.771	-141.319	-0.133	0.013
-368.756	800.000	-0.063	-0.190
-367.742	306.836	-0.090	0.166
-366.727	-200.000	-0.003	0.134
-365.712	-177.388	-0.158	0.004
-364.698	26.611	0.174	0.144
-363.683	5.709	-0.191	-0.140
-362.669	-172.749	0.083	-0.003
-361.654	-161.434	0.236	-0.012
-360.639	800.000	-0.040	0.117
-359.625	-200.000	0.009	0.187
-358.610	275.391	-0.223	-0.391
-357.596	-137.353	0.160	-0.018
-356.581	-200.000	0.003	-0.027
-355.566	62.622	0.227	0.224
-354.552	291.584	0.028	-0.050
-353.537	-200.000	0.046	-0.384
-352.523	362.426	0.081	0.161
-351.508	-200.000	0.010	-0.213
-350.493	-18.361	0.094	-0.058
-349.479	119.741	0.118	-0.145
-348.464	-84.864	-0.124	0.039
-347.450	-154.769	-0.297	0.019
-346.435	-106.412	0.077	-0.017
-345.420	-200.000	0.046	0.223
-344.406	-200.000	-0.043	-0.294
-343.391	-131.610	-0.163	0.021
-342.377	-200.000	-0.011	0.263
-341.362	49.578	-0.156	0.145
-340.348	-130.112	0.067	0.009
-339.333	121.534	-0.252	-0.310
-338.318	66.566	-0.177	-0.178
-337.304	-10.898	-0.209	0.136
-336.289	-135.096	-0.123	-0.015
-335.275	-110.436	0.107	0.022
-334.260	97.682	-0.237	-0.269
-333.245	-200.000	0.051	-0.222
-332.231	248.540	0.139	-0.232
-331.216	105.207	-0.056	-0.065
-330.202	-94.674	0.160	-0.043
-329.187	36.743	-0.091	-0.080
-328.172	21.373	-0.251	-0.202
-327.158	20.962	0.136	-0.109
-326.143	-165.909	0.194	-0.008
-325.129	46.799	-0.044	-0.040
-324.114	-48.368	0.531	0.252
-323.099	800.000	-0.069	0.196
-322.085	357.622	0.047	-0.092
-321.070	800.000	-0.059	-0.164
-320.056	129.969	-0.124	0.157
-319.041	76.982	0.146	0.153
-318.026	288.137	0.066	-0.117
-317.012	5.032	-0.348	0.253
-315.997	169.400	0.057	0.081
-314.983	-113.439	-0.189	-0.037
-313.968	-200.000	0.009	0.099
-312.953	63.628	-0.328	0.324
-311.939	51.054	-0.217	0.203
-310.924	143.648	-0.138	-0.182
-309.910	-200.000	-0.062	0.418
-308.895	-86.327	0.275	0.083
-307.880	-117.028	-0.042	0.008
-306.866	-144.433	-0.071	0.007
-305.851	-125.358	0.262	-0.039
-304.837	800.000	0.039	0.141
-303.822	85.801	0.154	0.167
-302.807	-200.000	-0.034	0.168
-301.793	-2.712	-0.118	-0.082
-300.778	22.714	-0.129	0.104
-299.764	309.705	-0.103	0.190
-298.749	-137.922	0.327	-0.036
-297.735	105.926	-0.202	0.236
-296.720	-155.734	0.298	0.019
-295.705	-26.639	-0.563	0.325
-294.691	-78.298	0.369	0.125
-293.676	-89.605	-0.327	-0.095
-292.662	-110.042	-0.288	0.059
-291.647	-13.785	-0.273	0.174
-290.632	-200.000	-0.010	0.357
-289.618	176.316	-0.055	-0.079
-288.603	-175.382	0.258	0.007
-287.589	65.782	0.023	0.023
-286.574	-45.446	-0.077	0.038
-285.559	800.000	-0.036	-0.111
-284.545	800.000	0.041	-0.138
-283.530	708.974	0.047	0.122
-282.516	-200.000	-0.041	0.190
-281.501	14.621	0.196	-0.151
-280.486	-56.224	-0.233	0.102
-279.472	-60.134	-0.048	0.020
-278.457	-200.000	0.010	0.069
-277.443	-121.652	0.322	0.053
-276.428	-200.000	0.010	-0.281
-275.413	441.293	0.039	-0.085
-274.399	63.755	0.134	-0.132
-273.384	16.193	-0.270	-0.210
-272.370	228.950	-0.066	-0.107
-271.355	2.560	-0.024	-0.017
-270.340	30.950	-0.188	0.159
-269.326	138.298	-0.056	0.073
-268.311	-75.429	0.105	0.037
-267.297	52.728	0.254	-0.240
-266.282	409.897	0.114	0.239
-265.267	-41.249	0.308	-0.157
-264.253	290.656	0.103	-0.184
-263.238	773.741	-0.063	0.171
-262.224	-127.874	-0.103	0.015
-261.209	800.000	-0.019	0.067
-260.195	-162.024	-0.308	0.015
-259.180	40.447	0.052	0.047
-258.165	-160.060	-0.185	0.010
-257.151	-23.649	-0.216	0.128
-256.136	-93.230	-0.088	-0.024
-255.122	-58.491	0.215	0.092
-254.107	333.070	-0.171	0.325
-253.092	-200.000	-0.108	-0.511
-252.078	198.388	0.046	0.069
-251.063	-68.430	-0.208	-0.079
-250.049	332.259	0.065	-0.123
-249.034	-54.806	0.130	0.058
-248.019	33.766	-0.155	0.133
-247.005	800.000	0.014	-0.048
-245.990	-200.000	-0.206	0.001
-244.976	97.768	-0.253	0.287
-243.961	-137.845	0.141	0.016
-242.946	-55.384	0.268	-0.119
-241.932	-200.000	-0.019	0.393
-240.917	-77.147	-0.298	0.102
-239.903	394.626	-0.082	-0.168
-238.888	-200.000	0.023	-0.291
-237.873	800.000	-0.035	0.145
-236.859	-200.000	-0.045	-0.288
-235.844	800.000	0.054	0.179
-234.830	-200.000	0.024	-0.232
-233.815	-130.856	0.160	0.021
-232.800	800.000	0.073	0.227
-231.786	-51.518	-0.227	0.104
-230.771	761.506	-0.061	-0.163
-229.757	496.555	-0.068	0.153
-228.742	800.000	0.049	0.169
-227.727	482.722	0.074	-0.166
-226.713	116.341	0.013	0.016
-225.698	-109.271	0.100	0.021
-224.684	-200.000	0.015	-0.084
-223.669	-151.215	0.175	0.013
-222.655	-200.000	0.033	0.159
-221.640	125.032	0.069	-0.085
-220.625	-200.000	0.031	0.228
-219.611	-140.461	-0.298	0.031
-218.596	-200.000	0.035	0.170
-217.582	-151.568	-0.172	-0.012
-216.567	231.508	0.092	-0.148
-215.552	-200.000	0.031	-0.162
-214.538	51.413	-0.020	-0.018
-213.523	-90.850	-0.302	0.086
-212.509	-200.000	-0.084	0.459
-211.494	168.554	-0.040	0.056
-210.479	-75.052	0.128	-0.045
-209.465	65.806	0.048	-0.048
-208.450	800.000	-0.055	0.170
-207.436	12.943	-0.333	-0.253
-206.421	218.653	-0.013	-0.020
-205.406	-25.006	-0.356	0.207
-204.392	-8.378	0.236	-0.156
-203.377	-200.000	0.011	0.247
-202.363	87.842	0.165	0.180
-201.348	-16.283	0.383	0.239
-200.333	-125.851	-0.192	0.028
-199.319	-200.000	-0.006	-0.071
-198.304	-114.004	0.198	0.038
-197.290	110.060	0.349	0.411
-196.275	-32.203	-0.032	-0.018
-195.260	-200.000	0.075	-0.368
-194.246	35.635	-0.122	-0.105
-193.231	242.912	0.188	0.310
-192.217	-46.031	0.174	-0.084
-191.202	-22.184	-0.133	-0.079
-190.187	-145.130	-0.224	0.020
-189.173	17.109	0.098	-0.076
-188.158	-200.000	0.015	0.103
-187.144	-55.162	0.379	-0.167
-186.129	-63.168	0.290	0.118
-185.114	-200.000	0.003	0.083
-184.100	800.000	-0.159	-0.476
-183.085	-120.652	0.170	-0.028
-182.071	291.155	-0.118	0.210
-181.056	707.264	-0.058	-0.150
-180.042	-165.192	-0.150	0.006
-179.027	37.120	-0.040	-0.035
-178.012	-200.000	-0.101	-0.455
-176.998	-102.857	0.187	-0.044
-175.983	64.021	0.065	-0.065
-174.969	-34.408	0.163	0.087
-173.954	141.696	-0.015	0.019
-172.939	-75.945	-0.093	0.032
-171.925	142.575	0.144	0.187
-170.910	-200.000	-0.036	0.242
-169.896	-200.000	-0.008	0.140
-168.881	-79.961	0.194	-0.064
-167.866	-103.972	-0.137	-0.031
-166.852	-200.000	-0.012	-0.324
-165.837	-118.883	0.235	0.040
-164.823	239.474	-0.248	0.404
-163.808	177.364	0.011	0.015
-162.793	80.041	0.208	0.219
-161.779	68.046	0.090	-0.090
-160.764	800.000	-0.043	-0.146
-159.750	-34.777	-0.089	-0.048
-158.735	52.343	-0.112	0.105
-157.720	-200.000	-0.006	0.226
-156.706	-19.138	-0.096	-0.059
-155.691	58.033	0.085	-0.082
-154.677	-149.155	0.212	-0.017
-153.662	-157.991	-0.219	-0.013
-152.647	-143.631	0.092	0.009
-151.633	18.476	-0.158	-0.123
-150.618	44.758	0.189	-0.171
-149.604	781.666	0.099	-0.266
-148.589	-200.000	-0.010	0.086
-147.574	800.000	-0.065	-0.195
-146.560	800.000	0.103	0.292
-145.545	-200.000	0.003	0.090
-144.531	5.659	-0.135	-0.098
-143.516	-58.672	0.140	-0.060
-142.502	46.147	0.100	-0.091
-141.487	-6.885	-0.125	-0.083
-140.472	226.152	-0.074	-0.118
-139.458	135.740	0.142	0.182
-138.443	88.910	-0.176	0.192
-137.429	-200.000	0.063	0.422
-136.414	-123.211	-0.058	-0.009
-135.399	-200.000	-0.018	0.196
-134.385	382.811	0.071	0.142
-133.370	49.592	-0.190	0.176
-132.356	-95.275	-0.321	-0.085
-131.341	-123.068	0.234	0.037
-130.326	92.010	-0.054	-0.060
-129.312	-74.103	0.126	-0.045
-128.297	-170.825	-0.277	0.009
-127.283	65.360	-0.160	-0.159
-126.268	-80.320	-0.276	-0.090
-125.253	-99.128	-0.160	-0.040
-124.239	-200.000	-0.024	0.203
-123.224	32.963	-0.246	0.208
-122.210	800.000	-0.195	0.541
-121.195	162.529	0.091	0.125
-120.180	-200.000	0.003	0.178
-119.166	-66.961	-0.116	0.045
-118.151	-119.171	-0.247	-0.042
-117.137	105.841	-0.089	0.103
-116.122	3.139	0.274	0.195
-115.107	-200.000	0.050	-0.256
-114.093	-14.449	-0.430	-0.271
-113.078	169.578	0.143	-0.201
-112.064	-82.935	-0.339	0.107
-111.049	334.322	0.120	0.228
-110.034	796.046	-0.140	-0.378
-109.020	800.000	-0.083	-0.242
-108.005	-155.400	-0.507	0.032
-106.991	-144.207	0.148	-0.014
-105.976	-200.000	0.010	0.097
-104.962	158.415	0.176	-0.239
-103.947	-114.348	0.205	0.039
-102.932	-200.000	-0.060	0.266
-101.918	35.072	0.145	0.124
-100.903	-127.248	0.134	0.019
-99.889	293.083	0.127	0.227
-98.874	88.281	-0.170	0.184
-97.859	-200.000	0.004	0.021
-96.845	14.466	0.186	0.142
-95.830	578.868	0.013	0.031
-94.816	-200.000	0.013	0.180
-93.801	-73.432	-0.307	-0.110
-92.786	129.212	0.170	-0.212
-91.772	303.064	-0.088	0.159
-90.757	-183.134	0.130	-0.002
-89.743	-116.639	-0.248	-0.045
-88.728	-200.000	-0.014	-0.180
-87.713	134.935	0.142	0.180
-86.699	143.273	0.103	0.134
-85.684	71.915	-0.039	-0.040
-84.670	-40.830	0.247	0.125
-83.655	15.018	0.300	0.230
-82.640	-171.259	0.274	0.009
-81.626	659.159	0.031	0.078
-80.611	31.863	0.185	0.156
-79.597	35.004	-0.202	0.173
-78.582	800.000	0.095	0.269
-77.567	-116.864	-0.224	0.040
-76.553	-140.148	0.187	0.019
-75.538	-16.626	0.204	-0.126
-74.524	800.000	0.024	-0.092
-73.509	-162.340	0.174	-0.008
-72.494	-139.009	-0.189	-0.020
-71.480	722.039	-0.152	0.396
-70.465	132.298	-0.043	0.054
-69.451	-104.084	-0.333	-0.076
-68.436	-77.111	-0.246	-0.084
-67.422	-200.000	-0.033	0.214
-66.407	-144.810	0.090	-0.008
-65.392	284.463	0.188	0.330
-64.378	800.000	-0.047	0.175
-63.363	266.032	0.154	-0.263
-62.349	-72.263	0.156	0.056
-61.334	-4.981	-1.009	-0.679
-60.319	206.310	0.339	0.516
-59.305	140.519	-0.658	-0.849
-58.290	622.130	0.612	1.506
-57.276	-200.000	0.339	1.557
-56.261	-200.000	116.044	650.840
-55.246	512.461	1539.728	3503.957
-54.232	175.710	2712.965	3843.614
-53.217	106.049	2182.257	2523.394
-52.203	37.453	1698.446	1470.960
-51.188	29.826	1513.998	1259.484
-50.173	27.561	1489.155	1223.575
-49.159	51.042	1548.812	1434.105
-48.144	49.277	1563.613	1435.665
-47.130	29.879	1519.359	1264.106
-46.115	26.989	1503.887	1231.606
-45.100	26.692	1500.641	1226.891
-44.086	26.720	1498.771	1225.501
-43.071	26.625	1496.819	1223.216
-42.057	26.669	1495.271	1222.194
-41.042	26.573	1493.836	1220.329
-40.027	26.542	1492.390	1218.890
-39.013	26.654	1490.644	1218.168
-37.998	26.602	1489.406	1216.757
-36.984	26.646	1488.567	1216.319
-35.969	26.651	1487.055	1215.071
-34.954	26.629	1485.872	1213.907
-33.940	26.715	1484.187	1213.061
-32.925	26.709	1482.842	1211.873
-31.911	26.712	1481.597	1210.830
-30.896	26.720	1480.323	1209.793
-29.881	26.715	1479.037	1208.662
-28.867	26.784	1477.505	1207.819
-27.852	26.768	1476.659	1206.975
-26.838	26.715	1475.357	1205.511
-25.823	26.769	1473.431	1204.245
-24.809	26.743	1472.217	1203.036
-23.794	26.718	1470.521	1201.436
-22.779	26.748	1469.109	1200.428
-21.765	26.798	1468.400	1200.134
-20.750	26.752	1467.182	1198.787
-19.736	26.727	1465.908	1197.533
-18.721	26.675	1464.961	1196.373
-17.706	26.719	1463.898	1195.746
-16.692	26.675	1462.516	1194.277
-15.677	26.747	1461.741	1194.070
-14.663	26.546	1461.295	1192.334
-13.648	26.652	1459.803	1191.766
-12.633	26.574	1459.515	1190.972
-11.619	26.697	1458.726	1191.093
-10.604	26.621	1457.579	1189.611
-9.590	26.683	1456.210	1188.848
-8.575	26.657	1455.366	1187.946
-7.560	26.695	1454.977	1187.831
-6.546	26.649	1453.817	1186.530
-5.531	26.730	1453.092	1186.421
-4.517	26.575	1452.481	1184.865
-3.502	26.509	1451.508	1183.590
-2.487	26.622	1450.025	1183.072
-1.473	26.579	1449.521	1182.335
-0.458	26.684	1448.048	1181.771
0.556	26.866	1438.094	1169.770
1.571	23.678	1412.694	1128.772
2.586	20.155	1351.702	1058.478
3.600	18.418	1269.019	983.674
4.615	17.096	1224.504	941.756
5.629	14.679	1168.216	885.584
6.644	8.481	1087.701	793.778
7.659	3.964	1051.692	745.707
8.673	3.464	1046.323	739.435
9.688	3.392	1043.804	737.243
10.702	3.325	1041.994	735.582
11.717	3.469	1039.543	734.473
12.731	5.015	1040.711	742.598
13.746	11.323	1049.007	778.653
14.761	17.444	1057.631	814.364
15.775	19.463	1059.255	825.206
16.790	19.113	1057.592	822.164
17.804	18.029	1055.762	815.502
18.819	17.212	1054.120	810.264
19.834	16.777	1052.672	807.010
20.848	16.640	1051.695	805.536
21.863	16.566	1051.271	804.790
22.877	16.293	1050.199	802.598
23.892	16.132	1049.325	801.094
24.907	16.062	1048.487	800.052
25.921	16.048	1048.450	799.887
26.936	16.029	1047.308	798.856
27.950	16.050	1046.024	797.904
28.965	16.195	1044.701	797.508
29.980	16.233	1044.140	797.189
30.994	16.360	1042.513	796.479
32.009	16.452	1041.838	796.324
33.023	16.353	1041.708	795.688
34.038	16.298	1040.846	794.700
35.053	16.304	1039.516	793.642
36.067	16.211	1038.648	792.473
37.082	16.106	1037.727	791.207
38.096	16.251	1036.745	791.068
39.111	16.370	1036.078	791.045
40.126	16.392	1035.461	790.611
41.140	16.199	1034.800	789.133
42.155	15.941	1033.584	786.928
43.169	16.005	1031.815	785.809
44.184	15.822	1031.425	784.590
45.199	15.866	1030.157	783.763
46.213	15.867	1029.482	783.186
47.228	16.065	1028.037	782.937
48.242	16.053	1027.240	782.203
49.257	16.125	1026.863	782.182
50.271	16.177	1025.243	781.120
51.286	16.256	1024.759	781.045
52.301	16.359	1023.944	780.831
53.315	16.347	1022.860	779.883
54.330	16.157	1022.407	778.590
55.344	16.078	1021.165	777.211
56.359	15.992	1019.957	775.826
57.374	16.073	1019.051	775.442
58.388	15.931	1018.697	774.450
59.403	16.046	1017.188	773.763
60.417	15.859	1017.084	772.755
61.432	15.748	1016.642	771.844
62.447	15.866	1015.334	771.322
63.461	15.805	1014.662	770.466
64.476	15.917	1013.366	769.924
65.490	15.737	1012.526	768.394
66.505	15.803	1011.763	768.051
67.520	15.792	1010.989	767.344
68.534	15.840	1010.217	766.911
69.549	15.797	1009.721	766.270
70.563	15.905	1008.551	765.803
71.578	15.890	1007.798	765.096
72.593	15.742	1006.894	763.670
73.607	15.712	1005.753	762.602
74.622	15.706	1005.137	762.042
75.636	15.610	1004.329	760.927
76.651	15.625	1003.497	760.296
77.666	15.793	1002.806	760.463
78.680	15.801	1001.836	759.697
79.695	15.663	1001.899	759.057
80.709	15.849	1000.780	758.981
81.724	15.788	1000.550	758.463
82.739	16.043	999.224	758.538
83.753	15.959	998.882	757.834
84.768	16.036	998.487	757.811
85.782	16.247	997.673	758.076
86.797	16.283	997.065	757.711
87.812	16.452	996.006	757.593
88.826	16.169	995.308	755.730
89.841	16.101	994.426	754.689
90.855	16.188	993.637	754.413
91.870	16.281	992.889	754.193
92.884	16.408	991.930	753.963
93.899	16.364	991.577	753.432
94.914	16.380	990.688	752.763
95.928	16.442	989.774	752.275
96.943	16.482	989.323	752.044
97.957	16.350	988.050	750.423
98.972	16.186	987.468	749.188
99.987	16.373	986.663	749.339
101.001	16.281	986.174	748.494
102.016	16.322	985.257	747.913
103.030	16.362	983.959	747.039
104.045	16.318	983.315	746.289
105.060	16.312	982.366	745.476
106.074	16.247	981.264	744.289
107.089	16.137	980.614	743.247
108.103	15.823	979.944	741.289
109.118	15.989	978.542	740.892
110.133	15.856	977.892	739.748
111.147	16.014	976.579	739.387
112.162	15.931	975.986	738.508
113.176	15.904	975.474	737.933
114.191	15.818	974.848	737.021
115.206	16.098	973.294	737.005
116.220	16.077	973.051	736.663
117.235	15.926	972.522	735.537
118.249	15.957	971.514	734.844
119.264	16.036	970.424	734.301
120.279	15.797	969.859	732.765
121.293	15.860	969.460	732.673
122.308	15.788	968.238	731.373
123.322	15.728	967.264	730.313
124.337	15.769	966.504	729.852
125.352	15.647	965.204	728.277
126.366	15.644	963.962	727.262
127.381	15.760	962.965	726.948
128.395	15.633	962.425	725.929
129.410	15.787	960.660	725.196
130.424	15.800	960.494	725.064
131.439	15.767	959.777	724.314
132.454	15.936	958.948	724.353
133.468	16.107	957.725	724.099
134.483	15.977	957.493	723.300
135.497	15.950	956.763	722.571
136.512	16.079	955.838	722.361
137.527	16.000	954.906	721.255
138.541	16.021	954.271	720.798
139.556	15.906	954.005	720.044
140.570	16.030	952.873	719.654
141.585	16.177	952.026	719.579
142.600	16.189	951.964	719.521
143.614	16.179	950.952	718.648
144.629	16.268	950.438	718.574
145.643	16.440	949.383	718.447
146.658	16.397	948.607	717.610
147.673	16.225	947.843	716.241
148.687	16.242	946.390	715.149
149.702	16.109	945.637	713.957
150.716	16.103	945.049	713.422
151.731	16.147	943.746	712.561
152.746	16.091	943.740	712.258
153.760	16.088	942.255	711.060
154.775	16.272	941.653	711.321
155.789	16.249	941.170	710.795
156.804	16.324	940.214	710.325
157.819	16.350	939.326	709.701
158.833	16.337	939.107	709.418
159.848	16.295	938.563	708.767
160.862	16.460	937.498	708.594
161.877	16.346	937.129	707.772
162.892	16.249	935.681	706.213
163.906	16.210	934.923	705.416
164.921	16.197	934.017	704.613
165.935	16.186	932.883	703.651
166.950	16.115	932.166	702.753
167.964	16.200	931.626	702.636
168.979	16.377	929.917	702.021
169.994	16.279	929.119	700.951
171.008	16.218	928.270	699.995
172.023	16.161	928.129	699.588
173.037	16.459	927.149	700.024
174.052	16.498	926.601	699.710
175.067	16.429	925.792	698.749
176.081	16.340	925.061	697.768
177.096	16.162	924.177	696.305
178.110	16.276	923.087	695.892
179.125	16.103	922.768	694.877
180.140	16.192	922.029	694.625
181.154	16.230	921.183	694.082
182.169	16.436	920.449	694.317
183.183	16.364	920.222	693.788
184.198	16.647	919.183	694.104
185.213	16.596	918.425	693.261
186.227	16.595	917.812	692.734
187.242	16.669	917.048	692.398
188.256	16.675	916.803	692.177
189.271	16.725	915.800	691.562
190.286	16.875	914.966	691.482
191.300	16.541	913.846	689.214
192.315	16.254	913.069	687.399
193.329	16.117	912.777	686.559
194.344	16.244	911.876	686.339
195.359	16.274	911.568	686.167
196.373	16.311	910.968	685.806
197.388	16.631	910.052	686.353
198.402	16.778	909.476	686.452
199.417	16.796	909.697	686.634
200.432	16.848	908.913	686.190
201.446	16.882	908.378	685.864
202.461	17.077	907.972	686.286
203.475	16.969	907.670	685.557
204.490	16.999	907.333	685.364
205.504	16.789	906.421	683.767
206.519	16.829	904.827	682.669
207.534	16.868	904.697	682.664
208.548	16.760	903.937	681.597
209.563	16.804	903.118	681.098
210.577	16.867	902.296	680.668
211.592	16.698	901.845	679.592
212.607	16.848	901.613	679.958
213.621	17.009	900.702	679.856
214.636	16.932	899.877	678.864
215.650	16.865	899.079	677.934
216.665	16.834	898.851	677.578
217.680	17.133	898.484	678.434
218.694	17.019	897.844	677.436
219.709	17.064	897.564	677.347
220.723	17.092	896.804	676.823
221.738	17.093	896.178	676.295
222.753	17.058	895.400	675.508
223.767	16.986	894.472	674.464
224.782	17.066	893.731	674.163
225.796	17.249	893.019	674.290
226.811	17.260	892.498	673.884
227.826	17.226	891.518	672.950
228.840	17.100	891.179	672.132
229.855	17.067	889.998	671.055
230.869	17.032	889.789	670.699
231.884	17.073	888.746	670.015
232.899	16.999	888.323	669.346
233.913	17.027	887.349	668.661
234.928	16.990	886.894	668.113
235.942	16.963	885.939	667.229
236.957	16.720	885.851	666.147
237.972	16.810	884.775	665.636
238.986	17.006	884.025	665.779
240.001	16.943	883.770	665.281
241.015	17.066	882.640	664.853
242.030	17.054	882.093	664.337
243.045	17.125	881.905	664.413
244.059	17.099	881.163	663.692
245.074	17.236	880.461	663.641
246.088	17.250	879.895	663.210
247.103	17.334	879.257	663.000
248.117	17.267	878.858	662.380
249.132	17.491	878.264	662.743
250.147	17.469	877.957	662.370
251.161	17.699	877.126	662.577
252.176	17.580	876.955	661.927
253.190	17.934	875.558	662.186
254.205	17.734	875.082	660.992
255.220	17.812	874.840	661.055
256.234	17.817	874.210	660.538
257.249	17.755	873.513	659.715
258.263	17.815	872.794	659.343
259.278	17.709	872.216	658.439
260.293	17.799	871.961	658.536
261.307	17.840	871.255	658.102
262.322	17.825	870.887	657.711
263.336	18.013	870.434	658.032
264.351	18.042	869.798	657.607
265.366	17.883	869.274	656.540
266.380	17.858	868.528	655.823
267.395	17.995	867.729	655.686
268.409	17.939	866.828	654.732
269.424	17.948	866.118	654.175
270.439	17.958	865.388	653.604
271.453	17.843	864.388	652.352
272.468	17.761	863.884	651.598
273.482	17.736	863.466	651.131
274.497	17.856	862.867	651.079
275.512	17.850	861.759	650.162
276.526	17.838	861.015	649.496
277.541	17.865	860.818	649.394
278.555	17.907	860.010	648.889
279.570	17.958	860.075	649.074
280.585	18.148	859.187	649.067
281.599	18.086	859.048	648.668
282.614	18.020	858.010	647.576
283.628	17.895	857.247	646.470
284.643	17.929	856.819	646.221
285.657	17.826	856.575	645.589
286.672	17.953	855.913	645.513
287.687	17.973	855.344	645.103
288.701	18.005	854.539	644.558
289.716	18.187	854.026	644.800
290.730	18.045	853.608	643.894
291.745	18.118	852.933	643.601
292.760	18.143	852.105	643.014
293.774	18.299	851.733	643.262
294.789	18.255	851.132	642.585
295.803	18.265	850.409	642.021
296.818	18.064	850.004	640.904
297.833	18.163	849.237	640.642
298.847	17.992	848.951	639.727
299.862	18.088	848.311	639.547
300.876	18.170	847.273	639.017
301.891	18.303	846.677	639.006
302.906	18.328	845.934	638.482
303.920	18.400	845.420	638.307
304.935	18.537	844.709	638.221
305.949	18.479	844.561	637.837
306.964	18.480	843.913	637.294
307.979	18.472	843.164	636.643
308.993	18.486	842.837	636.394
310.008	18.548	842.437	636.265
311.022	18.560	841.715	635.708
312.037	18.683	841.008	635.574
313.052	18.511	840.517	634.508
314.066	18.334	839.724	633.201
315.081	18.302	839.200	632.631
316.095	18.274	838.630	632.040
317.110	18.234	838.389	631.655
318.125	18.282	837.467	631.082
319.139	18.360	836.939	630.919
320.154	18.391	836.545	630.679
321.168	18.205	836.566	629.952
322.183	18.161	835.867	629.210
323.197	18.478	835.220	629.830
324.212	18.518	834.381	629.290
325.227	18.323	834.277	628.439
326.241	18.511	833.292	628.330
327.256	18.316	833.305	627.569
328.270	18.288	832.379	626.715
329.285	18.350	831.614	626.310
330.300	18.402	830.931	625.930
331.314	18.419	830.225	625.406
332.329	18.484	830.032	625.443
333.343	18.581	829.193	625.109
334.358	18.662	828.838	625.082
335.373	18.577	828.587	624.526
336.387	18.664	827.930	624.291
337.402	18.846	827.213	624.358
338.416	18.760	826.746	623.638
339.431	18.798	826.508	623.543
340.446	18.920	825.828	623.414
341.460	18.878	825.145	622.692
342.475	19.083	824.614	622.980
343.489	19.027	824.304	622.488
344.504	19.135	823.261	622.034
345.519	19.076	823.244	621.753
346.533	19.285	822.706	622.047
347.548	19.171	822.410	621.355
348.562	19.022	821.479	620.062
349.577	18.865	821.218	619.244
350.592	18.721	820.767	618.329
351.606	18.681	820.296	617.777
352.621	18.744	819.714	617.509
353.635	18.724	819.393	617.143
354.650	18.906	818.511	617.076
355.665	18.850	818.512	616.822
356.679	19.104	817.277	616.748
357.694	18.976	817.137	616.128
358.708	18.962	816.800	615.770
359.723	18.980	816.360	615.447
360.738	18.951	815.786	614.855
361.752	18.965	815.041	614.291
362.767	19.088	814.839	614.523
363.781	19.124	814.543	614.374
364.796	19.334	813.813	614.518
365.810	19.451	813.495	614.638
366.825	19.275	813.524	613.979
367.840	19.503	812.563	614.010
368.854	19.463	812.187	613.531
369.869	19.387	811.917	613.005
370.883	19.339	811.423	612.405
371.898	19.239	810.780	611.511
372.913	19.417	810.179	611.636
373.927	19.411	809.952	611.388
374.942	19.378	808.987	610.490
375.956	19.368	808.611	610.116
376.971	19.623	807.856	610.393
377.986	19.564	807.221	609.651
379.000	19.724	807.136	610.097
380.015	19.619	806.739	609.372
381.029	19.714	805.832	608.968
382.044	19.594	805.320	608.106
383.059	19.610	804.763	607.686
384.073	19.569	804.122	607.007
385.088	19.547	803.791	606.623
386.102	19.302	803.231	605.289
387.117	19.359	802.653	604.998
388.132	19.478	802.022	604.888
389.146	19.662	801.651	605.199
390.161	19.423	801.306	604.047
391.175	19.700	800.801	604.582
392.190	19.759	800.367	604.408
393.205	19.738	800.055	604.043
394.219	19.580	799.764	603.218
395.234	19.352	799.643	602.278
396.248	19.411	798.600	601.647
397.263	19.364	797.940	600.933
398.278	19.297	797.621	600.403
399.292	19.268	796.985	599.772
400.307	19.285	796.936	599.740
401.321	19.467	796.143	599.725
402.336	19.547	795.459	599.434
403.350	19.563	795.408	599.397
404.365	19.496	795.254	598.997
405.380	19.688	794.357	598.931
406.394	19.737	794.089	598.846
407.409	19.810	793.686	598.741
408.423	20.003	793.378	599.125
409.438	19.926	792.893	598.438
410.453	19.988	792.653	598.421
411.467	19.856	792.320	597.658
412.482	19.934	791.583	597.319
413.496	20.187	791.036	597.728
414.511	20.150	790.871	597.420
415.526	20.122	790.837	597.247
416.540	20.085	790.267	596.635
417.555	20.101	789.497	596.056
418.569	20.106	789.115	595.733
419.584	20.240	788.338	595.553
420.599	20.106	788.102	594.862
421.613	162.484	1370.450	1798.195
422.628	140.709	1455.276	1798.258
