DTS Sentinel unit serial number:	SN413079Multiplexer serial number:	ORYXHardware model number:	OX4-SRSoftware version number:	ORYX F/W v4.00 Oryx Data Collector v3.7.2.0data status	okinstallation	princeton_trtdifferential loss correction	single-endedforward channel	channel 3reverse channel	N/Adate	2019/09/12time	12:38:11forward acquisition time	60.00reverse acquisition time	0.00gamma	496.2192k internal	0.2291k external	0.2291temperature offset calibration	1.0046default loss term (dB/km)	0.3790temperature slope calibration	1.0000multiplexer offset coefficient	1.0000multiplexer slope coefficient	1.0000fibre end	0.00T internal ref (°C)	40.44T ext. ref 1 (°C)	2.03T ext. ref 2 (°C)	36.21length (m)	temperature (°C)	Stokes	anti-Stokes-747.200	126.557	0.088	0.115
-746.185	-155.618	-0.133	-0.009
-745.171	-38.989	0.290	-0.156
-744.156	11.838	-0.154	0.121
-743.142	-200.000	-0.005	0.038
-742.127	554.594	-0.147	0.363
-741.112	542.976	-0.049	-0.120
-740.098	-111.292	-0.321	0.067
-739.083	-41.200	-0.161	0.085
-738.069	-133.689	-0.249	0.032
-737.054	31.700	0.338	-0.297
-736.039	679.417	-0.097	-0.259
-735.025	-200.000	-0.010	0.278
-734.010	-200.000	0.004	-0.366
-732.996	-2.119	-0.104	-0.075
-731.981	-200.000	0.014	-0.176
-730.966	-147.407	-0.286	-0.025
-729.952	152.804	0.073	-0.102
-728.937	-66.321	-0.033	-0.013
-727.923	-113.621	-0.555	0.111
-726.908	371.140	0.096	-0.199
-725.894	-35.758	-0.067	0.037
-724.879	-109.655	-0.172	-0.037
-723.864	108.256	-0.134	-0.163
-722.850	-14.989	0.052	-0.034
-721.835	-200.000	0.047	0.215
-720.821	-78.289	0.324	0.114
-719.806	-157.375	-0.219	0.013
-718.791	-54.831	0.051	-0.023
-717.777	152.189	-0.212	-0.296
-716.762	800.000	-0.014	0.055
-715.748	657.159	-0.034	0.090
-714.733	3.602	0.147	-0.110
-713.718	126.139	0.139	-0.180
-712.704	-100.616	-0.094	0.024
-711.689	104.201	0.109	-0.131
-710.675	-78.597	0.255	0.089
-709.660	-75.906	0.249	-0.090
-708.645	-42.464	-0.323	0.168
-707.631	155.780	0.153	-0.215
-706.616	-95.062	-0.157	-0.043
-705.602	-14.372	-0.173	0.114
-704.587	-200.000	-0.021	0.247
-703.572	800.000	0.122	0.388
-702.558	390.510	-0.037	0.078
-701.543	-31.607	0.099	-0.057
-700.529	-200.000	0.055	0.628
-699.514	256.977	-0.119	-0.208
-698.499	-200.000	0.209	0.001
-697.485	94.818	0.094	-0.109
-696.470	-109.545	0.218	0.047
-695.456	51.198	0.055	-0.053
-694.441	-97.667	-0.253	0.067
-693.426	448.133	0.148	0.332
-692.412	-200.000	0.028	0.167
-691.397	251.753	-0.036	-0.062
-690.383	6.930	0.082	-0.063
-689.368	561.777	-0.096	-0.237
-688.354	-57.102	0.024	0.011
-687.339	82.311	0.124	-0.138
-686.324	-77.935	-0.113	0.040
-685.310	-34.370	-0.253	-0.142
-684.295	473.592	0.100	-0.230
-683.281	-118.444	-0.096	0.017
-682.266	-77.802	0.167	-0.059
-681.251	316.250	0.158	-0.305
-680.237	-200.000	0.014	-0.212
-679.222	-200.000	0.057	-0.477
-678.208	-2.489	-0.073	0.052
-677.193	-200.000	-0.016	0.436
-676.178	-53.394	-0.131	-0.061
-675.164	800.000	0.057	0.186
-674.149	-40.408	0.147	-0.078
-673.135	-7.966	-0.233	-0.161
-672.120	-129.216	-0.327	-0.047
-671.105	-200.000	-0.012	-0.208
-670.091	-200.000	-0.000	0.103
-669.076	-100.171	-0.269	0.068
-668.062	647.335	0.107	-0.280
-667.047	800.000	-0.077	-0.324
-666.032	-114.774	-0.327	-0.064
-665.018	108.360	0.236	-0.288
-664.003	132.289	0.054	-0.071
-662.989	-45.848	-0.203	0.102
-661.974	64.828	-0.240	-0.248
-660.959	116.512	0.139	0.174
-659.945	-23.265	-0.114	-0.070
-658.930	340.688	0.145	-0.290
-657.916	90.133	0.038	0.043
-656.901	624.315	-0.071	0.183
-655.886	-32.963	0.106	-0.060
-654.872	-200.000	-0.036	-0.337
-653.857	284.582	-0.121	-0.222
-652.843	228.318	0.060	-0.100
-651.828	-91.699	0.145	-0.042
-650.814	-9.096	0.206	-0.141
-649.799	87.907	0.127	-0.144
-648.784	-200.000	-0.017	-0.127
-647.770	-108.461	-0.305	0.067
-646.755	-200.000	0.017	0.363
-645.741	-200.000	-0.011	-0.085
-644.726	-39.966	-0.081	-0.043
-643.711	141.567	0.244	0.330
-642.697	786.075	-0.022	-0.060
-641.682	-70.653	-0.074	0.028
-640.668	5.913	0.332	-0.250
-639.653	-200.000	-0.040	-0.183
-638.638	33.914	-0.117	-0.104
-637.624	58.621	0.227	0.227
-636.609	4.803	0.125	0.094
-635.595	-40.979	-0.094	-0.049
-634.580	-105.670	-0.267	0.062
-633.565	-114.086	-0.222	-0.044
-632.551	11.279	-0.232	-0.181
-631.536	575.239	-0.121	-0.302
-630.522	40.261	-0.064	0.059
-629.507	33.071	-0.093	-0.082
-628.492	-200.000	0.025	-0.275
-627.478	-147.766	-0.320	-0.027
-626.463	-200.000	0.037	-0.288
-625.449	7.780	-0.150	0.115
-624.434	205.817	0.090	-0.142
-623.419	800.000	-0.039	0.166
-622.405	-44.144	0.405	0.207
-621.390	498.406	-0.074	0.173
-620.376	-97.731	-0.070	0.018
-619.361	800.000	0.056	0.227
-618.346	707.333	-0.059	0.160
-617.332	-167.324	0.100	0.004
-616.317	800.000	-0.069	-0.197
-615.303	800.000	-0.064	-0.204
-614.288	-200.000	0.004	0.169
-613.273	800.000	0.073	-0.268
-612.259	-105.214	-0.235	-0.055
-611.244	508.596	-0.084	0.199
-610.230	-87.821	-0.290	0.089
-609.215	320.717	-0.113	-0.219
-608.201	-200.000	-0.028	-0.226
-607.186	150.830	-0.071	0.098
-606.171	-88.718	-0.315	0.095
-605.157	-68.045	-0.235	-0.093
-604.142	-200.000	-0.036	-0.211
-603.128	543.894	-0.081	-0.196
-602.113	-2.394	-0.258	0.184
-601.098	800.000	-0.114	-0.343
-600.084	-174.159	-0.290	0.009
-599.069	-200.000	0.009	0.104
-598.055	552.845	0.024	-0.060
-597.040	76.252	0.121	-0.130
-596.025	539.651	-0.084	-0.203
-595.011	11.528	-0.335	-0.262
-593.996	63.447	-0.244	0.250
-592.982	-66.426	0.391	-0.158
-591.967	91.204	-0.169	0.193
-590.952	168.668	-0.098	-0.143
-589.938	159.499	-0.167	0.236
-588.923	-49.669	0.038	-0.018
-587.909	-83.541	-0.127	-0.041
-586.894	800.000	-0.074	0.226
-585.879	-93.065	0.270	-0.077
-584.865	448.029	-0.058	0.130
-583.850	146.791	0.119	0.163
-582.836	-91.837	0.387	-0.112
-581.821	395.573	0.062	-0.133
-580.806	-200.000	0.036	-0.338
-579.792	112.819	-0.184	0.226
-578.777	-15.030	0.237	-0.155
-577.763	-68.348	0.212	-0.084
-576.748	404.051	0.038	0.081
-575.733	180.846	0.119	-0.178
-574.719	-90.537	0.350	0.103
-573.704	93.453	-0.038	-0.044
-572.690	-200.000	-0.037	0.273
-571.675	800.000	-0.064	0.261
-570.661	-149.283	0.069	0.006
-569.646	-200.000	-0.049	-0.263
-568.631	-200.000	0.032	-0.271
-567.617	-151.507	-0.084	0.006
-566.602	317.858	0.144	0.278
-565.588	-200.000	0.044	-0.212
-564.573	-41.334	0.207	-0.109
-563.558	-8.654	0.089	0.061
-562.544	661.352	0.131	0.342
-561.529	-132.042	-0.292	-0.039
-560.515	-200.000	-0.062	-0.372
-559.500	212.360	-0.210	-0.336
-558.485	228.111	-0.138	-0.228
-557.471	-120.820	0.193	-0.033
-556.456	800.000	-0.068	0.272
-555.442	-86.243	-0.222	-0.070
-554.427	-60.877	0.191	-0.082
-553.412	-110.723	0.150	-0.032
-552.398	116.952	-0.128	-0.160
-551.383	572.008	0.015	0.036
-550.369	-105.507	-0.110	-0.025
-549.354	18.744	-0.089	0.072
-548.339	-108.663	-0.302	0.066
-547.325	-29.209	0.117	0.068
-546.310	362.587	0.100	-0.205
-545.296	122.846	-0.142	-0.181
-544.281	-97.995	0.159	0.042
-543.266	25.750	0.189	-0.160
-542.252	317.005	-0.225	0.432
-541.237	-139.211	-0.296	-0.032
-540.223	-116.315	-0.244	-0.046
-539.208	-9.617	0.060	-0.041
-538.193	139.934	-0.227	-0.303
-537.179	-200.000	-0.024	-0.208
-536.164	232.491	-0.149	-0.249
-535.150	-36.998	0.095	0.052
-534.135	153.689	0.025	0.035
-533.121	214.210	-0.173	-0.279
-532.106	-135.417	0.282	0.034
-531.091	-99.361	0.269	0.069
-530.077	26.226	0.096	-0.081
-529.062	134.631	0.058	-0.077
-528.048	97.193	-0.136	-0.159
-527.033	-2.902	0.250	0.177
-526.018	139.264	0.158	0.211
-525.004	37.679	-0.314	0.283
-523.989	226.719	0.151	-0.248
-522.975	203.353	0.148	-0.232
-521.960	-9.993	-0.355	-0.239
-520.945	-109.731	-0.235	0.050
-519.931	80.431	0.080	0.087
-518.916	-200.000	-0.006	-0.135
-517.902	800.000	-0.100	-0.280
-516.887	-200.000	-0.009	-0.055
-515.872	-140.466	0.200	0.021
-514.858	-104.106	-0.374	-0.088
-513.843	-118.983	-0.409	0.073
-512.829	7.346	-0.122	-0.092
-511.814	800.000	-0.075	-0.257
-510.799	-149.703	-0.069	-0.005
-509.785	-52.180	-0.028	0.013
-508.770	-44.136	0.167	0.085
-507.756	-186.044	-0.212	-0.003
-506.741	492.794	0.033	0.077
-505.726	-200.000	-0.030	0.181
-504.712	800.000	-0.063	0.210
-503.697	60.221	-0.089	-0.089
-502.683	-6.029	-0.118	0.082
-501.668	35.500	0.327	0.292
-500.653	51.329	0.016	-0.016
-499.639	-125.672	-0.260	0.040
-498.624	274.541	0.096	-0.173
-497.610	79.166	-0.064	0.069
-496.595	161.969	-0.111	0.157
-495.581	800.000	0.059	0.235
-494.566	-65.676	-0.065	0.026
-493.551	-19.640	-0.156	0.098
-492.537	800.000	0.143	-0.492
-491.522	411.021	0.108	-0.232
-490.508	-164.375	0.281	0.013
-489.493	433.124	-0.154	-0.338
-488.478	50.960	-0.106	0.102
-487.464	-121.966	0.256	-0.043
-486.449	800.000	-0.040	0.168
-485.435	274.148	-0.152	0.273
-484.420	-81.269	-0.127	0.042
-483.405	800.000	0.028	0.089
-482.391	-136.294	0.188	0.022
-481.376	541.951	-0.057	-0.137
-480.362	-41.995	-0.114	-0.059
-479.347	232.071	-0.145	-0.242
-478.332	-62.801	0.048	-0.020
-477.318	-70.670	0.196	-0.075
-476.303	-200.000	0.039	-0.261
-475.289	50.706	0.118	-0.113
-474.274	-154.063	0.047	0.003
-473.259	-141.662	0.178	-0.018
-472.245	210.662	0.087	-0.138
-471.230	800.000	-0.062	-0.256
-470.216	25.128	-0.102	0.085
-469.201	-170.257	0.219	0.008
-468.186	305.863	-0.099	0.187
-467.172	7.450	0.099	-0.075
-466.157	-200.000	0.023	0.348
-465.143	-107.381	0.281	-0.063
-464.128	-104.965	-0.121	0.028
-463.113	800.000	0.095	-0.310
-462.099	6.093	0.089	0.067
-461.084	140.491	-0.088	-0.117
-460.070	52.624	0.087	0.084
-459.055	-13.069	-0.190	-0.125
-458.040	800.000	0.079	-0.346
-457.026	-85.323	0.355	0.112
-456.011	-91.752	-0.031	0.009
-454.997	-7.939	-0.264	0.180
-453.982	-73.289	0.286	-0.106
-452.968	17.770	-0.118	-0.095
-451.953	59.885	0.103	0.103
-450.938	99.709	-0.220	0.258
-449.924	800.000	-0.079	0.283
-448.909	-33.898	0.115	0.064
-447.895	312.500	-0.098	0.187
-446.880	-200.000	-0.033	0.315
-445.865	152.509	-0.243	0.336
-444.851	-128.093	0.258	-0.037
-443.836	800.000	0.080	-0.330
-442.822	800.000	-0.036	-0.128
-441.807	-112.875	-0.161	0.032
-440.792	26.058	-0.345	0.292
-439.778	94.991	-0.138	-0.159
-438.763	-108.094	0.188	0.041
-437.749	-82.690	-0.178	0.058
-436.734	227.630	-0.089	0.147
-435.719	-4.055	-0.202	0.142
-434.705	464.134	0.080	0.181
-433.690	24.001	-0.187	-0.156
-432.676	800.000	0.056	0.204
-431.661	77.398	-0.154	0.166
-430.646	-35.426	-0.245	-0.135
-429.632	-62.517	-0.216	-0.091
-428.617	800.000	-0.111	-0.329
-427.603	-200.000	-0.004	0.123
-426.588	-200.000	-0.012	0.148
-425.573	-21.171	0.355	0.219
-424.559	237.836	0.178	-0.299
-423.544	-18.514	0.134	0.085
-422.530	81.645	0.122	-0.134
-421.515	115.714	-0.124	0.153
-420.500	502.927	0.132	-0.308
-419.486	-12.964	-0.223	-0.147
-418.471	-108.305	0.268	-0.059
-417.457	171.499	-0.118	0.171
-416.442	800.000	-0.028	0.095
-415.428	-16.803	-0.169	-0.108
-414.413	-55.287	0.063	-0.029
-413.398	-106.311	0.228	-0.052
-412.384	-107.585	0.077	0.017
-411.369	12.682	0.066	0.052
-410.355	20.142	0.077	-0.063
-409.340	800.000	0.100	0.412
-408.325	232.049	0.102	0.169
-407.311	-89.364	0.302	0.090
-406.296	-75.643	-0.173	0.062
-405.282	-200.000	-0.042	-0.267
-404.267	-200.000	0.034	-0.156
-403.252	-40.971	-0.110	-0.058
-402.238	-101.670	-0.080	0.020
-401.223	72.193	0.122	-0.128
-400.209	800.000	0.049	0.146
-399.194	424.148	-0.047	0.101
-398.179	466.257	0.046	0.105
-397.165	24.788	0.249	0.209
-396.150	82.210	0.082	0.090
-395.136	-78.511	-0.247	-0.085
-394.121	136.307	0.186	0.246
-393.106	-200.000	-0.040	-0.185
-392.092	285.756	-0.154	-0.280
-391.077	-102.097	-0.141	-0.034
-390.063	-23.101	-0.124	0.075
-389.048	800.000	0.086	-0.279
-388.033	-200.000	0.037	0.343
-387.019	-200.000	0.339	0.001
-386.004	691.071	-0.093	0.246
-384.990	-87.336	-0.218	-0.067
-383.975	393.338	0.059	0.124
-382.960	-154.986	0.263	0.017
-381.946	337.827	-0.202	-0.396
-380.931	414.170	-0.095	-0.204
-379.917	28.088	0.079	-0.068
-378.902	220.087	0.104	-0.168
-377.888	3.192	0.104	0.077
-376.873	150.241	0.044	0.060
-375.858	-76.682	0.189	-0.067
-374.844	670.199	-0.199	0.520
-373.829	543.123	0.114	0.275
-372.815	205.787	0.036	0.056
-371.800	-1.894	-0.108	0.077
-370.785	-19.455	0.229	-0.143
-369.771	800.000	-0.046	0.130
-368.756	-163.884	0.185	0.009
-367.742	800.000	0.059	0.183
-366.727	-200.000	-0.019	0.184
-365.712	-121.589	-0.126	-0.021
-364.698	-124.442	-0.375	-0.059
-363.683	-78.257	0.061	-0.021
-362.669	-42.718	-0.120	-0.061
-361.654	800.000	0.061	0.261
-360.639	53.989	-0.073	0.071
-359.625	-200.000	0.044	0.232
-358.610	-53.250	0.116	0.054
-357.596	350.426	-0.087	-0.174
-356.581	-200.000	0.012	-0.444
-355.566	41.989	0.107	0.098
-354.552	-200.000	-0.040	0.354
-353.537	-86.757	-0.060	0.018
-352.523	800.000	0.063	-0.217
-351.508	-42.067	-0.061	-0.032
-350.493	129.749	-0.085	-0.109
-349.479	800.000	-0.181	-0.508
-348.464	-11.288	-0.172	0.114
-347.450	424.229	-0.061	0.132
-346.435	-168.549	0.062	0.002
-345.420	-149.348	0.052	-0.004
-344.406	-93.855	-0.247	-0.069
-343.391	99.399	0.062	-0.073
-342.377	-79.596	0.252	-0.086
-341.362	-192.140	-0.066	-0.001
-340.348	-200.000	-0.019	-0.093
-339.333	-62.300	-0.308	0.129
-338.318	-118.806	0.195	-0.035
-337.304	800.000	-0.065	-0.222
-336.289	539.985	0.036	-0.087
-335.275	800.000	-0.011	0.033
-334.260	-119.096	-0.227	0.040
-333.245	-160.280	0.238	-0.013
-332.231	-200.000	-0.015	0.219
-331.216	-159.270	0.350	0.020
-330.202	-23.661	0.478	0.288
-329.187	-120.671	0.266	0.045
-328.172	601.078	-0.079	0.198
-327.158	800.000	-0.047	-0.141
-326.143	-71.453	0.321	0.121
-325.129	74.446	-0.010	-0.011
-324.114	354.498	0.127	0.254
-323.099	781.241	0.065	-0.179
-322.085	-200.000	-0.005	-0.088
-321.070	-200.000	-0.075	0.397
-320.056	-200.000	-0.006	0.167
-319.041	-101.235	0.110	-0.027
-318.026	-200.000	-0.062	-0.343
-317.012	16.414	-0.017	-0.014
-315.997	-69.657	0.331	0.127
-314.983	20.295	-0.101	0.082
-313.968	127.667	0.055	0.070
-312.953	29.316	0.279	0.238
-311.939	-7.594	0.343	-0.234
-310.924	-60.488	0.268	0.115
-309.910	-6.835	0.202	-0.138
-308.895	-85.927	-0.327	0.102
-307.880	173.583	-0.110	-0.160
-306.866	96.972	-0.227	0.262
-305.851	578.075	-0.150	-0.368
-304.837	708.529	0.025	0.068
-303.822	108.253	0.186	-0.223
-302.807	-200.000	-0.000	-0.078
-301.793	64.183	0.113	-0.115
-300.778	800.000	-0.049	0.196
-299.764	-38.887	0.184	-0.097
-298.749	-30.619	-0.157	-0.090
-297.735	-200.000	-0.031	0.273
-296.720	12.657	0.213	0.165
-295.705	179.215	-0.060	-0.088
-294.691	104.481	0.131	-0.156
-293.676	-184.688	-0.285	-0.005
-292.662	-149.048	-0.150	0.012
-291.647	-200.000	-0.002	0.099
-290.632	552.223	0.017	-0.042
-289.618	-103.910	-0.172	0.040
-288.603	-200.000	-0.005	-0.161
-287.589	-116.789	0.452	-0.083
-286.574	-200.000	-0.009	0.343
-285.559	-200.000	-0.038	0.173
-284.545	14.846	-0.071	0.056
-283.530	-76.916	-0.185	0.065
-282.516	139.103	-0.259	-0.342
-281.501	-49.042	0.128	0.062
-280.486	88.183	0.065	-0.072
-279.472	-91.492	0.223	0.064
-278.457	44.451	-0.149	0.137
-277.443	800.000	0.006	-0.016
-276.428	100.955	-0.078	-0.091
-275.413	219.678	0.030	0.048
-274.399	424.348	-0.016	-0.035
-273.384	-16.578	0.171	0.109
-272.370	-123.730	0.145	0.023
-271.355	167.051	0.072	-0.103
-270.340	-125.743	-0.223	0.034
-269.326	796.619	-0.095	0.263
-268.311	54.535	-0.152	-0.147
-267.297	79.052	-0.093	0.101
-266.282	-100.227	-0.274	0.068
-265.267	-200.000	0.038	0.281
-264.253	24.965	0.143	0.119
-263.238	-149.274	0.026	0.002
-262.224	-1.096	0.180	0.128
-261.209	53.602	-0.111	-0.107
-260.195	175.263	-0.154	0.224
-259.180	-64.434	0.206	-0.084
-258.165	-92.033	-0.254	-0.072
-257.151	800.000	-0.052	-0.154
-256.136	-80.846	0.122	-0.041
-255.122	139.408	0.157	0.208
-254.107	-0.956	-0.051	0.036
-253.092	93.800	-0.202	0.231
-252.078	22.315	0.354	-0.291
-251.063	-127.923	0.467	0.067
-250.049	432.265	0.084	0.184
-249.034	800.000	0.073	0.277
-248.019	-79.028	0.100	0.034
-247.005	-114.028	0.209	-0.041
-245.990	204.101	0.115	0.179
-244.976	-49.080	-0.251	0.120
-243.961	11.606	0.270	0.208
-242.946	-68.117	0.369	-0.144
-241.932	405.118	-0.085	-0.179
-240.917	-59.085	0.093	0.040
-239.903	-86.795	-0.267	0.082
-238.888	128.697	-0.126	-0.162
-237.873	-82.533	-0.247	0.080
-236.859	223.110	-0.048	0.078
-235.844	485.578	-0.088	0.201
-234.830	-82.311	0.134	0.044
-233.815	197.721	0.135	0.207
-232.800	-106.127	-0.222	0.050
-231.786	208.527	0.081	0.127
-230.771	-142.922	0.093	0.009
-229.757	-31.245	0.173	-0.098
-228.742	180.649	0.185	0.272
-227.727	54.583	0.261	-0.252
-226.713	-14.382	-0.144	-0.093
-225.698	-200.000	-0.002	-0.099
-224.684	180.248	0.080	0.117
-223.669	18.163	-0.077	-0.062
-222.655	-115.298	0.120	-0.023
-221.640	800.000	0.110	0.435
-220.625	800.000	-0.025	0.080
-219.611	134.806	0.121	0.158
-218.596	-200.000	-0.017	0.153
-217.582	-187.266	-0.291	0.004
-216.567	368.814	-0.124	0.251
-215.552	94.872	0.122	-0.140
-214.538	-77.314	-0.128	0.045
-213.523	343.358	0.204	-0.400
-212.509	800.000	0.040	0.115
-211.494	668.918	-0.153	0.398
-210.479	-200.000	-0.044	-0.206
-209.465	-22.907	-0.306	-0.185
-208.450	-3.019	-0.165	-0.116
-207.436	114.677	0.015	0.019
-206.421	639.116	0.049	-0.126
-205.406	84.735	0.240	-0.263
-204.392	139.466	-0.117	-0.155
-203.377	66.373	0.196	-0.199
-202.363	-200.000	0.054	0.329
-201.348	-30.310	0.065	0.037
-200.333	-126.272	0.058	-0.009
-199.319	-65.678	0.138	0.055
-198.304	-200.000	-0.014	-0.184
-197.290	-137.414	0.108	0.012
-196.275	800.000	0.064	-0.207
-195.260	-15.180	0.172	0.110
-194.246	165.537	0.189	0.267
-193.231	184.203	0.130	-0.193
-192.217	-200.000	-0.001	-0.091
-191.202	-15.962	-0.194	0.124
-190.187	160.230	0.184	0.256
-189.173	297.006	0.110	-0.203
-188.158	497.962	-0.116	-0.267
-187.144	45.435	-0.155	0.143
-186.129	-200.000	0.029	-0.152
-185.114	-62.582	0.080	0.033
-184.100	79.209	-0.103	-0.111
-183.085	-99.088	-0.179	-0.045
-182.071	144.015	0.122	-0.163
-181.056	800.000	-0.041	-0.116
-180.042	-154.340	0.145	-0.010
-179.027	36.977	-0.106	0.094
-178.012	800.000	0.029	0.101
-176.998	163.919	-0.195	-0.275
-175.983	-75.449	0.047	-0.017
-174.969	209.180	-0.006	0.009
-173.954	-200.000	-0.010	-0.216
-172.939	-109.978	0.242	-0.051
-171.925	79.923	-0.214	0.231
-170.910	800.000	-0.025	0.084
-169.896	111.524	-0.166	-0.200
-168.881	-200.000	0.034	0.322
-167.866	-3.604	0.046	0.032
-166.852	7.388	-0.313	0.234
-165.837	-83.103	-0.280	0.090
-164.823	-104.214	-0.248	-0.058
-163.808	-200.000	0.003	-0.072
-162.793	7.402	-0.185	-0.138
-161.779	30.232	0.176	0.151
-160.764	-86.526	0.472	0.145
-159.750	-148.583	-0.252	0.021
-158.735	-94.282	-0.040	0.011
-157.720	96.417	0.113	-0.130
-156.706	151.672	0.144	-0.197
-155.691	-97.002	0.303	-0.079
-154.677	-200.000	-0.013	0.152
-153.662	352.360	-0.139	-0.276
-152.647	31.362	0.084	0.072
-151.633	-36.851	0.291	0.156
-150.618	10.664	0.299	-0.228
-149.604	800.000	0.061	0.171
-148.589	-200.000	0.009	0.405
-147.574	-111.598	-0.103	0.021
-146.560	154.446	-0.050	-0.069
-145.545	560.027	0.016	-0.038
-144.531	-98.180	0.275	-0.071
-143.516	254.803	0.100	0.171
-142.502	-94.433	0.103	0.028
-141.487	800.000	0.008	0.025
-140.472	-95.692	-0.124	0.033
-139.458	785.589	-0.071	0.193
-138.443	800.000	0.110	0.303
-137.429	-147.319	-0.028	-0.002
-136.414	-39.876	-0.239	-0.125
-135.399	81.569	-0.089	0.097
-134.385	-200.000	0.017	0.175
-133.370	292.153	-0.033	-0.060
-132.356	-7.132	-0.251	-0.170
-131.341	707.202	-0.125	-0.330
-130.326	365.452	0.153	0.307
-129.312	84.432	0.258	0.282
-128.297	-190.085	0.063	0.001
-127.283	760.999	0.029	0.078
-126.268	64.893	0.043	-0.043
-125.253	800.000	-0.078	-0.250
-124.239	-200.000	-0.043	0.261
-123.224	-85.790	-0.168	-0.052
-122.210	-123.638	0.044	0.007
-121.195	-16.112	-0.260	-0.165
-120.180	-71.640	-0.167	-0.062
-119.166	-112.091	-0.085	0.017
-118.151	-200.000	-0.030	0.246
-117.137	12.122	0.251	-0.193
-116.122	-65.774	0.379	0.152
-115.107	-200.000	0.011	0.180
-114.093	-108.470	0.369	0.079
-113.078	141.665	0.092	-0.122
-112.064	-200.000	0.004	-0.385
-111.049	-149.514	-0.324	-0.026
-110.034	690.038	0.135	-0.352
-109.020	-159.481	-0.099	-0.005
-108.005	-200.000	0.018	0.219
-106.991	-98.376	0.283	-0.072
-105.976	-200.000	0.010	-0.328
-104.962	18.293	0.015	-0.012
-103.947	-118.763	-0.216	-0.038
-102.932	387.784	0.117	0.242
-101.918	-171.174	-0.298	0.010
-100.903	-200.000	0.372	-0.002
-99.889	800.000	0.066	0.234
-98.874	-36.278	-0.151	-0.081
-97.859	-47.017	-0.136	0.066
-96.845	317.998	0.066	0.125
-95.830	-174.131	-0.180	-0.005
-94.816	-2.216	-0.124	-0.087
-93.801	-81.319	0.271	0.089
-92.786	360.826	0.100	-0.200
-91.772	-82.176	0.079	-0.026
-90.757	366.007	-0.137	0.275
-89.743	-200.000	0.032	0.399
-88.728	800.000	0.096	-0.314
-87.713	-102.835	0.176	0.042
-86.699	-122.435	0.154	-0.025
-85.684	-170.451	0.163	-0.006
-84.670	94.137	-0.268	-0.303
-83.655	-59.190	-0.321	-0.138
-82.640	-150.470	0.052	0.004
-81.626	-77.762	0.210	-0.072
-80.611	358.772	0.146	0.292
-79.597	-200.000	0.026	0.163
-78.582	-200.000	-0.005	0.295
-77.567	-81.761	-0.546	-0.179
-76.553	-50.806	0.330	-0.155
-75.538	-60.910	0.247	-0.104
-74.524	-92.813	0.275	0.077
-73.509	-200.000	-0.071	-0.380
-72.494	18.225	0.058	0.046
-71.480	800.000	-0.040	0.136
-70.465	-70.552	0.185	-0.070
-69.451	38.507	0.022	-0.019
-68.436	-200.000	0.039	0.356
-67.422	252.685	0.157	0.267
-66.407	104.838	0.102	-0.120
-65.392	555.873	0.055	0.132
-64.378	-129.951	0.067	-0.009
-63.363	-80.131	0.157	0.052
-62.349	-125.183	0.120	-0.018
-61.334	11.633	-0.731	-0.560
-60.319	-200.000	-0.009	0.126
-59.305	-200.000	0.041	-0.525
-58.290	244.715	0.504	0.844
-57.276	800.000	0.534	2.002
-56.261	-200.000	77.359	515.593
-55.246	513.450	1339.889	3114.131
-54.232	145.103	2571.230	3428.561
-53.217	115.179	2250.194	2738.221
-52.203	50.969	1773.535	1675.450
-51.188	43.873	1572.643	1435.561
-50.173	41.058	1543.122	1388.941
-49.159	57.369	1579.687	1537.042
-48.144	63.039	1599.421	1596.087
-47.130	44.355	1563.060	1429.985
-46.115	40.746	1548.701	1391.560
-45.100	40.478	1545.587	1386.827
-44.086	40.437	1543.744	1384.833
-43.071	40.389	1541.473	1382.410
-42.057	40.373	1539.642	1380.601
-41.042	40.474	1537.661	1379.471
-40.027	40.481	1536.061	1378.026
-39.013	40.450	1534.715	1376.552
-37.998	40.433	1533.620	1375.400
-36.984	40.478	1532.494	1374.644
-35.969	40.487	1530.982	1373.299
-34.954	40.430	1529.605	1371.613
-33.940	40.366	1528.327	1369.972
-32.925	40.473	1526.452	1368.972
-31.911	40.353	1525.902	1367.600
-30.896	40.533	1523.584	1366.707
-29.881	40.528	1522.807	1365.918
-28.867	40.438	1521.921	1364.451
-27.852	40.555	1519.624	1363.139
-26.838	40.425	1518.444	1361.137
-25.823	40.490	1516.831	1360.080
-24.809	40.612	1514.582	1358.849
-23.794	40.526	1513.574	1357.298
-22.779	40.451	1512.661	1355.913
-21.765	40.489	1511.586	1355.161
-20.750	40.409	1510.384	1353.479
-19.736	40.403	1509.137	1352.266
-18.721	40.469	1507.810	1351.472
-17.706	40.529	1506.259	1350.443
-16.692	40.472	1505.075	1348.937
-15.677	40.464	1504.548	1348.353
-14.663	40.422	1503.020	1346.651
-13.648	40.377	1502.605	1345.916
-12.633	40.323	1501.743	1344.728
-11.619	40.388	1500.777	1344.247
-10.604	40.438	1499.695	1343.564
-9.590	40.354	1498.921	1342.245
-8.575	40.357	1498.128	1341.504
-7.560	40.467	1496.849	1341.052
-6.546	40.383	1495.942	1339.617
-5.531	40.343	1495.449	1338.851
-4.517	40.435	1494.464	1338.541
-3.502	40.361	1493.368	1337.004
-2.487	40.471	1492.111	1336.568
-1.473	40.423	1490.997	1335.191
-0.458	40.421	1489.811	1334.063
0.556	40.733	1481.102	1324.286
1.571	38.055	1454.018	1282.389
2.586	34.301	1391.695	1203.650
3.600	32.192	1307.384	1118.097
4.615	30.103	1258.205	1063.963
5.629	24.970	1198.781	985.465
6.644	13.022	1106.279	848.293
7.659	3.798	1058.707	766.194
8.673	2.350	1053.047	754.885
9.688	2.127	1049.870	751.444
10.702	1.836	1048.300	748.826
11.717	1.809	1046.710	747.491
12.731	5.258	1051.117	767.543
13.746	16.162	1066.674	832.947
14.761	24.379	1076.949	881.688
15.775	25.521	1077.492	887.696
16.790	25.561	1077.117	887.507
17.804	25.428	1076.322	886.118
18.819	25.238	1075.393	884.338
19.834	25.242	1075.014	883.969
20.848	25.457	1073.981	884.100
21.863	25.457	1073.788	883.863
22.877	25.550	1073.076	883.656
23.892	25.439	1072.539	882.586
24.907	25.405	1072.064	881.952
25.921	25.328	1071.148	880.744
26.936	25.366	1070.720	880.499
27.950	25.385	1068.887	879.005
28.965	25.367	1068.219	878.292
29.980	25.175	1066.923	876.213
30.994	25.039	1065.729	874.490
32.009	25.432	1064.754	875.526
33.023	25.406	1064.637	875.227
34.038	25.256	1063.573	873.543
35.053	25.247	1062.323	872.397
36.067	25.351	1062.126	872.662
37.082	25.310	1060.952	871.423
38.096	25.271	1060.697	870.945
39.111	25.547	1059.410	871.149
40.126	25.711	1058.398	871.036
41.140	25.549	1057.752	869.641
42.155	25.334	1056.269	867.310
43.169	24.925	1055.152	864.338
44.184	24.962	1053.874	863.394
45.199	25.027	1052.985	862.903
46.213	24.917	1052.307	861.743
47.228	24.899	1051.149	860.633
48.242	25.142	1050.578	861.255
49.257	25.180	1050.240	861.085
50.271	25.375	1049.286	861.162
51.286	25.424	1048.558	860.720
52.301	25.450	1047.677	860.048
53.315	25.315	1047.184	858.922
54.330	25.394	1046.347	858.534
55.344	25.312	1045.224	857.148
56.359	25.218	1044.981	856.421
57.374	25.413	1043.609	856.151
58.388	25.128	1042.978	854.199
59.403	25.069	1042.037	853.076
60.417	25.130	1041.593	852.927
61.432	24.844	1040.870	850.899
62.447	24.941	1039.982	850.559
63.461	25.078	1039.424	850.678
64.476	25.073	1038.514	849.831
65.490	25.159	1037.474	849.313
66.505	25.073	1036.507	848.042
67.520	25.119	1035.758	847.572
68.534	25.197	1034.983	847.231
69.549	24.989	1034.639	845.889
70.563	24.618	1033.306	842.975
71.578	24.664	1032.111	842.144
72.593	24.680	1031.316	841.493
73.607	24.499	1030.272	839.716
74.622	24.504	1029.735	839.230
75.636	24.787	1028.994	839.881
76.651	24.853	1028.749	839.914
77.666	24.687	1027.973	838.430
78.680	24.656	1026.967	837.389
79.695	24.672	1026.525	837.028
80.709	24.864	1025.468	836.991
81.724	24.985	1024.513	836.705
82.739	24.827	1024.370	835.773
83.753	24.931	1023.356	835.359
84.768	25.142	1022.548	835.610
85.782	25.481	1022.771	837.299
86.797	25.689	1021.650	837.270
87.812	25.595	1020.798	836.064
88.826	25.546	1019.802	834.946
89.841	25.593	1018.810	834.277
90.855	25.519	1018.458	833.572
91.870	25.559	1017.571	832.957
92.884	25.538	1016.922	832.255
93.899	25.541	1015.423	830.971
94.914	25.419	1014.515	829.589
95.928	25.502	1013.625	829.172
96.943	25.486	1013.013	828.525
97.957	25.145	1012.002	826.053
98.972	25.070	1010.850	824.693
99.987	24.761	1009.774	822.325
101.001	24.945	1009.023	822.487
102.016	25.361	1008.523	823.911
103.030	25.361	1007.579	823.070
104.045	25.263	1006.859	821.960
105.060	25.161	1005.613	820.404
106.074	24.879	1004.719	818.311
107.089	24.857	1003.923	817.491
108.103	25.247	1003.803	819.100
109.118	25.405	1002.803	818.931
110.133	24.997	1001.856	816.227
111.147	25.038	1000.642	815.355
112.162	25.000	999.233	813.962
113.176	24.658	998.701	811.903
114.191	24.798	998.184	812.047
115.206	24.969	996.991	811.779
116.220	24.741	996.076	809.929
117.235	24.486	995.094	807.905
118.249	24.725	994.477	808.414
119.264	24.801	993.577	807.954
120.279	24.580	993.039	806.446
121.293	24.413	992.510	805.195
122.308	24.701	991.716	805.775
123.322	24.737	990.727	805.063
124.337	24.696	989.563	803.862
125.352	24.469	988.635	802.015
126.366	24.204	986.448	798.983
127.381	23.837	985.667	796.635
128.395	24.364	985.868	799.090
129.410	25.015	985.155	801.354
130.424	25.142	984.532	801.342
131.439	25.259	983.367	800.846
132.454	25.210	982.497	799.847
133.468	25.326	981.436	799.431
134.483	25.133	981.163	798.278
135.497	25.192	980.416	797.864
136.512	25.324	980.014	798.049
137.527	25.474	979.081	797.888
138.541	25.607	978.081	797.592
139.556	25.606	977.290	796.871
140.570	25.436	976.933	795.758
141.585	25.570	975.956	795.484
142.600	25.545	975.378	794.831
143.614	25.510	974.432	793.836
144.629	25.751	973.602	794.151
145.643	25.835	973.054	794.006
146.658	25.780	971.944	792.788
147.673	25.502	970.622	790.418
148.687	25.507	969.809	789.708
149.702	25.298	968.934	788.006
150.716	25.342	967.471	786.940
151.731	25.203	966.649	785.592
152.746	25.254	966.019	785.236
153.760	25.475	965.576	785.773
154.775	25.565	964.659	785.349
155.789	25.732	963.820	785.323
156.804	25.435	963.131	783.399
157.819	25.487	961.794	782.467
158.833	25.702	960.791	782.517
159.848	25.736	960.358	782.246
160.862	25.753	959.744	781.751
161.877	25.581	958.884	780.235
162.892	25.559	957.597	779.020
163.906	25.641	956.891	778.735
164.921	25.676	956.314	778.345
165.935	25.484	955.291	776.616
166.950	25.673	953.848	776.189
167.964	25.561	953.252	775.152
168.979	25.575	952.477	774.514
169.994	25.423	951.147	772.709
171.008	25.212	950.340	771.078
172.023	25.442	949.493	771.313
173.037	25.534	949.035	771.268
174.052	25.407	947.902	769.732
175.067	25.235	946.450	767.750
176.081	25.350	945.420	767.336
177.096	25.347	944.569	766.565
178.110	25.365	944.050	766.152
179.125	25.150	943.341	764.595
180.140	24.956	941.901	762.533
181.154	24.964	941.375	762.076
182.169	24.980	941.152	761.895
183.183	25.186	941.122	762.680
184.198	25.506	940.667	763.604
185.213	25.487	939.407	762.430
186.227	25.446	939.001	761.861
187.242	25.471	938.712	761.666
188.256	25.609	937.802	761.444
189.271	25.530	936.850	760.269
190.286	25.590	936.322	760.026
191.300	25.416	935.610	758.645
192.315	24.960	933.704	755.113
193.329	24.161	932.501	750.707
194.344	23.804	930.779	747.751
195.359	24.357	931.392	750.506
196.373	25.208	931.972	754.489
197.388	25.467	931.881	755.437
198.402	25.416	931.149	754.561
199.417	25.324	930.198	753.338
200.432	25.401	929.868	753.327
201.446	25.348	929.415	752.673
202.461	25.058	928.490	750.641
203.475	25.118	927.885	750.338
204.490	24.608	926.660	747.149
205.504	23.598	924.424	741.065
206.519	23.918	924.391	742.309
207.534	24.894	924.978	746.788
208.548	24.932	924.681	746.642
209.563	25.354	924.297	748.021
210.577	25.396	923.398	747.400
211.592	25.188	922.535	745.773
212.607	25.465	922.466	746.802
213.621	25.577	922.087	746.894
214.636	25.614	920.655	745.823
215.650	25.719	920.452	746.026
216.665	25.650	919.810	745.156
217.680	25.698	918.987	744.620
218.694	25.829	918.772	744.923
219.709	25.216	918.498	742.100
220.723	24.983	917.092	739.936
221.738	25.206	916.725	740.495
222.753	25.365	916.228	740.685
223.767	25.306	915.528	739.810
224.782	25.485	914.394	739.563
225.796	25.637	914.252	740.010
226.811	25.815	913.692	740.224
227.826	25.342	912.010	736.852
228.840	24.659	910.628	732.873
229.855	24.538	909.942	731.760
230.869	24.784	910.019	732.764
231.884	24.330	909.341	730.295
232.899	24.338	908.714	729.761
233.913	25.190	908.817	733.262
234.928	25.515	908.420	734.203
235.942	25.344	907.179	732.438
236.957	25.184	906.842	731.449
237.972	24.955	905.830	729.637
238.986	24.958	904.886	728.822
240.001	25.094	904.617	729.095
241.015	25.113	904.036	728.640
242.030	25.082	903.582	728.082
243.045	25.247	903.037	728.250
244.059	25.506	902.248	728.600
245.074	25.628	901.843	728.702
246.088	25.547	901.060	727.677
247.103	25.099	900.410	725.273
248.117	25.144	899.966	725.036
249.132	25.725	899.991	727.338
250.147	26.179	899.571	728.769
251.161	26.219	898.892	728.317
252.176	26.411	898.525	728.729
253.190	26.280	898.221	727.890
254.205	26.283	897.227	727.032
255.220	26.588	897.019	728.024
256.234	26.584	896.231	727.306
257.249	26.450	895.561	726.160
258.263	26.270	894.941	724.869
259.278	26.144	894.441	723.894
260.293	26.405	893.653	724.238
261.307	26.399	893.474	724.006
262.322	26.255	892.739	722.769
263.336	26.267	891.911	722.084
264.351	25.823	890.160	718.832
265.366	24.699	888.748	713.146
266.380	24.189	887.808	710.296
267.395	24.970	888.046	713.536
268.409	25.732	888.781	717.099
269.424	25.758	887.746	716.305
270.439	25.906	887.356	716.516
271.453	26.103	886.737	716.736
272.468	26.140	886.034	716.250
273.482	26.157	886.062	716.277
274.497	26.454	885.202	716.696
275.512	26.220	884.254	714.940
276.526	25.778	882.794	711.949
277.541	25.691	882.648	711.421
278.555	26.103	882.271	712.685
279.570	26.053	881.502	711.801
280.585	25.781	881.258	710.470
281.599	25.824	880.595	710.042
282.614	26.069	880.126	710.565
283.628	25.654	878.710	707.727
284.643	25.203	877.900	705.240
285.657	25.577	877.906	706.650
286.672	25.514	877.246	705.813
287.687	25.102	876.030	703.154
288.701	25.428	876.004	704.351
289.716	25.860	875.823	705.832
290.730	25.439	875.177	703.604
291.745	25.293	874.375	702.324
292.760	25.216	873.295	701.094
293.774	25.012	873.022	700.016
294.789	25.971	873.399	704.004
295.803	26.647	873.215	706.428
296.818	26.562	873.103	705.944
297.833	26.781	872.508	706.253
298.847	26.346	871.382	703.589
299.862	26.004	870.572	701.541
300.876	26.265	869.849	701.912
301.891	26.488	870.039	702.868
302.906	26.746	869.041	703.000
303.920	26.270	868.117	700.346
304.935	26.110	867.430	699.110
305.949	26.481	867.318	700.394
306.964	26.579	866.777	700.274
307.979	26.381	865.774	698.640
308.993	26.215	865.483	697.702
310.008	26.690	865.029	699.107
311.022	26.769	865.006	699.331
312.037	26.693	864.251	698.364
313.052	26.441	863.713	696.897
314.066	26.127	862.951	695.013
315.081	25.677	861.041	691.682
316.095	24.851	859.866	687.508
317.110	25.347	860.011	689.466
318.125	26.330	860.071	693.225
319.139	25.915	859.143	690.826
320.154	24.759	857.413	684.950
321.168	24.210	856.612	682.149
322.183	24.937	856.913	685.112
323.197	25.823	857.399	688.828
324.212	26.205	856.945	689.863
325.227	26.239	856.897	689.891
326.241	26.563	855.971	690.321
327.256	26.441	855.433	689.363
328.270	26.214	855.097	688.167
329.285	26.159	854.277	687.235
330.300	26.121	853.511	686.413
331.314	25.823	852.446	684.365
332.329	25.743	852.321	683.902
333.343	26.193	851.810	685.137
334.358	26.527	851.574	686.153
335.373	26.613	850.772	685.772
336.387	26.637	850.495	685.579
337.402	26.808	850.268	685.981
338.416	27.047	849.656	686.333
339.431	27.051	848.812	685.606
340.446	26.822	848.734	684.617
341.460	27.070	848.329	685.165
342.475	27.053	847.562	684.422
343.489	26.894	846.832	683.172
344.504	26.835	846.433	682.565
345.519	27.006	846.260	683.011
346.533	27.415	845.398	683.790
347.548	27.416	845.209	683.581
348.562	27.410	844.494	682.920
349.577	27.213	844.297	681.959
350.592	27.393	843.276	681.749
351.606	27.117	843.356	680.721
352.621	27.222	842.653	680.484
353.635	27.147	842.162	679.748
354.650	26.982	841.771	678.758
355.665	26.706	840.597	676.720
356.679	25.802	838.927	671.944
357.694	25.443	838.653	670.328
358.708	26.258	838.491	673.174
359.723	26.107	838.031	672.184
360.738	26.435	837.822	673.179
361.752	26.893	837.485	674.552
362.767	26.991	837.183	674.611
363.781	27.202	837.048	675.229
364.796	27.551	836.788	676.253
365.810	27.570	836.592	676.105
366.825	27.793	835.772	676.211
367.840	27.644	835.569	675.432
368.854	27.524	835.181	674.617
369.869	27.233	833.968	672.500
370.883	26.955	833.670	671.172
371.898	26.916	833.200	670.590
372.913	26.979	832.431	670.145
373.927	27.087	831.578	669.798
374.942	27.268	830.777	669.760
375.956	27.215	830.682	669.430
376.971	27.293	830.220	669.283
377.986	27.374	829.727	669.126
379.000	27.545	829.318	669.363
380.015	27.585	828.833	669.061
381.029	27.437	828.324	668.046
382.044	27.417	827.683	667.399
383.059	27.489	826.997	667.050
384.073	27.553	826.721	667.000
385.088	27.515	825.976	666.201
386.102	27.586	825.369	665.915
387.117	27.384	824.800	664.660
388.132	27.324	823.961	663.703
389.146	27.164	823.279	662.515
390.161	26.536	822.534	659.567
391.175	26.677	822.390	659.907
392.190	27.071	822.470	661.347
393.205	27.252	821.650	661.288
394.219	26.357	820.379	656.956
395.234	24.834	817.356	648.959
396.248	23.877	816.223	644.535
397.263	24.837	817.593	649.041
398.278	26.771	818.911	657.051
399.292	27.186	818.838	658.436
400.307	26.883	817.952	656.568
401.321	26.964	817.453	656.404
402.336	27.065	817.248	656.547
403.350	27.330	817.201	657.408
404.365	27.675	817.132	658.540
405.380	27.784	816.916	658.700
406.394	28.162	816.630	659.774
407.409	28.479	816.060	660.399
408.423	28.321	815.814	659.572
409.438	28.168	815.236	658.497
410.453	28.439	814.513	658.829
411.467	28.366	814.518	658.510
412.482	28.306	813.772	657.636
413.496	28.275	813.114	656.933
414.511	28.471	813.008	657.493
415.526	28.342	812.624	656.663
416.540	28.201	812.591	656.072
417.555	28.184	812.100	655.554
418.569	28.004	811.126	654.068
419.584	27.968	810.310	653.221
420.599	28.111	809.709	653.192
421.613	95.761	1265.276	1380.496
422.628	82.292	1331.674	1380.621
