DTS Sentinel unit serial number:	SN413079Multiplexer serial number:	ORYXHardware model number:	OX4-SRSoftware version number:	ORYX F/W v4.00 Oryx Data Collector v3.7.2.0data status	okinstallation	princeton_trtdifferential loss correction	single-endedforward channel	channel 3reverse channel	N/Adate	2019/09/18time	04:16:35forward acquisition time	60.00reverse acquisition time	0.00gamma	496.2192k internal	0.2342k external	0.2342temperature offset calibration	0.9950default loss term (dB/km)	0.3790temperature slope calibration	1.0000multiplexer offset coefficient	1.0000multiplexer slope coefficient	1.0000fibre end	0.00T internal ref (°C)	23.31T ext. ref 1 (°C)	0.17T ext. ref 2 (°C)	17.62length (m)	temperature (°C)	Stokes	anti-Stokes-747.200	800.000	-0.020	-0.064
-746.185	-30.100	0.194	0.111
-745.171	-26.110	0.238	0.140
-744.156	268.262	-0.015	0.026
-743.142	183.713	0.039	0.058
-742.127	-200.000	-0.022	0.128
-741.112	-97.293	0.095	0.025
-740.098	-152.421	-0.159	0.011
-739.083	-200.000	0.023	0.160
-738.069	-85.632	-0.393	0.122
-737.054	-48.732	0.162	-0.078
-736.039	-157.474	-0.168	-0.010
-735.025	-87.483	0.206	-0.063
-734.010	10.522	-0.112	-0.086
-732.996	35.813	-0.229	-0.202
-731.981	323.777	0.107	-0.204
-730.966	160.302	0.092	-0.128
-729.952	800.000	-0.042	0.153
-728.937	-94.937	0.171	0.046
-727.923	-20.704	0.045	-0.028
-726.908	-200.000	-0.045	-0.259
-725.894	-71.551	-0.435	0.163
-724.879	613.812	-0.038	-0.095
-723.864	-182.967	-0.200	-0.004
-722.850	-179.415	-0.279	-0.006
-721.835	-41.773	0.184	0.094
-720.821	-103.740	-0.212	-0.050
-719.806	587.589	-0.031	0.076
-718.791	72.244	0.080	-0.083
-717.777	-156.722	-0.262	0.016
-716.762	219.662	0.095	-0.152
-715.748	216.686	0.131	0.208
-714.733	-98.507	-0.278	-0.071
-713.718	426.026	0.073	0.157
-712.704	197.739	-0.109	0.166
-711.689	-129.906	0.293	-0.040
-710.675	42.959	-0.157	0.143
-709.660	-106.599	-0.051	-0.011
-708.645	-200.000	-0.026	-0.346
-707.631	-35.458	-0.213	-0.116
-706.616	600.396	0.077	0.191
-705.602	-200.000	-0.063	-0.281
-704.587	-200.000	-0.034	-0.256
-703.572	-200.000	0.018	0.242
-702.558	220.187	0.095	0.152
-701.543	-200.000	-0.076	0.343
-700.529	-200.000	-0.008	0.123
-699.514	-81.392	0.087	-0.029
-698.499	109.173	-0.201	-0.241
-697.485	-94.885	-0.492	0.133
-696.470	-200.000	-0.156	0.001
-695.456	800.000	0.051	0.142
-694.441	371.629	0.073	0.147
-693.426	-200.000	0.017	-0.181
-692.412	-200.000	-0.037	-0.175
-691.397	800.000	-0.079	0.276
-690.383	-64.234	0.190	-0.078
-689.368	505.507	-0.193	-0.446
-688.354	-200.000	0.027	0.229
-687.339	103.173	0.203	0.238
-686.324	-31.978	0.391	0.219
-685.310	-84.589	0.127	0.040
-684.295	19.443	-0.299	-0.240
-683.281	800.000	-0.023	0.079
-682.266	-155.695	-0.166	-0.011
-681.251	83.087	0.139	0.151
-680.237	141.840	0.177	-0.234
-679.222	260.059	0.075	-0.129
-678.208	-200.000	-0.011	-0.111
-677.193	395.287	-0.088	0.182
-676.178	163.306	-0.161	-0.225
-675.164	-101.102	0.396	-0.097
-674.149	-200.000	-0.037	-0.184
-673.135	-200.000	-0.053	0.287
-672.120	44.392	-0.121	0.111
-671.105	-41.087	-0.157	-0.081
-670.091	-74.252	-0.219	-0.079
-669.076	-200.000	0.005	0.456
-668.062	800.000	-0.089	-0.266
-667.047	800.000	0.034	-0.145
-666.032	36.307	-0.120	0.106
-665.018	-200.000	0.358	-0.000
-664.003	-80.955	-0.156	0.052
-662.989	800.000	-0.053	-0.188
-661.974	-100.785	-0.538	0.132
-660.959	-50.708	0.145	0.068
-659.945	62.366	0.059	-0.059
-658.930	-61.500	-0.427	-0.179
-657.916	-2.413	-0.165	0.115
-656.901	-156.300	0.264	-0.016
-655.886	87.831	-0.229	-0.254
-654.872	-103.954	0.327	0.076
-653.857	-110.994	-0.223	-0.046
-652.843	-196.966	0.134	0.001
-651.828	-167.048	0.169	-0.007
-650.814	-142.035	-0.228	0.023
-649.799	800.000	-0.035	0.097
-648.784	-200.000	-0.019	0.269
-647.770	-85.010	-0.135	-0.042
-646.755	-11.670	0.318	-0.208
-645.741	761.270	-0.042	0.113
-644.726	-122.215	-0.280	0.046
-643.711	55.279	-0.118	-0.114
-642.697	-52.055	-0.511	0.237
-641.682	77.634	0.166	0.177
-640.668	123.270	-0.123	0.154
-639.653	-51.696	-0.223	0.104
-638.638	-12.980	-0.166	-0.107
-637.624	582.958	0.018	0.043
-636.609	103.476	-0.158	0.185
-635.595	-46.759	-0.097	-0.047
-634.580	-200.000	0.054	-0.288
-633.565	-121.641	0.074	0.012
-632.551	-20.435	-0.277	-0.170
-631.536	-200.000	0.018	-0.127
-630.522	624.030	0.074	-0.185
-629.507	-149.321	0.442	0.035
-628.492	-41.435	0.159	0.082
-627.478	-200.000	0.013	0.189
-626.463	-100.770	0.342	0.084
-625.449	141.055	-0.202	-0.267
-624.434	-200.000	0.008	0.115
-623.419	800.000	-0.048	-0.175
-622.405	800.000	0.067	-0.221
-621.390	43.974	-0.130	-0.119
-620.376	-45.531	-0.313	-0.155
-619.361	800.000	0.061	-0.190
-618.346	-158.475	-0.170	-0.010
-617.332	648.485	0.035	-0.090
-616.317	224.248	-0.076	-0.122
-615.303	-200.000	0.015	0.167
-614.288	35.385	0.186	0.163
-613.273	800.000	-0.078	0.329
-612.259	-200.000	-0.002	0.253
-611.244	143.259	0.119	-0.158
-610.230	-200.000	-0.003	0.059
-609.215	22.555	-0.058	0.047
-608.201	205.184	0.037	-0.057
-607.186	302.876	0.090	-0.166
-606.171	-109.093	-0.276	-0.059
-605.157	40.178	-0.164	-0.147
-604.142	-100.858	0.287	-0.070
-603.128	-200.000	-0.086	-0.440
-602.113	-200.000	-0.057	-0.393
-601.098	342.062	0.186	0.362
-600.084	-200.000	-0.010	-0.262
-599.069	-83.994	0.104	0.033
-598.055	442.237	-0.205	0.448
-597.040	-115.678	-0.230	0.043
-596.025	800.000	0.106	-0.319
-595.011	-39.797	-0.305	-0.158
-593.996	8.525	-0.113	-0.085
-592.982	-33.657	-0.154	-0.085
-591.967	-10.238	0.111	-0.073
-590.952	-166.727	-0.128	-0.005
-589.938	208.893	-0.123	0.191
-588.923	-16.112	-0.040	-0.025
-587.909	-200.000	-0.026	-0.192
-586.894	-143.351	0.267	-0.025
-585.879	-200.000	0.251	0.000
-584.865	-200.000	0.021	-0.131
-583.850	-200.000	-0.023	-0.152
-582.836	-39.839	0.139	0.073
-581.821	240.124	-0.081	0.135
-580.806	-128.233	-0.117	0.017
-579.792	-65.354	-0.404	-0.162
-578.777	361.778	0.106	-0.212
-577.763	388.809	0.065	0.133
-576.748	115.340	0.091	-0.111
-575.733	-56.049	-0.088	0.039
-574.719	275.413	0.006	0.011
-573.704	-138.319	0.308	-0.034
-572.690	-130.805	0.416	0.056
-571.675	-92.680	0.124	0.035
-570.661	800.000	0.085	-0.339
-569.646	62.408	0.231	-0.229
-568.631	88.249	0.243	-0.268
-567.617	-143.691	-0.089	0.008
-566.602	-94.394	0.141	0.038
-565.588	-109.794	-0.435	0.091
-564.573	-200.000	0.024	-0.217
-563.558	-87.265	0.255	-0.077
-562.544	800.000	0.028	0.082
-561.529	-200.000	0.028	0.260
-560.515	-45.099	-0.167	0.083
-559.500	137.645	-0.105	-0.137
-558.485	141.368	-0.052	-0.068
-557.471	785.345	0.102	0.279
-556.456	241.600	-0.095	0.158
-555.442	38.941	-0.035	-0.031
-554.427	531.573	-0.082	-0.193
-553.412	800.000	0.067	-0.210
-552.398	48.343	-0.139	0.129
-551.383	-200.000	-0.020	-0.229
-550.369	800.000	-0.164	-0.500
-549.354	-41.529	-0.109	-0.056
-548.339	-200.000	0.008	0.311
-547.325	-99.985	0.071	0.018
-546.310	-200.000	0.005	0.113
-545.296	800.000	0.048	0.137
-544.281	320.575	-0.074	0.140
-543.266	-124.360	-0.191	0.030
-542.252	800.000	-0.069	-0.192
-541.237	564.553	-0.060	0.144
-540.223	-111.991	-0.250	0.050
-539.208	-92.567	0.345	-0.096
-538.193	33.702	0.204	0.177
-537.179	259.198	-0.106	0.182
-536.164	-57.815	0.025	-0.011
-535.150	296.437	0.098	0.178
-534.135	187.145	0.059	0.087
-533.121	10.612	0.029	0.022
-532.106	394.315	-0.017	-0.035
-531.091	-97.575	0.092	-0.024
-530.077	-200.000	0.000	-0.024
-529.062	800.000	-0.153	0.602
-528.048	246.518	-0.169	0.283
-527.033	-72.052	-0.122	0.045
-526.018	151.638	-0.178	-0.241
-525.004	-200.000	0.038	0.268
-523.989	-123.189	-0.497	0.079
-522.975	-200.000	0.005	-0.348
-521.960	-62.941	0.275	-0.113
-520.945	-84.830	-0.342	0.107
-519.931	-135.473	-0.120	0.014
-518.916	-107.278	0.142	0.031
-517.902	-18.374	-0.233	0.145
-516.887	-134.337	-0.334	-0.041
-515.872	-200.000	0.008	0.423
-514.858	-200.000	-0.036	-0.408
-513.843	-14.989	-0.311	0.198
-512.829	-37.260	0.056	-0.030
-511.814	92.381	-0.154	-0.172
-510.799	-113.585	0.203	0.039
-509.785	-200.000	0.043	0.213
-508.770	-128.471	-0.158	-0.022
-507.756	-200.000	-0.015	-0.292
-506.741	156.834	-0.088	0.121
-505.726	229.454	0.058	0.094
-504.712	-114.048	-0.143	0.027
-503.697	-27.275	-0.341	-0.197
-502.683	638.084	0.031	-0.077
-501.668	-200.000	-0.019	-0.133
-500.653	-56.470	0.236	-0.104
-499.639	110.871	0.131	0.157
-498.624	-184.647	-0.426	0.007
-497.610	394.132	0.141	0.292
-496.595	-52.448	-0.245	-0.112
-495.581	-116.655	0.380	0.069
-494.566	-185.323	-0.203	0.003
-493.551	-119.145	-0.157	0.027
-492.537	74.433	-0.246	-0.256
-491.522	263.476	0.176	0.304
-490.508	102.569	-0.247	0.286
-489.493	-112.583	-0.422	0.083
-488.478	-120.773	0.136	0.023
-487.464	665.264	0.087	-0.224
-486.449	-73.331	0.346	-0.126
-485.435	39.257	-0.190	-0.168
-484.420	76.282	0.192	-0.202
-483.405	-104.546	0.244	0.056
-482.391	-23.661	0.188	-0.112
-481.376	-108.798	-0.189	0.040
-480.362	-123.532	-0.097	0.015
-479.347	-200.000	0.004	0.044
-478.332	669.472	0.027	-0.070
-477.318	316.416	0.206	-0.386
-476.303	134.699	-0.133	-0.171
-475.289	-67.884	0.130	-0.050
-474.274	-68.464	0.108	0.041
-473.259	27.403	-0.132	-0.110
-472.245	800.000	-0.034	-0.142
-471.230	562.788	0.058	-0.139
-470.216	223.864	0.110	-0.177
-469.201	762.995	0.082	0.221
-468.186	186.570	0.135	0.200
-467.172	-70.214	0.146	0.055
-466.157	321.904	0.042	0.080
-465.143	77.325	-0.274	-0.289
-464.128	-28.245	0.305	-0.174
-463.113	-135.858	0.387	-0.045
-462.099	379.124	-0.163	0.331
-461.084	475.587	0.015	0.032
-460.070	-121.125	0.255	-0.042
-459.055	-8.568	-0.247	0.164
-458.040	-115.911	-0.140	-0.026
-457.026	-33.904	-0.262	-0.143
-456.011	29.119	-0.191	-0.161
-454.997	-167.088	0.278	-0.011
-453.982	58.511	-0.051	-0.050
-452.968	-200.000	0.040	-0.283
-451.953	172.216	-0.148	-0.210
-450.938	-163.947	-0.304	-0.014
-449.924	-53.602	0.399	0.181
-448.909	-107.813	-0.227	0.049
-447.895	117.336	-0.183	-0.222
-446.880	203.112	-0.139	-0.212
-445.865	-200.000	-0.017	0.106
-444.851	-122.800	-0.088	0.014
-443.836	-144.269	0.111	0.010
-442.822	-61.626	0.072	0.030
-441.807	336.378	-0.150	-0.289
-440.792	281.715	0.072	0.128
-439.778	522.215	-0.090	-0.209
-438.763	-83.667	0.063	0.020
-437.749	-200.000	0.001	-0.166
-436.734	114.970	-0.186	0.225
-435.719	403.319	-0.107	0.223
-434.705	-200.000	0.039	0.326
-433.690	37.920	0.250	-0.220
-432.676	106.819	-0.265	-0.312
-431.661	-200.000	-0.015	0.237
-430.646	426.791	0.105	-0.225
-429.632	-143.156	-0.296	0.028
-428.617	-200.000	0.019	0.141
-427.603	444.299	0.056	0.122
-426.588	32.607	-0.127	-0.109
-425.573	123.727	0.169	0.210
-424.559	-84.703	-0.280	-0.087
-423.544	-187.189	0.087	0.001
-422.530	-120.513	0.278	0.047
-421.515	-161.864	0.205	-0.010
-420.500	-163.936	-0.278	-0.013
-419.486	-38.301	0.041	-0.021
-418.471	96.650	0.094	-0.106
-417.457	-134.624	0.208	-0.025
-416.442	-177.415	0.413	0.010
-415.428	472.165	-0.105	0.234
-414.413	170.345	-0.070	-0.099
-413.398	103.306	0.232	-0.269
-412.384	-132.481	-0.051	0.006
-411.369	2.397	-0.197	0.141
-410.355	-4.854	-0.159	-0.109
-409.340	800.000	-0.045	-0.150
-408.325	-67.499	0.246	-0.096
-407.311	-38.782	-0.259	-0.135
-406.296	-151.178	-0.177	0.013
-405.282	55.380	0.143	-0.137
-404.267	76.945	-0.114	0.120
-403.252	-172.148	0.480	0.015
-402.238	138.460	0.122	-0.159
-401.223	-200.000	-0.005	0.263
-400.209	278.569	-0.127	-0.223
-399.194	-121.403	-0.490	0.081
-398.179	146.089	0.091	0.121
-397.165	384.291	-0.099	-0.201
-396.150	-200.000	0.066	0.339
-395.136	-142.106	-0.052	-0.005
-394.121	-54.523	0.281	-0.126
-393.106	800.000	0.056	-0.184
-392.092	800.000	0.063	-0.220
-391.077	184.415	-0.135	0.198
-390.063	-114.574	-0.099	0.019
-389.048	800.000	-0.050	-0.164
-388.033	-83.700	-0.148	-0.047
-387.019	-33.872	-0.011	-0.006
-386.004	-80.356	0.212	-0.070
-384.990	-152.081	-0.166	-0.012
-383.975	800.000	-0.041	-0.149
-382.960	800.000	-0.065	-0.233
-381.946	87.864	-0.082	0.090
-380.931	-63.938	-0.088	-0.036
-379.917	48.215	-0.047	-0.043
-378.902	-69.936	0.095	0.036
-377.888	-163.352	-0.081	0.004
-376.873	-70.064	0.489	-0.184
-375.858	-200.000	0.027	-0.137
-374.844	67.250	0.057	0.057
-373.829	-200.000	0.044	0.404
-372.815	-115.162	0.139	-0.026
-371.800	180.879	-0.114	-0.166
-370.785	146.944	-0.105	0.140
-369.771	-2.168	-0.213	0.147
-368.756	800.000	0.093	0.332
-367.742	-108.592	0.103	-0.022
-366.727	-41.860	0.374	0.189
-365.712	287.986	-0.163	0.291
-364.698	-90.335	0.096	-0.027
-363.683	12.502	0.202	-0.154
-362.669	705.423	-0.056	-0.146
-361.654	800.000	0.079	0.237
-360.639	416.513	-0.103	0.217
-359.625	800.000	0.153	0.570
-358.610	-28.253	0.085	-0.048
-357.596	-132.421	-0.163	-0.021
-356.581	-200.000	0.033	-0.276
-355.566	800.000	0.114	-0.477
-354.552	455.976	0.063	0.138
-353.537	78.287	-0.090	0.095
-352.523	123.954	-0.180	-0.224
-351.508	-111.635	-0.484	-0.097
-350.493	-163.569	-0.223	-0.010
-349.479	-62.956	0.174	0.071
-348.464	329.376	0.082	-0.156
-347.450	20.313	-0.204	-0.163
-346.435	691.680	0.041	0.107
-345.420	800.000	0.022	-0.069
-344.406	223.689	-0.131	-0.209
-343.391	-52.923	-0.149	-0.068
-342.377	-200.000	0.009	-0.166
-341.362	-104.567	0.183	0.042
-340.348	-82.574	-0.236	0.075
-339.333	62.687	0.212	-0.209
-338.318	-14.419	0.206	-0.131
-337.304	-200.000	0.004	0.039
-336.289	121.405	0.015	0.018
-335.275	40.349	0.108	0.096
-334.260	-89.939	0.408	0.118
-333.245	180.007	-0.223	0.322
-332.231	236.474	0.133	-0.217
-331.216	533.949	0.116	-0.271
-330.202	800.000	-0.071	0.247
-329.187	-200.000	0.106	0.691
-328.172	401.380	0.027	0.055
-327.158	0.522	0.239	0.168
-326.143	7.020	-0.328	0.241
-325.129	26.724	0.125	-0.103
-324.114	-200.000	-0.011	-0.200
-323.099	143.231	0.144	-0.188
-322.085	-168.026	-0.325	-0.012
-321.070	-120.825	-0.209	-0.035
-320.056	-157.748	0.353	-0.021
-319.041	-47.189	-0.069	-0.033
-318.026	800.000	-0.023	0.090
-317.012	375.546	-0.103	0.207
-315.997	388.003	-0.065	-0.133
-314.983	-28.872	-0.186	-0.105
-313.968	134.322	0.017	0.022
-312.953	-200.000	-0.016	0.450
-311.939	-30.701	0.042	0.023
-310.924	-189.640	0.230	0.003
-309.910	-26.449	-0.218	-0.126
-308.895	-19.025	0.146	-0.089
-307.880	65.673	0.375	0.374
-306.866	-29.258	-0.389	-0.219
-305.851	-200.000	-0.006	-0.077
-304.837	102.207	-0.054	0.062
-303.822	-88.801	0.105	0.031
-302.807	-200.000	0.020	0.143
-301.793	331.651	0.117	-0.221
-300.778	-55.530	0.374	0.165
-299.764	-17.947	-0.160	0.099
-298.749	800.000	-0.108	-0.294
-297.735	249.909	0.119	0.198
-296.720	137.292	0.139	-0.179
-295.705	111.979	0.118	-0.140
-294.691	-200.000	0.020	-0.218
-293.676	16.953	0.135	-0.106
-292.662	-121.626	-0.212	-0.035
-291.647	-29.918	0.178	0.100
-290.632	139.795	0.100	0.129
-289.618	-2.612	-0.063	0.043
-288.603	-72.168	0.337	0.123
-287.589	-200.000	0.095	-0.500
-286.574	-87.175	0.088	0.026
-285.559	-95.767	0.288	-0.076
-284.545	-114.535	-0.499	-0.094
-283.530	30.776	-0.175	0.147
-282.516	800.000	-0.070	0.263
-281.501	-200.000	-0.015	-0.095
-280.486	-93.800	0.230	-0.062
-279.472	-68.865	0.168	0.064
-278.457	-163.243	-0.269	-0.013
-277.443	-200.000	0.014	0.086
-276.428	800.000	0.051	-0.153
-275.413	-164.748	-0.191	-0.008
-274.399	-5.382	0.187	-0.126
-273.384	-99.520	-0.099	-0.024
-272.370	-69.073	-0.196	-0.074
-271.355	30.203	-0.091	-0.076
-270.340	39.937	0.354	0.313
-269.326	-154.661	0.134	0.009
-268.311	-62.398	0.121	-0.050
-267.297	-53.457	-0.251	-0.113
-266.282	237.465	0.217	0.354
-265.267	250.751	-0.135	0.226
-264.253	120.565	0.089	-0.109
-263.238	-200.000	0.029	0.368
-262.224	-40.324	-0.192	0.098
-261.209	-200.000	-0.010	-0.218
-260.195	582.843	-0.114	0.275
-259.180	-34.471	-0.226	-0.122
-258.165	-106.244	0.137	0.030
-257.151	44.126	-0.064	-0.058
-256.136	134.696	0.170	0.217
-255.122	-162.378	0.106	0.005
-254.107	-156.822	-0.060	0.004
-253.092	100.910	0.232	-0.265
-252.078	-98.246	-0.056	-0.014
-251.063	-58.232	0.212	0.091
-250.049	287.951	-0.055	0.097
-249.034	-200.000	-0.017	-0.099
-248.019	-79.184	0.233	0.078
-247.005	7.729	-0.162	-0.119
-245.990	2.166	0.125	-0.089
-244.976	-52.507	-0.134	0.061
-243.961	-132.612	-0.368	0.046
-242.946	-87.740	0.101	0.030
-241.932	132.451	-0.219	0.278
-240.917	800.000	0.092	0.385
-239.903	-12.342	0.082	-0.053
-238.888	22.488	-0.151	0.121
-237.873	-143.059	0.262	-0.025
-236.859	-48.720	0.176	0.083
-235.844	-31.180	-0.210	-0.116
-234.830	-27.801	-0.201	-0.114
-233.815	-140.322	0.338	-0.035
-232.800	491.404	0.048	-0.107
-231.786	-99.103	-0.275	-0.068
-230.771	162.542	-0.095	0.131
-229.757	578.949	0.074	-0.179
-228.742	211.236	-0.080	0.123
-227.727	236.259	0.054	-0.088
-226.713	-135.417	0.208	0.024
-225.698	363.441	-0.049	0.096
-224.684	-200.000	0.032	0.221
-223.669	49.651	0.250	0.231
-222.655	-200.000	0.056	0.334
-221.640	251.543	0.103	0.172
-220.625	-8.607	-0.178	0.118
-219.611	55.022	0.063	0.060
-218.596	187.863	0.098	-0.143
-217.582	-200.000	-0.007	-0.032
-216.567	92.693	-0.197	-0.218
-215.552	-149.397	-0.239	0.019
-214.538	74.148	-0.099	0.102
-213.523	49.138	0.236	0.217
-212.509	-1.516	0.238	-0.165
-211.494	-118.345	0.208	-0.036
-210.479	292.622	0.086	-0.153
-209.465	-107.014	-0.063	-0.014
-208.450	800.000	-0.084	0.330
-207.436	554.299	0.024	0.058
-206.421	49.485	0.172	-0.159
-205.406	-200.000	0.032	0.394
-204.392	208.730	0.241	0.370
-203.377	800.000	-0.074	-0.209
-202.363	-200.000	0.016	0.168
-201.348	-200.000	0.022	-0.157
-200.333	68.040	0.212	-0.212
-199.319	800.000	0.047	-0.187
-198.304	-177.285	-0.099	-0.002
-197.290	-78.492	0.229	0.077
-196.275	800.000	-0.063	0.182
-195.260	-186.881	-0.191	0.003
-194.246	173.937	-0.120	0.170
-193.231	-87.799	0.224	0.066
-192.217	281.627	0.129	-0.227
-191.202	800.000	0.078	0.265
-190.187	-98.824	-0.172	-0.043
-189.173	-135.137	0.300	-0.035
-188.158	134.213	0.118	0.150
-187.144	-200.000	0.046	0.209
-186.129	43.534	0.183	-0.164
-185.114	800.000	0.107	-0.439
-184.100	-200.000	-0.013	-0.073
-183.085	8.510	0.356	0.262
-182.071	800.000	-0.059	-0.191
-181.056	-155.552	0.079	0.005
-180.042	-81.493	-0.104	0.034
-179.027	-24.615	0.107	0.062
-178.012	-38.996	-0.334	-0.172
-176.998	319.507	-0.060	-0.111
-175.983	-8.167	-0.180	0.119
-174.969	-200.000	0.020	-0.150
-173.954	-106.044	0.192	-0.042
-172.939	19.086	-0.187	0.147
-171.925	-200.000	-0.074	0.420
-170.910	-100.207	0.074	-0.018
-169.896	-166.138	0.028	0.001
-168.881	57.327	0.085	0.081
-167.866	655.762	0.057	0.142
-166.852	-168.570	-0.177	0.007
-165.837	-9.020	0.285	0.187
-164.823	115.039	0.124	-0.148
-163.808	-142.455	-0.152	0.015
-162.793	-12.542	-0.218	-0.139
-161.779	-200.000	0.016	0.247
-160.764	85.528	-0.183	-0.197
-159.750	97.236	0.180	0.202
-158.735	-113.585	0.219	0.042
-157.720	-81.195	0.168	-0.054
-156.706	-60.086	0.225	-0.094
-155.691	-200.000	-0.002	0.106
-154.677	-74.984	-0.232	-0.081
-153.662	-200.000	-0.110	-0.000
-152.647	-200.000	-0.015	-0.130
-151.633	270.150	0.157	0.270
-150.618	52.720	-0.273	-0.255
-149.604	54.078	-0.288	0.271
-148.589	-97.090	0.218	-0.056
-147.574	-173.436	0.061	-0.002
-146.560	141.405	0.108	-0.140
-145.545	512.839	0.173	0.394
-144.531	352.008	0.077	0.149
-143.516	27.423	-0.217	0.179
-142.502	35.092	-0.155	0.133
-141.487	-157.240	-0.192	0.011
-140.472	-200.000	0.017	0.260
-139.458	-78.196	0.328	0.110
-138.443	132.121	-0.216	-0.272
-137.429	-200.000	0.021	-0.101
-136.414	-80.094	0.365	0.120
-135.399	-200.000	0.079	0.361
-134.385	-182.243	-0.280	-0.005
-133.370	61.834	0.221	0.215
-132.356	138.629	0.259	0.332
-131.341	-21.890	-0.127	0.076
-130.326	-200.000	0.001	0.132
-129.312	-75.323	-0.134	0.047
-128.297	-131.423	0.069	-0.009
-127.283	-18.750	-0.242	0.147
-126.268	-64.666	-0.249	0.099
-125.253	460.016	0.082	0.179
-124.239	772.521	-0.060	0.161
-123.224	91.008	-0.056	-0.061
-122.210	-121.871	-0.206	0.033
-121.195	-27.263	0.028	0.016
-120.180	2.168	0.164	0.116
-119.166	-200.000	0.002	-0.384
-118.151	-200.000	-0.014	-0.295
-117.137	79.461	0.475	-0.498
-116.122	42.123	-0.086	-0.076
-115.107	468.396	0.040	0.087
-114.093	126.284	0.094	-0.116
-113.078	259.954	0.191	0.322
-112.064	-114.179	0.265	0.050
-111.049	-200.000	-0.013	0.376
-110.034	110.158	-0.149	0.175
-109.020	800.000	-0.095	0.381
-108.005	-117.653	0.155	0.027
-106.991	150.998	0.219	0.291
-105.976	779.031	-0.076	-0.202
-104.962	-70.237	0.201	0.075
-103.947	-134.121	-0.118	0.014
-102.932	-200.000	0.015	-0.161
-101.918	-200.000	-0.024	-0.223
-100.903	-122.806	0.376	-0.059
-99.889	104.881	0.152	-0.176
-98.874	-95.318	-0.372	0.098
-97.859	-94.442	-0.057	0.015
-96.845	183.523	-0.219	-0.316
-95.830	-200.000	0.024	0.272
-94.816	-7.078	-0.168	-0.111
-93.801	15.348	0.269	0.206
-92.786	-200.000	0.044	0.224
-91.772	-53.713	0.201	-0.090
-90.757	-91.619	0.360	-0.100
-89.743	-200.000	0.003	-0.046
-88.728	-198.091	0.151	0.001
-87.713	-11.724	-0.107	-0.068
-86.699	-200.000	-0.037	-0.340
-85.684	-191.283	-0.202	0.002
-84.670	-142.645	0.327	-0.031
-83.655	-48.697	-0.237	-0.111
-82.640	800.000	0.030	-0.095
-81.626	-200.000	0.050	-0.227
-80.611	-131.436	-0.114	0.015
-79.597	178.712	0.228	0.325
-78.582	640.429	-0.080	0.198
-77.567	10.952	-0.478	-0.356
-76.553	143.702	0.207	0.269
-75.538	-54.270	-0.107	-0.048
-74.524	166.069	0.160	0.221
-73.509	-133.975	-0.181	0.022
-72.494	-200.000	-0.020	-0.160
-71.480	-200.000	0.018	-0.216
-70.465	-200.000	0.077	0.491
-69.451	315.343	-0.081	0.148
-68.436	-156.656	-0.209	-0.013
-67.422	-110.217	0.388	-0.079
-66.407	800.000	0.044	0.153
-65.392	-122.540	0.580	0.092
-64.378	25.507	0.043	0.035
-63.363	-200.000	-0.024	-0.209
-62.349	-108.423	0.376	-0.079
-61.334	88.342	-1.092	-1.183
-60.319	281.686	0.506	0.885
-59.305	800.000	-0.232	-0.990
-58.290	262.501	0.932	1.576
-57.276	297.846	0.785	1.407
-56.261	-200.000	123.744	639.406
-55.246	409.758	1563.047	3228.895
-54.232	143.448	2721.838	3533.453
-53.217	94.395	2184.376	2418.842
-52.203	33.785	1702.608	1444.093
-51.188	26.232	1521.268	1238.667
-50.173	24.379	1497.148	1206.463
-49.159	47.719	1568.285	1426.735
-48.144	45.502	1580.715	1422.597
-47.130	26.485	1529.584	1246.985
-46.115	23.610	1513.592	1214.263
-45.100	23.422	1509.984	1210.037
-44.086	23.289	1508.825	1208.151
-43.071	23.364	1506.665	1206.884
-42.057	23.248	1504.797	1204.548
-41.042	23.191	1504.054	1203.517
-40.027	23.289	1501.868	1202.391
-39.013	23.289	1500.596	1201.325
-37.998	23.307	1499.480	1200.504
-36.984	23.328	1498.073	1199.469
-35.969	23.348	1496.483	1198.283
-34.954	23.355	1494.978	1197.082
-33.940	23.255	1494.039	1195.605
-32.925	23.276	1492.357	1194.353
-31.911	23.315	1491.178	1193.624
-30.896	23.344	1490.094	1192.906
-29.881	23.410	1488.595	1192.104
-28.867	23.329	1487.479	1190.619
-27.852	23.322	1485.877	1189.237
-26.838	23.442	1484.529	1188.919
-25.823	23.407	1482.957	1187.376
-24.809	23.341	1481.078	1185.383
-23.794	23.359	1479.457	1184.162
-22.779	23.373	1478.278	1183.264
-21.765	23.416	1477.294	1182.714
-20.750	23.303	1476.634	1181.389
-19.736	23.300	1475.801	1180.655
-18.721	23.222	1474.469	1179.021
-17.706	23.176	1473.663	1178.026
-16.692	23.288	1472.131	1177.499
-15.677	23.271	1471.404	1176.759
-14.663	23.198	1470.367	1175.394
-13.648	23.273	1469.428	1175.097
-12.633	23.326	1468.343	1174.534
-11.619	23.338	1467.305	1173.736
-10.604	23.263	1466.718	1172.721
-9.590	23.262	1465.883	1172.005
-8.575	23.315	1464.508	1171.206
-7.560	23.338	1463.408	1170.434
-6.546	23.402	1462.952	1170.447
-5.531	23.348	1462.206	1169.448
-4.517	23.314	1461.170	1168.344
-3.502	23.226	1460.464	1167.152
-2.487	23.358	1459.620	1167.301
-1.473	23.217	1458.910	1165.760
-0.458	23.303	1456.791	1164.588
0.556	21.606	1447.412	1153.520
1.571	18.699	1422.951	1115.063
2.586	15.553	1362.635	1048.104
3.600	13.932	1279.332	974.444
4.615	13.155	1235.773	936.774
5.629	11.586	1179.132	885.266
6.644	5.682	1097.667	794.176
7.659	0.948	1061.984	745.036
8.673	0.289	1056.641	737.995
9.688	0.183	1053.229	735.031
10.702	0.136	1052.008	733.885
11.717	0.091	1049.942	732.160
12.731	2.135	1050.441	742.385
13.746	8.505	1059.304	779.729
14.761	14.573	1067.164	815.180
15.775	16.638	1069.313	826.849
16.790	16.413	1068.019	824.678
17.804	15.480	1065.702	818.270
18.819	14.647	1064.180	812.972
19.834	14.120	1062.862	809.327
20.848	13.931	1062.107	807.765
21.863	13.678	1061.108	805.705
22.877	13.429	1060.452	803.925
23.892	13.301	1059.121	802.223
24.907	13.127	1058.463	800.811
25.921	13.098	1057.599	799.944
26.936	13.151	1057.096	799.750
27.950	13.271	1056.585	799.876
28.965	13.265	1055.540	798.984
29.980	13.376	1054.754	798.855
30.994	13.400	1054.049	798.366
32.009	13.390	1053.150	797.566
33.023	13.479	1052.508	797.438
34.038	13.382	1051.850	796.399
35.053	13.461	1050.784	795.905
36.067	13.292	1049.933	794.375
37.082	13.313	1049.280	793.913
38.096	13.369	1048.455	793.487
39.111	13.242	1048.151	792.579
40.126	13.291	1047.041	791.901
41.140	13.318	1045.581	790.856
42.155	13.259	1044.721	789.854
43.169	13.167	1044.115	788.888
44.184	13.162	1042.862	787.847
45.199	13.185	1041.573	786.916
46.213	13.121	1040.631	785.828
47.228	13.261	1039.655	785.684
48.242	13.245	1038.579	784.728
49.257	13.260	1037.737	784.097
50.271	13.289	1036.769	783.428
51.286	13.364	1035.743	782.943
52.301	13.301	1035.127	782.109
53.315	13.362	1034.203	781.626
54.330	13.218	1033.470	780.327
55.344	13.341	1032.392	780.025
56.359	13.150	1031.363	778.276
57.374	13.155	1030.897	777.878
58.388	13.217	1029.741	777.229
59.403	13.204	1028.899	776.463
60.417	13.221	1027.771	775.623
61.432	13.160	1027.141	774.795
62.447	13.130	1026.628	774.200
63.461	13.161	1025.688	773.566
64.476	12.981	1025.117	772.223
65.490	13.091	1024.185	771.967
66.505	13.140	1023.281	771.445
67.520	13.082	1022.828	770.769
68.534	13.179	1021.433	770.101
69.549	13.237	1020.937	769.929
70.563	13.192	1019.939	768.896
71.578	13.135	1019.564	768.281
72.593	13.181	1018.523	767.645
73.607	13.132	1017.405	766.504
74.622	13.101	1016.557	765.655
75.636	13.077	1015.643	764.787
76.651	13.085	1014.894	764.194
77.666	13.083	1014.431	763.766
78.680	13.027	1013.627	762.834
79.695	12.998	1013.216	762.326
80.709	13.095	1012.363	762.065
81.724	13.139	1011.404	761.477
82.739	13.179	1010.792	761.132
83.753	13.264	1010.129	760.956
84.768	13.339	1008.788	760.223
85.782	13.344	1008.132	759.687
86.797	13.385	1007.213	759.113
87.812	13.317	1006.707	758.354
88.826	13.304	1005.752	757.507
89.841	13.257	1004.897	756.581
90.855	13.331	1004.308	756.410
91.870	13.373	1003.875	756.209
92.884	13.316	1002.944	755.179
93.899	13.441	1001.965	754.946
94.914	13.418	1001.360	754.318
95.928	13.514	1000.440	753.995
96.943	13.466	999.825	753.249
97.957	13.473	998.658	752.337
98.972	13.354	998.324	751.477
99.987	13.422	997.772	751.303
101.001	13.438	996.657	750.468
102.016	13.435	995.748	749.706
103.030	13.457	994.663	748.919
104.045	13.311	994.002	747.695
105.060	13.454	992.784	747.362
106.074	13.365	992.075	746.359
107.089	13.335	991.198	745.497
108.103	13.320	990.024	744.480
109.118	13.252	989.341	743.597
110.133	13.261	988.649	743.049
111.147	13.180	988.075	742.191
112.162	13.298	986.987	741.836
113.176	13.147	986.319	740.590
114.191	13.208	985.545	740.216
115.206	13.291	984.307	739.592
116.220	13.341	983.326	739.013
117.235	13.217	982.894	738.070
118.249	13.316	981.992	737.770
119.264	13.355	980.781	736.967
120.279	13.235	980.213	735.941
121.293	13.290	979.309	735.445
122.308	13.296	978.471	734.776
123.322	13.370	977.760	734.507
124.337	13.160	976.863	732.834
125.352	13.302	975.435	732.329
126.366	13.318	974.333	731.507
127.381	13.255	973.350	730.427
128.395	13.196	972.266	729.287
129.410	13.148	971.649	728.549
130.424	13.092	970.382	727.285
131.439	13.306	969.374	727.409
132.454	13.415	968.478	727.149
133.468	13.232	968.347	726.184
134.483	13.306	967.517	725.824
135.497	13.317	966.754	725.232
136.512	13.446	965.725	724.963
137.527	13.208	965.436	723.639
138.541	13.219	964.594	722.991
139.556	13.289	963.499	722.416
140.570	13.367	962.686	722.079
141.585	13.320	961.931	721.247
142.600	13.400	961.266	721.032
143.614	13.416	960.946	720.797
144.629	13.395	960.002	719.935
145.643	13.547	959.171	719.909
146.658	13.366	958.381	718.467
147.673	13.402	957.589	717.966
148.687	13.509	956.758	717.742
149.702	13.514	955.530	716.777
150.716	13.458	954.541	715.731
151.731	13.446	954.017	715.224
152.746	13.418	953.461	714.620
153.760	13.529	952.770	714.521
154.775	13.541	952.216	714.093
155.789	13.507	951.324	713.213
156.804	13.514	950.402	712.490
157.819	13.455	949.596	711.570
158.833	13.548	949.197	711.606
159.848	13.598	948.240	711.040
160.862	13.690	947.412	710.753
161.877	13.715	946.676	710.246
162.892	13.620	946.191	709.410
163.906	13.367	945.424	707.690
164.921	13.685	944.001	707.920
165.935	13.576	943.432	706.967
166.950	13.589	942.177	706.018
167.964	13.677	941.094	705.520
168.979	13.538	940.732	704.593
169.994	13.671	939.256	703.991
171.008	13.547	938.722	703.003
172.023	13.743	937.324	702.724
173.037	13.737	936.917	702.332
174.052	13.778	935.923	701.698
175.067	13.668	935.546	700.886
176.081	13.609	934.885	700.080
177.096	13.696	934.172	699.853
178.110	13.629	933.110	698.712
179.125	13.645	932.697	698.410
180.140	13.670	931.260	697.377
181.154	13.788	930.639	697.347
182.169	13.687	930.514	696.763
183.183	13.660	930.002	696.206
184.198	13.758	928.795	695.651
185.213	13.803	928.441	695.513
186.227	13.848	927.463	694.907
187.242	13.919	927.131	694.896
188.256	13.936	926.296	694.279
189.271	13.914	925.730	693.703
190.286	13.884	925.002	692.971
191.300	13.932	923.823	692.225
192.315	13.753	923.181	690.937
193.329	13.714	922.786	690.418
194.344	13.780	922.259	690.237
195.359	13.821	921.843	690.034
196.373	13.792	921.469	689.576
197.388	13.928	920.424	689.294
198.402	13.815	920.292	688.666
199.417	14.091	919.494	689.151
200.432	14.116	918.986	688.815
201.446	14.194	918.521	688.729
202.461	14.219	918.143	688.486
203.475	14.274	917.492	688.166
204.490	14.188	917.180	687.517
205.504	14.102	916.215	686.374
206.519	14.049	915.521	685.579
207.534	14.103	914.568	685.026
208.548	14.180	913.827	684.727
209.563	14.063	913.469	683.917
210.577	14.144	912.688	683.604
211.592	14.155	911.988	683.063
212.607	14.181	911.111	682.455
213.621	14.166	910.837	682.125
214.636	14.351	909.515	681.833
215.650	14.168	909.371	680.918
216.665	14.286	908.763	680.882
217.680	14.239	908.448	680.395
218.694	14.401	907.764	680.483
219.709	14.526	906.849	680.247
220.723	14.344	906.323	679.051
221.738	14.306	905.515	678.229
222.753	14.473	904.757	678.281
223.767	14.351	904.556	677.577
224.782	14.375	903.529	676.844
225.796	14.368	902.977	676.343
226.811	14.351	902.855	676.121
227.826	14.449	901.561	675.492
228.840	14.326	900.900	674.436
229.855	14.531	900.059	674.577
230.869	14.432	899.350	673.586
231.884	14.487	898.947	673.449
232.899	14.445	898.292	672.728
233.913	14.383	897.725	671.992
234.928	14.509	896.562	671.571
235.942	14.381	896.063	670.623
236.957	14.563	895.187	670.638
237.972	14.461	894.923	669.973
238.986	14.460	894.400	669.516
240.001	14.456	893.921	669.081
241.015	14.529	893.011	668.635
242.030	14.697	892.128	668.589
243.045	14.641	891.483	667.820
244.059	14.591	891.330	667.446
245.074	14.596	890.215	666.575
246.088	14.559	889.475	665.812
247.103	14.834	888.886	666.410
248.117	14.667	888.759	665.590
249.132	14.711	887.872	665.042
250.147	14.855	887.473	665.256
251.161	14.733	887.006	664.362
252.176	14.719	886.086	663.559
253.190	14.787	885.562	663.378
254.205	14.899	884.925	663.288
255.220	14.866	884.402	662.704
256.234	14.845	884.007	662.266
257.249	14.924	883.185	661.906
258.263	14.956	882.515	661.472
259.278	15.095	881.477	661.182
260.293	15.080	880.999	660.706
261.307	15.025	880.725	660.226
262.322	15.233	879.992	660.440
263.336	15.084	879.424	659.366
264.351	15.147	878.898	659.161
265.366	15.201	878.271	658.846
266.380	15.233	877.445	658.292
267.395	15.302	876.800	658.024
268.409	15.181	875.918	656.827
269.424	15.275	875.446	656.785
270.439	15.168	874.710	655.753
271.453	15.311	873.936	655.676
272.468	15.292	872.992	654.835
273.482	15.138	872.636	653.908
274.497	15.148	871.890	653.329
275.512	15.170	871.109	652.774
276.526	15.270	870.351	652.539
277.541	15.248	870.040	652.159
278.555	15.344	869.195	651.844
279.570	15.431	868.654	651.717
280.585	15.394	868.157	651.144
281.599	15.452	867.661	650.940
282.614	15.222	867.434	649.818
283.628	15.335	866.558	649.544
284.643	15.308	866.181	649.098
285.657	15.299	865.629	648.593
286.672	15.476	864.795	648.593
287.687	15.342	864.790	648.014
288.701	15.415	864.227	647.820
289.716	15.434	863.308	647.143
290.730	15.529	862.594	646.919
291.745	15.379	862.409	646.143
292.760	15.545	861.078	645.727
293.774	15.564	861.115	645.773
294.789	15.586	860.209	645.118
295.803	15.528	859.917	644.624
296.818	15.579	859.037	644.100
297.833	15.570	858.541	643.638
298.847	15.566	857.750	642.971
299.862	15.697	856.902	642.779
300.876	15.645	856.053	641.886
301.891	15.778	855.268	641.748
302.906	15.608	855.081	640.906
303.920	15.570	854.371	640.172
304.935	15.750	853.769	640.347
305.949	15.722	853.287	639.823
306.964	15.776	852.580	639.441
307.979	15.755	851.844	638.755
308.993	15.842	851.155	638.510
310.008	15.796	851.023	638.180
311.022	16.013	849.972	638.159
312.037	15.999	849.564	637.744
313.052	15.831	849.484	636.990
314.066	15.853	848.638	636.380
315.081	15.834	848.174	635.905
316.095	15.841	847.629	635.466
317.110	15.892	846.716	634.920
318.125	15.857	846.083	634.255
319.139	15.869	845.597	633.880
320.154	15.833	845.792	633.837
321.168	15.878	844.745	633.164
322.183	15.958	844.392	633.143
323.197	15.972	843.733	632.647
324.212	15.872	843.175	631.798
325.227	16.044	842.416	631.817
326.241	15.910	842.420	631.264
327.256	16.059	841.479	631.060
328.270	15.989	840.565	630.056
329.285	16.055	840.306	630.051
330.300	15.843	840.295	629.194
331.314	16.066	839.322	629.245
332.329	15.952	839.159	628.643
333.343	16.001	838.048	627.938
334.358	16.102	837.675	627.977
335.373	16.100	837.115	627.496
336.387	16.217	836.158	627.156
337.402	16.145	835.792	626.560
338.416	16.104	835.476	626.114
339.431	16.243	834.744	626.028
340.446	16.267	834.349	625.762
341.460	16.184	833.971	625.116
342.475	16.272	833.291	624.879
343.489	16.297	832.463	624.293
344.504	16.336	831.963	624.007
345.519	16.479	831.531	624.156
346.533	16.514	830.807	623.686
347.548	16.544	830.365	623.410
348.562	16.371	829.940	622.399
349.577	16.469	829.268	622.201
350.592	16.410	828.763	621.552
351.606	16.474	828.463	621.504
352.621	16.333	827.975	620.567
353.635	16.413	827.781	620.659
354.650	16.483	827.179	620.410
355.665	16.528	826.720	620.176
356.679	16.429	826.200	619.370
357.694	16.546	825.859	619.488
358.708	16.551	824.584	618.494
359.723	16.560	824.627	618.502
360.738	16.460	824.225	617.782
361.752	16.576	823.430	617.556
362.767	16.596	823.018	617.266
363.781	16.549	823.007	617.030
364.796	16.598	822.466	616.747
365.810	16.745	821.836	616.756
366.825	16.669	821.476	616.156
367.840	16.738	821.036	616.022
368.854	16.572	820.833	615.210
369.869	16.684	820.433	615.266
370.883	16.640	819.654	614.467
371.898	16.732	818.750	614.068
372.913	16.817	818.034	613.785
373.927	16.769	817.651	613.268
374.942	16.730	817.174	612.714
375.956	16.820	816.511	612.490
376.971	16.812	816.351	612.285
377.986	16.905	815.431	611.879
379.000	16.978	815.197	611.912
380.015	17.027	814.350	611.398
381.029	17.078	813.987	611.256
382.044	17.058	813.725	610.932
383.059	17.051	812.740	610.112
384.073	17.108	812.240	609.888
385.088	16.946	811.859	608.968
386.102	16.963	811.266	608.530
387.117	16.910	810.867	607.986
388.132	16.991	810.290	607.791
389.146	17.018	810.030	607.639
390.161	17.005	809.401	607.067
391.175	16.964	809.391	606.858
392.190	17.278	808.803	607.487
393.205	17.150	808.105	606.449
394.219	17.118	807.729	606.001
395.234	17.102	807.299	605.568
396.248	17.133	807.025	605.420
397.263	17.046	806.457	604.630
398.278	17.215	805.999	604.834
399.292	17.169	805.460	604.214
400.307	17.147	805.330	603.983
401.321	17.099	804.684	603.276
402.336	17.165	804.154	603.060
403.350	17.204	804.030	603.048
404.365	17.230	803.434	602.641
405.380	17.133	802.895	601.839
406.394	17.282	802.439	601.974
407.409	17.400	801.777	601.840
408.423	17.399	801.658	601.696
409.438	17.332	801.141	601.017
410.453	17.406	800.376	600.649
411.467	17.428	800.559	600.811
412.482	17.441	800.136	600.489
413.496	17.513	799.357	600.103
414.511	17.436	798.653	599.252
415.526	17.478	798.785	599.444
416.540	17.521	797.789	598.797
417.555	17.536	797.667	598.704
418.569	17.614	797.200	598.575
419.584	17.453	796.749	597.617
420.599	17.452	796.409	597.306
421.613	113.300	1297.813	1486.493
422.628	97.544	1370.818	1486.588
