DTS Sentinel unit serial number:	SN413079Multiplexer serial number:	ORYXHardware model number:	OX4-SRSoftware version number:	ORYX F/W v4.00 Oryx Data Collector v3.7.2.0data status	okinstallation	princeton_trtdifferential loss correction	single-endedforward channel	channel 3reverse channel	N/Adate	2019/09/16time	21:04:34forward acquisition time	60.00reverse acquisition time	0.00gamma	496.2192k internal	0.2324k external	0.2324temperature offset calibration	0.9937default loss term (dB/km)	0.3790temperature slope calibration	1.0000multiplexer offset coefficient	1.0000multiplexer slope coefficient	1.0000fibre end	0.00T internal ref (°C)	31.94T ext. ref 1 (°C)	0.05T ext. ref 2 (°C)	25.38length (m)	temperature (°C)	Stokes	anti-Stokes-747.200	-163.204	-0.263	-0.013
-746.185	-56.084	0.266	-0.120
-745.171	190.581	0.110	-0.166
-744.156	-200.000	-0.027	0.355
-743.142	-97.428	0.124	-0.033
-742.127	-20.187	-0.181	0.113
-741.112	-200.000	0.017	0.213
-740.098	800.000	0.064	0.205
-739.083	-200.000	0.000	0.281
-738.069	-200.000	0.002	0.293
-737.054	2.938	-0.404	0.296
-736.039	468.046	-0.066	0.150
-735.025	122.733	0.071	-0.090
-734.010	522.829	-0.073	-0.172
-732.996	71.205	0.091	-0.095
-731.981	-200.000	0.015	-0.089
-730.966	-200.000	-0.044	-0.416
-729.952	800.000	0.079	0.333
-728.937	-56.941	-0.078	-0.035
-727.923	22.124	0.139	0.115
-726.908	-36.317	0.104	0.057
-725.894	800.000	-0.049	0.208
-724.879	-89.595	0.257	-0.076
-723.864	-148.712	0.102	-0.008
-722.850	466.405	-0.065	-0.148
-721.835	-7.739	0.137	-0.093
-720.821	646.923	0.075	-0.194
-719.806	-78.457	0.337	-0.116
-718.791	-10.534	-0.283	-0.189
-717.777	-129.318	-0.096	0.013
-716.762	-40.971	0.365	-0.190
-715.748	-71.979	0.187	-0.070
-714.733	11.976	0.221	0.171
-713.718	-3.965	0.150	-0.105
-712.704	509.005	-0.239	0.560
-711.689	-200.000	0.004	0.036
-710.675	337.264	-0.068	-0.133
-709.660	-200.000	0.007	0.381
-708.645	-83.200	-0.336	-0.109
-707.631	-69.119	0.186	-0.072
-706.616	-82.404	-0.179	0.059
-705.602	-61.640	-0.451	0.191
-704.587	62.778	-0.029	-0.030
-703.572	800.000	0.057	-0.218
-702.558	-16.545	0.221	-0.141
-701.543	-8.587	0.156	0.106
-700.529	-76.484	0.185	0.065
-699.514	30.943	0.152	0.131
-698.499	-36.008	-0.121	0.066
-697.485	-146.675	-0.381	-0.033
-696.470	-93.787	-0.299	0.083
-695.456	800.000	-0.021	0.062
-694.441	-10.087	0.171	0.114
-693.426	91.688	-0.059	0.067
-692.412	252.710	0.159	-0.274
-691.397	132.952	0.135	-0.175
-690.383	-55.379	-0.217	0.098
-689.368	122.248	0.126	0.159
-688.354	293.878	0.073	-0.135
-687.339	-91.564	0.129	-0.037
-686.324	90.492	-0.191	0.215
-685.310	-63.911	0.300	0.123
-684.295	3.474	-0.331	0.243
-683.281	-65.045	0.239	0.097
-682.266	-117.984	-0.198	0.036
-681.251	-200.000	0.043	0.376
-680.237	800.000	0.048	0.184
-679.222	146.295	-0.187	0.252
-678.208	190.889	-0.073	-0.111
-677.193	57.508	0.064	0.063
-676.178	-8.198	-0.271	-0.184
-675.164	149.451	0.100	0.137
-674.149	800.000	0.047	-0.174
-673.135	-75.282	-0.342	0.123
-672.120	-112.843	0.137	-0.027
-671.105	800.000	0.012	-0.036
-670.091	-31.586	-0.099	-0.056
-669.076	642.348	-0.093	-0.238
-668.062	78.778	0.193	-0.207
-667.047	-200.000	0.033	-0.302
-666.032	145.375	-0.064	0.086
-665.018	-42.820	-0.291	-0.149
-664.003	-36.275	0.227	-0.123
-662.989	-167.165	-0.211	-0.009
-661.974	587.778	0.194	0.480
-660.959	93.282	-0.235	-0.267
-659.945	290.781	0.227	-0.414
-658.930	-56.063	-0.264	-0.119
-657.916	15.887	0.093	-0.074
-656.901	-80.563	-0.131	0.044
-655.886	-32.502	-0.121	-0.068
-654.872	-138.683	-0.047	0.005
-653.857	68.158	0.216	-0.223
-652.843	-128.747	-0.082	-0.012
-651.828	3.069	-0.337	-0.246
-650.814	800.000	-0.061	0.242
-649.799	-200.000	-0.005	0.257
-648.784	-200.000	0.000	0.034
-647.770	-119.146	0.129	-0.023
-646.755	-200.000	-0.047	0.209
-645.741	-131.232	0.229	-0.031
-644.726	-200.000	-0.013	-0.367
-643.711	-82.082	0.213	0.070
-642.697	124.083	-0.113	-0.143
-641.682	-40.661	0.218	-0.114
-640.668	-35.831	-0.159	0.086
-639.653	3.661	0.126	-0.092
-638.638	284.167	-0.063	0.114
-637.624	-110.790	0.188	-0.039
-636.609	133.745	-0.145	-0.188
-635.595	-111.246	0.196	-0.040
-634.580	88.807	-0.147	0.164
-633.565	106.672	-0.121	-0.144
-632.551	129.213	0.190	-0.244
-631.536	800.000	-0.103	-0.376
-630.522	533.456	-0.101	-0.240
-629.507	544.599	0.119	-0.285
-628.492	-0.118	-0.060	0.043
-627.478	15.235	-0.275	-0.217
-626.463	306.055	0.081	0.151
-625.449	-129.931	0.329	0.045
-624.434	-73.586	-0.360	-0.132
-623.419	118.585	0.114	-0.142
-622.405	397.869	-0.091	0.191
-621.390	20.828	0.367	-0.299
-620.376	-112.772	0.195	0.039
-619.361	-46.367	0.168	-0.083
-618.346	-144.523	0.050	-0.005
-617.332	-83.938	-0.109	-0.035
-616.317	-200.000	-0.074	0.460
-615.303	800.000	0.052	0.193
-614.288	39.861	0.233	-0.210
-613.273	359.443	-0.119	0.239
-612.259	-151.008	0.219	0.017
-611.244	-200.000	-0.006	-0.246
-610.230	-36.903	0.322	-0.174
-609.215	-152.649	-0.101	-0.007
-608.201	-92.173	-0.170	0.048
-607.186	78.419	0.095	0.102
-606.171	155.323	-0.157	-0.217
-605.157	458.276	0.086	-0.191
-604.142	-144.693	0.313	-0.029
-603.128	-200.000	-0.006	0.310
-602.113	157.672	-0.110	-0.152
-601.098	38.740	0.381	0.341
-600.084	450.542	-0.092	0.203
-599.069	39.072	-0.113	0.101
-598.055	3.467	-0.137	-0.100
-597.040	800.000	0.046	0.150
-596.025	-139.843	0.078	-0.008
-595.011	32.486	-0.212	0.184
-593.996	-116.079	-0.266	0.050
-592.982	612.493	0.076	-0.190
-591.967	-200.000	-0.044	-0.256
-590.952	111.863	-0.108	-0.130
-589.938	290.369	0.015	-0.027
-588.923	114.187	0.110	-0.134
-587.909	-0.583	0.144	0.103
-586.894	-200.000	0.002	0.113
-585.879	-66.285	-0.193	-0.077
-584.865	-200.000	0.009	-0.122
-583.850	-200.000	0.014	-0.066
-582.836	95.573	-0.302	-0.346
-581.821	-52.424	0.065	0.030
-580.806	71.145	0.288	-0.300
-579.792	-14.297	0.090	0.058
-578.777	-89.523	0.320	-0.094
-577.763	349.344	-0.160	-0.316
-576.748	278.505	-0.087	0.155
-575.733	-148.586	-0.092	0.008
-574.719	361.184	-0.086	0.174
-573.704	-200.000	-0.018	-0.100
-572.690	161.830	-0.128	-0.180
-571.675	168.768	0.147	-0.210
-570.661	-200.000	-0.012	0.181
-569.646	43.274	0.224	-0.205
-568.631	-200.000	-0.005	-0.229
-567.617	140.762	-0.078	0.103
-566.602	52.782	0.197	0.189
-565.588	115.514	-0.082	-0.100
-564.573	800.000	0.036	0.155
-563.558	480.799	-0.036	-0.082
-562.544	-200.000	0.032	0.181
-561.529	-200.000	-0.047	0.303
-560.515	-78.202	-0.151	0.052
-559.500	800.000	0.046	0.151
-558.485	800.000	0.080	0.311
-557.471	664.964	-0.106	-0.275
-556.456	-41.223	-0.150	0.077
-555.442	-121.148	0.314	-0.053
-554.427	156.538	0.300	0.415
-553.412	298.149	-0.066	0.121
-552.398	285.820	-0.089	-0.160
-551.383	134.027	-0.071	-0.092
-550.369	7.624	-0.112	-0.084
-549.354	84.516	-0.258	-0.283
-548.339	-200.000	0.010	-0.235
-547.325	-43.067	-0.213	-0.108
-546.310	63.520	-0.224	-0.225
-545.296	-200.000	-0.048	-0.299
-544.281	-82.551	0.178	-0.058
-543.266	48.047	-0.220	-0.206
-542.252	800.000	0.094	-0.311
-541.237	272.860	-0.194	0.344
-540.223	140.423	0.132	0.175
-539.208	-200.000	-0.030	0.131
-538.193	-100.475	-0.119	0.030
-537.179	-73.123	0.316	-0.116
-536.164	78.976	-0.123	-0.132
-535.150	169.121	-0.047	-0.067
-534.135	49.211	-0.262	-0.247
-533.121	131.907	-0.183	-0.235
-532.106	-33.827	-0.213	0.117
-531.091	30.679	-0.118	0.101
-530.077	-15.038	-0.091	0.058
-529.062	42.487	-0.303	-0.275
-528.048	-200.000	0.026	0.409
-527.033	800.000	-0.067	0.198
-526.018	39.229	-0.199	-0.178
-525.004	-200.000	-0.008	-0.036
-523.989	-54.405	0.052	0.024
-522.975	34.044	-0.205	0.178
-521.960	55.898	0.058	0.056
-520.945	-200.000	-0.020	0.125
-519.931	109.493	-0.048	-0.057
-518.916	-148.696	0.151	0.012
-517.902	550.003	-0.094	0.226
-516.887	-54.142	0.153	0.070
-515.872	140.108	0.213	0.282
-514.858	-200.000	-0.016	-0.079
-513.843	-37.708	0.151	0.081
-512.829	-200.000	-0.011	0.132
-511.814	628.811	-0.107	-0.269
-510.799	-16.985	0.229	-0.145
-509.785	-93.133	0.274	-0.076
-508.770	19.083	-0.226	0.181
-507.756	137.148	-0.119	-0.156
-506.741	-200.000	0.017	-0.076
-505.726	-12.585	-0.249	-0.163
-504.712	-200.000	0.038	0.274
-503.697	-143.989	-0.035	-0.003
-502.683	-109.968	-0.176	-0.037
-501.668	-200.000	-0.044	-0.208
-500.653	800.000	0.107	0.430
-499.639	800.000	0.057	0.233
-498.624	98.294	0.182	0.209
-497.610	-167.400	-0.251	-0.010
-496.595	-182.735	-0.443	-0.008
-495.581	-200.000	0.008	0.094
-494.566	-133.036	-0.209	0.027
-493.551	697.137	-0.107	0.282
-492.537	93.899	0.184	-0.209
-491.522	358.176	-0.113	0.226
-490.508	800.000	0.015	-0.055
-489.493	-84.614	0.206	0.065
-488.478	50.261	-0.188	0.177
-487.464	130.673	0.081	-0.104
-486.449	322.115	0.117	-0.222
-485.435	-101.270	0.080	-0.020
-484.420	-200.000	-0.047	-0.417
-483.405	57.360	0.142	0.139
-482.391	135.617	-0.161	0.209
-481.376	47.469	0.019	-0.017
-480.362	800.000	-0.086	-0.259
-479.347	800.000	-0.128	0.372
-478.332	-150.921	0.143	0.011
-477.318	-66.701	0.145	-0.058
-476.303	140.346	0.044	0.058
-475.289	-178.340	-0.324	-0.008
-474.274	416.616	0.150	0.320
-473.259	-113.059	-0.198	-0.039
-472.245	726.238	0.055	-0.147
-471.230	-142.323	-0.239	-0.024
-470.216	-200.000	0.061	-0.512
-469.201	381.293	0.083	0.170
-468.186	-63.448	-0.144	-0.059
-467.172	150.141	0.010	-0.013
-466.157	37.550	0.378	-0.334
-465.143	-187.149	0.108	-0.001
-464.128	-157.092	0.078	0.005
-463.113	-200.000	-0.025	0.350
-462.099	59.457	-0.239	0.235
-461.084	393.289	0.088	-0.182
-460.070	222.705	0.152	-0.244
-459.055	101.926	0.232	-0.270
-458.040	79.619	-0.129	-0.139
-457.026	-200.000	0.025	0.254
-456.011	-63.231	-0.212	0.087
-454.997	-62.080	-0.158	0.066
-453.982	-97.510	0.234	-0.061
-452.968	68.088	-0.068	0.069
-451.953	-99.617	0.106	0.027
-450.938	102.897	-0.116	0.136
-449.924	-53.564	0.206	0.094
-448.909	782.812	0.007	-0.020
-447.895	-200.000	-0.004	-0.288
-446.880	352.185	-0.113	0.223
-445.865	800.000	0.032	0.097
-444.851	99.865	0.201	-0.233
-443.836	55.057	0.246	0.237
-442.822	-200.000	-0.001	-0.100
-441.807	-14.417	-0.191	0.123
-440.792	106.863	-0.212	-0.250
-439.778	102.657	0.107	0.125
-438.763	110.282	0.073	-0.087
-437.749	447.667	-0.025	0.055
-436.734	19.139	-0.163	-0.130
-435.719	-92.206	0.199	0.056
-434.705	-125.032	-0.283	-0.043
-433.690	-200.000	0.047	-0.259
-432.676	-109.730	0.195	0.041
-431.661	516.355	-0.167	0.389
-430.646	101.898	0.053	0.062
-429.632	403.230	0.099	0.207
-428.617	101.607	-0.305	0.355
-427.603	-84.796	0.068	0.021
-426.588	19.439	-0.139	-0.111
-425.573	117.077	-0.226	-0.277
-424.559	211.038	0.143	-0.225
-423.544	-200.000	-0.000	-0.347
-422.530	107.734	-0.230	-0.273
-421.515	-110.175	0.100	-0.021
-420.500	170.001	-0.182	0.259
-419.486	800.000	0.097	-0.365
-418.471	-12.589	-0.048	-0.031
-417.457	470.380	0.118	0.265
-416.442	-133.786	-0.323	-0.040
-415.428	-137.936	0.547	-0.061
-414.413	705.353	-0.184	-0.484
-413.398	-200.000	0.052	-0.241
-412.384	800.000	0.034	0.141
-411.369	-78.692	-0.089	-0.030
-410.355	800.000	0.037	0.125
-409.340	-200.000	-0.060	0.360
-408.325	-163.788	0.296	0.014
-407.311	-200.000	0.000	0.133
-406.296	-200.000	0.022	-0.321
-405.282	632.509	-0.082	-0.207
-404.267	-200.000	0.010	0.227
-403.252	113.186	0.159	-0.192
-402.238	103.999	0.081	-0.095
-401.223	-200.000	-0.013	0.142
-400.209	-200.000	0.011	0.326
-399.194	-200.000	-0.016	-0.184
-398.179	230.608	0.018	-0.029
-397.165	-31.175	-0.410	0.230
-396.150	-200.000	0.059	-0.424
-395.136	664.735	0.088	-0.226
-394.121	181.126	0.061	-0.089
-393.106	164.190	0.062	-0.087
-392.092	-136.716	0.318	0.036
-391.077	-96.914	0.238	0.062
-390.063	-200.000	0.016	-0.192
-389.048	478.108	0.090	-0.202
-388.033	462.342	0.088	-0.195
-387.019	-22.360	-0.200	-0.121
-386.004	11.822	-0.039	0.030
-384.990	197.282	-0.145	-0.221
-383.975	206.823	0.185	0.286
-382.960	-200.000	-0.019	-0.299
-381.946	800.000	0.012	-0.046
-380.931	-200.000	0.001	-0.033
-379.917	800.000	-0.104	-0.315
-378.902	-200.000	0.003	0.240
-377.888	740.755	0.054	0.144
-376.873	316.115	0.141	-0.265
-375.858	321.338	-0.183	-0.347
-374.844	800.000	-0.122	0.426
-373.829	-200.000	0.079	-0.375
-372.815	-121.825	-0.207	-0.034
-371.800	800.000	-0.046	-0.189
-370.785	-27.122	0.187	-0.108
-369.771	689.407	-0.128	0.334
-368.756	-9.164	-0.042	0.028
-367.742	800.000	-0.031	0.093
-366.727	-200.000	0.006	-0.264
-365.712	439.639	0.055	0.119
-364.698	257.308	-0.043	0.074
-363.683	-200.000	0.039	-0.198
-362.669	-200.000	0.030	-0.270
-361.654	-37.942	0.186	-0.098
-360.639	44.189	0.209	-0.191
-359.625	232.475	-0.073	-0.118
-358.610	440.465	-0.094	0.205
-357.596	181.487	-0.169	0.248
-356.581	-115.023	0.173	0.033
-355.566	800.000	-0.021	-0.067
-354.552	-200.000	-0.013	-0.140
-353.537	-38.855	-0.166	-0.087
-352.523	800.000	-0.074	0.231
-351.508	800.000	-0.058	-0.245
-350.493	-200.000	-0.039	0.390
-349.479	-23.020	-0.174	-0.104
-348.464	167.035	-0.108	0.152
-347.450	800.000	0.027	-0.083
-346.435	-122.673	0.225	0.036
-345.420	432.810	0.131	-0.282
-344.406	458.124	0.051	-0.113
-343.391	-90.663	-0.274	0.079
-342.377	163.876	-0.070	0.098
-341.362	-118.400	0.141	-0.025
-340.348	-118.472	-0.133	0.023
-339.333	-200.000	-0.018	0.163
-338.318	-200.000	0.042	0.344
-337.304	-20.869	-0.297	-0.181
-336.289	18.207	-0.101	-0.080
-335.275	-39.086	-0.317	-0.165
-334.260	-90.636	0.130	0.037
-333.245	-93.445	0.033	0.009
-332.231	800.000	-0.068	0.254
-331.216	-58.029	-0.157	0.068
-330.202	-200.000	0.012	-0.061
-329.187	-127.874	0.203	0.029
-328.172	636.862	-0.037	0.093
-327.158	181.889	0.152	0.222
-326.143	-200.000	-0.016	-0.290
-325.129	2.614	-0.084	-0.061
-324.114	56.728	0.262	0.253
-323.099	-200.000	-0.022	0.120
-322.085	24.273	-0.089	0.073
-321.070	665.018	-0.092	-0.236
-320.056	128.144	0.303	-0.382
-319.041	1.084	-0.092	0.065
-318.026	-137.164	-0.072	0.008
-317.012	800.000	0.034	-0.117
-315.997	520.764	0.076	0.177
-314.983	276.503	0.098	0.174
-313.968	28.653	-0.087	0.073
-312.953	-156.502	-0.211	-0.013
-311.939	9.057	0.140	0.105
-310.924	286.975	-0.089	-0.159
-309.910	569.844	-0.038	0.091
-308.895	-33.925	0.368	0.201
-307.880	-124.072	-0.152	0.024
-306.866	-200.000	0.002	-0.192
-305.851	-200.000	-0.034	-0.427
-304.837	-4.580	-0.181	0.124
-303.822	-200.000	-0.025	-0.154
-302.807	249.538	0.132	0.221
-301.793	-25.180	0.194	-0.114
-300.778	-115.988	0.165	0.031
-299.764	310.204	0.069	0.129
-298.749	800.000	0.060	0.228
-297.735	-28.655	-0.279	-0.159
-296.720	-80.891	-0.175	-0.058
-295.705	63.780	-0.246	0.245
-294.691	654.120	0.113	0.288
-293.676	800.000	0.098	0.293
-292.662	3.284	0.163	-0.118
-291.647	-88.910	-0.075	-0.022
-290.632	-200.000	-0.020	0.127
-289.618	-140.084	-0.277	0.029
-288.603	23.442	0.035	-0.029
-287.589	150.327	0.056	-0.076
-286.574	303.447	-0.078	0.143
-285.559	267.322	0.148	-0.256
-284.545	-58.526	-0.182	0.078
-283.530	-200.000	-0.014	0.205
-282.516	800.000	0.035	0.125
-281.501	-7.546	-0.125	0.084
-280.486	377.778	-0.093	0.188
-279.472	-180.177	0.290	0.006
-278.457	800.000	0.039	0.163
-277.443	-200.000	-0.011	-0.127
-276.428	167.476	0.208	-0.293
-275.413	-170.585	-0.070	-0.002
-274.399	-99.297	-0.180	-0.045
-273.384	-110.111	-0.314	0.065
-272.370	131.012	0.201	0.256
-271.355	800.000	-0.113	0.411
-270.340	-36.252	-0.145	-0.078
-269.326	38.831	-0.197	0.174
-268.311	-132.863	-0.188	-0.024
-267.297	-104.074	0.298	-0.069
-266.282	-146.672	-0.504	-0.043
-265.267	287.942	0.092	-0.165
-264.253	-125.550	0.136	0.020
-263.238	110.284	-0.132	-0.157
-262.224	54.265	-0.078	-0.074
-261.209	-200.000	-0.029	-0.306
-260.195	8.138	0.104	-0.077
-259.180	217.589	-0.190	0.299
-258.165	-35.146	0.104	-0.056
-257.151	387.429	-0.051	-0.105
-256.136	82.292	0.057	-0.061
-255.122	-18.527	-0.173	-0.107
-254.107	276.185	0.134	0.235
-253.092	206.103	0.062	0.095
-252.078	800.000	0.055	-0.191
-251.063	140.549	-0.065	0.085
-250.049	10.668	-0.184	-0.139
-249.034	-111.640	-0.252	0.051
-248.019	10.739	0.151	0.114
-247.005	-200.000	-0.014	-0.301
-245.990	-126.047	0.251	0.037
-244.976	-83.040	0.336	0.107
-243.961	52.439	0.119	0.113
-242.946	283.455	-0.037	0.065
-241.932	14.714	-0.081	-0.063
-240.917	-163.178	-0.240	-0.011
-239.903	146.599	0.199	-0.264
-238.888	800.000	-0.064	0.253
-237.873	113.919	-0.081	0.097
-236.859	78.511	-0.088	0.093
-235.844	11.005	0.132	-0.100
-234.830	800.000	0.113	0.456
-233.815	33.772	0.143	-0.123
-232.800	-200.000	-0.042	0.253
-231.786	-2.457	0.043	0.030
-230.771	-200.000	-0.041	0.286
-229.757	800.000	0.060	-0.217
-228.742	-82.785	0.195	-0.062
-227.727	536.198	-0.038	0.089
-226.713	-200.000	0.078	0.404
-225.698	564.152	0.079	-0.188
-224.684	142.690	0.221	-0.291
-223.669	-50.830	-0.168	0.078
-222.655	177.932	0.226	0.326
-221.640	46.340	-0.093	-0.086
-220.625	-173.711	0.217	-0.006
-219.611	-21.933	0.197	-0.118
-218.596	-116.946	-0.182	-0.033
-217.582	44.846	-0.172	0.156
-216.567	53.889	0.489	-0.464
-215.552	261.521	-0.150	-0.258
-214.538	712.111	-0.081	0.211
-213.523	44.619	0.164	-0.149
-212.509	258.352	-0.184	0.313
-211.494	800.000	-0.024	0.088
-210.479	139.914	0.080	-0.105
-209.465	8.653	-0.208	-0.155
-208.450	800.000	0.117	-0.437
-207.436	-97.890	-0.192	0.049
-206.421	-114.463	-0.463	-0.088
-205.406	590.261	0.013	-0.033
-204.392	800.000	-0.020	0.076
-203.377	565.810	-0.134	0.322
-202.363	679.103	-0.082	-0.210
-201.348	-100.277	-0.336	0.082
-200.333	-200.000	0.040	0.274
-199.319	-51.238	-0.193	0.089
-198.304	800.000	0.053	0.157
-197.290	800.000	-0.131	0.465
-196.275	-200.000	-0.048	0.287
-195.260	720.701	-0.144	-0.377
-194.246	-30.603	0.188	-0.105
-193.231	-0.008	0.256	0.180
-192.217	555.065	-0.078	-0.184
-191.202	-97.855	0.369	0.094
-190.187	555.420	0.203	0.482
-189.173	-200.000	0.009	-0.276
-188.158	-83.873	0.277	0.087
-187.144	-42.564	0.061	0.031
-186.129	-168.343	0.120	0.005
-185.114	278.964	0.077	-0.135
-184.100	800.000	-0.077	0.317
-183.085	800.000	-0.019	-0.070
-182.071	-200.000	0.016	0.482
-181.056	-200.000	0.016	0.304
-180.042	-35.097	0.280	-0.150
-179.027	215.797	0.276	0.433
-178.012	273.533	0.104	0.182
-176.998	764.665	-0.082	0.221
-175.983	16.778	0.078	0.061
-174.969	20.546	-0.290	0.232
-173.954	-114.483	0.271	-0.051
-172.939	337.074	0.121	0.232
-171.925	-72.248	0.183	-0.067
-170.910	-153.238	0.323	0.022
-169.896	-200.000	-0.069	-0.467
-168.881	-127.369	-0.147	-0.021
-167.866	199.110	0.207	-0.312
-166.852	142.010	0.225	0.294
-165.837	4.734	-0.080	0.058
-164.823	26.148	-0.054	-0.045
-163.808	186.963	-0.161	-0.237
-162.793	-109.978	-0.047	-0.010
-161.779	77.432	-0.071	0.075
-160.764	-79.391	0.164	0.055
-159.750	-113.668	-0.145	0.028
-158.735	138.799	-0.128	0.166
-157.720	335.074	0.206	0.394
-156.706	-83.789	0.093	0.029
-155.691	-200.000	0.016	-0.239
-154.677	144.098	-0.065	0.085
-153.662	-200.000	0.043	0.245
-152.647	-100.661	0.289	-0.070
-151.633	89.912	-0.168	0.185
-150.618	-29.698	0.162	-0.091
-149.604	31.813	0.163	0.138
-148.589	-181.506	0.147	0.003
-147.574	82.133	0.131	0.140
-146.560	800.000	-0.094	0.288
-145.545	-113.923	-0.158	0.030
-144.531	170.791	0.188	0.266
-143.516	-4.827	0.295	0.201
-142.502	-125.226	0.180	-0.027
-141.487	800.000	0.159	-0.456
-140.472	-190.056	0.147	-0.002
-139.458	54.817	0.079	-0.075
-138.443	282.860	-0.103	0.181
-137.429	-130.726	0.344	-0.046
-136.414	-171.252	-0.089	-0.003
-135.399	-170.095	-0.204	-0.007
-134.385	173.336	-0.110	0.156
-133.370	-88.815	-0.109	0.032
-132.356	-15.397	0.048	0.030
-131.341	154.224	0.158	0.213
-130.326	-200.000	-0.031	-0.323
-129.312	-54.821	0.103	-0.046
-128.297	-121.709	0.330	0.054
-127.283	-200.000	-0.019	-0.321
-126.268	-56.774	-0.216	-0.094
-125.253	-94.714	-0.139	-0.037
-124.239	598.372	-0.069	-0.170
-123.224	-21.785	0.344	-0.206
-122.210	4.313	-0.179	-0.129
-121.195	-29.768	0.115	0.064
-120.180	800.000	-0.103	-0.351
-119.166	1.156	0.309	0.218
-118.151	800.000	0.046	-0.187
-117.137	64.157	-0.150	0.149
-116.122	52.424	0.098	0.092
-115.107	-200.000	0.030	-0.214
-114.093	-148.357	0.084	-0.007
-113.078	-163.921	0.206	0.009
-112.064	52.454	-0.277	-0.260
-111.049	-153.739	0.204	-0.014
-110.034	-200.000	-0.057	-0.355
-109.020	-69.234	0.192	0.073
-108.005	184.482	0.221	0.323
-106.991	-37.047	0.336	0.177
-105.976	97.923	-0.197	0.223
-104.962	-200.000	0.011	-0.065
-103.947	800.000	-0.080	0.280
-102.932	-41.482	0.176	-0.089
-101.918	667.268	-0.076	-0.192
-100.903	-32.547	0.327	-0.179
-99.889	-200.000	0.056	-0.311
-98.874	-94.585	-0.080	-0.022
-97.859	55.467	-0.101	-0.096
-96.845	-108.845	0.270	-0.057
-95.830	-77.772	-0.420	-0.143
-94.816	514.240	-0.091	-0.209
-93.801	-163.831	0.123	0.006
-92.786	448.861	0.126	0.273
-91.772	800.000	-0.180	0.598
-90.757	-60.706	0.199	0.083
-89.743	-20.182	0.079	0.048
-88.728	7.581	-0.172	-0.127
-87.713	-46.908	0.142	-0.068
-86.699	695.576	0.164	-0.424
-85.684	-111.832	0.216	0.043
-84.670	-12.870	0.050	-0.032
-83.655	-44.094	0.310	-0.153
-82.640	800.000	0.079	-0.269
-81.626	-77.789	0.118	0.040
-80.611	-122.915	0.075	0.012
-79.597	-200.000	0.013	-0.105
-78.582	-78.484	0.066	0.022
-77.567	-200.000	0.015	-0.122
-76.553	115.582	0.103	0.124
-75.538	644.865	0.056	0.140
-74.524	-190.233	0.070	-0.001
-73.509	800.000	-0.017	0.062
-72.494	-200.000	-0.002	-0.336
-71.480	142.246	0.319	-0.416
-70.465	-4.852	0.210	-0.142
-69.451	279.960	0.175	0.307
-68.436	278.628	0.169	-0.297
-67.422	-200.000	0.050	-0.398
-66.407	-126.424	-0.153	0.022
-65.392	-93.825	0.317	-0.086
-64.378	-200.000	0.003	-0.202
-63.363	662.042	-0.090	-0.229
-62.349	148.533	0.063	0.083
-61.334	-3.778	-1.044	-0.712
-60.319	-90.956	0.661	0.187
-59.305	-200.000	0.023	-1.339
-58.290	231.907	0.534	0.861
-57.276	422.032	0.828	1.746
-56.261	-200.000	96.448	588.112
-55.246	544.394	1378.565	3234.134
-54.232	162.988	2543.478	3509.302
-53.217	112.291	2153.734	2558.442
-52.203	42.586	1697.537	1517.575
-51.188	35.096	1509.275	1298.665
-50.173	32.733	1482.312	1259.652
-49.159	52.238	1531.164	1433.991
-48.144	53.686	1549.391	1460.846
-47.130	35.276	1509.707	1300.049
-46.115	32.227	1494.852	1266.693
-45.100	32.062	1491.045	1262.311
-44.086	31.956	1489.234	1260.015
-43.071	31.971	1487.154	1258.303
-42.057	31.884	1485.919	1256.628
-41.042	32.022	1484.256	1256.093
-40.027	32.015	1482.988	1254.925
-39.013	31.845	1481.719	1252.666
-37.998	31.871	1480.219	1251.524
-36.984	31.942	1479.135	1251.029
-35.969	31.997	1477.202	1249.711
-34.954	32.000	1475.771	1248.467
-33.940	31.982	1474.637	1247.338
-32.925	31.981	1473.587	1246.396
-31.911	31.903	1472.393	1244.822
-30.896	32.065	1470.398	1244.155
-29.881	32.007	1469.509	1242.975
-28.867	32.002	1467.881	1241.512
-27.852	31.886	1467.278	1240.188
-26.838	32.081	1465.230	1239.692
-25.823	32.030	1463.691	1238.005
-24.809	31.987	1462.019	1236.258
-23.794	31.957	1461.256	1235.368
-22.779	32.061	1459.465	1234.490
-21.765	31.992	1458.741	1233.374
-20.750	32.024	1457.560	1232.533
-19.736	31.936	1456.624	1231.118
-18.721	31.849	1455.642	1229.667
-17.706	31.844	1454.376	1228.517
-16.692	31.863	1453.347	1227.724
-15.677	31.932	1452.292	1227.233
-14.663	31.905	1451.274	1226.151
-13.648	31.885	1450.214	1225.075
-12.633	31.914	1449.273	1224.420
-11.619	31.909	1448.682	1223.840
-10.604	31.939	1447.787	1223.229
-9.590	31.874	1446.914	1222.020
-8.575	31.931	1445.353	1221.023
-7.560	31.947	1444.496	1220.357
-6.546	31.877	1444.328	1219.714
-5.531	31.886	1442.899	1218.514
-4.517	31.973	1441.883	1218.176
-3.502	31.834	1441.489	1216.893
-2.487	31.870	1439.840	1215.682
-1.473	31.954	1439.056	1215.518
-0.458	31.892	1437.513	1213.766
0.556	29.843	1427.976	1201.907
1.571	26.683	1402.382	1160.068
2.586	23.004	1341.836	1087.299
3.600	21.115	1260.472	1010.354
4.615	20.005	1215.255	967.823
5.629	17.222	1159.599	908.556
6.644	8.705	1074.629	799.534
7.659	1.386	1033.208	733.404
8.673	0.206	1027.912	723.913
9.688	0.105	1024.679	721.089
10.702	-0.011	1023.383	719.553
11.717	-0.110	1021.813	717.915
12.731	2.712	1024.023	732.905
13.746	11.186	1035.523	781.883
14.761	17.411	1042.385	816.975
15.775	17.565	1041.577	817.009
16.790	16.454	1039.563	810.036
17.804	15.381	1037.334	803.093
18.819	14.584	1035.236	797.587
19.834	14.103	1034.163	794.392
20.848	13.825	1033.103	792.184
21.863	13.611	1032.570	790.684
22.877	13.268	1032.140	788.649
23.892	13.222	1030.698	787.259
24.907	13.025	1030.220	785.886
25.921	13.031	1029.593	785.366
26.936	13.118	1028.899	785.180
27.950	13.149	1027.880	784.479
28.965	13.197	1027.291	784.186
29.980	13.360	1026.329	784.158
30.994	13.394	1025.164	783.360
32.009	13.394	1024.352	782.667
33.023	13.475	1023.956	782.679
34.038	13.400	1023.362	781.801
35.053	13.293	1022.533	780.597
36.067	13.287	1021.635	779.810
37.082	13.209	1021.293	779.112
38.096	13.212	1020.472	778.433
39.111	13.170	1019.908	777.738
40.126	13.294	1018.783	777.393
41.140	13.173	1017.822	776.024
42.155	13.182	1016.632	775.089
43.169	13.059	1016.050	774.000
44.184	13.124	1014.708	773.214
45.199	12.981	1013.696	771.704
46.213	12.980	1012.823	770.966
47.228	13.125	1012.067	771.001
48.242	13.044	1011.199	769.893
49.257	13.259	1009.633	769.634
50.271	13.253	1008.891	768.970
51.286	13.246	1007.985	768.181
52.301	13.195	1007.697	767.659
53.315	13.267	1006.542	767.043
54.330	13.182	1005.903	766.095
55.344	13.223	1004.964	765.504
56.359	13.129	1003.808	764.118
57.374	13.128	1003.184	763.572
58.388	13.128	1002.261	762.800
59.403	13.120	1001.132	761.839
60.417	13.055	1000.917	761.307
61.432	13.108	999.937	760.738
62.447	13.041	999.171	759.781
63.461	13.044	998.505	759.220
64.476	13.072	997.292	758.360
65.490	13.014	996.579	757.484
66.505	12.977	996.394	757.106
67.520	13.062	994.944	756.328
68.534	13.056	994.268	755.720
69.549	13.006	993.520	754.853
70.563	12.910	993.102	754.030
71.578	13.128	991.935	754.075
72.593	12.916	991.154	752.446
73.607	13.033	989.796	751.883
74.622	12.948	989.439	751.157
75.636	12.991	988.428	750.517
76.651	12.940	987.937	749.849
77.666	12.955	987.283	749.354
78.680	12.941	986.410	748.561
79.695	12.961	985.903	748.198
80.709	13.007	985.252	747.848
81.724	13.063	984.545	747.501
82.739	13.071	983.975	747.036
83.753	13.095	982.966	746.312
84.768	13.171	982.276	746.067
85.782	13.277	981.624	745.984
86.797	13.414	980.891	745.978
87.812	13.073	980.612	744.162
88.826	13.319	979.178	744.117
89.841	13.101	978.748	742.743
90.855	13.187	977.695	742.265
91.870	13.236	977.230	742.065
92.884	13.282	976.474	741.633
93.899	13.301	975.887	741.206
94.914	13.251	974.931	740.189
95.928	13.437	973.570	739.925
96.943	13.330	973.667	739.455
97.957	13.359	972.515	738.641
98.972	13.248	971.810	737.545
99.987	13.330	971.194	737.378
101.001	13.270	970.576	736.576
102.016	13.390	969.715	736.394
103.030	13.428	968.141	735.302
104.045	13.379	967.786	734.747
105.060	13.318	967.094	733.888
106.074	13.337	966.108	733.160
107.089	13.106	965.547	731.646
108.103	13.085	964.692	730.839
109.118	13.000	963.319	729.360
110.133	13.160	962.602	729.459
111.147	13.154	961.586	728.595
112.162	13.107	961.038	727.912
113.176	13.173	960.324	727.596
114.191	13.100	959.687	726.729
115.206	13.224	958.537	726.336
116.220	13.149	957.873	725.439
117.235	13.147	957.015	724.717
118.249	13.046	956.803	724.051
119.264	13.172	955.281	723.386
120.279	13.119	954.439	722.452
121.293	13.148	954.160	722.303
122.308	13.138	952.753	721.130
123.322	13.073	952.363	720.490
124.337	13.161	951.246	719.965
125.352	13.176	950.155	719.142
126.366	13.091	949.118	717.922
127.381	13.075	948.169	717.071
128.395	13.101	947.068	716.286
129.410	13.026	946.640	715.575
130.424	13.063	945.284	714.649
131.439	13.129	944.548	714.312
132.454	13.172	943.918	713.958
133.468	13.482	942.945	714.496
134.483	13.286	942.400	713.177
135.497	13.272	941.591	712.441
136.512	13.319	940.814	711.991
137.527	13.199	940.009	710.804
138.541	13.257	939.267	710.431
139.556	13.139	938.660	709.399
140.570	13.275	938.018	709.439
141.585	13.269	937.611	709.038
142.600	13.173	937.016	708.116
143.614	13.355	935.938	708.018
144.629	13.433	935.356	707.847
145.643	13.427	934.309	706.968
146.658	13.377	933.746	706.264
147.673	13.394	932.827	705.580
148.687	13.239	932.130	704.328
149.702	13.346	930.854	703.758
150.716	13.391	930.071	703.294
151.731	13.187	929.413	701.870
152.746	13.316	928.631	701.763
153.760	13.333	927.929	701.245
154.775	13.282	927.301	700.492
155.789	13.356	926.432	700.088
156.804	13.305	925.810	699.340
157.819	13.402	924.616	698.787
158.833	13.481	924.203	698.743
159.848	13.458	923.520	698.069
160.862	13.437	923.164	697.650
161.877	13.545	922.304	697.390
162.892	13.428	921.220	696.021
163.906	13.315	920.524	694.957
164.921	13.385	919.840	694.671
165.935	13.352	918.840	693.719
166.950	13.462	918.004	693.487
167.964	13.381	916.944	692.285
168.979	13.466	916.075	691.924
169.994	13.511	915.294	691.460
171.008	13.420	914.636	690.524
172.023	13.584	913.703	690.439
173.037	13.402	913.099	689.163
174.052	13.597	912.242	689.268
175.067	13.642	911.730	689.007
176.081	13.651	911.078	688.492
177.096	13.501	910.273	687.201
178.110	13.556	909.106	686.484
179.125	13.576	908.583	686.112
180.140	13.421	908.093	685.040
181.154	13.608	906.960	684.899
182.169	13.639	906.206	684.396
183.183	13.626	906.135	684.227
184.198	13.695	905.211	683.754
185.213	13.644	904.697	683.095
186.227	13.812	904.130	683.299
187.242	13.742	903.847	682.736
188.256	13.811	902.821	682.185
189.271	13.808	902.109	681.574
190.286	13.747	901.582	680.867
191.300	13.626	900.818	679.733
192.315	13.613	899.836	678.876
193.329	13.506	899.197	677.897
194.344	13.588	898.388	677.562
195.359	13.630	898.101	677.458
196.373	13.557	898.062	677.069
197.388	13.677	897.237	676.877
198.402	13.806	896.723	676.957
199.417	13.879	896.051	676.689
200.432	13.992	895.884	676.961
201.446	13.992	895.709	676.770
202.461	14.042	895.010	676.384
203.475	13.994	894.570	675.798
204.490	13.936	894.103	675.148
205.504	13.776	892.990	673.599
206.519	13.887	891.898	673.165
207.534	13.988	891.125	672.934
208.548	13.830	890.575	671.816
209.563	14.024	889.639	671.836
210.577	13.906	889.359	671.089
211.592	13.926	888.732	670.638
212.607	14.171	887.927	670.960
213.621	14.086	887.765	670.432
214.636	14.016	887.352	669.783
215.650	14.196	885.944	669.383
216.665	14.040	885.967	668.713
217.680	14.112	885.441	668.548
218.694	14.078	884.981	668.002
219.709	14.319	884.160	668.292
220.723	14.247	883.256	667.259
221.738	14.200	882.885	666.735
222.753	14.121	882.148	665.800
223.767	14.079	881.879	665.370
224.782	14.316	880.442	665.174
225.796	14.263	879.889	664.485
226.811	14.375	879.121	664.295
227.826	14.382	878.662	663.916
228.840	14.445	877.967	663.585
229.855	14.289	877.334	662.427
230.869	14.317	877.122	662.320
231.884	14.374	876.112	661.725
232.899	14.369	875.183	660.943
233.913	14.191	874.528	659.685
234.928	14.260	873.965	659.474
235.942	14.255	873.556	659.089
236.957	14.189	872.899	658.272
237.972	14.196	872.422	657.885
238.986	14.343	871.344	657.592
240.001	14.266	870.768	656.797
241.015	14.349	869.977	656.469
242.030	14.292	869.701	655.979
243.045	14.433	868.916	655.882
244.059	14.300	868.564	655.037
245.074	14.378	868.127	654.955
246.088	14.554	866.779	654.570
247.103	14.518	866.915	654.475
248.117	14.476	866.083	653.622
249.132	14.646	865.154	653.531
250.147	14.652	864.972	653.358
251.161	14.755	864.471	653.325
252.176	14.762	863.605	652.639
253.190	14.751	862.746	651.889
254.205	14.763	862.384	651.606
255.220	14.883	861.517	651.362
256.234	14.724	861.063	650.341
257.249	14.810	860.559	650.238
258.263	14.851	860.111	649.998
259.278	14.858	859.279	649.340
260.293	15.004	858.830	649.510
261.307	14.966	858.585	649.120
262.322	15.140	857.596	648.990
263.336	14.956	857.061	647.816
264.351	14.845	856.828	647.152
265.366	15.128	855.642	647.292
266.380	14.994	855.410	646.541
267.395	15.090	854.781	646.381
268.409	15.059	853.968	645.588
269.424	14.965	852.938	644.390
270.439	15.017	852.638	644.307
271.453	15.200	851.649	644.206
272.468	14.933	851.343	642.894
273.482	15.039	850.494	642.601
274.497	15.085	849.929	642.293
275.512	14.923	849.782	641.505
276.526	14.978	849.007	641.074
277.541	15.033	848.045	640.501
278.555	15.141	847.475	640.428
279.570	15.219	846.823	640.175
280.585	15.147	846.658	639.721
281.599	15.148	845.695	638.937
282.614	15.295	845.315	639.154
283.628	15.199	844.576	638.175
284.643	15.169	844.126	637.663
285.657	15.007	843.919	636.834
286.672	15.145	843.244	636.793
287.687	15.157	842.968	636.573
288.701	15.184	842.728	636.439
289.716	15.264	841.666	635.884
290.730	15.230	841.108	635.278
291.745	15.364	840.560	635.315
292.760	15.189	839.800	634.023
293.774	15.317	839.056	633.890
294.789	15.432	838.397	633.767
295.803	15.358	838.338	633.389
296.818	15.455	837.364	632.964
297.833	15.446	836.802	632.449
298.847	15.350	836.134	631.527
299.862	15.417	835.528	631.263
300.876	15.358	834.887	630.503
301.891	15.427	834.319	630.277
302.906	15.483	833.515	629.822
303.920	15.614	832.944	629.825
304.935	15.562	832.098	628.936
305.949	15.532	832.148	628.807
306.964	15.753	830.951	628.672
307.979	15.797	830.285	628.277
308.993	15.695	830.068	627.678
310.008	15.652	829.400	626.957
311.022	15.699	828.967	626.750
312.037	15.661	828.558	626.241
313.052	15.627	828.173	625.770
314.066	15.658	827.642	625.428
315.081	15.598	826.890	624.582
316.095	15.637	825.961	623.970
317.110	15.627	826.228	624.079
318.125	15.539	825.350	623.035
319.139	15.584	825.064	622.931
320.154	15.704	824.210	622.674
321.168	15.688	823.697	622.173
322.183	15.812	823.020	622.064
323.197	15.879	822.230	621.659
324.212	15.735	822.262	621.098
325.227	15.779	821.875	620.913
326.241	15.817	821.263	620.537
327.256	15.738	820.547	619.650
328.270	15.701	819.862	618.938
329.285	15.719	819.447	618.637
330.300	15.794	818.969	618.497
331.314	15.857	818.154	618.058
332.329	15.701	817.623	617.030
333.343	15.590	817.588	616.544
334.358	15.787	816.754	616.580
335.373	15.903	815.988	616.373
336.387	15.959	815.423	616.096
337.402	15.938	815.277	615.856
338.416	16.065	814.325	615.546
339.431	16.149	813.636	615.277
340.446	16.170	813.491	615.187
341.460	16.088	813.175	614.596
342.475	16.127	811.984	613.782
343.489	16.085	812.024	613.607
344.504	16.170	811.378	613.375
345.519	16.225	810.687	612.997
346.533	16.376	810.152	613.084
347.548	16.142	810.024	612.087
348.562	16.245	809.251	611.822
349.577	16.284	808.397	611.263
350.592	16.245	808.250	610.957
351.606	16.124	807.832	610.147
352.621	16.118	807.548	609.858
353.635	15.978	807.194	609.031
354.650	16.102	806.575	608.957
355.665	16.204	806.305	609.068
356.679	16.214	805.806	608.672
357.694	16.227	805.338	608.312
358.708	16.168	804.718	607.577
359.723	16.382	803.899	607.675
360.738	16.270	803.569	606.968
361.752	16.364	802.800	606.672
362.767	16.394	802.544	606.534
363.781	16.365	802.494	606.336
364.796	16.389	801.905	605.925
365.810	16.368	801.374	605.395
366.825	16.487	801.261	605.684
367.840	16.685	800.463	605.732
368.854	16.588	799.741	604.786
369.869	16.555	799.697	604.584
370.883	16.589	798.955	604.088
371.898	16.535	798.478	603.484
372.913	16.495	798.070	602.978
373.927	16.594	797.412	602.780
374.942	16.570	796.719	602.119
375.956	16.648	796.011	601.806
376.971	16.646	795.555	601.402
377.986	16.638	795.292	601.120
379.000	16.793	794.614	601.104
380.015	16.821	794.413	601.001
381.029	16.654	793.767	599.865
382.044	16.668	793.390	599.579
383.059	16.972	792.415	599.863
384.073	16.880	791.879	599.080
385.088	16.820	791.411	598.462
386.102	16.768	791.162	598.034
387.117	16.650	790.761	597.265
388.132	16.793	789.881	597.051
389.146	16.893	789.319	596.923
390.161	16.885	789.132	596.700
391.175	16.944	788.623	596.471
392.190	16.831	788.567	595.977
393.205	16.870	787.967	595.609
394.219	16.729	787.684	594.849
395.234	16.898	787.072	594.927
396.248	16.829	786.859	594.470
397.263	16.824	785.917	593.688
398.278	16.811	785.584	593.340
399.292	16.861	784.850	592.908
400.307	16.790	784.786	592.557
401.321	16.793	784.611	592.385
402.336	16.884	784.241	592.371
403.350	16.937	783.515	591.953
404.365	17.012	782.797	591.620
405.380	17.041	782.392	591.363
406.394	17.128	781.996	591.315
407.409	17.142	781.711	591.096
408.423	17.096	781.412	590.656
409.438	17.178	781.040	590.609
410.453	17.079	780.768	590.007
411.467	17.195	780.032	589.800
412.482	17.246	779.449	589.486
413.496	17.442	778.747	589.580
414.511	17.396	778.779	589.395
415.526	17.364	778.605	589.099
416.540	17.250	778.130	588.294
417.555	17.301	777.840	588.200
418.569	17.294	777.094	587.558
419.584	17.290	776.732	587.218
420.599	17.411	776.110	587.113
421.613	107.984	1287.449	1461.321
422.628	92.234	1361.973	1461.412
