DTS Sentinel unit serial number:	SN413079Multiplexer serial number:	ORYXHardware model number:	OX4-SRSoftware version number:	ORYX F/W v4.00 Oryx Data Collector v3.7.2.0data status	okinstallation	princeton_trtdifferential loss correction	single-endedforward channel	channel 3reverse channel	N/Adate	2019/09/17time	01:40:35forward acquisition time	60.00reverse acquisition time	0.00gamma	496.2192k internal	0.2324k external	0.2324temperature offset calibration	0.9937default loss term (dB/km)	0.3790temperature slope calibration	1.0000multiplexer offset coefficient	1.0000multiplexer slope coefficient	1.0000fibre end	0.00T internal ref (°C)	29.56T ext. ref 1 (°C)	0.12T ext. ref 2 (°C)	24.52length (m)	temperature (°C)	Stokes	anti-Stokes-747.200	-69.925	-0.237	0.091
-746.185	302.337	-0.123	0.230
-745.171	439.180	0.088	0.194
-744.156	92.153	0.305	0.347
-743.142	-106.939	-0.426	-0.095
-742.127	330.232	0.109	0.211
-741.112	-111.192	-0.239	0.049
-740.098	-200.000	-0.093	0.470
-739.083	-56.785	0.229	0.102
-738.069	-165.015	-0.139	-0.006
-737.054	-26.206	0.107	0.064
-736.039	-136.715	-0.472	0.055
-735.025	-148.256	0.360	-0.030
-734.010	-61.513	-0.265	0.112
-732.996	800.000	-0.145	0.459
-731.981	-31.747	0.076	-0.043
-730.966	800.000	-0.024	-0.091
-729.952	-61.576	-0.131	-0.055
-728.937	148.869	-0.260	-0.355
-727.923	278.102	-0.167	0.299
-726.908	-112.603	-0.521	0.105
-725.894	94.630	-0.032	-0.036
-724.879	-107.065	0.299	0.067
-723.864	-107.311	0.143	-0.032
-722.850	-6.110	-0.236	-0.163
-721.835	800.000	0.077	-0.311
-720.821	800.000	-0.037	-0.127
-719.806	-138.584	-0.066	-0.007
-718.791	-97.719	-0.206	-0.054
-717.777	-140.982	-0.095	-0.010
-716.762	60.663	-0.057	0.057
-715.748	223.454	0.146	0.238
-714.733	670.382	0.120	-0.314
-713.718	179.336	-0.057	-0.084
-712.704	291.435	0.119	0.217
-711.689	-43.398	-0.026	-0.013
-710.675	30.114	-0.054	-0.047
-709.660	218.531	-0.056	-0.090
-708.645	-29.379	0.107	0.061
-707.631	-96.633	-0.320	-0.085
-706.616	-99.908	-0.423	-0.106
-705.602	-62.575	-0.367	0.154
-704.587	78.412	-0.168	-0.181
-703.572	129.585	0.186	-0.239
-702.558	-111.168	-0.065	-0.013
-701.543	108.272	-0.254	0.305
-700.529	25.207	0.188	-0.157
-699.514	800.000	-0.122	-0.435
-698.499	-65.759	0.134	0.054
-697.485	12.207	-0.156	-0.121
-696.470	800.000	-0.115	0.329
-695.456	-200.000	-0.154	-0.001
-694.441	84.366	-0.096	-0.106
-693.426	-163.083	-0.235	-0.011
-692.412	-200.000	0.010	-0.161
-691.397	-200.000	0.024	-0.278
-690.383	-5.989	-0.188	0.130
-689.368	800.000	0.019	-0.070
-688.354	-150.544	-0.293	0.023
-687.339	-200.000	-0.012	0.064
-686.324	-200.000	-0.004	0.130
-685.310	-175.737	-0.197	-0.005
-684.295	-200.000	0.077	-0.342
-683.281	-127.904	-0.150	-0.022
-682.266	800.000	-0.069	-0.194
-681.251	-174.629	-0.342	0.010
-680.237	460.595	-0.031	-0.070
-679.222	-86.617	0.196	-0.061
-678.208	800.000	-0.023	-0.087
-677.193	-200.000	0.030	0.230
-676.178	-133.624	0.233	0.029
-675.164	107.606	-0.033	-0.040
-674.149	-6.045	-0.178	0.123
-673.135	299.487	-0.106	0.197
-672.120	-200.000	0.018	0.102
-671.105	-47.942	-0.398	-0.194
-670.091	184.910	0.031	-0.046
-669.076	200.486	0.208	-0.321
-668.062	-105.348	-0.198	0.045
-667.047	-47.633	0.290	0.141
-666.032	20.911	-0.178	-0.145
-665.018	485.188	0.123	-0.282
-664.003	-97.112	0.275	0.072
-662.989	800.000	-0.079	-0.222
-661.974	507.511	-0.034	-0.079
-660.959	-141.669	-0.157	0.016
-659.945	-81.983	0.238	0.078
-658.930	-200.000	-0.017	-0.197
-657.916	-164.603	-0.163	0.007
-656.901	800.000	0.046	-0.161
-655.886	450.981	0.044	-0.098
-654.872	407.278	-0.200	-0.424
-653.857	-147.213	0.423	-0.036
-652.843	-3.215	-0.202	0.142
-651.828	-75.047	0.209	-0.075
-650.814	-200.000	-0.031	-0.443
-649.799	113.827	0.018	0.022
-648.784	-106.735	-0.314	-0.070
-647.770	-8.491	-0.258	0.175
-646.755	-94.600	-0.188	-0.051
-645.741	-85.403	0.263	-0.082
-644.726	-200.000	0.001	-0.017
-643.711	191.924	-0.067	-0.102
-642.697	-64.140	-0.476	0.195
-641.682	116.534	-0.194	0.239
-640.668	93.570	-0.126	0.143
-639.653	-0.361	-0.144	0.103
-638.638	-200.000	0.015	0.197
-637.624	84.867	0.113	-0.125
-636.609	-7.486	0.164	-0.112
-635.595	-200.000	0.008	-0.129
-634.580	-180.235	-0.253	-0.005
-633.565	172.827	-0.029	-0.043
-632.551	-14.172	0.039	0.025
-631.536	72.650	-0.039	-0.041
-630.522	409.298	0.087	0.186
-629.507	-156.959	0.051	-0.003
-628.492	-56.452	-0.215	0.096
-627.478	-150.525	-0.129	0.010
-626.463	14.140	0.167	-0.131
-625.449	800.000	0.020	-0.058
-624.434	800.000	0.023	-0.099
-623.419	211.347	-0.149	-0.236
-622.405	-200.000	0.017	0.499
-621.390	-103.492	-0.340	-0.080
-620.376	-143.348	0.157	0.015
-619.361	800.000	-0.027	0.104
-618.346	-1.437	-0.284	0.201
-617.332	-72.824	-0.216	-0.080
-616.317	800.000	-0.024	-0.075
-615.303	-200.000	0.201	0.000
-614.288	-87.726	-0.237	-0.072
-613.273	-200.000	-0.019	0.167
-612.259	-93.142	-0.429	-0.120
-611.244	202.609	-0.084	-0.130
-610.230	166.737	-0.104	-0.149
-609.215	800.000	-0.072	0.242
-608.201	-200.000	0.023	0.180
-607.186	-200.000	0.003	-0.043
-606.171	-200.000	0.044	0.287
-605.157	167.196	-0.153	0.218
-604.142	8.101	-0.109	0.082
-603.128	25.672	0.386	-0.322
-602.113	106.168	-0.260	0.310
-601.098	-200.000	-0.003	-0.064
-600.084	-58.426	-0.361	0.157
-599.069	-126.861	0.470	-0.069
-598.055	-67.365	-0.178	-0.070
-597.040	-79.386	-0.147	0.050
-596.025	303.300	0.031	-0.058
-595.011	-35.041	0.021	0.011
-593.996	-143.583	0.187	0.018
-592.982	-200.000	0.028	-0.180
-591.967	-200.000	0.013	-0.234
-590.952	128.918	-0.122	0.156
-589.938	-200.000	0.003	-0.235
-588.923	-200.000	-0.050	-0.229
-587.909	-168.252	0.405	-0.016
-586.894	-46.716	-0.307	0.151
-585.879	-117.776	-0.486	0.088
-584.865	518.396	0.101	-0.237
-583.850	203.695	0.068	0.105
-582.836	-200.000	0.015	0.114
-581.821	-175.835	-0.233	0.006
-580.806	42.541	0.152	-0.139
-579.792	-140.157	-0.162	-0.017
-578.777	266.860	-0.058	0.102
-577.763	-119.436	0.197	-0.034
-576.748	-146.105	-0.198	0.018
-575.733	-31.325	0.158	-0.089
-574.719	169.093	0.129	-0.185
-573.704	800.000	-0.042	0.135
-572.690	795.318	0.018	-0.050
-571.675	223.644	0.155	-0.251
-570.661	-200.000	0.009	0.147
-569.646	-19.734	-0.170	0.106
-568.631	217.088	0.062	0.098
-567.617	272.647	-0.233	-0.413
-566.602	64.899	0.065	0.066
-565.588	-65.043	-0.311	0.126
-564.573	162.047	0.183	-0.257
-563.558	323.594	-0.085	-0.162
-562.544	82.709	-0.123	0.134
-561.529	46.907	-0.160	0.149
-560.515	-35.855	-0.305	0.165
-559.500	-44.949	-0.141	-0.070
-558.485	7.118	0.328	0.245
-557.471	389.010	0.087	-0.181
-556.456	-7.020	0.187	-0.127
-555.442	477.522	0.062	0.140
-554.427	-200.000	-0.029	0.170
-553.412	162.990	0.283	0.398
-552.398	-9.524	-0.106	-0.071
-551.383	-200.000	0.016	-0.182
-550.369	-158.282	0.165	-0.010
-549.354	-200.000	0.040	-0.245
-548.339	41.054	0.110	0.100
-547.325	-8.924	-0.135	0.090
-546.310	-90.830	-0.383	0.111
-545.296	184.507	0.342	0.508
-544.281	404.756	0.060	-0.126
-543.266	800.000	0.152	0.484
-542.252	-144.735	0.218	-0.020
-541.237	-33.785	-0.183	0.101
-540.223	800.000	-0.035	-0.123
-539.208	190.398	-0.249	-0.374
-538.193	-200.000	-0.021	0.171
-537.179	-100.063	-0.139	-0.035
-536.164	107.451	-0.271	-0.323
-535.150	800.000	0.021	0.091
-534.135	-23.639	0.235	0.141
-533.121	800.000	-0.032	-0.124
-532.106	-34.988	0.084	0.046
-531.091	800.000	0.011	0.040
-530.077	-108.697	-0.187	-0.040
-529.062	-20.020	-0.087	0.054
-528.048	24.300	0.220	-0.182
-527.033	84.411	-0.121	-0.133
-526.018	-80.049	0.175	-0.059
-525.004	-68.991	0.347	-0.134
-523.989	556.364	0.076	0.183
-522.975	10.962	0.056	0.043
-521.960	103.313	-0.120	-0.141
-520.945	-132.487	0.059	0.008
-519.931	1.679	-0.268	-0.193
-518.916	34.420	0.238	0.208
-517.902	98.840	0.139	-0.161
-516.887	-137.869	0.237	-0.027
-515.872	800.000	-0.038	-0.108
-514.858	-23.845	0.216	0.129
-513.843	-200.000	-0.047	0.227
-512.829	-200.000	0.114	0.597
-511.814	-200.000	0.071	-0.338
-510.799	218.882	-0.317	-0.507
-509.785	-121.942	-0.198	0.033
-508.770	-124.162	-0.087	-0.014
-507.756	-106.435	-0.138	-0.031
-506.741	-200.000	-0.053	-0.302
-505.726	317.011	-0.110	0.208
-504.712	272.176	-0.231	-0.407
-503.697	-3.146	0.311	-0.217
-502.683	800.000	0.165	-0.466
-501.668	621.589	0.063	-0.158
-500.653	800.000	-0.006	-0.026
-499.639	459.920	-0.026	-0.058
-498.624	640.699	-0.109	0.276
-497.610	800.000	0.040	0.162
-496.595	-126.023	0.139	-0.021
-495.581	-64.291	-0.133	-0.054
-494.566	122.022	0.206	-0.258
-493.551	104.047	-0.122	0.143
-492.537	800.000	0.048	0.173
-491.522	-136.788	-0.177	0.020
-490.508	-200.000	0.057	-0.330
-489.493	800.000	0.029	-0.091
-488.478	800.000	0.038	-0.127
-487.464	800.000	0.055	0.201
-486.449	350.286	0.196	0.388
-485.435	73.285	-0.189	-0.198
-484.420	20.647	-0.310	-0.251
-483.405	-6.769	0.221	-0.150
-482.391	800.000	0.073	0.291
-481.376	800.000	0.081	-0.256
-480.362	800.000	-0.026	-0.108
-479.347	-58.268	-0.208	0.090
-478.332	-90.379	-0.313	0.091
-477.318	-200.000	0.058	0.335
-476.303	-59.340	-0.141	-0.061
-475.289	-200.000	0.017	-0.118
-474.274	-165.011	0.260	-0.012
-473.259	-89.596	-0.101	0.030
-472.245	-193.352	-0.290	0.003
-471.230	-78.988	0.319	0.108
-470.216	-145.573	0.219	0.020
-469.201	-200.000	-0.009	0.188
-468.186	-55.167	-0.106	-0.048
-467.172	-75.892	0.409	0.145
-466.157	113.021	0.085	-0.103
-465.143	-94.342	-0.194	0.053
-464.128	279.572	-0.127	-0.227
-463.113	150.099	0.092	-0.125
-462.099	-113.033	0.049	-0.010
-461.084	272.478	0.128	-0.226
-460.070	800.000	0.037	-0.108
-459.055	-132.431	-0.081	-0.010
-458.040	-72.693	-0.151	0.056
-457.026	-8.056	-0.060	-0.041
-456.011	-140.592	0.072	0.007
-454.997	-5.581	0.349	0.239
-453.982	-53.801	-0.318	0.145
-452.968	390.849	-0.061	-0.127
-451.953	480.324	0.053	-0.119
-450.938	86.767	-0.298	-0.328
-449.924	-62.082	-0.275	-0.115
-448.909	-200.000	-0.035	0.358
-447.895	-133.355	-0.229	0.029
-446.880	-4.208	0.044	-0.031
-445.865	550.386	0.102	0.243
-444.851	-125.220	-0.347	-0.053
-443.836	227.140	-0.125	0.203
-442.822	128.325	0.044	0.055
-441.807	318.845	0.210	0.398
-440.792	-86.530	-0.044	0.014
-439.778	336.735	-0.029	0.056
-438.763	-150.488	0.235	0.018
-437.749	-104.007	0.036	0.008
-436.734	59.886	0.173	-0.171
-435.719	-122.985	-0.127	-0.020
-434.705	190.478	-0.174	0.260
-433.690	-74.279	0.336	-0.121
-432.676	800.000	-0.085	0.241
-431.661	-123.123	0.125	0.020
-430.646	272.407	0.240	-0.422
-429.632	149.033	0.073	-0.098
-428.617	-87.381	0.135	0.041
-427.603	-39.783	-0.227	-0.118
-426.588	274.696	0.107	-0.188
-425.573	45.503	0.101	-0.093
-424.559	-107.696	-0.406	0.088
-423.544	-107.143	-0.101	-0.022
-422.530	-71.092	0.114	-0.043
-421.515	-71.719	-0.112	-0.042
-420.500	112.216	0.052	0.063
-419.486	339.107	-0.070	-0.135
-418.471	270.742	0.125	0.219
-417.457	31.495	0.083	-0.071
-416.442	-121.503	-0.164	-0.027
-415.428	-200.000	-0.005	0.120
-414.413	-152.618	0.238	-0.017
-413.398	-91.710	0.272	0.077
-412.384	-200.000	0.026	-0.215
-411.369	-8.642	-0.363	-0.243
-410.355	-200.000	0.051	-0.469
-409.340	-65.401	0.079	0.032
-408.325	62.229	-0.107	-0.106
-407.311	-93.364	-0.163	0.045
-406.296	261.900	-0.087	0.150
-405.282	424.811	-0.079	-0.170
-404.267	-91.566	0.486	0.138
-403.252	-200.000	0.012	-0.237
-402.238	184.003	-0.151	0.222
-401.223	251.080	-0.076	0.128
-400.209	800.000	-0.079	0.248
-399.194	-200.000	-0.033	-0.228
-398.179	40.269	-0.097	-0.087
-397.165	-200.000	-0.037	-0.178
-396.150	800.000	0.063	-0.201
-395.136	-200.000	0.001	-0.182
-394.121	800.000	0.023	-0.084
-393.106	11.089	-0.159	0.121
-392.092	113.445	0.162	0.196
-391.077	404.521	0.096	-0.202
-390.063	-138.687	-0.112	-0.012
-389.048	-127.983	0.281	0.040
-388.033	161.268	0.212	0.295
-387.019	-43.180	-0.168	-0.085
-386.004	-55.458	0.159	0.071
-384.990	114.270	-0.176	0.214
-383.975	-87.810	-0.486	0.146
-382.960	-85.132	0.217	0.068
-381.946	-200.000	-0.038	-0.254
-380.931	-146.331	0.186	0.016
-379.917	-30.710	0.097	0.054
-378.902	33.614	0.097	-0.084
-377.888	128.118	0.034	0.043
-376.873	-103.361	0.202	0.047
-375.858	-200.000	-0.007	0.172
-374.844	-200.000	0.105	-0.492
-373.829	670.715	-0.051	-0.131
-372.815	524.717	-0.031	-0.073
-371.800	63.564	-0.318	-0.317
-370.785	62.192	0.359	0.356
-369.771	22.055	-0.146	0.118
-368.756	-161.207	0.281	0.015
-367.742	-38.483	-0.162	-0.085
-366.727	-123.836	0.215	-0.034
-365.712	-200.000	-0.023	-0.120
-364.698	-200.000	0.002	0.084
-363.683	-200.000	0.010	0.166
-362.669	360.009	-0.210	0.417
-361.654	-147.603	-0.156	0.013
-360.639	-63.732	0.076	-0.031
-359.625	64.559	0.147	-0.148
-358.610	-4.963	0.156	0.107
-357.596	-20.870	0.168	-0.102
-356.581	-91.276	0.229	0.065
-355.566	-95.978	-0.386	0.102
-354.552	46.953	0.156	-0.144
-353.537	-200.000	-0.007	0.096
-352.523	-187.995	-0.428	0.005
-351.508	-192.763	0.066	-0.001
-350.493	-121.830	0.292	-0.048
-349.479	173.880	0.078	-0.112
-348.464	-41.292	0.209	-0.107
-347.450	-66.305	-0.107	-0.042
-346.435	220.183	0.170	0.271
-345.420	552.862	0.030	-0.072
-344.406	678.850	0.020	-0.052
-343.391	59.601	-0.225	-0.220
-342.377	-87.997	0.103	-0.031
-341.362	14.450	-0.110	-0.085
-340.348	-200.000	-0.007	0.130
-339.333	800.000	0.085	0.353
-338.318	-119.012	0.226	-0.039
-337.304	-25.102	-0.021	-0.012
-336.289	-27.536	0.168	0.097
-335.275	148.020	-0.218	0.292
-334.260	-104.089	-0.197	-0.046
-333.245	-58.028	0.064	0.028
-332.231	609.872	-0.095	-0.236
-331.216	-194.642	-0.095	-0.001
-330.202	-149.432	-0.267	0.021
-329.187	800.000	-0.047	-0.165
-328.172	-200.000	-0.008	-0.070
-327.158	-200.000	-0.052	0.379
-326.143	-87.138	-0.609	-0.184
-325.129	-105.358	0.165	0.037
-324.114	-52.579	0.267	-0.122
-323.099	310.483	-0.135	0.252
-322.085	63.603	-0.120	-0.120
-321.070	-200.000	0.031	-0.135
-320.056	-112.995	0.005	-0.001
-319.041	192.317	0.214	0.320
-318.026	86.814	0.095	0.105
-317.012	800.000	0.059	0.180
-315.997	-97.882	-0.114	0.029
-314.983	336.809	0.126	0.244
-313.968	800.000	0.113	-0.321
-312.953	266.671	-0.052	-0.091
-311.939	514.963	0.073	0.170
-310.924	-29.823	0.237	0.134
-309.910	-3.345	0.182	-0.126
-308.895	-19.056	0.144	0.089
-307.880	200.465	-0.030	-0.045
-306.866	387.073	-0.181	-0.371
-305.851	215.414	0.273	0.430
-304.837	-200.000	0.079	0.403
-303.822	-91.460	-0.025	0.007
-302.807	800.000	-0.063	-0.223
-301.793	800.000	-0.086	0.334
-300.778	1.540	-0.131	0.094
-299.764	-160.659	0.194	0.010
-298.749	-116.147	0.117	0.022
-297.735	-13.951	-0.269	0.172
-296.720	800.000	0.058	0.159
-295.705	527.014	0.077	-0.179
-294.691	800.000	0.066	-0.201
-293.676	725.477	0.045	-0.120
-292.662	800.000	-0.086	0.305
-291.647	288.679	-0.055	0.099
-290.632	-39.447	-0.295	0.153
-289.618	-200.000	0.018	-0.259
-288.603	-200.000	0.058	-0.370
-287.589	78.417	0.205	-0.217
-286.574	-70.823	0.085	-0.032
-285.559	-16.774	-0.310	-0.195
-284.545	800.000	-0.039	-0.160
-283.530	239.693	0.048	0.080
-282.516	-84.419	-0.250	-0.078
-281.501	-91.546	0.240	0.068
-280.486	-200.000	-0.022	-0.143
-279.472	-132.578	0.269	0.034
-278.457	-84.815	-0.085	0.026
-277.443	-24.862	0.208	-0.123
-276.428	-147.563	0.245	-0.020
-275.413	626.929	-0.143	0.358
-274.399	-130.713	-0.282	0.038
-273.384	367.188	0.072	-0.143
-272.370	-13.575	0.017	0.011
-271.355	-23.401	0.165	0.098
-270.340	-58.019	-0.333	-0.144
-269.326	-200.000	-0.055	-0.248
-268.311	460.737	-0.079	0.174
-267.297	-200.000	0.063	-0.284
-266.282	229.239	-0.037	-0.060
-265.267	-33.658	-0.360	-0.197
-264.253	8.146	0.290	-0.216
-263.238	-21.414	-0.299	-0.181
-262.224	64.316	0.157	-0.156
-261.209	290.169	-0.079	-0.142
-260.195	-200.000	-0.017	0.206
-259.180	-100.049	0.263	0.065
-258.165	147.196	0.060	-0.080
-257.151	39.607	-0.140	-0.124
-256.136	-200.000	0.004	-0.301
-255.122	-141.127	-0.292	-0.030
-254.107	800.000	-0.022	-0.093
-253.092	800.000	-0.031	-0.121
-252.078	125.913	-0.019	-0.024
-251.063	-200.000	0.018	0.213
-250.049	221.255	-0.158	-0.252
-249.034	-121.778	-0.389	0.064
-248.019	290.497	0.084	-0.150
-247.005	10.468	-0.073	-0.055
-245.990	45.033	0.146	0.133
-244.976	-95.424	-0.060	0.016
-243.961	-34.209	-0.318	0.173
-242.946	200.281	0.098	0.149
-241.932	54.085	0.095	-0.090
-240.917	-200.000	-0.006	0.027
-239.903	-89.095	0.249	0.073
-238.888	-36.497	-0.266	-0.142
-237.873	73.107	0.290	0.300
-236.859	-86.891	0.207	0.063
-235.844	-200.000	-0.032	0.252
-234.830	10.508	0.199	-0.150
-233.815	-137.335	0.159	0.018
-232.800	800.000	-0.123	0.496
-231.786	-91.383	-0.195	-0.055
-230.771	-200.000	0.007	0.092
-229.757	181.037	-0.150	0.219
-228.742	49.176	0.170	-0.158
-227.727	-44.191	-0.142	-0.071
-226.713	2.032	0.168	0.120
-225.698	-200.000	-0.018	0.116
-224.684	312.601	-0.049	0.091
-223.669	-200.000	-0.006	-0.191
-222.655	-200.000	0.023	0.333
-221.640	-67.358	0.274	-0.106
-220.625	-31.112	0.519	-0.289
-219.611	-200.000	0.002	0.139
-218.596	326.550	0.039	0.073
-217.582	800.000	0.013	-0.044
-216.567	26.257	-0.134	0.110
-215.552	-200.000	-0.001	-0.025
-214.538	-200.000	0.037	-0.326
-213.523	-200.000	-0.035	0.189
-212.509	164.743	-0.127	0.177
-211.494	-118.668	0.384	-0.067
-210.479	-200.000	0.006	0.072
-209.465	157.172	-0.050	-0.068
-208.450	29.902	0.410	0.345
-207.436	-116.530	0.318	0.058
-206.421	-200.000	-0.022	0.198
-205.406	-200.000	0.032	-0.200
-204.392	-200.000	-0.023	0.114
-203.377	-18.617	-0.093	-0.057
-202.363	737.059	0.115	-0.304
-201.348	-156.985	0.177	-0.011
-200.333	117.041	-0.231	0.281
-199.319	-200.000	-0.003	-0.243
-198.304	75.308	0.125	-0.130
-197.290	154.148	0.115	0.156
-196.275	249.252	-0.037	-0.061
-195.260	-49.940	0.120	-0.056
-194.246	624.558	-0.010	-0.025
-193.231	-6.549	0.202	-0.136
-192.217	-198.443	0.343	0.002
-191.202	78.643	0.033	-0.034
-190.187	-61.985	0.329	0.136
-189.173	-114.137	-0.301	0.057
-188.158	-78.846	-0.200	-0.067
-187.144	-200.000	-0.022	-0.122
-186.129	-35.755	-0.121	-0.065
-185.114	-200.000	-0.025	-0.387
-184.100	-74.037	0.150	-0.054
-183.085	-13.791	-0.223	-0.142
-182.071	329.943	-0.035	-0.066
-181.056	-200.000	-0.011	0.254
-180.042	-200.000	-0.022	0.251
-179.027	398.658	0.079	0.163
-178.012	-106.475	-0.157	0.035
-176.998	-101.719	0.381	0.091
-175.983	168.760	-0.122	0.172
-174.969	-53.766	0.079	0.036
-173.954	39.714	-0.133	-0.118
-172.939	-66.058	0.312	0.123
-171.925	367.488	-0.094	0.187
-170.910	271.322	-0.128	0.222
-169.896	-106.634	-0.025	0.005
-168.881	800.000	0.033	0.136
-167.866	-106.649	0.450	0.099
-166.852	30.189	0.138	-0.116
-165.837	203.575	-0.094	-0.143
-164.823	-50.370	-0.231	-0.107
-163.808	-30.763	0.312	0.174
-162.793	-111.305	0.283	0.057
-161.779	800.000	0.051	-0.153
-160.764	-200.000	-0.031	0.270
-159.750	10.184	0.188	-0.141
-158.735	29.398	-0.189	0.158
-157.720	-29.161	0.126	0.072
-156.706	-108.703	-0.287	-0.061
-155.691	19.335	0.224	0.177
-154.677	-118.161	0.154	0.027
-153.662	113.118	-0.082	-0.098
-152.647	-127.417	-0.215	0.031
-151.633	19.469	0.159	-0.126
-150.618	36.052	-0.126	0.110
-149.604	-102.521	-0.196	-0.046
-148.589	-59.895	-0.349	0.147
-147.574	156.729	0.155	-0.211
-146.560	-118.695	-0.163	0.028
-145.545	-21.806	0.125	-0.075
-144.531	635.192	0.150	-0.376
-143.516	-38.784	0.266	-0.138
-142.502	-14.057	-0.239	0.152
-141.487	-200.000	-0.009	0.066
-140.472	-200.000	0.018	-0.164
-139.458	-49.558	-0.021	-0.010
-138.443	414.765	-0.095	-0.199
-137.429	160.211	-0.019	0.026
-136.414	35.089	-0.197	0.170
-135.399	-139.079	0.195	-0.021
-134.385	525.362	0.069	-0.159
-133.370	-200.000	-0.036	-0.324
-132.356	-129.578	0.271	0.037
-131.341	203.127	0.054	0.082
-130.326	-3.671	0.217	0.149
-129.312	179.648	-0.048	0.069
-128.297	-111.102	-0.355	-0.072
-127.283	-23.339	-0.037	0.022
-126.268	200.118	-0.081	-0.122
-125.253	99.785	-0.115	0.131
-124.239	-67.251	0.016	0.006
-123.224	79.772	0.058	-0.061
-122.210	-200.000	-0.020	-0.158
-121.195	-200.000	0.025	0.537
-120.180	443.194	-0.055	0.118
-119.166	30.027	0.124	-0.104
-118.151	-98.831	-0.279	0.070
-117.137	167.473	0.132	-0.185
-116.122	26.328	-0.112	0.092
-115.107	-200.000	0.020	0.179
-114.093	800.000	0.038	-0.150
-113.078	-200.000	-0.014	0.204
-112.064	-200.000	0.004	0.086
-111.049	-200.000	-0.020	-0.092
-110.034	-200.000	-0.023	-0.222
-109.020	361.002	-0.072	-0.143
-108.005	-47.235	-0.224	0.107
-106.991	-32.233	-0.047	0.026
-105.976	149.510	0.192	-0.255
-104.962	-200.000	-0.018	0.205
-103.947	-200.000	-0.026	0.307
-102.932	50.674	0.144	0.134
-101.918	94.751	-0.105	-0.118
-100.903	17.406	0.251	-0.196
-99.889	-21.624	0.125	0.075
-98.874	80.422	-0.150	0.159
-97.859	-94.125	0.179	-0.048
-96.845	-200.000	0.001	0.003
-95.830	225.888	-0.053	0.085
-94.816	-200.000	0.010	0.235
-93.801	-55.098	0.161	0.071
-92.786	-108.690	0.162	0.034
-91.772	-52.428	-0.151	-0.069
-90.757	118.151	-0.066	-0.081
-89.743	-200.000	-0.072	-0.312
-88.728	52.659	0.297	0.279
-87.713	26.512	-0.013	-0.011
-86.699	191.002	0.155	-0.230
-85.684	-103.517	0.350	0.081
-84.670	17.816	0.071	-0.056
-83.655	433.040	0.102	-0.218
-82.640	-129.142	-0.264	-0.036
-81.626	364.396	-0.039	-0.077
-80.611	102.146	-0.138	-0.159
-79.597	40.966	0.083	-0.074
-78.582	-114.024	-0.581	0.111
-77.567	610.479	-0.027	0.066
-76.553	-20.797	0.065	-0.039
-75.538	-200.000	-0.009	0.291
-74.524	-200.000	-0.009	-0.196
-73.509	1.582	0.157	0.111
-72.494	-89.331	-0.011	0.003
-71.480	492.307	0.064	-0.145
-70.465	-8.131	-0.289	-0.191
-69.451	-13.658	-0.251	0.160
-68.436	594.813	0.129	0.314
-67.422	312.611	0.135	-0.250
-66.407	278.285	-0.211	-0.370
-65.392	376.180	-0.114	0.230
-64.378	-200.000	-0.020	0.240
-63.363	-64.484	0.417	-0.167
-62.349	800.000	-0.044	0.169
-61.334	84.393	-1.086	-1.168
-60.319	70.510	0.694	0.705
-59.305	-200.000	-0.013	-0.806
-58.290	306.164	0.598	1.094
-57.276	561.883	0.703	1.671
-56.261	-200.000	107.942	585.286
-55.246	443.887	1477.109	3183.024
-54.232	147.092	2660.016	3515.857
-53.217	104.572	2178.406	2520.820
-52.203	39.514	1709.827	1505.299
-51.188	32.643	1523.452	1294.180
-50.173	30.290	1496.752	1255.548
-49.159	51.069	1552.595	1446.242
-48.144	51.192	1569.249	1462.544
-47.130	32.851	1525.843	1297.435
-46.115	29.874	1510.969	1264.432
-45.100	29.648	1507.704	1260.105
-44.086	29.540	1505.807	1257.736
-43.071	29.533	1503.012	1255.308
-42.057	29.511	1501.507	1253.849
-41.042	29.572	1499.902	1252.875
-40.027	29.463	1499.032	1251.354
-39.013	29.578	1496.962	1250.360
-37.998	29.470	1495.921	1248.707
-36.984	29.397	1495.348	1247.684
-35.969	29.529	1493.320	1246.837
-34.954	29.564	1492.074	1245.980
-33.940	29.532	1490.754	1244.616
-32.925	29.506	1489.471	1243.319
-31.911	29.646	1487.724	1242.750
-30.896	29.564	1487.195	1241.708
-29.881	29.530	1485.644	1240.139
-28.867	29.643	1484.245	1239.678
-27.852	29.523	1483.060	1237.836
-26.838	29.598	1481.569	1237.046
-25.823	29.569	1480.290	1235.731
-24.809	29.550	1478.729	1234.254
-23.794	29.571	1477.018	1232.914
-22.779	29.508	1476.458	1231.983
-21.765	29.674	1474.621	1231.504
-20.750	29.664	1473.636	1230.567
-19.736	29.584	1472.589	1229.108
-18.721	29.656	1471.110	1228.304
-17.706	29.585	1469.931	1226.801
-16.692	29.581	1469.094	1226.029
-15.677	29.616	1467.978	1225.282
-14.663	29.639	1467.154	1224.699
-13.648	29.588	1466.349	1223.640
-12.633	29.540	1465.106	1222.238
-11.619	29.562	1464.986	1222.234
-10.604	29.619	1463.325	1221.176
-9.590	29.581	1462.873	1220.500
-8.575	29.620	1461.504	1219.563
-7.560	29.587	1460.973	1218.855
-6.546	29.516	1460.122	1217.632
-5.531	29.464	1459.409	1216.645
-4.517	29.521	1458.434	1216.156
-3.502	29.561	1457.054	1215.223
-2.487	29.558	1456.287	1214.511
-1.473	29.505	1454.794	1212.869
-0.458	29.514	1453.489	1211.797
0.556	27.651	1444.085	1201.194
1.571	24.891	1419.491	1162.733
2.586	21.639	1360.631	1094.142
3.600	20.187	1278.682	1019.619
4.615	19.189	1232.765	977.257
5.629	16.550	1176.193	918.025
6.644	8.110	1090.880	808.710
7.659	1.233	1049.764	744.496
8.673	0.347	1043.643	735.766
9.688	0.086	1040.916	732.510
10.702	0.133	1039.031	731.350
11.717	-0.105	1037.253	728.877
12.731	2.630	1040.059	744.074
13.746	10.995	1051.305	792.962
14.761	16.972	1058.626	827.663
15.775	17.281	1057.864	828.503
16.790	16.414	1055.993	822.743
17.804	15.389	1053.398	815.668
18.819	14.496	1052.173	810.309
19.834	13.992	1050.900	806.810
20.848	13.640	1049.811	804.198
21.863	13.577	1048.459	802.785
22.877	13.384	1047.708	801.204
23.892	13.104	1046.666	798.981
24.907	12.972	1046.470	798.122
25.921	13.004	1045.877	797.752
26.936	12.946	1044.901	796.660
27.950	12.971	1044.133	796.124
28.965	13.169	1043.116	796.232
29.980	13.134	1042.364	795.420
30.994	13.322	1041.232	795.388
32.009	13.241	1040.812	794.607
33.023	13.375	1040.254	794.754
34.038	13.193	1039.618	793.326
35.053	13.274	1038.231	792.584
36.067	13.246	1037.319	791.688
37.082	13.067	1037.126	790.611
38.096	13.238	1035.873	790.402
39.111	13.271	1035.316	790.067
40.126	13.267	1034.195	789.124
41.140	13.253	1033.331	788.326
42.155	13.202	1031.946	786.955
43.169	12.959	1031.667	785.517
44.184	13.080	1030.267	784.959
45.199	12.902	1029.763	783.659
46.213	13.029	1028.861	783.503
47.228	13.043	1027.596	782.538
48.242	13.043	1026.887	781.927
49.257	13.214	1025.481	781.599
50.271	13.102	1024.616	780.339
51.286	13.164	1023.722	779.883
52.301	13.112	1022.998	779.016
53.315	13.117	1022.665	778.717
54.330	12.966	1021.614	777.139
55.344	13.049	1020.938	776.945
56.359	13.081	1019.668	776.063
57.374	12.994	1018.920	775.013
58.388	13.084	1017.865	774.565
59.403	13.126	1016.860	773.930
60.417	13.021	1016.300	772.943
61.432	12.988	1015.514	772.121
62.447	12.888	1015.071	771.251
63.461	12.907	1014.232	770.633
64.476	12.984	1013.161	770.109
65.490	13.011	1012.006	769.289
66.505	12.914	1011.511	768.395
67.520	12.967	1010.448	767.764
68.534	12.964	1009.761	767.162
69.549	12.923	1009.511	766.715
70.563	13.135	1008.037	766.509
71.578	12.960	1007.878	765.508
72.593	12.832	1006.859	764.072
73.607	12.765	1006.219	763.209
74.622	12.867	1005.427	763.012
75.636	12.935	1004.074	762.236
76.651	12.798	1003.498	761.096
77.666	12.854	1002.626	760.628
78.680	12.914	1001.814	760.217
79.695	12.951	1001.538	760.113
80.709	12.936	1000.730	759.365
81.724	13.065	999.816	759.196
82.739	12.993	999.398	758.480
83.753	13.077	998.410	758.048
84.768	13.041	998.014	757.517
85.782	13.045	997.328	756.947
86.797	13.423	995.861	757.498
87.812	13.100	995.663	755.801
88.826	13.126	994.938	755.303
89.841	13.073	994.004	754.283
90.855	13.144	993.300	754.010
91.870	13.153	992.302	753.223
92.884	13.262	991.651	753.162
93.899	13.318	990.587	752.540
94.914	13.169	990.281	751.563
95.928	13.278	989.750	751.589
96.943	13.346	988.787	751.100
97.957	13.240	988.110	750.038
98.972	13.317	986.808	749.332
99.987	13.248	986.408	748.650
101.001	13.272	985.792	748.227
102.016	13.202	985.518	747.634
103.030	13.181	984.297	746.548
104.045	13.173	982.977	745.446
105.060	13.421	981.776	745.584
106.074	13.252	981.123	744.261
107.089	13.078	980.431	742.891
108.103	13.039	979.413	741.875
109.118	13.093	978.584	741.427
110.133	13.101	977.670	740.702
111.147	13.003	976.826	739.557
112.162	13.021	976.163	739.073
113.176	13.004	975.513	738.440
114.191	13.019	974.245	737.482
115.206	13.086	973.594	737.223
116.220	13.173	972.655	736.832
117.235	13.197	971.693	736.147
118.249	13.118	970.871	735.107
119.264	13.081	969.860	734.111
120.279	13.004	969.037	733.081
121.293	13.022	968.466	732.665
122.308	13.041	967.537	731.982
123.322	12.924	966.990	730.987
124.337	13.068	965.536	730.457
125.352	13.029	964.661	729.558
126.366	13.026	963.757	728.796
127.381	13.154	962.060	728.012
128.395	12.937	961.888	726.862
129.410	13.047	960.868	726.512
130.424	13.101	959.532	725.673
131.439	13.162	958.830	725.349
132.454	12.963	958.318	724.022
133.468	13.095	957.182	723.678
134.483	13.173	956.895	723.741
135.497	13.161	956.236	723.124
136.512	13.159	955.251	722.306
137.527	13.148	954.395	721.549
138.541	13.152	953.939	721.157
139.556	13.141	952.842	720.215
140.570	13.147	952.182	719.678
141.585	13.227	951.487	719.440
142.600	13.206	950.931	718.862
143.614	13.291	949.954	718.433
144.629	13.207	949.124	717.373
145.643	13.437	948.224	717.628
146.658	13.296	947.334	716.280
147.673	13.324	946.662	715.833
148.687	13.248	945.898	714.862
149.702	13.320	944.836	714.305
150.716	13.233	944.423	713.553
151.731	13.112	943.432	712.220
152.746	13.290	942.184	711.981
153.760	13.207	941.902	711.348
154.775	13.192	940.927	710.487
155.789	13.385	940.111	710.634
156.804	13.323	939.478	709.830
157.819	13.290	938.661	709.004
158.833	13.374	937.956	708.770
159.848	13.438	937.051	708.296
160.862	13.505	936.619	708.195
161.877	13.465	936.064	707.543
162.892	13.245	935.699	706.265
163.906	13.275	934.767	705.627
164.921	13.368	933.433	704.953
165.935	13.309	932.313	703.793
166.950	13.366	931.194	703.129
167.964	13.479	930.427	702.966
168.979	13.372	929.287	701.590
169.994	13.393	928.518	701.037
171.008	13.444	927.951	700.764
172.023	13.434	927.073	699.996
173.037	13.416	926.264	699.246
174.052	13.482	925.720	699.052
175.067	13.528	924.608	698.344
176.081	13.523	923.825	697.669
177.096	13.261	923.685	696.401
178.110	13.401	922.480	696.017
179.125	13.548	921.853	696.103
180.140	13.455	921.016	695.019
181.154	13.400	920.726	694.507
182.169	13.418	919.656	693.714
183.183	13.490	919.100	693.536
184.198	13.500	918.449	693.025
185.213	13.571	917.923	692.863
186.227	13.620	917.285	692.525
187.242	13.642	916.498	691.962
188.256	13.698	915.907	691.688
189.271	13.754	914.980	691.156
190.286	13.824	914.325	690.895
191.300	13.672	913.538	689.604
192.315	13.472	913.211	688.467
193.329	13.525	911.833	687.586
194.344	13.431	911.636	686.987
195.359	13.420	911.231	686.576
196.373	13.587	910.417	686.593
197.388	13.618	909.847	686.233
198.402	13.624	909.468	685.911
199.417	13.686	908.962	685.724
200.432	13.888	908.503	686.150
201.446	13.923	907.721	685.643
202.461	13.888	907.828	685.522
203.475	14.041	907.052	685.506
204.490	13.937	906.722	684.768
205.504	13.858	905.298	683.306
206.519	13.978	904.523	683.152
207.534	13.804	904.136	682.085
208.548	13.849	903.341	681.611
209.563	13.838	902.410	680.800
210.577	13.930	901.759	680.626
211.592	13.885	901.350	680.075
212.607	13.904	900.942	679.783
213.621	13.973	899.960	679.266
214.636	13.972	899.484	678.841
215.650	14.018	898.830	678.475
216.665	13.917	898.658	677.875
217.680	14.047	897.612	677.553
218.694	14.140	897.327	677.659
219.709	14.123	896.693	677.051
220.723	14.102	896.044	676.417
221.738	14.165	895.246	676.010
222.753	14.042	894.672	675.016
223.767	14.179	893.867	674.906
224.782	14.168	893.017	674.158
225.796	14.181	892.176	673.517
226.811	14.205	891.769	673.245
227.826	14.201	890.975	672.571
228.840	14.245	890.331	672.203
229.855	14.255	889.600	671.632
230.869	14.206	889.159	671.044
231.884	14.119	888.504	670.138
232.899	14.181	888.034	669.976
233.913	14.153	887.208	669.178
234.928	14.147	886.613	668.647
235.942	14.033	886.138	667.773
236.957	14.201	885.216	667.692
237.972	14.200	884.414	667.022
238.986	14.339	883.561	666.877
240.001	14.229	883.294	666.177
241.015	14.321	882.372	665.791
242.030	14.263	881.838	665.097
243.045	14.233	881.152	664.402
244.059	14.380	880.998	664.813
245.074	14.262	880.371	663.813
246.088	14.383	879.362	663.475
247.103	14.412	879.011	663.264
248.117	14.326	878.738	662.659
249.132	14.407	878.120	662.454
250.147	14.426	877.558	662.047
251.161	14.622	876.558	662.013
252.176	14.668	875.996	661.712
253.190	14.601	875.026	660.657
254.205	14.539	875.393	660.631
255.220	14.783	874.039	660.515
256.234	14.669	873.771	659.802
257.249	14.601	873.127	658.990
258.263	14.735	872.545	659.021
259.278	14.784	872.237	658.923
260.293	14.666	871.603	657.918
261.307	14.760	870.860	657.672
262.322	14.817	870.108	657.268
263.336	14.810	869.501	656.724
264.351	14.890	869.183	656.742
265.366	14.828	868.517	655.937
266.380	14.816	867.808	655.294
267.395	14.951	866.746	654.966
268.409	14.907	866.396	654.468
269.424	14.903	865.699	653.869
270.439	14.983	864.952	653.560
271.453	14.906	864.358	652.753
272.468	14.905	863.609	652.126
273.482	14.848	863.419	651.701
274.497	14.889	862.590	651.177
275.512	14.794	862.078	650.364
276.526	14.836	861.346	649.920
277.541	14.832	860.562	649.253
278.555	14.930	859.777	648.984
279.570	14.917	859.369	648.567
280.585	15.075	858.795	648.689
281.599	15.110	858.323	648.412
282.614	15.044	857.900	647.781
283.628	15.117	856.902	647.251
284.643	15.061	856.249	646.485
285.657	15.088	855.773	646.172
286.672	15.052	855.450	645.731
287.687	15.183	854.886	645.756
288.701	15.086	854.118	644.742
289.716	15.130	853.709	644.546
290.730	15.142	853.150	644.115
291.745	15.196	852.657	643.891
292.760	15.197	851.647	643.075
293.774	15.187	850.944	642.451
294.789	15.265	850.801	642.584
295.803	15.393	849.887	642.329
296.818	15.297	849.148	641.345
297.833	15.226	848.710	640.686
298.847	15.396	847.776	640.573
299.862	15.376	847.119	639.944
300.876	15.357	846.753	639.537
301.891	15.326	846.123	638.886
302.906	15.276	845.594	638.243
303.920	15.397	844.920	638.135
304.935	15.449	844.200	637.735
305.949	15.528	843.487	637.437
306.964	15.537	842.962	637.018
307.979	15.588	842.549	636.845
308.993	15.421	841.895	635.661
310.008	15.525	841.425	635.643
311.022	15.548	840.952	635.317
312.037	15.609	840.366	635.047
313.052	15.482	840.361	634.508
314.066	15.504	839.669	634.011
315.081	15.470	838.567	632.998
316.095	15.478	838.115	632.630
317.110	15.596	837.687	632.697
318.125	15.503	837.201	631.922
319.139	15.349	836.824	631.002
320.154	15.487	836.026	630.863
321.168	15.538	835.699	630.754
322.183	15.641	835.062	630.603
323.197	15.613	834.501	630.018
324.212	15.696	834.046	629.929
325.227	15.674	833.438	629.331
326.241	15.540	833.072	628.498
327.256	15.582	832.285	628.006
328.270	15.604	831.575	627.496
329.285	15.467	831.173	626.628
330.300	15.658	830.661	626.896
331.314	15.769	829.854	626.646
332.329	15.649	829.288	625.716
333.343	15.805	828.492	625.641
334.358	15.809	827.745	625.037
335.373	15.753	827.544	624.623
336.387	15.770	827.075	624.277
337.402	15.809	826.513	623.942
338.416	15.822	826.133	623.645
339.431	15.845	825.229	622.995
340.446	15.949	825.136	623.256
341.460	15.997	824.297	622.743
342.475	15.974	823.814	622.238
343.489	15.868	823.423	621.496
344.504	15.975	822.754	621.331
345.519	16.072	822.522	621.458
346.533	16.132	821.433	620.802
347.548	16.118	820.977	620.351
348.562	16.068	820.679	619.887
349.577	15.915	820.601	619.209
350.592	16.052	819.603	618.906
351.606	16.023	819.186	618.430
352.621	15.999	818.700	617.921
353.635	15.851	818.840	617.426
354.650	16.055	817.946	617.444
355.665	16.008	817.353	616.771
356.679	16.108	817.023	616.836
357.694	16.142	816.741	616.691
358.708	16.282	815.663	616.335
359.723	16.026	815.440	615.176
360.738	16.217	814.739	615.291
361.752	16.224	814.176	614.834
362.767	16.350	814.006	615.110
363.781	16.353	813.303	614.538
364.796	16.324	813.086	614.214
365.810	16.279	812.933	613.879
366.825	16.204	812.601	613.303
367.840	16.494	811.688	613.612
368.854	16.333	811.688	612.971
369.869	16.351	811.185	612.603
370.883	16.334	810.301	611.822
371.898	16.409	809.881	611.720
372.913	16.389	809.355	611.198
373.927	16.505	808.665	611.043
374.942	16.315	808.163	609.919
375.956	16.439	807.202	609.588
376.971	16.518	807.012	609.677
377.986	16.518	806.549	609.273
379.000	16.451	806.147	608.673
380.015	16.562	805.391	608.449
381.029	16.525	804.808	607.820
382.044	16.660	804.048	607.678
383.059	16.678	803.389	607.192
384.073	16.783	803.106	607.301
385.088	16.726	802.509	606.592
386.102	16.598	802.132	605.793
387.117	16.704	801.453	605.608
388.132	16.536	801.235	604.786
389.146	16.542	800.903	604.503
390.161	16.813	800.009	604.743
391.175	16.709	800.060	604.359
392.190	16.770	799.814	604.335
393.205	16.639	799.308	603.432
394.219	16.659	798.858	603.111
395.234	16.814	797.927	602.908
396.248	16.622	797.907	602.155
397.263	16.705	797.329	601.960
398.278	16.662	796.933	601.454
399.292	16.526	796.291	600.436
400.307	16.569	796.146	600.425
401.321	16.711	795.703	600.540
402.336	16.703	795.302	600.155
403.350	16.811	794.736	600.060
404.365	16.781	794.355	599.613
405.380	16.852	793.696	599.311
406.394	16.892	793.548	599.291
407.409	17.004	792.765	599.041
408.423	16.836	792.696	598.344
409.438	16.951	791.907	598.099
410.453	16.914	791.692	597.755
411.467	17.054	791.364	597.945
412.482	17.038	790.733	597.360
413.496	17.137	790.389	597.397
414.511	17.169	789.876	597.068
415.526	17.236	789.312	596.822
416.540	17.090	789.314	596.260
417.555	17.209	788.660	596.132
418.569	17.240	788.094	595.759
419.584	17.057	787.556	594.659
420.599	17.269	787.325	595.173
421.613	108.524	1290.819	1468.028
422.628	93.001	1364.166	1468.116
