DTS Sentinel unit serial number:	SN413079Multiplexer serial number:	ORYXHardware model number:	OX4-SRSoftware version number:	ORYX F/W v4.00 Oryx Data Collector v3.7.2.0data status	okinstallation	princeton_trtdifferential loss correction	single-endedforward channel	channel 3reverse channel	N/Adate	2019/09/14time	05:44:35forward acquisition time	60.00reverse acquisition time	0.00gamma	496.2192k internal	0.2337k external	0.2337temperature offset calibration	1.0055default loss term (dB/km)	0.3790temperature slope calibration	1.0000multiplexer offset coefficient	1.0000multiplexer slope coefficient	1.0000fibre end	0.00T internal ref (°C)	26.94T ext. ref 1 (°C)	3.41T ext. ref 2 (°C)	21.65length (m)	temperature (°C)	Stokes	anti-Stokes-747.200	327.954	0.144	-0.278
-746.185	149.766	0.109	0.148
-745.171	-73.362	0.307	0.113
-744.156	44.247	-0.113	-0.104
-743.142	-200.000	-0.005	-0.087
-742.127	-200.000	-0.027	0.229
-741.112	-110.206	0.080	0.017
-740.098	-170.135	0.120	0.004
-739.083	-200.000	0.011	-0.067
-738.069	98.248	-0.212	0.245
-737.054	39.925	0.195	0.176
-736.039	-104.309	-0.310	0.072
-735.025	-4.841	0.143	0.099
-734.010	-55.418	-0.393	0.177
-732.996	-10.513	-0.109	0.072
-731.981	-108.061	0.222	0.048
-730.966	800.000	0.092	-0.302
-729.952	-86.598	-0.401	0.123
-728.937	60.851	-0.259	-0.258
-727.923	-104.995	-0.196	-0.045
-726.908	800.000	-0.049	-0.177
-725.894	44.237	-0.139	0.128
-724.879	-141.400	-0.399	0.041
-723.864	-127.507	-0.380	-0.055
-722.850	800.000	-0.066	-0.256
-721.835	45.063	-0.090	-0.083
-720.821	191.441	0.048	0.073
-719.806	438.894	-0.050	-0.109
-718.791	-106.075	0.406	0.092
-717.777	-39.527	-0.184	0.096
-716.762	317.596	0.097	-0.183
-715.748	800.000	0.065	-0.240
-714.733	1.458	-0.105	0.076
-713.718	21.976	-0.246	-0.201
-712.704	800.000	-0.026	0.092
-711.689	-30.981	-0.149	-0.085
-710.675	203.302	-0.098	0.152
-709.660	-114.361	-0.480	0.093
-708.645	-62.750	0.234	-0.097
-707.631	-200.000	0.055	-0.252
-706.616	800.000	-0.094	0.278
-705.602	-15.927	0.144	-0.092
-704.587	-32.749	-0.160	0.089
-703.572	-82.258	-0.188	0.061
-702.558	-149.782	0.408	-0.032
-701.543	-158.437	0.189	-0.011
-700.529	208.524	-0.025	-0.039
-699.514	418.438	0.107	-0.230
-698.499	800.000	-0.065	-0.279
-697.485	800.000	-0.041	0.157
-696.470	-200.000	-0.021	-0.142
-695.456	-24.803	0.224	-0.133
-694.441	248.473	0.083	-0.141
-693.426	125.248	0.139	-0.176
-692.412	800.000	0.060	-0.179
-691.397	66.812	-0.080	0.081
-690.383	800.000	-0.060	0.252
-689.368	-200.000	0.041	0.257
-688.354	21.229	-0.150	0.122
-687.339	-94.599	0.285	-0.078
-686.324	-175.939	-0.215	-0.006
-685.310	204.429	0.063	-0.097
-684.295	100.040	0.227	-0.264
-683.281	-200.000	-0.058	-0.297
-682.266	-200.000	0.019	-0.122
-681.251	-133.269	0.046	-0.006
-680.237	-128.783	-0.114	-0.016
-679.222	0.561	-0.086	-0.062
-678.208	654.103	0.072	-0.185
-677.193	-154.610	-0.165	-0.011
-676.178	800.000	0.020	0.064
-675.164	-103.867	-0.476	0.111
-674.149	800.000	0.150	-0.532
-673.135	244.727	0.190	-0.320
-672.120	-70.349	-0.096	0.036
-671.105	21.001	-0.156	0.126
-670.091	60.134	0.195	-0.192
-669.076	800.000	-0.085	-0.284
-668.062	65.273	-0.148	0.150
-667.047	143.552	0.181	0.241
-666.032	800.000	-0.191	0.539
-665.018	-163.584	0.191	0.009
-664.003	-127.616	-0.148	-0.021
-662.989	105.255	-0.243	0.288
-661.974	-165.276	-0.207	0.009
-660.959	214.731	-0.158	-0.250
-659.945	-185.766	0.164	-0.002
-658.930	126.908	-0.117	-0.149
-657.916	-112.458	0.212	0.042
-656.901	-37.133	-0.396	-0.212
-655.886	-105.866	-0.315	-0.071
-654.872	-76.724	-0.211	-0.074
-653.857	-43.047	-0.151	-0.076
-652.843	-94.527	0.192	-0.052
-651.828	130.519	-0.059	-0.076
-650.814	-200.000	-0.011	-0.092
-649.799	155.485	-0.017	0.024
-648.784	223.408	-0.116	0.187
-647.770	82.028	-0.080	0.086
-646.755	-151.113	0.247	0.019
-645.741	641.808	0.053	-0.136
-644.726	-16.682	-0.374	0.237
-643.711	56.390	-0.142	0.138
-642.697	95.742	0.325	0.371
-641.682	-83.325	-0.563	-0.181
-640.668	-200.000	0.017	-0.163
-639.653	2.226	0.094	-0.068
-638.638	-188.739	0.156	0.002
-637.624	17.115	-0.134	0.106
-636.609	-143.949	0.336	-0.032
-635.595	-61.319	0.260	-0.109
-634.580	17.966	-0.187	0.149
-633.565	316.425	0.100	-0.190
-632.551	525.865	0.065	-0.152
-631.536	-24.515	-0.337	-0.200
-630.522	-107.862	-0.181	0.039
-629.507	-143.689	0.051	-0.005
-628.492	-200.000	-0.002	0.013
-627.478	800.000	0.025	0.094
-626.463	-121.065	0.232	0.039
-625.449	182.866	-0.150	-0.221
-624.434	-200.000	0.001	-0.042
-623.419	-58.014	0.327	-0.143
-622.405	-100.350	-0.180	-0.045
-621.390	-200.000	-0.015	0.093
-620.376	800.000	0.013	-0.045
-619.361	-200.000	-0.001	-0.126
-618.346	156.214	0.138	0.190
-617.332	-113.284	-0.267	-0.052
-616.317	800.000	0.043	-0.180
-615.303	199.441	-0.017	0.026
-614.288	-200.000	-0.035	0.474
-613.273	-128.238	-0.169	-0.024
-612.259	-21.128	0.271	0.165
-611.244	800.000	-0.117	0.359
-610.230	682.057	0.092	-0.240
-609.215	132.408	-0.152	-0.196
-608.201	-200.000	-0.001	-0.225
-607.186	-200.000	-0.017	0.131
-606.171	-200.000	0.018	-0.100
-605.157	-200.000	0.008	-0.132
-604.142	42.190	-0.313	-0.284
-603.128	-111.125	-0.371	0.076
-602.113	-67.771	0.164	0.064
-601.098	-91.442	-0.036	-0.010
-600.084	66.317	0.295	-0.299
-599.069	-144.137	0.425	-0.040
-598.055	-67.622	-0.483	-0.189
-597.040	23.854	-0.088	-0.072
-596.025	85.749	0.098	-0.108
-595.011	-200.000	0.013	-0.115
-593.996	800.000	0.089	-0.384
-592.982	-65.418	0.117	0.047
-591.967	-22.447	-0.063	-0.038
-590.952	38.869	0.212	-0.189
-589.938	510.813	-0.062	-0.143
-588.923	-33.484	-0.268	0.148
-587.909	-200.000	0.025	0.117
-586.894	-200.000	0.026	-0.119
-585.879	5.250	-0.228	0.168
-584.865	-200.000	-0.001	0.025
-583.850	-106.663	0.205	0.045
-582.836	-58.202	0.162	0.071
-581.821	-23.918	-0.052	0.031
-580.806	292.435	-0.139	0.253
-579.792	188.562	0.096	-0.144
-578.777	-200.000	-0.020	0.199
-577.763	-105.193	0.234	0.053
-576.748	-127.368	0.101	-0.015
-575.733	-109.115	0.252	-0.053
-574.719	-115.811	0.366	-0.068
-573.704	-187.735	-0.055	0.001
-572.690	-200.000	0.041	-0.191
-571.675	342.157	0.087	-0.169
-570.661	539.276	-0.053	-0.125
-569.646	-72.908	0.198	-0.073
-568.631	-65.483	-0.189	-0.076
-567.617	-62.218	-0.170	-0.071
-566.602	164.075	-0.206	-0.290
-565.588	-59.831	-0.061	0.026
-564.573	57.904	0.169	0.165
-563.558	800.000	-0.040	0.156
-562.544	-200.000	-0.031	-0.163
-561.529	-105.440	0.101	0.023
-560.515	-192.096	0.489	-0.005
-559.500	42.459	0.077	0.070
-558.485	476.106	0.053	-0.120
-557.471	226.018	0.078	0.126
-556.456	800.000	-0.045	0.135
-555.442	-200.000	0.005	0.201
-554.427	-200.000	0.009	-0.127
-553.412	-200.000	-0.310	0.001
-552.398	-171.135	-0.042	0.001
-551.383	487.244	0.149	0.339
-550.369	90.627	0.099	-0.110
-549.354	-137.972	-0.241	-0.027
-548.339	-106.359	-0.243	0.054
-547.325	431.049	-0.003	0.007
-546.310	-130.942	-0.124	-0.017
-545.296	143.508	-0.173	0.230
-544.281	141.077	-0.077	-0.102
-543.266	-118.866	0.271	-0.047
-542.252	136.242	-0.226	-0.293
-541.237	82.355	-0.038	0.041
-540.223	-50.051	-0.305	0.144
-539.208	-76.765	-0.501	0.175
-538.193	677.255	-0.105	0.270
-537.179	86.654	-0.212	-0.233
-536.164	-84.969	-0.315	0.098
-535.150	-90.824	0.196	0.056
-534.135	-200.000	0.005	-0.058
-533.121	74.693	0.058	-0.061
-532.106	69.685	0.116	-0.119
-531.091	-43.453	-0.156	-0.078
-530.077	-200.000	-0.052	-0.314
-529.062	800.000	0.007	-0.031
-528.048	-146.698	-0.288	-0.025
-527.033	35.843	-0.154	0.135
-526.018	-28.403	0.348	0.200
-525.004	-109.087	-0.422	-0.089
-523.989	-200.000	-0.043	0.287
-522.975	-100.189	-0.071	-0.018
-521.960	-64.741	-0.260	0.105
-520.945	278.350	-0.157	0.279
-519.931	-200.000	-0.066	-0.388
-518.916	-46.660	-0.172	-0.084
-517.902	-72.621	0.167	0.061
-516.887	25.408	-0.164	0.136
-515.872	-53.424	0.048	0.022
-514.858	-159.812	-0.144	-0.008
-513.843	118.060	-0.072	-0.088
-512.829	29.285	-0.175	-0.148
-511.814	575.170	0.025	0.061
-510.799	380.543	-0.019	0.039
-509.785	-90.834	-0.194	-0.056
-508.770	152.694	-0.107	-0.145
-507.756	-147.848	0.344	-0.029
-506.741	38.071	-0.053	0.047
-505.726	-29.470	-0.083	0.047
-504.712	-154.610	0.083	0.005
-503.697	-200.000	0.079	-0.368
-502.683	-130.802	-0.182	0.024
-501.668	119.683	0.055	-0.068
-500.653	66.934	-0.139	-0.141
-499.639	174.931	0.041	0.059
-498.624	-80.564	-0.206	-0.068
-497.610	-200.000	0.033	0.228
-496.595	153.601	-0.175	-0.238
-495.581	-83.715	0.117	0.037
-494.566	23.019	-0.319	0.260
-493.551	552.159	0.083	0.198
-492.537	-188.780	-0.099	-0.001
-491.522	290.219	-0.068	-0.123
-490.508	-200.000	0.020	-0.267
-489.493	800.000	-0.090	0.266
-488.478	-200.000	-0.008	0.362
-487.464	-200.000	0.003	-0.095
-486.449	-93.557	-0.293	-0.080
-485.435	800.000	-0.069	-0.247
-484.420	-124.326	0.149	0.023
-483.405	800.000	0.040	0.154
-482.391	156.221	-0.123	0.168
-481.376	-102.857	-0.243	-0.057
-480.362	577.312	-0.026	-0.064
-479.347	-200.000	0.011	-0.134
-478.332	133.628	0.027	0.034
-477.318	18.501	-0.205	0.163
-476.303	800.000	0.022	-0.090
-475.289	-168.882	0.256	0.010
-474.274	-155.166	0.157	0.010
-473.259	-86.732	-0.556	-0.169
-472.245	-6.880	-0.094	-0.063
-471.230	-155.081	-0.147	0.010
-470.216	-95.205	0.309	0.083
-469.201	-6.879	0.185	-0.125
-468.186	28.601	0.078	-0.065
-467.172	486.875	-0.248	-0.562
-466.157	107.727	-0.063	-0.074
-465.143	366.181	-0.114	0.228
-464.128	-200.000	0.020	-0.345
-463.113	-91.058	-0.164	0.047
-462.099	-200.000	0.008	0.248
-461.084	-111.959	0.115	0.023
-460.070	189.462	-0.115	-0.171
-459.055	800.000	0.044	0.152
-458.040	-65.994	-0.295	0.117
-457.026	-200.000	-0.033	0.153
-456.011	178.928	0.133	0.193
-454.997	-48.948	0.446	0.212
-453.982	247.286	0.186	0.312
-452.968	-200.000	0.037	-0.196
-451.953	-200.000	0.088	-0.397
-450.938	106.861	-0.149	-0.176
-449.924	-130.434	0.362	0.049
-448.909	-112.175	-0.385	0.077
-447.895	-200.000	0.006	-0.059
-446.880	95.596	0.089	0.101
-445.865	405.403	0.061	-0.127
-444.851	-86.591	-0.229	0.069
-443.836	-52.107	-0.176	0.081
-442.822	23.973	-0.166	0.136
-441.807	800.000	-0.044	0.173
-440.792	70.825	0.154	-0.159
-439.778	94.698	-0.222	0.251
-438.763	-128.117	0.195	0.028
-437.749	800.000	-0.029	0.124
-436.734	-66.787	0.277	-0.109
-435.719	134.381	-0.122	-0.157
-434.705	332.830	0.101	0.194
-433.690	-114.568	0.043	0.008
-432.676	-200.000	-0.012	-0.087
-431.661	298.499	0.210	-0.384
-430.646	-21.745	-0.135	-0.082
-429.632	49.834	0.272	0.254
-428.617	-82.072	-0.422	-0.137
-427.603	128.923	0.083	0.105
-426.588	-200.000	0.107	0.529
-425.573	-55.604	0.150	0.067
-424.559	800.000	0.106	0.407
-423.544	800.000	-0.022	0.078
-422.530	466.298	-0.183	-0.407
-421.515	217.377	0.183	-0.289
-420.500	-100.759	0.331	-0.081
-419.486	-48.564	-0.173	0.082
-418.471	26.715	0.141	0.117
-417.457	19.721	-0.143	0.114
-416.442	-200.000	0.059	-0.257
-415.428	121.156	-0.246	-0.304
-414.413	-200.000	-0.035	0.173
-413.398	584.136	-0.094	-0.229
-412.384	-61.299	0.071	0.030
-411.369	279.428	0.038	0.067
-410.355	319.151	0.122	-0.229
-409.340	190.518	0.144	0.214
-408.325	231.344	0.215	0.349
-407.311	226.795	-0.140	0.225
-406.296	-62.010	-0.219	0.091
-405.282	5.208	0.139	0.102
-404.267	-13.860	-0.085	-0.054
-403.252	23.518	-0.105	-0.086
-402.238	134.173	0.135	0.173
-401.223	-200.000	0.003	0.075
-400.209	52.790	-0.109	-0.103
-399.194	-1.094	0.205	0.144
-398.179	-26.261	-0.084	-0.049
-397.165	-26.243	0.140	-0.081
-396.150	-200.000	-0.023	0.281
-395.136	119.025	0.170	0.208
-394.121	-20.878	-0.027	-0.016
-393.106	91.608	-0.051	0.056
-392.092	-17.415	-0.138	0.086
-391.077	-136.334	0.331	-0.038
-390.063	62.684	-0.030	0.030
-389.048	-200.000	0.000	0.305
-388.033	-50.505	-0.203	-0.095
-387.019	80.288	0.254	-0.270
-386.004	800.000	0.051	-0.197
-384.990	800.000	-0.043	-0.155
-383.975	397.247	0.075	-0.155
-382.960	-97.849	-0.124	-0.032
-381.946	-76.318	-0.268	-0.093
-380.931	-66.418	0.195	-0.077
-379.917	70.557	-0.209	0.214
-378.902	221.083	0.071	-0.113
-377.888	-19.391	-0.217	-0.133
-376.873	-64.047	0.010	-0.004
-375.858	-66.127	0.025	0.010
-374.844	800.000	-0.037	0.119
-373.829	49.453	0.256	0.238
-372.815	2.953	-0.128	-0.092
-371.800	800.000	0.086	-0.329
-370.785	-86.983	0.150	-0.045
-369.771	74.317	0.160	-0.166
-368.756	25.704	-0.207	-0.171
-367.742	-200.000	-0.036	0.264
-366.727	111.123	-0.230	0.274
-365.712	-85.289	-0.353	0.109
-364.698	161.158	-0.200	-0.277
-363.683	-138.642	-0.120	0.013
-362.669	-87.375	0.470	-0.141
-361.654	-161.078	0.130	0.007
-360.639	54.775	-0.095	0.091
-359.625	800.000	0.049	0.200
-358.610	-12.814	0.087	0.056
-357.596	38.483	-0.049	-0.043
-356.581	-200.000	-0.013	-0.188
-355.566	-58.768	0.190	-0.081
-354.552	-51.538	-0.141	-0.065
-353.537	-32.143	-0.066	-0.036
-352.523	95.950	-0.160	-0.180
-351.508	-125.927	-0.114	-0.017
-350.493	-200.000	-0.046	0.281
-349.479	262.652	0.098	-0.168
-348.464	-10.570	-0.072	0.047
-347.450	800.000	-0.052	0.148
-346.435	-103.129	0.131	-0.031
-345.420	-200.000	-0.013	0.225
-344.406	800.000	0.057	-0.242
-343.391	-60.331	0.214	0.090
-342.377	-75.775	-0.267	-0.093
-341.362	-32.822	0.078	-0.043
-340.348	-200.000	0.002	-0.184
-339.333	78.074	0.209	0.221
-338.318	-167.549	-0.264	-0.010
-337.304	-70.281	0.083	-0.031
-336.289	-200.000	-0.002	-0.153
-335.275	185.004	0.146	-0.214
-334.260	-200.000	-0.006	-0.187
-333.245	258.699	-0.090	0.152
-332.231	684.518	-0.100	0.259
-331.216	800.000	-0.046	0.126
-330.202	-80.121	0.048	-0.016
-329.187	-90.132	-0.118	0.034
-328.172	-55.606	-0.110	0.048
-327.158	-28.032	-0.284	0.162
-326.143	167.007	0.250	0.351
-325.129	-8.039	-0.272	0.181
-324.114	-200.000	0.022	0.195
-323.099	-77.646	-0.170	-0.058
-322.085	800.000	-0.030	-0.087
-321.070	-200.000	0.004	-0.468
-320.056	-200.000	0.045	-0.338
-319.041	39.823	0.170	-0.151
-318.026	157.647	0.171	0.233
-317.012	800.000	0.079	0.279
-315.997	-160.391	-0.109	-0.006
-314.983	30.913	-0.116	0.098
-313.968	40.439	0.302	0.268
-312.953	-95.648	0.269	0.071
-311.939	-41.001	0.252	0.129
-310.924	300.513	0.100	-0.183
-309.910	-200.000	-0.011	0.130
-308.895	73.541	0.294	0.304
-307.880	-68.701	0.389	-0.149
-306.866	523.460	0.074	-0.171
-305.851	-66.092	-0.548	0.216
-304.837	800.000	0.068	0.252
-303.822	288.512	0.091	0.162
-302.807	460.693	-0.012	0.025
-301.793	579.031	-0.066	0.159
-300.778	-200.000	-0.012	0.323
-299.764	39.952	0.079	-0.070
-298.749	-5.931	0.119	-0.081
-297.735	96.937	0.147	-0.166
-296.720	-113.349	-0.318	-0.061
-295.705	-130.242	0.106	0.014
-294.691	-68.450	0.322	-0.123
-293.676	53.598	-0.092	0.088
-292.662	82.372	0.119	0.127
-291.647	-98.145	-0.105	0.027
-290.632	-200.000	-0.043	-0.246
-289.618	-200.000	-0.014	-0.288
-288.603	-12.654	0.170	0.110
-287.589	332.236	-0.081	-0.153
-286.574	136.777	0.127	-0.164
-285.559	342.141	0.121	-0.232
-284.545	-200.000	0.000	-0.174
-283.530	800.000	-0.070	-0.195
-282.516	-200.000	-0.005	-0.078
-281.501	-92.464	0.452	-0.125
-280.486	365.355	0.045	0.090
-279.472	800.000	0.057	0.225
-278.457	0.287	-0.126	-0.089
-277.443	-41.642	-0.433	-0.219
-276.428	102.004	0.314	0.361
-275.413	-200.000	-0.052	0.287
-274.399	-94.836	0.224	0.060
-273.384	169.836	0.042	-0.059
-272.370	-98.956	-0.341	-0.085
-271.355	345.264	-0.123	-0.237
-270.340	800.000	-0.053	-0.201
-269.326	-136.530	-0.395	0.045
-268.311	477.686	-0.127	-0.284
-267.297	-3.677	0.293	-0.201
-266.282	334.742	-0.088	0.168
-265.267	294.296	0.072	0.130
-264.253	172.051	0.186	-0.264
-263.238	-82.747	-0.587	-0.187
-262.224	361.311	0.037	-0.072
-261.209	-139.240	0.281	-0.030
-260.195	-200.000	0.065	-0.370
-259.180	800.000	0.058	0.164
-258.165	-104.696	-0.287	-0.065
-257.151	-112.973	0.182	-0.035
-256.136	-200.000	0.008	0.349
-255.122	56.083	-0.128	-0.123
-254.107	415.269	0.045	0.094
-253.092	-200.000	-0.039	0.208
-252.078	-149.872	0.155	-0.012
-251.063	204.209	-0.024	-0.037
-250.049	-26.445	0.122	-0.070
-249.034	37.833	-0.076	0.067
-248.019	-200.000	-0.012	0.205
-247.005	-35.620	0.228	-0.122
-245.990	800.000	-0.060	-0.180
-244.976	800.000	-0.053	-0.159
-243.961	800.000	-0.049	-0.163
-242.946	-72.244	0.024	0.009
-241.932	-200.000	-0.005	-0.061
-240.917	37.504	-0.101	0.088
-239.903	-11.828	0.126	0.081
-238.888	61.553	-0.053	0.052
-237.873	152.260	0.236	-0.317
-236.859	748.136	0.043	0.114
-235.844	800.000	0.032	-0.129
-234.830	-22.242	-0.136	0.081
-233.815	164.985	0.059	0.082
-232.800	-200.000	-0.049	0.317
-231.786	-200.000	-0.061	0.294
-230.771	-133.113	0.325	0.040
-229.757	-38.207	-0.164	-0.086
-228.742	270.279	-0.128	-0.221
-227.727	351.710	0.198	-0.385
-226.713	19.339	-0.252	-0.199
-225.698	421.682	0.052	0.110
-224.684	-200.000	0.011	-0.070
-223.669	-80.726	0.191	-0.063
-222.655	24.838	-0.456	-0.372
-221.640	-200.000	0.087	0.418
-220.625	800.000	-0.068	0.191
-219.611	20.672	0.211	-0.168
-218.596	113.790	0.079	-0.094
-217.582	-24.559	-0.087	-0.051
-216.567	503.649	0.071	0.162
-215.552	251.801	-0.095	-0.160
-214.538	576.230	0.153	-0.368
-213.523	-200.000	0.019	0.095
-212.509	-15.399	0.207	0.130
-211.494	-130.994	0.160	0.021
-210.479	426.151	0.078	0.166
-209.465	-200.000	-0.061	0.328
-208.450	-157.709	0.167	0.010
-207.436	-130.683	0.423	-0.056
-206.421	44.098	0.284	-0.256
-205.406	270.567	-0.127	0.220
-204.392	27.627	0.189	-0.157
-203.377	743.896	0.094	0.248
-202.363	379.875	0.019	-0.039
-201.348	-200.000	-0.014	0.159
-200.333	-168.768	0.052	-0.002
-199.319	-147.162	-0.095	0.008
-198.304	-200.000	0.003	0.094
-197.290	-30.490	-0.176	0.098
-196.275	800.000	-0.081	0.283
-195.260	-200.000	-0.007	-0.148
-194.246	-126.554	0.244	-0.036
-193.231	-175.679	0.159	0.004
-192.217	-200.000	-0.010	-0.056
-191.202	-200.000	0.012	0.391
-190.187	-21.933	-0.165	0.098
-189.173	-102.279	-0.315	-0.074
-188.158	-200.000	-0.004	0.024
-187.144	800.000	-0.014	-0.048
-186.129	272.328	0.072	0.125
-185.114	117.344	0.098	0.118
-184.100	-92.384	0.021	0.006
-183.085	-74.677	-0.200	0.071
-182.071	166.328	0.346	0.481
-181.056	55.437	0.203	0.192
-180.042	800.000	-0.027	-0.087
-179.027	-16.360	-0.073	-0.045
-178.012	631.582	-0.066	0.165
-176.998	-43.134	0.123	-0.061
-175.983	327.171	-0.193	-0.363
-174.969	426.282	-0.049	-0.104
-173.954	60.462	-0.091	-0.088
-172.939	261.043	-0.230	-0.391
-171.925	-36.456	0.170	0.090
-170.910	-17.045	0.208	-0.129
-169.896	-27.381	0.348	0.199
-168.881	-73.509	0.294	-0.105
-167.866	-106.260	-0.145	0.032
-166.852	553.970	0.152	0.358
-165.837	106.080	0.209	-0.242
-164.823	-96.406	-0.053	-0.014
-163.808	671.504	-0.180	0.458
-162.793	87.382	0.212	0.230
-161.779	-53.502	-0.061	-0.027
-160.764	-135.924	0.378	-0.044
-159.750	-50.618	0.230	0.106
-158.735	-200.000	0.007	0.130
-157.720	359.106	-0.059	-0.115
-156.706	546.498	-0.088	0.207
-155.691	62.079	0.134	0.131
-154.677	-46.028	0.106	0.051
-153.662	-64.521	0.261	-0.104
-152.647	-200.000	0.017	-0.113
-151.633	191.727	-0.129	-0.191
-150.618	800.000	-0.066	-0.189
-149.604	227.714	-0.078	-0.124
-148.589	-200.000	-0.026	0.138
-147.574	-83.763	0.063	-0.020
-146.560	247.045	0.139	-0.229
-145.545	321.169	-0.122	0.227
-144.531	-99.546	0.245	0.060
-143.516	-21.669	-0.340	0.203
-142.502	800.000	0.058	-0.180
-141.487	-200.000	-0.008	0.060
-140.472	-200.000	0.060	0.346
-139.458	-39.224	-0.179	-0.092
-138.443	-105.478	-0.288	-0.064
-137.429	102.296	0.099	-0.114
-136.414	-107.242	-0.128	0.028
-135.399	-45.968	0.084	0.041
-134.385	-81.810	-0.064	-0.021
-133.370	-74.461	0.209	-0.074
-132.356	-147.509	0.238	-0.020
-131.341	-155.679	-0.203	-0.013
-130.326	800.000	0.040	-0.137
-129.312	163.854	-0.114	0.158
-128.297	-196.252	0.273	0.002
-127.283	-67.183	0.474	-0.183
-126.268	-128.388	-0.437	-0.061
-125.253	36.091	0.255	0.220
-124.239	-20.376	0.322	0.194
-123.224	-200.000	-0.022	0.124
-122.210	13.461	0.246	-0.187
-121.195	-72.721	0.191	-0.069
-120.180	800.000	0.082	-0.279
-119.166	-111.089	0.212	-0.043
-118.151	-97.733	-0.222	0.056
-117.137	-200.000	-0.025	-0.187
-116.122	-152.322	-0.144	-0.010
-115.107	-25.396	-0.046	-0.027
-114.093	-10.944	-0.203	-0.131
-113.078	-129.599	-0.124	0.017
-112.064	-200.000	-0.040	0.362
-111.049	-8.014	-0.298	0.197
-110.034	-36.188	0.273	-0.144
-109.020	-15.169	-0.248	0.155
-108.005	-41.865	-0.205	0.103
-106.991	-73.323	-0.128	-0.046
-105.976	312.157	-0.118	-0.217
-104.962	602.198	-0.065	0.159
-103.947	123.316	0.071	0.087
-102.932	800.000	-0.090	-0.383
-101.918	-89.529	0.178	0.051
-100.903	-93.576	-0.309	0.084
-99.889	-200.000	0.002	0.061
-98.874	148.059	-0.085	0.113
-97.859	-149.881	0.042	-0.003
-96.845	482.001	-0.051	0.113
-95.830	-84.536	-0.355	0.110
-94.816	22.060	0.148	0.119
-93.801	5.586	0.108	-0.078
-92.786	-200.000	0.008	0.107
-91.772	47.248	0.045	-0.041
-90.757	-44.421	0.071	0.035
-89.743	186.499	-0.203	0.296
-88.728	324.989	0.104	-0.194
-87.713	-146.200	-0.032	0.003
-86.699	-1.277	0.305	0.211
-85.684	-20.077	0.214	-0.129
-84.670	-33.106	-0.195	0.106
-83.655	-200.000	0.001	-0.239
-82.640	-126.531	-0.444	-0.065
-81.626	-142.034	-0.135	0.013
-80.611	196.605	-0.110	-0.164
-79.597	59.277	-0.173	-0.166
-78.582	83.139	-0.181	0.193
-77.567	148.316	0.362	0.478
-76.553	210.906	0.198	0.304
-75.538	800.000	-0.040	0.163
-74.524	-147.388	0.081	-0.007
-73.509	-76.381	-0.259	-0.089
-72.494	-95.451	0.258	-0.068
-71.480	-200.000	-0.045	-0.418
-70.465	-128.194	-0.227	0.032
-69.451	307.828	0.104	-0.190
-68.436	166.977	-0.057	-0.079
-67.422	-156.353	0.297	0.018
-66.407	-142.174	0.340	0.033
-65.392	-132.110	0.086	0.011
-64.378	770.438	-0.085	-0.228
-63.363	82.006	0.096	0.101
-62.349	-134.153	0.095	0.011
-61.334	85.993	-1.188	-1.278
-60.319	513.455	0.288	0.657
-59.305	800.000	-0.412	-1.194
-58.290	472.013	0.475	1.045
-57.276	-200.000	0.427	1.878
-56.261	-200.000	116.163	659.499
-55.246	529.086	1533.527	3536.628
-54.232	176.274	2707.730	3842.397
-53.217	108.052	2182.854	2542.072
-52.203	37.814	1701.839	1476.972
-51.188	29.950	1518.567	1264.415
-50.173	27.796	1493.168	1228.739
-49.159	52.214	1552.999	1446.258
-48.144	50.231	1567.833	1446.422
-47.130	30.245	1523.195	1270.088
-46.115	27.167	1508.046	1236.505
-45.100	27.078	1504.128	1232.637
-44.086	27.027	1502.636	1231.024
-43.071	26.882	1500.357	1228.121
-42.057	26.873	1499.069	1226.960
-41.042	26.871	1498.126	1226.128
-40.027	26.920	1496.126	1224.770
-39.013	26.899	1494.815	1223.505
-37.998	26.883	1493.982	1222.671
-36.984	26.925	1492.152	1221.405
-35.969	26.883	1491.112	1220.222
-34.954	26.876	1489.519	1218.827
-33.940	26.988	1488.256	1218.493
-32.925	26.902	1486.998	1216.841
-31.911	26.937	1485.874	1216.105
-30.896	27.002	1484.426	1215.311
-29.881	26.956	1482.980	1213.767
-28.867	26.969	1482.000	1213.005
-27.852	26.899	1481.279	1211.902
-26.838	27.006	1479.358	1210.992
-25.823	27.016	1477.793	1209.731
-24.809	27.015	1475.825	1208.068
-23.794	26.992	1474.294	1206.611
-22.779	26.922	1473.315	1205.296
-21.765	27.059	1472.336	1205.355
-20.750	27.003	1471.028	1203.865
-19.736	26.983	1469.968	1202.823
-18.721	27.025	1468.896	1202.172
-17.706	27.024	1467.423	1200.912
-16.692	27.036	1466.765	1200.405
-15.677	26.945	1466.096	1199.207
-14.663	26.916	1464.852	1197.951
-13.648	26.814	1464.239	1196.729
-12.633	26.886	1463.114	1196.237
-11.619	26.893	1462.431	1195.678
-10.604	26.906	1461.279	1194.774
-9.590	26.908	1460.535	1194.135
-8.575	26.899	1459.481	1193.167
-7.560	26.999	1458.524	1192.993
-6.546	26.869	1457.828	1191.524
-5.531	26.863	1457.125	1190.860
-4.517	26.947	1455.854	1190.329
-3.502	26.962	1455.145	1189.797
-2.487	26.949	1454.132	1188.838
-1.473	26.909	1453.137	1187.712
-0.458	26.936	1451.311	1186.354
0.556	27.192	1441.906	1175.655
1.571	24.222	1416.555	1135.979
2.586	20.732	1355.861	1065.881
3.600	19.036	1273.079	990.954
4.615	17.725	1228.138	948.599
5.629	15.345	1171.282	891.959
6.644	8.808	1090.422	797.852
7.659	4.033	1053.728	747.913
8.673	3.401	1048.406	741.032
9.688	3.380	1045.457	738.782
10.702	3.368	1043.933	737.581
11.717	3.480	1041.578	736.388
12.731	5.151	1042.637	745.049
13.746	11.637	1051.361	782.354
14.761	17.878	1059.380	818.261
15.775	19.505	1060.704	827.011
16.790	19.099	1059.773	824.272
17.804	18.090	1057.434	817.556
18.819	17.342	1055.433	812.365
19.834	16.812	1054.654	809.163
20.848	16.631	1053.639	807.449
21.863	16.508	1052.920	806.238
22.877	16.185	1052.072	803.979
23.892	16.202	1051.276	803.383
24.907	15.953	1050.646	801.643
25.921	16.005	1049.531	800.967
26.936	15.980	1049.140	800.479
27.950	16.106	1047.961	800.107
28.965	16.181	1046.590	799.347
29.980	16.257	1045.688	798.949
30.994	16.209	1044.670	797.870
32.009	16.360	1043.871	797.905
33.023	16.337	1043.569	797.491
34.038	16.506	1041.957	796.988
35.053	16.520	1040.969	796.228
36.067	16.258	1040.461	794.537
37.082	16.186	1039.530	793.416
38.096	16.130	1038.876	792.584
39.111	16.327	1038.356	793.041
40.126	16.386	1037.293	792.435
41.140	16.255	1036.243	790.951
42.155	16.061	1034.744	788.830
43.169	15.939	1033.991	787.612
44.184	15.989	1032.405	786.568
45.199	15.884	1031.536	785.349
46.213	15.879	1030.899	784.772
47.228	15.977	1030.058	784.517
48.242	16.032	1028.925	783.842
49.257	16.268	1027.713	783.943
50.271	16.189	1027.245	783.151
51.286	16.170	1026.347	782.307
52.301	16.238	1025.450	781.873
53.315	16.291	1024.736	781.501
54.330	16.121	1023.912	780.021
55.344	16.134	1022.749	779.123
56.359	15.902	1022.037	777.441
57.374	15.987	1021.325	777.223
58.388	15.881	1020.769	776.241
59.403	16.031	1019.480	775.886
60.417	15.898	1018.669	774.586
61.432	15.854	1017.953	773.773
62.447	15.905	1017.404	773.523
63.461	15.785	1016.558	772.258
64.476	15.782	1015.354	771.262
65.490	15.769	1014.563	770.532
66.505	15.750	1013.919	769.890
67.520	15.760	1013.298	769.394
68.534	15.782	1012.341	768.701
69.549	15.847	1011.241	768.092
70.563	15.775	1010.900	767.437
71.578	15.686	1010.512	766.671
72.593	15.707	1009.225	765.722
73.607	15.601	1008.010	764.249
74.622	15.558	1007.108	763.304
75.636	15.741	1005.908	763.156
76.651	15.782	1005.180	762.722
77.666	15.810	1004.687	762.409
78.680	15.648	1004.399	761.389
79.695	15.659	1003.752	760.879
80.709	15.692	1003.385	760.685
81.724	15.735	1002.458	760.110
82.739	15.779	1001.784	759.730
83.753	15.938	1000.982	759.771
84.768	16.028	1000.142	759.472
85.782	16.289	999.679	760.226
86.797	16.338	998.904	759.794
87.812	16.383	997.759	759.056
88.826	16.176	997.143	757.591
89.841	16.279	996.010	757.123
90.855	16.329	995.376	756.800
91.870	16.325	994.721	756.214
92.884	16.471	994.021	756.270
93.899	16.455	993.442	755.694
94.914	16.397	992.901	754.955
95.928	16.277	992.336	753.924
96.943	16.521	991.268	754.134
97.957	16.456	990.147	752.922
98.972	16.387	989.433	752.006
99.987	16.306	988.906	751.181
101.001	16.430	987.994	750.970
102.016	16.320	987.096	749.733
103.030	16.360	986.051	749.051
104.045	16.365	984.822	748.072
105.060	16.236	984.471	747.172
106.074	16.192	983.619	746.261
107.089	16.003	982.640	744.620
108.103	15.970	981.161	743.284
109.118	15.801	980.278	741.804
110.133	15.813	979.750	741.394
111.147	15.940	978.339	740.821
112.162	15.896	978.023	740.321
113.176	16.040	976.872	740.015
114.191	15.937	976.249	739.025
115.206	16.015	975.783	738.953
116.220	16.009	974.702	738.041
117.235	16.032	974.024	737.564
118.249	15.932	973.418	736.600
119.264	15.839	972.657	735.552
120.279	15.873	971.653	734.879
121.293	15.843	970.619	733.901
122.308	15.795	970.060	733.204
123.322	15.830	969.008	732.497
124.337	15.744	967.812	731.154
125.352	15.711	966.556	729.998
126.366	15.729	965.128	728.930
127.381	15.705	964.596	728.359
128.395	15.673	963.372	727.232
129.410	15.855	962.449	727.259
130.424	15.732	962.147	726.434
131.439	15.870	961.090	726.170
132.454	15.997	960.053	725.870
133.468	15.885	959.662	725.028
134.483	15.965	959.030	724.827
135.497	16.046	957.750	724.147
136.512	15.921	957.222	723.145
137.527	15.982	956.500	722.796
138.541	15.926	955.816	721.977
139.556	16.028	955.070	721.785
140.570	16.028	954.311	721.150
141.585	16.057	954.171	721.103
142.600	16.301	953.149	721.308
143.614	16.295	952.544	720.760
144.629	16.306	952.314	720.572
145.643	16.394	951.124	719.981
146.658	16.452	950.277	719.522
147.673	16.221	949.454	717.853
148.687	16.260	947.968	716.832
149.702	16.254	947.239	716.193
150.716	16.055	946.570	714.780
151.731	16.223	945.015	714.256
152.746	16.197	944.826	713.938
153.760	16.235	943.858	713.304
154.775	16.172	943.550	712.740
155.789	16.269	942.929	712.618
156.804	16.294	942.254	712.150
157.819	16.175	941.118	710.727
158.833	16.294	940.611	710.784
159.848	16.369	940.205	710.730
160.862	16.422	939.752	710.545
161.877	16.389	938.783	709.612
162.892	16.259	937.530	708.058
163.906	16.283	936.617	707.405
164.921	16.108	936.289	706.364
165.935	16.086	934.601	704.935
166.950	16.299	933.814	705.169
167.964	16.252	932.839	704.175
168.979	16.250	932.291	703.691
169.994	16.213	930.903	702.427
171.008	16.189	930.114	701.668
172.023	16.214	929.767	701.449
173.037	16.347	928.834	701.235
174.052	16.470	928.143	701.159
175.067	16.477	927.452	700.608
176.081	16.431	926.361	699.529
177.096	16.108	925.499	697.483
178.110	16.122	924.687	696.867
179.125	16.181	923.979	696.514
180.140	16.224	923.231	696.066
181.154	16.275	922.337	695.540
182.169	16.387	921.838	695.564
183.183	16.541	921.288	695.720
184.198	16.626	920.836	695.668
185.213	16.510	920.361	694.769
186.227	16.611	919.292	694.317
187.242	16.509	919.151	693.731
188.256	16.612	918.481	693.584
189.271	16.653	918.023	693.345
190.286	16.816	917.183	693.315
191.300	16.558	916.397	691.606
192.315	16.272	915.392	689.618
193.329	16.150	914.526	688.407
194.344	16.094	913.768	687.547
195.359	16.262	913.303	687.823
196.373	16.472	912.789	688.229
197.388	16.484	912.396	687.921
198.402	16.464	912.511	687.866
199.417	16.670	911.929	688.200
200.432	16.743	911.533	688.139
201.446	16.969	910.918	688.532
202.461	17.025	910.675	688.514
203.475	16.971	909.965	687.697
204.490	17.073	909.087	687.385
205.504	16.948	907.963	685.968
206.519	16.741	907.132	684.443
207.534	16.556	906.695	683.307
208.548	16.743	905.766	683.303
209.563	16.642	905.339	682.513
210.577	16.677	904.639	682.064
211.592	16.797	903.759	681.824
212.607	16.952	903.256	682.006
213.621	16.948	903.337	681.992
214.636	16.900	902.400	681.032
215.650	16.907	901.626	680.415
216.665	16.894	901.494	680.202
217.680	16.840	901.040	679.583
218.694	17.104	900.299	680.024
219.709	17.014	899.972	679.354
220.723	17.051	899.115	678.797
221.738	17.041	898.073	677.908
222.753	17.171	897.559	677.981
223.767	17.068	896.944	677.044
224.782	17.145	896.091	676.648
225.796	17.214	895.614	676.503
226.811	17.225	895.047	676.058
227.826	17.198	894.145	675.212
228.840	17.044	893.450	674.013
229.855	17.195	892.306	673.688
230.869	16.915	891.991	672.283
231.884	17.106	891.434	672.559
232.899	17.060	890.832	671.863
233.913	17.004	890.088	671.020
234.928	16.807	889.898	670.041
235.942	16.978	888.626	669.699
236.957	16.921	887.919	668.883
237.972	16.982	887.250	668.557
238.986	16.875	886.976	667.870
240.001	16.932	886.204	667.456
241.015	16.917	885.423	666.751
242.030	17.035	884.498	666.458
243.045	17.118	884.130	666.447
244.059	17.082	883.704	665.924
245.074	17.091	883.121	665.463
246.088	17.174	882.457	665.228
247.103	17.119	882.291	664.829
248.117	17.286	881.674	664.958
249.132	17.515	880.806	665.141
250.147	17.540	880.482	664.935
251.161	17.803	879.555	665.200
252.176	17.735	879.273	664.665
253.190	17.605	878.987	663.883
254.205	17.920	878.086	664.367
255.220	17.878	877.354	663.594
256.234	17.896	876.542	662.989
257.249	17.729	876.620	662.339
258.263	17.780	876.027	662.033
259.278	17.783	875.074	661.267
260.293	17.856	874.668	661.181
261.307	17.790	874.429	660.688
262.322	17.922	873.450	660.402
263.336	17.983	873.022	660.256
264.351	18.021	872.300	659.796
265.366	17.953	871.943	659.204
266.380	18.046	871.336	659.049
267.395	17.884	870.749	657.920
268.409	17.903	869.742	657.173
269.424	17.955	868.307	656.233
270.439	17.981	867.836	655.917
271.453	17.917	867.110	655.065
272.468	17.870	866.337	654.242
273.482	17.768	865.856	653.434
274.497	17.836	865.342	653.246
275.512	17.805	864.455	652.402
276.526	17.822	863.691	651.831
277.541	17.874	863.477	651.811
278.555	17.909	862.890	651.442
279.570	17.956	862.353	651.161
280.585	18.029	862.234	651.288
281.599	18.151	861.401	651.068
282.614	18.059	860.385	649.891
283.628	17.980	859.690	649.012
284.643	17.978	859.469	648.777
285.657	17.924	858.829	648.031
286.672	17.995	858.606	648.075
287.687	17.969	857.937	647.416
288.701	18.038	857.491	647.282
289.716	17.971	856.999	646.602
290.730	18.086	856.347	646.487
291.745	18.168	855.417	646.036
292.760	18.058	854.857	645.142
293.774	18.127	854.189	644.842
294.789	18.269	853.928	645.120
295.803	18.376	852.710	644.548
296.818	18.151	852.250	643.295
297.833	18.173	851.568	642.807
298.847	18.064	851.413	642.223
299.862	18.096	850.653	641.716
300.876	18.228	850.149	641.774
301.891	18.246	849.432	641.240
302.906	18.184	848.953	640.589
303.920	18.433	848.049	640.783
304.935	18.471	847.579	640.514
305.949	18.708	847.193	641.050
306.964	18.563	846.255	639.744
307.979	18.327	845.937	638.567
308.993	18.397	845.677	638.575
310.008	18.514	844.789	638.283
311.022	18.573	844.290	638.069
312.037	18.491	843.522	637.126
313.052	18.373	843.352	636.504
314.066	18.367	842.812	636.017
315.081	18.219	841.460	634.391
316.095	18.230	841.236	634.209
317.110	18.267	840.754	633.926
318.125	18.180	840.321	633.222
319.139	18.452	839.525	633.571
320.154	18.354	839.305	632.987
321.168	18.303	838.649	632.250
322.183	18.395	837.987	632.030
323.197	18.430	837.715	631.902
324.212	18.489	836.881	631.432
325.227	18.489	836.583	631.152
326.241	18.357	836.278	630.382
327.256	18.411	835.578	629.994
328.270	18.524	834.712	629.701
329.285	18.427	834.390	629.048
330.300	18.349	834.035	628.436
331.314	18.381	833.384	628.007
332.329	18.380	832.657	627.402
333.343	18.690	831.824	627.854
334.358	18.565	831.871	627.373
335.373	18.679	830.598	626.776
336.387	18.678	830.447	626.604
337.402	18.649	830.328	626.352
338.416	18.798	829.531	626.237
339.431	18.842	829.082	626.004
340.446	18.920	828.628	625.889
341.460	18.912	828.016	625.345
342.475	19.030	827.471	625.304
343.489	19.160	826.934	625.315
344.504	19.107	826.336	624.617
345.519	19.039	825.755	623.876
346.533	19.177	825.397	624.050
347.548	19.102	825.078	623.482
348.562	18.931	824.535	622.398
349.577	18.999	823.801	622.036
350.592	18.789	823.069	620.668
351.606	18.757	822.742	620.250
352.621	18.907	822.030	620.202
353.635	18.898	821.753	619.904
354.650	18.825	821.485	619.385
355.665	18.973	820.987	619.486
356.679	18.928	820.579	618.962
357.694	19.064	820.084	619.023
358.708	18.941	819.548	618.121
359.723	18.927	818.509	617.233
360.738	19.057	818.187	617.402
361.752	18.877	817.995	616.555
362.767	18.982	817.698	616.655
363.781	19.236	816.974	616.964
364.796	19.289	817.059	617.162
365.810	19.351	816.574	616.965
366.825	19.419	816.119	616.808
367.840	19.599	815.660	617.050
368.854	19.445	815.331	616.197
369.869	19.349	815.006	615.553
370.883	19.311	814.060	614.648
371.898	19.403	813.222	614.289
372.913	19.355	812.906	613.826
373.927	19.408	812.471	613.632
374.942	19.419	811.652	612.999
375.956	19.458	811.022	612.605
376.971	19.351	810.749	611.968
377.986	19.637	810.028	612.383
379.000	19.572	809.790	611.919
380.015	19.681	809.210	611.813
381.029	19.592	808.780	611.118
382.044	19.605	808.039	610.549
383.059	19.547	807.233	609.683
384.073	19.737	806.882	610.032
385.088	19.561	806.306	608.921
386.102	19.662	805.689	608.760
387.117	19.390	805.391	607.522
388.132	19.297	804.905	606.776
389.146	19.475	804.244	606.847
390.161	19.259	804.404	606.155
391.175	19.650	803.286	606.631
392.190	19.755	803.488	607.099
393.205	19.508	802.756	605.625
394.219	19.559	802.331	605.433
395.234	19.503	801.725	604.724
396.248	19.729	800.773	604.743
397.263	19.516	800.370	603.641
398.278	19.392	800.231	603.050
399.292	19.419	799.650	602.652
400.307	19.459	798.927	602.195
401.321	19.442	798.359	601.654
402.336	19.380	798.576	601.547
403.350	19.507	798.178	601.635
404.365	19.644	797.664	601.674
405.380	19.647	797.329	601.378
406.394	19.766	796.773	601.319
407.409	19.957	796.837	601.979
408.423	19.913	796.212	601.299
409.438	19.877	795.849	600.848
410.453	19.979	795.329	600.757
411.467	19.917	795.186	600.380
412.482	19.939	794.514	599.894
413.496	20.085	794.062	600.004
414.511	20.176	793.457	599.810
415.526	20.078	793.622	599.544
416.540	20.155	792.800	599.134
417.555	20.051	792.592	598.565
418.569	20.158	791.953	598.399
419.584	19.931	791.757	597.414
420.599	20.042	790.932	597.122
421.613	161.553	1371.617	1796.373
422.628	139.946	1456.208	1796.467
