DTS Sentinel unit serial number:	SN413079Multiplexer serial number:	ORYXHardware model number:	OX4-SRSoftware version number:	ORYX F/W v4.00 Oryx Data Collector v3.7.2.0data status	okinstallation	princeton_trtdifferential loss correction	single-endedforward channel	channel 3reverse channel	N/Adate	2019/09/10time	23:26:11forward acquisition time	60.00reverse acquisition time	0.00gamma	496.2192k internal	0.2331k external	0.2331temperature offset calibration	0.9917default loss term (dB/km)	0.3790temperature slope calibration	1.0000multiplexer offset coefficient	1.0000multiplexer slope coefficient	1.0000fibre end	0.00T internal ref (°C)	29.75T ext. ref 1 (°C)	-0.32T ext. ref 2 (°C)	23.11length (m)	temperature (°C)	Stokes	anti-Stokes-747.200	130.055	-0.083	0.107
-746.185	197.861	0.151	0.232
-745.171	-200.000	-0.005	0.045
-744.156	175.557	0.271	-0.396
-743.142	-79.166	0.081	-0.028
-742.127	26.070	-0.354	0.297
-741.112	37.509	-0.072	0.064
-740.098	-90.400	-0.387	-0.113
-739.083	-200.000	-0.024	-0.214
-738.069	-42.633	-0.158	0.081
-737.054	-71.663	0.158	-0.059
-736.039	-122.633	-0.190	-0.031
-735.025	-200.000	0.049	-0.231
-734.010	-96.580	-0.164	0.044
-732.996	-7.215	-0.307	-0.210
-731.981	190.596	0.080	-0.120
-730.966	-28.355	0.325	-0.189
-729.952	-200.000	0.046	-0.434
-728.937	-88.265	-0.271	-0.082
-727.923	86.504	-0.045	-0.050
-726.908	432.067	0.105	-0.228
-725.894	-12.217	-0.328	-0.216
-724.879	-85.793	-0.360	-0.112
-723.864	696.306	0.051	-0.135
-722.850	109.783	0.127	-0.153
-721.835	440.458	0.076	-0.168
-720.821	-200.000	-0.029	0.134
-719.806	286.723	-0.077	0.140
-718.791	-76.519	0.207	-0.073
-717.777	800.000	-0.061	-0.228
-716.762	-200.000	-0.034	0.209
-715.748	284.281	-0.057	0.103
-714.733	-101.015	0.172	0.042
-713.718	-200.000	-0.038	-0.301
-712.704	-200.000	0.012	-0.237
-711.689	-65.133	0.248	0.101
-710.675	759.866	-0.106	-0.289
-709.660	800.000	0.027	-0.089
-708.645	-56.364	-0.252	-0.113
-707.631	-7.514	-0.217	-0.147
-706.616	103.912	-0.134	-0.159
-705.602	356.266	0.099	-0.198
-704.587	800.000	0.069	-0.280
-703.572	-200.000	-0.002	-0.232
-702.558	-154.661	0.175	-0.012
-701.543	-200.000	0.056	0.391
-700.529	-110.100	0.291	-0.061
-699.514	35.319	0.199	0.176
-698.499	65.395	0.143	0.145
-697.485	-200.000	-0.006	0.077
-696.470	-146.835	-0.409	-0.035
-695.456	-98.873	-0.277	-0.071
-694.441	-200.000	0.006	0.136
-693.426	-24.104	-0.217	-0.130
-692.412	150.638	-0.033	-0.045
-691.397	-39.746	-0.195	0.102
-690.383	-200.000	-0.041	-0.224
-689.368	-200.000	-0.035	0.172
-688.354	800.000	0.078	0.221
-687.339	-43.080	0.239	0.121
-686.324	800.000	0.087	-0.294
-685.310	66.835	-0.136	-0.139
-684.295	-78.121	-0.169	-0.058
-683.281	-31.515	0.197	0.111
-682.266	-18.433	-0.132	-0.083
-681.251	500.209	0.058	0.134
-680.237	68.334	-0.077	-0.079
-679.222	520.468	0.053	-0.126
-678.208	800.000	0.021	-0.093
-677.193	-112.643	-0.226	-0.045
-676.178	-63.088	0.203	0.084
-675.164	-81.075	-0.139	-0.046
-674.149	-47.508	-0.062	-0.030
-673.135	-17.614	-0.330	-0.208
-672.120	595.418	-0.117	0.292
-671.105	144.753	-0.154	0.206
-670.091	-49.711	-0.294	-0.140
-669.076	-18.562	-0.161	-0.101
-668.062	-200.000	-0.018	-0.236
-667.047	326.666	0.072	-0.139
-666.032	-89.319	-0.178	0.053
-665.018	221.911	0.192	-0.310
-664.003	553.431	0.040	0.096
-662.989	-124.526	-0.366	-0.057
-661.974	121.409	0.133	-0.166
-660.959	-37.965	-0.218	0.116
-659.945	30.500	-0.196	0.168
-658.930	-200.000	0.036	-0.216
-657.916	166.397	-0.269	-0.383
-656.901	-35.912	-0.174	-0.095
-655.886	166.092	-0.080	0.113
-654.872	800.000	-0.080	0.239
-653.857	-200.000	0.034	0.274
-652.843	155.452	0.132	-0.182
-651.828	-200.000	-0.022	0.135
-650.814	112.339	-0.159	-0.193
-649.799	97.505	0.155	-0.178
-648.784	-19.007	0.249	0.155
-647.770	125.395	-0.083	-0.105
-646.755	-74.426	-0.102	-0.037
-645.741	285.964	0.089	-0.162
-644.726	22.200	0.252	-0.206
-643.711	800.000	0.068	0.252
-642.697	-100.393	-0.302	-0.075
-641.682	-59.803	0.090	0.039
-640.668	-64.997	0.213	-0.086
-639.653	-56.529	0.210	0.093
-638.638	45.367	-0.311	-0.288
-637.624	-163.611	0.195	0.009
-636.609	-145.145	-0.316	-0.029
-635.595	800.000	-0.051	0.204
-634.580	-122.483	-0.068	-0.011
-633.565	800.000	0.116	0.452
-632.551	-131.344	0.067	0.009
-631.536	-87.661	-0.135	-0.041
-630.522	197.752	0.089	-0.136
-629.507	-200.000	-0.019	0.169
-628.492	288.565	0.037	-0.068
-627.478	120.154	-0.211	-0.262
-626.463	-155.347	0.345	-0.022
-625.449	278.569	0.113	-0.202
-624.434	-113.909	0.153	0.030
-623.419	-135.124	0.220	0.027
-622.405	383.872	-0.090	-0.185
-621.390	-175.431	-0.249	-0.007
-620.376	-139.795	-0.115	-0.012
-619.361	-200.000	-0.023	0.161
-618.346	7.339	0.244	0.183
-617.332	-200.000	0.012	0.088
-616.317	479.865	-0.108	0.246
-615.303	-141.765	-0.074	0.007
-614.288	-200.000	-0.001	0.034
-613.273	800.000	0.065	0.277
-612.259	-117.877	0.384	-0.069
-611.244	272.653	0.094	-0.166
-610.230	180.182	-0.047	0.069
-609.215	11.446	0.129	-0.099
-608.201	-98.504	-0.192	0.049
-607.186	-41.183	0.130	0.067
-606.171	67.242	-0.187	-0.191
-605.157	800.000	0.051	0.208
-604.142	496.998	-0.099	0.227
-603.128	-61.402	0.224	0.095
-602.113	-77.564	0.205	0.071
-601.098	201.772	0.120	-0.186
-600.084	434.881	0.053	0.116
-599.069	-200.000	0.016	-0.312
-598.055	-115.634	0.523	0.098
-597.040	-200.000	0.064	-0.295
-596.025	58.311	-0.123	-0.121
-595.011	11.324	-0.056	0.043
-593.996	192.389	-0.272	-0.411
-592.982	-144.536	0.399	0.037
-591.967	401.207	0.143	0.301
-590.952	30.382	0.285	-0.244
-589.938	33.633	-0.196	0.170
-588.923	-4.652	-0.126	-0.087
-587.909	-33.892	0.129	0.071
-586.894	347.161	-0.166	-0.328
-585.879	630.124	-0.163	-0.412
-584.865	-106.919	-0.204	-0.045
-583.850	800.000	0.052	-0.214
-582.836	-200.000	0.020	0.237
-581.821	269.202	-0.132	0.231
-580.806	-157.049	-0.277	-0.017
-579.792	-109.179	0.071	-0.015
-578.777	57.879	0.372	-0.364
-577.763	-200.000	-0.028	0.186
-576.748	-83.866	0.052	-0.016
-575.733	-76.016	-0.246	-0.087
-574.719	-152.493	0.143	0.010
-573.704	800.000	-0.022	-0.089
-572.690	-200.000	-0.016	0.207
-571.675	-200.000	-0.014	-0.201
-570.661	263.085	0.198	-0.343
-569.646	163.902	-0.235	-0.330
-568.631	-7.893	0.071	-0.048
-567.617	-103.988	-0.259	0.060
-566.602	368.504	0.111	0.225
-565.588	800.000	0.052	0.176
-564.573	-200.000	0.007	-0.143
-563.558	128.160	-0.083	0.105
-562.544	88.906	-0.047	0.052
-561.529	187.656	-0.042	-0.063
-560.515	81.204	-0.071	0.077
-559.500	800.000	0.096	-0.342
-558.485	-200.000	-0.007	-0.177
-557.471	36.204	0.160	-0.141
-556.456	-200.000	-0.027	-0.137
-555.442	-112.195	-0.185	-0.037
-554.427	-155.416	0.381	0.025
-553.412	-200.000	-0.060	0.389
-552.398	55.035	0.201	-0.194
-551.383	-200.000	0.009	-0.149
-550.369	303.761	0.039	0.073
-549.354	360.269	-0.150	0.300
-548.339	8.524	-0.205	0.154
-547.325	628.103	0.054	-0.136
-546.310	88.417	-0.160	-0.177
-545.296	139.709	0.195	0.257
-544.281	224.102	0.214	0.345
-543.266	49.155	-0.013	-0.012
-542.252	121.469	0.126	0.156
-541.237	-200.000	-0.029	-0.358
-540.223	679.167	0.061	-0.159
-539.208	396.553	-0.139	-0.289
-538.193	84.832	0.174	0.190
-537.179	4.121	0.199	0.146
-536.164	-200.000	-0.065	0.412
-535.150	80.909	-0.062	0.067
-534.135	314.672	-0.077	0.144
-533.121	-200.000	0.003	0.034
-532.106	-122.680	0.104	-0.017
-531.091	-114.733	-0.376	-0.072
-530.077	-200.000	-0.007	0.155
-529.062	-200.000	-0.032	0.271
-528.048	-76.687	0.289	-0.101
-527.033	-69.700	-0.389	0.148
-526.018	-123.896	-0.330	0.052
-525.004	234.657	-0.070	0.115
-523.989	387.880	0.110	-0.228
-522.975	-200.000	-0.017	-0.223
-521.960	798.740	-0.131	0.360
-520.945	17.065	-0.140	0.111
-519.931	369.177	-0.172	0.348
-518.916	158.563	0.060	0.084
-517.902	629.517	0.080	0.202
-516.887	-161.829	0.140	0.007
-515.872	146.120	-0.192	-0.256
-514.858	800.000	-0.060	-0.204
-513.843	14.466	-0.324	0.252
-512.829	233.762	0.046	-0.075
-511.814	-200.000	-0.057	-0.349
-510.799	-19.258	-0.133	0.083
-509.785	-200.000	-0.019	-0.270
-508.770	21.143	0.237	-0.192
-507.756	473.317	-0.101	-0.226
-506.741	-77.128	-0.044	-0.015
-505.726	137.915	-0.151	0.197
-504.712	34.219	0.271	0.236
-503.697	-160.500	-0.445	0.024
-502.683	-200.000	0.010	0.193
-501.668	-200.000	0.220	-0.001
-500.653	-4.307	0.127	-0.088
-499.639	-139.901	0.318	-0.034
-498.624	-20.660	0.055	-0.034
-497.610	-200.000	0.006	0.130
-496.595	-76.917	0.208	0.072
-495.581	800.000	0.099	0.397
-494.566	-14.007	0.212	-0.136
-493.551	-200.000	-0.044	0.339
-492.537	-65.698	0.258	0.103
-491.522	-200.000	0.049	-0.452
-490.508	93.526	0.089	-0.100
-489.493	106.907	0.045	-0.053
-488.478	-200.000	-0.029	-0.243
-487.464	-123.125	-0.028	-0.004
-486.449	356.506	-0.126	0.249
-485.435	-102.219	0.091	0.022
-484.420	-147.059	0.193	-0.016
-483.405	-59.376	-0.339	0.145
-482.391	800.000	0.120	0.352
-481.376	115.002	-0.138	0.168
-480.362	58.524	0.405	0.396
-479.347	-200.000	-0.042	0.216
-478.332	-155.857	0.115	-0.007
-477.318	549.751	0.058	-0.138
-476.303	-69.731	-0.420	-0.160
-475.289	-200.000	-0.008	0.131
-474.274	800.000	-0.054	0.163
-473.259	-119.759	-0.224	-0.039
-472.245	798.577	-0.047	-0.128
-471.230	-200.000	-0.021	0.142
-470.216	-200.000	-0.006	-0.460
-469.201	800.000	0.055	-0.234
-468.186	800.000	0.045	0.181
-467.172	154.751	-0.361	-0.494
-466.157	20.947	0.073	-0.059
-465.143	413.885	-0.013	0.027
-464.128	-68.986	0.359	0.138
-463.113	-142.413	-0.215	0.021
-462.099	261.524	0.140	-0.241
-461.084	16.770	0.273	-0.215
-460.070	-103.175	-0.236	0.056
-459.055	-167.236	-0.608	0.024
-458.040	225.481	-0.096	0.154
-457.026	-138.924	-0.077	0.008
-456.011	430.463	0.082	0.176
-454.997	222.907	0.304	0.487
-453.982	-200.000	-0.042	-0.415
-452.968	272.534	0.045	-0.079
-451.953	-166.893	0.145	0.006
-450.938	-200.000	0.022	-0.190
-449.924	-48.330	-0.049	-0.023
-448.909	-93.045	0.113	-0.031
-447.895	-18.288	0.338	-0.210
-446.880	115.755	0.368	-0.448
-445.865	-25.331	0.176	0.104
-444.851	155.472	-0.220	-0.302
-443.836	86.928	-0.139	-0.153
-442.822	-34.745	-0.079	-0.043
-441.807	-36.519	-0.238	-0.128
-440.792	-118.341	0.448	-0.079
-439.778	-141.956	-0.305	-0.030
-438.763	80.474	0.158	0.170
-437.749	-160.847	0.108	-0.006
-436.734	-19.101	-0.102	0.063
-435.719	-200.000	0.047	0.218
-434.705	96.374	-0.192	0.218
-433.690	-70.231	0.126	-0.047
-432.676	308.005	-0.181	0.336
-431.661	-200.000	0.060	0.315
-430.646	-58.953	-0.314	0.135
-429.632	121.173	0.292	-0.362
-428.617	-67.535	-0.098	0.038
-427.603	595.042	-0.131	-0.321
-426.588	-200.000	-0.047	-0.207
-425.573	175.659	0.069	0.100
-424.559	800.000	0.068	0.217
-423.544	-145.685	-0.384	-0.034
-422.530	-200.000	-0.015	-0.171
-421.515	-93.357	-0.107	-0.029
-420.500	137.577	-0.164	-0.213
-419.486	444.119	0.042	0.092
-418.471	559.297	-0.061	-0.146
-417.457	800.000	-0.054	-0.233
-416.442	800.000	0.024	-0.103
-415.428	-200.000	-0.019	-0.140
-414.413	6.136	-0.128	-0.095
-413.398	-200.000	0.006	-0.286
-412.384	399.394	0.077	-0.161
-411.369	117.654	-0.197	0.240
-410.355	-200.000	-0.024	-0.139
-409.340	82.796	0.246	0.266
-408.325	404.640	0.140	0.293
-407.311	-83.977	-0.213	0.067
-406.296	800.000	0.079	-0.235
-405.282	364.863	-0.056	-0.112
-404.267	208.577	-0.033	-0.052
-403.252	-43.758	-0.047	0.023
-402.238	17.132	-0.082	-0.064
-401.223	-50.933	-0.196	-0.091
-400.209	152.204	-0.144	0.195
-399.194	-40.664	-0.178	-0.092
-398.179	128.656	-0.117	0.148
-397.165	-200.000	0.009	-0.171
-396.150	98.918	-0.062	0.071
-395.136	-200.000	-0.030	-0.165
-394.121	163.456	0.197	0.276
-393.106	-200.000	0.019	-0.279
-392.092	-200.000	-0.022	-0.290
-391.077	800.000	0.031	-0.112
-390.063	-200.000	0.002	-0.036
-389.048	800.000	0.049	0.208
-388.033	658.927	-0.188	0.479
-387.019	434.757	0.119	0.256
-386.004	-66.896	0.351	-0.138
-384.990	669.811	0.049	-0.127
-383.975	800.000	0.031	0.132
-382.960	-2.680	-0.208	0.144
-381.946	6.855	-0.208	0.154
-380.931	-127.576	-0.213	-0.031
-379.917	-10.320	0.016	0.011
-378.902	16.663	-0.350	-0.275
-377.888	-200.000	0.037	-0.274
-376.873	107.512	-0.151	0.178
-375.858	-200.000	0.004	0.296
-374.844	-200.000	0.022	-0.406
-373.829	55.643	0.047	-0.045
-372.815	800.000	0.032	0.114
-371.800	-107.521	0.088	-0.019
-370.785	202.264	-0.087	0.134
-369.771	291.458	0.029	0.052
-368.756	800.000	-0.034	0.110
-367.742	-102.839	-0.375	-0.088
-366.727	-109.937	0.201	-0.042
-365.712	800.000	0.074	-0.231
-364.698	-78.461	-0.114	-0.039
-363.683	6.252	-0.149	-0.109
-362.669	-1.162	0.225	0.158
-361.654	-115.456	-0.224	-0.042
-360.639	-11.320	-0.139	0.091
-359.625	-46.240	-0.301	0.147
-358.610	29.207	0.081	-0.068
-357.596	-17.810	0.110	-0.068
-356.581	-200.000	-0.008	0.219
-355.566	31.372	-0.116	0.099
-354.552	716.525	0.054	-0.142
-353.537	800.000	-0.032	-0.132
-352.523	260.871	0.170	0.292
-351.508	800.000	-0.056	-0.191
-350.493	-104.585	0.469	0.107
-349.479	11.489	-0.265	0.202
-348.464	151.665	-0.106	-0.144
-347.450	-200.000	-0.009	0.322
-346.435	-200.000	0.065	0.312
-345.420	800.000	-0.049	0.166
-344.406	115.987	-0.181	-0.219
-343.391	-107.984	0.357	-0.077
-342.377	84.044	0.015	0.017
-341.362	9.692	-0.155	0.116
-340.348	-116.438	-0.110	0.020
-339.333	-86.525	-0.501	-0.152
-338.318	-82.414	0.187	-0.060
-337.304	-152.729	-0.404	-0.028
-336.289	530.519	0.176	-0.412
-335.275	-175.563	-0.215	-0.006
-334.260	286.630	-0.095	-0.170
-333.245	446.883	-0.131	0.284
-332.231	-65.624	-0.136	0.054
-331.216	39.593	-0.042	-0.038
-330.202	800.000	-0.032	-0.114
-329.187	-113.074	-0.286	0.056
-328.172	800.000	-0.056	0.203
-327.158	26.464	0.302	0.250
-326.143	-177.724	0.433	0.010
-325.129	146.584	-0.065	-0.086
-324.114	-86.629	-0.318	0.097
-323.099	-112.064	0.329	-0.066
-322.085	311.715	0.094	0.175
-321.070	-35.534	-0.081	-0.043
-320.056	568.749	-0.093	0.225
-319.041	-107.491	0.349	-0.076
-318.026	58.378	0.197	0.191
-317.012	-200.000	-0.071	0.403
-315.997	-46.135	-0.318	0.155
-314.983	-5.578	-0.040	-0.027
-313.968	216.839	-0.076	-0.120
-312.953	-76.411	0.348	0.121
-311.939	264.771	-0.128	-0.221
-310.924	5.652	0.165	-0.121
-309.910	59.894	-0.075	-0.074
-308.895	164.443	0.112	-0.156
-307.880	142.815	0.110	-0.145
-306.866	19.470	0.102	0.081
-305.851	-200.000	-0.006	0.053
-304.837	-200.000	0.004	-0.078
-303.822	-39.464	-0.176	0.092
-302.807	-81.913	-0.155	-0.050
-301.793	171.272	-0.116	0.164
-300.778	313.315	0.179	0.333
-299.764	369.843	0.047	0.095
-298.749	312.922	-0.085	-0.158
-297.735	800.000	0.080	0.332
-296.720	145.174	-0.178	0.235
-295.705	-16.031	0.150	0.094
-294.691	114.093	0.145	-0.175
-293.676	-40.276	-0.202	-0.104
-292.662	-140.009	-0.176	-0.018
-291.647	-122.289	0.111	0.018
-290.632	-200.000	0.008	0.116
-289.618	593.604	-0.032	-0.077
-288.603	-168.863	-0.143	-0.005
-287.589	550.610	-0.087	-0.206
-286.574	610.512	-0.113	0.278
-285.559	723.234	0.028	0.075
-284.545	299.917	0.009	-0.016
-283.530	-20.451	0.353	0.215
-282.516	-200.000	-0.324	0.001
-281.501	66.262	-0.125	0.125
-280.486	800.000	-0.136	0.372
-279.472	-101.685	0.184	0.044
-278.457	324.322	-0.161	-0.304
-277.443	-149.546	-0.545	-0.043
-276.428	-15.507	0.275	0.174
-275.413	204.658	0.053	0.082
-274.399	-200.000	0.020	0.093
-273.384	135.769	0.142	0.183
-272.370	-31.373	0.571	-0.317
-271.355	800.000	-0.079	-0.237
-270.340	-122.719	0.467	-0.075
-269.326	234.953	-0.144	-0.235
-268.311	-129.509	-0.115	-0.016
-267.297	-15.845	0.064	-0.040
-266.282	8.345	0.217	-0.161
-265.267	-19.559	-0.070	-0.043
-264.253	-200.000	0.016	-0.324
-263.238	-72.350	-0.162	0.059
-262.224	-12.234	0.009	0.006
-261.209	-24.118	-0.163	-0.096
-260.195	482.119	0.083	0.186
-259.180	-91.426	0.228	-0.064
-258.165	307.519	-0.079	-0.146
-257.151	449.348	0.226	0.492
-256.136	800.000	-0.074	-0.279
-255.122	-39.456	0.104	-0.054
-254.107	72.777	0.351	0.362
-253.092	-15.086	0.238	0.150
-252.078	-200.000	0.104	-0.499
-251.063	-2.090	-0.308	0.214
-250.049	-101.509	-0.047	-0.011
-249.034	-153.850	0.145	-0.010
-248.019	-113.500	-0.356	-0.069
-247.005	-158.332	-0.214	0.012
-245.990	8.736	0.120	0.090
-244.976	7.670	-0.175	0.129
-243.961	-96.813	-0.018	-0.005
-242.946	800.000	-0.055	-0.219
-241.932	20.668	-0.354	0.283
-240.917	-200.000	-0.027	0.299
-239.903	-87.735	0.434	0.129
-238.888	615.908	0.108	-0.266
-237.873	-35.909	-0.139	-0.074
-236.859	800.000	0.072	-0.303
-235.844	-171.181	0.045	0.002
-234.830	-102.381	-0.193	-0.046
-233.815	-84.280	0.409	0.128
-232.800	257.655	-0.162	-0.276
-231.786	-103.808	0.154	-0.035
-230.771	79.556	-0.099	0.105
-229.757	-200.000	-0.027	-0.139
-228.742	1.459	0.366	-0.260
-227.727	-61.152	-0.380	0.158
-226.713	-200.000	0.014	0.339
-225.698	386.492	0.167	-0.341
-224.684	-54.581	-0.307	0.137
-223.669	-200.000	-0.002	0.141
-222.655	-200.000	-0.038	-0.323
-221.640	249.732	0.096	-0.161
-220.625	55.459	0.191	0.182
-219.611	-151.849	0.121	0.009
-218.596	282.498	-0.163	-0.288
-217.582	-168.398	0.109	-0.004
-216.567	-200.000	0.060	0.274
-215.552	336.208	-0.196	-0.374
-214.538	-200.000	-0.034	0.170
-213.523	-200.000	0.033	0.147
-212.509	305.623	0.181	0.332
-211.494	-200.000	-0.020	0.152
-210.479	800.000	0.044	0.156
-209.465	27.825	-0.102	-0.084
-208.450	-42.164	-0.022	0.011
-207.436	-88.375	-0.151	-0.044
-206.421	-13.331	0.226	-0.144
-205.406	73.561	0.143	0.147
-204.392	153.588	0.096	0.129
-203.377	34.120	-0.151	-0.130
-202.363	-6.567	0.193	0.129
-201.348	104.006	0.161	-0.186
-200.333	-164.594	0.342	0.015
-199.319	470.415	-0.097	-0.214
-198.304	26.985	-0.127	0.105
-197.290	-123.819	0.099	0.015
-196.275	-165.730	-0.111	0.005
-195.260	-129.409	-0.319	0.044
-194.246	-200.000	0.000	0.106
-193.231	763.158	-0.082	-0.220
-192.217	-117.190	0.245	-0.044
-191.202	-200.000	0.032	0.186
-190.187	122.014	-0.062	0.077
-189.173	-200.000	0.016	0.271
-188.158	-1.862	0.100	0.069
-187.144	-200.000	0.079	-0.000
-186.129	-8.290	0.115	0.076
-185.114	-73.581	0.099	-0.036
-184.100	185.651	-0.098	0.144
-183.085	320.248	0.140	0.262
-182.071	-36.165	0.123	0.065
-181.056	-31.082	0.312	-0.174
-180.042	575.046	0.118	-0.284
-179.027	-33.909	-0.243	-0.132
-178.012	283.846	-0.050	-0.089
-176.998	291.626	0.164	-0.294
-175.983	-200.000	-0.067	-0.530
-174.969	97.437	-0.020	0.022
-173.954	-66.737	-0.172	-0.067
-172.939	147.037	-0.219	-0.290
-171.925	-200.000	-0.001	0.257
-170.910	61.857	0.251	0.247
-169.896	-200.000	-0.001	-0.149
-168.881	20.081	0.082	0.065
-167.866	-28.144	0.051	-0.029
-166.852	-67.889	-0.372	-0.143
-165.837	-34.025	-0.263	0.142
-164.823	-200.000	0.027	-0.142
-163.808	-200.000	0.008	0.088
-162.793	-200.000	-0.006	-0.055
-161.779	-200.000	-0.033	0.345
-160.764	800.000	-0.061	0.247
-159.750	185.343	0.084	0.122
-158.735	-200.000	0.042	0.309
-157.720	-200.000	0.039	0.167
-156.706	-200.000	0.000	-0.017
-155.691	-141.237	0.050	0.005
-154.677	106.163	-0.166	-0.194
-153.662	800.000	0.106	-0.328
-152.647	-126.191	0.203	-0.030
-151.633	-200.000	-0.004	-0.275
-150.618	673.105	-0.106	-0.269
-149.604	227.461	0.177	0.283
-148.589	-34.452	0.191	0.103
-147.574	-34.429	0.091	-0.049
-146.560	-2.731	0.167	0.115
-145.545	627.703	0.218	-0.540
-144.531	-72.760	-0.291	0.105
-143.516	800.000	0.103	0.432
-142.502	52.381	0.319	0.299
-141.487	10.613	0.148	-0.111
-140.472	5.540	-0.378	-0.274
-139.458	-131.929	0.120	-0.015
-138.443	296.248	0.154	0.278
-137.429	-200.000	-0.029	0.257
-136.414	174.628	-0.068	0.097
-135.399	19.299	-0.217	-0.171
-134.385	9.080	0.176	-0.131
-133.370	-117.336	0.365	-0.065
-132.356	-200.000	-0.002	-0.085
-131.341	453.140	0.102	-0.222
-130.326	-200.000	0.018	0.177
-129.312	-98.444	0.125	-0.031
-128.297	14.176	-0.183	0.140
-127.283	258.945	-0.179	-0.304
-126.268	-49.594	-0.081	-0.038
-125.253	800.000	-0.032	0.104
-124.239	111.512	-0.130	0.154
-123.224	-200.000	0.035	0.229
-122.210	-108.105	0.066	0.014
-121.195	-27.185	-0.162	0.093
-120.180	101.166	0.205	-0.234
-119.166	560.389	0.064	0.153
-118.151	-109.480	-0.454	0.094
-117.137	-150.178	0.181	-0.014
-116.122	92.290	0.079	-0.087
-115.107	-90.271	-0.055	0.016
-114.093	205.618	0.062	0.094
-113.078	-200.000	0.033	0.222
-112.064	-37.613	0.369	0.193
-111.049	171.816	-0.101	-0.142
-110.034	-2.815	0.249	0.171
-109.020	-200.000	-0.039	-0.266
-108.005	462.577	-0.019	0.041
-106.991	188.936	0.164	0.241
-105.976	-28.040	0.193	-0.110
-104.962	-63.084	0.365	0.148
-103.947	-12.023	-0.155	0.099
-102.932	478.374	-0.059	0.131
-101.918	-108.065	0.172	0.037
-100.903	-101.751	0.097	-0.023
-99.889	-112.707	-0.260	-0.051
-98.874	23.024	0.091	0.073
-97.859	30.917	-0.170	0.143
-96.845	800.000	-0.009	-0.035
-95.830	14.779	-0.128	-0.098
-94.816	190.115	0.144	-0.212
-93.801	773.580	0.060	-0.160
-92.786	-116.716	-0.350	0.063
-91.772	-200.000	0.052	0.227
-90.757	-82.394	-0.147	0.047
-89.743	-200.000	-0.066	-0.544
-88.728	-200.000	-0.017	0.250
-87.713	77.242	-0.141	-0.147
-86.699	-200.000	-0.045	0.201
-85.684	75.433	0.045	-0.047
-84.670	10.014	-0.117	-0.087
-83.655	-83.679	0.196	0.061
-82.640	-169.672	0.033	0.001
-81.626	131.911	0.096	0.121
-80.611	800.000	-0.081	0.283
-79.597	-200.000	-0.019	-0.337
-78.582	70.414	-0.068	0.069
-77.567	56.703	0.065	0.062
-76.553	-200.000	-0.014	-0.308
-75.538	800.000	0.054	-0.167
-74.524	-200.000	0.029	0.142
-73.509	-200.000	-0.024	0.154
-72.494	223.822	-0.125	0.198
-71.480	-200.000	-0.024	-0.109
-70.465	-73.790	-0.044	-0.016
-69.451	308.690	0.106	-0.195
-68.436	-149.750	0.216	-0.017
-67.422	-200.000	0.039	-0.360
-66.407	386.988	-0.056	0.114
-65.392	-200.000	-0.076	-0.333
-64.378	800.000	0.092	0.368
-63.363	156.733	-0.186	0.252
-62.349	165.063	-0.207	-0.286
-61.334	52.696	-1.057	-0.990
-60.319	800.000	0.206	0.574
-59.305	677.498	-0.393	-1.001
-58.290	555.889	0.569	1.343
-57.276	576.665	0.750	1.797
-56.261	-200.000	105.642	620.365
-55.246	516.871	1499.445	3435.071
-54.232	178.075	2689.638	3844.724
-53.217	112.013	2174.865	2574.364
-52.203	40.392	1696.859	1496.437
-51.188	32.964	1507.228	1279.075
-50.173	30.468	1480.822	1239.982
-49.159	52.020	1536.294	1433.557
-48.144	52.215	1552.906	1450.321
-47.130	33.117	1508.855	1281.292
-46.115	30.082	1493.748	1248.006
-45.100	29.875	1490.768	1244.074
-44.086	29.780	1488.480	1241.481
-43.071	29.787	1486.435	1239.773
-42.057	29.707	1485.177	1238.139
-41.042	29.731	1483.695	1237.011
-40.027	29.851	1481.742	1236.137
-39.013	29.750	1480.241	1234.165
-37.998	29.748	1479.229	1233.254
-36.984	29.733	1478.114	1232.181
-35.969	29.684	1476.810	1230.717
-34.954	29.734	1474.866	1229.377
-33.940	29.727	1474.071	1228.619
-32.925	29.715	1472.607	1227.272
-31.911	29.762	1471.450	1226.570
-30.896	29.748	1470.544	1225.679
-29.881	29.841	1468.738	1224.738
-28.867	29.820	1467.619	1223.616
-27.852	29.839	1465.900	1222.263
-26.838	29.728	1464.786	1220.548
-25.823	29.757	1463.106	1219.292
-24.809	29.813	1461.365	1218.162
-23.794	29.906	1459.552	1217.215
-22.779	29.840	1458.852	1216.151
-21.765	29.728	1458.417	1214.999
-20.750	29.826	1457.250	1214.623
-19.736	29.706	1456.490	1213.159
-18.721	29.774	1455.085	1212.385
-17.706	29.845	1453.322	1211.333
-16.692	29.781	1452.532	1210.203
-15.677	29.803	1451.683	1209.593
-14.663	29.690	1450.711	1207.999
-13.648	29.697	1449.813	1207.246
-12.633	29.775	1448.768	1206.837
-11.619	29.723	1448.046	1205.853
-10.604	29.700	1447.313	1205.044
-9.590	29.666	1446.332	1203.958
-8.575	29.705	1445.520	1203.489
-7.560	29.805	1444.269	1203.050
-6.546	29.656	1443.432	1201.333
-5.531	29.715	1442.895	1201.224
-4.517	29.784	1441.754	1200.674
-3.502	29.659	1440.798	1199.015
-2.487	29.665	1439.910	1198.273
-1.473	29.683	1438.663	1197.304
-0.458	29.685	1437.447	1196.258
0.556	27.373	1427.940	1185.029
1.571	24.276	1402.523	1143.996
2.586	20.859	1342.383	1073.820
3.600	19.246	1261.437	999.630
4.615	18.129	1217.661	958.593
5.629	15.617	1162.742	901.814
6.644	7.601	1079.637	797.194
7.659	0.727	1040.366	734.800
8.673	-0.151	1034.785	726.546
9.688	-0.364	1031.772	723.341
10.702	-0.351	1029.923	722.041
11.717	-0.414	1027.987	720.319
12.731	2.442	1031.036	736.138
13.746	11.050	1043.630	786.829
14.761	17.954	1052.192	826.747
15.775	19.460	1053.858	835.280
16.790	19.732	1053.451	836.198
17.804	19.596	1051.864	834.208
18.819	19.355	1051.525	832.701
19.834	19.500	1050.798	832.755
20.848	19.584	1050.073	832.508
21.863	19.628	1050.047	832.625
22.877	19.590	1049.370	831.833
23.892	19.453	1049.107	830.895
24.907	19.572	1047.784	830.342
25.921	19.446	1047.153	829.167
26.936	19.572	1046.800	829.416
27.950	19.718	1045.008	828.625
28.965	19.533	1044.090	826.938
29.980	19.505	1042.325	825.332
30.994	19.469	1040.923	823.976
32.009	19.563	1040.172	823.756
33.023	19.752	1039.141	823.770
34.038	19.571	1038.149	822.050
35.053	19.412	1037.709	820.869
36.067	19.623	1036.946	821.200
37.082	19.634	1035.974	820.409
38.096	19.714	1035.265	820.153
39.111	19.785	1034.800	820.049
40.126	19.906	1033.733	819.703
41.140	19.846	1032.065	818.025
42.155	19.618	1030.863	815.923
43.169	19.329	1029.608	813.493
44.184	19.267	1028.538	812.282
45.199	19.359	1027.041	811.462
46.213	19.238	1026.380	810.298
47.228	19.225	1025.310	809.322
48.242	19.281	1024.852	809.153
49.257	19.491	1023.358	808.888
50.271	19.508	1023.164	808.741
51.286	19.604	1021.890	808.110
52.301	19.613	1021.258	807.581
53.315	19.801	1020.080	807.457
54.330	19.457	1019.769	805.531
55.344	19.579	1018.953	805.385
56.359	19.692	1017.536	804.719
57.374	19.609	1017.111	803.927
58.388	19.494	1015.745	802.244
59.403	19.409	1015.227	801.369
60.417	19.362	1014.747	800.698
61.432	19.207	1013.696	799.079
62.447	19.232	1012.542	798.214
63.461	19.529	1012.137	799.199
64.476	19.502	1010.783	797.934
65.490	19.630	1009.773	797.658
66.505	19.408	1009.289	796.180
67.520	19.312	1008.680	795.187
68.534	19.493	1007.936	795.367
69.549	19.405	1007.126	794.251
70.563	19.111	1005.495	791.543
71.578	19.057	1004.422	790.380
72.593	19.129	1003.515	789.928
73.607	19.020	1002.639	788.667
74.622	19.053	1001.765	788.062
75.636	19.351	1000.861	788.642
76.651	19.357	1000.297	788.158
77.666	19.131	999.454	786.392
78.680	19.207	998.256	785.724
79.695	19.161	998.141	785.356
80.709	19.226	997.502	785.079
81.724	19.264	996.503	784.398
82.739	19.319	995.400	783.711
83.753	19.222	994.640	782.600
84.768	19.622	993.665	783.579
85.782	19.694	993.186	783.459
86.797	19.877	992.008	783.287
87.812	19.849	991.427	782.634
88.826	19.713	990.658	781.341
89.841	19.701	989.812	780.551
90.855	19.808	989.014	780.335
91.870	19.795	988.204	779.571
92.884	19.786	987.167	778.642
93.899	19.751	986.150	777.612
94.914	19.618	985.289	776.268
95.928	19.786	984.444	776.289
96.943	19.817	983.620	775.709
97.957	19.516	982.817	773.661
98.972	19.336	981.528	771.769
99.987	19.013	980.590	769.518
101.001	19.190	979.633	769.491
102.016	19.377	979.837	770.419
103.030	19.386	979.079	769.795
104.045	19.396	977.557	768.574
105.060	19.234	976.220	766.733
106.074	19.132	974.843	765.133
107.089	19.178	974.683	765.141
108.103	19.657	973.801	766.508
109.118	19.786	972.617	766.079
110.133	19.513	971.659	764.051
111.147	19.515	970.716	763.250
112.162	19.410	969.430	761.706
113.176	19.344	967.949	760.183
114.191	19.347	967.565	759.830
115.206	19.504	966.452	759.581
116.220	19.027	965.769	756.876
117.235	18.938	964.820	755.674
118.249	19.236	963.384	755.792
119.264	19.105	963.123	754.946
120.279	19.062	962.031	753.835
121.293	19.023	961.023	752.808
122.308	19.209	960.300	752.989
123.322	19.211	959.623	752.396
124.337	19.220	958.215	751.268
125.352	18.904	957.404	749.186
126.366	18.691	955.457	746.672
127.381	18.373	953.956	744.049
128.395	18.895	953.936	746.238
129.410	19.453	953.605	748.333
130.424	19.613	952.545	748.128
131.439	19.601	951.147	746.912
132.454	19.438	950.457	745.599
133.468	19.670	949.194	745.542
134.483	19.597	948.543	744.651
135.497	19.386	948.231	743.430
136.512	19.686	947.489	744.076
137.527	19.711	946.558	743.385
138.541	19.710	945.487	742.474
139.556	19.876	944.914	742.673
140.570	19.808	944.067	741.648
141.585	19.814	943.155	740.891
142.600	19.864	942.432	740.472
143.614	19.725	941.233	738.869
144.629	19.917	940.611	739.138
145.643	20.094	939.814	739.200
146.658	19.833	938.944	737.341
147.673	19.801	937.692	736.156
148.687	19.784	936.573	735.137
149.702	19.683	935.380	733.708
150.716	19.634	934.495	732.740
151.731	19.533	933.706	731.630
152.746	19.531	932.798	730.844
153.760	19.745	932.367	731.347
154.775	19.933	931.371	731.295
155.789	20.033	930.783	731.191
156.804	19.963	929.792	730.056
157.819	19.871	928.489	728.578
158.833	19.933	927.769	728.209
159.848	20.012	927.077	727.935
160.862	20.154	926.125	727.721
161.877	19.845	925.215	725.643
162.892	19.951	924.367	725.360
163.906	20.033	923.678	725.096
164.921	20.063	922.696	724.389
165.935	19.944	921.849	723.160
166.950	19.952	920.727	722.253
167.964	20.051	919.857	721.918
168.979	19.975	918.715	720.642
169.994	19.963	917.607	719.658
171.008	19.772	916.985	718.314
172.023	19.897	916.540	718.419
173.037	19.981	915.488	717.878
174.052	19.744	913.955	715.632
175.067	19.437	913.437	713.893
176.081	19.795	912.394	714.494
177.096	19.854	911.411	713.906
178.110	19.897	910.458	713.274
179.125	19.650	909.578	711.502
180.140	19.400	908.418	709.505
181.154	19.429	907.733	709.027
182.169	19.502	907.067	708.744
183.183	19.582	907.277	709.173
184.198	19.994	906.550	710.232
185.213	19.776	905.735	708.637
186.227	19.930	904.744	708.430
187.242	20.016	904.465	708.502
188.256	20.012	904.143	708.170
189.271	19.916	903.484	707.200
190.286	20.009	902.247	706.547
191.300	19.891	901.703	705.577
192.315	19.374	900.518	702.483
193.329	18.867	898.699	698.940
194.344	18.385	897.832	696.245
195.359	18.966	898.249	698.870
196.373	19.668	898.739	702.042
197.388	19.892	898.125	702.407
198.402	19.637	897.270	700.643
199.417	19.695	896.660	700.342
200.432	19.796	896.064	700.221
201.446	19.613	894.876	698.493
202.461	19.291	894.379	696.740
203.475	19.432	894.005	696.957
204.490	18.960	892.515	693.829
205.504	17.975	890.392	688.153
206.519	18.475	890.172	689.935
207.534	19.408	890.756	694.080
208.548	19.482	890.289	693.954
209.563	19.739	890.217	694.870
210.577	19.683	889.510	694.032
211.592	19.560	888.468	692.665
212.607	19.883	888.330	693.789
213.621	19.981	887.900	693.787
214.636	20.022	886.790	693.021
215.650	20.015	886.474	692.684
216.665	19.939	886.123	692.044
217.680	20.141	885.369	692.203
218.694	20.047	884.801	691.320
219.709	19.797	883.609	689.332
220.723	19.425	882.717	687.093
221.738	19.649	882.251	687.563
222.753	19.866	881.844	688.048
223.767	19.721	880.871	686.649
224.782	19.840	880.088	686.453
225.796	20.142	879.589	687.199
226.811	19.962	879.321	686.215
227.826	19.700	878.000	684.088
228.840	18.951	876.403	679.822
229.855	18.873	875.788	678.975
230.869	19.263	875.510	680.241
231.884	18.865	874.543	677.859
232.899	18.915	874.464	677.936
233.913	19.655	874.648	680.938
234.928	19.862	874.118	681.280
235.942	19.786	873.452	680.402
236.957	19.904	872.288	679.895
237.972	19.475	871.716	677.705
238.986	19.470	870.657	676.803
240.001	19.564	870.136	676.705
241.015	19.650	869.619	676.582
242.030	19.792	868.661	676.332
243.045	19.677	868.454	675.663
244.059	19.920	867.652	675.927
245.074	19.962	867.047	675.558
246.088	19.837	866.288	674.421
247.103	19.658	865.447	673.011
248.117	19.672	864.572	672.326
249.132	20.055	865.029	674.113
250.147	20.310	864.611	674.719
251.161	20.363	863.702	674.154
252.176	20.508	863.074	674.167
253.190	20.552	862.578	673.888
254.205	20.648	861.716	673.528
255.220	20.839	861.505	674.045
256.234	20.844	860.844	673.488
257.249	20.554	860.267	671.855
258.263	20.562	859.253	671.034
259.278	20.580	858.845	670.726
260.293	20.719	858.649	671.048
261.307	20.762	857.629	670.356
262.322	20.561	856.890	668.949
263.336	20.466	856.134	667.934
264.351	19.950	854.839	664.883
265.366	18.934	852.938	659.450
266.380	18.530	852.118	657.209
267.395	19.407	852.336	660.679
268.409	20.201	852.911	664.109
269.424	20.284	851.864	663.552
270.439	20.393	851.402	663.552
271.453	20.569	850.530	663.486
272.468	20.462	850.126	662.703
273.482	20.677	849.623	663.072
274.497	20.628	849.222	662.511
275.512	20.640	847.916	661.479
276.526	19.868	846.839	657.649
277.541	20.300	845.687	658.334
278.555	20.541	845.950	659.395
279.570	20.371	844.783	657.783
280.585	20.216	844.032	656.554
281.599	20.289	843.668	656.489
282.614	20.330	843.737	656.638
283.628	19.982	842.459	654.273
284.643	19.614	841.757	652.281
285.657	19.897	841.803	653.327
286.672	19.901	840.993	652.657
287.687	19.403	839.545	649.600
288.701	19.872	839.328	651.138
289.716	20.205	839.226	652.256
290.730	19.905	838.232	650.297
291.745	19.791	837.425	649.187
292.760	19.616	836.739	647.939
293.774	19.565	835.834	646.991
294.789	20.372	836.477	650.457
295.803	20.928	836.738	652.683
296.818	21.000	835.914	652.253
297.833	21.039	835.598	652.094
298.847	20.862	834.813	650.765
299.862	20.573	833.365	648.500
300.876	20.762	833.033	648.890
301.891	21.060	832.458	649.494
302.906	20.951	832.034	648.700
303.920	20.734	830.459	646.607
304.935	20.482	830.084	645.324
305.949	20.804	829.908	646.324
306.964	20.830	829.495	646.042
307.979	20.870	828.872	645.648
308.993	20.576	828.653	644.330
310.008	20.956	828.364	645.456
311.022	21.235	827.151	645.486
312.037	20.991	827.057	644.453
313.052	20.744	826.274	642.873
314.066	20.659	825.559	641.946
315.081	20.090	824.140	638.689
316.095	19.528	823.218	635.849
317.110	19.964	823.198	637.385
318.125	20.722	823.394	640.268
319.139	20.154	822.380	637.336
320.154	19.181	820.969	632.613
321.168	18.875	819.789	630.525
322.183	19.387	819.879	632.415
323.197	20.337	820.659	636.448
324.212	20.522	820.068	636.610
325.227	20.807	819.547	637.195
326.241	20.806	818.971	636.687
327.256	20.732	818.791	636.219
328.270	20.671	817.825	635.190
329.285	20.674	817.396	634.811
330.300	20.437	816.486	633.185
331.314	20.311	815.644	632.016
332.329	20.457	814.796	631.834
333.343	20.631	814.646	632.295
334.358	21.014	814.227	633.303
335.373	20.882	813.915	632.525
336.387	21.075	813.293	632.685
337.402	21.074	812.977	632.379
338.416	21.361	812.501	632.995
339.431	21.322	811.939	632.358
340.446	21.340	811.109	631.720
341.460	21.446	811.062	632.013
342.475	21.559	810.020	631.555
343.489	21.293	809.233	629.923
344.504	21.173	809.056	629.298
345.519	21.549	808.432	630.113
346.533	21.735	808.078	630.449
347.548	21.588	808.116	629.893
348.562	21.631	807.660	629.636
349.577	21.594	807.184	629.078
350.592	21.592	806.488	628.472
351.606	21.769	805.490	628.274
352.621	21.715	805.203	627.801
353.635	21.546	804.984	626.970
354.650	21.492	804.504	626.347
355.665	21.229	803.391	624.483
356.679	20.261	801.796	619.733
357.694	20.117	801.138	618.654
358.708	20.687	801.390	620.830
359.723	20.686	800.789	620.305
360.738	20.920	800.365	620.754
361.752	21.248	800.316	621.832
362.767	21.482	799.720	622.146
363.781	21.596	799.892	622.630
364.796	21.923	799.311	623.284
365.810	21.865	799.261	622.982
366.825	21.855	798.947	622.649
367.840	22.021	798.362	622.725
368.854	21.924	797.617	621.744
369.869	21.514	796.752	619.564
370.883	21.338	796.364	618.584
371.898	21.523	795.589	618.583
372.913	21.476	794.797	617.746
373.927	21.334	794.110	616.659
374.942	21.534	793.702	616.992
375.956	21.603	793.277	616.851
376.971	21.634	792.938	616.641
377.986	21.818	792.294	616.734
379.000	21.986	791.823	616.900
380.015	21.866	791.358	616.062
381.029	21.923	790.624	615.638
382.044	21.684	790.770	614.856
383.059	21.791	790.122	614.673
384.073	21.916	789.104	614.267
385.088	21.924	788.562	613.816
386.102	22.009	788.113	613.712
387.117	21.845	787.700	612.762
388.132	21.733	787.325	612.024
389.146	21.660	786.284	610.906
390.161	21.111	785.494	608.325
391.175	21.164	785.111	608.161
392.190	21.564	785.290	609.638
393.205	21.633	784.768	609.420
394.219	20.651	783.235	604.762
395.234	19.279	780.881	598.133
396.248	18.605	779.765	594.889
397.263	19.673	781.072	599.540
398.278	21.315	782.263	606.104
399.292	21.795	782.022	607.524
400.307	21.485	781.203	605.762
401.321	21.345	781.111	605.152
402.336	21.531	780.411	605.201
403.350	21.714	780.183	605.602
404.365	22.212	779.686	606.882
405.380	22.407	779.657	607.481
406.394	22.508	779.852	607.927
407.409	22.624	779.181	607.749
408.423	22.534	778.794	607.084
409.438	22.538	778.037	606.454
410.453	22.580	777.711	606.289
411.467	22.667	777.149	606.098
412.482	22.543	777.034	605.528
413.496	22.610	776.304	605.137
414.511	22.628	776.051	604.946
415.526	22.407	776.059	604.139
416.540	22.578	775.531	604.261
417.555	22.662	774.659	603.819
418.569	22.272	773.957	601.881
419.584	22.341	773.406	601.637
420.599	22.325	772.746	601.016
421.613	158.382	1361.721	1798.268
422.628	136.654	1447.539	1798.377
