DTS Sentinel unit serial number:	SN413079Multiplexer serial number:	ORYXHardware model number:	OX4-SRSoftware version number:	ORYX F/W v4.00 Oryx Data Collector v3.7.2.0data status	okinstallation	princeton_trtdifferential loss correction	single-endedforward channel	channel 3reverse channel	N/Adate	2019/09/15time	16:40:35forward acquisition time	60.00reverse acquisition time	0.00gamma	496.2192k internal	0.2289k external	0.2289temperature offset calibration	0.9933default loss term (dB/km)	0.3790temperature slope calibration	1.0000multiplexer offset coefficient	1.0000multiplexer slope coefficient	1.0000fibre end	0.00T internal ref (°C)	44.16T ext. ref 1 (°C)	5.68T ext. ref 2 (°C)	40.30length (m)	temperature (°C)	Stokes	anti-Stokes-747.200	-81.846	0.190	0.064
-746.185	800.000	0.098	0.422
-745.171	12.990	0.077	-0.061
-744.156	178.044	-0.207	0.309
-743.142	-200.000	0.020	0.096
-742.127	26.940	-0.083	0.071
-741.112	-117.373	0.397	-0.074
-740.098	-200.000	0.014	0.144
-739.083	323.603	-0.069	0.135
-738.069	-107.089	0.034	0.008
-737.054	35.157	0.087	-0.078
-736.039	-65.383	-0.171	-0.071
-735.025	-0.834	-0.130	-0.094
-734.010	-101.116	0.275	-0.069
-732.996	-58.231	-0.127	-0.057
-731.981	173.640	-0.145	-0.215
-730.966	-112.399	-0.263	-0.054
-729.952	88.496	-0.178	-0.203
-728.937	-69.676	-0.043	0.017
-727.923	-200.000	-0.003	0.043
-726.908	41.105	0.252	-0.234
-725.894	-142.135	0.230	0.023
-724.879	67.154	-0.118	-0.124
-723.864	-200.000	-0.014	-0.219
-722.850	800.000	0.051	-0.165
-721.835	-200.000	-0.033	-0.147
-720.821	-17.529	0.023	-0.015
-719.806	-200.000	-0.002	-0.127
-718.791	-200.000	-0.076	-0.407
-717.777	-101.737	0.244	-0.061
-716.762	166.225	-0.035	0.050
-715.748	-83.276	0.083	0.027
-714.733	78.071	0.062	0.068
-713.718	258.532	0.172	-0.304
-712.704	258.384	-0.133	0.235
-711.689	594.556	0.073	-0.185
-710.675	23.097	-0.208	0.174
-709.660	8.993	0.074	-0.057
-708.645	-93.769	0.167	-0.047
-707.631	-159.535	0.002	0.000
-706.616	-28.720	0.042	-0.025
-705.602	-62.892	-0.210	-0.089
-704.587	-200.000	0.010	0.166
-703.572	800.000	-0.100	0.285
-702.558	81.623	0.072	-0.080
-701.543	-76.457	-0.296	0.107
-700.529	-51.467	-0.089	0.042
-699.514	-86.655	-0.155	-0.049
-698.499	588.916	-0.077	-0.193
-697.485	-200.000	0.034	0.194
-696.470	-85.367	-0.150	-0.048
-695.456	46.063	-0.087	-0.082
-694.441	-200.000	-0.004	-0.111
-693.426	-80.008	-0.294	-0.101
-692.412	158.601	-0.230	-0.327
-691.397	-72.197	0.040	0.015
-690.383	8.246	0.151	0.116
-689.368	-14.582	-0.190	-0.125
-688.354	274.519	0.084	-0.151
-687.339	-12.007	0.077	0.052
-686.324	28.384	-0.281	-0.243
-685.310	82.207	-0.169	-0.187
-684.295	106.238	-0.230	-0.279
-683.281	27.847	-0.237	-0.204
-682.266	342.178	0.064	0.128
-681.251	-120.492	-0.178	-0.031
-680.237	-124.697	0.196	-0.031
-679.222	108.339	-0.067	0.082
-678.208	88.056	-0.018	0.021
-677.193	-22.594	-0.214	0.133
-676.178	86.656	0.131	0.147
-675.164	-200.000	0.017	0.088
-674.149	242.995	-0.088	-0.151
-673.135	-200.000	0.023	0.189
-672.120	599.409	-0.182	0.461
-671.105	756.770	0.092	0.255
-670.091	737.239	-0.103	0.281
-669.076	336.617	-0.072	0.142
-668.062	-10.719	-0.147	0.099
-667.047	-120.111	-0.183	-0.032
-666.032	-51.014	0.245	0.117
-665.018	-122.397	0.354	-0.059
-664.003	-111.362	0.061	0.013
-662.989	45.281	-0.223	0.210
-661.974	-200.000	0.001	-0.194
-660.959	597.501	0.073	-0.186
-659.945	-175.080	-0.333	-0.009
-658.930	59.003	-0.082	0.082
-657.916	-39.505	-0.294	0.158
-656.901	-129.011	-0.177	0.025
-655.886	-82.457	-0.096	-0.032
-654.872	186.806	-0.097	0.147
-653.857	-4.649	0.083	-0.058
-652.843	486.388	0.097	-0.225
-651.828	-87.664	-0.244	-0.075
-650.814	-112.821	0.295	0.060
-649.799	228.797	-0.098	0.164
-648.784	19.504	0.075	0.061
-647.770	-112.883	-0.082	-0.017
-646.755	601.921	0.093	-0.237
-645.741	-97.194	-0.192	0.051
-644.726	-139.469	-0.155	0.017
-643.711	746.215	-0.043	-0.119
-642.697	-82.841	0.216	-0.071
-641.682	-200.000	0.003	0.032
-640.668	-153.811	0.166	-0.012
-639.653	-147.204	-0.327	-0.028
-638.638	-101.569	-0.395	-0.098
-637.624	-146.866	-0.272	0.024
-636.609	354.124	0.058	0.118
-635.595	-200.000	0.017	-0.152
-634.580	342.562	0.136	0.272
-633.565	133.371	-0.209	0.276
-632.551	-168.745	-0.062	-0.002
-631.536	-103.178	-0.174	0.042
-630.522	-156.522	-0.138	0.009
-629.507	-200.000	-0.026	-0.273
-628.492	-200.000	-0.006	-0.219
-627.478	28.361	-0.312	0.269
-626.463	-102.517	-0.204	0.050
-625.449	131.934	-0.150	-0.197
-624.434	-145.242	-0.150	-0.014
-623.419	800.000	-0.080	-0.338
-622.405	370.146	0.094	-0.194
-621.390	625.155	0.110	-0.283
-620.376	4.093	0.246	0.184
-619.361	-200.000	-0.045	0.259
-618.346	-5.982	0.028	-0.020
-617.332	82.186	-0.173	0.192
-616.317	498.447	0.084	-0.197
-615.303	245.011	0.060	-0.103
-614.288	-67.411	-0.091	-0.036
-613.273	143.305	-0.149	-0.202
-612.259	-43.910	-0.351	-0.180
-611.244	50.820	0.160	-0.155
-610.230	-53.108	0.176	0.082
-609.215	44.029	0.145	-0.135
-608.201	14.857	0.241	-0.192
-607.186	36.462	0.085	-0.077
-606.171	59.935	0.269	0.271
-605.157	-143.607	-0.201	0.019
-604.142	147.123	0.078	0.107
-603.128	-126.998	0.195	0.029
-602.113	800.000	0.038	-0.134
-601.098	800.000	-0.015	-0.046
-600.084	-74.798	-0.282	0.103
-599.069	-65.829	0.171	0.070
-598.055	-97.944	0.112	0.030
-597.040	-62.557	-0.239	0.101
-596.025	112.925	0.214	-0.264
-595.011	-200.000	0.026	-0.275
-593.996	35.493	0.204	0.183
-592.982	800.000	0.179	0.579
-591.967	79.554	-0.154	-0.169
-590.952	107.503	-0.205	0.249
-589.938	800.000	-0.023	0.067
-588.923	479.130	0.131	0.301
-587.909	246.011	0.107	0.183
-586.894	46.087	-0.090	0.085
-585.879	343.158	-0.063	-0.126
-584.865	-120.530	-0.287	0.050
-583.850	31.369	0.145	0.127
-582.836	-200.000	0.003	0.192
-581.821	-165.821	0.126	-0.006
-580.806	-113.421	0.166	0.033
-579.792	359.693	0.045	-0.092
-578.777	7.193	0.276	0.210
-577.763	-119.409	-0.245	0.043
-576.748	193.333	0.133	0.204
-575.733	439.213	0.124	-0.275
-574.719	-6.879	0.069	-0.048
-573.704	220.934	-0.096	0.158
-572.690	65.801	-0.266	-0.274
-571.675	-20.846	-0.227	-0.142
-570.661	674.195	-0.214	0.565
-569.646	625.678	0.053	0.136
-568.631	-1.727	-0.255	-0.183
-567.617	1.472	0.245	-0.179
-566.602	-53.738	0.227	-0.106
-565.588	-200.000	-0.000	0.016
-564.573	-73.856	-0.381	0.141
-563.558	76.357	0.142	0.153
-562.544	254.291	0.057	-0.100
-561.529	800.000	-0.077	0.271
-560.515	163.458	-0.078	-0.111
-559.500	409.256	-0.089	-0.192
-558.485	-101.252	0.090	-0.022
-557.471	-108.954	0.182	-0.040
-556.456	53.834	0.097	-0.095
-555.442	-200.000	-0.022	-0.176
-554.427	-11.023	0.291	-0.195
-553.412	-45.044	0.408	0.207
-552.398	-137.025	0.436	0.051
-551.383	-89.578	0.119	-0.036
-550.369	-112.980	-0.284	0.057
-549.354	-89.538	-0.302	-0.090
-548.339	-149.645	0.328	0.026
-547.325	-61.193	-0.232	-0.100
-546.310	40.862	0.096	0.088
-545.296	-200.000	-0.004	0.200
-544.281	800.000	-0.085	-0.297
-543.266	452.492	-0.101	0.226
-542.252	56.352	0.145	0.143
-541.237	-200.000	0.025	-0.447
-540.223	-155.680	0.229	-0.015
-539.208	81.320	-0.254	-0.279
-538.193	-200.000	-0.001	-0.342
-537.179	800.000	0.095	0.420
-536.164	296.266	-0.171	-0.320
-535.150	103.339	-0.120	0.143
-534.135	-115.458	-0.215	-0.041
-533.121	-200.000	-0.023	-0.132
-532.106	107.327	0.213	0.258
-531.091	-109.369	-0.105	-0.023
-530.077	-82.232	0.266	0.088
-529.062	800.000	-0.027	-0.090
-528.048	62.216	-0.201	-0.204
-527.033	-34.504	-0.159	0.088
-526.018	-200.000	0.025	-0.271
-525.004	-200.000	-0.028	-0.220
-523.989	-93.844	-0.013	0.004
-522.975	800.000	0.150	0.477
-521.960	-6.475	-0.163	-0.113
-520.945	9.833	-0.331	-0.255
-519.931	347.684	0.058	-0.115
-518.916	-106.188	0.268	-0.061
-517.902	-54.720	-0.222	0.102
-516.887	-200.000	-0.018	0.113
-515.872	88.824	0.117	-0.132
-514.858	782.467	0.068	-0.189
-513.843	-119.740	-0.287	0.050
-512.829	12.222	-0.104	0.081
-511.814	215.752	0.106	-0.172
-510.799	-110.000	0.073	0.016
-509.785	800.000	-0.034	0.125
-508.770	-44.980	-0.134	-0.068
-507.756	-98.912	0.008	-0.002
-506.741	-200.000	0.026	-0.208
-505.726	148.767	0.066	-0.090
-504.712	-78.373	0.105	-0.037
-503.697	-200.000	-0.064	-0.342
-502.683	-65.098	-0.302	0.124
-501.668	161.629	0.254	0.361
-500.653	-113.159	0.255	0.051
-499.639	6.864	-0.208	-0.157
-498.624	336.693	-0.142	-0.279
-497.610	-137.733	-0.269	-0.031
-496.595	-200.000	0.009	-0.126
-495.581	14.147	0.259	0.204
-494.566	-200.000	-0.044	0.239
-493.551	-93.443	-0.152	0.043
-492.537	800.000	-0.095	0.360
-491.522	134.785	-0.049	0.064
-490.508	89.894	-0.134	0.152
-489.493	26.889	0.192	-0.163
-488.478	133.671	-0.078	-0.102
-487.464	-50.411	0.436	0.209
-486.449	-143.393	-0.231	0.022
-485.435	31.705	-0.378	-0.330
-484.420	-199.572	-0.249	0.001
-483.405	664.490	0.127	0.333
-482.391	79.915	0.125	-0.137
-481.376	115.876	0.224	0.278
-480.362	-139.835	-0.083	-0.009
-479.347	-200.000	0.047	0.372
-478.332	-181.319	-0.209	-0.004
-477.318	-95.940	-0.160	0.043
-476.303	27.148	-0.216	0.184
-475.289	149.312	-0.122	-0.168
-474.274	-47.450	0.178	0.088
-473.259	94.288	-0.096	0.110
-472.245	-10.268	-0.113	-0.076
-471.230	332.191	-0.200	0.391
-470.216	90.895	0.069	0.079
-469.201	24.831	-0.123	-0.103
-468.186	4.719	0.175	0.131
-467.172	66.787	0.103	-0.106
-466.157	29.563	-0.138	-0.119
-465.143	666.577	0.081	0.213
-464.128	54.980	0.105	-0.103
-463.113	108.807	0.174	-0.211
-462.099	700.351	-0.061	-0.164
-461.084	523.910	0.076	-0.181
-460.070	254.925	0.134	0.232
-459.055	-94.768	0.122	-0.034
-458.040	-200.000	0.014	-0.091
-457.026	-200.000	0.017	-0.099
-456.011	800.000	-0.084	-0.325
-454.997	-11.660	0.151	-0.100
-453.982	-200.000	0.020	0.439
-452.968	685.865	-0.089	0.235
-451.953	13.161	0.082	0.064
-450.938	368.390	0.074	0.151
-449.924	-27.948	0.130	-0.077
-448.909	-50.237	0.201	-0.096
-447.895	142.519	0.088	-0.119
-446.880	-127.909	0.273	-0.040
-445.865	363.028	0.135	0.275
-444.851	-200.000	0.036	-0.166
-443.836	-136.540	0.055	-0.006
-442.822	-59.081	-0.132	-0.058
-441.807	111.456	0.040	-0.049
-440.792	485.647	-0.211	0.488
-439.778	-124.445	-0.077	-0.012
-438.763	-67.702	0.273	-0.108
-437.749	52.587	-0.122	-0.118
-436.734	-200.000	0.006	-0.198
-435.719	185.599	0.108	-0.163
-434.705	-200.000	-0.048	-0.218
-433.690	-200.000	0.043	-0.429
-432.676	-139.382	-0.328	0.036
-431.661	146.856	0.171	-0.232
-430.646	-200.000	0.021	0.164
-429.632	-200.000	0.004	0.260
-428.617	100.344	-0.178	-0.210
-427.603	33.451	0.275	0.241
-426.588	-90.845	0.194	0.056
-425.573	98.531	-0.128	0.150
-424.559	323.021	0.062	-0.119
-423.544	800.000	-0.042	0.176
-422.530	24.981	-0.056	-0.047
-421.515	-157.287	-0.173	-0.011
-420.500	16.516	-0.306	0.244
-419.486	83.216	0.325	0.358
-418.471	-105.009	0.127	-0.030
-417.457	-200.000	0.052	0.401
-416.442	504.380	0.109	0.255
-415.428	-7.860	-0.267	-0.182
-414.413	-144.693	-0.068	-0.006
-413.398	-94.003	-0.088	0.024
-412.384	-52.025	0.293	0.138
-411.369	-75.552	0.107	0.039
-410.355	-50.143	0.205	-0.098
-409.340	-55.503	-0.135	0.061
-408.325	86.315	-0.136	-0.152
-407.311	800.000	0.063	-0.218
-406.296	800.000	-0.064	0.226
-405.282	-88.101	-0.150	0.046
-404.267	800.000	-0.058	0.175
-403.252	-200.000	0.039	0.250
-402.238	-200.000	-0.039	0.232
-401.223	60.872	0.197	-0.197
-400.209	-124.751	0.050	-0.008
-399.194	-134.398	-0.233	0.029
-398.179	105.378	0.169	-0.202
-397.165	800.000	-0.101	0.353
-396.150	-80.835	-0.150	0.051
-395.136	-93.985	-0.143	-0.040
-394.121	110.210	0.125	-0.152
-393.106	48.775	-0.121	-0.114
-392.092	-47.204	-0.216	0.107
-391.077	-200.000	0.024	0.132
-390.063	-200.000	0.017	-0.313
-389.048	-200.000	0.009	0.061
-388.033	45.084	-0.069	-0.064
-387.019	428.639	0.123	0.269
-386.004	19.877	-0.279	-0.227
-384.990	-83.746	-0.277	0.089
-383.975	-75.076	0.225	-0.081
-382.960	-93.391	0.082	0.023
-381.946	505.580	0.054	0.127
-380.931	-69.676	0.309	-0.119
-379.917	-168.337	0.260	0.010
-378.902	-200.000	-0.016	-0.268
-377.888	-162.576	-0.277	-0.014
-376.873	141.745	0.059	0.079
-375.858	676.879	0.067	-0.175
-374.844	-66.176	0.238	-0.096
-373.829	-145.527	0.313	0.028
-372.815	185.459	0.137	-0.205
-371.800	556.002	0.042	-0.102
-370.785	-200.000	-0.030	-0.349
-369.771	-200.000	-0.005	-0.045
-368.756	-155.620	0.301	0.020
-367.742	800.000	0.047	0.186
-366.727	-173.467	-0.374	0.011
-365.712	-61.035	0.020	-0.009
-364.698	158.972	-0.252	-0.353
-363.683	-200.000	-0.041	-0.361
-362.669	65.338	0.119	-0.122
-361.654	-142.227	-0.235	0.023
-360.639	-200.000	0.019	-0.125
-359.625	-88.119	0.298	0.090
-358.610	-35.284	-0.217	-0.119
-357.596	-200.000	-0.020	0.423
-356.581	-75.740	-0.174	0.062
-355.566	193.173	0.068	-0.103
-354.552	-35.630	0.144	0.079
-353.537	-200.000	-0.266	-0.000
-352.523	-26.305	0.313	-0.186
-351.508	-109.787	0.330	0.070
-350.493	274.915	0.095	-0.169
-349.479	-112.109	0.163	0.033
-348.464	195.528	0.041	0.063
-347.450	-58.701	0.181	-0.079
-346.435	97.412	0.235	0.273
-345.420	-173.054	-0.268	0.008
-344.406	10.443	0.122	-0.094
-343.391	-14.015	-0.096	0.063
-342.377	-100.629	-0.081	0.020
-341.362	-200.000	0.011	0.102
-340.348	291.733	-0.114	-0.209
-339.333	-200.000	0.008	-0.275
-338.318	202.712	0.135	0.210
-337.304	-48.746	0.190	0.092
-336.289	224.943	-0.180	0.294
-335.275	-97.979	0.076	-0.020
-334.260	42.929	-0.061	-0.056
-333.245	-69.821	-0.404	0.155
-332.231	-27.426	-0.112	-0.066
-331.216	356.103	-0.140	0.281
-330.202	-153.335	0.091	-0.006
-329.187	256.861	0.132	-0.229
-328.172	-38.042	0.077	0.041
-327.158	-138.374	0.146	0.016
-326.143	-117.281	0.040	0.007
-325.129	-200.000	-0.000	-0.128
-324.114	800.000	0.047	-0.170
-323.099	-200.000	0.039	-0.353
-322.085	-76.954	-0.156	-0.055
-321.070	-200.000	-0.001	0.140
-320.056	-108.784	-0.159	0.034
-319.041	-200.000	0.089	-0.422
-318.026	450.434	0.055	0.123
-317.012	-2.105	0.306	-0.216
-315.997	800.000	-0.064	-0.245
-314.983	800.000	-0.017	-0.055
-313.968	800.000	-0.092	-0.256
-312.953	166.597	-0.138	0.197
-311.939	-71.215	-0.226	-0.086
-310.924	558.921	0.146	0.356
-309.910	800.000	0.087	-0.243
-308.895	30.953	-0.171	-0.147
-307.880	-170.195	0.170	0.006
-306.866	308.738	0.066	0.125
-305.851	437.459	0.130	-0.286
-304.837	800.000	0.112	-0.342
-303.822	-84.062	0.087	-0.028
-302.807	-49.140	-0.069	-0.033
-301.793	-103.919	-0.178	0.042
-300.778	-149.652	-0.110	-0.009
-299.764	-129.129	0.188	-0.026
-298.749	55.581	0.083	-0.081
-297.735	-70.715	-0.405	0.154
-296.720	189.558	0.051	-0.077
-295.705	521.381	0.051	0.120
-294.691	-50.401	-0.225	-0.107
-293.676	-200.000	0.013	-0.258
-292.662	55.949	-0.069	-0.068
-291.647	-96.804	-0.246	0.065
-290.632	-147.195	0.143	-0.012
-289.618	-106.799	0.280	-0.063
-288.603	128.755	0.103	-0.133
-287.589	-95.336	-0.159	0.043
-286.574	-200.000	-0.030	0.166
-285.559	-43.768	-0.266	0.135
-284.545	667.107	0.006	-0.015
-283.530	31.133	-0.121	-0.104
-282.516	-45.898	0.260	-0.129
-281.501	279.420	0.151	0.272
-280.486	55.491	0.167	-0.163
-279.472	-68.610	-0.404	-0.158
-278.457	196.573	-0.064	0.098
-277.443	-200.000	-0.013	-0.091
-276.428	357.958	0.062	-0.125
-275.413	87.881	-0.256	0.286
-274.399	-79.347	-0.073	-0.025
-273.384	-200.000	-0.039	-0.184
-272.370	163.867	-0.092	0.130
-271.355	80.143	0.113	0.123
-270.340	354.894	0.034	0.068
-269.326	596.470	0.066	-0.165
-268.311	-57.566	-0.154	-0.068
-267.297	-19.815	0.128	0.080
-266.282	10.606	-0.102	-0.078
-265.267	96.170	0.242	-0.278
-264.253	-8.220	-0.086	0.058
-263.238	-200.000	-0.066	0.305
-262.224	450.060	-0.129	0.287
-261.209	800.000	0.046	0.136
-260.195	-17.199	-0.180	0.114
-259.180	-34.246	-0.134	0.074
-258.165	-36.232	-0.315	-0.171
-257.151	253.467	0.125	-0.215
-256.136	800.000	0.160	-0.584
-255.122	-151.656	-0.216	0.016
-254.107	175.607	0.128	-0.187
-253.092	129.857	0.252	0.324
-252.078	-14.462	-0.201	-0.130
-251.063	800.000	0.047	-0.194
-250.049	-76.363	0.193	0.068
-249.034	-200.000	0.009	-0.280
-248.019	-200.000	0.016	0.212
-247.005	-200.000	-0.026	0.442
-245.990	202.260	0.030	0.047
-244.976	7.692	0.076	0.057
-243.961	-7.916	0.172	-0.117
-242.946	800.000	-0.065	0.268
-241.932	-99.996	0.445	0.112
-240.917	439.264	0.144	-0.317
-239.903	800.000	-0.086	0.250
-238.888	59.692	-0.033	-0.033
-237.873	67.322	-0.178	-0.182
-236.859	-105.018	0.102	0.024
-235.844	-69.410	-0.311	0.120
-234.830	800.000	0.031	0.095
-233.815	69.944	-0.096	0.100
-232.800	486.750	-0.023	-0.054
-231.786	800.000	0.082	-0.232
-230.771	-200.000	0.033	-0.327
-229.757	-127.500	-0.229	0.033
-228.742	-76.063	-0.207	0.073
-227.727	800.000	0.043	0.162
-226.713	-200.000	0.027	0.128
-225.698	40.161	0.134	0.121
-224.684	774.870	-0.028	0.076
-223.669	800.000	0.051	0.209
-222.655	800.000	0.030	0.100
-221.640	-28.606	0.285	0.165
-220.625	290.964	0.136	0.248
-219.611	-200.000	0.026	0.270
-218.596	219.077	-0.123	0.197
-217.582	-4.038	0.146	0.101
-216.567	147.431	-0.166	-0.225
-215.552	-146.109	-0.183	0.016
-214.538	105.749	-0.241	0.287
-213.523	2.242	0.193	-0.140
-212.509	800.000	0.072	-0.213
-211.494	327.403	0.120	-0.231
-210.479	-200.000	0.004	0.417
-209.465	-200.000	0.069	0.433
-208.450	800.000	-0.044	-0.135
-207.436	-65.881	0.346	0.139
-206.421	-0.227	0.300	0.214
-205.406	-68.560	-0.137	0.053
-204.392	214.410	0.040	-0.064
-203.377	-200.000	-0.017	0.296
-202.363	498.262	0.045	-0.103
-201.348	-145.836	-0.138	0.012
-200.333	-134.671	-0.140	-0.017
-199.319	-200.000	-0.048	-0.247
-198.304	-67.771	-0.257	-0.101
-197.290	505.034	0.119	-0.276
-196.275	304.990	0.137	-0.255
-195.260	-91.152	0.197	-0.057
-194.246	397.410	-0.093	-0.195
-193.231	-150.407	-0.056	0.004
-192.217	800.000	0.074	0.261
-191.202	-200.000	-0.021	0.439
-190.187	184.144	0.106	-0.157
-189.173	203.615	-0.091	0.141
-188.158	-33.349	0.158	0.087
-187.144	105.869	-0.179	-0.213
-186.129	-46.142	0.137	0.068
-185.114	-35.246	-0.115	0.063
-184.100	10.055	-0.273	0.208
-183.085	75.598	-0.119	-0.126
-182.071	479.246	-0.130	0.296
-181.056	14.556	-0.198	0.155
-180.042	800.000	-0.045	-0.172
-179.027	-37.292	-0.077	-0.041
-178.012	-133.510	0.134	0.017
-176.998	-200.000	-0.029	-0.363
-175.983	210.635	-0.151	-0.237
-174.969	-73.758	0.182	0.066
-173.954	175.331	0.169	0.245
-172.939	-79.159	0.029	0.010
-171.925	-6.359	0.201	0.137
-170.910	-87.747	-0.145	0.044
-169.896	7.774	-0.140	0.105
-168.881	274.900	0.200	0.355
-167.866	115.700	0.096	-0.118
-166.852	-200.000	0.004	0.109
-165.837	89.590	0.153	0.171
-164.823	9.388	-0.165	-0.125
-163.808	186.495	0.110	0.164
-162.793	-36.952	0.289	0.155
-161.779	111.968	0.087	0.105
-160.764	-18.395	-0.225	-0.141
-159.750	800.000	-0.050	-0.210
-158.735	57.434	0.095	-0.093
-157.720	607.674	-0.059	0.148
-156.706	-172.580	0.178	-0.006
-155.691	-8.665	0.390	-0.262
-154.677	-40.355	-0.329	-0.171
-153.662	-101.200	0.167	0.041
-152.647	-21.292	0.123	0.075
-151.633	35.045	-0.078	-0.069
-150.618	247.660	-0.144	0.243
-149.604	366.800	-0.121	-0.245
-148.589	558.244	0.097	0.235
-147.574	800.000	0.066	-0.249
-146.560	164.902	0.109	0.154
-145.545	143.056	0.144	0.192
-144.531	696.684	-0.039	0.102
-143.516	2.030	0.284	0.205
-142.502	6.657	0.075	0.056
-141.487	142.733	-0.061	-0.081
-140.472	14.978	0.134	-0.105
-139.458	-93.990	0.133	0.036
-138.443	299.391	-0.089	0.164
-137.429	148.041	0.284	0.384
-136.414	-147.008	-0.272	0.023
-135.399	262.695	-0.107	-0.187
-134.385	7.543	-0.213	0.160
-133.370	-200.000	-0.000	-0.066
-132.356	368.864	-0.164	0.332
-131.341	800.000	-0.098	0.300
-130.326	800.000	-0.050	0.167
-129.312	155.663	-0.271	0.374
-128.297	46.617	0.172	0.160
-127.283	40.947	0.189	0.171
-126.268	438.773	-0.211	-0.460
-125.253	472.463	0.131	-0.296
-124.239	93.416	0.064	0.072
-123.224	0.634	0.120	0.086
-122.210	437.532	0.035	0.076
-121.195	-151.284	0.268	0.020
-120.180	356.767	0.067	0.134
-119.166	5.547	-0.192	0.142
-118.151	-200.000	-0.007	0.050
-117.137	800.000	-0.032	-0.109
-116.122	165.158	-0.220	0.311
-115.107	-2.484	-0.124	-0.087
-114.093	-53.347	0.302	-0.138
-113.078	-114.784	0.288	-0.055
-112.064	-71.838	-0.106	-0.039
-111.049	-80.910	-0.249	0.083
-110.034	-73.461	-0.145	-0.053
-109.020	-59.386	-0.422	0.181
-108.005	-69.905	0.276	-0.105
-106.991	-123.466	-0.263	-0.042
-105.976	800.000	-0.057	-0.186
-104.962	510.627	0.039	-0.091
-103.947	633.289	0.039	0.100
-102.932	-53.224	0.241	-0.110
-101.918	800.000	-0.033	0.111
-100.903	139.414	0.129	0.170
-99.889	-36.053	0.322	-0.174
-98.874	-94.515	-0.436	-0.119
-97.859	98.826	-0.107	0.123
-96.845	159.957	-0.235	0.327
-95.830	-67.793	-0.265	-0.104
-94.816	108.153	0.067	0.080
-93.801	319.581	0.109	0.207
-92.786	270.807	0.058	-0.101
-91.772	434.536	0.095	-0.206
-90.757	-47.787	-0.350	0.170
-89.743	800.000	0.114	-0.371
-88.728	-166.429	-0.057	-0.002
-87.713	183.216	-0.231	0.340
-86.699	161.075	0.136	0.190
-85.684	1.050	0.201	0.144
-84.670	500.737	-0.147	0.338
-83.655	-80.318	-0.186	0.062
-82.640	103.905	-0.066	0.078
-81.626	-59.423	0.158	0.068
-80.611	-200.000	-0.019	-0.168
-79.597	-200.000	-0.017	-0.109
-78.582	-25.143	0.122	-0.072
-77.567	-37.814	-0.180	-0.096
-76.553	182.992	-0.115	0.169
-75.538	-200.000	-0.009	0.226
-74.524	-200.000	0.002	0.219
-73.509	-8.164	-0.238	-0.160
-72.494	-118.938	-0.266	0.047
-71.480	108.917	-0.048	-0.057
-70.465	-200.000	0.029	0.362
-69.451	-66.994	-0.090	-0.036
-68.436	-56.690	-0.185	-0.082
-67.422	232.824	-0.095	0.155
-66.407	199.270	0.029	-0.044
-65.392	-200.000	0.015	-0.121
-64.378	-31.724	-0.039	-0.022
-63.363	35.414	-0.201	0.176
-62.349	-74.517	0.298	0.107
-61.334	-32.229	-0.596	-0.332
-60.319	341.729	0.250	0.487
-59.305	-200.000	-0.062	-0.860
-58.290	68.149	0.321	0.328
-57.276	524.150	0.627	1.471
-56.261	-200.000	69.992	532.900
-55.246	593.339	1270.178	3132.228
-54.232	139.344	2531.328	3323.432
-53.217	120.773	2267.430	2812.709
-52.203	55.945	1785.855	1728.432
-51.188	47.863	1577.527	1469.867
-50.173	44.862	1546.611	1420.139
-49.159	60.427	1579.454	1559.764
-48.144	68.306	1599.780	1634.946
-47.130	48.292	1563.884	1459.931
-46.115	44.424	1549.514	1419.518
-45.100	44.224	1546.392	1415.208
-44.086	44.196	1544.466	1413.196
-43.071	44.085	1542.828	1410.866
-42.057	44.164	1540.742	1409.452
-41.042	44.133	1539.001	1407.592
-40.027	44.140	1537.554	1406.262
-39.013	44.254	1535.873	1405.458
-37.998	44.112	1534.794	1403.430
-36.984	44.188	1533.756	1402.947
-35.969	44.234	1532.048	1401.649
-34.954	44.237	1531.016	1400.669
-33.940	44.151	1529.618	1398.740
-32.925	44.195	1527.907	1397.429
-31.911	44.257	1526.627	1396.626
-30.896	44.189	1525.222	1394.818
-29.881	44.243	1523.907	1393.931
-28.867	44.241	1522.368	1392.457
-27.852	44.267	1520.460	1390.830
-26.838	44.293	1518.846	1389.476
-25.823	44.187	1517.101	1387.102
-24.809	44.153	1515.595	1385.441
-23.794	44.178	1514.250	1384.326
-22.779	44.188	1513.042	1383.232
-21.765	44.210	1511.832	1382.221
-20.750	44.192	1510.790	1381.092
-19.736	44.193	1510.151	1380.458
-18.721	44.060	1508.808	1378.272
-17.706	44.148	1507.632	1377.739
-16.692	44.167	1505.888	1376.226
-15.677	44.206	1505.400	1375.988
-14.663	44.094	1504.358	1374.220
-13.648	44.195	1503.390	1373.963
-12.633	44.028	1502.343	1371.825
-11.619	44.089	1501.528	1371.438
-10.604	44.031	1501.104	1370.605
-9.590	44.034	1499.934	1369.502
-8.575	44.083	1499.017	1368.941
-7.560	44.106	1498.154	1368.253
-6.546	44.022	1497.164	1366.731
-5.531	44.139	1495.912	1366.317
-4.517	44.020	1494.965	1364.599
-3.502	44.129	1493.954	1364.354
-2.487	44.127	1492.993	1363.408
-1.473	44.084	1491.161	1361.395
-0.458	44.252	1489.961	1361.374
0.556	42.378	1481.246	1351.929
1.571	39.747	1453.283	1308.867
2.586	35.379	1387.708	1221.949
3.600	32.521	1301.924	1129.203
4.615	29.765	1252.241	1070.091
5.629	25.571	1194.581	997.521
6.644	15.727	1104.086	871.141
7.659	7.382	1057.201	792.523
8.673	5.934	1051.053	780.649
9.688	5.641	1048.259	777.049
10.702	5.579	1046.554	775.411
11.717	5.556	1045.463	774.421
12.731	8.759	1048.781	792.681
13.746	16.857	1059.863	841.341
14.761	20.331	1063.940	861.780
15.775	18.436	1059.875	849.032
16.790	16.783	1056.890	838.391
17.804	15.805	1054.476	831.573
18.819	14.873	1052.809	825.584
19.834	14.397	1051.197	821.901
20.848	13.959	1050.368	819.018
21.863	13.695	1050.004	817.361
22.877	13.543	1048.575	815.430
23.892	13.420	1047.394	813.832
24.907	13.300	1047.007	812.871
25.921	13.329	1046.418	812.484
26.936	13.365	1045.081	811.552
27.950	13.336	1044.627	810.982
28.965	13.356	1043.828	810.389
29.980	13.452	1042.114	809.456
30.994	13.501	1040.743	808.561
32.009	13.580	1039.850	808.182
33.023	13.571	1039.128	807.506
34.038	13.530	1038.268	806.563
35.053	13.358	1037.818	805.306
36.067	13.456	1036.432	804.633
37.082	13.436	1035.462	803.712
38.096	13.481	1034.715	803.283
39.111	13.418	1034.266	802.558
40.126	13.546	1033.277	802.335
41.140	13.310	1032.821	800.768
42.155	13.226	1031.026	798.903
43.169	13.221	1029.903	797.937
44.184	13.288	1029.029	797.512
45.199	13.062	1028.312	795.799
46.213	13.176	1026.973	795.237
47.228	13.132	1025.921	794.143
48.242	13.327	1024.912	794.226
49.257	13.387	1024.180	793.877
50.271	13.365	1022.863	792.683
51.286	13.294	1022.151	791.720
52.301	13.280	1022.009	791.471
53.315	13.378	1020.736	790.884
54.330	13.271	1020.145	789.846
55.344	13.252	1019.001	788.797
56.359	13.256	1017.790	787.811
57.374	13.251	1017.260	787.308
58.388	13.216	1016.503	786.483
59.403	13.291	1015.381	785.906
60.417	13.245	1014.133	784.650
61.432	13.195	1014.115	784.332
62.447	13.132	1013.067	783.149
63.461	13.093	1012.092	782.145
64.476	13.070	1011.412	781.438
65.490	13.174	1010.105	780.853
66.505	13.207	1009.453	780.436
67.520	13.105	1008.926	779.477
68.534	13.151	1007.879	778.817
69.549	13.130	1007.450	778.315
70.563	13.169	1006.395	777.617
71.578	13.202	1006.056	777.440
72.593	13.110	1005.016	776.136
73.607	13.107	1003.927	775.211
74.622	13.135	1002.623	774.267
75.636	13.036	1002.290	773.478
76.651	12.993	1001.552	772.638
77.666	13.001	1001.008	772.189
78.680	13.163	999.864	771.995
79.695	13.006	999.729	771.087
80.709	13.017	999.260	770.712
81.724	13.056	998.483	770.225
82.739	13.267	997.696	770.535
83.753	13.291	996.798	769.885
84.768	13.357	995.904	769.432
85.782	13.468	994.835	769.054
86.797	13.576	994.828	769.483
87.812	13.519	993.225	767.909
88.826	13.323	992.885	766.672
89.841	13.360	991.773	765.913
90.855	13.498	991.083	765.951
91.870	13.380	990.917	765.212
92.884	13.525	989.751	764.913
93.899	13.482	988.935	764.013
94.914	13.547	987.805	763.373
95.928	13.529	987.524	763.009
96.943	13.630	986.624	762.710
97.957	13.539	985.524	761.375
98.972	13.400	984.727	760.052
99.987	13.471	984.194	759.900
101.001	13.291	983.806	758.705
102.016	13.442	982.530	758.347
103.030	13.489	981.425	757.640
104.045	13.455	980.556	756.747
105.060	13.426	979.497	755.732
106.074	13.406	978.763	755.008
107.089	13.298	977.965	753.831
108.103	13.181	977.152	752.606
109.118	13.051	976.270	751.267
110.133	13.144	975.310	750.886
111.147	13.310	973.930	750.510
112.162	13.119	973.546	749.282
113.176	13.157	972.925	748.911
114.191	13.249	971.887	748.461
115.206	13.510	970.247	748.311
116.220	13.377	970.218	747.624
117.235	13.182	969.494	746.119
118.249	13.279	968.804	745.960
119.264	13.180	967.722	744.612
120.279	13.197	967.020	744.084
121.293	13.284	965.816	743.483
122.308	13.259	965.263	742.879
123.322	13.216	964.232	741.829
124.337	13.141	963.327	740.728
125.352	13.195	962.483	740.256
126.366	13.126	961.333	738.996
127.381	13.150	960.455	738.364
128.395	13.122	959.435	737.389
129.410	13.092	958.366	736.369
130.424	13.190	957.715	736.243
131.439	13.329	956.655	735.978
132.454	13.337	955.759	735.258
133.468	13.524	954.832	735.311
134.483	13.345	954.649	734.313
135.497	13.462	953.638	733.988
136.512	13.506	952.727	733.418
137.527	13.366	952.286	732.393
138.541	13.451	951.212	731.880
139.556	13.409	950.891	731.380
140.570	13.419	950.279	730.889
141.585	13.498	948.878	730.096
142.600	13.443	949.159	730.006
143.614	13.592	947.977	729.686
144.629	13.709	947.215	729.550
145.643	13.632	946.575	728.656
146.658	13.508	946.088	727.668
147.673	13.526	944.988	726.840
148.687	13.374	944.302	725.583
149.702	13.414	943.122	724.783
150.716	13.349	942.400	723.881
151.731	13.379	941.490	723.250
152.746	13.366	940.530	722.392
153.760	13.337	940.171	721.924
154.775	13.365	939.190	721.231
155.789	13.369	938.443	720.609
156.804	13.536	937.879	720.838
157.819	13.534	937.269	720.297
158.833	13.595	936.451	719.871
159.848	13.543	936.019	719.248
160.862	13.548	935.387	718.722
161.877	13.630	934.863	718.612
162.892	13.507	933.530	716.989
163.906	13.459	932.421	715.868
164.921	13.495	931.812	715.491
165.935	13.505	930.729	714.641
166.950	13.411	930.183	713.752
167.964	13.491	929.407	713.440
168.979	13.461	928.309	712.407
169.994	13.435	927.278	711.439
171.008	13.512	926.243	710.913
172.023	13.532	925.521	710.382
173.037	13.710	924.738	710.480
174.052	13.735	923.943	709.913
175.067	13.699	923.614	709.443
176.081	13.565	922.878	708.240
177.096	13.466	922.212	707.244
178.110	13.579	920.952	706.699
179.125	13.552	920.519	706.190
180.140	13.619	919.641	705.739
181.154	13.562	918.617	704.647
182.169	13.466	918.482	704.074
183.183	13.667	917.787	704.331
184.198	13.792	916.661	703.934
185.213	13.796	916.544	703.802
186.227	13.751	915.770	702.951
187.242	13.803	915.563	702.954
188.256	13.729	914.885	702.057
189.271	13.944	913.840	702.100
190.286	13.917	912.666	701.023
191.300	13.798	912.151	700.065
192.315	13.584	911.386	698.512
193.329	13.481	910.523	697.356
194.344	13.472	910.076	696.913
195.359	13.570	909.416	696.758
196.373	13.793	908.874	697.219
197.388	13.837	908.278	696.886
198.402	13.991	907.841	697.133
199.417	13.946	907.783	696.839
200.432	14.149	906.795	696.868
201.446	13.975	906.908	696.167
202.461	14.127	906.462	696.400
203.475	14.159	906.130	696.214
204.490	14.175	905.069	695.405
205.504	14.177	904.341	694.794
206.519	14.013	903.549	693.437
207.534	13.983	902.759	692.645
208.548	14.092	901.858	692.346
209.563	14.052	901.283	691.679
210.577	14.035	900.601	691.025
211.592	14.005	900.169	690.505
212.607	14.027	900.038	690.435
213.621	14.261	899.137	690.654
214.636	14.228	898.127	689.682
215.650	14.202	897.481	689.016
216.665	14.221	897.150	688.779
217.680	14.265	896.964	688.759
218.694	14.230	896.447	688.156
219.709	14.425	895.454	688.140
220.723	14.300	895.259	687.411
221.738	14.142	894.720	686.283
222.753	14.180	893.856	685.717
223.767	14.258	893.108	685.404
224.782	14.274	892.606	685.025
225.796	14.352	891.528	684.457
226.811	14.381	890.748	683.914
227.826	14.427	889.867	683.369
228.840	14.500	889.074	683.000
229.855	14.305	888.839	681.958
230.869	14.368	888.244	681.698
231.884	14.313	887.265	680.661
232.899	14.235	886.768	679.900
233.913	14.251	886.151	679.436
234.928	14.409	885.260	679.335
235.942	14.246	884.826	678.278
236.957	14.249	883.993	677.592
237.972	14.221	883.761	677.238
238.986	14.066	883.474	676.329
240.001	14.219	882.534	676.173
241.015	14.385	881.478	675.976
242.030	14.277	880.901	675.035
243.045	14.450	880.441	675.323
244.059	14.486	879.905	674.998
245.074	14.397	879.237	674.066
246.088	14.519	878.594	674.010
247.103	14.510	877.962	673.429
248.117	14.552	877.233	672.977
249.132	14.528	876.895	672.562
250.147	14.612	876.315	672.395
251.161	14.839	875.622	672.720
252.176	14.817	875.171	672.226
253.190	14.856	874.347	671.688
254.205	14.889	873.787	671.330
255.220	14.873	873.048	670.640
256.234	14.956	872.395	670.413
257.249	14.852	872.176	669.768
258.263	14.990	870.952	669.322
259.278	15.073	870.595	669.320
260.293	15.033	870.038	668.672
261.307	15.012	869.614	668.205
262.322	15.004	868.864	667.534
263.336	15.040	868.498	667.337
264.351	15.217	867.793	667.443
265.366	15.167	866.992	666.568
266.380	15.105	866.588	665.952
267.395	15.070	865.946	665.261
268.409	15.235	864.763	664.948
269.424	15.067	864.417	663.959
270.439	15.060	863.794	663.393
271.453	15.066	863.115	662.838
272.468	14.978	862.450	661.921
273.482	14.970	861.372	661.002
274.497	15.017	861.180	660.982
275.512	14.967	860.601	660.280
276.526	15.102	859.182	659.666
277.541	14.956	859.199	659.044
278.555	15.059	858.687	659.001
279.570	15.018	858.078	658.314
280.585	15.233	857.259	658.470
281.599	15.307	856.709	658.280
282.614	15.131	856.302	657.220
283.628	15.296	855.404	657.117
284.643	15.368	854.557	656.693
285.657	15.177	854.462	655.815
286.672	15.114	854.025	655.173
287.687	15.177	853.509	654.965
288.701	15.199	853.008	654.608
289.716	15.295	852.450	654.496
290.730	15.290	851.770	653.896
291.745	15.369	851.136	653.661
292.760	15.338	850.570	653.046
293.774	15.401	849.885	652.709
294.789	15.506	849.235	652.558
295.803	15.562	848.814	652.395
296.818	15.405	848.266	651.310
297.833	15.293	847.776	650.441
298.847	15.353	847.046	650.055
299.862	15.338	846.183	649.277
300.876	15.602	845.475	649.697
301.891	15.534	844.798	648.857
302.906	15.716	843.927	648.832
303.920	15.495	843.574	647.652
304.935	15.788	842.705	648.054
305.949	15.704	842.144	647.245
306.964	15.764	841.782	647.140
307.979	15.681	841.247	646.353
308.993	15.682	840.786	645.945
310.008	15.641	840.509	645.517
311.022	15.722	840.110	645.465
312.037	15.755	839.017	644.694
313.052	15.830	838.488	644.517
314.066	15.658	838.140	643.536
315.081	15.518	837.514	642.460
316.095	15.653	836.904	642.454
317.110	15.663	836.801	642.356
318.125	15.582	835.788	641.211
319.139	15.665	835.484	641.238
320.154	15.664	834.618	640.513
321.168	15.660	834.687	640.492
322.183	15.735	833.773	640.022
323.197	15.681	833.500	639.549
324.212	15.724	832.790	639.113
325.227	15.712	832.408	638.715
326.241	15.749	831.501	638.104
327.256	15.645	831.257	637.464
328.270	15.680	830.815	637.204
329.285	15.669	830.486	636.852
330.300	15.714	829.610	636.295
331.314	15.735	829.272	636.058
332.329	15.742	828.124	635.150
333.343	15.828	827.687	635.080
334.358	15.875	827.088	634.743
335.373	15.828	826.787	634.279
336.387	15.814	826.587	634.015
337.402	15.962	825.796	633.910
338.416	15.993	825.024	633.378
339.431	15.880	824.764	632.698
340.446	16.117	823.769	632.768
341.460	16.112	823.297	632.331
342.475	16.175	822.876	632.188
343.489	16.126	822.696	631.811
344.504	16.278	821.866	631.686
345.519	16.306	821.215	631.233
346.533	16.276	820.535	630.542
347.548	16.392	820.230	630.687
348.562	16.236	819.985	629.859
349.577	16.145	819.159	628.829
350.592	16.088	818.471	628.036
351.606	16.196	818.301	628.252
352.621	16.188	817.487	627.541
353.635	16.261	817.229	627.560
354.650	16.160	817.024	626.970
355.665	16.143	816.650	626.563
356.679	16.318	815.928	626.605
357.694	16.199	815.710	625.939
358.708	16.346	815.275	626.097
359.723	16.346	814.147	625.172
360.738	16.363	813.706	624.842
361.752	16.201	813.599	624.104
362.767	16.215	812.900	623.566
363.781	16.440	812.035	623.677
364.796	16.446	812.119	623.711
365.810	16.545	811.527	623.565
366.825	16.437	811.619	623.182
367.840	16.563	811.297	623.343
368.854	16.614	810.675	623.001
369.869	16.660	809.995	622.591
370.883	16.500	809.368	621.464
371.898	16.625	808.612	621.289
372.913	16.549	808.642	620.976
373.927	16.635	807.663	620.487
374.942	16.680	807.148	620.201
375.956	16.612	806.478	619.381
376.971	16.723	805.795	619.208
377.986	16.712	805.412	618.820
379.000	16.859	804.899	618.909
380.015	16.762	804.600	618.270
381.029	16.732	804.439	617.980
382.044	16.819	803.256	617.336
383.059	16.829	802.752	616.927
384.073	16.816	802.611	616.718
385.088	16.935	801.954	616.593
386.102	16.847	801.326	615.733
387.117	16.829	800.581	615.043
388.132	16.778	800.034	614.385
389.146	16.725	800.282	614.327
390.161	16.874	799.447	614.171
391.175	16.931	799.121	614.071
392.190	16.883	798.771	613.577
393.205	16.990	798.031	613.340
394.219	16.784	798.030	612.541
395.234	16.937	797.226	612.421
396.248	16.846	796.741	611.666
397.263	16.683	796.636	610.942
398.278	16.668	796.040	610.379
399.292	16.859	795.328	610.466
400.307	16.781	794.977	609.863
401.321	16.745	794.761	609.514
402.336	16.803	794.288	609.303
403.350	16.832	793.929	609.077
404.365	16.892	793.391	608.829
405.380	16.885	792.958	608.419
406.394	17.114	792.760	609.032
407.409	17.221	791.906	608.707
408.423	17.063	791.786	607.994
409.438	17.208	791.292	608.079
410.453	17.217	790.565	607.500
411.467	17.275	790.649	607.718
412.482	17.281	789.859	607.078
413.496	17.339	789.213	606.735
414.511	17.361	789.467	606.956
415.526	17.289	788.691	606.048
416.540	17.291	788.125	605.565
417.555	17.266	787.944	605.284
418.569	17.311	787.365	604.945
419.584	17.340	786.648	604.445
420.599	17.500	785.980	604.446
421.613	77.956	1236.069	1275.324
422.628	65.606	1301.686	1275.468
