DTS Sentinel unit serial number:	SN413079Multiplexer serial number:	ORYXHardware model number:	OX4-SRSoftware version number:	ORYX F/W v4.00 Oryx Data Collector v3.7.2.0data status	okinstallation	princeton_trtdifferential loss correction	single-endedforward channel	channel 3reverse channel	N/Adate	2019/09/18time	17:28:35forward acquisition time	60.00reverse acquisition time	0.00gamma	496.2192k internal	0.2291k external	0.2291temperature offset calibration	0.9991default loss term (dB/km)	0.3790temperature slope calibration	1.0000multiplexer offset coefficient	1.0000multiplexer slope coefficient	1.0000fibre end	0.00T internal ref (°C)	40.08T ext. ref 1 (°C)	0.92T ext. ref 2 (°C)	36.71length (m)	temperature (°C)	Stokes	anti-Stokes-747.200	-200.000	-0.014	0.354
-746.185	715.576	0.108	0.293
-745.171	696.980	0.167	0.450
-744.156	-200.000	-0.070	0.331
-743.142	59.429	-0.105	-0.106
-742.127	181.017	0.099	0.149
-741.112	-6.763	-0.343	0.239
-740.098	-200.000	-0.044	0.347
-739.083	-186.079	-0.141	-0.002
-738.069	-133.822	-0.208	0.027
-737.054	-21.002	0.180	0.113
-736.039	145.516	-0.343	-0.470
-735.025	-156.601	0.194	-0.012
-734.010	582.389	-0.053	0.134
-732.996	167.549	0.072	-0.105
-731.981	-53.085	-0.145	0.068
-730.966	800.000	-0.030	-0.124
-729.952	-41.397	-0.352	-0.186
-728.937	800.000	-0.034	0.118
-727.923	496.423	0.133	-0.314
-726.908	800.000	-0.030	0.095
-725.894	587.074	0.100	-0.253
-724.879	-187.474	0.241	-0.003
-723.864	-200.000	-0.037	-0.175
-722.850	800.000	-0.074	-0.223
-721.835	-147.385	0.027	-0.002
-720.821	444.271	-0.214	0.480
-719.806	-113.164	-0.194	-0.039
-718.791	-154.327	0.077	0.005
-717.777	-69.804	0.070	-0.027
-716.762	87.543	-0.226	0.256
-715.748	252.577	0.143	0.249
-714.733	-200.000	-0.016	0.254
-713.718	44.942	-0.366	-0.345
-712.704	175.026	-0.117	-0.173
-711.689	39.374	0.300	-0.275
-710.675	-1.469	-0.230	-0.166
-709.660	-200.000	-0.003	0.118
-708.645	-200.000	-0.022	0.203
-707.631	-2.084	-0.147	0.105
-706.616	800.000	0.100	-0.333
-705.602	-200.000	0.036	-0.279
-704.587	-65.172	-0.474	-0.195
-703.572	145.902	0.113	-0.156
-702.558	-200.000	-0.074	-0.395
-701.543	-200.000	-0.012	-0.058
-700.529	800.000	-0.036	-0.131
-699.514	-85.018	0.212	0.068
-698.499	-118.706	-0.198	0.036
-697.485	83.343	-0.376	-0.418
-696.470	-65.627	-0.051	0.021
-695.456	-153.762	0.175	0.012
-694.441	10.573	0.202	0.158
-693.426	223.481	-0.046	-0.075
-692.412	-40.841	-0.071	-0.038
-691.397	78.021	0.203	-0.221
-690.383	-73.686	-0.097	-0.036
-689.368	6.524	-0.154	-0.117
-688.354	-40.567	0.187	0.099
-687.339	-200.000	-0.009	0.151
-686.324	181.469	0.073	-0.110
-685.310	-34.630	-0.329	-0.184
-684.295	-200.000	-0.012	0.157
-683.281	800.000	-0.011	-0.040
-682.266	176.157	-0.102	0.152
-681.251	360.773	0.156	0.319
-680.237	-25.986	-0.183	-0.110
-679.222	99.100	0.179	-0.212
-678.208	-88.790	-0.103	0.031
-677.193	-87.141	-0.152	0.047
-676.178	67.997	0.172	-0.179
-675.164	53.689	0.086	0.084
-674.149	173.632	0.085	0.125
-673.135	36.701	0.161	-0.145
-672.120	-79.357	0.214	-0.074
-671.105	-200.000	0.054	0.246
-670.091	-175.807	-0.251	-0.007
-669.076	800.000	0.106	-0.358
-668.062	227.863	-0.056	0.093
-667.047	-200.000	0.003	0.024
-666.032	-68.609	0.142	-0.056
-665.018	322.493	-0.111	-0.215
-664.003	-143.412	0.116	-0.011
-662.989	-200.000	0.036	-0.245
-661.974	10.365	-0.086	0.067
-660.959	800.000	-0.055	0.156
-659.945	429.233	0.178	-0.393
-658.930	-36.373	0.170	-0.094
-657.916	-44.613	0.151	0.077
-656.901	73.517	0.097	0.103
-655.886	167.868	0.093	-0.135
-654.872	52.836	-0.287	0.280
-653.857	-200.000	-0.052	-0.236
-652.843	-101.927	-0.105	0.026
-651.828	-122.376	0.302	-0.050
-650.814	-158.385	0.080	-0.005
-649.799	-200.000	-0.035	0.202
-648.784	-92.996	-0.161	-0.046
-647.770	-123.537	-0.493	-0.080
-646.755	118.040	-0.057	0.071
-645.741	-200.000	0.007	0.119
-644.726	-200.000	-0.013	-0.065
-643.711	140.938	0.238	0.321
-642.697	19.531	-0.213	-0.175
-641.682	800.000	0.095	0.313
-640.668	345.201	-0.126	-0.253
-639.653	216.723	-0.103	-0.167
-638.638	183.181	0.111	-0.167
-637.624	800.000	-0.025	-0.081
-636.609	136.080	0.172	0.229
-635.595	-60.181	-0.262	0.114
-634.580	-200.000	-0.014	0.211
-633.565	-200.000	-0.022	-0.221
-632.551	-200.000	-0.004	0.177
-631.536	-200.000	-0.000	0.302
-630.522	-16.517	-0.074	0.048
-629.507	-149.597	0.254	0.020
-628.492	-116.595	-0.330	0.062
-627.478	-195.854	0.148	-0.001
-626.463	-138.138	-0.222	-0.025
-625.449	800.000	0.018	0.053
-624.434	56.931	-0.211	-0.210
-623.419	-34.606	-0.281	-0.156
-622.405	-68.180	0.071	0.028
-621.390	149.858	0.196	-0.271
-620.376	170.387	0.140	0.204
-619.361	293.229	0.092	-0.171
-618.346	800.000	-0.030	0.121
-617.332	-13.698	-0.150	-0.099
-616.317	89.794	-0.096	-0.109
-615.303	-117.490	0.241	0.044
-614.288	-46.029	-0.105	0.052
-613.273	800.000	-0.015	0.044
-612.259	-57.990	0.245	0.109
-611.244	-200.000	-0.019	0.228
-610.230	87.249	0.156	0.175
-609.215	-82.848	-0.259	0.085
-608.201	183.655	-0.142	-0.214
-607.186	-199.938	-0.212	-0.001
-606.171	-200.000	0.007	-0.181
-605.157	163.377	-0.103	0.148
-604.142	122.339	-0.151	0.193
-603.128	-145.248	-0.025	0.002
-602.113	538.927	0.041	-0.099
-601.098	-170.833	-0.086	-0.003
-600.084	-200.000	0.013	-0.254
-599.069	89.185	-0.127	-0.145
-598.055	420.830	0.076	0.166
-597.040	-21.964	-0.405	-0.251
-596.025	120.854	-0.153	-0.194
-595.011	-28.710	-0.120	-0.070
-593.996	-21.929	0.261	-0.161
-592.982	800.000	0.030	-0.109
-591.967	800.000	0.038	0.161
-590.952	-129.929	0.337	0.047
-589.938	800.000	-0.029	-0.093
-588.923	155.681	0.111	-0.156
-587.909	-105.160	0.163	-0.038
-586.894	212.705	0.043	-0.070
-585.879	-1.093	0.107	-0.077
-584.865	800.000	0.090	-0.277
-583.850	-200.000	0.025	-0.181
-582.836	195.604	0.052	0.080
-581.821	-46.812	-0.089	-0.044
-580.806	11.109	0.277	-0.216
-579.792	12.142	0.109	0.085
-578.777	-107.049	0.129	-0.029
-577.763	102.012	0.180	0.214
-576.748	-200.000	-0.043	-0.269
-575.733	-8.624	-0.286	0.195
-574.719	25.297	0.227	-0.192
-573.704	-120.285	0.239	-0.042
-572.690	-105.244	-0.381	0.088
-571.675	281.131	0.086	-0.157
-570.661	99.282	-0.241	0.283
-569.646	702.675	0.078	-0.210
-568.631	-148.950	-0.248	-0.020
-567.617	544.033	-0.147	-0.356
-566.602	10.934	0.067	0.052
-565.588	158.689	-0.089	0.126
-564.573	-47.706	-0.112	0.055
-563.558	524.594	0.127	-0.304
-562.544	377.296	0.113	0.236
-561.529	121.068	0.049	-0.061
-560.515	-110.064	0.333	0.071
-559.500	30.804	-0.192	-0.167
-558.485	174.812	0.062	0.092
-557.471	-144.375	0.337	0.032
-556.456	-64.211	0.127	0.053
-555.442	800.000	-0.069	-0.247
-554.427	-194.931	-0.279	0.002
-553.412	-122.615	-0.275	0.045
-552.398	604.472	-0.087	-0.221
-551.383	27.293	0.194	-0.166
-550.369	-17.449	0.389	-0.249
-549.354	421.532	-0.071	-0.154
-548.339	523.121	-0.084	0.201
-547.325	-69.176	0.079	-0.031
-546.310	107.263	-0.143	0.173
-545.296	-141.700	0.135	-0.014
-544.281	749.690	-0.019	-0.052
-543.266	-56.509	0.213	-0.096
-542.252	122.193	-0.197	-0.249
-541.237	800.000	0.049	-0.164
-540.223	198.593	-0.121	-0.188
-539.208	565.250	0.062	-0.153
-538.193	347.470	-0.116	-0.232
-537.179	-127.036	0.042	0.006
-536.164	44.377	-0.189	0.177
-535.150	800.000	-0.039	0.145
-534.135	322.929	0.123	-0.237
-533.121	-72.060	-0.414	0.156
-532.106	-68.441	0.185	0.073
-531.091	-200.000	-0.026	0.118
-530.077	-200.000	0.029	-0.318
-529.062	-200.000	0.029	0.253
-528.048	-200.000	-0.006	-0.094
-527.033	168.785	-0.101	-0.145
-526.018	722.834	-0.117	-0.316
-525.004	203.535	-0.102	0.160
-523.989	676.110	0.040	0.105
-522.975	3.086	0.100	-0.074
-521.960	115.783	0.119	-0.148
-520.945	-195.901	0.145	-0.001
-519.931	330.906	0.017	-0.034
-518.916	-200.000	0.023	-0.189
-517.902	-200.000	-0.039	0.349
-516.887	-58.585	0.108	0.048
-515.872	86.643	0.084	0.094
-514.858	-128.049	0.043	0.006
-513.843	65.212	-0.128	-0.132
-512.829	120.543	0.088	0.111
-511.814	-52.691	0.048	0.023
-510.799	-200.000	-0.011	-0.147
-509.785	-67.353	-0.099	0.040
-508.770	-87.356	-0.045	-0.014
-507.756	95.116	0.031	-0.035
-506.741	147.960	0.058	-0.080
-505.726	-200.000	-0.072	-0.336
-504.712	-133.612	-0.164	0.021
-503.697	400.502	-0.141	-0.300
-502.683	31.799	-0.127	0.111
-501.668	-53.860	0.296	0.137
-500.653	-200.000	-0.008	0.298
-499.639	-25.784	0.212	-0.127
-498.624	82.927	-0.126	0.138
-497.610	269.718	0.090	0.160
-496.595	631.007	-0.111	-0.286
-495.581	-145.920	-0.207	-0.019
-494.566	-81.770	-0.241	-0.080
-493.551	-200.000	0.022	-0.151
-492.537	-200.000	0.010	-0.175
-491.522	351.090	-0.141	0.283
-490.508	-83.206	0.259	-0.085
-489.493	-138.134	0.057	-0.006
-488.478	-8.948	0.129	0.087
-487.464	27.924	0.210	-0.180
-486.449	105.767	-0.037	-0.045
-485.435	248.661	0.176	0.302
-484.420	-200.000	-0.007	0.541
-483.405	-200.000	-0.032	0.212
-482.391	221.679	0.114	0.186
-481.376	-85.377	-0.458	-0.145
-480.362	800.000	0.141	-0.449
-479.347	-32.295	0.053	-0.030
-478.332	-77.269	0.394	0.139
-477.318	800.000	0.118	0.484
-476.303	800.000	-0.095	-0.293
-475.289	65.560	0.337	-0.346
-474.274	386.913	0.091	0.191
-473.259	559.081	0.095	0.232
-472.245	-133.220	-0.202	-0.026
-471.230	800.000	0.087	0.340
-470.216	-200.000	0.001	-0.144
-469.201	-90.166	0.232	0.068
-468.186	-73.633	0.402	-0.148
-467.172	22.991	-0.116	0.096
-466.157	400.047	0.071	0.151
-465.143	-58.599	0.075	-0.033
-464.128	392.534	0.072	0.152
-463.113	-131.416	-0.281	-0.038
-462.099	-200.000	0.071	-0.469
-461.084	41.775	-0.235	0.216
-460.070	-87.802	-0.220	-0.067
-459.055	352.868	0.164	0.329
-458.040	-139.027	0.153	0.017
-457.026	-122.268	-0.091	0.015
-456.011	-35.820	-0.157	-0.086
-454.997	-200.000	0.123	-0.000
-453.982	-25.395	0.300	-0.180
-452.968	-200.000	0.034	-0.260
-451.953	800.000	-0.108	0.468
-450.938	800.000	0.072	0.299
-449.924	-200.000	-0.049	-0.381
-448.909	-95.260	0.037	0.010
-447.895	-15.643	0.107	-0.069
-446.880	-58.906	-0.133	-0.058
-445.865	429.537	-0.086	0.188
-444.851	-120.339	0.199	-0.034
-443.836	-86.463	0.241	-0.075
-442.822	-66.873	-0.111	0.044
-441.807	-52.580	0.254	0.119
-440.792	-141.830	-0.197	0.020
-439.778	-49.652	0.232	-0.112
-438.763	-55.936	0.061	0.027
-437.749	119.901	0.120	0.151
-436.734	-116.383	-0.101	0.019
-435.719	-94.210	-0.145	0.040
-434.705	-144.818	-0.249	0.023
-433.690	-143.966	0.119	-0.011
-432.676	-98.392	0.129	0.033
-431.661	-194.538	0.278	-0.002
-430.646	-57.108	0.135	0.060
-429.632	800.000	-0.068	-0.281
-428.617	-50.800	0.134	0.064
-427.603	800.000	0.006	0.025
-426.588	82.132	0.098	-0.108
-425.573	-89.243	0.156	0.047
-424.559	131.622	-0.090	0.117
-423.544	-71.115	0.484	0.184
-422.530	4.402	-0.062	0.046
-421.515	-139.917	0.065	-0.007
-420.500	800.000	0.044	-0.128
-419.486	23.644	0.121	0.100
-418.471	800.000	-0.029	-0.116
-417.457	99.186	0.137	0.160
-416.442	-114.620	0.207	0.040
-415.428	177.987	0.169	0.249
-414.413	-99.531	0.150	-0.038
-413.398	-200.000	0.012	-0.210
-412.384	-64.883	-0.134	0.055
-411.369	-200.000	-0.480	0.002
-410.355	-70.638	-0.291	0.111
-409.340	506.605	-0.057	-0.134
-408.325	-36.282	-0.399	-0.218
-407.311	-200.000	-0.010	-0.086
-406.296	25.592	-0.075	-0.063
-405.282	-124.333	-0.151	-0.024
-404.267	574.715	-0.093	-0.229
-403.252	-61.118	-0.334	-0.142
-402.238	-99.784	0.072	0.018
-401.223	380.398	-0.087	0.181
-400.209	-26.597	-0.115	0.068
-399.194	-200.000	0.026	0.163
-398.179	-200.000	-0.013	0.141
-397.165	-71.369	0.228	-0.086
-396.150	800.000	-0.162	-0.478
-395.136	-154.731	0.104	-0.007
-394.121	-131.526	-0.094	-0.012
-393.106	-142.570	0.157	-0.016
-392.092	-89.636	-0.134	0.040
-391.077	-95.507	-0.222	0.060
-390.063	-95.181	0.176	-0.048
-389.048	-97.701	0.091	0.024
-388.033	-16.934	-0.120	-0.077
-387.019	-200.000	-0.005	-0.351
-386.004	-184.212	-0.109	-0.002
-384.990	425.348	-0.154	-0.334
-383.975	-42.270	-0.093	0.048
-382.960	105.292	0.008	-0.010
-381.946	168.629	-0.034	0.049
-380.931	29.262	-0.191	-0.164
-379.917	-200.000	0.006	-0.036
-378.902	-132.154	-0.308	0.040
-377.888	236.321	-0.033	0.055
-376.873	-58.204	-0.287	-0.126
-375.858	800.000	0.103	0.353
-374.844	32.046	0.084	0.073
-373.829	27.844	0.398	-0.338
-372.815	190.937	-0.118	0.179
-371.800	-71.183	-0.354	-0.134
-370.785	-115.069	-0.183	0.035
-369.771	23.886	0.303	-0.252
-368.756	-200.000	-0.266	0.000
-367.742	-64.765	0.286	-0.117
-366.727	800.000	-0.101	0.358
-365.712	-37.520	0.276	0.149
-364.698	284.241	0.070	0.127
-363.683	434.507	0.128	-0.280
-362.669	-99.742	-0.296	0.075
-361.654	18.073	0.248	-0.199
-360.639	-33.969	-0.435	-0.241
-359.625	-174.486	0.132	0.004
-358.610	-81.473	-0.201	-0.067
-357.596	800.000	0.031	-0.092
-356.581	257.652	-0.110	0.190
-355.566	254.960	0.115	0.199
-354.552	-200.000	-0.136	0.659
-353.537	-200.000	0.012	0.107
-352.523	-50.755	0.132	0.063
-351.508	-146.308	-0.337	0.030
-350.493	231.370	-0.114	0.189
-349.479	60.483	-0.192	0.192
-348.464	-105.421	-0.193	0.044
-347.450	207.042	-0.111	0.175
-346.435	22.115	-0.293	0.241
-345.420	162.702	-0.118	0.166
-344.406	778.161	-0.059	0.163
-343.391	-200.000	0.004	-0.050
-342.377	446.529	0.080	-0.177
-341.362	159.538	-0.151	0.212
-340.348	-103.075	0.289	0.069
-339.333	333.234	0.092	-0.180
-338.318	-44.676	-0.206	0.103
-337.304	366.028	0.132	0.269
-336.289	800.000	-0.114	0.395
-335.275	-116.155	0.180	0.034
-334.260	-134.483	0.362	0.045
-333.245	-134.732	-0.086	-0.011
-332.231	-83.526	0.059	-0.019
-331.216	785.545	0.025	0.069
-330.202	-124.412	0.162	-0.025
-329.187	-16.059	-0.142	0.091
-328.172	-40.576	0.329	-0.172
-327.158	-47.356	0.112	0.055
-326.143	-138.529	-0.231	-0.026
-325.129	-83.183	-0.204	-0.066
-324.114	255.509	-0.053	0.091
-323.099	189.122	0.067	0.101
-322.085	-92.458	0.094	-0.027
-321.070	310.140	-0.125	0.235
-320.056	-86.664	0.302	0.093
-319.041	-200.000	-0.019	0.194
-318.026	407.445	0.124	0.264
-317.012	-88.170	-0.126	0.038
-315.997	392.169	0.058	-0.122
-314.983	-166.621	0.235	-0.010
-313.968	121.871	-0.109	-0.137
-312.953	-103.912	-0.211	-0.050
-311.939	-200.000	0.037	0.259
-310.924	205.760	-0.099	0.155
-309.910	-128.748	0.138	-0.020
-308.895	95.764	0.156	0.179
-307.880	-128.402	-0.065	0.009
-306.866	-200.000	-0.024	-0.205
-305.851	87.936	0.037	0.041
-304.837	-200.000	-0.025	0.172
-303.822	-54.207	0.030	0.014
-302.807	200.910	0.054	-0.083
-301.793	-88.032	-0.185	-0.056
-300.778	298.191	-0.207	-0.384
-299.764	376.041	-0.082	0.168
-298.749	256.314	0.098	-0.170
-297.735	145.808	0.058	-0.078
-296.720	8.062	0.184	0.139
-295.705	-116.103	0.161	-0.030
-294.691	-90.202	0.134	0.039
-293.676	-136.378	0.124	-0.015
-292.662	-39.268	-0.327	-0.173
-291.647	3.883	0.212	0.156
-290.632	-78.168	0.114	0.039
-289.618	300.710	-0.072	0.133
-288.603	-200.000	0.022	-0.174
-287.589	-200.000	0.017	0.139
-286.574	643.900	0.057	-0.147
-285.559	-19.975	0.299	-0.186
-284.545	-81.863	0.254	0.084
-283.530	-200.000	-0.024	-0.260
-282.516	-200.000	-0.013	-0.246
-281.501	-129.827	-0.105	0.015
-280.486	126.113	-0.235	-0.298
-279.472	-152.365	-0.119	-0.009
-278.457	505.853	-0.085	0.198
-277.443	353.547	0.020	0.041
-276.428	-200.000	0.006	-0.100
-275.413	-1.349	-0.155	0.110
-274.399	45.974	0.081	-0.075
-273.384	-111.699	0.341	0.070
-272.370	294.815	0.066	-0.122
-271.355	-200.000	-0.303	-0.001
-270.340	-200.000	-0.047	-0.225
-269.326	-111.374	0.228	0.047
-268.311	352.158	-0.096	-0.190
-267.297	46.171	-0.109	0.102
-266.282	-135.231	0.252	-0.030
-265.267	17.955	-0.163	-0.130
-264.253	92.971	0.172	-0.195
-263.238	-106.062	0.239	-0.054
-262.224	-151.008	0.038	-0.003
-261.209	336.448	-0.107	0.209
-260.195	36.051	0.175	-0.155
-259.180	-124.917	-0.341	0.053
-258.165	-80.749	0.225	-0.075
-257.151	362.701	-0.185	0.372
-256.136	292.693	-0.137	-0.250
-255.122	-130.419	-0.229	-0.031
-254.107	438.197	0.074	-0.161
-253.092	-159.922	-0.318	-0.018
-252.078	-154.326	-0.067	0.005
-251.063	-119.417	0.298	-0.052
-250.049	41.998	0.155	0.141
-249.034	-164.299	-0.321	0.015
-248.019	-153.473	-0.237	-0.016
-247.005	-161.689	-0.477	0.024
-245.990	-46.658	-0.319	0.157
-244.976	-105.545	-0.029	-0.007
-243.961	-0.666	0.229	-0.163
-242.946	-200.000	-0.026	-0.271
-241.932	-116.061	-0.274	0.051
-240.917	-200.000	-0.003	0.206
-239.903	62.094	-0.110	0.110
-238.888	-27.922	0.236	0.137
-237.873	29.567	-0.064	0.055
-236.859	-130.613	-0.091	-0.012
-235.844	800.000	0.049	-0.195
-234.830	-109.903	0.235	-0.050
-233.815	224.001	-0.082	-0.132
-232.800	800.000	0.076	-0.219
-231.786	-55.563	-0.059	0.027
-230.771	-72.047	-0.265	-0.099
-229.757	27.540	0.305	-0.257
-228.742	69.549	-0.151	0.156
-227.727	98.829	-0.048	0.055
-226.713	-88.581	-0.108	0.032
-225.698	269.315	-0.140	0.247
-224.684	124.563	0.196	0.247
-223.669	-117.522	-0.162	0.029
-222.655	-51.358	0.080	-0.038
-221.640	9.658	0.265	0.201
-220.625	800.000	0.056	0.221
-219.611	-34.733	-0.114	0.063
-218.596	-200.000	0.007	-0.318
-217.582	-126.958	0.086	0.013
-216.567	-125.514	0.444	0.068
-215.552	800.000	-0.025	0.069
-214.538	-200.000	0.031	0.160
-213.523	-58.441	0.108	0.047
-212.509	640.562	-0.084	-0.215
-211.494	-44.634	0.318	0.159
-210.479	-200.000	0.032	0.401
-209.465	-200.000	-0.028	-0.138
-208.450	-24.384	0.229	0.137
-207.436	-200.000	-0.036	0.327
-206.421	-200.000	-0.017	-0.354
-205.406	152.097	0.227	0.311
-204.392	-112.844	0.323	-0.064
-203.377	-120.334	-0.290	0.049
-202.363	800.000	-0.076	-0.226
-201.348	22.550	-0.112	0.092
-200.333	791.770	-0.040	-0.111
-199.319	380.560	-0.085	0.175
-198.304	800.000	-0.134	-0.562
-197.290	271.822	0.069	0.122
-196.275	-200.000	0.010	0.276
-195.260	148.246	-0.122	0.165
-194.246	4.210	0.114	-0.083
-193.231	113.659	-0.073	0.089
-192.217	-65.380	0.139	0.056
-191.202	-63.310	0.113	0.047
-190.187	0.522	0.110	0.079
-189.173	426.215	-0.070	0.151
-188.158	5.553	-0.069	0.051
-187.144	13.592	0.257	-0.200
-186.129	-200.000	0.027	-0.134
-185.114	410.220	0.094	0.199
-184.100	-150.492	0.226	0.017
-183.085	312.199	0.130	0.244
-182.071	181.660	-0.182	0.269
-181.056	34.107	0.123	0.107
-180.042	-60.545	-0.254	-0.108
-179.027	63.128	0.045	-0.045
-178.012	81.090	0.173	-0.187
-176.998	-200.000	-0.061	0.269
-175.983	126.382	-0.065	-0.082
-174.969	-5.610	0.273	0.188
-173.954	63.594	-0.121	-0.121
-172.939	-124.080	0.138	0.022
-171.925	-200.000	-0.021	0.124
-170.910	800.000	0.083	-0.274
-169.896	-119.439	0.249	0.043
-168.881	-200.000	0.007	0.071
-167.866	-82.286	0.186	-0.061
-166.852	-77.317	0.253	-0.088
-165.837	-43.213	-0.371	-0.188
-164.823	-97.096	-0.270	0.071
-163.808	-200.000	-0.009	0.145
-162.793	-200.000	0.002	0.062
-161.779	243.206	-0.060	-0.101
-160.764	285.596	-0.130	0.235
-159.750	-31.468	0.265	0.149
-158.735	-200.000	-0.005	-0.073
-157.720	259.569	-0.053	-0.092
-156.706	-110.259	0.174	0.036
-155.691	-132.675	-0.197	0.025
-154.677	478.345	0.086	-0.196
-153.662	56.540	-0.093	-0.090
-152.647	126.169	-0.393	-0.497
-151.633	151.407	0.066	0.090
-150.618	515.811	0.246	0.576
-149.604	34.456	-0.145	-0.127
-148.589	-87.581	0.049	0.015
-147.574	117.836	-0.134	0.165
-146.560	800.000	0.041	-0.144
-145.545	-55.753	-0.112	-0.050
-144.531	92.997	0.102	-0.116
-143.516	505.909	0.051	0.119
-142.502	250.206	0.037	-0.064
-141.487	333.824	0.074	0.144
-140.472	-184.194	0.248	0.004
-139.458	404.328	0.102	-0.216
-138.443	208.034	-0.084	-0.132
-137.429	405.090	-0.065	-0.137
-136.414	486.281	0.069	0.158
-135.399	-200.000	-0.010	-0.335
-134.385	-41.458	-0.293	-0.151
-133.370	-200.000	0.013	0.217
-132.356	-74.725	0.158	0.057
-131.341	-200.000	-0.009	0.231
-130.326	-104.944	0.311	-0.071
-129.312	-65.340	0.401	0.161
-128.297	127.509	-0.225	0.286
-127.283	-200.000	-0.027	-0.125
-126.268	-1.979	0.175	-0.123
-125.253	-200.000	0.020	-0.190
-124.239	164.207	0.068	-0.096
-123.224	323.187	-0.249	0.474
-122.210	33.044	-0.072	0.062
-121.195	81.350	0.220	0.237
-120.180	119.421	-0.077	-0.096
-119.166	-200.000	-0.005	-0.199
-118.151	800.000	-0.123	0.361
-117.137	800.000	-0.101	0.407
-116.122	132.124	0.249	0.321
-115.107	-68.258	-0.156	-0.061
-114.093	171.509	0.079	-0.113
-113.078	164.524	0.064	0.090
-112.064	-159.094	-0.251	0.014
-111.049	800.000	-0.101	-0.281
-110.034	-110.615	0.283	0.058
-109.020	537.789	0.057	0.134
-108.005	-200.000	-0.002	-0.126
-106.991	-132.756	-0.199	-0.025
-105.976	-133.462	-0.146	-0.018
-104.962	-97.892	-0.141	0.036
-103.947	500.629	-0.071	0.163
-102.932	-200.000	0.035	0.160
-101.918	67.610	-0.051	0.052
-100.903	-103.947	0.221	0.052
-99.889	111.603	-0.081	0.098
-98.874	413.832	-0.070	-0.148
-97.859	-65.725	0.088	-0.035
-96.845	-200.000	-0.020	0.132
-95.830	8.049	0.279	-0.209
-94.816	-200.000	-0.052	-0.459
-93.801	-102.116	-0.188	0.045
-92.786	7.888	0.064	0.048
-91.772	12.372	-0.322	0.248
-90.757	-81.976	0.441	-0.144
-89.743	-154.254	0.009	-0.001
-88.728	-146.408	0.058	0.005
-87.713	-105.212	-0.145	0.033
-86.699	28.547	-0.072	0.061
-85.684	3.125	0.418	0.303
-84.670	800.000	-0.017	-0.072
-83.655	-103.810	-0.142	-0.033
-82.640	-86.716	0.130	0.040
-81.626	-115.335	-0.158	-0.030
-80.611	-181.874	-0.187	-0.004
-79.597	-200.000	-0.022	0.161
-78.582	-87.245	-0.145	0.044
-77.567	-23.198	-0.173	0.104
-76.553	-28.965	-0.258	0.148
-75.538	-200.000	0.036	0.381
-74.524	-14.334	0.182	0.117
-73.509	94.089	0.050	0.057
-72.494	-30.822	-0.086	0.048
-71.480	-81.142	0.074	-0.025
-70.465	603.982	-0.115	0.286
-69.451	-69.923	-0.048	0.018
-68.436	-4.405	-0.125	-0.086
-67.422	-79.388	0.365	-0.123
-66.407	-117.737	0.265	-0.047
-65.392	-31.484	0.053	-0.030
-64.378	-101.204	0.177	0.043
-63.363	262.504	0.127	0.220
-62.349	294.070	-0.114	0.208
-61.334	28.035	-0.786	-0.661
-60.319	376.308	-0.028	-0.057
-59.305	800.000	-0.203	-0.876
-58.290	800.000	0.245	0.844
-57.276	565.773	0.692	1.673
-56.261	-200.000	77.201	516.724
-55.246	503.947	1340.522	3091.706
-54.232	143.327	2588.137	3433.736
-53.217	113.399	2273.074	2749.883
-52.203	50.472	1792.888	1689.783
-51.188	43.385	1588.827	1446.864
-50.173	40.750	1558.392	1400.540
-49.159	56.502	1595.660	1546.490
-48.144	61.710	1616.092	1603.330
-47.130	43.992	1578.468	1441.521
-46.115	40.407	1563.916	1402.847
-45.100	40.219	1560.683	1398.566
-44.086	40.239	1558.127	1396.363
-43.071	40.118	1556.282	1393.798
-42.057	39.995	1554.334	1391.132
-41.042	40.032	1553.139	1390.272
-40.027	39.995	1551.399	1388.399
-39.013	40.081	1549.618	1387.351
-37.998	40.084	1548.489	1386.308
-36.984	40.045	1547.118	1384.749
-35.969	40.168	1545.548	1384.152
-34.954	40.121	1544.523	1382.852
-33.940	40.104	1543.066	1381.371
-32.925	40.075	1541.424	1379.644
-31.911	40.111	1539.939	1378.510
-30.896	40.109	1538.590	1377.235
-29.881	40.230	1537.181	1376.761
-28.867	40.137	1535.985	1374.987
-27.852	40.129	1534.950	1373.952
-26.838	40.106	1533.422	1372.370
-25.823	40.094	1531.519	1370.529
-24.809	40.099	1529.848	1369.018
-23.794	40.121	1528.159	1367.604
-22.779	40.124	1527.187	1366.701
-21.765	40.054	1526.489	1365.537
-20.750	40.109	1525.073	1364.595
-19.736	40.086	1523.954	1363.382
-18.721	40.161	1522.763	1362.776
-17.706	40.132	1521.335	1361.243
-16.692	40.017	1520.405	1359.569
-15.677	40.069	1519.302	1358.883
-14.663	40.042	1518.349	1357.793
-13.648	39.998	1517.414	1356.605
-12.633	40.076	1515.697	1355.547
-11.619	40.020	1515.661	1355.079
-10.604	40.028	1514.852	1354.352
-9.590	40.009	1513.552	1353.010
-8.575	40.058	1512.529	1352.374
-7.560	40.070	1511.690	1351.653
-6.546	39.992	1511.160	1350.595
-5.531	40.041	1510.154	1349.978
-4.517	40.001	1508.954	1348.574
-3.502	40.023	1507.688	1347.539
-2.487	39.995	1506.843	1346.543
-1.473	39.990	1505.893	1345.605
-0.458	40.048	1504.527	1344.727
0.556	39.455	1495.736	1336.115
1.571	36.976	1467.736	1294.454
2.586	32.395	1401.122	1206.310
3.600	28.586	1313.077	1107.467
4.615	25.434	1261.981	1045.960
5.629	20.718	1202.432	970.286
6.644	10.707	1111.517	844.996
7.659	2.505	1065.206	768.676
8.673	1.131	1059.039	757.301
9.688	0.853	1056.170	753.798
10.702	0.862	1054.815	752.806
11.717	0.814	1052.828	751.086
12.731	3.326	1055.495	765.412
13.746	11.537	1066.982	814.782
14.761	17.631	1074.337	850.842
15.775	17.870	1073.826	851.555
16.790	17.059	1071.877	845.897
17.804	15.978	1069.930	838.906
18.819	15.246	1067.687	833.433
19.834	14.705	1066.269	829.565
20.848	14.439	1065.281	827.404
21.863	14.133	1064.525	825.225
22.877	13.855	1063.864	823.262
23.892	13.668	1062.715	821.374
24.907	13.535	1062.048	820.123
25.921	13.547	1061.306	819.537
26.936	13.657	1060.208	819.163
27.950	13.649	1059.963	818.862
28.965	13.697	1058.933	818.229
29.980	13.640	1058.487	817.530
30.994	13.852	1057.274	817.565
32.009	13.856	1056.632	817.016
33.023	13.808	1056.150	816.334
34.038	13.940	1055.122	816.119
35.053	13.808	1054.282	814.750
36.067	13.715	1053.633	813.716
37.082	13.864	1052.314	813.359
38.096	13.697	1052.112	812.309
39.111	13.752	1051.203	811.808
40.126	13.792	1050.580	811.451
41.140	13.825	1049.336	810.576
42.155	13.773	1047.856	809.111
43.169	13.767	1047.032	808.371
44.184	13.614	1046.394	807.061
45.199	13.544	1045.353	805.850
46.213	13.631	1044.053	805.198
47.228	13.524	1043.314	804.037
48.242	13.653	1041.987	803.570
49.257	13.737	1040.903	803.067
50.271	13.615	1040.643	802.206
51.286	13.738	1039.279	801.681
52.301	13.664	1038.742	800.836
53.315	13.689	1037.644	800.038
54.330	13.709	1036.915	799.500
55.344	13.675	1035.867	798.459
56.359	13.661	1035.241	797.838
57.374	13.666	1034.415	797.157
58.388	13.692	1032.963	796.094
59.403	13.641	1032.571	795.475
60.417	13.539	1032.255	794.670
61.432	13.491	1031.147	793.518
62.447	13.564	1030.394	793.218
63.461	13.413	1029.819	791.983
64.476	13.503	1028.792	791.555
65.490	13.570	1028.117	791.283
66.505	13.453	1026.840	789.670
67.520	13.465	1026.011	789.022
68.534	13.673	1025.433	789.497
69.549	13.606	1024.558	788.435
70.563	13.642	1023.745	787.911
71.578	13.594	1023.413	787.360
72.593	13.591	1022.472	786.552
73.607	13.449	1021.459	785.030
74.622	13.505	1020.712	784.650
75.636	13.482	1019.782	783.755
76.651	13.593	1018.825	783.476
77.666	13.407	1018.042	781.927
78.680	13.377	1017.511	781.309
79.695	13.491	1017.202	781.539
80.709	13.485	1016.554	780.943
81.724	13.580	1015.798	780.744
82.739	13.584	1015.008	780.084
83.753	13.554	1014.112	779.187
84.768	13.757	1012.990	779.209
85.782	13.712	1012.383	778.462
86.797	13.636	1011.809	777.595
87.812	13.562	1011.153	776.678
88.826	13.776	1009.520	776.355
89.841	13.563	1009.209	775.050
90.855	13.621	1008.282	774.539
91.870	13.878	1007.141	774.794
92.884	13.855	1006.577	774.186
93.899	13.725	1006.032	773.089
94.914	13.746	1005.237	772.508
95.928	13.906	1004.520	772.637
96.943	13.728	1003.763	771.155
97.957	13.692	1003.102	770.413
98.972	13.739	1001.962	769.686
99.987	13.659	1001.751	769.086
101.001	13.708	1000.884	768.580
102.016	13.795	999.906	768.164
103.030	13.844	999.082	767.690
104.045	13.734	998.052	766.324
105.060	13.745	997.065	765.548
106.074	13.718	996.174	764.672
107.089	13.656	995.643	763.909
108.103	13.622	994.666	762.935
109.118	13.585	993.516	761.818
110.133	13.792	992.651	762.036
111.147	13.636	991.984	760.742
112.162	13.579	991.224	759.828
113.176	13.607	990.184	759.092
114.191	13.685	989.336	758.735
115.206	13.623	988.540	757.770
116.220	13.608	987.661	756.962
117.235	13.652	986.831	756.461
118.249	13.654	985.921	755.707
119.264	13.655	984.887	754.849
120.279	13.580	984.420	754.086
121.293	13.656	983.261	753.475
122.308	13.614	982.526	752.654
123.322	13.681	981.820	752.349
124.337	13.636	980.724	751.241
125.352	13.616	979.714	750.309
126.366	13.641	978.735	749.606
127.381	13.626	977.439	748.481
128.395	13.674	976.309	747.765
129.410	13.626	976.184	747.387
130.424	13.701	975.050	746.792
131.439	13.783	974.135	746.392
132.454	13.747	973.012	745.306
133.468	13.822	972.539	745.211
134.483	13.759	972.141	744.557
135.497	13.824	971.058	743.955
136.512	13.701	970.366	742.807
137.527	13.734	969.707	742.385
138.541	13.728	968.941	741.707
139.556	13.922	968.102	741.865
140.570	13.779	967.468	740.675
141.585	13.795	967.072	740.381
142.600	13.819	966.277	739.811
143.614	13.891	965.186	739.230
144.629	13.952	964.416	738.848
145.643	13.926	963.976	738.331
146.658	13.929	962.967	737.505
147.673	13.909	962.087	736.676
148.687	13.841	960.800	735.323
149.702	13.940	959.871	734.988
150.716	13.752	959.306	733.658
151.731	13.742	958.789	733.155
152.746	13.866	958.063	733.080
153.760	13.862	956.917	732.123
154.775	13.782	956.083	731.065
155.789	13.909	955.485	731.101
156.804	13.871	954.979	730.485
157.819	13.881	953.958	729.681
158.833	13.951	953.197	729.343
159.848	13.969	952.522	728.841
160.862	13.978	951.791	728.258
161.877	13.919	951.132	727.429
162.892	13.916	950.572	726.925
163.906	13.822	949.965	725.982
164.921	13.837	949.028	725.271
165.935	13.940	947.703	724.643
166.950	13.908	946.849	723.784
167.964	13.908	945.974	723.055
168.979	14.025	944.943	722.708
169.994	13.957	944.240	721.811
171.008	13.985	943.274	721.132
172.023	13.982	942.778	720.677
173.037	14.035	941.551	719.905
174.052	13.954	941.241	719.254
175.067	14.110	940.425	719.238
176.081	14.163	939.343	718.579
177.096	13.902	939.112	717.209
178.110	14.073	938.223	717.207
179.125	13.943	937.656	716.147
180.140	14.021	936.364	715.434
181.154	14.139	935.280	715.050
182.169	14.003	935.116	714.274
183.183	14.076	934.231	713.852
184.198	14.168	933.572	713.678
185.213	14.156	933.169	713.256
186.227	14.089	932.095	712.086
187.242	14.252	931.799	712.493
188.256	14.193	930.831	711.438
189.271	14.238	930.208	711.090
190.286	14.277	929.609	710.735
191.300	14.231	929.050	710.050
192.315	14.158	928.036	708.902
193.329	14.056	927.615	708.084
194.344	14.015	926.774	707.204
195.359	14.059	925.980	706.723
196.373	14.270	925.325	707.058
197.388	14.205	924.866	706.368
198.402	14.294	924.518	706.415
199.417	14.339	923.985	706.137
200.432	14.432	923.638	706.204
201.446	14.408	923.201	705.704
202.461	14.385	922.920	705.330
203.475	14.324	922.504	704.694
204.490	14.521	921.249	704.503
205.504	14.371	921.047	703.652
206.519	14.413	919.791	702.810
207.534	14.424	919.014	702.197
208.548	14.290	918.602	701.258
209.563	14.495	917.406	701.146
210.577	14.510	917.012	700.846
211.592	14.478	916.450	700.217
212.607	14.487	915.817	699.712
213.621	14.508	915.124	699.207
214.636	14.686	914.288	699.254
215.650	14.558	913.883	698.345
216.665	14.579	913.232	697.875
217.680	14.530	912.838	697.305
218.694	14.619	912.259	697.174
219.709	14.624	911.648	696.665
220.723	14.763	910.836	696.564
221.738	14.583	910.351	695.380
222.753	14.642	909.775	695.126
223.767	14.643	909.002	694.477
224.782	14.676	908.187	693.929
225.796	14.716	907.632	693.613
226.811	15.005	906.317	693.742
227.826	14.819	906.231	692.843
228.840	14.833	905.314	692.141
229.855	14.657	904.779	690.942
230.869	14.672	904.254	690.540
231.884	14.691	903.219	689.769
232.899	14.833	902.415	689.681
233.913	14.696	901.784	688.573
234.928	14.733	901.321	688.309
235.942	14.632	900.674	687.339
236.957	14.727	899.800	687.003
237.972	14.655	899.251	686.224
238.986	14.762	898.082	685.713
240.001	14.927	897.878	686.173
241.015	14.848	897.378	685.408
242.030	14.818	896.780	684.765
243.045	14.824	895.835	684.009
244.059	14.865	895.190	683.625
245.074	14.833	894.804	683.138
246.088	14.925	894.072	682.892
247.103	14.941	893.625	682.558
248.117	15.005	893.008	682.286
249.132	15.058	891.962	681.642
250.147	15.091	891.722	681.535
251.161	15.043	890.792	680.565
252.176	15.054	890.198	680.096
253.190	15.274	889.550	680.436
254.205	15.198	889.110	679.732
255.220	15.179	888.438	679.078
256.234	15.235	887.541	678.558
257.249	15.159	886.996	677.777
258.263	15.248	886.571	677.753
259.278	15.345	885.567	677.314
260.293	15.378	885.577	677.396
261.307	15.238	885.017	676.342
262.322	15.350	883.960	675.927
263.336	15.355	883.648	675.647
264.351	15.525	882.832	675.647
265.366	15.298	882.428	674.368
266.380	15.352	881.760	674.014
267.395	15.344	881.209	673.501
268.409	15.501	880.168	673.275
269.424	15.554	879.393	672.834
270.439	15.380	879.035	671.803
271.453	15.301	878.282	670.856
272.468	15.305	877.667	670.342
273.482	15.606	876.505	670.595
274.497	15.350	876.521	669.526
275.512	15.403	875.716	669.065
276.526	15.466	874.840	668.588
277.541	15.527	873.969	668.105
278.555	15.527	873.865	667.965
279.570	15.597	872.589	667.209
280.585	15.610	872.463	667.107
281.599	15.793	871.798	667.264
282.614	15.564	871.605	666.149
283.628	15.694	870.851	666.027
284.643	15.576	870.200	665.006
285.657	15.683	869.361	664.730
286.672	15.724	869.008	664.561
287.687	15.787	868.419	664.301
288.701	15.629	868.282	663.513
289.716	15.683	867.648	663.183
290.730	15.797	866.794	662.921
291.745	15.857	866.142	662.598
292.760	15.707	865.348	661.343
293.774	15.761	864.973	661.213
294.789	15.818	864.693	661.162
295.803	15.720	863.876	660.093
296.818	15.763	863.437	659.869
297.833	15.805	862.624	659.356
298.847	16.024	861.527	659.314
299.862	15.910	861.035	658.435
300.876	15.885	860.385	657.780
301.891	15.979	859.661	657.535
302.906	15.855	859.358	656.764
303.920	15.957	858.944	656.786
304.935	16.107	857.689	656.353
305.949	16.118	856.878	655.716
306.964	16.171	856.306	655.425
307.979	16.162	855.769	654.924
308.993	16.122	856.058	654.929
310.008	16.114	855.199	654.185
311.022	16.142	854.849	653.967
312.037	16.098	853.926	653.033
313.052	16.094	853.510	652.640
314.066	16.167	852.785	652.309
315.081	16.123	852.280	651.697
316.095	16.168	851.444	651.174
317.110	16.133	851.103	650.721
318.125	16.003	850.672	649.833
319.139	16.010	850.424	649.612
320.154	16.194	849.581	649.620
321.168	16.178	848.863	648.952
322.183	16.326	848.209	648.963
323.197	16.216	848.243	648.508
324.212	16.260	847.785	648.269
325.227	16.333	846.982	647.879
326.241	16.288	846.590	647.350
327.256	16.318	845.517	646.587
328.270	16.294	845.093	646.112
329.285	16.316	844.345	645.568
330.300	16.333	843.825	645.176
331.314	16.359	843.059	644.633
332.329	16.201	842.895	643.848
333.343	16.350	842.230	643.852
334.358	16.402	841.472	643.413
335.373	16.316	840.901	642.592
336.387	16.300	840.769	642.374
337.402	16.298	840.179	641.860
338.416	16.443	839.496	641.832
339.431	16.516	838.683	641.432
340.446	16.530	838.350	641.173
341.460	16.579	837.903	640.961
342.475	16.534	837.111	640.126
343.489	16.579	836.793	639.995
344.504	16.630	835.999	639.527
345.519	16.771	835.498	639.616
346.533	16.609	835.259	638.767
347.548	16.733	834.749	638.790
348.562	16.593	833.960	637.601
349.577	16.460	833.745	636.879
350.592	16.647	832.990	636.950
351.606	16.710	832.547	636.792
352.621	16.611	832.034	635.972
353.635	16.658	831.863	635.959
354.650	16.688	831.226	635.530
355.665	16.723	830.825	635.298
356.679	16.605	830.691	634.695
357.694	16.798	829.711	634.614
358.708	16.875	829.133	634.404
359.723	16.793	828.625	633.651
360.738	16.811	827.883	633.096
361.752	16.877	827.482	632.979
362.767	16.737	827.192	632.178
363.781	16.716	827.057	631.944
364.796	16.867	826.344	631.906
365.810	16.891	825.671	631.424
366.825	16.943	825.571	631.484
367.840	16.953	825.388	631.324
368.854	16.877	824.952	630.655
369.869	16.857	824.507	630.182
370.883	17.125	823.244	630.157
371.898	16.986	823.097	629.473
372.913	16.958	822.660	628.979
373.927	17.184	821.779	629.086
374.942	17.204	821.239	628.692
375.956	17.172	820.628	628.050
376.971	17.176	820.139	627.634
377.986	17.143	819.401	626.892
379.000	17.211	818.856	626.671
380.015	17.192	818.641	626.381
381.029	17.266	818.042	626.143
382.044	17.136	817.733	625.372
383.059	17.286	816.540	624.953
384.073	17.298	816.367	624.811
385.088	17.313	815.645	624.257
386.102	17.300	815.032	623.686
387.117	17.109	814.772	622.731
388.132	17.220	814.459	622.845
389.146	17.408	813.658	622.864
390.161	17.113	813.886	621.905
391.175	17.299	813.271	622.059
392.190	17.416	812.607	621.925
393.205	17.349	812.604	621.620
394.219	17.419	811.901	621.285
395.234	17.450	810.964	620.626
396.248	17.238	810.640	619.550
397.263	17.403	810.202	619.760
398.278	17.297	809.720	618.951
399.292	17.383	809.192	618.804
400.307	17.141	809.311	617.963
401.321	17.383	808.616	618.258
402.336	17.429	807.870	617.798
403.350	17.408	807.847	617.649
404.365	17.347	807.152	616.841
405.380	17.419	806.842	616.812
406.394	17.412	806.268	616.291
407.409	17.590	805.706	616.453
408.423	17.502	805.440	615.876
409.438	17.530	805.240	615.772
410.453	17.681	804.413	615.628
411.467	17.676	804.035	615.266
412.482	17.735	803.395	614.934
413.496	17.724	802.681	614.294
414.511	17.704	802.406	613.959
415.526	17.780	801.988	613.857
416.540	17.720	802.038	613.625
417.555	17.798	801.320	613.304
418.569	17.804	800.829	612.894
419.584	17.758	800.437	612.374
420.599	17.763	800.133	612.107
421.613	94.748	1267.705	1385.665
422.628	81.046	1335.834	1385.779
