DTS Sentinel unit serial number:	SN413079Multiplexer serial number:	ORYXHardware model number:	OX4-SRSoftware version number:	ORYX F/W v4.00 Oryx Data Collector v3.7.2.0data status	okinstallation	princeton_trtdifferential loss correction	single-endedforward channel	channel 3reverse channel	N/Adate	2019/09/12time	11:46:11forward acquisition time	60.00reverse acquisition time	0.00gamma	496.2192k internal	0.2293k external	0.2293temperature offset calibration	1.0038default loss term (dB/km)	0.3790temperature slope calibration	1.0000multiplexer offset coefficient	1.0000multiplexer slope coefficient	1.0000fibre end	0.00T internal ref (°C)	39.84T ext. ref 1 (°C)	2.00T ext. ref 2 (°C)	38.01length (m)	temperature (°C)	Stokes	anti-Stokes-747.200	-51.308	0.331	-0.159
-746.185	-200.000	0.065	0.331
-745.171	28.154	0.065	0.057
-744.156	800.000	0.035	0.130
-743.142	-200.000	0.356	-0.002
-742.127	-59.621	-0.120	-0.053
-741.112	-108.592	0.183	0.040
-740.098	-200.000	-0.004	0.223
-739.083	28.710	-0.040	-0.034
-738.069	259.388	-0.028	0.049
-737.054	-111.139	-0.280	0.059
-736.039	-108.095	-0.103	-0.023
-735.025	-3.233	-0.190	0.135
-734.010	-66.730	-0.265	-0.107
-732.996	-200.000	-0.012	-0.063
-731.981	800.000	0.073	0.282
-730.966	-111.967	-0.088	-0.018
-729.952	-98.565	-0.182	-0.048
-728.937	-200.000	0.000	-0.004
-727.923	800.000	0.021	-0.091
-726.908	-69.161	-0.165	-0.065
-725.894	-160.382	-0.667	-0.037
-724.879	65.315	-0.045	-0.047
-723.864	-198.204	0.639	0.004
-722.850	-90.010	-0.180	-0.054
-721.835	-12.648	0.043	-0.029
-720.821	208.525	0.087	0.140
-719.806	-43.374	0.178	0.092
-718.791	90.002	0.117	0.133
-717.777	800.000	0.031	0.094
-716.762	736.811	-0.096	0.264
-715.748	27.513	-0.153	0.131
-714.733	143.783	-0.161	0.219
-713.718	208.208	0.079	-0.126
-712.704	-19.554	0.040	0.025
-711.689	800.000	-0.060	-0.192
-710.675	11.024	0.224	-0.175
-709.660	-76.932	-0.250	-0.089
-708.645	182.846	0.070	-0.105
-707.631	1.947	-0.136	0.101
-706.616	156.244	-0.014	-0.020
-705.602	172.913	-0.119	-0.175
-704.587	155.501	-0.121	0.170
-703.572	-100.555	0.248	0.063
-702.558	376.020	0.120	-0.251
-701.543	164.503	-0.130	0.187
-700.529	-46.188	0.398	0.200
-699.514	85.887	0.196	-0.220
-698.499	74.416	0.290	-0.312
-697.485	422.828	0.135	0.296
-696.470	33.983	0.259	0.230
-695.456	-175.315	-0.102	-0.003
-694.441	-34.062	0.168	0.094
-693.426	96.821	-0.323	0.378
-692.412	-130.912	-0.275	0.038
-691.397	-175.086	0.228	0.006
-690.383	-124.629	-0.311	-0.049
-689.368	-200.000	-0.028	0.168
-688.354	-200.000	-0.008	-0.387
-687.339	800.000	0.131	-0.375
-686.324	15.094	0.261	0.209
-685.310	-37.726	0.316	0.172
-684.295	313.068	0.014	0.027
-683.281	-19.922	-0.271	-0.171
-682.266	-72.156	-0.070	-0.026
-681.251	79.182	-0.053	0.058
-680.237	32.212	-0.346	0.305
-679.222	800.000	-0.031	0.129
-678.208	800.000	-0.043	-0.179
-677.193	-33.009	0.237	-0.134
-676.178	-53.987	-0.236	-0.110
-675.164	-200.000	0.055	-0.260
-674.149	188.284	0.036	-0.055
-673.135	323.519	-0.168	0.327
-672.120	46.275	-0.101	0.096
-671.105	-52.823	0.188	-0.088
-670.091	46.164	-0.109	-0.103
-669.076	137.564	-0.280	-0.374
-668.062	800.000	0.048	0.212
-667.047	336.869	0.119	0.236
-666.032	-27.587	-0.191	0.113
-665.018	50.522	0.183	0.177
-664.003	215.714	-0.046	-0.075
-662.989	-55.604	0.502	0.229
-661.974	-65.856	-0.580	0.237
-660.959	800.000	0.041	-0.171
-659.945	-69.664	-0.209	-0.082
-658.930	-113.947	0.098	-0.019
-657.916	54.128	0.110	0.108
-656.901	-54.091	0.294	0.136
-655.886	-37.769	0.103	-0.056
-654.872	317.963	-0.120	0.232
-653.857	-23.422	0.126	-0.077
-652.843	4.015	0.253	-0.189
-651.828	-200.000	0.025	-0.367
-650.814	800.000	0.083	-0.244
-649.799	43.249	-0.121	-0.113
-648.784	-11.783	-0.244	-0.163
-647.770	800.000	0.095	0.277
-646.755	-200.000	0.029	0.313
-645.741	91.087	0.187	0.214
-644.726	-182.966	0.104	0.002
-643.711	-85.750	-0.072	-0.023
-642.697	-200.000	-0.003	0.097
-641.682	178.716	-0.106	0.158
-640.668	-133.207	-0.243	0.031
-639.653	-139.250	0.182	-0.020
-638.638	-18.298	-0.231	-0.147
-637.624	-26.395	-0.252	0.150
-636.609	800.000	0.116	0.487
-635.595	-130.790	-0.176	0.024
-634.580	800.000	0.041	0.132
-633.565	800.000	-0.088	0.321
-632.551	26.877	-0.234	-0.200
-631.536	84.124	-0.081	0.090
-630.522	101.566	-0.113	0.134
-629.507	26.602	0.159	-0.136
-628.492	-6.284	-0.058	0.040
-627.478	-158.779	0.213	-0.012
-626.463	47.919	0.045	0.043
-625.449	-105.093	-0.241	-0.056
-624.434	23.287	-0.173	-0.144
-623.419	254.864	-0.108	-0.188
-622.405	681.176	0.098	0.259
-621.390	-125.711	-0.153	-0.024
-620.376	-78.078	0.348	-0.122
-619.361	-17.082	-0.056	-0.036
-618.346	107.201	-0.109	-0.131
-617.332	-127.823	0.386	-0.057
-616.317	-42.655	-0.194	-0.100
-615.303	800.000	0.076	0.305
-614.288	-103.496	-0.218	0.052
-613.273	800.000	-0.049	-0.214
-612.259	-104.970	-0.010	-0.002
-611.244	-33.183	0.152	-0.086
-610.230	-112.439	-0.193	-0.039
-609.215	-49.808	0.182	-0.088
-608.201	10.286	0.091	0.071
-607.186	-200.000	-0.016	0.162
-606.171	800.000	-0.081	-0.309
-605.157	800.000	0.107	-0.314
-604.142	-182.293	0.598	-0.011
-603.128	130.878	-0.237	-0.310
-602.113	-58.371	-0.285	0.126
-601.098	53.485	-0.169	-0.165
-600.084	-89.147	0.324	0.097
-599.069	800.000	0.079	-0.243
-598.055	-64.917	-0.250	0.103
-597.040	-200.000	-0.001	0.219
-596.025	-200.000	-0.003	0.282
-595.011	273.952	0.078	-0.140
-593.996	3.822	-0.132	0.098
-592.982	41.806	0.181	0.167
-591.967	-150.370	-0.534	0.042
-590.952	276.385	-0.012	0.022
-589.938	-200.000	-0.015	-0.249
-588.923	-200.000	-0.033	-0.239
-587.909	-200.000	0.058	0.273
-586.894	-200.000	0.043	-0.319
-585.879	-94.784	-0.169	0.047
-584.865	46.277	-0.203	0.191
-583.850	-30.184	0.100	0.058
-582.836	632.525	0.016	-0.041
-581.821	161.153	-0.141	0.201
-580.806	63.723	0.204	0.208
-579.792	96.769	-0.060	0.070
-578.777	43.695	-0.151	0.141
-577.763	98.322	0.099	0.116
-576.748	-200.000	0.022	0.323
-575.733	-200.000	-0.014	-0.083
-574.719	55.593	-0.302	0.297
-573.704	368.851	-0.116	-0.238
-572.690	-159.507	-0.327	-0.019
-571.675	-131.015	-0.356	0.048
-570.661	517.442	0.072	-0.171
-569.646	292.709	-0.139	0.257
-568.631	224.076	-0.151	0.249
-567.617	-171.456	0.120	-0.004
-566.602	53.339	-0.148	0.144
-565.588	19.045	0.152	-0.124
-564.573	-124.001	-0.369	-0.059
-563.558	64.564	-0.054	-0.056
-562.544	309.172	0.050	-0.094
-561.529	463.101	-0.168	-0.382
-560.515	17.577	0.272	-0.219
-559.500	-90.223	0.241	-0.071
-558.485	-200.000	0.044	-0.203
-557.471	62.239	-0.135	0.137
-556.456	358.796	0.127	-0.258
-555.442	-200.000	0.010	-0.118
-554.427	-200.000	0.002	-0.236
-553.412	187.886	0.127	-0.193
-552.398	19.033	0.120	-0.098
-551.383	-16.374	0.094	0.060
-550.369	384.687	-0.127	-0.265
-549.354	306.905	0.133	-0.251
-548.339	-147.762	-0.149	0.013
-547.325	800.000	0.049	0.154
-546.310	127.399	-0.074	-0.095
-545.296	29.461	-0.203	-0.175
-544.281	-110.535	0.270	0.057
-543.266	57.322	-0.292	-0.289
-542.252	95.082	0.064	-0.074
-541.237	97.971	-0.070	-0.081
-540.223	8.219	0.098	0.075
-539.208	126.639	0.235	-0.302
-538.193	131.958	-0.092	0.120
-537.179	-99.457	-0.141	-0.036
-536.164	-35.925	0.135	-0.074
-535.150	300.096	-0.065	0.121
-534.135	-109.644	0.105	0.022
-533.121	385.455	-0.176	0.368
-532.106	-64.742	0.041	0.017
-531.091	798.108	-0.126	0.353
-530.077	564.922	0.093	-0.229
-529.062	-153.091	-0.093	0.007
-528.048	58.765	-0.252	-0.251
-527.033	-123.512	0.560	-0.090
-526.018	444.473	-0.088	-0.196
-525.004	800.000	-0.032	-0.116
-523.989	457.473	0.045	-0.101
-522.975	171.856	0.153	-0.223
-521.960	15.012	-0.090	0.071
-520.945	-45.137	-0.198	-0.100
-519.931	-200.000	0.029	0.196
-518.916	355.243	-0.067	0.135
-517.902	157.402	-0.146	0.204
-516.887	800.000	0.089	-0.279
-515.872	-200.000	0.001	0.113
-514.858	-18.535	-0.387	-0.245
-513.843	70.065	0.175	0.183
-512.829	-179.042	0.376	0.009
-511.814	69.104	0.139	-0.145
-510.799	188.316	0.082	0.124
-509.785	170.517	-0.133	-0.192
-508.770	56.289	-0.051	-0.050
-507.756	-55.597	-0.239	-0.109
-506.741	109.373	-0.060	-0.072
-505.726	-200.000	0.026	0.232
-504.712	-85.006	-0.039	0.012
-503.697	-5.375	-0.169	-0.118
-502.683	282.415	0.068	-0.124
-501.668	780.247	-0.045	-0.124
-500.653	212.400	-0.181	-0.290
-499.639	277.201	0.086	0.155
-498.624	210.459	0.120	0.192
-497.610	-32.980	0.208	-0.117
-496.595	-200.000	-0.036	0.265
-495.581	-22.709	0.256	-0.156
-494.566	-200.000	-0.021	0.436
-493.551	42.651	-0.309	0.285
-492.537	165.140	0.140	0.200
-491.522	78.807	-0.241	0.261
-490.508	279.548	-0.038	-0.070
-489.493	-200.000	0.047	-0.443
-488.478	153.363	-0.235	-0.326
-487.464	219.594	0.105	-0.170
-486.449	183.089	-0.112	-0.168
-485.435	150.303	0.171	-0.235
-484.420	-10.816	-0.170	-0.113
-483.405	-91.947	0.222	0.064
-482.391	800.000	0.023	0.077
-481.376	564.114	-0.100	0.246
-480.362	68.541	0.220	-0.229
-479.347	32.079	-0.184	-0.161
-478.332	56.419	0.176	0.173
-477.318	9.748	-0.117	-0.090
-476.303	34.496	-0.076	-0.067
-475.289	311.212	0.135	0.257
-474.274	-15.734	-0.180	-0.116
-473.259	-200.000	0.003	-0.032
-472.245	17.475	-0.310	0.250
-471.230	800.000	0.050	0.180
-470.216	403.746	-0.015	-0.032
-469.201	316.043	0.087	0.166
-468.186	-200.000	0.024	-0.186
-467.172	-96.379	0.279	0.075
-466.157	65.155	0.077	-0.079
-465.143	146.217	-0.279	0.379
-464.128	-106.003	0.550	-0.125
-463.113	123.536	0.093	-0.118
-462.099	-200.000	-0.012	-0.124
-461.084	-156.098	0.322	-0.021
-460.070	-200.000	-0.010	0.174
-459.055	-128.463	0.225	-0.032
-458.040	-137.859	0.200	0.023
-457.026	800.000	0.097	0.272
-456.011	192.776	0.112	0.171
-454.997	-74.112	0.469	-0.172
-453.982	-200.000	0.009	-0.231
-452.968	155.456	0.075	-0.104
-451.953	-80.566	0.130	-0.044
-450.938	115.390	-0.117	0.144
-449.924	-200.000	0.022	0.263
-448.909	-60.290	0.255	-0.110
-447.895	223.304	0.253	-0.413
-446.880	-124.439	-0.291	-0.046
-445.865	800.000	-0.035	0.148
-444.851	106.879	0.092	0.110
-443.836	-89.175	0.114	0.034
-442.822	-200.000	0.007	0.185
-441.807	55.960	-0.109	-0.107
-440.792	53.606	-0.152	-0.148
-439.778	-134.778	-0.233	0.029
-438.763	279.567	-0.143	0.259
-437.749	161.666	-0.034	-0.048
-436.734	800.000	-0.103	-0.301
-435.719	4.159	0.275	0.203
-434.705	-200.000	-0.036	-0.166
-433.690	240.069	-0.110	-0.185
-432.676	30.172	0.071	-0.061
-431.661	-200.000	0.016	-0.260
-430.646	800.000	-0.071	-0.251
-429.632	-200.000	-0.009	0.147
-428.617	800.000	-0.083	0.277
-427.603	196.181	-0.105	0.162
-426.588	183.875	0.040	-0.060
-425.573	72.208	0.029	0.031
-424.559	-200.000	0.023	0.123
-423.544	800.000	0.088	-0.365
-422.530	-75.292	0.153	-0.055
-421.515	-120.055	0.304	-0.053
-420.500	-20.824	-0.099	-0.061
-419.486	800.000	0.106	-0.406
-418.471	-125.709	-0.188	0.029
-417.457	-54.092	0.102	0.047
-416.442	-107.711	0.120	0.026
-415.428	300.300	0.063	0.117
-414.413	47.685	-0.341	-0.321
-413.398	-200.000	0.011	-0.093
-412.384	-183.053	0.299	0.005
-411.369	-64.527	-0.193	-0.079
-410.355	6.222	0.111	-0.083
-409.340	-196.738	-0.193	0.001
-408.325	800.000	-0.095	-0.409
-407.311	-136.917	0.136	-0.016
-406.296	800.000	-0.025	0.103
-405.282	-19.442	0.194	0.121
-404.267	3.275	0.074	0.054
-403.252	253.903	0.123	0.211
-402.238	35.113	-0.018	0.016
-401.223	219.479	-0.217	0.351
-400.209	120.396	-0.151	0.190
-399.194	-38.906	-0.216	-0.115
-398.179	-3.005	-0.151	0.107
-397.165	-200.000	-0.005	-0.210
-396.150	800.000	0.013	-0.044
-395.136	-139.377	-0.122	-0.013
-394.121	-98.966	-0.151	-0.039
-393.106	-27.483	0.429	-0.252
-392.092	126.572	0.095	0.121
-391.077	10.939	-0.049	-0.038
-390.063	800.000	0.064	0.253
-389.048	800.000	0.080	-0.306
-388.033	-66.965	0.156	0.062
-387.019	-200.000	-0.004	0.124
-386.004	2.182	0.110	0.080
-384.990	-172.256	-0.267	-0.009
-383.975	461.836	0.055	-0.123
-382.960	341.805	0.123	0.243
-381.946	82.167	-0.174	0.190
-380.931	615.414	0.053	-0.135
-379.917	-9.045	0.079	-0.054
-378.902	800.000	0.059	-0.166
-377.888	-49.064	0.055	-0.027
-376.873	194.782	0.168	-0.258
-375.858	182.758	-0.031	0.046
-374.844	-200.000	-0.034	0.196
-373.829	-67.202	0.246	0.097
-372.815	-128.574	0.093	-0.013
-371.800	-200.000	0.060	0.288
-370.785	-83.663	-0.224	0.072
-369.771	38.619	-0.170	0.153
-368.756	-25.190	-0.041	-0.025
-367.742	-200.000	-0.045	0.361
-366.727	800.000	0.030	0.095
-365.712	-200.000	-0.014	-0.170
-364.698	-27.558	-0.209	0.122
-363.683	596.003	-0.030	-0.075
-362.669	-72.564	0.106	0.039
-361.654	800.000	-0.125	-0.461
-360.639	-97.634	0.117	-0.031
-359.625	-200.000	-0.015	-0.205
-358.610	360.655	-0.043	-0.087
-357.596	-200.000	-0.358	-0.001
-356.581	369.709	0.195	0.397
-355.566	-30.859	-0.069	-0.040
-354.552	335.805	0.014	0.027
-353.537	170.312	-0.144	-0.207
-352.523	-193.191	0.295	0.003
-351.508	-95.048	-0.301	-0.082
-350.493	108.837	0.102	0.123
-349.479	-121.066	0.283	-0.048
-348.464	-159.087	0.163	0.009
-347.450	83.993	-0.078	-0.085
-346.435	675.735	0.090	-0.236
-345.420	-14.332	-0.208	-0.135
-344.406	-89.089	0.347	-0.103
-343.391	-0.820	0.191	-0.136
-342.377	-172.172	0.326	-0.011
-341.362	11.160	-0.230	-0.177
-340.348	800.000	-0.032	0.122
-339.333	32.140	0.303	0.263
-338.318	-200.000	-0.037	0.187
-337.304	493.098	0.099	-0.230
-336.289	-126.446	-0.245	-0.037
-335.275	29.785	-0.052	0.045
-334.260	794.411	-0.011	-0.031
-333.245	-145.237	-0.227	0.021
-332.231	-65.496	0.066	-0.027
-331.216	-158.097	-0.168	-0.010
-330.202	575.650	0.061	0.151
-329.187	-200.000	-0.025	0.146
-328.172	-1.889	0.295	0.209
-327.158	800.000	0.134	0.428
-326.143	216.791	-0.129	0.206
-325.129	-200.000	-0.026	0.164
-324.114	-41.680	0.141	0.073
-323.099	-38.006	0.194	0.104
-322.085	-66.736	0.441	-0.176
-321.070	-200.000	0.006	0.133
-320.056	85.943	0.149	0.165
-319.041	105.864	0.113	0.134
-318.026	8.712	0.192	0.146
-317.012	48.663	0.137	-0.130
-315.997	-35.472	-0.160	-0.087
-314.983	-89.479	0.084	0.025
-313.968	-101.474	0.169	0.041
-312.953	-200.000	0.013	-0.097
-311.939	78.304	-0.269	-0.288
-310.924	8.223	0.228	-0.173
-309.910	58.324	-0.164	-0.161
-308.895	-200.000	0.034	0.341
-307.880	-200.000	0.024	0.192
-306.866	392.411	-0.188	-0.393
-305.851	-85.535	-0.487	0.152
-304.837	113.424	-0.113	0.138
-303.822	800.000	0.026	-0.112
-302.807	53.270	0.128	-0.124
-301.793	-111.991	-0.336	0.068
-300.778	71.898	0.076	-0.079
-299.764	-142.878	0.073	-0.007
-298.749	347.482	-0.043	0.086
-297.735	-200.000	0.009	-0.258
-296.720	-175.867	0.150	0.004
-295.705	-109.126	-0.250	0.053
-294.691	-106.535	0.098	-0.022
-293.676	273.857	-0.149	-0.265
-292.662	-75.029	-0.216	-0.078
-291.647	47.008	-0.061	0.057
-290.632	-36.521	0.036	0.020
-289.618	800.000	0.035	0.101
-288.603	-13.306	-0.064	-0.042
-287.589	248.656	0.065	-0.111
-286.574	78.859	-0.273	-0.293
-285.559	-119.115	-0.330	0.058
-284.545	149.042	-0.226	0.307
-283.530	-178.736	0.170	-0.004
-282.516	172.113	0.106	-0.153
-281.501	144.352	-0.167	0.224
-280.486	401.880	0.131	0.276
-279.472	-143.697	0.067	0.006
-278.457	800.000	-0.079	-0.223
-277.443	-148.244	0.300	-0.025
-276.428	506.781	-0.121	0.282
-275.413	-38.701	-0.165	-0.088
-274.399	-48.859	-0.020	-0.010
-273.384	-97.164	-0.182	-0.048
-272.370	239.672	0.095	0.159
-271.355	13.175	-0.154	-0.119
-270.340	-100.626	-0.544	0.135
-269.326	-200.000	-0.005	0.197
-268.311	-200.000	-0.002	0.266
-267.297	37.635	-0.169	0.150
-266.282	7.280	0.304	0.228
-265.267	0.857	-0.226	0.163
-264.253	9.430	0.215	-0.163
-263.238	144.765	-0.083	0.112
-262.224	39.386	0.222	0.200
-261.209	-200.000	-0.054	0.363
-260.195	217.559	-0.055	-0.088
-259.180	-200.000	-0.041	-0.331
-258.165	519.132	0.088	0.208
-257.151	29.683	-0.154	-0.131
-256.136	349.364	-0.119	0.236
-255.122	-102.628	0.360	0.086
-254.107	-115.246	-0.378	0.072
-253.092	-157.728	-0.263	0.016
-252.078	-140.401	0.363	0.038
-251.063	-200.000	-0.003	0.334
-250.049	-128.603	0.143	-0.020
-249.034	-200.000	0.000	-0.146
-248.019	-74.702	-0.143	-0.051
-247.005	-118.665	0.011	0.002
-245.990	-200.000	0.011	0.071
-244.976	-23.237	-0.153	0.092
-243.961	106.686	-0.057	0.068
-242.946	-127.383	-0.149	-0.022
-241.932	-200.000	0.037	-0.234
-240.917	-52.377	-0.200	0.093
-239.903	-200.000	-0.021	0.142
-238.888	20.738	0.154	0.125
-237.873	394.059	-0.121	0.252
-236.859	356.643	0.113	0.225
-235.844	800.000	0.080	0.232
-234.830	62.890	-0.286	-0.287
-233.815	22.149	0.209	0.171
-232.800	-142.816	0.228	0.022
-231.786	60.231	0.164	0.163
-230.771	-0.830	-0.118	-0.084
-229.757	-162.241	0.482	-0.024
-228.742	-200.000	-0.001	0.412
-227.727	-200.000	-0.053	-0.345
-226.713	85.672	0.105	-0.115
-225.698	66.513	0.142	-0.145
-224.684	-167.403	-0.250	0.010
-223.669	170.268	0.122	0.175
-222.655	-63.747	0.185	-0.076
-221.640	86.054	-0.179	0.198
-220.625	192.190	-0.062	0.094
-219.611	-55.900	0.145	-0.065
-218.596	89.359	0.175	-0.195
-217.582	32.882	-0.162	-0.141
-216.567	-146.293	0.346	0.030
-215.552	-3.657	0.185	-0.129
-214.538	-125.006	0.201	0.031
-213.523	260.110	-0.221	-0.383
-212.509	-200.000	0.060	-0.339
-211.494	-149.593	-0.238	-0.019
-210.479	-55.085	-0.221	-0.100
-209.465	54.699	0.122	-0.117
-208.450	-45.750	0.180	-0.089
-207.436	-156.616	0.138	-0.009
-206.421	462.435	-0.086	-0.192
-205.406	39.274	-0.078	0.070
-204.392	531.944	-0.098	-0.231
-203.377	291.423	0.095	0.173
-202.363	45.223	0.190	-0.175
-201.348	-9.599	0.068	-0.045
-200.333	-96.310	0.141	-0.037
-199.319	-200.000	-0.011	-0.167
-198.304	26.403	0.271	-0.227
-197.290	194.336	-0.029	-0.044
-196.275	9.431	0.170	-0.129
-195.260	691.923	0.191	0.500
-194.246	-186.358	0.100	0.001
-193.231	-200.000	0.036	-0.305
-192.217	-200.000	-0.041	0.321
-191.202	163.290	-0.188	0.264
-190.187	-39.802	0.148	-0.078
-189.173	800.000	-0.121	-0.336
-188.158	-58.899	-0.157	0.068
-187.144	33.768	0.129	-0.113
-186.129	326.245	0.017	-0.033
-185.114	-94.951	-0.083	-0.023
-184.100	800.000	-0.103	0.337
-183.085	-113.873	-0.461	0.090
-182.071	-104.089	-0.338	0.079
-181.056	319.121	0.120	0.229
-180.042	123.213	-0.045	-0.057
-179.027	-200.000	0.004	-0.400
-178.012	-200.000	0.003	0.033
-176.998	615.023	-0.090	0.226
-175.983	-43.181	-0.144	0.073
-174.969	29.935	0.186	-0.159
-173.954	39.700	0.150	0.134
-172.939	-59.168	0.334	0.144
-171.925	-200.000	0.020	0.104
-170.910	-145.687	-0.119	-0.011
-169.896	-200.000	0.300	0.001
-168.881	-80.451	-0.247	-0.083
-167.866	-55.651	-0.187	0.084
-166.852	-200.000	0.057	-0.354
-165.837	126.910	0.145	-0.184
-164.823	241.900	-0.066	0.111
-163.808	185.198	0.195	0.289
-162.793	800.000	-0.053	0.208
-161.779	-120.908	-0.241	0.041
-160.764	448.243	-0.232	-0.510
-159.750	123.930	0.178	0.223
-158.735	-200.000	0.039	0.336
-157.720	-87.414	0.220	-0.067
-156.706	-79.210	0.240	-0.081
-155.691	-158.694	-0.098	0.006
-154.677	18.971	0.074	-0.059
-153.662	-200.000	0.026	0.135
-152.647	-174.140	-0.192	-0.006
-151.633	69.840	0.203	-0.209
-150.618	152.620	0.248	-0.338
-149.604	339.445	0.200	0.390
-148.589	384.385	-0.106	0.219
-147.574	645.993	0.086	0.219
-146.560	21.706	-0.206	-0.168
-145.545	138.780	-0.150	0.198
-144.531	132.734	0.019	-0.024
-143.516	-116.644	-0.501	0.092
-142.502	-28.231	0.203	-0.117
-141.487	-200.000	0.030	0.386
-140.472	22.163	-0.110	0.090
-139.458	-176.516	-0.197	-0.005
-138.443	105.838	0.174	0.206
-137.429	-200.000	-0.000	0.145
-136.414	38.778	0.238	0.212
-135.399	-7.220	-0.379	0.256
-134.385	249.746	0.083	0.140
-133.370	-134.057	-0.161	0.020
-132.356	-60.018	0.176	0.075
-131.341	-41.860	-0.067	0.034
-130.326	37.802	-0.087	0.077
-129.312	189.084	0.148	-0.222
-128.297	9.767	0.280	0.212
-127.283	-97.062	0.114	-0.030
-126.268	-31.456	0.099	0.055
-125.253	-50.503	-0.033	-0.016
-124.239	-70.698	-0.147	-0.055
-123.224	-120.987	0.248	0.042
-122.210	-61.979	0.299	-0.125
-121.195	366.131	-0.107	-0.216
-120.180	-64.294	-0.224	0.091
-119.166	143.630	-0.186	-0.247
-118.151	25.977	0.064	0.053
-117.137	-33.689	0.180	-0.099
-116.122	-78.712	0.280	0.096
-115.107	-39.068	-0.193	0.101
-114.093	-74.645	0.390	-0.140
-113.078	-117.097	0.200	0.036
-112.064	52.743	0.018	-0.017
-111.049	9.533	0.276	-0.209
-110.034	14.292	0.210	-0.164
-109.020	-200.000	-0.046	0.397
-108.005	-41.455	0.176	-0.090
-106.991	-200.000	-0.014	0.136
-105.976	800.000	0.051	-0.190
-104.962	-183.623	-0.167	-0.003
-103.947	171.759	0.169	0.242
-102.932	-138.216	0.114	0.013
-101.918	-200.000	-0.003	0.161
-100.903	419.992	0.080	-0.171
-99.889	-113.691	-0.052	-0.010
-98.874	800.000	0.048	0.149
-97.859	-3.236	-0.182	0.126
-96.845	-98.204	-0.382	0.098
-95.830	-128.720	0.188	-0.027
-94.816	-3.276	0.291	-0.202
-93.801	-116.887	-0.145	-0.027
-92.786	70.581	0.048	0.050
-91.772	115.503	0.110	0.134
-90.757	800.000	0.130	-0.371
-89.743	-200.000	0.038	-0.240
-88.728	-200.000	-0.014	-0.372
-87.713	800.000	-0.017	-0.062
-86.699	-24.045	0.495	-0.295
-85.684	212.000	-0.061	0.095
-84.670	-28.545	0.233	-0.134
-83.655	-200.000	-0.004	0.163
-82.640	-45.275	-0.218	-0.108
-81.626	-78.134	0.315	-0.108
-80.611	176.236	0.017	0.025
-79.597	-200.000	-0.018	0.127
-78.582	-200.000	0.025	-0.227
-77.567	-95.333	-0.342	-0.092
-76.553	79.553	-0.348	-0.372
-75.538	7.854	-0.182	0.136
-74.524	754.669	0.089	0.239
-73.509	33.770	0.192	0.166
-72.494	-4.250	0.267	0.184
-71.480	-68.592	0.259	0.100
-70.465	53.086	-0.153	0.146
-69.451	-105.763	-0.189	-0.043
-68.436	-113.307	0.421	0.082
-67.422	-51.203	0.340	0.159
-66.407	800.000	-0.054	-0.178
-65.392	-114.883	0.263	0.050
-64.378	-56.578	-0.096	0.043
-63.363	-200.000	-0.005	-0.164
-62.349	42.882	0.289	0.262
-61.334	153.084	-0.569	-0.775
-60.319	-200.000	-0.015	0.476
-59.305	-200.000	-0.068	-0.766
-58.290	800.000	0.306	0.905
-57.276	334.325	0.821	1.582
-56.261	-200.000	76.472	506.754
-55.246	497.080	1349.280	3090.881
-54.232	143.973	2587.163	3435.054
-53.217	113.982	2258.491	2734.554
-52.203	50.261	1782.316	1676.319
-51.188	43.061	1582.085	1436.846
-50.173	40.512	1552.259	1391.839
-49.159	56.600	1589.167	1539.214
-48.144	62.166	1608.983	1597.757
-47.130	43.828	1572.641	1433.476
-46.115	40.144	1558.582	1394.696
-45.100	39.949	1555.072	1390.122
-44.086	39.907	1552.701	1387.659
-43.071	39.823	1551.001	1385.494
-42.057	39.866	1548.945	1383.906
-41.042	39.847	1547.899	1382.782
-40.027	39.831	1545.982	1380.900
-39.013	39.878	1544.077	1379.474
-37.998	39.779	1543.307	1378.041
-36.984	39.869	1542.163	1377.587
-35.969	39.817	1541.043	1376.174
-34.954	39.857	1539.423	1374.949
-33.940	39.843	1538.184	1373.693
-32.925	39.851	1536.239	1371.955
-31.911	39.791	1535.287	1370.634
-30.896	39.911	1533.834	1370.112
-29.881	39.913	1532.074	1368.503
-28.867	39.895	1531.604	1367.900
-27.852	39.895	1529.804	1366.241
-26.838	39.907	1528.117	1364.762
-25.823	39.895	1526.850	1363.494
-24.809	39.943	1524.470	1361.646
-23.794	39.837	1523.283	1359.801
-22.779	39.836	1522.329	1358.888
-21.765	39.906	1521.167	1358.279
-20.750	40.065	1519.571	1357.892
-19.736	39.895	1518.760	1355.950
-18.721	39.807	1517.946	1354.565
-17.706	39.946	1515.889	1353.629
-16.692	39.937	1515.395	1353.070
-15.677	39.816	1514.666	1351.536
-14.663	39.796	1513.570	1350.368
-13.648	39.875	1511.971	1349.426
-12.633	39.748	1511.746	1348.309
-11.619	39.752	1510.595	1347.252
-10.604	39.769	1509.561	1346.394
-9.590	39.787	1508.819	1345.801
-8.575	39.841	1507.430	1344.874
-7.560	39.859	1506.681	1344.274
-6.546	39.707	1506.048	1342.623
-5.531	39.713	1505.164	1341.821
-4.517	39.809	1503.765	1341.179
-3.502	39.849	1503.080	1340.785
-2.487	39.709	1502.178	1338.976
-1.473	39.757	1500.738	1337.961
-0.458	39.878	1499.416	1337.552
0.556	40.163	1491.054	1329.006
1.571	37.842	1463.342	1288.867
2.586	34.226	1400.371	1210.361
3.600	32.296	1316.260	1126.015
4.615	30.354	1266.596	1072.229
5.629	25.083	1206.779	992.404
6.644	13.008	1112.812	853.008
7.659	3.698	1065.155	770.161
8.673	2.309	1059.087	758.813
9.688	2.017	1056.149	755.197
10.702	1.779	1054.568	752.822
11.717	1.887	1052.669	751.934
12.731	5.286	1057.163	771.891
13.746	16.180	1073.208	837.921
14.761	24.312	1083.655	886.612
15.775	25.418	1083.866	892.203
16.790	25.443	1083.587	892.017
17.804	25.234	1082.584	890.076
18.819	25.154	1081.568	888.764
19.834	25.226	1080.886	888.483
20.848	25.290	1080.771	888.629
21.863	25.210	1080.844	888.215
22.877	25.292	1080.215	888.026
23.892	25.305	1079.368	887.311
24.907	25.266	1078.568	886.386
25.921	25.276	1077.895	885.801
26.936	25.207	1077.351	884.934
27.950	25.209	1075.634	883.458
28.965	25.223	1074.846	882.800
29.980	25.008	1073.537	880.593
30.994	25.145	1072.163	880.060
32.009	25.243	1071.288	879.744
33.023	25.495	1070.316	880.100
34.038	25.108	1069.923	877.806
35.053	25.206	1068.638	877.155
36.067	25.182	1068.521	876.861
37.082	25.243	1067.557	876.290
38.096	25.306	1066.816	875.910
39.111	25.525	1066.306	876.483
40.126	25.670	1065.067	876.093
41.140	25.414	1064.243	874.092
42.155	25.171	1063.001	871.814
43.169	24.828	1061.776	869.069
44.184	24.887	1060.523	868.250
45.199	24.932	1059.262	867.359
46.213	24.895	1058.251	866.276
47.228	24.831	1057.858	865.568
48.242	25.119	1056.623	865.874
49.257	25.100	1056.345	865.476
50.271	25.118	1055.519	864.812
51.286	25.347	1054.444	864.954
52.301	25.307	1053.697	864.074
53.315	25.359	1053.277	863.903
54.330	25.215	1052.535	862.527
55.344	25.270	1051.333	861.730
56.359	25.225	1050.922	861.100
57.374	25.218	1049.825	860.091
58.388	25.088	1049.106	858.802
59.403	24.995	1048.243	857.578
60.417	25.082	1047.297	857.142
61.432	24.802	1046.961	855.450
62.447	24.923	1045.900	855.086
63.461	24.973	1045.601	855.008
64.476	24.999	1044.819	854.417
65.490	25.011	1043.739	853.513
66.505	24.894	1042.923	852.216
67.520	24.833	1041.918	851.028
68.534	24.994	1041.304	851.215
69.549	24.934	1040.090	849.865
70.563	24.602	1038.646	847.034
71.578	24.505	1038.236	846.167
72.593	24.552	1037.305	845.556
73.607	24.451	1036.217	844.116
74.622	24.296	1035.694	842.881
75.636	24.659	1034.879	843.859
76.651	24.801	1034.227	843.920
77.666	24.651	1033.198	842.299
78.680	24.652	1032.141	841.367
79.695	24.517	1032.007	840.551
80.709	24.652	1031.539	840.729
81.724	24.834	1030.640	840.779
82.739	24.891	1029.698	840.202
83.753	24.853	1028.819	839.232
84.768	25.125	1028.189	839.919
85.782	25.372	1027.803	840.684
86.797	25.618	1027.153	841.229
87.812	25.530	1026.128	839.906
88.826	25.479	1025.247	838.871
89.841	25.229	1025.124	837.532
90.855	25.499	1024.084	837.866
91.870	25.348	1023.397	836.525
92.884	25.521	1022.262	836.328
93.899	25.354	1021.394	834.767
94.914	25.284	1020.356	833.520
95.928	25.390	1019.520	833.257
96.943	25.449	1018.690	832.777
97.957	25.157	1017.599	830.459
98.972	24.980	1016.471	828.647
99.987	24.785	1015.377	826.781
101.001	24.878	1014.616	826.520
102.016	25.118	1014.412	827.387
103.030	25.210	1013.840	827.269
104.045	25.071	1013.031	825.896
105.060	24.945	1011.658	824.126
106.074	24.864	1010.419	822.671
107.089	24.827	1009.404	821.600
108.103	25.144	1009.268	822.870
109.118	25.322	1008.294	822.824
110.133	24.941	1007.241	820.145
111.147	24.913	1006.195	819.090
112.162	24.722	1005.182	817.323
113.176	24.570	1003.748	815.390
114.191	24.799	1003.401	816.082
115.206	24.937	1002.430	815.849
116.220	24.562	1001.177	813.048
117.235	24.383	1000.320	811.470
118.249	24.612	999.644	811.889
119.264	24.603	998.999	811.253
120.279	24.601	997.975	810.339
121.293	24.563	996.949	809.264
122.308	24.603	996.639	809.120
123.322	24.560	995.658	808.058
124.337	24.539	994.435	806.898
125.352	24.461	993.255	805.517
126.366	24.118	991.806	802.726
127.381	23.784	990.716	800.269
128.395	24.192	990.861	802.151
129.410	24.976	990.330	805.178
130.424	25.055	989.710	804.956
131.439	25.140	988.678	804.425
132.454	25.184	987.269	803.405
133.468	25.148	986.365	802.440
134.483	25.073	985.833	801.600
135.497	25.129	985.234	801.292
136.512	25.322	984.788	801.720
137.527	25.308	984.263	801.157
138.541	25.281	983.574	800.407
139.556	25.340	982.813	799.981
140.570	25.308	981.969	799.080
141.585	25.385	981.119	798.660
142.600	25.435	980.406	798.233
143.614	25.319	979.293	796.737
144.629	25.456	978.430	796.575
145.643	25.598	978.289	797.020
146.658	25.571	976.801	795.617
147.673	25.292	975.897	793.574
148.687	25.325	974.407	792.442
149.702	25.233	973.509	791.235
150.716	25.129	972.584	789.954
151.731	25.061	971.594	788.780
152.746	25.121	971.009	788.501
153.760	25.320	970.435	788.838
154.775	25.464	969.556	788.686
155.789	25.557	968.600	788.247
156.804	25.601	967.361	787.360
157.819	25.417	966.949	786.152
158.833	25.466	965.810	785.371
159.848	25.500	965.481	785.182
160.862	25.551	964.602	784.619
161.877	25.396	964.138	783.495
162.892	25.390	962.891	782.386
163.906	25.434	962.350	782.069
164.921	25.492	961.277	781.383
165.935	25.454	959.892	780.020
166.950	25.470	959.238	779.489
167.964	25.482	958.496	778.869
168.979	25.538	957.102	777.913
169.994	25.296	956.587	776.378
171.008	25.289	955.268	775.208
172.023	25.412	954.813	775.299
173.037	25.519	954.260	775.245
174.052	25.459	952.781	773.714
175.067	25.248	951.717	771.875
176.081	25.147	950.709	770.556
177.096	25.248	950.259	770.556
178.110	25.353	949.225	770.102
179.125	25.108	948.553	768.437
180.140	24.774	947.297	765.923
181.154	24.917	946.777	766.045
182.169	24.975	946.257	765.803
183.183	25.189	946.081	766.510
184.198	25.512	945.466	767.321
185.213	25.391	944.776	766.180
186.227	25.426	944.041	765.666
187.242	25.475	943.646	765.484
188.256	25.433	943.290	764.949
189.271	25.449	942.420	764.244
190.286	25.593	941.590	764.117
191.300	25.413	940.990	762.798
192.315	24.723	939.911	758.927
193.329	24.049	937.659	754.188
194.344	23.752	936.343	751.806
195.359	24.244	937.008	754.353
196.373	25.110	937.656	758.477
197.388	25.384	937.272	759.256
198.402	25.372	936.505	758.517
199.417	25.249	935.805	757.364
200.432	25.272	935.863	757.442
201.446	25.287	934.797	756.576
202.461	25.064	933.745	754.717
203.475	25.074	932.939	754.039
204.490	24.662	931.629	751.186
205.504	23.531	929.914	744.988
206.519	23.791	929.815	745.933
207.534	24.849	929.883	750.361
208.548	25.016	929.286	750.514
209.563	25.264	929.608	751.747
210.577	25.310	928.629	751.080
211.592	25.031	927.996	749.335
212.607	25.426	927.650	750.639
213.621	25.655	927.111	751.092
214.636	25.468	926.421	749.690
215.650	25.531	925.675	749.281
216.665	25.573	925.138	748.955
217.680	25.432	925.028	748.213
218.694	25.635	923.959	748.127
219.709	25.245	922.897	745.579
220.723	24.802	922.310	743.201
221.738	25.029	921.949	743.785
222.753	25.335	921.183	744.369
223.767	25.241	920.887	743.674
224.782	25.314	919.884	743.101
225.796	25.369	919.841	743.228
226.811	25.646	918.984	743.617
227.826	25.328	917.750	741.238
228.840	24.442	916.144	736.223
229.855	24.293	915.676	735.166
230.869	24.605	915.522	736.264
231.884	24.305	914.082	733.808
232.899	24.302	913.700	733.422
233.913	25.139	913.618	736.732
234.928	25.246	913.381	736.915
235.942	25.074	912.905	735.761
236.957	25.146	912.020	735.278
237.972	24.797	911.508	733.369
238.986	24.829	910.420	732.561
240.001	24.838	910.016	732.206
241.015	24.839	909.634	731.838
242.030	25.080	908.561	731.896
243.045	25.205	907.776	731.708
244.059	25.307	907.730	732.024
245.074	25.438	907.530	732.330
246.088	25.436	906.597	731.504
247.103	24.925	905.855	728.761
248.117	25.116	905.081	728.852
249.132	25.531	905.289	730.642
250.147	25.920	905.170	732.063
251.161	26.026	904.227	731.662
252.176	26.213	903.926	732.114
253.190	26.436	902.861	732.088
254.205	26.301	902.528	731.208
255.220	26.472	902.446	731.769
256.234	26.455	901.534	730.895
257.249	26.341	900.664	729.667
258.263	26.291	900.063	728.912
259.278	26.014	899.741	727.468
260.293	26.342	899.138	728.238
261.307	26.367	898.642	727.876
262.322	26.235	897.927	726.700
263.336	26.161	897.426	725.932
264.351	25.635	896.244	722.798
265.366	24.568	894.024	716.668
266.380	24.116	892.911	713.899
267.395	24.882	893.567	717.431
268.409	25.715	893.482	720.638
269.424	25.799	892.811	720.367
270.439	25.836	892.569	720.258
271.453	26.085	891.667	720.460
272.468	26.008	891.264	719.762
273.482	26.036	891.167	719.734
274.497	26.273	890.193	719.828
275.512	26.042	889.328	718.145
276.526	25.512	888.044	714.937
277.541	25.760	887.482	715.405
278.555	26.141	887.367	716.764
279.570	25.934	886.354	715.059
280.585	25.675	885.930	713.629
281.599	25.770	885.553	713.638
282.614	25.939	885.081	713.864
283.628	25.517	883.949	711.217
284.643	24.974	883.482	708.633
285.657	25.518	883.009	710.339
286.672	25.523	882.148	709.606
287.687	25.033	880.874	706.587
288.701	25.269	880.973	707.534
289.716	25.686	880.688	708.882
290.730	25.367	880.075	707.074
291.745	25.171	879.640	705.889
292.760	25.120	878.016	704.322
293.774	24.984	877.430	703.255
294.789	25.867	878.245	707.314
295.803	26.516	878.423	709.944
296.818	26.666	877.356	709.607
297.833	26.656	877.061	709.263
298.847	26.271	876.429	707.184
299.862	26.037	875.045	705.090
300.876	26.175	875.033	705.557
301.891	26.535	874.683	706.620
302.906	26.449	874.244	705.866
303.920	26.192	872.465	703.367
304.935	26.089	872.039	702.560
305.949	26.457	871.928	703.843
306.964	26.507	871.473	703.606
307.979	26.427	870.189	702.198
308.993	26.121	870.268	701.011
310.008	26.532	870.070	702.385
311.022	26.616	869.658	702.316
312.037	26.580	868.895	701.497
313.052	26.183	868.538	699.607
314.066	26.211	867.534	698.847
315.081	25.691	865.676	695.279
316.095	24.771	864.860	691.009
317.110	25.156	864.787	692.379
318.125	26.170	865.246	696.598
319.139	25.807	864.149	694.254
320.154	24.664	862.290	688.301
321.168	24.024	861.203	684.910
322.183	24.665	861.829	687.816
323.197	25.503	862.143	691.229
324.212	26.048	861.760	692.955
325.227	26.199	861.134	692.967
326.241	26.329	860.994	693.294
327.256	26.402	859.769	692.525
328.270	26.064	859.490	690.945
329.285	26.041	858.779	690.226
330.300	25.798	858.116	688.703
331.314	25.609	857.349	687.304
332.329	25.556	856.922	686.697
333.343	26.136	856.331	688.375
334.358	26.412	856.121	689.198
335.373	26.556	855.422	689.125
336.387	26.375	854.984	688.020
337.402	26.665	854.634	688.782
338.416	26.884	854.351	689.325
339.431	26.815	854.107	688.803
340.446	26.724	853.500	687.908
341.460	27.167	852.524	688.740
342.475	26.979	852.524	687.966
343.489	26.760	851.407	686.175
344.504	26.677	851.177	685.616
345.519	26.956	850.733	686.250
346.533	27.215	850.474	686.961
347.548	27.136	849.787	686.046
348.562	27.215	849.647	686.170
349.577	27.193	848.739	685.296
350.592	27.195	848.319	684.900
351.606	27.074	847.923	684.064
352.621	27.122	847.188	683.593
353.635	27.015	846.670	682.712
354.650	27.015	846.105	682.198
355.665	26.646	845.548	680.302
356.679	25.595	843.495	674.650
357.694	25.582	842.818	673.998
358.708	26.111	842.791	675.899
359.723	26.026	842.215	675.058
360.738	26.252	842.307	675.918
361.752	26.644	842.731	677.668
362.767	26.870	841.888	677.775
363.781	27.037	841.878	678.330
364.796	27.531	841.094	679.480
365.810	27.526	840.952	679.286
366.825	27.560	840.670	679.127
367.840	27.658	840.267	679.105
368.854	27.451	839.762	677.868
369.869	26.946	838.620	675.006
370.883	26.943	837.746	674.234
371.898	26.812	837.530	673.514
372.913	26.816	836.756	672.847
373.927	26.783	836.092	672.129
374.942	26.969	835.732	672.472
375.956	27.113	835.093	672.430
376.971	27.171	834.351	671.986
377.986	27.429	833.867	672.490
379.000	27.316	833.791	671.954
380.015	27.406	833.279	671.812
381.029	27.427	832.289	671.034
382.044	27.329	831.948	670.337
383.059	27.471	831.341	670.310
384.073	27.569	830.610	670.022
385.088	27.542	830.387	669.686
386.102	27.497	829.976	669.128
387.117	27.276	828.975	667.450
388.132	27.180	828.643	666.775
389.146	27.079	827.625	665.523
390.161	26.594	826.760	662.994
391.175	26.415	826.651	662.195
392.190	27.055	826.532	664.380
393.205	27.190	826.231	664.573
394.219	26.267	824.420	659.692
395.234	24.575	822.039	651.561
396.248	23.647	820.647	647.018
397.263	24.760	821.780	651.915
398.278	26.591	823.353	659.784
399.292	27.127	823.109	661.481
400.307	26.705	822.594	659.473
401.321	26.583	821.939	658.448
402.336	26.893	821.683	659.311
403.350	27.088	821.591	659.889
404.365	27.533	821.459	661.336
405.380	27.817	821.292	662.175
406.394	28.197	820.732	663.044
407.409	28.180	820.624	662.835
408.423	28.238	819.982	662.467
409.438	28.071	819.582	661.483
410.453	28.038	819.017	660.849
411.467	28.374	818.276	661.403
412.482	28.230	817.863	660.494
413.496	28.142	817.280	659.647
414.511	28.252	817.040	659.789
415.526	28.167	816.936	659.344
416.540	28.134	816.468	658.786
417.555	28.187	815.952	658.503
418.569	27.848	815.196	656.618
419.584	27.884	814.710	656.297
420.599	27.848	814.376	655.839
421.613	96.479	1268.245	1386.994
422.628	83.039	1334.376	1387.115
