DTS Sentinel unit serial number:	SN413079Multiplexer serial number:	ORYXHardware model number:	OX4-SRSoftware version number:	ORYX F/W v4.00 Oryx Data Collector v3.7.2.0data status	okinstallation	princeton_trtdifferential loss correction	single-endedforward channel	channel 3reverse channel	N/Adate	2019/09/19time	15:32:35forward acquisition time	60.00reverse acquisition time	0.00gamma	496.2192k internal	0.2310k external	0.2310temperature offset calibration	1.0007default loss term (dB/km)	0.3790temperature slope calibration	1.0000multiplexer offset coefficient	1.0000multiplexer slope coefficient	1.0000fibre end	0.00T internal ref (°C)	34.16T ext. ref 1 (°C)	1.17T ext. ref 2 (°C)	31.56length (m)	temperature (°C)	Stokes	anti-Stokes-747.200	-7.047	-0.097	0.067
-746.185	800.000	0.056	0.243
-745.171	-94.271	-0.222	-0.062
-744.156	52.966	-0.191	0.186
-743.142	288.789	-0.057	-0.105
-742.127	74.838	-0.179	-0.191
-741.112	800.000	-0.051	0.152
-740.098	800.000	-0.027	0.115
-739.083	171.291	0.060	-0.087
-738.069	800.000	-0.120	0.363
-737.054	-200.000	-0.011	-0.058
-736.039	-48.603	-0.304	0.148
-735.025	-139.089	0.275	-0.030
-734.010	626.755	-0.139	-0.356
-732.996	57.324	0.047	0.046
-731.981	-85.567	0.375	-0.118
-730.966	218.071	-0.137	-0.222
-729.952	800.000	-0.038	-0.114
-728.937	-140.360	-0.191	-0.020
-727.923	661.589	-0.065	-0.169
-726.908	217.294	0.072	-0.116
-725.894	627.646	-0.165	-0.422
-724.879	-200.000	-0.012	0.056
-723.864	263.117	-0.051	-0.090
-722.850	30.797	-0.256	0.222
-721.835	78.785	0.067	0.073
-720.821	-17.425	0.139	-0.089
-719.806	-34.204	-0.138	0.077
-718.791	80.352	-0.211	-0.230
-717.777	-110.398	-0.135	0.028
-716.762	-98.048	0.450	0.118
-715.748	628.833	-0.040	0.103
-714.733	-49.913	0.029	0.014
-713.718	-133.851	-0.088	-0.011
-712.704	-65.431	0.067	0.027
-711.689	-137.296	0.200	-0.023
-710.675	-71.018	0.160	-0.061
-709.660	-200.000	-0.055	-0.318
-708.645	-165.951	-0.313	0.014
-707.631	24.441	-0.235	-0.197
-706.616	18.590	0.074	0.060
-705.602	50.591	-0.032	-0.030
-704.587	388.454	0.104	-0.219
-703.572	800.000	-0.122	-0.369
-702.558	-200.000	-0.010	-0.058
-701.543	-58.590	-0.254	0.112
-700.529	-101.808	0.152	0.037
-699.514	427.319	-0.061	0.132
-698.499	-142.113	-0.192	-0.019
-697.485	124.959	0.157	-0.201
-696.470	-132.085	-0.280	-0.037
-695.456	245.486	0.200	-0.341
-694.441	-91.909	0.106	-0.030
-693.426	357.473	-0.097	-0.196
-692.412	-3.088	-0.240	-0.169
-691.397	201.630	0.240	0.375
-690.383	800.000	0.079	-0.254
-689.368	800.000	-0.119	-0.380
-688.354	-95.229	-0.158	-0.043
-687.339	-29.793	-0.216	-0.125
-686.324	-106.674	-0.369	-0.083
-685.310	161.248	-0.200	-0.283
-684.295	-200.000	-0.015	-0.134
-683.281	-40.315	0.275	-0.145
-682.266	-161.542	0.184	0.010
-681.251	-200.000	0.011	-0.049
-680.237	323.443	-0.069	-0.134
-679.222	101.867	-0.337	-0.398
-678.208	18.070	0.149	0.120
-677.193	94.476	-0.196	0.226
-676.178	-139.893	-0.202	0.022
-675.164	-200.000	-0.044	0.408
-674.149	28.053	0.131	-0.112
-673.135	-118.311	0.131	-0.024
-672.120	91.282	-0.126	-0.144
-671.105	-32.632	-0.108	0.061
-670.091	-144.690	-0.192	0.018
-669.076	-129.267	-0.152	-0.021
-668.062	-146.504	-0.396	-0.035
-667.047	-200.000	0.032	0.172
-666.032	-64.117	-0.064	0.027
-665.018	15.808	-0.293	0.234
-664.003	-175.144	-0.197	-0.006
-662.989	84.780	-0.076	0.084
-661.974	-200.000	0.018	-0.094
-660.959	-200.000	-0.011	-0.067
-659.945	800.000	0.124	-0.468
-658.930	343.455	0.065	0.129
-657.916	-200.000	-0.001	0.434
-656.901	220.227	0.131	0.212
-655.886	-86.818	-0.235	0.073
-654.872	111.653	0.035	0.043
-653.857	-200.000	0.003	0.036
-652.843	-21.611	-0.295	0.182
-651.828	-108.034	0.038	0.008
-650.814	127.986	-0.255	0.328
-649.799	63.609	-0.055	-0.056
-648.784	-200.000	-0.010	-0.291
-647.770	-101.219	-0.238	-0.059
-646.755	-61.956	-0.143	0.061
-645.741	-200.000	0.004	0.030
-644.726	-200.000	0.020	-0.611
-643.711	286.626	0.039	-0.071
-642.697	800.000	0.104	0.309
-641.682	40.592	0.244	0.223
-640.668	239.296	0.078	-0.131
-639.653	-200.000	-0.019	-0.202
-638.638	640.295	0.134	0.344
-637.624	-77.291	-0.444	0.156
-636.609	177.990	-0.201	-0.296
-635.595	-75.635	0.424	-0.152
-634.580	234.022	0.092	0.154
-633.565	-200.000	0.034	0.244
-632.551	138.966	-0.206	-0.273
-631.536	-111.984	0.179	-0.037
-630.522	598.119	-0.101	0.254
-629.507	-200.000	-0.036	-0.186
-628.492	800.000	0.006	0.025
-627.478	425.837	-0.143	0.312
-626.463	3.776	-0.253	0.187
-625.449	-200.000	-0.018	-0.243
-624.434	-24.526	-0.215	0.129
-623.419	-200.000	-0.017	0.101
-622.405	-14.010	0.119	-0.077
-621.390	8.629	0.110	0.084
-620.376	568.167	0.058	-0.142
-619.361	129.426	-0.126	0.163
-618.346	-200.000	0.023	0.232
-617.332	-119.997	-0.149	0.026
-616.317	-200.000	-0.025	-0.205
-615.303	-200.000	0.033	0.165
-614.288	-14.830	-0.195	-0.127
-613.273	40.179	-0.298	0.271
-612.259	329.123	0.024	-0.047
-611.244	-132.582	0.208	0.027
-610.230	348.895	0.126	-0.251
-609.215	685.110	-0.088	-0.231
-608.201	-0.984	0.013	0.009
-607.186	94.689	0.165	-0.189
-606.171	211.668	-0.109	-0.173
-605.157	82.857	-0.009	-0.010
-604.142	-200.000	-0.023	-0.141
-603.128	-200.000	-0.017	0.250
-602.113	96.195	0.144	0.167
-601.098	-31.888	0.319	0.180
-600.084	-200.000	0.002	-0.433
-599.069	27.062	-0.091	0.077
-598.055	800.000	-0.020	-0.064
-597.040	-150.755	0.125	0.010
-596.025	381.533	0.050	0.104
-595.011	-69.138	-0.198	-0.077
-593.996	44.983	-0.202	0.188
-592.982	-94.683	-0.382	0.105
-591.967	235.192	-0.285	0.476
-590.952	6.977	0.159	0.119
-589.938	433.196	-0.080	-0.176
-588.923	56.967	0.264	0.259
-587.909	-200.000	0.012	0.533
-586.894	-147.738	0.113	0.010
-585.879	166.548	0.257	-0.367
-584.865	91.261	0.223	-0.252
-583.850	168.189	0.091	-0.131
-582.836	-200.000	0.010	0.408
-581.821	233.729	-0.168	0.280
-580.806	120.269	0.229	-0.287
-579.792	340.866	0.023	-0.044
-578.777	-146.146	-0.104	-0.009
-577.763	206.934	-0.252	0.397
-576.748	-71.925	0.176	-0.066
-575.733	-23.726	-0.185	0.112
-574.719	-200.000	0.043	0.299
-573.704	76.766	-0.062	0.067
-572.690	-200.000	-0.037	0.221
-571.675	-127.512	0.112	-0.016
-570.661	800.000	-0.022	-0.084
-569.646	-75.829	-0.185	-0.066
-568.631	84.590	0.109	0.120
-567.617	-200.000	-0.006	0.252
-566.602	-75.692	-0.069	0.025
-565.588	581.050	-0.033	-0.081
-564.573	-95.961	0.333	-0.090
-563.558	504.280	-0.169	-0.394
-562.544	554.947	-0.082	-0.199
-561.529	-193.636	0.093	-0.001
-560.515	43.336	0.105	0.097
-559.500	-2.507	-0.111	0.078
-558.485	-200.000	-0.034	-0.177
-557.471	-200.000	0.024	0.120
-556.456	-200.000	0.018	-0.157
-555.442	318.681	-0.022	0.043
-554.427	-78.987	0.152	-0.052
-553.412	43.937	0.234	-0.216
-552.398	24.435	0.206	0.171
-551.383	183.445	-0.029	0.043
-550.369	77.759	-0.247	-0.265
-549.354	128.154	0.094	-0.120
-548.339	-113.444	-0.387	0.076
-547.325	-200.000	0.027	-0.267
-546.310	800.000	-0.066	0.266
-545.296	-133.318	0.087	-0.011
-544.281	-59.113	0.013	-0.006
-543.266	334.660	-0.032	0.063
-542.252	115.163	0.177	0.217
-541.237	800.000	0.101	0.353
-540.223	23.789	-0.095	-0.079
-539.208	778.711	-0.043	0.117
-538.193	164.647	-0.172	0.244
-537.179	-18.068	-0.191	-0.120
-536.164	10.835	-0.394	0.303
-535.150	800.000	-0.032	-0.139
-534.135	-86.849	0.236	0.072
-533.121	8.282	0.154	0.117
-532.106	800.000	0.104	-0.455
-531.091	-200.000	-0.355	-0.000
-530.077	-159.719	-0.295	0.016
-529.062	463.550	-0.060	0.134
-528.048	37.298	0.243	-0.217
-527.033	-200.000	-0.071	0.332
-526.018	442.414	-0.155	0.342
-525.004	800.000	-0.044	0.170
-523.989	31.051	0.108	0.094
-522.975	88.405	-0.116	-0.130
-521.960	50.546	0.334	-0.318
-520.945	-200.000	0.002	0.083
-519.931	-78.195	-0.161	0.056
-518.916	-167.082	0.230	0.009
-517.902	33.981	-0.166	0.145
-516.887	-200.000	-0.031	-0.227
-515.872	-200.000	-0.067	-0.370
-514.858	-102.198	0.230	0.056
-513.843	302.008	0.105	0.195
-512.829	-200.000	-0.000	0.211
-511.814	800.000	-0.082	-0.288
-510.799	-42.627	-0.222	-0.114
-509.785	-200.000	0.039	0.230
-508.770	290.674	-0.127	-0.232
-507.756	187.844	-0.052	0.078
-506.741	800.000	0.069	-0.242
-505.726	-11.622	0.160	-0.106
-504.712	210.951	-0.119	-0.188
-503.697	109.324	0.147	0.177
-502.683	131.128	-0.086	0.111
-501.668	800.000	-0.017	0.055
-500.653	-155.419	-0.069	-0.005
-499.639	24.231	-0.213	0.177
-498.624	-157.996	0.122	0.007
-497.610	74.884	0.128	-0.135
-496.595	50.132	0.142	0.135
-495.581	-64.335	-0.294	-0.121
-494.566	800.000	0.045	-0.188
-493.551	-200.000	-0.000	-0.076
-492.537	331.844	0.031	-0.060
-491.522	309.503	0.123	-0.232
-490.508	82.982	-0.281	0.307
-489.493	800.000	-0.054	0.210
-488.478	-152.799	-0.157	-0.011
-487.464	172.147	-0.099	-0.143
-486.449	-5.319	-0.433	-0.299
-485.435	54.267	0.174	0.168
-484.420	800.000	0.028	-0.104
-483.405	269.810	0.048	-0.085
-482.391	153.312	-0.157	0.215
-481.376	50.742	-0.167	-0.158
-480.362	316.622	0.068	-0.129
-479.347	-200.000	-0.026	-0.446
-478.332	-72.316	0.346	0.129
-477.318	-109.743	-0.089	-0.019
-476.303	-162.836	-0.274	-0.013
-475.289	-83.878	0.169	0.054
-474.274	-13.996	-0.236	-0.153
-473.259	-200.000	0.002	-0.040
-472.245	-2.142	-0.227	-0.160
-471.230	-27.319	-0.100	-0.058
-470.216	-200.000	-0.038	0.261
-469.201	-15.957	-0.112	-0.072
-468.186	-25.708	-0.223	-0.132
-467.172	112.837	-0.094	0.115
-466.157	-57.381	0.180	-0.079
-465.143	-111.775	0.025	0.005
-464.128	-174.372	-0.478	-0.014
-463.113	347.166	-0.051	-0.101
-462.099	-200.000	0.066	-0.313
-461.084	-200.000	-0.021	0.106
-460.070	50.075	0.144	-0.137
-459.055	800.000	0.047	0.187
-458.040	202.214	0.050	0.078
-457.026	-155.485	-0.385	-0.025
-456.011	20.995	-0.182	-0.148
-454.997	423.611	0.053	-0.114
-453.982	800.000	-0.081	-0.345
-452.968	30.942	0.137	-0.118
-451.953	394.810	0.099	0.206
-450.938	73.879	0.190	-0.200
-449.924	-77.690	-0.552	0.192
-448.909	-120.883	-0.316	-0.053
-447.895	-200.000	0.006	-0.115
-446.880	800.000	0.048	-0.161
-445.865	151.893	0.154	0.211
-444.851	-42.955	0.253	-0.129
-443.836	-110.151	-0.222	0.047
-442.822	129.237	0.059	-0.076
-441.807	260.360	-0.111	0.192
-440.792	-200.000	-0.004	-0.092
-439.778	-60.119	0.174	0.075
-438.763	332.941	-0.191	0.370
-437.749	-60.800	-0.272	0.115
-436.734	71.946	-0.128	-0.134
-435.719	-200.000	-0.013	0.225
-434.705	800.000	0.030	-0.125
-433.690	-200.000	0.026	-0.278
-432.676	-200.000	0.025	0.321
-431.661	52.020	0.192	0.183
-430.646	8.013	-0.113	-0.085
-429.632	-34.687	0.314	-0.172
-428.617	-39.470	-0.377	0.198
-427.603	-46.500	-0.145	-0.071
-426.588	-22.739	0.116	0.070
-425.573	-199.363	0.237	-0.001
-424.559	-200.000	0.003	-0.016
-423.544	-94.643	0.304	-0.083
-422.530	244.696	0.064	0.108
-421.515	-4.702	-0.029	0.020
-420.500	293.947	-0.107	-0.196
-419.486	-200.000	0.043	0.242
-418.471	-200.000	0.008	-0.156
-417.457	22.017	0.395	0.323
-416.442	800.000	0.063	-0.200
-415.428	-200.000	0.001	-0.013
-414.413	27.075	-0.114	0.096
-413.398	-200.000	0.029	0.293
-412.384	200.560	0.179	0.276
-411.369	-200.000	-0.001	0.278
-410.355	61.343	-0.087	-0.087
-409.340	-112.118	0.153	0.031
-408.325	800.000	-0.008	-0.032
-407.311	-94.204	0.295	-0.081
-406.296	-102.204	0.245	0.059
-405.282	-200.000	-0.016	-0.097
-404.267	-200.000	-0.052	-0.282
-403.252	-200.000	-0.003	-0.248
-402.238	-68.364	0.111	-0.043
-401.223	325.355	-0.292	-0.559
-400.209	-167.679	-0.521	0.021
-399.194	-99.893	0.036	0.009
-398.179	-136.574	-0.287	-0.033
-397.165	-200.000	-0.014	0.105
-396.150	-27.404	-0.162	0.094
-395.136	-200.000	-0.005	-0.109
-394.121	800.000	0.104	-0.429
-393.106	94.191	-0.112	-0.127
-392.092	-31.511	0.432	-0.243
-391.077	20.485	0.223	-0.180
-390.063	180.135	-0.206	0.302
-389.048	800.000	0.030	0.097
-388.033	800.000	0.066	-0.233
-387.019	-39.648	0.158	0.083
-386.004	800.000	0.046	0.176
-384.990	31.544	0.243	-0.209
-383.975	268.950	0.051	0.089
-382.960	-200.000	0.003	0.132
-381.946	290.918	0.062	-0.112
-380.931	44.064	0.261	0.240
-379.917	394.241	-0.155	-0.323
-378.902	434.214	0.033	0.071
-377.888	-156.666	0.053	-0.003
-376.873	1.975	0.185	-0.133
-375.858	-79.253	0.300	-0.102
-374.844	58.996	0.119	0.117
-373.829	-159.386	-0.373	0.021
-372.815	479.054	-0.100	0.226
-371.800	222.062	0.083	0.134
-370.785	46.634	-0.169	0.157
-369.771	-139.281	-0.440	0.047
-368.756	-200.000	-0.004	-0.037
-367.742	-6.947	0.101	0.069
-366.727	-33.920	0.034	0.019
-365.712	-120.084	-0.076	0.013
-364.698	-200.000	-0.046	-0.315
-363.683	36.538	0.210	0.186
-362.669	-14.951	-0.146	0.094
-361.654	-200.000	-0.010	-0.064
-360.639	-109.966	0.259	0.054
-359.625	9.569	-0.191	0.145
-358.610	-200.000	-0.008	-0.390
-357.596	34.626	-0.124	-0.108
-356.581	11.803	0.076	0.059
-355.566	94.598	0.205	0.233
-354.552	800.000	0.035	-0.122
-353.537	-200.000	0.005	-0.040
-352.523	245.133	-0.213	-0.358
-351.508	-200.000	-0.006	-0.241
-350.493	203.901	0.015	-0.024
-349.479	-160.028	-0.331	0.018
-348.464	-125.740	0.238	0.036
-347.450	-15.893	-0.180	0.114
-346.435	36.171	-0.067	-0.059
-345.420	167.704	0.058	0.082
-344.406	-200.000	-0.005	0.103
-343.391	800.000	0.065	-0.259
-342.377	-200.000	0.058	0.261
-341.362	-115.037	-0.317	-0.060
-340.348	800.000	0.087	0.340
-339.333	800.000	-0.090	0.362
-338.318	186.241	0.056	0.083
-337.304	-200.000	0.007	0.142
-336.289	-75.754	0.137	0.049
-335.275	231.739	-0.060	0.098
-334.260	-200.000	0.023	0.122
-333.245	-41.074	0.215	0.111
-332.231	17.812	0.193	-0.153
-331.216	-200.000	-0.036	-0.172
-330.202	590.569	0.099	0.243
-329.187	800.000	-0.046	-0.152
-328.172	200.393	-0.081	-0.125
-327.158	46.787	0.031	-0.029
-326.143	238.712	0.032	0.052
-325.129	-128.268	-0.353	-0.050
-324.114	-59.399	0.443	0.190
-323.099	17.444	0.040	0.032
-322.085	208.748	0.062	0.096
-321.070	-78.189	-0.317	-0.109
-320.056	-2.254	0.009	-0.006
-319.041	-115.549	0.095	0.018
-318.026	-28.999	-0.370	0.212
-317.012	-82.716	0.134	0.043
-315.997	-109.455	0.107	0.022
-314.983	-116.029	0.245	-0.046
-313.968	-115.976	0.309	-0.057
-312.953	800.000	-0.074	-0.263
-311.939	-174.576	-0.252	-0.007
-310.924	317.287	-0.114	0.216
-309.910	68.651	0.095	0.097
-308.895	122.626	0.087	-0.109
-307.880	-200.000	0.013	0.208
-306.866	-146.692	0.363	0.031
-305.851	323.511	-0.049	0.093
-304.837	-129.451	0.282	-0.039
-303.822	-200.000	-0.026	0.266
-302.807	-71.239	-0.259	0.097
-301.793	-7.098	0.238	-0.161
-300.778	65.542	0.101	0.102
-299.764	175.835	-0.212	0.307
-298.749	-200.000	-0.017	0.414
-297.735	393.052	0.104	-0.216
-296.720	80.167	0.210	0.226
-295.705	-200.000	-0.011	0.144
-294.691	-12.500	-0.143	0.093
-293.676	-148.832	0.201	0.016
-292.662	43.366	-0.197	-0.179
-291.647	-90.156	-0.153	-0.044
-290.632	225.304	0.187	0.302
-289.618	436.765	0.091	0.197
-288.603	-47.500	0.201	0.097
-287.589	-148.246	-0.302	-0.025
-286.574	800.000	-0.040	-0.157
-285.559	113.499	0.070	0.085
-284.545	116.356	0.185	0.226
-283.530	800.000	-0.057	-0.240
-282.516	249.044	-0.106	0.180
-281.501	-95.013	0.191	-0.051
-280.486	25.911	-0.128	-0.106
-279.472	-53.409	0.232	-0.106
-278.457	-21.790	-0.190	0.115
-277.443	800.000	-0.062	-0.198
-276.428	-135.785	-0.188	-0.022
-275.413	219.944	-0.036	0.057
-274.399	-200.000	-0.002	0.209
-273.384	166.435	-0.244	-0.344
-272.370	-200.000	0.040	0.229
-271.355	-200.000	-0.003	0.095
-270.340	62.240	-0.033	-0.033
-269.326	-200.000	-0.000	-0.059
-268.311	-80.405	-0.138	0.046
-267.297	-92.702	-0.075	0.021
-266.282	-64.636	0.209	0.085
-265.267	-19.754	-0.084	0.052
-264.253	-132.068	-0.133	-0.017
-263.238	-200.000	-0.013	-0.162
-262.224	-103.451	-0.039	-0.009
-261.209	-89.210	0.252	0.074
-260.195	-19.149	0.182	-0.112
-259.180	272.896	0.144	0.253
-258.165	89.789	0.104	0.116
-257.151	800.000	0.075	-0.263
-256.136	142.721	0.152	-0.201
-255.122	173.148	-0.174	-0.250
-254.107	800.000	0.092	-0.283
-253.092	-52.204	0.147	-0.068
-252.078	-200.000	-0.020	0.297
-251.063	-141.471	0.245	0.025
-250.049	-49.811	0.096	-0.046
-249.034	-4.412	0.441	-0.304
-248.019	-180.106	0.263	-0.006
-247.005	93.826	-0.351	-0.397
-245.990	-200.000	0.011	-0.271
-244.976	39.350	-0.134	-0.119
-243.961	-197.191	-0.179	0.001
-242.946	-200.000	0.041	0.192
-241.932	794.892	0.045	0.123
-240.917	-200.000	0.031	0.158
-239.903	800.000	-0.130	-0.396
-238.888	52.149	0.170	0.161
-237.873	-43.155	0.099	0.050
-236.859	238.572	-0.214	-0.355
-235.844	-200.000	-0.023	-0.114
-234.830	-200.000	0.023	0.167
-233.815	65.182	0.138	-0.139
-232.800	-200.000	0.026	-0.162
-231.786	54.397	-0.248	0.237
-230.771	25.747	-0.205	-0.170
-229.757	-101.762	0.095	0.023
-228.742	-68.866	-0.100	-0.038
-227.727	174.337	0.106	0.152
-226.713	197.957	-0.099	0.151
-225.698	81.556	0.105	-0.113
-224.684	-19.800	-0.124	0.076
-223.669	-200.000	-0.034	0.279
-222.655	680.817	0.069	0.179
-221.640	800.000	0.120	-0.343
-220.625	-100.307	-0.102	-0.025
-219.611	639.894	0.113	-0.286
-218.596	-11.386	0.337	-0.221
-217.582	-200.000	0.001	0.205
-216.567	-97.799	0.264	-0.068
-215.552	685.836	0.048	0.125
-214.538	-84.014	0.130	0.041
-213.523	-200.000	0.029	0.129
-212.509	-84.677	-0.204	-0.064
-211.494	-99.984	-0.305	0.076
-210.479	-132.901	-0.335	-0.042
-209.465	-200.000	-0.033	-0.195
-208.450	137.377	0.106	0.138
-207.436	20.529	-0.122	-0.098
-206.421	-200.000	0.020	0.104
-205.406	683.485	0.039	0.100
-204.392	-146.967	0.237	0.020
-203.377	572.377	-0.070	0.170
-202.363	-178.423	0.137	-0.003
-201.348	-56.263	-0.118	0.052
-200.333	75.548	-0.204	0.215
-199.319	237.148	-0.050	0.082
-198.304	-200.000	0.081	0.410
-197.290	-200.000	0.009	-0.537
-196.275	-200.000	0.023	-0.178
-195.260	52.148	0.138	0.131
-194.246	-31.307	0.224	0.125
-193.231	226.671	0.094	0.151
-192.217	-126.185	0.071	-0.011
-191.202	285.805	0.118	-0.212
-190.187	-82.033	0.157	-0.051
-189.173	-57.800	-0.190	-0.082
-188.158	-72.806	0.218	-0.080
-187.144	-91.396	0.075	0.021
-186.129	-86.322	0.201	0.062
-185.114	259.543	-0.123	0.211
-184.100	169.760	0.019	-0.026
-183.085	-200.000	0.041	-0.243
-182.071	-200.000	-0.081	0.545
-181.056	-69.049	-0.305	-0.117
-180.042	-138.634	-0.433	-0.047
-179.027	-108.280	0.415	-0.089
-178.012	-146.443	-0.200	0.017
-176.998	800.000	0.057	-0.170
-175.983	82.712	-0.143	-0.154
-174.969	-22.302	0.184	-0.111
-173.954	800.000	0.177	-0.543
-172.939	431.007	-0.139	-0.299
-171.925	800.000	-0.077	-0.307
-170.910	800.000	0.065	0.216
-169.896	295.322	0.212	0.385
-168.881	-93.801	-0.175	-0.048
-167.866	164.165	0.240	-0.336
-166.852	-31.671	0.343	0.191
-165.837	94.636	-0.102	0.115
-164.823	578.108	-0.039	-0.095
-163.808	228.528	-0.036	0.058
-162.793	-107.789	0.223	-0.048
-161.779	800.000	-0.077	0.266
-160.764	-151.430	0.186	-0.014
-159.750	800.000	-0.044	-0.153
-158.735	64.383	0.149	-0.149
-157.720	26.117	-0.303	-0.251
-156.706	64.695	0.111	-0.111
-155.691	256.791	0.073	0.124
-154.677	-11.983	0.100	-0.065
-153.662	-200.000	0.038	0.171
-152.647	-200.000	0.006	0.138
-151.633	-35.750	0.071	0.038
-150.618	-200.000	-0.010	0.089
-149.604	133.451	0.058	0.074
-148.589	50.387	0.177	-0.166
-147.574	790.384	0.042	0.116
-146.560	-71.750	-0.240	0.089
-145.545	92.647	-0.250	0.280
-144.531	-83.496	-0.287	0.091
-143.516	-72.177	-0.094	0.035
-142.502	270.062	0.174	0.303
-141.487	800.000	0.032	-0.113
-140.472	-32.519	-0.264	0.146
-139.458	-96.541	0.166	0.043
-138.443	91.831	0.091	-0.101
-137.429	2.403	0.088	-0.063
-136.414	800.000	-0.092	0.350
-135.399	-200.000	0.012	0.143
-134.385	-96.875	0.181	0.047
-133.370	-200.000	0.015	-0.254
-132.356	669.367	-0.039	-0.101
-131.341	-200.000	0.003	-0.304
-130.326	-200.000	0.002	0.010
-129.312	31.577	0.336	-0.287
-128.297	554.490	-0.106	-0.252
-127.283	-200.000	-0.002	-0.251
-126.268	800.000	0.110	0.319
-125.253	-87.222	0.119	0.036
-124.239	153.633	-0.129	0.175
-123.224	25.188	-0.267	-0.220
-122.210	83.551	0.171	-0.185
-121.195	-200.000	-0.000	-0.016
-120.180	7.950	0.164	-0.122
-119.166	223.462	0.128	-0.205
-118.151	-200.000	-0.022	0.268
-117.137	19.851	0.122	0.097
-116.122	176.629	0.216	-0.311
-115.107	-105.900	0.271	-0.061
-114.093	-120.923	-0.312	-0.052
-113.078	102.127	0.181	0.209
-112.064	-200.000	-0.010	-0.379
-111.049	-178.229	0.112	0.003
-110.034	-77.999	-0.083	-0.028
-109.020	-125.624	-0.210	0.032
-108.005	745.387	0.017	-0.045
-106.991	-54.198	0.117	-0.053
-105.976	55.082	0.027	0.026
-104.962	27.492	0.104	0.087
-103.947	-120.277	0.049	-0.008
-102.932	-156.453	0.143	-0.009
-101.918	-99.015	-0.263	-0.066
-100.903	30.419	0.212	0.179
-99.889	13.633	0.187	0.144
-98.874	-200.000	0.022	0.182
-97.859	49.258	0.088	-0.082
-96.845	-129.483	-0.235	0.032
-95.830	1.332	-0.360	0.256
-94.816	-87.329	-0.131	0.039
-93.801	-200.000	-0.012	-0.205
-92.786	-158.651	-0.046	0.003
-91.772	3.718	0.256	0.185
-90.757	206.631	0.175	-0.270
-89.743	25.207	-0.184	-0.151
-88.728	-104.976	0.197	0.045
-87.713	-200.000	-0.007	-0.071
-86.699	16.647	-0.150	0.118
-85.684	-43.166	0.272	0.136
-84.670	800.000	0.066	-0.247
-83.655	-200.000	0.114	0.577
-82.640	300.155	0.055	-0.100
-81.626	184.221	-0.034	-0.049
-80.611	-200.000	0.075	-0.421
-79.597	-56.983	0.194	-0.085
-78.582	-200.000	0.000	0.278
-77.567	-200.000	0.011	0.098
-76.553	-55.973	-0.163	-0.072
-75.538	-65.363	-0.267	-0.106
-74.524	591.996	0.081	0.198
-73.509	-71.340	-0.157	-0.058
-72.494	-51.616	0.013	0.006
-71.480	-145.786	0.257	-0.023
-70.465	-200.000	-0.055	-0.275
-69.451	800.000	0.153	-0.423
-68.436	635.492	-0.092	-0.232
-67.422	-58.356	-0.296	-0.127
-66.407	435.864	0.138	-0.297
-65.392	-47.580	-0.123	-0.059
-64.378	269.948	-0.147	-0.256
-63.363	800.000	0.041	-0.117
-62.349	-86.433	-0.242	-0.074
-61.334	129.191	-0.747	-0.943
-60.319	250.945	0.373	0.627
-59.305	-200.000	-0.147	-1.126
-58.290	33.386	0.559	0.479
-57.276	633.913	0.648	1.624
-56.261	-200.000	96.818	556.467
-55.246	504.407	1421.486	3252.560
-54.232	142.800	2659.188	3493.558
-53.217	109.173	2250.107	2661.548
-52.203	44.353	1771.892	1607.960
-51.188	37.133	1580.714	1383.181
-50.173	34.919	1552.311	1342.752
-49.159	51.948	1603.625	1509.194
-48.144	55.601	1622.469	1552.986
-47.130	37.535	1578.021	1383.469
-46.115	34.453	1561.790	1347.447
-45.100	34.301	1558.166	1343.196
-44.086	34.283	1556.493	1341.571
-43.071	34.130	1554.958	1339.118
-42.057	34.132	1553.326	1337.677
-41.042	34.138	1551.761	1336.315
-40.027	34.132	1550.034	1334.732
-39.013	34.234	1548.352	1333.944
-37.998	34.159	1547.684	1332.793
-36.984	34.178	1546.248	1331.640
-35.969	34.205	1544.841	1330.560
-34.954	34.210	1543.196	1329.123
-33.940	34.173	1541.454	1327.317
-32.925	34.214	1540.583	1326.795
-31.911	34.160	1539.870	1325.759
-30.896	34.242	1537.538	1324.264
-29.881	34.250	1536.516	1323.386
-28.867	34.183	1535.332	1321.847
-27.852	34.076	1534.175	1320.057
-26.838	34.057	1532.613	1318.529
-25.823	34.236	1530.596	1317.982
-24.809	34.244	1528.919	1316.544
-23.794	34.217	1527.423	1315.014
-22.779	34.150	1527.233	1314.337
-21.765	34.219	1525.439	1313.216
-20.750	34.308	1523.899	1312.451
-19.736	34.278	1522.730	1311.186
-18.721	34.126	1521.847	1309.330
-17.706	34.107	1521.019	1308.433
-16.692	34.105	1520.050	1307.536
-15.677	34.104	1519.466	1306.973
-14.663	34.055	1518.278	1305.561
-13.648	34.058	1517.303	1304.692
-12.633	34.164	1516.236	1304.452
-11.619	34.191	1514.759	1303.310
-10.604	34.144	1513.878	1302.184
-9.590	34.066	1513.677	1301.424
-8.575	34.158	1512.325	1300.835
-7.560	34.162	1511.622	1300.207
-6.546	34.058	1510.812	1298.753
-5.531	34.061	1510.235	1298.223
-4.517	34.048	1508.613	1296.692
-3.502	34.196	1507.028	1296.286
-2.487	34.065	1507.048	1295.354
-1.473	34.077	1505.392	1293.965
-0.458	34.096	1504.110	1292.942
0.556	33.943	1495.388	1285.478
1.571	31.698	1469.134	1247.863
2.586	27.920	1403.742	1168.111
3.600	25.261	1315.845	1078.906
4.615	22.960	1267.317	1025.687
5.629	19.028	1207.451	955.359
6.644	9.704	1117.889	836.265
7.659	2.445	1074.560	767.483
8.673	1.291	1068.888	757.605
9.688	1.123	1065.836	754.542
10.702	1.146	1064.403	753.573
11.717	1.120	1062.985	752.373
12.731	3.377	1064.705	764.736
13.746	10.798	1074.837	809.008
14.761	16.456	1082.122	842.708
15.775	17.684	1082.464	849.020
16.790	17.273	1080.935	845.699
17.804	16.250	1079.192	839.177
18.819	15.393	1077.287	833.366
19.834	15.032	1075.663	830.244
20.848	14.635	1074.599	827.382
21.863	14.397	1074.210	825.834
22.877	14.125	1073.289	823.701
23.892	13.799	1072.779	821.627
24.907	13.883	1070.965	820.577
25.921	13.753	1070.574	819.564
26.936	13.875	1069.964	819.626
27.950	13.913	1069.419	819.326
28.965	13.861	1068.664	818.417
29.980	13.888	1067.823	817.831
30.994	13.991	1066.382	817.162
32.009	14.118	1065.517	817.053
33.023	14.036	1065.183	816.322
34.038	13.985	1064.428	815.421
35.053	13.911	1063.434	814.222
36.067	14.042	1062.408	814.006
37.082	13.972	1061.903	813.205
38.096	13.946	1060.974	812.297
39.111	13.992	1060.546	812.122
40.126	14.018	1059.349	811.259
41.140	13.863	1058.529	809.804
42.155	13.870	1057.358	808.872
43.169	13.922	1056.255	808.210
44.184	13.842	1055.109	806.869
45.199	13.830	1054.031	805.917
46.213	13.754	1053.134	804.792
47.228	13.853	1052.125	804.427
48.242	13.971	1050.815	803.927
49.257	13.955	1049.879	803.061
50.271	13.893	1048.798	801.864
51.286	13.960	1047.944	801.464
52.301	14.065	1047.026	801.199
53.315	13.912	1046.384	799.900
54.330	13.923	1045.397	799.127
55.344	13.766	1045.067	798.046
56.359	13.794	1043.772	797.126
57.374	13.801	1043.306	796.733
58.388	13.810	1041.983	795.692
59.403	13.871	1041.384	795.458
60.417	13.770	1040.748	794.415
61.432	13.707	1039.864	793.370
62.447	13.757	1038.962	792.853
63.461	13.720	1038.222	792.041
64.476	13.815	1037.299	791.719
65.490	13.784	1036.220	790.679
66.505	13.791	1035.530	790.114
67.520	13.782	1034.782	789.430
68.534	13.824	1033.745	788.770
69.549	13.772	1033.190	788.030
70.563	13.835	1032.317	787.595
71.578	13.977	1031.369	787.473
72.593	13.823	1030.790	786.233
73.607	13.847	1029.555	785.336
74.622	13.765	1028.627	784.170
75.636	13.830	1027.488	783.536
76.651	13.723	1027.502	782.973
77.666	13.830	1026.791	782.868
78.680	13.652	1025.967	781.333
79.695	13.801	1025.203	781.383
80.709	13.774	1024.621	780.742
81.724	13.810	1023.542	780.021
82.739	13.723	1023.024	779.150
83.753	13.793	1022.210	778.785
84.768	13.897	1021.194	778.432
85.782	13.942	1020.628	778.142
86.797	13.929	1019.977	777.517
87.812	13.982	1019.094	777.024
88.826	13.868	1018.499	775.966
89.841	13.931	1017.350	775.317
90.855	13.877	1016.693	774.498
91.870	13.950	1015.983	774.228
92.884	14.026	1014.828	773.634
93.899	14.005	1014.181	772.974
94.914	14.008	1013.624	772.493
95.928	14.128	1012.678	772.262
96.943	14.109	1011.932	771.536
97.957	14.062	1011.235	770.719
98.972	14.076	1010.180	769.912
99.987	13.958	1009.751	768.969
101.001	13.942	1009.023	768.276
102.016	14.009	1008.038	767.765
103.030	13.867	1007.382	766.544
104.045	14.019	1006.217	766.290
105.060	13.931	1005.434	765.222
106.074	13.993	1003.880	764.253
107.089	13.867	1003.355	763.209
108.103	13.961	1002.318	762.785
109.118	13.897	1001.507	761.805
110.133	13.901	1000.707	761.147
111.147	13.913	1000.191	760.743
112.162	13.874	999.241	759.773
113.176	13.920	998.219	759.141
114.191	13.890	997.581	758.450
115.206	13.913	996.583	757.727
116.220	14.079	995.309	757.450
117.235	13.935	994.468	756.087
118.249	13.914	993.950	755.532
119.264	13.923	993.268	754.985
120.279	13.866	992.395	753.998
121.293	13.876	991.519	753.310
122.308	13.908	990.620	752.708
123.322	13.930	990.078	752.329
124.337	13.887	989.038	751.277
125.352	13.832	987.620	749.884
126.366	13.751	986.962	748.955
127.381	13.869	985.593	748.380
128.395	13.753	984.743	747.147
129.410	13.971	983.629	747.215
130.424	13.939	982.935	746.477
131.439	13.967	981.923	745.767
132.454	13.974	981.415	745.347
133.468	13.909	980.407	744.224
134.483	13.985	979.739	743.991
135.497	13.822	979.530	743.038
136.512	14.030	978.514	743.131
137.527	14.014	977.541	742.255
138.541	13.995	976.491	741.309
139.556	14.008	975.928	740.875
140.570	14.058	975.121	740.420
141.585	14.079	974.177	739.728
142.600	14.008	973.765	739.034
143.614	14.012	972.900	738.331
144.629	13.998	971.700	737.292
145.643	14.093	971.016	737.131
146.658	14.154	970.115	736.653
147.673	14.113	969.168	735.686
148.687	14.013	968.365	734.570
149.702	14.105	967.397	734.177
150.716	13.925	966.960	732.987
151.731	14.047	965.978	732.713
152.746	14.033	965.261	732.045
153.760	14.047	964.326	731.330
154.775	14.154	963.480	731.097
155.789	14.120	962.623	730.228
156.804	14.115	962.128	729.770
157.819	14.131	961.344	729.182
158.833	14.081	960.642	728.362
159.848	14.212	960.055	728.426
160.862	14.226	959.179	727.760
161.877	14.194	958.280	726.875
162.892	14.163	957.755	726.276
163.906	14.067	956.708	724.996
164.921	14.106	956.093	724.637
165.935	14.197	955.194	724.291
166.950	14.185	954.207	723.426
167.964	14.303	952.987	722.949
168.979	14.107	952.231	721.459
169.994	14.316	951.163	721.491
171.008	14.236	950.523	720.598
172.023	14.320	949.495	720.117
173.037	14.181	949.071	719.129
174.052	14.289	947.869	718.622
175.067	14.294	947.106	718.002
176.081	14.371	946.426	717.754
177.096	14.246	945.700	716.603
178.110	14.244	944.920	715.938
179.125	14.242	944.239	715.351
180.140	14.251	943.364	714.664
181.154	14.322	942.818	714.491
182.169	14.389	942.010	714.103
183.183	14.262	941.502	713.111
184.198	14.397	940.949	713.209
185.213	14.398	940.225	712.598
186.227	14.376	939.598	711.966
187.242	14.433	939.306	711.925
188.256	14.437	938.448	711.232
189.271	14.608	937.462	711.150
190.286	14.533	936.696	710.187
191.300	14.509	935.988	709.485
192.315	14.311	935.301	708.058
193.329	14.317	934.673	707.548
194.344	14.294	933.964	706.848
195.359	14.280	933.840	706.633
196.373	14.433	933.332	706.836
197.388	14.548	932.147	706.361
198.402	14.544	932.004	706.173
199.417	14.695	931.028	706.010
200.432	14.648	930.988	705.718
201.446	14.694	929.739	704.904
202.461	14.628	929.755	704.578
203.475	14.774	929.340	704.817
204.490	14.715	928.425	703.809
205.504	14.667	927.866	703.122
206.519	14.730	926.999	702.665
207.534	14.678	926.163	701.754
208.548	14.728	925.191	701.165
209.563	14.717	924.931	700.858
210.577	14.771	924.066	700.367
211.592	14.765	923.283	699.687
212.607	14.755	923.021	699.387
213.621	14.936	922.323	699.553
214.636	14.895	921.614	698.781
215.650	14.883	920.917	698.139
216.665	14.751	920.681	697.349
217.680	14.772	920.269	697.061
218.694	15.000	919.207	697.146
219.709	14.847	918.725	696.080
220.723	14.962	918.188	696.092
221.738	15.020	917.235	695.551
222.753	14.884	916.752	694.557
223.767	14.965	915.940	694.217
224.782	15.031	914.916	693.653
225.796	15.061	914.257	693.216
226.811	15.026	913.816	692.674
227.826	15.012	912.832	691.810
228.840	15.020	912.222	691.321
229.855	14.992	911.723	690.764
230.869	15.029	911.136	690.413
231.884	14.925	911.224	689.988
232.899	14.963	909.941	689.111
233.913	14.933	909.266	688.417
234.928	15.036	908.283	688.033
235.942	15.037	907.747	687.571
236.957	15.010	906.777	686.665
237.972	14.985	906.171	686.042
238.986	15.057	906.018	686.160
240.001	15.010	905.108	685.220
241.015	15.037	904.208	684.588
242.030	15.117	903.300	684.168
243.045	15.140	903.001	683.974
244.059	15.200	902.213	683.560
245.074	15.114	901.656	682.729
246.088	15.253	900.621	682.451
247.103	15.260	900.404	682.254
248.117	15.183	899.882	681.485
249.132	15.258	899.110	681.146
250.147	15.342	898.416	680.898
251.161	15.421	897.884	680.758
252.176	15.499	896.978	680.326
253.190	15.345	896.687	679.420
254.205	15.488	895.955	679.383
255.220	15.450	895.581	678.888
256.234	15.518	894.604	678.363
257.249	15.547	894.029	677.984
258.263	15.609	893.482	677.759
259.278	15.560	893.198	677.284
260.293	15.604	892.384	676.785
261.307	15.704	891.706	676.611
262.322	15.693	891.084	676.035
263.336	15.554	890.974	675.336
264.351	15.706	890.320	675.389
265.366	15.634	889.680	674.557
266.380	15.808	888.643	674.409
267.395	15.774	887.971	673.701
268.409	15.797	887.250	673.185
269.424	15.712	886.891	672.516
270.439	15.678	886.205	671.798
271.453	15.793	885.265	671.484
272.468	15.657	884.564	670.354
273.482	15.689	883.947	669.952
274.497	15.701	883.190	669.370
275.512	15.750	882.629	669.077
276.526	15.792	881.727	668.504
277.541	15.711	880.971	667.550
278.555	15.894	880.491	667.852
279.570	15.914	880.181	667.636
280.585	15.839	879.672	666.895
281.599	15.864	879.097	666.499
282.614	15.945	878.304	666.158
283.628	15.908	877.583	665.408
284.643	15.844	877.103	664.732
285.657	15.903	876.874	664.732
286.672	16.091	876.082	664.813
287.687	16.027	875.381	663.971
288.701	16.042	875.167	663.811
289.716	16.165	874.262	663.548
290.730	16.046	873.652	662.557
291.745	15.895	873.534	661.815
292.760	16.012	872.636	661.538
293.774	16.121	871.919	661.361
294.789	15.953	871.654	660.445
295.803	16.235	870.766	660.817
296.818	16.063	870.165	659.628
297.833	16.172	869.280	659.327
298.847	16.278	868.688	659.234
299.862	16.374	867.705	658.805
300.876	16.208	867.401	657.868
301.891	16.147	866.620	656.981
302.906	16.126	866.382	656.659
303.920	16.290	865.305	656.424
304.935	16.328	864.739	656.083
305.949	16.304	864.051	655.408
306.964	16.381	863.203	655.006
307.979	16.276	862.484	653.995
308.993	16.341	862.457	654.171
310.008	16.536	861.444	654.096
311.022	16.561	860.595	653.492
312.037	16.262	860.771	652.412
313.052	16.287	860.350	652.131
314.066	16.290	859.311	651.297
315.081	16.321	858.880	651.035
316.095	16.411	858.172	650.785
317.110	16.451	857.751	650.563
318.125	16.396	857.111	649.806
319.139	16.438	857.014	649.839
320.154	16.485	856.258	649.390
321.168	16.442	855.988	648.959
322.183	16.488	855.122	648.424
323.197	16.617	854.381	648.300
324.212	16.537	853.881	647.555
325.227	16.522	853.175	646.904
326.241	16.502	853.058	646.684
327.256	16.498	852.575	646.246
328.270	16.643	851.894	646.224
329.285	16.576	851.000	645.232
330.300	16.523	850.662	644.720
331.314	16.689	849.780	644.625
332.329	16.548	849.104	643.518
333.343	16.614	849.000	643.634
334.358	16.658	848.147	643.096
335.373	16.654	847.388	642.451
336.387	16.658	847.001	642.115
337.402	16.665	846.784	641.920
338.416	16.711	845.538	641.093
339.431	16.814	845.094	641.091
340.446	16.908	844.589	641.004
341.460	16.855	843.960	640.269
342.475	16.875	843.601	640.018
343.489	16.916	843.253	639.852
344.504	16.854	842.786	639.206
345.519	17.039	842.050	639.289
346.533	16.967	841.356	638.433
347.548	16.922	840.926	637.884
348.562	16.942	840.410	637.509
349.577	16.994	839.874	637.240
350.592	16.911	839.284	636.425
351.606	16.873	838.934	635.962
352.621	16.976	838.614	636.050
353.635	16.934	838.212	635.531
354.650	17.015	837.584	635.303
355.665	17.007	837.247	634.960
356.679	17.133	836.733	634.984
357.694	17.040	836.042	634.057
358.708	17.070	835.508	633.707
359.723	17.131	835.222	633.663
360.738	17.021	834.638	632.752
361.752	16.990	833.754	631.913
362.767	17.076	833.338	631.861
363.781	17.158	833.056	631.897
364.796	17.161	832.594	631.502
365.810	17.256	832.128	631.444
366.825	17.328	831.556	631.222
367.840	17.299	831.479	631.001
368.854	17.372	830.809	630.706
369.869	17.392	830.453	630.452
370.883	17.204	830.354	629.625
371.898	17.135	829.531	628.691
372.913	17.353	828.745	628.848
373.927	17.315	828.191	628.228
374.942	17.222	827.670	627.436
375.956	17.293	827.044	627.166
376.971	17.515	826.363	627.413
377.986	17.391	825.678	626.382
379.000	17.442	825.521	626.394
380.015	17.547	824.866	626.230
381.029	17.465	824.552	625.633
382.044	17.560	823.738	625.309
383.059	17.568	823.140	624.828
384.073	17.490	822.761	624.202
385.088	17.515	822.114	623.747
386.102	17.566	821.723	623.580
387.117	17.597	820.811	622.948
388.132	17.503	820.633	622.413
389.146	17.625	820.508	622.708
390.161	17.588	820.180	622.270
391.175	17.564	819.376	621.517
392.190	17.684	818.994	621.612
393.205	17.611	818.780	621.125
394.219	17.651	817.863	620.523
395.234	17.669	817.733	620.433
396.248	17.440	817.836	619.623
397.263	17.541	816.733	619.100
398.278	17.661	816.135	619.028
399.292	17.708	815.506	618.667
400.307	17.606	815.576	618.294
401.321	17.696	815.044	618.164
402.336	17.635	814.541	617.505
403.350	17.796	813.975	617.606
404.365	17.635	814.062	617.034
405.380	17.753	813.327	616.848
406.394	17.845	812.565	616.548
407.409	17.875	812.310	616.408
408.423	17.812	811.899	615.813
409.438	18.006	811.047	615.815
410.453	17.901	810.508	614.973
411.467	18.027	810.220	615.154
412.482	17.976	809.861	614.642
413.496	17.882	809.505	613.978
414.511	17.942	808.998	613.755
415.526	18.022	808.877	613.896
416.540	18.044	808.732	613.813
417.555	18.127	807.643	613.227
418.569	18.267	807.292	613.410
419.584	18.159	806.840	612.625
420.599	18.280	806.456	612.712
421.613	105.603	1284.985	1445.521
422.628	90.968	1354.697	1445.643
