DTS Sentinel unit serial number:	SN413079Multiplexer serial number:	ORYXHardware model number:	OX4-SRSoftware version number:	ORYX F/W v4.00 Oryx Data Collector v3.7.2.0data status	okinstallation	princeton_trtdifferential loss correction	single-endedforward channel	channel 3reverse channel	N/Adate	2019/09/15time	11:40:35forward acquisition time	60.00reverse acquisition time	0.00gamma	496.2192k internal	0.2306k external	0.2306temperature offset calibration	0.9977default loss term (dB/km)	0.3790temperature slope calibration	1.0000multiplexer offset coefficient	1.0000multiplexer slope coefficient	1.0000fibre end	0.00T internal ref (°C)	34.31T ext. ref 1 (°C)	5.00T ext. ref 2 (°C)	29.72length (m)	temperature (°C)	Stokes	anti-Stokes-747.200	-59.172	-0.180	0.079
-746.185	69.610	0.087	0.091
-745.171	-200.000	0.030	0.141
-744.156	-200.000	0.051	0.291
-743.142	-100.533	0.396	0.100
-742.127	-144.339	0.298	-0.028
-741.112	-69.176	-0.172	0.067
-740.098	-200.000	0.012	0.133
-739.083	-200.000	-0.001	-0.076
-738.069	-84.981	-0.120	-0.038
-737.054	800.000	0.062	0.224
-736.039	-86.438	-0.083	-0.026
-735.025	-200.000	0.098	0.516
-734.010	-163.540	-0.261	0.013
-732.996	55.496	-0.108	-0.107
-731.981	185.060	0.077	-0.117
-730.966	-200.000	0.083	-0.510
-729.952	-188.715	-0.262	-0.003
-728.937	313.881	0.104	-0.198
-727.923	-200.000	-0.003	-0.270
-726.908	99.230	-0.084	0.099
-725.894	48.827	-0.123	0.117
-724.879	260.092	-0.164	-0.288
-723.864	21.921	-0.113	-0.094
-722.850	-151.006	-0.193	0.015
-721.835	466.131	-0.160	-0.365
-720.821	-89.796	0.036	-0.011
-719.806	-47.753	-0.293	-0.144
-718.791	-79.174	-0.128	0.044
-717.777	330.247	-0.049	0.096
-716.762	141.029	-0.098	0.131
-715.748	243.862	-0.232	-0.395
-714.733	97.652	-0.118	-0.138
-713.718	198.300	0.065	0.102
-712.704	25.539	-0.225	0.191
-711.689	-200.000	0.015	-0.087
-710.675	61.689	0.164	0.166
-709.660	550.785	-0.099	-0.242
-708.645	26.601	-0.062	-0.053
-707.631	158.697	-0.272	-0.383
-706.616	765.209	0.100	-0.276
-705.602	-200.000	-0.016	-0.193
-704.587	63.970	-0.241	-0.246
-703.572	90.460	0.079	-0.090
-702.558	-15.001	0.058	0.038
-701.543	248.901	-0.089	-0.153
-700.529	261.566	0.080	0.140
-699.514	-89.341	0.180	-0.054
-698.499	-32.804	-0.169	-0.095
-697.485	-100.799	0.058	0.015
-696.470	-49.374	0.232	0.113
-695.456	-13.194	-0.211	0.139
-694.441	601.485	-0.068	-0.171
-693.426	618.838	-0.045	0.116
-692.412	-200.000	-0.002	-0.327
-691.397	-56.982	-0.103	-0.046
-690.383	-200.000	-0.024	-0.121
-689.368	-75.131	-0.266	-0.096
-688.354	-33.068	0.276	-0.156
-687.339	-26.427	-0.081	-0.048
-686.324	-31.877	-0.172	0.098
-685.310	-200.000	-0.026	0.139
-684.295	-141.430	-0.347	-0.036
-683.281	-46.356	0.199	-0.099
-682.266	-8.905	0.140	0.095
-681.251	13.108	0.224	-0.176
-680.237	76.119	0.115	0.124
-679.222	4.508	-0.147	-0.110
-678.208	800.000	-0.118	-0.342
-677.193	28.877	-0.098	-0.085
-676.178	-200.000	-0.046	0.328
-675.164	-123.106	-0.372	0.061
-674.149	-52.317	-0.259	-0.121
-673.135	157.385	-0.181	-0.254
-672.120	93.345	0.119	-0.136
-671.105	-103.731	0.283	0.067
-670.091	-49.567	0.123	-0.060
-669.076	-149.119	-0.175	-0.014
-668.062	800.000	0.153	-0.450
-667.047	-121.568	-0.386	-0.065
-666.032	221.944	0.106	0.173
-665.018	-10.869	0.265	-0.177
-664.003	-99.301	-0.193	-0.049
-662.989	66.092	0.012	-0.012
-661.974	-66.813	0.188	-0.076
-660.959	20.968	-0.098	0.080
-659.945	800.000	-0.096	0.298
-658.930	47.440	0.198	-0.187
-657.916	-141.600	0.243	0.025
-656.901	44.813	0.269	-0.251
-655.886	800.000	-0.083	-0.317
-654.872	-200.000	0.000	0.012
-653.857	-111.559	0.222	-0.046
-652.843	-115.439	-0.102	-0.019
-651.828	-141.833	-0.142	-0.014
-650.814	800.000	-0.037	-0.108
-649.799	307.283	0.208	-0.392
-648.784	-69.481	0.228	0.089
-647.770	167.807	-0.092	-0.132
-646.755	30.436	-0.241	-0.209
-645.741	-110.972	-0.328	0.068
-644.726	-14.237	-0.121	-0.079
-643.711	151.201	0.085	0.117
-642.697	131.514	0.362	-0.471
-641.682	-200.000	0.046	-0.231
-640.668	-33.696	-0.142	-0.079
-639.653	-200.000	-0.016	-0.218
-638.638	-44.462	0.176	-0.089
-637.624	58.852	-0.182	0.181
-636.609	192.505	0.180	0.275
-635.595	212.797	-0.081	-0.130
-634.580	-150.649	0.111	0.009
-633.565	121.355	0.083	-0.105
-632.551	-163.284	0.071	-0.003
-631.536	738.798	0.110	0.298
-630.522	574.262	-0.175	0.432
-629.507	143.821	0.113	-0.153
-628.492	-145.341	0.221	-0.020
-627.478	-200.000	0.010	0.212
-626.463	-74.595	-0.109	-0.040
-625.449	580.483	-0.025	-0.062
-624.434	-30.855	-0.277	-0.159
-623.419	-29.562	-0.031	-0.018
-622.405	-200.000	0.076	0.339
-621.390	-48.001	0.085	0.041
-620.376	800.000	-0.016	0.068
-619.361	-52.129	-0.054	-0.025
-618.346	48.221	-0.067	-0.064
-617.332	-200.000	-0.023	0.137
-616.317	-200.000	-0.006	0.047
-615.303	-5.221	-0.208	0.145
-614.288	-158.472	0.355	-0.021
-613.273	-51.947	-0.266	0.125
-612.259	-152.425	0.075	0.005
-611.244	146.570	0.058	-0.079
-610.230	-200.000	0.018	0.370
-609.215	-88.411	-0.321	-0.097
-608.201	70.542	0.052	-0.054
-607.186	800.000	-0.028	-0.123
-606.171	-200.000	0.004	0.233
-605.157	144.630	-0.270	-0.364
-604.142	-200.000	-0.067	0.381
-603.128	154.988	-0.284	-0.395
-602.113	-200.000	-0.037	-0.330
-601.098	-200.000	0.012	-0.090
-600.084	-123.013	-0.342	-0.056
-599.069	-37.661	-0.146	0.079
-598.055	-145.599	-0.139	-0.013
-597.040	-53.882	-0.386	-0.178
-596.025	45.411	-0.190	0.177
-595.011	300.821	0.059	-0.110
-593.996	650.847	0.086	0.222
-592.982	-10.291	0.160	0.107
-591.967	18.315	0.298	-0.241
-590.952	433.506	-0.103	-0.226
-589.938	-151.633	0.258	0.019
-588.923	800.000	0.056	-0.229
-587.909	-49.989	-0.137	-0.066
-586.894	-27.946	-0.109	-0.064
-585.879	-200.000	-0.066	0.335
-584.865	-131.374	-0.406	0.054
-583.850	800.000	0.101	-0.304
-582.836	-74.110	-0.148	-0.054
-581.821	130.816	-0.059	0.077
-580.806	800.000	-0.012	-0.040
-579.792	33.010	0.081	-0.071
-578.777	-68.637	-0.138	-0.054
-577.763	-200.000	0.027	-0.278
-576.748	42.741	-0.113	-0.104
-575.733	-164.966	0.516	-0.023
-574.719	-200.000	-0.073	-0.495
-573.704	-200.000	0.017	-0.229
-572.690	102.228	-0.152	-0.179
-571.675	-63.980	0.166	0.068
-570.661	6.110	-0.194	-0.145
-569.646	270.638	-0.084	0.150
-568.631	-73.984	0.196	-0.072
-567.617	-14.212	0.451	-0.294
-566.602	-80.364	-0.240	0.081
-565.588	-10.529	-0.263	0.176
-564.573	45.379	0.074	-0.069
-563.558	59.086	-0.152	0.151
-562.544	-200.000	0.025	0.289
-561.529	96.526	-0.101	-0.116
-560.515	800.000	0.061	-0.192
-559.500	284.371	0.023	-0.042
-558.485	-109.118	-0.138	-0.030
-557.471	580.538	0.097	-0.240
-556.456	-59.224	-0.334	-0.145
-555.442	396.237	-0.142	0.299
-554.427	-1.985	0.076	0.054
-553.412	-169.607	-0.299	0.011
-552.398	226.372	-0.138	0.226
-551.383	10.700	0.108	0.083
-550.369	-200.000	0.028	0.141
-549.354	662.666	0.033	-0.085
-548.339	-49.505	0.296	0.142
-547.325	10.190	0.143	-0.110
-546.310	351.749	0.102	0.203
-545.296	-37.171	-0.363	-0.196
-544.281	-200.000	0.043	0.242
-543.266	800.000	-0.064	-0.239
-542.252	12.983	-0.151	0.118
-541.237	482.458	-0.071	0.162
-540.223	-200.000	-0.015	0.087
-539.208	-55.800	-0.276	-0.125
-538.193	314.041	0.083	-0.159
-537.179	161.847	-0.360	-0.509
-536.164	800.000	-0.060	0.234
-535.150	117.222	0.083	0.103
-534.135	-69.435	0.317	-0.123
-533.121	-200.000	-0.046	-0.433
-532.106	-92.495	-0.123	-0.035
-531.091	-54.701	0.042	0.019
-530.077	-200.000	-0.033	-0.201
-529.062	-102.374	-0.029	0.007
-528.048	483.328	-0.069	0.157
-527.033	95.023	-0.217	0.249
-526.018	-62.738	-0.390	0.163
-525.004	74.770	0.104	0.110
-523.989	8.671	0.108	-0.082
-522.975	109.329	0.079	-0.095
-521.960	88.711	-0.144	-0.161
-520.945	-127.296	0.261	-0.038
-519.931	800.000	0.070	0.294
-518.916	800.000	0.070	0.237
-517.902	-52.985	-0.434	0.201
-516.887	-41.974	0.100	0.052
-515.872	-89.861	-0.201	0.059
-514.858	27.277	-0.103	-0.087
-513.843	-6.748	0.075	-0.051
-512.829	-21.427	-0.192	0.118
-511.814	800.000	0.063	-0.240
-510.799	-200.000	0.016	-0.144
-509.785	-20.474	0.120	-0.074
-508.770	362.103	0.037	-0.075
-507.756	-120.468	-0.156	0.027
-506.741	-73.726	0.197	-0.072
-505.726	291.748	0.091	-0.167
-504.712	8.826	0.152	0.116
-503.697	800.000	0.025	0.104
-502.683	-68.927	0.053	0.020
-501.668	523.348	-0.082	-0.193
-500.653	77.048	0.087	-0.093
-499.639	-127.509	0.087	0.013
-498.624	190.327	0.126	0.191
-497.610	115.592	-0.297	-0.365
-496.595	-200.000	-0.013	0.225
-495.581	-181.463	0.349	-0.007
-494.566	61.146	0.062	0.062
-493.551	-200.000	0.026	0.204
-492.537	88.696	-0.288	-0.322
-491.522	-126.914	-0.150	0.022
-490.508	-129.100	0.107	0.015
-489.493	-3.294	-0.160	-0.112
-488.478	81.927	0.083	0.091
-487.464	657.451	-0.062	-0.161
-486.449	-107.460	-0.231	-0.051
-485.435	-136.739	0.250	-0.029
-484.420	-93.029	0.323	-0.091
-483.405	142.392	0.110	0.147
-482.391	118.292	-0.097	0.120
-481.376	-17.222	-0.154	-0.097
-480.362	-200.000	0.014	0.287
-479.347	369.992	-0.098	0.199
-478.332	800.000	-0.062	0.175
-477.318	-6.373	0.173	-0.119
-476.303	3.369	0.171	-0.125
-475.289	53.627	0.116	0.112
-474.274	-143.373	0.094	-0.009
-473.259	61.132	0.145	0.144
-472.245	800.000	-0.041	0.175
-471.230	245.731	-0.102	-0.173
-470.216	-151.948	-0.361	0.027
-469.201	-11.011	0.581	0.386
-468.186	-200.000	-0.052	0.326
-467.172	-116.215	0.344	0.064
-466.157	-200.000	-0.016	-0.242
-465.143	64.418	0.211	0.214
-464.128	324.630	0.030	0.057
-463.113	95.692	-0.081	0.093
-462.099	-95.384	-0.057	-0.015
-461.084	710.434	0.147	0.392
-460.070	-121.400	0.248	-0.042
-459.055	493.188	-0.033	-0.077
-458.040	777.367	0.039	0.106
-457.026	190.025	0.026	-0.040
-456.011	-131.737	-0.399	-0.053
-454.997	299.155	0.230	-0.426
-453.982	-144.904	0.319	0.029
-452.968	-64.943	0.163	0.066
-451.953	800.000	-0.029	0.109
-450.938	44.607	0.383	0.354
-449.924	98.232	-0.264	0.306
-448.909	136.155	-0.230	-0.302
-447.895	-200.000	0.030	-0.582
-446.880	800.000	0.130	-0.385
-445.865	1.356	0.052	0.038
-444.851	800.000	-0.054	0.223
-443.836	800.000	-0.082	-0.262
-442.822	156.004	-0.132	0.182
-441.807	800.000	0.039	-0.158
-440.792	800.000	0.080	0.244
-439.778	79.272	0.123	0.132
-438.763	410.153	0.147	-0.313
-437.749	-159.363	-0.464	0.026
-436.734	-200.000	0.012	-0.395
-435.719	56.443	-0.195	-0.191
-434.705	-200.000	-0.036	-0.500
-433.690	32.293	0.117	0.102
-432.676	417.315	-0.127	0.272
-431.661	800.000	-0.106	0.298
-430.646	-146.758	0.148	-0.013
-429.632	-67.738	-0.190	0.075
-428.617	-200.000	0.016	0.253
-427.603	149.676	0.070	0.095
-426.588	-25.151	-0.264	-0.157
-425.573	10.401	0.127	-0.097
-424.559	-57.804	0.240	0.105
-423.544	800.000	0.045	0.147
-422.530	-160.757	0.269	-0.014
-421.515	-200.000	-0.011	-0.055
-420.500	-200.000	0.025	0.188
-419.486	173.694	0.113	0.163
-418.471	-164.507	0.436	-0.020
-417.457	-136.343	-0.215	0.025
-416.442	-102.651	0.162	-0.039
-415.428	-28.631	0.026	-0.015
-414.413	800.000	-0.024	-0.080
-413.398	-179.978	-0.394	0.008
-412.384	800.000	-0.125	-0.464
-411.369	-200.000	0.006	-0.549
-410.355	800.000	-0.068	-0.237
-409.340	-200.000	-0.003	-0.056
-408.325	183.320	-0.088	-0.130
-407.311	-200.000	0.001	-0.045
-406.296	800.000	0.077	-0.332
-405.282	-126.834	-0.225	-0.033
-404.267	-150.637	-0.253	0.019
-403.252	-8.967	0.113	-0.076
-402.238	344.960	-0.031	0.061
-401.223	-35.699	0.303	0.165
-400.209	-90.380	-0.197	0.057
-399.194	-94.870	0.210	0.057
-398.179	5.475	0.117	0.087
-397.165	118.957	0.189	0.234
-396.150	364.963	0.076	0.153
-395.136	345.739	-0.167	0.329
-394.121	184.133	-0.053	0.078
-393.106	53.682	0.248	-0.239
-392.092	30.779	-0.350	0.301
-391.077	-200.000	-0.009	0.098
-390.063	-90.579	-0.067	-0.019
-389.048	20.815	-0.071	-0.058
-388.033	207.388	-0.031	0.049
-387.019	800.000	0.053	-0.150
-386.004	800.000	0.038	0.140
-384.990	-200.000	-0.012	0.483
-383.975	162.699	0.125	0.176
-382.960	-108.465	-0.382	-0.082
-381.946	-113.860	-0.460	0.090
-380.931	-200.000	-0.010	0.258
-379.917	-200.000	-0.010	-0.168
-378.902	800.000	0.027	0.095
-377.888	185.531	-0.079	0.118
-376.873	-77.538	-0.225	-0.078
-375.858	271.834	0.089	-0.156
-374.844	-60.005	0.124	-0.053
-373.829	-193.471	-0.434	-0.004
-372.815	133.030	-0.230	-0.298
-371.800	-56.315	0.137	0.061
-370.785	-31.030	-0.154	-0.087
-369.771	-83.214	-0.239	0.077
-368.756	10.469	0.082	-0.063
-367.742	-53.427	-0.322	0.148
-366.727	136.478	-0.060	0.079
-365.712	-53.476	0.325	0.149
-364.698	-200.000	0.031	-0.277
-363.683	31.392	0.206	0.178
-362.669	-200.000	-0.019	-0.136
-361.654	-200.000	0.031	0.180
-360.639	267.576	0.222	-0.389
-359.625	-128.924	0.121	-0.017
-358.610	-68.167	0.040	-0.015
-357.596	-200.000	-0.003	-0.026
-356.581	-36.100	0.204	0.110
-355.566	41.572	0.076	-0.069
-354.552	800.000	0.063	-0.199
-353.537	-58.151	0.263	-0.115
-352.523	-93.522	0.288	0.080
-351.508	-60.138	-0.103	0.044
-350.493	-173.979	0.378	-0.011
-349.479	-200.000	-0.012	0.121
-348.464	-36.033	0.201	0.109
-347.450	75.428	-0.215	0.228
-346.435	800.000	-0.054	0.192
-345.420	-152.545	-0.119	-0.009
-344.406	-146.356	-0.262	0.023
-343.391	-41.359	0.071	0.036
-342.377	800.000	0.100	0.408
-341.362	393.459	-0.132	-0.274
-340.348	705.391	-0.043	-0.114
-339.333	95.922	-0.301	-0.344
-338.318	-76.236	-0.277	-0.098
-337.304	220.727	0.276	-0.444
-336.289	213.280	-0.172	0.272
-335.275	800.000	-0.040	0.143
-334.260	-24.950	0.048	0.029
-333.245	-17.652	0.147	0.093
-332.231	235.728	0.152	-0.251
-331.216	800.000	-0.038	-0.120
-330.202	-92.464	0.157	0.044
-329.187	-112.165	0.416	-0.084
-328.172	-200.000	0.014	-0.211
-327.158	-200.000	0.003	-0.106
-326.143	147.273	0.206	0.277
-325.129	-200.000	-0.001	-0.023
-324.114	415.028	-0.032	-0.069
-323.099	7.925	0.193	0.144
-322.085	168.052	-0.038	0.054
-321.070	76.947	-0.044	-0.047
-320.056	166.084	-0.160	-0.227
-319.041	467.675	0.060	-0.134
-318.026	117.079	0.247	0.304
-317.012	-154.484	-0.072	0.005
-315.997	150.754	0.200	-0.272
-314.983	141.271	0.170	0.225
-313.968	-23.780	0.094	0.056
-312.953	153.295	0.102	0.139
-311.939	800.000	0.074	0.320
-310.924	76.066	-0.083	-0.088
-309.910	-200.000	0.011	0.397
-308.895	221.350	-0.121	0.194
-307.880	190.096	0.243	-0.365
-306.866	-61.928	0.344	0.144
-305.851	-13.347	0.450	0.292
-304.837	800.000	-0.035	-0.134
-303.822	157.215	0.153	0.212
-302.807	261.081	-0.081	0.140
-301.793	-54.693	0.314	0.142
-300.778	-200.000	0.066	0.801
-299.764	-80.253	0.156	-0.052
-298.749	189.148	0.144	0.215
-297.735	66.798	0.095	0.096
-296.720	-48.149	0.030	0.014
-295.705	-85.611	0.046	0.014
-294.691	800.000	-0.088	-0.277
-293.676	294.191	-0.131	-0.239
-292.662	-143.393	-0.070	-0.007
-291.647	193.598	-0.081	-0.123
-290.632	-166.019	-0.255	-0.011
-289.618	-180.584	0.426	-0.009
-288.603	-14.102	0.115	-0.074
-287.589	28.098	-0.119	0.101
-286.574	-63.558	-0.313	0.128
-285.559	800.000	-0.051	-0.142
-284.545	800.000	-0.057	0.157
-283.530	32.898	-0.118	-0.102
-282.516	65.430	-0.089	-0.090
-281.501	-91.835	-0.302	-0.086
-280.486	27.342	-0.369	0.310
-279.472	26.981	-0.136	-0.114
-278.457	800.000	0.076	-0.266
-277.443	-70.863	0.200	-0.075
-276.428	36.032	0.203	0.179
-275.413	-61.429	-0.214	0.090
-274.399	-200.000	-0.017	-0.131
-273.384	696.485	-0.073	0.193
-272.370	-24.477	0.129	0.077
-271.355	51.109	-0.191	0.181
-270.340	-200.000	0.022	0.199
-269.326	717.733	-0.080	-0.212
-268.311	50.208	-0.014	-0.013
-267.297	18.050	-0.140	0.112
-266.282	800.000	-0.013	-0.047
-265.267	691.485	0.089	0.232
-264.253	72.016	0.116	-0.120
-263.238	163.228	-0.060	-0.084
-262.224	377.602	-0.275	-0.561
-261.209	61.804	-0.109	0.108
-260.195	102.133	0.156	0.182
-259.180	289.112	-0.066	0.119
-258.165	-118.812	0.276	0.048
-257.151	-65.106	0.339	0.137
-256.136	-57.951	0.164	-0.072
-255.122	346.608	-0.095	0.187
-254.107	100.703	0.118	0.137
-253.092	45.405	-0.044	0.040
-252.078	-121.249	0.246	0.041
-251.063	385.690	0.059	0.122
-250.049	46.849	0.313	0.290
-249.034	520.311	0.090	0.210
-248.019	-200.000	-0.038	-0.208
-247.005	124.135	-0.126	-0.158
-245.990	-131.183	-0.080	0.011
-244.976	525.970	-0.086	0.202
-243.961	152.426	-0.053	-0.072
-242.946	182.611	0.021	-0.031
-241.932	3.612	-0.302	0.220
-240.917	119.833	0.057	0.071
-239.903	-69.249	-0.231	-0.088
-238.888	46.523	0.137	-0.126
-237.873	52.978	-0.147	-0.140
-236.859	-12.710	0.129	-0.084
-235.844	61.466	-0.023	0.023
-234.830	-31.469	-0.115	-0.064
-233.815	-163.397	0.248	0.012
-232.800	800.000	0.087	-0.357
-231.786	800.000	-0.060	-0.198
-230.771	-13.938	-0.367	0.236
-229.757	60.266	-0.209	-0.206
-228.742	51.766	0.342	-0.324
-227.727	109.587	-0.105	0.125
-226.713	99.771	0.026	0.030
-225.698	-200.000	-0.010	0.131
-224.684	-200.000	0.006	-0.036
-223.669	-116.822	-0.044	0.008
-222.655	480.598	0.135	0.306
-221.640	800.000	0.123	0.341
-220.625	-200.000	0.065	-0.300
-219.611	362.984	0.132	0.263
-218.596	455.080	-0.196	-0.432
-217.582	-200.000	0.020	0.105
-216.567	-63.570	-0.281	-0.115
-215.552	-173.499	0.204	-0.006
-214.538	-97.419	0.243	-0.063
-213.523	169.083	-0.115	-0.163
-212.509	-6.478	-0.223	-0.152
-211.494	219.958	0.069	-0.111
-210.479	800.000	-0.022	0.093
-209.465	248.137	-0.083	0.140
-208.450	-50.589	-0.263	-0.123
-207.436	-33.454	0.114	0.063
-206.421	93.641	0.180	-0.203
-205.406	-200.000	-0.029	-0.129
-204.392	369.610	0.023	-0.045
-203.377	149.926	-0.021	0.028
-202.363	-175.208	-0.243	-0.007
-201.348	45.520	-0.076	0.070
-200.333	-133.276	0.196	0.025
-199.319	53.837	-0.114	-0.109
-198.304	-200.000	0.002	-0.094
-197.290	-8.716	-0.165	-0.110
-196.275	-146.274	-0.068	0.006
-195.260	149.256	-0.255	0.344
-194.246	-175.274	-0.109	-0.003
-193.231	-66.239	0.267	0.106
-192.217	-200.000	0.020	-0.224
-191.202	536.505	-0.153	-0.362
-190.187	321.919	-0.243	-0.461
-189.173	-200.000	0.044	-0.229
-188.158	-200.000	-0.004	-0.145
-187.144	-60.866	0.379	0.159
-186.129	-39.407	-0.151	0.079
-185.114	233.418	0.135	-0.221
-184.100	237.008	-0.099	0.163
-183.085	-109.938	0.537	0.112
-182.071	-200.000	0.072	0.383
-181.056	-117.386	0.242	0.044
-180.042	800.000	-0.087	0.267
-179.027	19.343	0.205	0.164
-178.012	800.000	0.029	-0.121
-176.998	52.199	-0.085	-0.080
-175.983	-52.534	0.075	0.035
-174.969	-66.999	0.142	0.056
-173.954	-200.000	0.043	-0.252
-172.939	311.068	-0.081	-0.151
-171.925	55.993	0.160	-0.155
-170.910	81.192	0.165	0.177
-169.896	88.719	-0.141	0.156
-168.881	-107.598	-0.222	-0.048
-167.866	-29.321	-0.212	-0.121
-166.852	125.898	0.168	0.211
-165.837	513.663	-0.018	-0.043
-164.823	-69.911	0.281	0.107
-163.808	98.689	0.041	-0.047
-162.793	-12.018	-0.181	-0.118
-161.779	353.610	0.015	0.029
-160.764	-61.464	-0.186	0.078
-159.750	-93.908	-0.172	0.047
-158.735	-200.000	0.001	-0.126
-157.720	-19.480	-0.071	0.044
-156.706	-120.986	0.438	0.073
-155.691	113.952	-0.232	0.281
-154.677	-31.017	0.170	0.095
-153.662	188.945	-0.192	0.286
-152.647	-200.000	0.069	0.313
-151.633	-200.000	0.039	-0.189
-150.618	109.770	0.106	0.127
-149.604	355.418	-0.069	0.136
-148.589	110.443	-0.007	0.008
-147.574	-68.132	-0.137	0.053
-146.560	38.156	0.344	0.304
-145.545	157.740	0.106	0.146
-144.531	189.487	-0.154	-0.229
-143.516	-44.657	-0.301	0.150
-142.502	-21.484	-0.291	0.176
-141.487	-10.528	-0.135	0.089
-140.472	800.000	-0.059	0.209
-139.458	800.000	-0.080	-0.317
-138.443	-200.000	0.018	0.144
-137.429	190.401	-0.119	-0.178
-136.414	-200.000	0.007	0.070
-135.399	800.000	0.066	-0.266
-134.385	-62.779	0.397	-0.163
-133.370	-106.966	0.250	-0.055
-132.356	-200.000	-0.032	0.193
-131.341	-85.042	-0.138	-0.043
-130.326	-174.924	-0.168	0.005
-129.312	97.439	-0.028	0.032
-128.297	-135.078	0.230	-0.027
-127.283	800.000	0.027	0.079
-126.268	-44.869	-0.126	0.062
-125.253	-73.317	-0.202	-0.073
-124.239	80.512	0.193	-0.206
-123.224	602.729	-0.108	-0.268
-122.210	-200.000	0.003	0.025
-121.195	117.602	0.064	0.079
-120.180	326.039	-0.060	-0.114
-119.166	-172.902	-0.169	-0.005
-118.151	-200.000	0.020	-0.093
-117.137	-55.290	-0.484	0.216
-116.122	10.813	-0.164	0.124
-115.107	41.220	0.080	0.072
-114.093	79.205	0.080	-0.085
-113.078	800.000	0.061	-0.260
-112.064	85.892	-0.296	0.323
-111.049	114.667	0.122	0.147
-110.034	-47.329	-0.374	0.181
-109.020	-200.000	-0.001	0.024
-108.005	83.996	0.116	0.126
-106.991	317.482	-0.129	-0.242
-105.976	-200.000	0.036	0.162
-104.962	-65.306	0.171	0.068
-103.947	-200.000	0.010	-0.085
-102.932	155.644	0.129	-0.176
-101.918	800.000	-0.084	0.344
-100.903	-200.000	0.009	0.058
-99.889	334.044	0.031	-0.060
-98.874	231.862	-0.218	0.354
-97.859	-200.000	-0.030	-0.132
-96.845	-83.329	0.149	-0.047
-95.830	20.372	0.165	-0.133
-94.816	44.025	-0.118	0.107
-93.801	-22.828	-0.193	-0.115
-92.786	-101.086	0.247	0.060
-91.772	800.000	0.081	-0.282
-90.757	-140.242	0.533	-0.055
-89.743	295.356	-0.082	-0.149
-88.728	177.594	0.217	0.313
-87.713	-158.142	0.178	0.010
-86.699	-150.289	0.054	-0.004
-85.684	737.589	0.074	0.197
-84.670	-104.097	0.225	0.052
-83.655	-111.675	-0.208	0.042
-82.640	-64.633	0.362	0.145
-81.626	129.057	-0.246	-0.311
-80.611	-200.000	0.024	0.570
-79.597	-134.621	-0.188	-0.023
-78.582	494.171	-0.107	0.244
-77.567	-200.000	-0.012	0.063
-76.553	-200.000	-0.015	-0.107
-75.538	-101.679	0.087	-0.021
-74.524	18.289	-0.128	-0.101
-73.509	64.406	0.142	-0.142
-72.494	-71.963	0.094	0.035
-71.480	32.885	-0.197	0.169
-70.465	800.000	-0.095	0.311
-69.451	-48.575	-0.273	-0.130
-68.436	7.985	0.341	-0.253
-67.422	73.548	-0.212	-0.220
-66.407	367.143	-0.154	-0.307
-65.392	-55.520	0.123	0.055
-64.378	313.352	0.014	0.025
-63.363	800.000	0.071	0.219
-62.349	-167.070	0.298	-0.012
-61.334	-21.416	-0.850	-0.514
-60.319	-8.285	0.447	0.298
-59.305	-200.000	-0.117	-0.986
-58.290	739.757	0.298	0.792
-57.276	470.880	0.671	1.494
-56.261	-200.000	96.853	567.203
-55.246	624.303	1395.013	3481.656
-54.232	186.336	2604.493	3837.334
-53.217	118.985	2203.155	2696.369
-52.203	44.677	1735.605	1580.074
-51.188	37.360	1546.587	1357.083
-50.173	34.986	1518.994	1316.506
-49.159	53.037	1569.488	1487.000
-48.144	56.782	1588.078	1530.761
-47.130	37.740	1543.832	1357.095
-46.115	34.524	1528.319	1321.180
-45.100	34.372	1524.726	1316.975
-44.086	34.255	1523.359	1314.931
-43.071	34.417	1520.592	1313.606
-42.057	34.281	1519.532	1311.702
-41.042	34.308	1518.060	1310.564
-40.027	34.348	1516.592	1309.522
-39.013	34.282	1515.539	1308.110
-37.998	34.318	1513.819	1306.822
-36.984	34.360	1513.183	1306.507
-35.969	34.286	1511.248	1304.275
-34.954	34.262	1509.835	1302.844
-33.940	34.312	1508.659	1302.117
-32.925	34.401	1507.169	1301.387
-31.911	34.335	1506.059	1299.925
-30.896	34.376	1504.522	1298.830
-29.881	34.384	1503.442	1297.896
-28.867	34.291	1502.087	1296.045
-27.852	34.341	1500.768	1295.193
-26.838	34.399	1499.440	1294.388
-25.823	34.366	1498.111	1292.970
-24.809	34.451	1496.112	1291.766
-23.794	34.387	1494.853	1290.193
-22.779	34.258	1493.842	1288.398
-21.765	34.316	1492.710	1287.766
-20.750	34.310	1491.814	1286.896
-19.736	34.357	1490.288	1285.846
-18.721	34.321	1489.107	1284.533
-17.706	34.262	1488.369	1283.451
-16.692	34.398	1487.060	1283.187
-15.677	34.345	1486.059	1281.919
-14.663	34.251	1485.639	1280.867
-13.648	34.258	1484.678	1280.037
-12.633	34.249	1483.718	1279.099
-11.619	34.340	1482.340	1278.469
-10.604	34.291	1481.372	1277.256
-9.590	34.228	1480.571	1276.091
-8.575	34.293	1479.889	1275.890
-7.560	34.356	1479.072	1275.559
-6.546	34.211	1478.560	1274.094
-5.531	34.260	1477.165	1273.168
-4.517	34.269	1476.158	1272.308
-3.502	34.252	1474.996	1271.143
-2.487	34.305	1474.161	1270.727
-1.473	34.272	1473.350	1269.756
-0.458	34.237	1471.647	1268.008
0.556	33.199	1462.316	1257.886
1.571	30.360	1436.081	1216.634
2.586	26.687	1373.471	1140.417
3.600	24.672	1290.898	1059.829
4.615	23.400	1244.269	1014.181
5.629	20.515	1187.817	952.295
6.644	12.616	1102.783	843.706
7.659	6.276	1060.751	780.125
8.673	5.208	1055.257	770.748
9.688	5.055	1052.226	767.710
10.702	4.844	1050.456	765.316
11.717	4.904	1048.457	764.085
12.731	7.553	1051.945	779.581
13.746	15.246	1062.208	825.123
14.761	19.631	1067.453	850.765
15.775	18.719	1064.988	844.242
16.790	17.553	1062.363	836.365
17.804	16.400	1060.093	828.853
18.819	15.555	1058.044	823.036
19.834	15.044	1056.570	819.318
20.848	14.676	1055.705	816.774
21.863	14.448	1055.145	815.153
22.877	14.281	1054.202	813.539
23.892	14.060	1052.977	811.441
24.907	13.989	1052.183	810.413
25.921	14.026	1051.798	810.225
26.936	13.888	1051.431	809.196
27.950	14.026	1050.195	808.846
28.965	14.079	1049.026	808.132
29.980	14.168	1048.009	807.706
30.994	14.206	1046.851	806.927
32.009	14.275	1045.447	806.107
33.023	14.336	1045.299	806.217
34.038	14.274	1043.832	804.718
35.053	14.195	1043.364	803.903
36.067	14.231	1042.083	803.017
37.082	14.030	1041.333	801.402
38.096	14.265	1040.713	801.987
39.111	14.181	1040.114	801.049
40.126	14.208	1039.140	800.357
41.140	14.184	1037.480	798.893
42.155	14.049	1036.344	797.298
43.169	13.784	1036.356	795.964
44.184	13.852	1034.698	794.949
45.199	13.758	1034.049	793.930
46.213	13.949	1032.682	793.721
47.228	13.926	1031.701	792.790
48.242	14.024	1030.901	792.569
49.257	14.099	1029.833	792.036
50.271	14.003	1029.085	790.936
51.286	14.012	1028.335	790.329
52.301	14.077	1027.503	789.932
53.315	14.134	1026.594	789.432
54.330	14.130	1025.453	788.466
55.344	14.105	1024.715	787.710
56.359	13.881	1023.744	785.834
57.374	13.998	1022.892	785.665
58.388	14.086	1021.539	784.970
59.403	13.939	1021.105	783.873
60.417	13.943	1020.566	783.408
61.432	13.954	1019.416	782.509
62.447	13.810	1019.420	781.767
63.461	13.913	1017.911	781.022
64.476	13.838	1017.035	779.932
65.490	13.690	1016.539	778.785
66.505	13.812	1015.616	778.584
67.520	13.893	1014.781	778.250
68.534	13.915	1013.895	777.605
69.549	13.829	1013.500	776.832
70.563	13.859	1012.695	776.289
71.578	13.791	1011.825	775.233
72.593	13.856	1010.983	774.822
73.607	13.724	1010.038	773.416
74.622	13.786	1008.673	772.588
75.636	13.645	1008.342	771.613
76.651	13.761	1007.619	771.532
77.666	13.683	1006.860	770.518
78.680	13.723	1006.279	770.193
79.695	13.710	1005.463	769.436
80.709	13.806	1004.774	769.288
81.724	13.742	1003.952	768.295
82.739	13.961	1002.993	768.507
83.753	13.920	1002.719	768.038
84.768	13.888	1002.393	767.571
85.782	14.161	1001.127	767.794
86.797	14.114	1000.570	767.084
87.812	14.226	999.251	766.521
88.826	14.157	998.430	765.504
89.841	14.068	997.837	764.575
90.855	14.055	997.641	764.294
91.870	14.091	996.459	763.487
92.884	14.089	995.802	762.910
93.899	14.286	994.956	763.094
94.914	14.249	994.069	762.180
95.928	14.285	993.502	761.843
96.943	14.290	992.809	761.264
97.957	14.209	992.428	760.534
98.972	14.254	990.837	759.453
99.987	13.971	990.666	757.963
101.001	14.201	989.682	758.190
102.016	14.161	989.163	757.544
103.030	14.197	987.901	756.676
104.045	14.116	987.161	755.675
105.060	14.132	986.082	754.854
106.074	14.213	984.997	754.325
107.089	14.045	984.242	752.919
108.103	14.023	983.237	751.982
109.118	13.881	982.418	750.647
110.133	13.810	981.809	749.796
111.147	13.960	980.589	749.476
112.162	13.817	980.008	748.318
113.176	13.977	979.079	748.263
114.191	14.006	978.253	747.696
115.206	14.089	977.248	747.235
116.220	14.014	976.616	746.349
117.235	13.983	975.887	745.586
118.249	14.022	975.122	745.114
119.264	14.007	974.095	744.195
120.279	13.846	973.616	743.040
121.293	13.886	972.786	742.524
122.308	13.843	971.815	741.523
123.322	13.871	970.692	740.726
124.337	13.772	970.085	739.755
125.352	13.735	968.714	738.479
126.366	13.832	967.485	737.906
127.381	13.878	966.364	737.193
128.395	13.828	965.458	736.212
129.410	13.871	964.632	735.712
130.424	13.944	963.786	735.325
131.439	14.023	962.700	734.779
132.454	13.962	961.989	733.903
133.468	14.090	961.314	733.887
134.483	13.943	960.852	732.820
135.497	14.072	960.394	732.974
136.512	14.052	959.435	732.091
137.527	13.974	958.470	730.945
138.541	14.132	957.801	731.064
139.556	14.014	957.206	730.030
140.570	13.991	956.745	729.511
141.585	14.179	955.435	729.272
142.600	14.158	955.032	728.806
143.614	14.260	954.142	728.511
144.629	14.200	953.412	727.626
145.643	14.341	952.814	727.723
146.658	14.134	952.220	726.298
147.673	14.138	951.119	725.411
148.687	14.125	950.117	724.526
149.702	14.138	948.776	723.499
150.716	14.009	948.559	722.706
151.731	14.208	947.261	722.519
152.746	14.114	946.123	721.178
153.760	14.100	946.122	721.053
154.775	14.126	945.276	720.459
155.789	14.277	944.431	720.403
156.804	14.243	943.913	719.797
157.819	14.281	942.998	719.202
158.833	14.302	942.328	718.718
159.848	14.411	941.745	718.677
160.862	14.269	941.598	717.888
161.877	14.378	940.435	717.409
162.892	14.233	939.612	716.094
163.906	14.196	938.548	715.061
164.921	14.090	938.289	714.346
165.935	14.123	937.003	713.447
166.950	14.181	935.999	712.864
167.964	14.104	935.215	711.877
168.979	14.232	934.306	711.669
169.994	14.217	933.311	710.783
171.008	14.130	932.480	709.715
172.023	14.163	931.660	709.171
173.037	14.384	931.314	709.785
174.052	14.378	930.603	709.155
175.067	14.364	929.558	708.238
176.081	14.319	928.477	707.161
177.096	14.432	927.696	706.980
178.110	14.199	927.083	705.465
179.125	14.202	926.043	704.621
180.140	14.293	925.387	704.446
181.154	14.305	924.532	703.783
182.169	14.433	924.121	703.951
183.183	14.360	923.988	703.479
184.198	14.372	922.499	702.333
185.213	14.407	922.225	702.209
186.227	14.535	921.460	702.104
187.242	14.507	921.062	701.619
188.256	14.586	920.287	701.300
189.271	14.515	919.998	700.717
190.286	14.629	918.901	700.300
191.300	14.592	917.732	699.192
192.315	14.283	917.324	697.525
193.329	14.229	916.623	696.704
194.344	14.277	915.671	696.119
195.359	14.285	915.258	695.776
196.373	14.448	914.633	695.919
197.388	14.448	914.382	695.668
198.402	14.520	913.944	695.574
199.417	14.598	913.691	695.646
200.432	14.777	913.279	696.017
201.446	14.792	912.646	695.533
202.461	14.855	912.001	695.242
203.475	14.737	911.753	694.500
204.490	14.830	911.108	694.334
205.504	14.682	910.050	692.856
206.519	14.699	909.310	692.301
207.534	14.543	908.844	691.238
208.548	14.569	907.843	690.522
209.563	14.683	907.577	690.730
210.577	14.711	906.447	689.927
211.592	14.741	906.134	689.750
212.607	14.792	905.600	689.495
213.621	15.013	904.746	689.694
214.636	14.881	904.218	688.686
215.650	14.899	903.674	688.284
216.665	14.780	903.133	687.322
217.680	14.964	902.567	687.588
218.694	15.051	901.662	687.192
219.709	15.140	901.416	687.312
220.723	15.099	900.821	686.628
221.738	14.931	900.314	685.492
222.753	14.890	899.600	684.720
223.767	15.129	898.315	684.657
224.782	15.096	897.741	684.024
225.796	15.158	897.111	683.738
226.811	15.152	896.311	683.044
227.826	15.134	895.748	682.482
228.840	15.065	895.451	681.911
229.855	15.102	894.702	681.435
230.869	15.049	893.574	680.299
231.884	15.087	893.085	680.020
232.899	14.921	892.336	678.717
233.913	15.018	891.716	678.576
234.928	15.056	890.897	678.049
235.942	14.954	890.455	677.239
236.957	14.876	889.898	676.438
237.972	14.998	889.027	676.213
238.986	15.031	888.497	675.880
240.001	14.981	887.778	675.072
241.015	15.085	887.005	674.842
242.030	14.984	886.802	674.225
243.045	15.071	885.897	673.827
244.059	15.204	885.162	673.741
245.074	15.254	884.349	673.263
246.088	15.193	884.181	672.832
247.103	15.249	883.829	672.728
248.117	15.313	882.932	672.244
249.132	15.250	882.638	671.705
250.147	15.433	881.726	671.685
251.161	15.564	881.108	671.680
252.176	15.615	880.690	671.506
253.190	15.640	879.716	670.805
254.205	15.561	879.727	670.439
255.220	15.704	878.673	670.143
256.234	15.737	878.004	669.707
257.249	15.644	877.282	668.728
258.263	15.719	876.855	668.641
259.278	15.667	876.601	668.181
260.293	15.713	875.803	667.697
261.307	15.720	875.016	667.065
262.322	15.667	874.760	666.600
263.336	15.742	874.126	666.353
264.351	15.981	872.914	666.320
265.366	15.948	872.220	665.598
266.380	15.745	872.126	664.668
267.395	15.893	871.291	664.555
268.409	15.754	870.790	663.566
269.424	15.790	870.103	663.125
270.439	15.767	869.414	662.450
271.453	15.879	868.548	662.171
272.468	15.711	867.947	660.998
273.482	15.744	867.273	660.553
274.497	15.709	867.066	660.198
275.512	15.777	866.020	659.611
276.526	15.883	865.062	659.238
277.541	15.747	864.633	658.324
278.555	15.958	864.217	658.772
279.570	15.835	863.831	657.940
280.585	16.019	863.051	658.003
281.599	16.212	862.120	657.989
282.614	15.992	862.085	657.048
283.628	16.083	861.182	656.654
284.643	16.092	860.637	656.215
285.657	15.849	860.426	655.051
286.672	15.807	860.324	654.752
287.687	15.995	859.275	654.629
288.701	15.987	859.189	654.472
289.716	16.061	858.069	653.846
290.730	16.145	857.568	653.736
291.745	16.107	856.880	653.005
292.760	16.038	856.295	652.236
293.774	16.136	855.686	652.092
294.789	16.244	855.106	652.010
295.803	16.204	854.563	651.382
296.818	16.097	853.866	650.382
297.833	16.135	852.837	649.688
298.847	16.184	852.180	649.316
299.862	16.244	851.722	649.140
300.876	16.155	851.360	648.468
301.891	16.100	850.634	647.643
302.906	16.245	850.063	647.709
303.920	16.369	849.321	647.560
304.935	16.376	848.700	647.059
305.949	16.478	848.350	647.123
306.964	16.442	847.618	646.369
307.979	16.634	846.629	646.293
308.993	16.429	846.388	645.270
310.008	16.389	846.191	644.909
311.022	16.470	845.620	644.725
312.037	16.423	844.878	643.924
313.052	16.470	844.648	643.870
314.066	16.373	843.898	642.874
315.081	16.329	843.289	642.184
316.095	16.398	842.437	641.741
317.110	16.228	842.244	640.890
318.125	16.403	841.583	640.997
319.139	16.282	841.287	640.253
320.154	16.430	840.771	640.365
321.168	16.473	839.971	639.862
322.183	16.331	839.722	639.079
323.197	16.375	839.080	638.700
324.212	16.385	838.391	638.156
325.227	16.447	837.834	637.910
326.241	16.533	837.283	637.760
327.256	16.426	836.746	636.892
328.270	16.245	836.526	635.985
329.285	16.488	835.663	636.188
330.300	16.411	835.154	635.453
331.314	16.394	834.828	635.085
332.329	16.525	833.764	634.713
333.343	16.546	833.158	634.272
334.358	16.559	833.005	634.148
335.373	16.632	832.199	633.752
336.387	16.795	831.441	633.729
337.402	16.700	831.380	633.271
338.416	16.662	830.646	632.515
339.431	16.826	830.127	632.675
340.446	17.022	829.173	632.622
341.460	16.980	828.625	631.992
342.475	16.967	828.517	631.808
343.489	16.923	828.037	631.221
344.504	17.066	827.143	631.014
345.519	16.928	826.437	629.909
346.533	17.068	826.114	630.125
347.548	17.188	825.786	630.264
348.562	16.985	825.402	629.165
349.577	16.959	824.494	628.318
350.592	16.805	823.960	627.288
351.606	16.898	823.842	627.487
352.621	16.903	823.423	627.130
353.635	16.836	822.584	626.188
354.650	16.904	822.520	626.333
355.665	16.894	821.910	625.778
356.679	16.898	821.594	625.497
357.694	16.932	821.176	625.249
358.708	17.028	820.447	624.990
359.723	17.003	819.773	624.328
360.738	17.130	819.034	624.177
361.752	17.014	818.667	623.419
362.767	17.088	818.290	623.346
363.781	17.165	817.817	623.216
364.796	17.212	817.259	622.906
365.810	17.316	816.795	622.878
366.825	17.318	816.853	622.876
367.840	17.284	816.673	622.559
368.854	17.334	815.913	622.108
369.869	17.144	815.780	621.256
370.883	17.292	814.534	620.793
371.898	17.453	813.839	620.795
372.913	17.324	813.521	620.027
373.927	17.311	813.127	619.622
374.942	17.303	812.501	619.064
375.956	17.357	811.836	618.697
376.971	17.355	811.102	618.075
377.986	17.421	810.791	618.025
379.000	17.617	809.990	618.071
380.015	17.541	809.850	617.632
381.029	17.584	809.294	617.311
382.044	17.616	808.669	616.897
383.059	17.604	808.403	616.593
384.073	17.637	807.427	615.913
385.088	17.618	807.090	615.535
386.102	17.349	806.328	613.927
387.117	17.358	805.921	613.595
388.132	17.435	805.467	613.472
389.146	17.375	805.163	612.973
390.161	17.490	804.936	613.160
391.175	17.670	804.115	613.126
392.190	17.581	803.982	612.651
393.205	17.626	803.287	612.228
394.219	17.569	802.588	611.437
395.234	17.705	802.219	611.591
396.248	17.478	802.144	610.664
397.263	17.615	801.392	610.530
398.278	17.465	800.974	609.617
399.292	17.430	800.719	609.245
400.307	17.489	800.232	609.031
401.321	17.598	799.845	609.074
402.336	17.504	799.514	608.431
403.350	17.521	798.936	607.998
404.365	17.644	798.503	608.056
405.380	17.712	798.048	607.897
406.394	17.824	797.424	607.768
407.409	17.935	797.087	607.852
408.423	17.925	796.991	607.688
409.438	17.804	796.547	606.865
410.453	17.772	795.907	606.212
411.467	17.950	795.685	606.620
412.482	17.998	795.003	606.216
413.496	17.991	794.532	605.780
414.511	18.037	794.204	605.637
415.526	18.165	793.741	605.687
416.540	18.024	793.642	605.057
417.555	17.986	793.083	604.442
418.569	17.927	792.565	603.787
419.584	18.021	792.129	603.733
420.599	17.982	791.737	603.245
421.613	153.118	1368.704	1789.992
422.628	132.394	1452.805	1790.096
