DTS Sentinel unit serial number:	SN413079Multiplexer serial number:	ORYXHardware model number:	OX4-SRSoftware version number:	ORYX F/W v4.00 Oryx Data Collector v3.7.2.0data status	okinstallation	princeton_trtdifferential loss correction	single-endedforward channel	channel 3reverse channel	N/Adate	2019/09/18time	00:32:35forward acquisition time	60.00reverse acquisition time	0.00gamma	496.2192k internal	0.2344k external	0.2344temperature offset calibration	0.9948default loss term (dB/km)	0.3790temperature slope calibration	1.0000multiplexer offset coefficient	1.0000multiplexer slope coefficient	1.0000fibre end	0.00T internal ref (°C)	23.52T ext. ref 1 (°C)	0.16T ext. ref 2 (°C)	17.16length (m)	temperature (°C)	Stokes	anti-Stokes-747.200	-198.483	0.279	-0.002
-746.185	76.379	-0.208	0.220
-745.171	-140.054	0.421	-0.044
-744.156	90.790	-0.204	0.229
-743.142	296.182	-0.065	0.120
-742.127	-39.731	0.102	0.054
-741.112	-200.000	-0.010	0.141
-740.098	-39.918	-0.314	0.164
-739.083	-49.389	0.307	-0.146
-738.069	-81.550	-0.269	0.088
-737.054	-111.829	-0.260	-0.053
-736.039	-159.625	-0.203	0.011
-735.025	-66.039	0.307	0.123
-734.010	74.802	0.069	-0.072
-732.996	-189.642	0.029	0.000
-731.981	-128.211	-0.270	-0.039
-730.966	-85.661	0.348	-0.108
-729.952	-49.425	-0.418	-0.200
-728.937	-135.952	-0.278	-0.033
-727.923	-33.426	0.105	-0.058
-726.908	-200.000	-0.046	-0.256
-725.894	38.176	-0.530	-0.471
-724.879	800.000	0.034	-0.095
-723.864	25.750	-0.204	0.170
-722.850	800.000	-0.095	0.274
-721.835	-146.821	-0.102	-0.009
-720.821	391.933	-0.148	0.307
-719.806	-9.210	-0.359	-0.240
-718.791	21.509	-0.233	-0.190
-717.777	35.583	0.058	-0.051
-716.762	-105.057	-0.111	0.025
-715.748	49.297	0.287	0.269
-714.733	-200.000	0.014	0.218
-713.718	281.547	0.060	0.107
-712.704	298.631	-0.100	0.184
-711.689	10.520	0.305	-0.232
-710.675	-53.109	0.342	-0.157
-709.660	-113.127	-0.290	-0.057
-708.645	-104.618	-0.170	0.039
-707.631	26.872	0.105	-0.088
-706.616	250.310	-0.097	-0.165
-705.602	35.471	-0.115	0.101
-704.587	-190.563	0.183	0.002
-703.572	447.725	0.039	0.086
-702.558	100.184	0.404	-0.468
-701.543	-140.044	0.216	-0.023
-700.529	386.242	0.134	0.277
-699.514	189.894	0.032	-0.048
-698.499	29.959	-0.354	-0.301
-697.485	-156.265	0.142	-0.009
-696.470	-149.656	-0.266	0.021
-695.456	32.948	-0.144	0.124
-694.441	-33.821	0.259	-0.143
-693.426	33.201	-0.263	-0.228
-692.412	-200.000	0.012	-0.058
-691.397	-121.068	-0.367	0.061
-690.383	-200.000	-0.013	-0.208
-689.368	212.071	-0.141	0.221
-688.354	-158.346	-0.595	-0.035
-687.339	2.345	-0.094	0.068
-686.324	-200.000	-0.086	0.444
-685.310	-61.950	0.069	-0.029
-684.295	470.995	0.030	0.067
-683.281	-43.963	0.117	0.059
-682.266	637.634	-0.017	-0.043
-681.251	-91.930	-0.368	0.104
-680.237	326.877	0.050	0.096
-679.222	-200.000	-0.031	0.200
-678.208	-88.792	0.169	-0.050
-677.193	83.586	0.067	-0.072
-676.178	-9.338	0.084	0.056
-675.164	-161.580	-0.189	-0.010
-674.149	-150.708	-0.340	0.026
-673.135	-130.695	0.434	0.058
-672.120	157.018	0.086	-0.119
-671.105	-70.086	-0.194	-0.074
-670.091	116.149	-0.051	0.062
-669.076	623.193	0.146	-0.367
-668.062	96.653	0.130	0.148
-667.047	-121.341	0.455	-0.076
-666.032	95.129	0.151	-0.171
-665.018	800.000	-0.080	0.231
-664.003	800.000	0.080	-0.293
-662.989	134.965	0.099	-0.128
-661.974	-51.786	0.243	-0.113
-660.959	-154.374	-0.213	-0.014
-659.945	59.555	-0.143	-0.141
-658.930	-73.960	-0.199	-0.072
-657.916	800.000	-0.054	-0.155
-656.901	-28.743	-0.119	0.068
-655.886	103.165	0.137	-0.161
-654.872	-106.101	-0.205	-0.046
-653.857	86.548	0.230	0.253
-652.843	800.000	-0.116	0.496
-651.828	103.625	-0.107	-0.125
-650.814	-77.749	0.091	-0.031
-649.799	-48.271	0.171	-0.082
-648.784	-153.111	-0.308	-0.022
-647.770	599.885	0.083	-0.205
-646.755	488.949	-0.040	-0.092
-645.741	800.000	0.028	0.082
-644.726	310.242	0.153	0.286
-643.711	-200.000	-0.044	0.202
-642.697	-200.000	-0.018	-0.434
-641.682	-200.000	0.023	-0.164
-640.668	7.892	-0.064	0.048
-639.653	-200.000	-0.033	0.286
-638.638	-17.285	-0.219	0.137
-637.624	-93.472	-0.039	-0.011
-636.609	76.593	-0.174	0.184
-635.595	-50.381	0.114	-0.054
-634.580	-96.347	0.253	0.067
-633.565	-14.616	-0.055	-0.035
-632.551	113.522	0.097	-0.118
-631.536	800.000	-0.091	-0.352
-630.522	-159.723	-0.053	0.003
-629.507	-43.852	-0.207	-0.104
-628.492	-69.801	0.134	-0.051
-627.478	104.026	0.152	-0.178
-626.463	-200.000	-0.034	0.316
-625.449	-42.245	-0.174	0.089
-624.434	-200.000	0.023	-0.221
-623.419	-69.922	0.311	-0.118
-622.405	-114.080	0.196	0.038
-621.390	509.464	-0.118	0.274
-620.376	453.066	0.165	0.364
-619.361	-136.281	-0.109	-0.013
-618.346	3.032	-0.461	-0.334
-617.332	800.000	0.081	-0.319
-616.317	536.186	0.151	0.356
-615.303	404.153	-0.161	0.337
-614.288	194.497	0.044	0.066
-613.273	-12.512	0.252	0.164
-612.259	-57.733	-0.308	0.134
-611.244	189.235	-0.056	-0.083
-610.230	-145.684	0.432	0.038
-609.215	361.355	-0.112	-0.223
-608.201	-97.456	-0.349	-0.090
-607.186	800.000	0.038	-0.146
-606.171	800.000	-0.095	-0.368
-605.157	311.152	0.128	-0.239
-604.142	800.000	-0.081	-0.300
-603.128	-131.739	0.160	-0.021
-602.113	103.908	0.147	-0.172
-601.098	-36.887	-0.026	0.014
-600.084	-172.111	-0.047	-0.002
-599.069	-115.792	0.161	-0.030
-598.055	-20.388	-0.234	0.143
-597.040	-200.000	-0.049	0.243
-596.025	-139.539	0.183	0.019
-595.011	-117.568	0.071	0.013
-593.996	-200.000	-0.023	-0.124
-592.982	-29.258	-0.032	-0.018
-591.967	14.314	-0.362	0.281
-590.952	78.922	-0.284	-0.303
-589.938	-71.722	-0.197	0.073
-588.923	-101.288	-0.212	-0.051
-587.909	-200.000	-0.011	-0.110
-586.894	245.831	0.146	0.244
-585.879	57.181	-0.106	-0.103
-584.865	526.372	0.027	0.062
-583.850	-37.264	-0.148	0.079
-582.836	-99.445	-0.131	-0.033
-581.821	-122.694	0.190	-0.031
-580.806	30.552	-0.136	0.116
-579.792	-127.007	-0.147	0.021
-578.777	-18.653	0.253	0.157
-577.763	-37.747	0.225	-0.119
-576.748	84.254	-0.161	-0.175
-575.733	-88.439	-0.228	0.068
-574.719	-129.500	0.112	-0.015
-573.704	318.575	-0.082	-0.154
-572.690	-200.000	-0.002	-0.022
-571.675	78.592	0.122	-0.130
-570.661	800.000	0.093	0.378
-569.646	189.110	-0.156	-0.232
-568.631	-200.000	-0.017	-0.265
-567.617	800.000	0.039	-0.111
-566.602	800.000	-0.035	0.099
-565.588	800.000	-0.117	-0.494
-564.573	50.788	0.145	-0.137
-563.558	-200.000	0.008	0.199
-562.544	-153.491	0.253	0.017
-561.529	-200.000	-0.020	-0.118
-560.515	-200.000	-0.074	0.377
-559.500	8.781	0.226	0.169
-558.485	-200.000	-0.002	-0.083
-557.471	-18.300	0.055	-0.034
-556.456	-65.583	0.094	0.037
-555.442	712.241	-0.071	-0.186
-554.427	377.718	-0.102	0.207
-553.412	-70.460	-0.181	-0.068
-552.398	-6.714	0.151	0.102
-551.383	800.000	0.080	0.317
-550.369	148.774	0.204	-0.274
-549.354	191.308	0.037	-0.055
-548.339	-200.000	-0.019	0.113
-547.325	-200.000	0.015	-0.092
-546.310	98.794	0.112	0.128
-545.296	-153.780	-0.181	-0.012
-544.281	800.000	0.045	0.130
-543.266	6.629	0.189	-0.139
-542.252	800.000	0.030	0.106
-541.237	800.000	-0.180	-0.596
-540.223	139.296	-0.130	0.170
-539.208	-200.000	0.009	-0.413
-538.193	800.000	-0.049	-0.168
-537.179	-200.000	0.036	0.251
-536.164	-200.000	-0.024	-0.235
-535.150	564.007	-0.127	-0.305
-534.135	-113.989	-0.135	0.026
-533.121	362.216	0.053	-0.106
-532.106	800.000	0.042	-0.139
-531.091	-176.167	0.217	-0.006
-530.077	45.547	-0.329	0.302
-529.062	800.000	0.066	0.188
-528.048	-96.998	0.103	-0.027
-527.033	-49.467	0.143	0.068
-526.018	-184.644	0.155	-0.002
-525.004	12.467	-0.301	-0.231
-523.989	216.620	-0.056	-0.089
-522.975	-117.339	0.150	-0.027
-521.960	-27.191	-0.272	0.157
-520.945	127.994	-0.124	-0.156
-519.931	201.477	0.128	-0.196
-518.916	-13.051	-0.179	0.116
-517.902	-200.000	0.032	0.263
-516.887	800.000	-0.098	-0.374
-515.872	138.563	0.088	0.115
-514.858	-144.560	-0.118	0.011
-513.843	27.283	0.093	-0.078
-512.829	-200.000	0.007	0.331
-511.814	800.000	0.063	0.236
-510.799	-52.104	0.264	0.121
-509.785	385.255	-0.058	-0.119
-508.770	-200.000	0.040	-0.232
-507.756	-51.399	-0.422	-0.196
-506.741	-45.669	-0.045	0.022
-505.726	93.528	-0.034	-0.038
-504.712	-106.663	-0.176	-0.039
-503.697	-91.848	0.174	0.049
-502.683	800.000	-0.069	0.287
-501.668	-73.276	-0.147	-0.053
-500.653	-140.121	0.203	0.021
-499.639	-70.946	0.054	0.020
-498.624	417.494	-0.095	0.201
-497.610	-200.000	-0.025	-0.135
-496.595	-200.000	-0.055	-0.403
-495.581	-200.000	0.014	-0.064
-494.566	-46.119	0.275	-0.134
-493.551	262.673	0.023	0.040
-492.537	-52.197	-0.224	-0.103
-491.522	-63.605	-0.148	0.060
-490.508	800.000	0.049	-0.137
-489.493	-102.531	-0.234	-0.055
-488.478	-71.197	-0.396	-0.147
-487.464	-171.383	-0.062	-0.002
-486.449	109.417	-0.170	-0.202
-485.435	140.824	0.171	-0.223
-484.420	-126.702	-0.133	0.020
-483.405	-200.000	0.036	-0.240
-482.391	-200.000	-0.074	-0.337
-481.376	72.147	0.277	-0.285
-480.362	229.751	0.234	0.379
-479.347	800.000	0.066	0.241
-478.332	340.501	0.038	-0.073
-477.318	27.519	-0.057	-0.047
-476.303	-37.178	-0.241	-0.128
-475.289	44.646	0.078	0.071
-474.274	800.000	0.005	-0.014
-473.259	123.118	0.038	-0.048
-472.245	432.190	0.119	0.255
-471.230	-95.588	0.108	-0.029
-470.216	-200.000	0.067	0.310
-469.201	237.422	0.346	-0.567
-468.186	-124.391	-0.188	0.029
-467.172	-200.000	-0.008	0.402
-466.157	-200.000	0.010	-0.187
-465.143	-200.000	-0.021	-0.205
-464.128	-35.971	-0.137	0.073
-463.113	38.882	0.128	0.113
-462.099	91.038	0.143	-0.159
-461.084	-70.558	0.013	-0.005
-460.070	-200.000	-0.105	-0.657
-459.055	43.603	0.314	-0.284
-458.040	155.523	0.080	-0.109
-457.026	-200.000	-0.003	-0.046
-456.011	800.000	-0.125	0.361
-454.997	-2.194	0.056	-0.039
-453.982	38.728	-0.254	-0.225
-452.968	-200.000	-0.049	0.349
-451.953	276.129	0.114	0.200
-450.938	-200.000	0.008	0.085
-449.924	-200.000	0.108	-0.492
-448.909	-177.625	0.233	-0.006
-447.895	-81.340	0.048	-0.016
-446.880	5.537	0.053	0.039
-445.865	800.000	0.072	-0.238
-444.851	217.060	0.052	0.082
-443.836	10.555	-0.065	-0.049
-442.822	800.000	0.071	0.199
-441.807	-17.231	0.074	-0.046
-440.792	109.131	0.113	-0.134
-439.778	37.550	0.135	0.119
-438.763	-200.000	-0.009	-0.095
-437.749	-200.000	-0.019	-0.100
-436.734	178.474	-0.117	0.169
-435.719	4.628	0.192	0.139
-434.705	800.000	-0.027	0.098
-433.690	24.455	0.159	0.130
-432.676	96.562	-0.027	0.030
-431.661	-200.000	0.051	0.320
-430.646	106.587	-0.123	-0.144
-429.632	-200.000	-0.009	0.089
-428.617	-77.822	-0.136	0.046
-427.603	-41.250	-0.117	0.060
-426.588	225.053	-0.012	-0.019
-425.573	800.000	0.143	0.392
-424.559	-107.338	-0.183	0.040
-423.544	2.429	-0.049	-0.035
-422.530	15.016	0.223	0.172
-421.515	18.185	-0.091	-0.072
-420.500	-102.746	-0.355	-0.084
-419.486	-200.000	-0.015	0.074
-418.471	-80.717	0.289	-0.095
-417.457	9.933	0.126	0.094
-416.442	-200.000	0.037	-0.294
-415.428	60.864	-0.068	-0.067
-414.413	314.508	0.186	0.346
-413.398	-5.591	0.011	-0.007
-412.384	67.852	0.264	0.266
-411.369	100.403	-0.095	0.108
-410.355	-98.331	-0.074	0.019
-409.340	-52.319	-0.073	0.033
-408.325	300.516	-0.078	0.141
-407.311	384.514	-0.082	-0.168
-406.296	0.194	0.054	0.038
-405.282	800.000	0.012	-0.036
-404.267	-200.000	-0.030	0.343
-403.252	-72.173	-0.331	0.121
-402.238	568.691	0.042	0.100
-401.223	42.439	0.085	-0.076
-400.209	224.290	-0.049	0.078
-399.194	72.665	0.124	0.128
-398.179	-72.731	-0.068	-0.025
-397.165	-58.370	0.351	0.151
-396.150	-200.000	-0.002	0.191
-395.136	435.602	0.029	0.062
-394.121	-147.479	-0.120	0.010
-393.106	-32.048	0.135	0.074
-392.092	-111.468	-0.221	-0.044
-391.077	0.443	-0.246	0.174
-390.063	-200.000	-0.006	-0.032
-389.048	-62.896	-0.080	0.033
-388.033	-33.710	0.223	0.121
-387.019	-89.248	-0.003	0.001
-386.004	10.806	0.077	-0.058
-384.990	-143.198	0.055	-0.005
-383.975	-131.132	-0.447	0.059
-382.960	357.739	0.139	-0.273
-381.946	-94.024	-0.041	-0.011
-380.931	-182.437	0.393	-0.007
-379.917	408.346	0.065	-0.135
-378.902	-30.057	0.093	-0.052
-377.888	-136.103	-0.162	0.019
-376.873	46.742	-0.236	-0.216
-375.858	140.456	-0.307	-0.399
-374.844	-124.340	-0.215	-0.033
-373.829	621.003	-0.112	0.278
-372.815	800.000	0.080	0.248
-371.800	-13.314	0.113	-0.072
-370.785	2.115	0.473	0.337
-369.771	-200.000	-0.016	0.165
-368.756	29.170	-0.075	-0.063
-367.742	-76.735	-0.267	0.092
-366.727	800.000	-0.089	0.299
-365.712	208.585	-0.226	-0.348
-364.698	233.821	-0.089	0.144
-363.683	-112.641	-0.032	-0.006
-362.669	-68.144	0.414	-0.159
-361.654	136.362	-0.160	0.206
-360.639	52.433	-0.091	-0.086
-359.625	-86.513	0.245	0.074
-358.610	496.354	0.031	0.070
-357.596	-142.619	0.358	-0.035
-356.581	-87.884	-0.222	0.066
-355.566	800.000	0.038	-0.151
-354.552	332.461	-0.040	0.076
-353.537	154.966	0.166	-0.225
-352.523	384.376	0.150	0.305
-351.508	-200.000	0.056	0.297
-350.493	728.051	0.081	0.213
-349.479	-88.696	0.276	0.081
-348.464	-200.000	0.035	-0.281
-347.450	11.032	-0.121	0.091
-346.435	-81.771	-0.233	-0.075
-345.420	-96.934	0.296	0.076
-344.406	12.159	0.280	0.212
-343.391	-62.727	0.188	0.077
-342.377	32.024	0.286	-0.243
-341.362	-64.267	0.204	0.082
-340.348	-200.000	-0.027	0.187
-339.333	-11.988	0.282	-0.182
-338.318	-81.285	-0.242	0.079
-337.304	-200.000	0.034	0.201
-336.289	280.829	0.179	0.315
-335.275	-149.700	-0.292	-0.023
-334.260	389.218	0.100	-0.204
-333.245	-12.229	0.289	0.186
-332.231	337.984	-0.034	-0.066
-331.216	-38.677	0.432	0.224
-330.202	41.243	0.129	-0.115
-329.187	6.945	-0.150	-0.110
-328.172	-64.324	0.335	0.134
-327.158	-200.000	0.018	0.215
-326.143	800.000	-0.037	-0.141
-325.129	-118.532	-0.131	0.023
-324.114	47.349	-0.241	0.221
-323.099	206.376	0.026	-0.039
-322.085	-200.000	0.038	0.174
-321.070	-132.049	0.125	0.016
-320.056	208.047	-0.109	0.167
-319.041	149.672	-0.058	0.078
-318.026	-54.854	-0.145	-0.064
-317.012	-120.772	0.260	0.043
-315.997	-200.000	-0.018	0.086
-314.983	-126.886	0.206	0.030
-313.968	-81.836	-0.161	0.052
-312.953	414.154	-0.031	-0.064
-311.939	112.278	-0.214	-0.255
-310.924	51.831	0.082	0.077
-309.910	-186.690	-0.366	-0.005
-308.895	53.665	0.111	-0.105
-307.880	-200.000	-0.014	0.209
-306.866	85.868	-0.055	0.060
-305.851	-9.796	0.269	0.176
-304.837	55.063	-0.180	0.171
-303.822	197.362	0.151	-0.227
-302.807	-200.000	0.017	0.205
-301.793	-118.295	-0.086	0.015
-300.778	-200.000	0.020	0.184
-299.764	150.324	0.145	-0.193
-298.749	-98.488	-0.431	0.108
-297.735	800.000	0.090	0.269
-296.720	206.308	0.105	-0.160
-295.705	-74.212	0.075	-0.027
-294.691	-200.000	-0.022	0.293
-293.676	-5.931	-0.365	0.246
-292.662	-131.325	0.102	0.013
-291.647	132.376	0.187	-0.237
-290.632	152.182	-0.187	-0.251
-289.618	-200.000	0.008	-0.107
-288.603	24.890	-0.107	0.087
-287.589	-200.000	0.011	0.138
-286.574	-200.000	0.011	-0.143
-285.559	-191.977	-0.236	-0.002
-284.545	-77.219	0.139	-0.047
-283.530	-41.938	0.141	-0.071
-282.516	-113.121	0.100	-0.019
-281.501	-200.000	-0.011	0.202
-280.486	-67.824	-0.359	-0.138
-279.472	296.646	-0.217	-0.391
-278.457	640.242	0.043	0.107
-277.443	-69.829	-0.094	0.035
-276.428	-200.000	-0.062	0.000
-275.413	9.808	0.314	-0.234
-274.399	-11.691	0.223	-0.144
-273.384	-57.856	-0.258	0.111
-272.370	142.414	0.040	0.053
-271.355	27.011	0.102	0.084
-270.340	88.846	-0.147	-0.161
-269.326	800.000	0.045	0.137
-268.311	-41.712	-0.119	0.060
-267.297	87.612	-0.206	-0.224
-266.282	232.998	-0.075	-0.121
-265.267	94.707	0.351	-0.392
-264.253	-200.000	-0.039	-0.368
-263.238	269.640	0.120	-0.208
-262.224	189.875	-0.110	-0.162
-261.209	-84.133	-0.052	0.016
-260.195	70.030	-0.229	0.232
-259.180	800.000	-0.110	0.350
-258.165	50.546	0.083	-0.077
-257.151	-42.038	-0.143	-0.072
-256.136	-200.000	-0.037	0.245
-255.122	-159.544	0.130	0.007
-254.107	-194.633	-0.197	0.002
-253.092	6.037	0.132	-0.096
-252.078	800.000	-0.028	0.106
-251.063	360.308	-0.042	0.083
-250.049	-88.538	-0.380	-0.111
-249.034	6.789	0.136	-0.100
-248.019	-200.000	0.020	-0.319
-247.005	-89.300	0.020	0.006
-245.990	-24.308	-0.110	-0.065
-244.976	-11.856	0.237	0.153
-243.961	-200.000	-0.016	-0.092
-242.946	353.203	0.130	0.253
-241.932	-200.000	0.003	0.074
-240.917	-58.336	-0.182	0.078
-239.903	-147.756	0.050	-0.004
-238.888	800.000	0.020	0.056
-237.873	-50.551	-0.199	-0.092
-236.859	618.701	-0.041	-0.100
-235.844	-200.000	0.029	-0.145
-234.830	-115.499	-0.159	-0.029
-233.815	-200.000	0.015	0.302
-232.800	-19.074	-0.286	0.174
-231.786	-200.000	0.067	-0.300
-230.771	84.902	0.205	-0.221
-229.757	-64.173	-0.337	0.135
-228.742	800.000	0.110	-0.330
-227.727	69.447	0.191	-0.192
-226.713	-121.420	0.264	-0.043
-225.698	-200.000	-0.050	-0.333
-224.684	-107.780	-0.247	0.053
-223.669	-200.000	0.035	-0.196
-222.655	800.000	0.053	0.191
-221.640	-28.459	-0.346	-0.196
-220.625	-200.000	0.015	-0.282
-219.611	-43.219	-0.328	-0.163
-218.596	-200.000	-0.016	-0.255
-217.582	-79.626	0.192	-0.063
-216.567	150.197	0.111	-0.148
-215.552	394.236	-0.079	-0.162
-214.538	21.692	0.267	0.213
-213.523	-100.489	-0.361	0.088
-212.509	-38.842	0.295	0.152
-211.494	84.052	-0.021	-0.023
-210.479	-144.919	-0.024	-0.002
-209.465	160.325	0.085	0.116
-208.450	-75.458	0.155	0.054
-207.436	-110.033	-0.322	0.066
-206.421	61.292	0.123	0.120
-205.406	288.804	0.191	-0.339
-204.392	155.261	-0.110	-0.148
-203.377	-200.000	-0.005	-0.265
-202.363	-200.000	-0.006	0.080
-201.348	125.398	0.132	0.163
-200.333	-200.000	0.022	0.470
-199.319	-52.493	0.211	-0.096
-198.304	800.000	-0.074	0.200
-197.290	37.847	-0.274	0.239
-196.275	-200.000	0.029	0.192
-195.260	-30.684	0.292	-0.162
-194.246	661.775	0.039	0.098
-193.231	222.956	-0.038	0.059
-192.217	-200.000	-0.015	0.204
-191.202	-160.476	0.175	-0.009
-190.187	41.501	-0.126	0.112
-189.173	42.219	-0.015	0.014
-188.158	-93.003	0.350	-0.095
-187.144	582.515	-0.018	-0.043
-186.129	-31.534	-0.126	0.069
-185.114	538.424	-0.140	-0.325
-184.100	298.745	0.074	0.134
-183.085	-77.613	-0.203	-0.069
-182.071	645.001	0.126	0.314
-181.056	-163.809	-0.172	0.008
-180.042	112.933	-0.033	-0.040
-179.027	-188.054	0.204	0.003
-178.012	800.000	-0.068	0.283
-176.998	-200.000	0.010	0.112
-175.983	-129.389	-0.089	-0.012
-174.969	198.595	0.056	0.084
-173.954	311.600	0.198	-0.364
-172.939	-181.027	-0.331	-0.006
-171.925	160.692	0.122	0.167
-170.910	527.536	0.143	0.331
-169.896	5.695	-0.200	0.145
-168.881	224.044	0.099	0.157
-167.866	800.000	-0.088	-0.258
-166.852	100.503	-0.086	-0.098
-165.837	-200.000	0.000	0.234
-164.823	588.663	0.133	0.320
-163.808	800.000	0.089	-0.291
-162.793	-77.136	0.168	-0.057
-161.779	50.256	0.234	0.216
-160.764	51.710	0.029	-0.027
-159.750	254.582	-0.118	-0.197
-158.735	27.032	-0.072	0.059
-157.720	-106.462	-0.378	-0.083
-156.706	249.187	0.133	0.220
-155.691	775.546	0.124	0.330
-154.677	218.341	-0.267	-0.417
-153.662	-112.128	0.241	-0.047
-152.647	28.573	0.116	0.096
-151.633	74.094	-0.115	0.118
-150.618	-90.544	0.060	0.017
-149.604	216.045	-0.162	-0.252
-148.589	376.763	0.085	-0.170
-147.574	-200.000	-0.048	0.246
-146.560	-152.053	-0.093	-0.007
-145.545	7.924	-0.036	-0.026
-144.531	-148.240	-0.157	0.013
-143.516	800.000	-0.018	0.065
-142.502	800.000	0.075	-0.321
-141.487	51.877	0.134	0.125
-140.472	11.316	0.075	-0.056
-139.458	-200.000	-0.020	-0.254
-138.443	-3.693	0.208	0.141
-137.429	288.192	0.153	-0.271
-136.414	-144.515	-0.214	0.019
-135.399	-34.429	0.342	0.183
-134.385	-198.150	-0.214	0.001
-133.370	-57.299	-0.040	-0.017
-132.356	800.000	0.051	-0.166
-131.341	21.256	-0.112	-0.089
-130.326	-51.952	-0.287	-0.130
-129.312	764.161	0.071	0.188
-128.297	19.394	0.234	-0.184
-127.283	41.747	0.277	0.245
-126.268	33.822	-0.246	0.209
-125.253	193.098	0.241	-0.356
-124.239	-93.469	0.259	-0.070
-123.224	-200.000	0.004	0.274
-122.210	800.000	0.026	0.091
-121.195	-165.643	-0.439	-0.019
-120.180	-87.854	0.106	-0.031
-119.166	64.904	0.268	-0.265
-118.151	-44.112	0.083	-0.041
-117.137	-200.000	-0.056	0.242
-116.122	-11.547	-0.142	-0.091
-115.107	800.000	-0.103	0.434
-114.093	41.395	-0.105	0.093
-113.078	-200.000	0.043	-0.250
-112.064	239.563	-0.121	-0.197
-111.049	99.485	-0.091	-0.103
-110.034	-49.543	0.371	-0.172
-109.020	-200.000	0.019	-0.091
-108.005	164.435	-0.085	-0.117
-106.991	75.660	0.189	-0.195
-105.976	535.986	0.045	-0.104
-104.962	117.205	0.176	0.212
-103.947	-200.000	0.012	-0.100
-102.932	800.000	-0.023	-0.078
-101.918	38.981	-0.267	-0.233
-100.903	143.410	0.152	-0.198
-99.889	800.000	-0.043	-0.160
-98.874	-200.000	-0.021	-0.110
-97.859	-200.000	-0.037	-0.201
-96.845	-143.186	0.307	-0.029
-95.830	32.813	0.095	0.080
-94.816	-162.808	0.312	-0.015
-93.801	11.523	-0.180	-0.135
-92.786	259.225	-0.071	-0.120
-91.772	-100.682	-0.129	-0.031
-90.757	185.998	0.176	-0.255
-89.743	800.000	-0.037	-0.149
-88.728	800.000	0.027	0.099
-87.713	590.842	0.142	-0.343
-86.699	56.903	0.174	-0.166
-85.684	584.114	-0.114	-0.273
-84.670	-200.000	-0.022	-0.107
-83.655	-186.487	0.152	0.002
-82.640	275.886	-0.058	0.101
-81.626	294.514	0.075	-0.134
-80.611	800.000	-0.040	0.125
-79.597	177.390	-0.195	0.276
-78.582	-74.769	-0.390	-0.137
-77.567	-200.000	-0.022	0.119
-76.553	-200.000	0.029	-0.332
-75.538	173.445	0.287	-0.404
-74.524	-200.000	0.010	-0.153
-73.509	-200.000	0.013	-0.098
-72.494	-200.000	-0.046	-0.279
-71.480	-200.000	0.046	-0.375
-70.465	89.466	-0.104	-0.113
-69.451	-200.000	0.050	0.411
-68.436	110.885	0.111	0.130
-67.422	-81.524	0.464	-0.149
-66.407	23.306	-0.171	-0.137
-65.392	-64.545	0.455	-0.180
-64.378	-14.163	0.263	0.165
-63.363	275.926	-0.085	0.147
-62.349	-39.405	0.345	0.176
-61.334	60.362	-1.074	-1.036
-60.319	11.573	0.673	0.503
-59.305	800.000	-0.417	-1.568
-58.290	416.788	0.633	1.315
-57.276	488.484	0.686	1.525
-56.261	-200.000	124.156	660.182
-55.246	437.525	1550.702	3292.605
-54.232	146.635	2700.552	3534.404
-53.217	96.095	2163.800	2408.776
-52.203	33.800	1687.115	1429.746
-51.188	26.430	1506.209	1226.619
-50.173	24.662	1482.336	1195.320
-49.159	48.812	1553.173	1419.116
-48.144	45.740	1566.552	1410.189
-47.130	26.724	1515.224	1235.772
-46.115	23.864	1498.791	1202.999
-45.100	23.654	1495.520	1198.907
-44.086	23.579	1494.016	1197.144
-43.071	23.522	1492.232	1195.286
-42.057	23.582	1490.068	1193.908
-41.042	23.472	1489.005	1192.272
-40.027	23.521	1487.467	1191.322
-39.013	23.511	1486.089	1190.100
-37.998	23.488	1484.664	1188.757
-36.984	23.461	1483.513	1187.613
-35.969	23.513	1482.287	1186.928
-34.954	23.609	1480.267	1185.907
-33.940	23.367	1479.832	1183.892
-32.925	23.533	1477.627	1183.188
-31.911	23.513	1476.957	1182.473
-30.896	23.452	1475.942	1181.206
-29.881	23.708	1473.976	1181.293
-28.867	23.548	1473.127	1179.501
-27.852	23.598	1471.534	1178.506
-26.838	23.596	1470.053	1177.262
-25.823	23.566	1468.497	1175.772
-24.809	23.530	1467.002	1174.291
-23.794	23.567	1465.180	1173.032
-22.779	23.586	1464.730	1172.746
-21.765	23.561	1463.338	1171.421
-20.750	23.660	1461.869	1170.854
-19.736	23.509	1461.160	1169.243
-18.721	23.521	1459.661	1168.073
-17.706	23.453	1459.005	1167.056
-16.692	23.414	1458.717	1166.527
-15.677	23.547	1456.897	1165.896
-14.663	23.438	1456.311	1164.666
-13.648	23.454	1455.230	1163.858
-12.633	23.492	1454.547	1163.517
-11.619	23.485	1453.354	1162.466
-10.604	23.504	1452.414	1161.797
-9.590	23.551	1451.358	1161.213
-8.575	23.592	1450.490	1160.737
-7.560	23.313	1450.746	1159.070
-6.546	23.521	1448.981	1158.976
-5.531	23.599	1447.889	1158.565
-4.517	23.522	1447.314	1157.557
-3.502	23.529	1445.918	1156.439
-2.487	23.584	1445.330	1156.282
-1.473	23.439	1444.573	1154.687
-0.458	23.549	1442.715	1153.873
0.556	21.807	1432.850	1142.341
1.571	18.658	1408.728	1102.805
2.586	15.149	1348.467	1033.915
3.600	13.616	1266.313	961.944
4.615	12.709	1222.775	923.703
5.629	10.989	1166.546	871.943
6.644	5.462	1085.815	783.894
7.659	0.879	1050.459	736.044
8.673	0.229	1045.258	729.189
9.688	0.088	1042.363	726.425
10.702	0.168	1040.945	725.757
11.717	0.166	1038.405	723.914
12.731	2.003	1039.255	733.279
13.746	8.229	1047.526	769.136
14.761	14.349	1055.803	804.794
15.775	16.642	1058.225	817.662
16.790	16.431	1056.936	815.573
17.804	15.487	1054.616	809.168
18.819	14.636	1052.636	803.482
19.834	14.184	1051.666	800.494
20.848	13.980	1050.523	798.570
21.863	13.590	1049.915	796.165
22.877	13.481	1048.833	794.751
23.892	13.199	1048.023	792.717
24.907	13.240	1047.210	792.228
25.921	13.168	1046.515	791.287
26.936	13.202	1046.005	790.995
27.950	13.301	1045.049	790.674
28.965	13.213	1044.875	790.052
29.980	13.395	1043.593	789.883
30.994	13.389	1042.436	788.906
32.009	13.403	1041.623	788.287
33.023	13.546	1040.932	788.378
34.038	13.327	1040.935	787.266
35.053	13.429	1039.352	786.484
36.067	13.325	1038.919	785.593
37.082	13.244	1037.875	784.349
38.096	13.265	1037.696	784.245
39.111	13.472	1036.488	784.244
40.126	13.328	1035.824	782.990
41.140	13.336	1034.580	782.018
42.155	13.230	1033.600	780.705
43.169	13.347	1032.404	780.285
44.184	13.171	1031.597	778.780
45.199	13.112	1030.643	777.709
46.213	13.188	1029.439	777.092
47.228	13.146	1028.716	776.278
48.242	13.153	1027.754	775.518
49.257	13.345	1026.758	775.596
50.271	13.212	1025.685	774.095
51.286	13.276	1024.777	773.640
52.301	13.378	1024.035	773.490
53.315	13.261	1023.359	772.366
54.330	13.294	1022.084	771.485
55.344	13.304	1021.228	770.819
56.359	13.300	1020.311	770.041
57.374	13.277	1019.563	769.303
58.388	13.221	1018.609	768.250
59.403	13.155	1018.315	767.657
60.417	13.084	1017.457	766.613
61.432	13.214	1016.753	766.618
62.447	13.297	1016.005	766.368
63.461	13.117	1015.315	764.948
64.476	13.203	1013.994	764.284
65.490	13.137	1013.388	763.453
66.505	13.339	1012.417	763.586
67.520	13.165	1011.696	762.173
68.534	13.120	1011.243	761.557
69.549	13.150	1010.213	760.852
70.563	13.292	1009.178	760.659
71.578	13.210	1008.941	760.035
72.593	13.218	1007.819	759.161
73.607	13.201	1006.426	757.966
74.622	13.179	1006.040	757.506
75.636	13.046	1005.592	756.491
76.651	13.037	1004.412	755.495
77.666	13.110	1004.187	755.594
78.680	13.128	1003.177	754.848
79.695	13.129	1002.367	754.179
80.709	13.145	1001.785	753.746
81.724	13.208	1001.147	753.487
82.739	13.151	1000.566	752.722
83.753	13.177	1000.016	752.364
84.768	13.237	998.831	751.677
85.782	13.428	998.079	751.910
86.797	13.406	997.116	751.019
87.812	13.379	996.036	750.016
88.826	13.257	995.758	749.191
89.841	13.224	994.845	748.288
90.855	13.282	994.003	747.848
91.870	13.443	993.264	747.956
92.884	13.405	992.388	747.056
93.899	13.339	992.029	746.424
94.914	13.366	991.069	745.756
95.928	13.558	989.943	745.710
96.943	13.476	989.358	744.831
97.957	13.400	988.701	743.932
98.972	13.388	988.032	743.306
99.987	13.363	987.443	742.688
101.001	13.362	986.451	741.869
102.016	13.402	985.822	741.509
103.030	13.450	984.569	740.716
104.045	13.381	984.271	740.117
105.060	13.504	982.792	739.492
106.074	13.502	981.918	738.759
107.089	13.313	981.514	737.547
108.103	13.194	980.486	736.180
109.118	13.332	979.317	735.851
110.133	13.205	978.922	734.921
111.147	13.184	978.185	734.209
112.162	13.249	976.833	733.422
113.176	13.224	976.377	732.903
114.191	13.332	975.386	732.571
115.206	13.342	974.115	731.595
116.220	13.400	973.646	731.435
117.235	13.289	972.900	730.320
118.249	13.336	971.902	729.714
119.264	13.287	971.472	729.111
120.279	13.388	970.330	728.634
121.293	13.331	969.659	727.815
122.308	13.337	968.733	727.082
123.322	13.273	967.868	726.087
124.337	13.246	966.741	725.060
125.352	13.315	965.392	724.284
126.366	13.161	964.212	722.663
127.381	13.301	963.637	722.780
128.395	13.280	962.582	721.833
129.410	13.300	961.335	720.923
130.424	13.328	960.476	720.336
131.439	13.339	959.487	719.576
132.454	13.296	958.888	718.879
133.468	13.378	958.478	718.860
134.483	13.337	957.670	718.015
135.497	13.284	957.107	717.300
136.512	13.312	956.181	716.665
137.527	13.302	955.525	716.066
138.541	13.327	954.596	715.412
139.556	13.341	953.874	714.869
140.570	13.320	953.423	714.379
141.585	13.373	952.486	713.841
142.600	13.432	952.057	713.713
143.614	13.609	950.685	713.379
144.629	13.569	950.206	712.786
145.643	13.574	949.539	712.244
146.658	13.566	948.654	711.484
147.673	13.538	947.667	710.561
148.687	13.454	946.856	709.528
149.702	13.520	946.112	709.191
150.716	13.560	944.965	708.440
151.731	13.390	944.508	707.308
152.746	13.368	944.074	706.827
153.760	13.539	943.001	706.691
154.775	13.488	942.024	705.680
155.789	13.580	941.565	705.662
156.804	13.560	940.699	704.866
157.819	13.399	939.899	703.521
158.833	13.500	939.235	703.389
159.848	13.567	938.604	703.142
160.862	13.646	937.762	702.783
161.877	13.630	937.184	702.221
162.892	13.553	936.405	701.245
163.906	13.586	935.786	700.862
164.921	13.557	935.190	700.229
165.935	13.566	933.844	699.199
166.950	13.561	932.639	698.214
167.964	13.587	931.926	697.729
168.979	13.732	930.865	697.483
169.994	13.660	930.162	696.589
171.008	13.590	929.133	695.463
172.023	13.602	928.645	695.087
173.037	13.662	927.726	694.592
174.052	13.676	927.307	694.272
175.067	13.844	925.866	693.835
176.081	13.690	925.299	692.706
177.096	13.623	924.756	691.959
178.110	13.548	923.816	690.880
179.125	13.610	923.017	690.479
180.140	13.646	922.341	690.064
181.154	13.770	921.723	690.054
182.169	13.747	920.899	689.283
183.183	13.738	920.321	688.751
184.198	13.712	919.877	688.249
185.213	13.869	918.800	688.034
186.227	13.833	918.400	687.526
187.242	13.916	917.767	687.336
188.256	13.884	917.214	686.726
189.271	13.959	916.237	686.245
190.286	13.887	915.903	685.635
191.300	13.975	914.496	684.884
192.315	13.711	914.507	683.744
193.329	13.813	913.396	683.271
194.344	13.782	912.905	682.717
195.359	13.813	912.421	682.421
196.373	13.719	912.271	681.862
197.388	13.960	910.858	681.735
198.402	13.983	910.302	681.353
199.417	13.963	910.904	681.662
200.432	14.132	909.825	681.488
201.446	14.084	909.570	681.040
202.461	14.151	908.823	680.695
203.475	14.143	908.255	680.176
204.490	14.028	907.588	679.147
205.504	14.141	906.770	678.935
206.519	13.996	906.002	677.707
207.534	14.040	905.552	677.490
208.548	14.071	904.407	676.700
209.563	14.131	903.873	676.485
210.577	14.242	902.928	676.168
211.592	14.180	902.292	675.380
212.607	14.183	902.113	675.201
213.621	14.245	901.594	675.002
214.636	14.247	900.731	674.304
215.650	14.242	900.002	673.679
216.665	14.298	899.498	673.471
217.680	14.365	899.002	673.311
218.694	14.352	898.481	672.808
219.709	14.378	897.954	672.458
220.723	14.406	897.257	671.990
221.738	14.393	896.142	671.044
222.753	14.335	895.938	670.597
223.767	14.316	894.921	669.699
224.782	14.344	894.167	669.187
225.796	14.446	893.480	669.024
226.811	14.584	892.650	668.899
227.826	14.536	891.922	668.099
228.840	14.372	891.327	666.939
229.855	14.286	891.105	666.370
230.869	14.441	890.063	666.153
231.884	14.396	889.813	665.725
232.899	14.464	888.987	665.320
233.913	14.505	888.161	664.807
234.928	14.445	887.405	663.943
235.942	14.522	886.980	663.873
236.957	14.429	886.288	662.924
237.972	14.465	885.778	662.628
238.986	14.410	885.369	662.046
240.001	14.543	884.210	661.647
241.015	14.422	884.015	660.963
242.030	14.567	883.111	660.802
243.045	14.687	882.139	660.491
244.059	14.733	881.650	660.249
245.074	14.641	880.774	659.171
246.088	14.731	880.249	659.077
247.103	14.620	879.884	658.306
248.117	14.691	879.483	658.230
249.132	14.741	878.793	657.849
250.147	14.926	877.946	657.887
251.161	14.915	877.339	657.330
252.176	14.932	876.649	656.821
253.190	14.820	876.133	655.938
254.205	14.908	875.396	655.671
255.220	14.920	874.783	655.202
256.234	15.041	874.059	655.076
257.249	14.845	874.194	654.351
258.263	14.989	873.101	654.040
259.278	14.966	872.441	653.395
260.293	15.164	871.790	653.626
261.307	15.089	871.297	652.905
262.322	15.025	870.858	652.266
263.336	15.018	870.371	651.818
264.351	15.139	869.334	651.456
265.366	15.138	868.869	651.046
266.380	15.140	868.190	650.484
267.395	15.157	868.094	650.421
268.409	15.172	867.006	649.607
269.424	15.206	866.442	649.261
270.439	15.188	865.615	648.514
271.453	15.144	865.116	647.913
272.468	15.183	863.734	646.968
273.482	15.223	863.251	646.705
274.497	15.177	863.369	646.560
275.512	15.138	862.342	645.583
276.526	15.225	861.306	645.085
277.541	15.087	861.313	644.499
278.555	15.385	860.027	644.628
279.570	15.292	859.798	644.041
280.585	15.398	859.037	643.820
281.599	15.368	858.730	643.418
282.614	15.398	858.098	643.004
283.628	15.331	856.991	641.862
284.643	15.300	857.159	641.810
285.657	15.359	856.399	641.409
286.672	15.415	855.902	641.196
287.687	15.230	855.839	640.385
288.701	15.506	854.933	640.703
289.716	15.452	854.255	639.933
290.730	15.506	853.439	639.471
291.745	15.379	852.775	638.434
292.760	15.358	852.079	637.777
293.774	15.526	851.817	638.162
294.789	15.609	851.023	637.825
295.803	15.624	850.546	637.468
296.818	15.483	849.953	636.434
297.833	15.657	848.820	636.186
298.847	15.500	848.007	634.929
299.862	15.555	847.801	634.926
300.876	15.580	846.897	634.286
301.891	15.560	846.600	633.931
302.906	15.632	845.583	633.385
303.920	15.633	845.475	633.251
304.935	15.799	844.257	632.909
305.949	15.941	843.679	632.955
306.964	15.751	843.311	631.909
307.979	15.529	843.160	630.905
308.993	15.797	842.233	631.160
310.008	15.946	841.608	631.195
311.022	15.815	841.022	630.208
312.037	15.745	840.721	629.666
313.052	15.919	839.855	629.611
314.066	15.824	839.680	629.069
315.081	15.851	838.907	628.537
316.095	15.851	838.538	628.203
317.110	15.842	838.015	627.724
318.125	15.888	837.168	627.204
319.139	15.852	837.079	626.947
320.154	15.870	836.488	626.518
321.168	15.939	835.520	625.993
322.183	16.004	834.891	625.709
323.197	16.018	834.716	625.574
324.212	16.008	834.243	625.126
325.227	16.082	833.523	624.805
326.241	15.979	833.204	624.128
327.256	15.953	832.612	623.535
328.270	15.937	831.858	622.855
329.285	15.988	831.123	622.438
330.300	15.874	831.159	621.991
331.314	15.923	830.431	621.570
332.329	16.025	829.912	621.504
333.343	16.025	829.070	620.819
334.358	16.053	828.190	620.205
335.373	16.196	827.836	620.411
336.387	16.162	827.361	619.878
337.402	16.205	826.994	619.705
338.416	16.201	826.276	619.100
339.431	16.201	825.576	618.517
340.446	16.309	825.084	618.492
341.460	16.346	824.518	618.146
342.475	16.266	824.123	617.506
343.489	16.367	823.618	617.440
344.504	16.333	822.961	616.770
345.519	16.546	822.332	617.018
346.533	16.435	822.089	616.377
347.548	16.462	821.611	616.063
348.562	16.476	821.008	615.606
349.577	16.523	820.207	615.125
350.592	16.359	820.188	614.459
351.606	16.313	819.479	613.707
352.621	16.339	819.226	613.555
353.635	16.568	818.527	613.809
354.650	16.340	818.382	612.820
355.665	16.426	817.734	612.594
356.679	16.503	817.322	612.509
357.694	16.435	817.163	612.088
358.708	16.552	816.295	611.807
359.723	16.434	815.803	610.958
360.738	16.677	814.969	611.155
361.752	16.660	814.386	610.604
362.767	16.590	814.192	610.151
363.781	16.565	813.871	609.769
364.796	16.539	813.603	609.419
365.810	16.640	813.049	609.312
366.825	16.700	812.304	608.917
367.840	16.773	812.187	609.038
368.854	16.741	811.616	608.441
369.869	16.753	811.513	608.353
370.883	16.524	811.195	607.237
371.898	16.744	810.145	607.188
372.913	16.751	809.803	606.902
373.927	16.748	809.234	606.412
374.942	16.783	808.763	606.132
375.956	16.855	807.670	605.514
376.971	16.854	807.123	605.049
377.986	16.854	806.949	604.863
379.000	16.988	806.576	605.008
380.015	17.126	805.805	604.867
381.029	17.106	804.835	604.015
382.044	17.058	804.632	603.640
383.059	17.009	803.937	602.888
384.073	16.981	803.700	602.560
385.088	16.999	803.268	602.244
386.102	16.989	802.657	601.701
387.117	17.016	801.956	601.218
388.132	16.859	801.565	600.315
389.146	16.921	801.638	600.536
390.161	16.907	801.329	600.201
391.175	17.031	800.334	599.842
392.190	17.140	799.967	599.897
393.205	17.037	799.543	599.164
394.219	17.143	799.097	599.150
395.234	17.118	798.778	598.769
396.248	16.958	798.275	597.776
397.263	17.182	797.489	597.921
398.278	17.086	797.387	597.455
399.292	17.019	796.736	596.678
400.307	17.063	796.629	596.701
401.321	17.030	795.801	595.913
402.336	16.948	795.844	595.605
403.350	17.148	795.217	595.782
404.365	17.224	794.882	595.746
405.380	17.162	794.692	595.335
406.394	17.390	794.007	595.565
407.409	17.249	793.593	594.709
408.423	17.461	792.686	594.719
409.438	17.341	792.355	593.998
410.453	17.404	792.084	593.961
411.467	17.441	791.729	593.772
412.482	17.443	791.174	593.310
413.496	17.615	790.604	593.429
414.511	17.458	790.544	592.786
415.526	17.489	789.901	592.359
416.540	17.559	789.435	592.199
417.555	17.527	789.200	591.862
418.569	17.584	788.868	591.756
419.584	17.572	787.724	590.805
420.599	17.610	787.523	590.734
421.613	113.924	1296.812	1487.276
422.628	97.882	1370.942	1487.383
