DTS Sentinel unit serial number:	SN413079Multiplexer serial number:	ORYXHardware model number:	OX4-SRSoftware version number:	ORYX F/W v4.00 Oryx Data Collector v3.7.2.0data status	okinstallation	princeton_trtdifferential loss correction	single-endedforward channel	channel 3reverse channel	N/Adate	2019/09/18time	09:36:34forward acquisition time	60.00reverse acquisition time	0.00gamma	496.2192k internal	0.2337k external	0.2337temperature offset calibration	0.9949default loss term (dB/km)	0.3790temperature slope calibration	1.0000multiplexer offset coefficient	1.0000multiplexer slope coefficient	1.0000fibre end	0.00T internal ref (°C)	26.59T ext. ref 1 (°C)	0.26T ext. ref 2 (°C)	23.39length (m)	temperature (°C)	Stokes	anti-Stokes-747.200	-200.000	0.000	0.057
-746.185	133.209	-0.136	0.177
-745.171	289.191	-0.207	0.376
-744.156	192.097	0.134	0.203
-743.142	-63.861	0.171	-0.070
-742.127	-139.189	-0.314	-0.034
-741.112	-200.000	-0.054	-0.290
-740.098	-200.000	-0.084	0.416
-739.083	-126.941	0.137	-0.020
-738.069	-197.682	0.268	-0.002
-737.054	-21.334	-0.239	-0.147
-736.039	349.916	-0.228	-0.452
-735.025	172.094	0.179	0.259
-734.010	-135.497	-0.141	0.017
-732.996	-10.833	-0.255	-0.169
-731.981	-200.000	0.015	-0.101
-730.966	-18.977	0.139	-0.087
-729.952	-166.773	-0.362	-0.015
-728.937	133.804	0.043	0.056
-727.923	336.543	-0.158	-0.308
-726.908	-200.000	0.010	0.070
-725.894	54.527	-0.262	0.254
-724.879	116.891	-0.068	-0.083
-723.864	-95.190	-0.373	0.101
-722.850	-36.114	-0.338	0.183
-721.835	-136.669	0.027	-0.003
-720.821	-23.054	-0.130	-0.079
-719.806	-5.447	0.176	-0.121
-718.791	-77.268	0.295	-0.103
-717.777	-200.000	-0.048	-0.358
-716.762	-135.545	-0.412	0.049
-715.748	-200.000	0.029	0.131
-714.733	-200.000	0.021	-0.262
-713.718	-41.271	0.202	0.104
-712.704	10.229	-0.173	0.132
-711.689	259.034	-0.262	0.454
-710.675	-79.177	-0.039	0.013
-709.660	81.663	-0.274	-0.297
-708.645	-183.825	-0.267	-0.005
-707.631	-63.580	0.281	-0.116
-706.616	-200.000	-0.017	0.166
-705.602	-3.118	0.115	-0.080
-704.587	-54.489	-0.043	-0.020
-703.572	227.016	0.157	-0.256
-702.558	-200.000	0.013	-0.182
-701.543	102.062	0.071	0.083
-700.529	117.707	0.099	-0.123
-699.514	-200.000	-0.001	-0.104
-698.499	-116.124	0.175	-0.033
-697.485	-200.000	-0.025	0.356
-696.470	304.993	0.062	-0.116
-695.456	15.570	-0.212	-0.167
-694.441	58.094	-0.329	0.323
-693.426	-69.074	-0.241	-0.093
-692.412	44.980	-0.353	0.325
-691.397	624.310	-0.081	0.204
-690.383	-49.305	-0.292	0.140
-689.368	-26.870	0.333	-0.195
-688.354	365.500	0.095	-0.192
-687.339	425.101	-0.070	-0.150
-686.324	44.266	0.288	-0.265
-685.310	-91.018	-0.258	-0.074
-684.295	800.000	-0.060	-0.173
-683.281	-16.480	-0.302	0.192
-682.266	800.000	-0.021	0.066
-681.251	800.000	0.078	-0.256
-680.237	16.714	0.208	-0.165
-679.222	501.353	-0.093	0.215
-678.208	25.622	0.326	-0.272
-677.193	66.116	0.307	-0.311
-676.178	-61.941	-0.149	-0.062
-675.164	-139.379	-0.224	-0.024
-674.149	-130.725	-0.273	-0.037
-673.135	-200.000	-0.014	-0.137
-672.120	-130.934	0.269	-0.036
-671.105	484.126	-0.176	-0.401
-670.091	-60.368	-0.246	-0.105
-669.076	-152.778	0.035	0.003
-668.062	800.000	-0.055	0.212
-667.047	800.000	-0.020	0.059
-666.032	-60.850	-0.068	-0.029
-665.018	48.769	-0.140	-0.131
-664.003	15.650	-0.314	-0.247
-662.989	800.000	0.088	-0.263
-661.974	143.977	0.200	-0.267
-660.959	-148.504	0.393	-0.032
-659.945	-137.560	-0.090	-0.010
-658.930	-53.547	0.258	-0.118
-657.916	14.537	-0.414	-0.323
-656.901	-54.612	-0.258	0.117
-655.886	35.456	0.174	-0.153
-654.872	-26.277	-0.362	-0.213
-653.857	800.000	0.019	-0.070
-652.843	-89.573	-0.109	-0.032
-651.828	-103.422	-0.068	-0.016
-650.814	621.948	-0.071	-0.178
-649.799	-200.000	0.007	-0.129
-648.784	-200.000	-0.011	0.055
-647.770	-118.939	0.122	-0.021
-646.755	-106.140	-0.245	-0.055
-645.741	54.424	-0.238	-0.230
-644.726	-200.000	-0.043	0.255
-643.711	-22.581	-0.247	-0.149
-642.697	14.439	-0.256	0.199
-641.682	8.599	0.124	-0.093
-640.668	800.000	-0.040	0.163
-639.653	-5.530	0.227	0.156
-638.638	-96.545	0.285	0.075
-637.624	800.000	0.040	-0.141
-636.609	24.871	-0.017	-0.014
-635.595	800.000	0.132	0.444
-634.580	35.809	0.040	0.036
-633.565	67.803	0.194	0.198
-632.551	-47.815	-0.181	-0.088
-631.536	-79.114	0.116	0.039
-630.522	-21.424	0.182	-0.111
-629.507	35.197	0.239	-0.210
-628.492	-94.848	-0.347	-0.094
-627.478	0.380	0.366	0.261
-626.463	-113.699	0.153	-0.030
-625.449	-44.205	-0.064	0.032
-624.434	-94.154	0.098	-0.027
-623.419	294.782	-0.101	0.185
-622.405	378.336	-0.027	0.055
-621.390	27.456	-0.184	-0.154
-620.376	-1.650	-0.302	-0.213
-619.361	-104.740	-0.215	-0.049
-618.346	-19.605	-0.183	-0.113
-617.332	51.291	-0.189	-0.180
-616.317	800.000	-0.027	0.109
-615.303	98.203	-0.020	0.023
-614.288	-5.332	0.153	-0.105
-613.273	237.667	-0.112	-0.186
-612.259	800.000	-0.041	0.146
-611.244	-200.000	0.004	-0.154
-610.230	-164.112	0.157	0.007
-609.215	74.156	0.155	-0.163
-608.201	-200.000	-0.058	0.266
-607.186	-119.414	0.067	-0.012
-606.171	-1.052	-0.099	-0.070
-605.157	120.529	-0.115	0.143
-604.142	800.000	-0.011	0.036
-603.128	-123.243	-0.298	0.048
-602.113	800.000	0.036	-0.111
-601.098	29.222	0.084	-0.071
-600.084	-200.000	-0.012	0.190
-599.069	-200.000	0.001	-0.044
-598.055	-56.325	-0.464	-0.206
-597.040	-200.000	0.014	0.221
-596.025	19.768	-0.206	-0.166
-595.011	292.899	-0.056	0.102
-593.996	58.875	0.234	0.229
-592.982	800.000	-0.030	0.101
-591.967	2.953	-0.251	-0.182
-590.952	215.268	0.088	-0.139
-589.938	-70.357	0.308	0.117
-588.923	-200.000	0.034	0.181
-587.909	280.959	0.065	0.116
-586.894	-200.000	0.034	-0.168
-585.879	41.578	0.213	0.193
-584.865	-73.533	-0.122	0.044
-583.850	800.000	0.058	0.235
-582.836	56.896	0.234	-0.227
-581.821	-200.000	0.011	-0.152
-580.806	-118.671	0.176	0.031
-579.792	70.125	-0.166	-0.171
-578.777	-70.100	-0.085	-0.032
-577.763	360.370	-0.158	-0.315
-576.748	-200.000	0.025	0.325
-575.733	168.799	-0.187	0.266
-574.719	191.565	-0.089	0.134
-573.704	156.274	0.135	-0.185
-572.690	102.355	-0.011	-0.012
-571.675	126.007	0.149	0.187
-570.661	-200.000	-0.013	-0.330
-569.646	13.042	-0.178	-0.137
-568.631	116.608	-0.227	0.277
-567.617	483.800	0.165	0.373
-566.602	-103.499	0.121	-0.028
-565.588	156.945	0.140	0.193
-564.573	-113.549	0.265	-0.052
-563.558	-187.677	-0.272	-0.004
-562.544	-153.992	-0.215	-0.015
-561.529	-58.524	-0.323	-0.140
-560.515	-75.265	0.064	0.023
-559.500	-101.323	0.523	0.127
-558.485	473.894	-0.044	-0.098
-557.471	-200.000	0.016	-0.248
-556.456	69.812	-0.318	0.327
-555.442	191.986	0.107	-0.160
-554.427	-200.000	-0.035	-0.178
-553.412	10.950	0.072	0.055
-552.398	132.687	-0.118	0.152
-551.383	-200.000	-0.001	0.071
-550.369	-200.000	0.003	-0.431
-549.354	88.854	0.040	0.044
-548.339	30.271	-0.045	-0.038
-547.325	-115.386	-0.082	-0.015
-546.310	-80.367	-0.158	-0.052
-545.296	24.681	-0.183	-0.151
-544.281	62.172	0.130	0.129
-543.266	148.749	-0.158	-0.213
-542.252	-12.395	-0.011	0.007
-541.237	-200.000	-0.013	0.059
-540.223	144.428	-0.068	0.090
-539.208	-6.997	-0.262	-0.177
-538.193	-140.654	-0.168	-0.017
-537.179	-200.000	0.039	0.197
-536.164	-91.585	0.247	-0.070
-535.150	-73.781	-0.175	0.063
-534.135	28.800	0.094	0.080
-533.121	-200.000	0.027	0.200
-532.106	-200.000	-0.033	0.203
-531.091	-200.000	-0.099	-0.439
-530.077	98.655	-0.150	-0.172
-529.062	-145.847	0.292	-0.026
-528.048	-153.537	0.266	-0.018
-527.033	76.757	0.080	-0.084
-526.018	36.446	0.286	-0.251
-525.004	-168.866	0.039	0.001
-523.989	-96.150	-0.352	0.093
-522.975	-138.002	-0.238	-0.026
-521.960	-3.875	0.154	0.106
-520.945	800.000	0.062	-0.255
-519.931	216.452	0.168	-0.267
-518.916	-61.677	0.254	-0.106
-517.902	-84.334	-0.302	-0.095
-516.887	170.368	0.093	-0.133
-515.872	64.550	-0.082	0.083
-514.858	34.269	-0.121	-0.105
-513.843	213.260	0.073	-0.114
-512.829	1.998	-0.067	0.048
-511.814	257.847	-0.229	-0.391
-510.799	146.929	-0.102	-0.136
-509.785	2.784	-0.163	-0.118
-508.770	-200.000	0.001	-0.024
-507.756	-200.000	-0.017	-0.313
-506.741	-41.807	0.111	-0.057
-505.726	800.000	0.109	0.325
-504.712	-200.000	0.025	-0.134
-503.697	-91.215	0.053	-0.015
-502.683	-128.474	-0.456	0.064
-501.668	-44.841	-0.172	0.085
-500.653	-184.898	0.123	-0.002
-499.639	-26.550	-0.113	0.066
-498.624	86.141	0.127	0.139
-497.610	-75.138	0.186	0.066
-496.595	-114.285	0.236	0.045
-495.581	496.094	0.078	0.179
-494.566	-200.000	-0.019	0.188
-493.551	71.680	-0.323	0.334
-492.537	422.465	0.072	-0.154
-491.522	285.099	-0.169	0.303
-490.508	-141.673	0.061	-0.006
-489.493	-137.521	0.124	-0.014
-488.478	-200.000	0.074	0.443
-487.464	77.851	0.031	-0.033
-486.449	800.000	-0.081	0.233
-485.435	95.447	0.155	-0.175
-484.420	-33.302	0.126	0.069
-483.405	101.065	0.191	0.221
-482.391	-200.000	-0.034	-0.282
-481.376	-75.918	-0.404	-0.142
-480.362	-200.000	-0.006	0.058
-479.347	-200.000	-0.007	0.068
-478.332	-75.242	0.093	-0.033
-477.318	149.786	-0.212	0.285
-476.303	800.000	0.095	0.299
-475.289	-176.273	-0.295	-0.008
-474.274	609.478	0.039	0.096
-473.259	156.870	0.115	0.158
-472.245	265.831	-0.063	0.110
-471.230	-168.970	-0.293	0.011
-470.216	-200.000	-0.005	-0.102
-469.201	-150.157	0.094	-0.007
-468.186	-34.379	-0.152	-0.083
-467.172	-200.000	-0.009	-0.093
-466.157	-90.475	0.096	-0.028
-465.143	1.607	-0.175	-0.125
-464.128	-81.794	-0.174	0.056
-463.113	-21.661	-0.090	-0.055
-462.099	390.699	0.109	-0.225
-461.084	288.242	0.070	0.126
-460.070	-50.184	0.143	0.067
-459.055	-20.889	-0.270	-0.164
-458.040	800.000	0.078	0.264
-457.026	91.907	-0.081	-0.090
-456.011	638.221	-0.071	0.180
-454.997	-200.000	0.007	-0.063
-453.982	-106.394	-0.146	0.032
-452.968	-153.958	0.284	0.019
-451.953	-200.000	0.003	-0.078
-450.938	-57.184	-0.163	0.071
-449.924	-119.417	-0.198	0.034
-448.909	-90.409	0.009	-0.003
-447.895	-200.000	0.012	0.118
-446.880	-131.982	0.278	-0.036
-445.865	-200.000	-0.010	-0.223
-444.851	-103.105	-0.231	0.054
-443.836	19.823	0.106	0.084
-442.822	135.748	-0.086	-0.111
-441.807	-200.000	-0.032	-0.192
-440.792	-119.138	0.169	-0.029
-439.778	-71.989	-0.392	0.144
-438.763	172.809	0.148	-0.211
-437.749	-133.554	-0.395	-0.049
-436.734	6.052	0.161	-0.118
-435.719	157.682	0.148	0.203
-434.705	2.687	-0.207	0.149
-433.690	800.000	-0.060	-0.216
-432.676	50.437	-0.124	0.117
-431.661	800.000	-0.031	-0.131
-430.646	214.678	0.011	-0.018
-429.632	113.393	0.128	-0.155
-428.617	147.629	-0.171	-0.228
-427.603	-200.000	-0.079	-0.403
-426.588	-182.759	0.294	-0.005
-425.573	-98.596	-0.101	-0.026
-424.559	-200.000	-0.025	-0.124
-423.544	477.810	-0.139	-0.311
-422.530	-89.070	0.085	-0.025
-421.515	119.498	-0.138	0.170
-420.500	-95.354	0.260	0.069
-419.486	800.000	-0.062	-0.201
-418.471	-21.155	0.239	0.145
-417.457	800.000	0.115	-0.415
-416.442	-146.044	-0.374	-0.033
-415.428	47.607	-0.278	-0.257
-414.413	144.306	-0.207	0.273
-413.398	-69.940	0.099	0.037
-412.384	800.000	0.069	-0.229
-411.369	-50.194	0.102	-0.048
-410.355	-200.000	0.009	0.041
-409.340	52.601	0.047	0.045
-408.325	-200.000	-0.031	0.228
-407.311	47.448	0.182	0.168
-406.296	-86.106	-0.353	-0.108
-405.282	-58.786	0.254	-0.109
-404.267	-49.723	0.176	0.083
-403.252	415.119	-0.109	-0.230
-402.238	517.662	-0.084	0.195
-401.223	-30.973	0.094	-0.053
-400.209	124.358	-0.099	0.123
-399.194	558.068	0.045	0.108
-398.179	800.000	-0.061	-0.175
-397.165	-200.000	0.026	0.241
-396.150	305.365	0.067	0.124
-395.136	800.000	0.094	-0.287
-394.121	-44.958	-0.242	-0.119
-393.106	321.290	-0.126	-0.237
-392.092	638.911	-0.003	-0.009
-391.077	800.000	-0.028	0.087
-390.063	800.000	-0.148	0.409
-389.048	800.000	-0.067	0.244
-388.033	447.439	0.102	-0.222
-387.019	-41.517	0.148	-0.075
-386.004	-200.000	-0.038	0.201
-384.990	800.000	0.085	0.350
-383.975	-65.494	-0.186	-0.074
-382.960	-135.442	-0.255	-0.030
-381.946	800.000	0.206	-0.667
-380.931	-193.744	0.246	0.002
-379.917	172.962	0.238	0.340
-378.902	-58.955	-0.242	0.104
-377.888	338.300	0.119	0.230
-376.873	387.532	-0.016	0.033
-375.858	192.059	-0.132	-0.197
-374.844	-75.358	0.281	-0.099
-373.829	161.045	-0.200	-0.277
-372.815	-193.648	0.174	0.001
-371.800	70.939	0.458	0.469
-370.785	-85.718	0.225	-0.069
-369.771	-38.906	0.203	0.106
-368.756	800.000	0.066	-0.199
-367.742	-9.228	0.322	0.213
-366.727	479.325	0.080	0.179
-365.712	-30.778	0.200	-0.112
-364.698	-95.235	-0.459	0.122
-363.683	-104.021	0.139	0.032
-362.669	326.988	0.104	0.196
-361.654	159.481	-0.185	0.255
-360.639	55.965	0.436	-0.418
-359.625	202.358	-0.134	-0.204
-358.610	-49.499	0.177	-0.083
-357.596	-90.981	0.331	-0.094
-356.581	-88.037	-0.064	0.019
-355.566	800.000	-0.024	-0.091
-354.552	-168.605	0.292	-0.011
-353.537	190.677	-0.065	-0.097
-352.523	24.874	-0.142	0.116
-351.508	-108.147	0.223	-0.048
-350.493	301.042	0.157	0.286
-349.479	79.584	-0.168	-0.178
-348.464	-126.760	0.291	0.043
-347.450	-200.000	0.033	0.187
-346.435	800.000	-0.026	-0.084
-345.420	-9.046	-0.103	-0.068
-344.406	-200.000	0.003	0.143
-343.391	789.739	-0.061	0.167
-342.377	800.000	-0.073	-0.216
-341.362	-24.934	-0.365	-0.214
-340.348	-200.000	-0.012	0.210
-339.333	117.939	-0.062	-0.075
-338.318	-147.953	0.324	0.027
-337.304	800.000	0.042	-0.183
-336.289	191.058	0.085	-0.127
-335.275	-172.165	0.091	-0.003
-334.260	-54.721	0.254	0.114
-333.245	-75.043	0.327	-0.116
-332.231	81.651	0.138	-0.148
-331.216	15.509	-0.128	-0.100
-330.202	-146.151	-0.362	-0.031
-329.187	-127.670	0.266	0.038
-328.172	-114.249	0.421	-0.080
-327.158	161.555	0.137	-0.190
-326.143	43.365	-0.232	-0.209
-325.129	-96.714	0.217	0.056
-324.114	60.502	0.034	0.033
-323.099	-200.000	-0.013	0.069
-322.085	-200.000	0.019	0.118
-321.070	-143.860	-0.249	-0.023
-320.056	-112.536	-0.282	0.056
-319.041	-173.403	-0.240	0.007
-318.026	-106.893	-0.279	-0.061
-317.012	-56.731	0.267	-0.117
-315.997	640.517	-0.097	-0.244
-314.983	-90.833	-0.170	-0.048
-313.968	-84.781	-0.197	-0.061
-312.953	411.960	-0.040	0.083
-311.939	-140.851	0.035	-0.004
-310.924	800.000	-0.069	0.220
-309.910	136.504	-0.208	-0.268
-308.895	41.806	0.288	0.258
-307.880	800.000	-0.110	0.442
-306.866	800.000	-0.031	-0.108
-305.851	330.078	0.025	-0.047
-304.837	-40.836	-0.125	0.064
-303.822	-200.000	0.003	-0.042
-302.807	-190.597	0.400	-0.004
-301.793	-200.000	-0.055	-0.252
-300.778	-200.000	0.093	-0.429
-299.764	224.822	-0.042	0.067
-298.749	-148.163	-0.159	0.013
-297.735	60.335	-0.079	-0.078
-296.720	-200.000	-0.005	0.150
-295.705	-200.000	0.002	0.249
-294.691	-119.466	-0.285	0.049
-293.676	-200.000	0.021	-0.491
-292.662	0.580	0.122	0.086
-291.647	-90.198	-0.242	-0.069
-290.632	59.179	-0.158	-0.153
-289.618	416.760	-0.124	-0.260
-288.603	293.432	0.166	-0.299
-287.589	-63.067	-0.162	0.066
-286.574	-101.790	0.307	0.073
-285.559	30.554	-0.304	0.257
-284.545	-117.506	0.173	-0.031
-283.530	71.862	0.106	0.108
-282.516	800.000	-0.035	0.114
-281.501	123.151	0.148	-0.183
-280.486	-30.795	0.260	-0.145
-279.472	-76.410	0.162	0.056
-278.457	-86.349	-0.133	-0.040
-277.443	482.962	0.196	-0.440
-276.428	800.000	0.066	-0.204
-275.413	-85.296	0.436	0.134
-274.399	-200.000	0.039	0.175
-273.384	800.000	-0.051	-0.169
-272.370	139.961	0.159	0.207
-271.355	-55.899	-0.343	-0.151
-270.340	-95.648	0.347	-0.092
-269.326	-56.623	-0.021	-0.009
-268.311	392.998	0.034	-0.070
-267.297	121.256	0.065	-0.079
-266.282	-117.919	0.081	-0.014
-265.267	4.035	-0.265	0.191
-264.253	-83.660	-0.161	-0.051
-263.238	479.706	0.063	0.141
-262.224	42.240	-0.236	-0.211
-261.209	-200.000	-0.154	-0.000
-260.195	115.628	0.164	-0.197
-259.180	-176.196	0.459	0.012
-258.165	563.098	-0.149	-0.356
-257.151	-141.468	0.318	0.032
-256.136	33.467	0.164	-0.141
-255.122	-28.564	0.153	0.087
-254.107	-17.583	-0.298	0.184
-253.092	-127.589	0.076	0.011
-252.078	-140.312	-0.394	-0.041
-251.063	41.495	0.151	-0.135
-250.049	-53.180	-0.111	-0.050
-249.034	57.640	0.102	-0.098
-248.019	445.389	-0.098	0.211
-247.005	651.699	-0.117	0.295
-245.990	800.000	0.069	0.267
-244.976	472.053	-0.067	0.148
-243.961	298.913	0.080	-0.145
-242.946	104.467	-0.124	0.144
-241.932	80.562	0.308	-0.327
-240.917	156.025	0.199	0.269
-239.903	-80.579	-0.241	-0.079
-238.888	-169.602	0.174	0.006
-237.873	-120.546	0.253	0.042
-236.859	-76.746	0.283	0.098
-235.844	126.462	-0.119	0.148
-234.830	-75.024	-0.197	-0.069
-233.815	-121.270	-0.234	0.038
-232.800	-200.000	0.074	0.416
-231.786	1.638	0.100	0.071
-230.771	-88.009	0.184	-0.054
-229.757	-75.466	0.147	0.051
-228.742	-200.000	-0.020	0.118
-227.727	-107.589	-0.328	-0.071
-226.713	-200.000	0.021	0.107
-225.698	-200.000	-0.029	0.126
-224.684	23.994	0.212	0.172
-223.669	-88.734	-0.168	0.049
-222.655	266.189	-0.095	0.163
-221.640	-200.000	0.004	-0.213
-220.625	800.000	-0.040	0.172
-219.611	12.029	-0.203	0.154
-218.596	610.615	-0.033	0.081
-217.582	-80.825	0.092	0.030
-216.567	195.210	0.047	0.070
-215.552	-51.370	0.324	-0.149
-214.538	-29.686	0.108	-0.061
-213.523	-29.929	0.289	-0.162
-212.509	120.205	-0.151	-0.184
-211.494	-33.731	-0.275	0.149
-210.479	-81.278	-0.045	0.015
-209.465	-57.017	0.041	-0.018
-208.450	-55.517	0.101	-0.044
-207.436	-13.197	-0.094	-0.060
-206.421	-200.000	-0.010	0.103
-205.406	-50.577	0.412	0.191
-204.392	800.000	-0.085	0.249
-203.377	184.994	-0.153	-0.223
-202.363	1.688	-0.158	-0.112
-201.348	-200.000	0.025	0.109
-200.333	-20.880	0.073	-0.044
-199.319	-10.402	0.267	0.174
-198.304	800.000	0.093	0.260
-197.290	-178.332	-0.132	0.003
-196.275	-200.000	0.115	-0.530
-195.260	126.246	0.195	0.243
-194.246	166.241	0.078	-0.108
-193.231	73.561	-0.080	0.083
-192.217	-148.991	-0.347	0.027
-191.202	-200.000	-0.018	-0.100
-190.187	-200.000	-0.031	0.252
-189.173	-200.000	-0.019	-0.259
-188.158	193.392	-0.067	0.099
-187.144	-122.376	-0.107	-0.017
-186.129	234.220	0.056	0.091
-185.114	-26.649	-0.066	0.038
-184.100	288.529	0.046	0.082
-183.085	603.987	-0.026	0.063
-182.071	-200.000	0.003	-0.148
-181.056	-200.000	-0.033	0.186
-180.042	8.374	0.137	-0.101
-179.027	-200.000	0.016	0.193
-178.012	-200.000	0.021	-0.131
-176.998	18.178	0.216	0.169
-175.983	-129.111	-0.204	-0.028
-174.969	800.000	0.074	0.296
-173.954	-200.000	0.100	0.454
-172.939	-53.912	0.415	-0.185
-171.925	-200.000	0.039	0.333
-170.910	-68.074	-0.215	-0.082
-169.896	-200.000	0.005	0.307
-168.881	11.041	0.070	0.052
-167.866	-81.771	0.132	0.043
-166.852	49.680	-0.142	0.131
-165.837	-162.098	-0.109	-0.005
-164.823	717.888	-0.013	-0.034
-163.808	315.491	0.235	-0.435
-162.793	516.935	-0.079	0.181
-161.779	528.969	-0.123	0.285
-160.764	-77.957	0.172	0.058
-159.750	-64.509	-0.088	-0.035
-158.735	321.412	-0.089	0.165
-157.720	-200.000	-0.053	-0.347
-156.706	83.826	-0.151	0.161
-155.691	-79.803	0.271	-0.089
-154.677	-152.006	0.102	0.007
-153.662	-200.000	-0.506	0.000
-152.647	69.219	-0.115	-0.116
-151.633	-190.669	-0.030	-0.000
-150.618	58.476	0.203	0.196
-149.604	45.392	-0.038	0.034
-148.589	75.460	0.065	0.067
-147.574	14.340	-0.123	0.094
-146.560	-200.000	-0.006	0.057
-145.545	77.770	-0.240	-0.250
-144.531	-200.000	0.015	-0.221
-143.516	-69.498	-0.146	0.055
-142.502	-90.971	-0.315	0.089
-141.487	-200.000	0.018	0.097
-140.472	-59.736	0.278	-0.117
-139.458	-200.000	-0.004	0.083
-138.443	-146.590	-0.083	0.007
-137.429	39.019	-0.024	0.021
-136.414	-80.391	-0.286	-0.094
-135.399	259.541	-0.125	-0.211
-134.385	-200.000	-0.001	-0.220
-133.370	800.000	-0.109	0.296
-132.356	569.816	0.140	0.333
-131.341	800.000	0.048	-0.154
-130.326	317.305	0.027	-0.050
-129.312	-7.319	-0.316	-0.210
-128.297	5.152	0.100	0.072
-127.283	-29.328	-0.148	-0.083
-126.268	204.428	0.069	0.105
-125.253	800.000	-0.082	0.227
-124.239	98.324	0.069	-0.077
-123.224	-200.000	0.032	-0.172
-122.210	794.870	0.106	0.286
-121.195	-6.071	0.308	0.206
-120.180	15.208	0.156	0.120
-119.166	800.000	-0.064	0.177
-118.151	-48.070	0.106	0.050
-117.137	269.057	-0.107	0.184
-116.122	-200.000	-0.036	0.167
-115.107	-200.000	0.056	0.368
-114.093	800.000	-0.041	0.129
-113.078	-102.151	-0.476	-0.112
-112.064	-148.203	0.245	-0.020
-111.049	-200.000	0.023	0.213
-110.034	800.000	-0.156	0.494
-109.020	-163.940	0.292	0.013
-108.005	460.718	-0.128	0.279
-106.991	-120.936	-0.105	-0.017
-105.976	-131.335	0.098	-0.013
-104.962	-148.597	0.314	0.025
-103.947	88.911	0.115	0.125
-102.932	119.583	0.102	-0.124
-101.918	-88.866	0.264	0.077
-100.903	-60.373	-0.206	0.086
-99.889	-200.000	-0.058	-0.281
-98.874	26.465	-0.112	0.092
-97.859	123.242	-0.110	0.135
-96.845	-200.000	0.000	0.167
-95.830	-23.791	-0.155	0.091
-94.816	353.286	0.278	0.539
-93.801	-187.403	0.140	0.002
-92.786	-200.000	0.005	-0.056
-91.772	-45.307	0.259	0.126
-90.757	-200.000	0.001	0.062
-89.743	637.722	0.079	0.197
-88.728	-120.816	-0.153	0.025
-87.713	86.464	0.078	0.084
-86.699	52.265	0.261	0.243
-85.684	81.117	-0.268	0.283
-84.670	800.000	-0.052	-0.174
-83.655	539.442	-0.042	-0.098
-82.640	-82.983	0.241	-0.076
-81.626	-125.549	0.192	0.029
-80.611	-119.119	0.141	-0.024
-79.597	-99.423	-0.446	-0.110
-78.582	197.620	0.147	0.219
-77.567	-2.256	-0.041	-0.028
-76.553	800.000	0.040	-0.112
-75.538	-200.000	-0.016	0.368
-74.524	-200.000	0.047	0.257
-73.509	-200.000	-0.005	-0.068
-72.494	-140.183	-0.351	0.036
-71.480	-46.537	0.228	-0.109
-70.465	193.945	0.106	-0.157
-69.451	-62.524	0.257	-0.104
-68.436	354.338	0.165	0.320
-67.422	-74.518	0.055	0.019
-66.407	287.131	0.046	0.082
-65.392	-147.365	0.192	0.016
-64.378	800.000	-0.075	-0.302
-63.363	97.037	0.100	0.112
-62.349	609.600	-0.076	0.186
-61.334	303.178	-0.769	-1.393
-60.319	-18.632	1.063	0.648
-59.305	-200.000	-0.166	-1.191
-58.290	492.760	0.561	1.258
-57.276	800.000	0.322	1.263
-56.261	-200.000	113.074	609.585
-55.246	443.925	1519.052	3255.115
-54.232	144.652	2702.884	3528.019
-53.217	100.093	2200.380	2492.324
-52.203	37.014	1716.365	1483.458
-51.188	29.671	1528.744	1270.971
-50.173	27.478	1503.528	1235.102
-49.159	50.290	1560.674	1440.274
-48.144	48.889	1576.309	1444.967
-47.130	29.812	1533.723	1275.880
-46.115	26.815	1518.162	1242.383
-45.100	26.682	1514.638	1238.538
-44.086	26.640	1512.717	1236.636
-43.071	26.607	1510.464	1234.521
-42.057	26.523	1509.253	1232.912
-41.042	26.540	1508.198	1232.115
-40.027	26.610	1506.206	1230.916
-39.013	26.585	1504.712	1229.472
-37.998	26.538	1503.468	1228.092
-36.984	26.603	1502.407	1227.612
-35.969	26.585	1501.245	1226.496
-34.954	26.558	1499.929	1225.185
-33.940	26.520	1498.229	1223.492
-32.925	26.528	1497.155	1222.620
-31.911	26.550	1495.680	1221.520
-30.896	26.640	1494.160	1220.832
-29.881	26.681	1493.195	1220.273
-28.867	26.676	1491.614	1218.898
-27.852	26.523	1490.691	1217.068
-26.838	26.706	1488.980	1216.849
-25.823	26.690	1487.130	1215.187
-24.809	26.702	1485.630	1213.992
-23.794	26.634	1484.590	1212.637
-22.779	26.658	1482.710	1211.212
-21.765	26.672	1482.020	1210.694
-20.750	26.621	1480.565	1209.120
-19.736	26.645	1479.530	1208.388
-18.721	26.586	1478.533	1207.132
-17.706	26.679	1477.241	1206.647
-16.692	26.602	1476.577	1205.547
-15.677	26.570	1475.642	1204.524
-14.663	26.642	1474.131	1203.716
-13.648	26.488	1473.889	1202.452
-12.633	26.525	1472.870	1201.814
-11.619	26.686	1471.687	1201.873
-10.604	26.561	1470.977	1200.413
-9.590	26.557	1469.871	1199.440
-8.575	26.605	1469.196	1199.157
-7.560	26.559	1468.533	1198.267
-6.546	26.508	1467.720	1197.219
-5.531	26.534	1466.725	1196.525
-4.517	26.555	1465.733	1195.810
-3.502	26.572	1464.244	1194.660
-2.487	26.593	1463.360	1194.029
-1.473	26.498	1462.777	1192.879
-0.458	26.570	1461.263	1192.075
0.556	25.059	1451.899	1182.352
1.571	22.557	1427.556	1146.171
2.586	19.708	1365.938	1078.849
3.600	18.346	1282.265	1004.684
4.615	17.153	1237.939	963.104
5.629	14.918	1181.127	906.721
6.644	7.504	1095.828	803.747
7.659	1.153	1057.059	744.146
8.673	0.457	1051.016	736.430
9.688	0.233	1047.877	733.074
10.702	0.199	1046.705	732.027
11.717	0.172	1044.899	730.565
12.731	2.467	1047.106	743.198
13.746	9.927	1056.211	786.012
14.761	15.640	1063.326	819.157
15.775	16.758	1064.458	825.411
16.790	16.374	1063.114	822.426
17.804	15.486	1060.808	816.255
18.819	14.621	1058.967	810.567
19.834	14.242	1057.419	807.469
20.848	14.004	1056.026	805.180
21.863	13.705	1055.870	803.542
22.877	13.560	1054.935	802.058
23.892	13.310	1054.046	800.104
24.907	13.085	1053.282	798.364
25.921	13.200	1052.320	798.120
26.936	13.153	1052.116	797.666
27.950	13.310	1050.945	797.464
28.965	13.363	1050.479	797.298
29.980	13.372	1049.222	796.314
30.994	13.319	1048.324	795.307
32.009	13.510	1047.591	795.598
33.023	13.393	1047.187	794.663
34.038	13.303	1046.549	793.674
35.053	13.280	1045.514	792.708
36.067	13.366	1044.234	792.081
37.082	13.339	1043.550	791.362
38.096	13.353	1043.024	790.958
39.111	13.313	1042.533	790.326
40.126	13.351	1041.028	789.296
41.140	13.327	1040.009	788.340
42.155	13.262	1039.274	787.403
43.169	13.143	1038.504	786.187
44.184	13.216	1037.179	785.459
45.199	13.256	1036.061	784.735
46.213	13.178	1035.386	783.780
47.228	13.176	1034.504	783.036
48.242	13.253	1032.988	782.185
49.257	13.291	1032.302	781.772
50.271	13.216	1030.976	780.349
51.286	13.120	1030.332	779.336
52.301	13.265	1029.413	779.256
53.315	13.324	1028.536	778.803
54.330	13.316	1027.746	778.097
55.344	13.254	1026.913	777.105
56.359	13.300	1025.628	776.283
57.374	13.106	1025.287	775.043
58.388	13.256	1024.317	774.946
59.403	13.067	1023.506	773.377
60.417	13.178	1022.593	773.140
61.432	13.185	1021.988	772.645
62.447	13.139	1021.144	771.723
63.461	13.123	1020.682	771.235
64.476	13.272	1019.373	770.868
65.490	13.070	1018.649	769.312
66.505	13.183	1017.984	769.269
67.520	13.073	1017.245	768.130
68.534	13.205	1016.157	767.852
69.549	13.177	1015.266	766.984
70.563	13.332	1014.382	766.964
71.578	13.137	1014.149	765.819
72.593	13.144	1013.382	765.203
73.607	13.178	1011.878	764.159
74.622	13.055	1011.595	763.307
75.636	13.031	1010.275	762.133
76.651	12.951	1009.563	761.161
77.666	13.068	1008.895	761.130
78.680	13.157	1007.991	760.786
79.695	13.151	1007.573	760.376
80.709	13.093	1007.290	759.832
81.724	13.119	1005.886	758.824
82.739	13.181	1005.117	758.460
83.753	13.227	1004.634	758.240
84.768	13.164	1004.233	757.579
85.782	13.285	1002.621	756.852
86.797	13.380	1002.060	756.796
87.812	13.424	1000.951	756.094
88.826	13.165	1001.006	754.883
89.841	13.180	1000.114	754.215
90.855	13.261	999.162	753.798
91.870	13.361	998.036	753.338
92.884	13.476	997.058	753.054
93.899	13.362	996.628	752.145
94.914	13.326	995.979	751.424
95.928	13.423	994.972	751.041
96.943	13.406	994.658	750.662
97.957	13.339	993.836	749.669
98.972	13.381	992.909	749.094
99.987	13.262	992.638	748.285
101.001	13.403	991.414	747.931
102.016	13.404	990.711	747.340
103.030	13.356	989.564	746.193
104.045	13.306	988.616	745.185
105.060	13.329	987.654	744.502
106.074	13.260	986.787	743.470
107.089	13.326	986.095	743.181
108.103	13.330	985.121	742.397
109.118	13.255	984.296	741.374
110.133	13.132	983.988	740.525
111.147	13.312	982.294	739.990
112.162	13.183	981.836	739.002
113.176	13.249	981.142	738.708
114.191	13.367	979.954	738.276
115.206	13.272	979.360	737.338
116.220	13.274	978.405	736.564
117.235	13.232	977.603	735.710
118.249	13.405	976.542	735.615
119.264	13.318	976.020	734.769
120.279	13.174	975.196	733.444
121.293	13.309	973.997	733.077
122.308	13.300	973.950	732.934
123.322	13.240	972.822	731.758
124.337	13.231	971.513	730.668
125.352	13.243	970.367	729.794
126.366	13.143	969.339	728.517
127.381	13.301	967.943	728.097
128.395	13.125	967.220	726.715
129.410	13.206	966.293	726.312
130.424	13.250	965.643	725.952
131.439	13.306	964.323	725.141
132.454	13.384	963.098	724.496
133.468	13.396	963.059	724.457
134.483	13.469	962.148	724.026
135.497	13.264	961.933	722.901
136.512	13.320	960.826	722.250
137.527	13.260	960.395	721.600
138.541	13.293	959.479	720.992
139.556	13.353	958.633	720.555
140.570	13.244	958.196	719.688
141.585	13.268	957.229	719.002
142.600	13.387	956.512	718.917
143.614	13.256	955.923	717.841
144.629	13.551	954.499	717.987
145.643	13.537	954.105	717.568
146.658	13.544	953.405	717.009
147.673	13.550	952.426	716.237
148.687	13.440	951.806	715.228
149.702	13.434	950.588	714.225
150.716	13.393	950.129	713.641
151.731	13.371	949.136	712.736
152.746	13.418	948.239	712.205
153.760	13.486	947.643	711.986
154.775	13.565	946.362	711.299
155.789	13.395	946.519	710.623
156.804	13.451	945.486	710.025
157.819	13.552	944.579	709.713
158.833	13.530	943.843	709.005
159.848	13.787	943.030	709.428
160.862	13.690	942.776	708.762
161.877	13.513	942.028	707.381
162.892	13.474	941.433	706.705
163.906	13.565	940.129	706.050
164.921	13.613	939.447	705.682
165.935	13.587	938.446	704.756
166.950	13.551	937.390	703.746
167.964	13.519	936.675	703.011
168.979	13.626	935.351	702.412
169.994	13.611	934.244	701.453
171.008	13.526	933.571	700.526
172.023	13.613	932.913	700.337
173.037	13.638	932.593	700.143
174.052	13.796	931.397	699.850
175.067	13.734	930.776	699.058
176.081	13.695	929.987	698.238
177.096	13.637	929.423	697.511
178.110	13.670	928.350	696.781
179.125	13.775	927.406	696.450
180.140	13.603	926.980	695.350
181.154	13.646	926.249	694.919
182.169	13.751	925.296	694.584
183.183	13.791	924.623	694.181
184.198	13.687	924.338	693.475
185.213	13.821	923.385	693.255
186.227	13.734	923.038	692.573
187.242	13.870	922.342	692.556
188.256	13.847	921.657	691.885
189.271	13.852	921.076	691.408
190.286	13.856	920.179	690.692
191.300	13.848	919.264	689.910
192.315	13.816	918.342	689.025
193.329	13.700	917.560	687.895
194.344	13.622	917.251	687.276
195.359	13.797	916.701	687.531
196.373	13.852	916.336	687.425
197.388	13.810	915.790	686.781
198.402	13.985	915.165	686.971
199.417	14.053	914.738	686.875
200.432	14.024	914.409	686.444
201.446	13.981	913.708	685.681
202.461	14.043	913.120	685.436
203.475	13.950	913.205	685.056
204.490	14.157	911.977	684.924
205.504	14.161	910.934	684.097
206.519	14.064	910.880	683.596
207.534	14.110	909.886	682.978
208.548	13.994	909.229	681.949
209.563	14.258	908.129	682.145
210.577	14.099	907.607	681.044
211.592	14.055	907.216	680.509
212.607	14.092	906.925	680.381
213.621	14.278	906.130	680.487
214.636	14.261	905.327	679.755
215.650	14.282	904.208	678.938
216.665	14.157	904.224	678.382
217.680	14.207	903.608	678.062
218.694	14.357	902.919	678.097
219.709	14.372	902.541	677.815
220.723	14.240	902.000	676.809
221.738	14.326	901.183	676.486
222.753	14.415	900.485	676.264
223.767	14.379	899.576	675.374
224.782	14.372	898.976	674.836
225.796	14.493	898.307	674.764
226.811	14.478	897.609	674.120
227.826	14.376	896.950	673.153
228.840	14.445	896.315	672.897
229.855	14.461	895.692	672.434
230.869	14.430	894.780	671.564
231.884	14.437	893.970	670.923
232.899	14.516	893.106	670.533
233.913	14.456	892.944	670.113
234.928	14.475	892.043	669.454
235.942	14.500	891.337	668.964
236.957	14.499	890.534	668.298
237.972	14.431	890.250	667.753
238.986	14.468	889.847	667.542
240.001	14.552	888.881	667.093
241.015	14.474	887.926	666.006
242.030	14.603	887.350	666.032
243.045	14.643	886.439	665.446
244.059	14.508	886.273	664.726
245.074	14.566	885.866	664.592
246.088	14.699	884.367	663.938
247.103	14.615	884.598	663.719
248.117	14.765	883.649	663.542
249.132	14.698	883.260	662.925
250.147	14.685	882.571	662.300
251.161	14.840	882.127	662.523
252.176	14.795	881.613	661.900
253.190	14.802	880.313	660.891
254.205	14.929	880.204	661.253
255.220	14.905	879.537	660.598
256.234	14.926	878.807	660.077
257.249	14.844	878.255	659.280
258.263	14.959	877.508	659.112
259.278	14.890	877.183	658.541
260.293	15.037	876.345	658.429
261.307	14.988	875.720	657.710
262.322	15.052	875.324	657.605
263.336	14.993	874.701	656.849
264.351	15.016	874.214	656.513
265.366	15.078	873.348	656.050
266.380	15.088	873.177	655.900
267.395	15.212	871.916	655.381
268.409	15.155	871.116	654.498
269.424	15.020	870.598	653.524
270.439	15.158	869.999	653.557
271.453	15.191	869.081	652.938
272.468	15.180	868.196	652.172
273.482	15.232	867.981	652.155
274.497	15.140	867.593	651.446
275.512	15.139	866.586	650.630
276.526	15.164	865.964	650.203
277.541	15.220	865.119	649.726
278.555	15.239	864.691	649.423
279.570	15.242	864.233	649.032
280.585	15.331	863.471	648.748
281.599	15.479	863.162	649.031
282.614	15.444	862.486	648.330
283.628	15.289	861.927	647.253
284.643	15.247	861.485	646.701
285.657	15.371	860.807	646.615
286.672	15.290	860.481	645.997
287.687	15.285	859.714	645.345
288.701	15.415	859.375	645.536
289.716	15.363	858.576	644.676
290.730	15.468	858.092	644.660
291.745	15.381	857.482	643.813
292.760	15.551	856.382	643.583
293.774	15.457	855.926	642.823
294.789	15.514	855.381	642.571
295.803	15.432	855.004	641.918
296.818	15.576	854.351	641.922
297.833	15.456	853.508	640.774
298.847	15.464	852.939	640.320
299.862	15.555	852.108	639.986
300.876	15.522	851.272	639.177
301.891	15.580	850.777	638.971
302.906	15.695	850.120	638.857
303.920	15.775	849.283	638.475
304.935	15.700	848.977	637.904
305.949	15.734	848.411	637.550
306.964	15.648	847.626	636.579
307.979	15.758	846.710	636.251
308.993	15.794	846.628	636.268
310.008	15.711	846.339	635.683
311.022	15.923	845.613	635.880
312.037	15.793	845.223	635.041
313.052	15.840	844.591	634.685
314.066	15.851	843.792	634.069
315.081	15.787	843.232	633.352
316.095	15.663	843.096	632.730
317.110	15.702	842.286	632.211
318.125	15.731	841.689	631.816
319.139	15.703	841.090	631.207
320.154	15.747	840.557	630.914
321.168	15.739	840.189	630.551
322.183	15.962	839.482	630.800
323.197	15.874	839.240	630.235
324.212	15.822	838.752	629.618
325.227	15.959	837.704	629.289
326.241	15.905	837.465	628.850
327.256	15.872	836.806	628.177
328.270	16.057	835.881	628.115
329.285	15.945	835.627	627.453
330.300	15.870	835.268	626.847
331.314	15.868	834.709	626.367
332.329	16.010	833.798	626.155
333.343	15.939	833.279	625.445
334.358	15.956	832.639	624.973
335.373	15.928	832.351	624.598
336.387	16.020	831.747	624.429
337.402	16.246	831.294	624.872
338.416	16.040	830.471	623.436
339.431	16.255	830.134	623.923
340.446	16.155	829.428	622.968
341.460	16.179	828.921	622.619
342.475	16.206	828.552	622.386
343.489	16.281	827.940	622.147
344.504	16.272	827.513	621.739
345.519	16.347	827.046	621.609
346.533	16.275	826.228	620.676
347.548	16.501	825.601	620.979
348.562	16.277	825.052	619.691
349.577	16.208	824.678	619.101
350.592	16.455	823.842	619.325
351.606	16.192	823.907	618.355
352.621	16.254	823.393	618.142
353.635	16.144	823.129	617.486
354.650	16.306	822.457	617.518
355.665	16.362	822.030	617.347
356.679	16.370	821.485	616.913
357.694	16.412	820.968	616.623
358.708	16.477	820.557	616.497
359.723	16.494	819.755	615.903
360.738	16.374	819.491	615.212
361.752	16.606	818.337	615.134
362.767	16.477	818.175	614.491
363.781	16.487	818.142	614.447
364.796	16.585	817.319	614.129
365.810	16.703	816.950	614.227
366.825	16.566	816.993	613.709
367.840	16.600	816.574	613.461
368.854	16.647	815.850	613.032
369.869	16.737	815.039	612.695
370.883	16.802	814.522	612.488
371.898	16.713	814.113	611.807
372.913	16.681	813.374	611.079
373.927	16.748	813.129	611.084
374.942	16.799	812.219	610.529
375.956	16.736	812.017	610.097
376.971	16.796	811.164	609.620
377.986	16.739	810.715	609.022
379.000	16.826	810.201	608.892
380.015	16.935	809.655	608.820
381.029	16.836	809.255	608.112
382.044	16.973	808.620	608.072
383.059	16.926	807.985	607.372
384.073	17.006	807.495	607.237
385.088	17.046	806.792	606.798
386.102	17.003	806.118	606.082
387.117	17.095	805.683	606.029
388.132	16.906	805.731	605.340
389.146	16.811	805.276	604.605
390.161	17.030	804.880	605.034
391.175	16.871	804.328	603.997
392.190	16.995	803.851	604.028
393.205	16.964	803.621	603.691
394.219	17.054	802.828	603.361
395.234	16.977	802.809	603.023
396.248	16.975	802.179	602.489
397.263	16.942	801.503	601.811
398.278	16.903	801.005	601.246
399.292	16.994	800.734	601.309
400.307	17.192	799.881	601.317
401.321	17.020	799.680	600.503
402.336	17.037	799.594	600.445
403.350	16.990	799.244	599.964
404.365	17.241	798.137	599.966
405.380	17.235	797.958	599.757
406.394	17.164	797.816	599.349
407.409	17.173	797.278	598.921
408.423	17.279	796.528	598.678
409.438	17.460	795.826	598.737
410.453	17.392	795.644	598.306
411.467	17.242	795.749	597.804
412.482	17.376	794.923	597.601
413.496	17.342	794.615	597.199
414.511	17.415	794.283	597.153
415.526	17.331	793.808	596.448
416.540	17.262	793.537	595.949
417.555	17.392	793.035	595.973
418.569	17.317	792.541	595.289
419.584	17.404	792.074	595.190
420.599	17.421	791.631	594.863
421.613	112.162	1294.694	1480.416
422.628	96.414	1367.946	1480.519
