DTS Sentinel unit serial number:	SN413079Multiplexer serial number:	ORYXHardware model number:	OX4-SRSoftware version number:	ORYX F/W v4.00 Oryx Data Collector v3.7.2.0data status	okinstallation	princeton_trtdifferential loss correction	single-endedforward channel	channel 3reverse channel	N/Adate	2019/09/18time	13:20:34forward acquisition time	60.00reverse acquisition time	0.00gamma	496.2192k internal	0.2312k external	0.2312temperature offset calibration	0.9969default loss term (dB/km)	0.3790temperature slope calibration	1.0000multiplexer offset coefficient	1.0000multiplexer slope coefficient	1.0000fibre end	0.00T internal ref (°C)	34.11T ext. ref 1 (°C)	0.60T ext. ref 2 (°C)	29.47length (m)	temperature (°C)	Stokes	anti-Stokes-747.200	-137.656	-0.090	-0.010
-746.185	271.539	-0.161	0.288
-745.171	35.624	-0.091	0.081
-744.156	-200.000	0.022	0.260
-743.142	-56.784	-0.239	0.107
-742.127	-47.853	-0.082	-0.040
-741.112	-200.000	0.044	-0.199
-740.098	-79.223	-0.420	-0.145
-739.083	-39.027	0.340	0.181
-738.069	-128.531	-0.268	0.039
-737.054	-200.000	0.005	0.173
-736.039	157.238	-0.231	0.324
-735.025	-200.000	-0.026	0.150
-734.010	-35.334	-0.234	0.129
-732.996	2.000	0.107	-0.078
-731.981	-157.649	0.148	-0.009
-730.966	143.318	0.202	0.273
-729.952	347.436	-0.080	-0.159
-728.937	-78.079	0.257	-0.090
-727.923	-200.000	0.065	-0.334
-726.908	32.285	-0.234	-0.205
-725.894	-200.000	-0.006	-0.079
-724.879	-23.430	0.170	0.104
-723.864	-43.054	0.044	-0.023
-722.850	161.201	0.009	0.013
-721.835	-40.261	-0.174	-0.092
-720.821	-142.611	-0.332	-0.033
-719.806	-167.659	-0.268	0.011
-718.791	199.881	-0.020	0.031
-717.777	-142.905	0.135	0.013
-716.762	-20.178	0.276	-0.172
-715.748	-78.528	0.147	0.051
-714.733	45.082	-0.087	-0.081
-713.718	800.000	-0.040	0.142
-712.704	29.945	0.124	0.107
-711.689	220.442	-0.093	-0.151
-710.675	-124.096	0.311	-0.049
-709.660	-200.000	0.023	-0.358
-708.645	20.693	0.276	0.226
-707.631	-73.968	-0.112	-0.041
-706.616	-127.130	-0.358	0.053
-705.602	-200.000	0.004	0.247
-704.587	-76.772	-0.188	0.067
-703.572	-145.925	0.126	0.011
-702.558	-200.000	-0.049	-0.248
-701.543	800.000	-0.064	-0.187
-700.529	11.352	0.225	-0.175
-699.514	84.488	0.229	-0.254
-698.499	-85.294	0.062	0.020
-697.485	302.570	-0.122	0.228
-696.470	-200.000	-0.087	0.471
-695.456	-22.760	0.055	-0.034
-694.441	198.790	0.157	-0.244
-693.426	-152.996	0.269	0.019
-692.412	-10.613	-0.173	-0.116
-691.397	-63.630	-0.089	-0.037
-690.383	-200.000	-0.034	0.226
-689.368	273.707	0.148	-0.265
-688.354	-200.000	0.000	-0.038
-687.339	-200.000	-0.018	0.124
-686.324	-200.000	-0.015	0.178
-685.310	-178.104	-0.083	-0.002
-684.295	190.315	0.164	-0.249
-683.281	-56.415	-0.317	-0.143
-682.266	-123.892	0.329	0.052
-681.251	-70.598	0.153	-0.059
-680.237	800.000	-0.072	-0.316
-679.222	56.949	0.195	-0.192
-678.208	-22.280	-0.045	0.028
-677.193	-155.499	0.449	0.029
-676.178	-195.130	0.248	0.002
-675.164	79.661	-0.152	0.165
-674.149	-38.152	0.141	-0.076
-673.135	-200.000	-0.076	-0.471
-672.120	-148.046	-0.394	-0.033
-671.105	64.630	-0.014	-0.015
-670.091	-200.000	0.050	0.348
-669.076	196.657	0.124	-0.191
-668.062	-86.323	-0.345	0.107
-667.047	151.900	-0.114	-0.157
-666.032	-141.325	-0.133	-0.014
-665.018	50.236	0.130	-0.124
-664.003	-155.594	0.239	0.016
-662.989	115.326	0.232	0.287
-661.974	-71.382	-0.247	-0.094
-660.959	-111.328	-0.145	0.030
-659.945	0.345	0.229	-0.165
-658.930	-166.390	0.211	-0.009
-657.916	-118.494	0.356	-0.064
-656.901	800.000	-0.071	-0.219
-655.886	-95.163	-0.131	0.036
-654.872	-61.460	-0.257	0.109
-653.857	60.832	0.133	-0.134
-652.843	-200.000	0.000	-0.270
-651.828	-188.440	-0.443	0.006
-650.814	28.613	0.350	-0.299
-649.799	154.635	0.173	-0.240
-648.784	-200.000	0.006	0.190
-647.770	-173.159	-0.221	-0.007
-646.755	-34.423	0.236	0.131
-645.741	195.077	0.167	-0.256
-644.726	-20.666	-0.157	0.098
-643.711	-19.681	-0.077	0.048
-642.697	-109.189	-0.423	0.091
-641.682	54.869	-0.081	0.079
-640.668	272.279	0.200	0.356
-639.653	11.107	-0.134	-0.104
-638.638	638.983	-0.015	-0.040
-637.624	800.000	0.038	0.160
-636.609	-1.759	-0.274	-0.195
-635.595	-200.000	0.001	0.061
-634.580	40.355	0.111	0.101
-633.565	-47.852	0.153	0.075
-632.551	-62.851	0.290	-0.121
-631.536	591.658	-0.085	-0.212
-630.522	137.329	0.088	0.116
-629.507	800.000	-0.097	-0.309
-628.492	-69.358	0.144	-0.056
-627.478	800.000	-0.017	0.068
-626.463	800.000	-0.051	-0.156
-625.449	-188.645	-0.343	0.004
-624.434	-200.000	0.033	-0.400
-623.419	-200.000	-0.036	0.388
-622.405	20.718	0.272	0.222
-621.390	292.841	-0.143	0.264
-620.376	-64.504	0.219	-0.090
-619.361	89.874	0.190	-0.214
-618.346	18.922	0.066	-0.053
-617.332	-37.472	-0.104	-0.056
-616.317	555.473	0.184	0.447
-615.303	-27.363	0.124	0.073
-614.288	200.222	-0.177	-0.275
-613.273	-103.217	-0.253	-0.060
-612.259	-122.203	-0.135	0.022
-611.244	773.624	0.095	-0.262
-610.230	-200.000	-0.030	-0.261
-609.215	79.256	-0.218	-0.236
-608.201	-91.079	0.195	-0.057
-607.186	258.577	0.073	0.127
-606.171	-31.862	0.115	0.065
-605.157	-93.230	-0.319	-0.089
-604.142	23.079	0.164	-0.136
-603.128	768.639	-0.110	0.302
-602.113	86.065	0.117	0.130
-601.098	-91.244	0.215	-0.062
-600.084	21.585	0.106	0.087
-599.069	800.000	0.119	0.341
-598.055	62.128	-0.095	-0.096
-597.040	-200.000	-0.004	-0.153
-596.025	424.852	-0.065	0.141
-595.011	270.246	-0.157	-0.278
-593.996	431.178	-0.088	0.192
-592.982	-42.095	-0.137	0.070
-591.967	-200.000	-0.016	0.456
-590.952	414.988	-0.049	0.106
-589.938	-76.745	-0.198	-0.070
-588.923	-200.000	-0.036	0.256
-587.909	594.090	0.076	-0.188
-586.894	-200.000	-0.002	-0.235
-585.879	437.083	-0.047	-0.103
-584.865	291.169	-0.218	-0.399
-583.850	-128.704	-0.096	-0.014
-582.836	-200.000	-0.040	-0.232
-581.821	7.773	0.242	0.183
-580.806	324.896	-0.098	0.189
-579.792	-200.000	0.072	0.359
-578.777	-114.215	-0.216	0.042
-577.763	-200.000	-0.018	-0.211
-576.748	-81.465	-0.206	-0.068
-575.733	-200.000	-0.055	-0.251
-574.719	-97.265	-0.072	0.019
-573.704	252.027	0.068	-0.117
-572.690	-200.000	-0.236	-0.001
-571.675	-200.000	-0.031	-0.231
-570.661	12.777	-0.138	0.107
-569.646	-84.654	-0.228	-0.072
-568.631	82.668	0.229	0.250
-567.617	800.000	0.042	0.161
-566.602	283.243	-0.101	-0.182
-565.588	2.678	0.042	0.031
-564.573	-113.320	0.328	0.065
-563.558	176.011	0.070	0.102
-562.544	-130.301	-0.433	-0.059
-561.529	-112.377	-0.300	-0.060
-560.515	-157.074	-0.468	0.029
-559.500	649.811	-0.088	0.227
-558.485	241.500	-0.101	-0.169
-557.471	-78.688	0.442	0.152
-556.456	-51.151	0.054	0.025
-555.442	-27.660	-0.126	-0.074
-554.427	-170.944	-0.117	-0.004
-553.412	101.302	-0.133	0.156
-552.398	166.579	-0.138	0.197
-551.383	-200.000	0.039	0.237
-550.369	-10.908	0.156	-0.104
-549.354	247.814	-0.147	-0.250
-548.339	151.319	0.049	0.067
-547.325	-200.000	-0.007	0.187
-546.310	-30.890	-0.189	0.108
-545.296	376.671	0.052	0.107
-544.281	-75.276	-0.018	0.006
-543.266	201.635	0.132	0.204
-542.252	96.429	-0.174	0.200
-541.237	-45.184	-0.260	0.130
-540.223	-200.000	0.001	-0.142
-539.208	-135.922	-0.110	0.013
-538.193	-112.130	0.296	0.060
-537.179	93.124	-0.069	0.079
-536.164	-200.000	-0.015	-0.191
-535.150	-195.923	-0.196	-0.001
-534.135	-134.763	0.447	-0.055
-533.121	-160.746	-0.135	0.007
-532.106	88.511	0.207	0.232
-531.091	-11.178	-0.111	-0.073
-530.077	62.498	0.114	0.115
-529.062	744.976	0.075	-0.202
-528.048	5.733	-0.530	0.394
-527.033	-84.969	0.188	0.059
-526.018	-110.516	0.147	0.031
-525.004	32.071	-0.059	-0.051
-523.989	-200.000	-0.027	-0.180
-522.975	-200.000	0.031	0.138
-521.960	-55.753	0.055	-0.025
-520.945	-101.127	0.289	0.071
-519.931	-30.073	0.109	-0.063
-518.916	28.306	-0.210	-0.179
-517.902	-200.000	-0.031	0.348
-516.887	208.741	-0.093	0.146
-515.872	-200.000	0.076	0.337
-514.858	-10.391	0.285	0.190
-513.843	-2.528	0.331	-0.233
-512.829	-86.432	-0.194	0.060
-511.814	800.000	-0.069	0.230
-510.799	52.002	-0.102	-0.097
-509.785	-98.665	-0.085	-0.022
-508.770	-22.906	0.063	-0.038
-507.756	-165.437	0.412	-0.018
-506.741	-200.000	0.010	-0.180
-505.726	-54.099	0.077	-0.035
-504.712	-131.238	0.240	0.032
-503.697	-111.597	0.196	0.040
-502.683	64.226	0.165	0.167
-501.668	287.501	0.075	0.136
-500.653	-200.000	-0.038	0.185
-499.639	800.000	0.078	0.236
-498.624	13.481	-0.129	-0.101
-497.610	800.000	-0.106	0.365
-496.595	-44.140	-0.266	-0.134
-495.581	276.405	-0.163	-0.292
-494.566	800.000	-0.049	0.141
-493.551	483.277	-0.034	-0.077
-492.537	-200.000	0.021	-0.426
-491.522	-200.000	-0.017	0.114
-490.508	387.038	-0.174	0.360
-489.493	56.627	0.257	0.251
-488.478	-172.484	-0.175	0.006
-487.464	800.000	-0.081	-0.262
-486.449	-200.000	0.020	0.102
-485.435	-127.346	0.364	-0.053
-484.420	65.363	0.195	0.198
-483.405	108.950	0.137	0.165
-482.391	-47.970	-0.207	-0.100
-481.376	29.691	-0.210	-0.180
-480.362	-24.138	-0.178	-0.107
-479.347	-200.000	-0.002	-0.158
-478.332	403.954	-0.093	-0.197
-477.318	526.190	-0.023	0.053
-476.303	-200.000	-0.034	-0.195
-475.289	-101.793	-0.010	0.002
-474.274	137.981	0.132	-0.173
-473.259	-49.719	-0.238	-0.114
-472.245	243.743	0.126	-0.213
-471.230	800.000	0.015	0.064
-470.216	599.548	0.127	-0.316
-469.201	-162.470	0.244	0.012
-468.186	-200.000	-0.060	0.282
-467.172	291.052	-0.259	-0.472
-466.157	-94.560	0.353	0.096
-465.143	-200.000	0.001	0.331
-464.128	-14.587	-0.044	0.029
-463.113	312.688	-0.047	0.089
-462.099	800.000	-0.017	0.050
-461.084	560.364	-0.048	0.117
-460.070	-17.148	0.042	-0.027
-459.055	83.302	0.098	-0.107
-458.040	-200.000	0.005	-0.275
-457.026	34.438	0.126	-0.111
-456.011	61.240	0.273	-0.272
-454.997	800.000	0.040	0.159
-453.982	-30.979	-0.117	0.066
-452.968	-155.626	0.128	0.008
-451.953	800.000	-0.126	0.442
-450.938	-200.000	-0.015	0.136
-449.924	-113.391	0.234	-0.046
-448.909	105.569	0.098	-0.116
-447.895	-72.960	0.224	0.083
-446.880	106.304	0.122	-0.145
-445.865	376.940	-0.199	-0.407
-444.851	211.924	-0.105	0.166
-443.836	-71.359	-0.183	-0.069
-442.822	266.752	-0.101	-0.177
-441.807	-169.410	0.119	-0.004
-440.792	-200.000	-0.253	-0.000
-439.778	-78.458	0.165	-0.057
-438.763	652.377	-0.039	0.101
-437.749	-200.000	0.034	0.347
-436.734	48.501	-0.180	-0.169
-435.719	5.370	0.142	0.105
-434.705	-62.440	0.162	0.067
-433.690	-43.687	-0.176	-0.089
-432.676	-200.000	0.065	-0.346
-431.661	107.225	0.043	0.051
-430.646	227.471	0.088	-0.143
-429.632	-190.497	-0.252	-0.003
-428.617	330.439	-0.095	-0.184
-427.603	-86.965	0.104	-0.032
-426.588	-83.018	-0.022	0.007
-425.573	-48.626	0.473	0.228
-424.559	38.968	0.112	0.100
-423.544	-164.761	-0.192	-0.009
-422.530	-200.000	0.003	-0.276
-421.515	46.259	-0.137	-0.127
-420.500	-160.833	-0.137	0.007
-419.486	415.107	0.063	-0.135
-418.471	-200.000	-0.018	0.116
-417.457	-21.220	0.317	0.194
-416.442	-95.161	-0.309	-0.083
-415.428	183.765	0.135	-0.200
-414.413	800.000	0.028	-0.121
-413.398	-82.698	-0.233	-0.075
-412.384	-103.763	-0.171	0.040
-411.369	-200.000	-0.055	-0.241
-410.355	252.401	0.173	0.294
-409.340	-105.110	-0.144	-0.033
-408.325	800.000	0.044	0.159
-407.311	-37.843	0.172	0.092
-406.296	63.079	0.050	0.050
-405.282	-114.661	0.285	0.055
-404.267	109.517	0.164	0.197
-403.252	-3.294	-0.177	-0.124
-402.238	182.407	0.197	0.290
-401.223	800.000	-0.091	-0.293
-400.209	-200.000	-0.004	-0.081
-399.194	-144.441	0.103	0.010
-398.179	551.325	-0.074	0.178
-397.165	30.657	-0.252	0.216
-396.150	511.218	-0.058	-0.135
-395.136	155.576	-0.122	-0.168
-394.121	-118.138	0.134	-0.024
-393.106	-200.000	0.002	0.129
-392.092	111.032	-0.106	-0.128
-391.077	206.283	-0.072	-0.111
-390.063	-200.000	0.009	0.118
-389.048	40.018	-0.223	0.201
-388.033	-200.000	-0.003	-0.119
-387.019	23.671	-0.251	0.207
-386.004	322.740	-0.116	-0.221
-384.990	-200.000	0.040	0.307
-383.975	-127.035	0.386	0.057
-382.960	-200.000	0.004	-0.364
-381.946	-182.526	0.244	-0.004
-380.931	-200.000	0.039	-0.291
-379.917	-159.557	-0.281	-0.016
-378.902	693.635	0.083	0.219
-377.888	-200.000	0.015	0.112
-376.873	74.343	-0.161	-0.169
-375.858	39.141	-0.142	-0.127
-374.844	-200.000	0.025	-0.182
-373.829	-145.963	0.229	0.020
-372.815	-200.000	-0.001	-0.023
-371.800	95.680	0.165	0.188
-370.785	-58.493	-0.265	0.115
-369.771	-200.000	0.003	-0.263
-368.756	-164.975	-0.364	-0.016
-367.742	-65.840	-0.136	0.054
-366.727	-200.000	-0.031	-0.190
-365.712	0.112	0.108	0.077
-364.698	111.342	-0.163	-0.196
-363.683	-200.000	0.068	-0.377
-362.669	188.328	0.115	-0.172
-361.654	-120.785	-0.355	0.060
-360.639	-82.804	-0.239	0.077
-359.625	104.673	-0.093	-0.109
-358.610	800.000	0.090	-0.382
-357.596	98.941	-0.148	0.171
-356.581	-39.077	0.228	0.120
-355.566	-99.529	0.312	0.078
-354.552	800.000	0.037	0.113
-353.537	71.411	-0.200	-0.207
-352.523	-200.000	0.070	-0.392
-351.508	167.562	-0.228	-0.324
-350.493	-200.000	-0.039	0.312
-349.479	148.475	0.084	0.113
-348.464	284.752	-0.068	0.122
-347.450	-200.000	0.023	0.298
-346.435	-200.000	-0.013	0.138
-345.420	-89.204	0.177	0.052
-344.406	278.578	0.174	-0.310
-343.391	19.060	0.236	0.189
-342.377	3.329	0.129	0.094
-341.362	-200.000	-0.042	-0.201
-340.348	3.558	0.095	-0.069
-339.333	800.000	-0.089	-0.386
-338.318	43.164	-0.027	0.024
-337.304	51.838	-0.085	0.081
-336.289	267.783	-0.053	-0.092
-335.275	368.878	-0.086	0.174
-334.260	-200.000	-0.036	-0.371
-333.245	-200.000	0.022	-0.229
-332.231	56.277	0.267	-0.259
-331.216	-200.000	0.019	0.166
-330.202	-162.535	-0.258	0.013
-329.187	55.463	0.214	-0.206
-328.172	800.000	0.044	0.190
-327.158	-200.000	-0.010	0.069
-326.143	223.484	0.055	-0.088
-325.129	-103.848	0.144	-0.034
-324.114	-200.000	0.028	-0.501
-323.099	685.555	0.103	-0.268
-322.085	171.732	0.048	-0.068
-321.070	-170.565	0.181	-0.006
-320.056	203.407	0.020	0.030
-319.041	119.426	-0.205	0.253
-318.026	677.130	-0.050	-0.131
-317.012	800.000	0.046	-0.127
-315.997	253.478	0.137	0.233
-314.983	-32.054	0.154	-0.086
-313.968	9.979	0.193	0.146
-312.953	-200.000	-0.030	-0.383
-311.939	-80.775	0.134	-0.044
-310.924	-200.000	0.011	0.458
-309.910	271.962	-0.153	0.269
-308.895	-26.349	0.210	-0.123
-307.880	-200.000	-0.046	-0.226
-306.866	-85.461	0.254	0.079
-305.851	100.678	0.229	-0.265
-304.837	-200.000	-0.071	-0.359
-303.822	-159.268	0.147	0.008
-302.807	800.000	-0.071	-0.307
-301.793	-28.344	-0.262	0.151
-300.778	155.308	0.196	0.269
-299.764	284.175	-0.033	0.060
-298.749	421.934	0.120	0.257
-297.735	205.229	-0.232	0.359
-296.720	594.722	0.074	-0.183
-295.705	-41.081	0.168	0.086
-294.691	231.474	-0.032	0.053
-293.676	31.596	0.159	0.136
-292.662	-131.757	0.337	0.044
-291.647	304.641	0.097	0.179
-290.632	-200.000	-0.005	0.322
-289.618	800.000	0.052	-0.224
-288.603	-188.141	-0.212	-0.003
-287.589	190.274	-0.170	-0.254
-286.574	-107.099	0.043	-0.010
-285.559	-40.327	0.222	0.115
-284.545	106.805	-0.225	-0.266
-283.530	-85.079	-0.256	-0.080
-282.516	586.828	-0.134	0.329
-281.501	-200.000	0.024	0.212
-280.486	60.954	-0.169	-0.167
-279.472	-120.820	-0.148	0.025
-278.457	17.250	-0.077	-0.061
-277.443	-31.466	-0.175	0.098
-276.428	406.723	0.048	-0.101
-275.413	-200.000	-0.015	-0.151
-274.399	35.578	-0.135	0.119
-273.384	229.262	-0.058	0.095
-272.370	-36.787	-0.269	-0.144
-271.355	326.107	0.242	0.462
-270.340	58.244	0.175	0.171
-269.326	-34.544	0.059	-0.032
-268.311	198.588	0.161	0.245
-267.297	136.547	-0.137	-0.178
-266.282	800.000	0.009	-0.030
-265.267	-200.000	-0.013	-0.321
-264.253	-200.000	0.066	0.467
-263.238	151.355	-0.176	0.239
-262.224	-200.000	0.007	-0.188
-261.209	-48.461	-0.152	0.073
-260.195	5.246	0.152	0.112
-259.180	-57.679	-0.300	-0.131
-258.165	800.000	0.065	0.192
-257.151	569.336	0.081	0.197
-256.136	-16.657	-0.050	-0.031
-255.122	-26.260	-0.269	-0.157
-254.107	-75.333	-0.289	0.102
-253.092	149.246	-0.186	-0.250
-252.078	-66.334	0.106	-0.042
-251.063	-188.567	-0.223	0.003
-250.049	606.900	0.039	-0.096
-249.034	-81.500	0.131	0.043
-248.019	-200.000	0.033	-0.162
-247.005	-147.854	-0.276	0.023
-245.990	-125.610	-0.090	-0.014
-244.976	-200.000	-0.006	-0.104
-243.961	800.000	0.119	-0.425
-242.946	-153.424	0.220	-0.015
-241.932	-200.000	0.005	0.037
-240.917	71.944	-0.059	-0.061
-239.903	-25.147	-0.105	-0.062
-238.888	-200.000	-0.002	-0.188
-237.873	-151.669	0.221	-0.016
-236.859	-45.008	-0.066	0.032
-235.844	-45.727	-0.185	-0.091
-234.830	-38.865	0.094	0.049
-233.815	-200.000	-0.046	0.251
-232.800	45.170	0.102	-0.093
-231.786	-84.946	-0.145	0.045
-230.771	142.081	-0.209	0.276
-229.757	-200.000	0.004	0.158
-228.742	-140.525	0.228	0.024
-227.727	214.511	-0.129	-0.203
-226.713	50.119	-0.251	0.236
-225.698	131.807	-0.143	0.183
-224.684	35.472	0.149	-0.130
-223.669	20.904	0.158	0.127
-222.655	68.143	-0.293	-0.298
-221.640	-92.536	-0.194	-0.054
-220.625	-89.279	-0.089	0.026
-219.611	-145.473	0.284	-0.025
-218.596	-200.000	0.015	-0.148
-217.582	-124.493	-0.134	-0.021
-216.567	-89.711	0.151	0.044
-215.552	25.187	0.228	0.188
-214.538	-200.000	0.025	0.298
-213.523	-200.000	0.029	-0.330
-212.509	-200.000	-0.003	0.258
-211.494	39.732	-0.164	-0.146
-210.479	81.112	0.271	-0.290
-209.465	85.927	0.156	0.171
-208.450	730.262	-0.097	0.257
-207.436	-88.662	0.122	0.036
-206.421	-160.324	0.048	-0.003
-205.406	359.309	0.135	-0.267
-204.392	-138.882	0.122	0.013
-203.377	-161.490	-0.046	0.002
-202.363	-200.000	-0.026	0.128
-201.348	-78.913	-0.267	-0.090
-200.333	-149.690	0.513	0.040
-199.319	800.000	0.071	-0.196
-198.304	202.306	-0.148	0.227
-197.290	-200.000	0.032	0.233
-196.275	37.571	0.078	-0.068
-195.260	42.825	0.340	0.308
-194.246	-158.747	0.152	-0.009
-193.231	-19.659	-0.107	0.066
-192.217	-102.743	-0.350	0.083
-191.202	142.570	-0.243	-0.321
-190.187	-155.625	0.190	0.012
-189.173	24.634	-0.109	-0.090
-188.158	-200.000	-0.029	0.228
-187.144	-200.000	-0.114	0.599
-186.129	-93.286	0.388	0.107
-185.114	378.205	-0.056	0.114
-184.100	-30.065	0.436	-0.246
-183.085	-151.107	0.123	0.009
-182.071	328.858	0.185	0.352
-181.056	-29.316	0.025	0.014
-180.042	-200.000	0.011	-0.088
-179.027	-66.360	0.191	0.075
-178.012	110.027	0.321	-0.382
-176.998	166.364	0.086	0.121
-175.983	33.355	-0.143	0.123
-174.969	-101.358	0.197	0.048
-173.954	-145.660	0.078	-0.007
-172.939	-200.000	-0.050	-0.342
-171.925	443.108	-0.044	-0.095
-170.910	-60.352	0.357	-0.151
-169.896	-73.090	-0.297	0.108
-168.881	-164.010	-0.406	-0.019
-167.866	-45.419	-0.287	-0.141
-166.852	286.134	-0.033	0.059
-165.837	128.816	0.184	0.233
-164.823	97.269	0.130	-0.148
-163.808	109.573	-0.179	-0.212
-162.793	-49.026	0.154	0.073
-161.779	89.987	0.188	-0.208
-160.764	111.829	0.103	-0.123
-159.750	-57.068	-0.184	-0.080
-158.735	-200.000	0.011	-0.104
-157.720	39.799	-0.090	0.080
-156.706	-42.445	-0.201	-0.102
-155.691	-52.912	-0.168	0.076
-154.677	-200.000	0.012	0.152
-153.662	-39.123	0.247	0.129
-152.647	-92.395	0.250	0.070
-151.633	652.196	-0.065	0.166
-150.618	-200.000	0.039	0.291
-149.604	193.054	0.112	-0.168
-148.589	-95.929	0.059	0.016
-147.574	-200.000	-0.013	0.308
-146.560	-6.180	0.269	0.182
-145.545	116.448	0.159	0.193
-144.531	-120.143	-0.198	-0.034
-143.516	170.170	-0.068	0.096
-142.502	-58.293	-0.227	0.098
-141.487	799.836	0.137	-0.374
-140.472	577.323	0.129	0.312
-139.458	738.383	-0.071	0.188
-138.443	384.004	-0.058	-0.119
-137.429	115.852	-0.140	0.170
-136.414	259.303	0.244	-0.418
-135.399	184.194	-0.021	-0.031
-134.385	-42.368	0.195	-0.098
-133.370	-36.573	-0.275	0.146
-132.356	-200.000	-0.001	-0.060
-131.341	95.485	0.088	-0.099
-130.326	-200.000	0.008	-0.081
-129.312	-200.000	-0.005	-0.118
-128.297	-200.000	0.034	-0.201
-127.283	-107.341	-0.208	0.045
-126.268	800.000	-0.057	0.173
-125.253	44.976	0.081	-0.074
-124.239	142.667	-0.095	0.125
-123.224	133.778	-0.190	-0.244
-122.210	225.112	0.170	-0.272
-121.195	-200.000	0.004	0.206
-120.180	-12.780	-0.179	0.115
-119.166	344.388	-0.104	-0.202
-118.151	201.698	0.199	-0.304
-117.137	7.046	0.276	0.204
-116.122	-78.105	0.091	0.031
-115.107	800.000	-0.101	-0.343
-114.093	-57.932	0.160	-0.069
-113.078	-10.202	0.033	0.022
-112.064	800.000	0.086	-0.240
-111.049	-165.976	-0.128	0.005
-110.034	60.767	-0.208	0.204
-109.020	800.000	0.110	-0.401
-108.005	-56.412	0.202	-0.089
-106.991	-164.243	-0.272	0.012
-105.976	29.960	-0.109	0.092
-104.962	-200.000	-0.007	-0.149
-103.947	41.288	0.214	0.192
-102.932	234.503	-0.135	-0.221
-101.918	-100.494	0.162	0.040
-100.903	-200.000	-0.027	0.258
-99.889	177.707	0.099	-0.142
-98.874	-98.803	-0.093	-0.023
-97.859	-200.000	0.008	0.082
-96.845	-145.946	0.047	0.004
-95.830	138.286	0.144	0.186
-94.816	259.981	-0.233	-0.398
-93.801	-111.922	0.312	-0.062
-92.786	-88.440	0.125	-0.037
-91.772	4.751	-0.148	-0.107
-90.757	-200.000	-0.029	-0.141
-89.743	-157.509	-0.325	0.019
-88.728	-110.563	0.264	-0.054
-87.713	-66.482	-0.207	0.081
-86.699	-200.000	-0.020	-0.115
-85.684	11.815	0.217	-0.165
-84.670	-97.358	-0.088	0.023
-83.655	692.820	-0.083	0.215
-82.640	-67.731	0.487	0.188
-81.626	-114.143	-0.057	0.011
-80.611	77.109	-0.182	-0.191
-79.597	-174.958	0.178	-0.005
-78.582	-20.318	0.134	0.081
-77.567	-96.501	-0.177	-0.046
-76.553	-200.000	0.062	0.275
-75.538	-200.000	-0.073	0.328
-74.524	-49.922	0.283	0.133
-73.509	187.745	0.076	-0.112
-72.494	103.055	-0.064	-0.074
-71.480	-14.598	-0.115	-0.073
-70.465	-200.000	0.023	-0.126
-69.451	27.110	-0.319	-0.265
-68.436	434.033	0.024	0.051
-67.422	-50.161	0.263	-0.123
-66.407	-88.460	0.212	0.062
-65.392	-128.232	-0.507	-0.072
-64.378	-151.819	0.106	0.008
-63.363	-200.000	-0.035	0.258
-62.349	-124.814	0.160	0.024
-61.334	113.779	-0.920	-1.104
-60.319	22.997	0.362	0.293
-59.305	252.895	-0.228	-0.384
-58.290	-200.000	0.197	1.050
-57.276	448.019	0.716	1.556
-56.261	-200.000	94.970	537.191
-55.246	486.238	1428.881	3216.799
-54.232	144.015	2653.699	3495.063
-53.217	107.607	2246.980	2641.122
-52.203	44.003	1768.770	1600.800
-51.188	37.141	1576.646	1378.332
-50.173	34.778	1549.629	1338.138
-49.159	51.857	1599.029	1502.759
-48.144	54.594	1617.846	1539.892
-47.130	37.488	1574.542	1378.735
-46.115	34.376	1559.209	1343.366
-45.100	34.138	1555.781	1338.681
-44.086	34.174	1553.445	1336.876
-43.071	34.085	1552.192	1335.119
-42.057	34.121	1549.676	1333.152
-41.042	34.158	1548.688	1332.506
-40.027	34.126	1547.070	1330.844
-39.013	34.106	1545.848	1329.598
-37.998	34.092	1544.353	1328.160
-36.984	34.076	1543.711	1327.441
-35.969	34.164	1541.531	1326.128
-34.954	34.134	1540.278	1324.790
-33.940	34.059	1538.801	1322.947
-32.925	34.174	1537.155	1322.280
-31.911	34.086	1536.373	1320.938
-30.896	34.182	1534.780	1320.185
-29.881	34.213	1533.201	1318.991
-28.867	34.180	1532.223	1317.865
-27.852	34.128	1530.705	1316.147
-26.838	34.211	1529.398	1315.548
-25.823	34.253	1527.438	1314.100
-24.809	34.201	1525.867	1312.338
-23.794	34.171	1524.562	1310.956
-22.779	34.169	1523.283	1309.790
-21.765	34.189	1522.001	1308.770
-20.750	34.137	1521.094	1307.586
-19.736	34.033	1520.348	1306.176
-18.721	34.125	1519.306	1305.858
-17.706	34.124	1517.734	1304.448
-16.692	34.133	1517.127	1303.940
-15.677	34.100	1516.187	1302.856
-14.663	34.049	1515.191	1301.595
-13.648	34.006	1514.122	1300.331
-12.633	34.099	1513.063	1300.011
-11.619	34.036	1512.312	1298.879
-10.604	34.162	1510.822	1298.407
-9.590	34.004	1510.421	1296.933
-8.575	34.049	1509.256	1296.192
-7.560	34.123	1508.576	1296.059
-6.546	34.087	1507.778	1295.077
-5.531	33.907	1507.160	1293.267
-4.517	34.003	1505.752	1292.659
-3.502	34.035	1504.793	1292.006
-2.487	34.017	1503.763	1290.949
-1.473	34.053	1502.842	1290.350
-0.458	34.082	1501.305	1289.178
0.556	32.881	1491.722	1278.717
1.571	29.739	1464.347	1234.206
2.586	25.627	1399.281	1152.966
3.600	23.210	1312.080	1066.479
4.615	21.042	1263.737	1014.497
5.629	17.858	1206.163	950.487
6.644	9.240	1117.217	835.679
7.659	2.003	1074.048	767.038
8.673	0.732	1068.026	756.311
9.688	0.602	1064.851	753.348
10.702	0.487	1063.514	751.762
11.717	0.559	1061.717	750.784
12.731	3.075	1064.518	765.231
13.746	11.344	1075.635	814.597
14.761	17.197	1082.635	849.165
15.775	17.429	1082.033	849.774
16.790	16.860	1080.438	845.607
17.804	15.807	1078.463	838.743
18.819	14.962	1076.437	832.888
19.834	14.488	1075.171	829.477
20.848	14.190	1073.959	826.988
21.863	13.743	1073.513	824.348
22.877	13.720	1072.381	823.290
23.892	13.525	1071.655	821.694
24.907	13.452	1070.273	820.203
25.921	13.376	1069.827	819.412
26.936	13.468	1069.647	819.657
27.950	13.388	1068.645	818.420
28.965	13.427	1067.928	817.990
29.980	13.466	1066.959	817.370
30.994	13.615	1065.652	817.030
32.009	13.647	1065.191	816.762
33.023	13.644	1064.342	816.023
34.038	13.635	1063.642	815.371
35.053	13.697	1062.378	814.637
36.067	13.616	1061.618	813.579
37.082	13.438	1061.420	812.483
38.096	13.471	1060.422	811.809
39.111	13.617	1059.577	811.805
40.126	13.665	1058.355	811.034
41.140	13.513	1057.561	809.609
42.155	13.364	1056.968	808.357
43.169	13.357	1055.671	807.259
44.184	13.320	1055.017	806.506
45.199	13.366	1053.842	805.760
46.213	13.446	1052.616	805.143
47.228	13.373	1052.241	804.428
48.242	13.435	1051.118	803.799
49.257	13.429	1050.365	803.124
50.271	13.522	1048.959	802.431
51.286	13.459	1047.891	801.236
52.301	13.474	1047.389	800.851
53.315	13.438	1046.511	799.937
54.330	13.499	1046.000	799.770
55.344	13.492	1044.846	798.782
56.359	13.425	1043.759	797.559
57.374	13.374	1042.919	796.601
58.388	13.446	1042.014	796.186
59.403	13.335	1041.354	795.077
60.417	13.419	1040.667	794.888
61.432	13.342	1039.947	793.898
62.447	13.318	1039.746	793.555
63.461	13.359	1038.037	792.381
64.476	13.344	1037.450	791.789
65.490	13.323	1036.465	790.868
66.505	13.315	1035.389	789.940
67.520	13.461	1034.753	790.079
68.534	13.449	1033.950	789.341
69.549	13.435	1032.956	788.443
70.563	13.386	1032.366	787.690
71.578	13.334	1031.964	787.067
72.593	13.380	1030.926	786.425
73.607	13.338	1029.917	785.385
74.622	13.413	1028.771	784.798
75.636	13.309	1028.096	783.722
76.651	13.293	1027.060	782.787
77.666	13.219	1026.527	781.961
78.680	13.372	1025.275	781.662
79.695	13.271	1025.771	781.494
80.709	13.348	1024.720	780.988
81.724	13.546	1023.433	780.870
82.739	13.309	1023.157	779.473
83.753	13.354	1022.202	778.886
84.768	13.393	1021.625	778.561
85.782	13.525	1020.620	778.348
86.797	13.622	1019.582	777.941
87.812	13.594	1018.893	777.219
88.826	13.500	1018.167	776.152
89.841	13.442	1017.381	775.217
90.855	13.458	1016.508	774.554
91.870	13.487	1015.754	774.049
92.884	13.659	1014.701	773.979
93.899	13.619	1014.014	773.199
94.914	13.578	1013.287	772.387
95.928	13.530	1012.719	771.665
96.943	13.564	1012.010	771.213
97.957	13.606	1010.970	770.549
98.972	13.522	1010.633	769.832
99.987	13.565	1009.904	769.407
101.001	13.550	1009.238	768.764
102.016	13.620	1007.721	767.864
103.030	13.567	1007.206	767.159
104.045	13.545	1006.338	766.325
105.060	13.564	1005.326	765.578
106.074	13.609	1004.329	764.957
107.089	13.518	1003.861	764.114
108.103	13.396	1003.336	763.083
109.118	13.477	1001.713	762.155
110.133	13.318	1001.398	761.114
111.147	13.356	1000.340	760.419
112.162	13.535	999.310	760.390
113.176	13.487	998.437	759.438
114.191	13.513	997.398	758.700
115.206	13.505	996.543	757.949
116.220	13.568	995.918	757.692
117.235	13.345	995.230	756.084
118.249	13.496	994.266	755.974
119.264	13.560	993.227	755.409
120.279	13.452	992.789	754.515
121.293	13.476	991.529	753.600
122.308	13.564	990.687	753.296
123.322	13.511	990.016	752.478
124.337	13.440	989.126	751.413
125.352	13.577	987.531	750.752
126.366	13.472	986.607	749.510
127.381	13.422	985.905	748.683
128.395	13.528	984.520	748.045
129.410	13.475	983.546	747.000
130.424	13.464	983.072	746.524
131.439	13.611	981.969	746.284
132.454	13.512	980.915	744.970
133.468	13.597	980.179	744.726
134.483	13.597	979.301	743.995
135.497	13.552	979.061	743.542
136.512	13.552	977.851	742.561
137.527	13.539	977.271	741.996
138.541	13.527	976.729	741.463
139.556	13.558	976.022	740.998
140.570	13.626	974.919	740.402
141.585	13.745	973.782	740.005
142.600	13.609	973.460	739.087
143.614	13.602	972.803	738.490
144.629	13.607	971.921	737.777
145.643	13.796	970.701	737.625
146.658	13.818	970.032	737.149
147.673	13.584	969.545	735.675
148.687	13.628	968.377	734.921
149.702	13.596	967.860	734.320
150.716	13.636	966.629	733.499
151.731	13.606	965.666	732.572
152.746	13.554	965.094	731.843
153.760	13.611	964.233	731.375
154.775	13.642	963.383	730.804
155.789	13.609	962.658	730.045
156.804	13.831	961.534	730.104
157.819	13.751	960.599	728.978
158.833	13.648	960.538	728.416
159.848	13.711	959.671	727.967
160.862	13.782	958.614	727.416
161.877	13.870	957.648	727.001
162.892	13.788	957.003	726.091
163.906	13.705	956.263	725.101
164.921	13.779	955.176	724.535
165.935	13.747	954.151	723.555
166.950	13.759	953.448	723.011
167.964	13.792	952.677	722.505
168.979	13.764	951.787	721.645
169.994	13.812	950.756	721.008
171.008	13.776	950.128	720.312
172.023	13.849	949.294	719.930
173.037	13.837	948.250	719.024
174.052	13.924	947.418	718.705
175.067	13.891	946.956	718.150
176.081	13.820	946.450	717.395
177.096	13.746	945.675	716.422
178.110	13.907	944.331	716.036
179.125	13.896	943.834	715.551
180.140	14.007	943.353	715.601
181.154	13.979	942.242	714.573
182.169	13.738	942.234	713.469
183.183	13.893	941.382	713.423
184.198	13.916	940.779	713.003
185.213	13.955	939.587	712.206
186.227	13.949	938.978	711.655
187.242	13.944	938.700	711.358
188.256	14.070	937.925	711.248
189.271	14.084	937.016	710.554
190.286	14.158	936.409	710.349
191.300	14.033	935.587	709.130
192.315	13.937	935.195	708.361
193.329	13.806	934.424	707.152
194.344	13.931	933.351	706.814
195.359	13.962	932.976	706.596
196.373	13.947	932.689	706.253
197.388	14.021	932.252	706.176
198.402	14.042	931.660	705.751
199.417	14.210	930.532	705.549
200.432	14.222	930.322	705.376
201.446	14.224	930.226	705.250
202.461	14.305	929.548	705.019
203.475	14.359	929.040	704.799
204.490	14.367	927.972	703.960
205.504	14.379	927.300	703.440
206.519	14.391	926.534	702.843
207.534	14.298	926.010	701.995
208.548	14.204	925.336	701.023
209.563	14.173	924.404	700.127
210.577	14.350	923.724	700.294
211.592	14.204	923.414	699.382
212.607	14.365	922.749	699.492
213.621	14.336	921.753	698.555
214.636	14.507	920.809	698.492
215.650	14.317	920.575	697.458
216.665	14.478	919.697	697.404
217.680	14.430	919.351	696.879
218.694	14.606	918.358	696.799
219.709	14.362	918.661	695.949
220.723	14.548	917.475	695.767
221.738	14.561	917.084	695.464
222.753	14.457	916.594	694.597
223.767	14.459	915.663	693.838
224.782	14.458	914.977	693.252
225.796	14.508	914.392	692.953
226.811	14.566	913.273	692.285
227.826	14.493	913.016	691.729
228.840	14.461	912.371	691.044
229.855	14.626	911.211	690.788
230.869	14.600	910.835	690.336
231.884	14.622	910.077	689.789
232.899	14.590	909.272	688.988
233.913	14.563	908.665	688.355
234.928	14.680	908.006	688.276
235.942	14.636	907.202	687.426
236.957	14.585	906.204	686.396
237.972	14.490	905.760	685.608
238.986	14.521	904.996	685.100
240.001	14.602	904.674	685.129
241.015	14.573	903.854	684.325
242.030	14.610	903.065	683.819
243.045	14.705	902.223	683.511
244.059	14.719	901.534	682.985
245.074	14.778	900.892	682.679
246.088	14.781	900.513	682.344
247.103	14.880	899.905	682.229
248.117	14.714	899.355	681.072
249.132	14.867	898.560	681.034
250.147	14.851	898.295	680.708
251.161	14.934	897.602	680.460
252.176	14.968	896.677	679.837
253.190	15.034	896.004	679.533
254.205	15.030	895.616	679.165
255.220	15.084	894.761	678.673
256.234	15.125	893.816	678.065
257.249	15.057	893.642	677.595
258.263	15.247	892.831	677.690
259.278	15.104	892.484	676.788
260.293	15.193	891.590	676.408
261.307	15.187	891.104	675.958
262.322	15.218	890.613	675.648
263.336	15.222	890.301	675.367
264.351	15.283	889.429	674.893
265.366	15.304	888.974	674.575
266.380	15.325	888.266	674.060
267.395	15.327	887.688	673.572
268.409	15.335	886.606	672.723
269.424	15.224	886.259	671.953
270.439	15.297	885.756	671.805
271.453	15.422	884.816	671.533
272.468	15.314	883.809	670.280
273.482	15.270	883.318	669.671
274.497	15.265	883.122	669.443
275.512	15.370	882.076	669.008
276.526	15.210	881.570	667.927
277.541	15.239	880.963	667.524
278.555	15.308	880.106	667.092
279.570	15.398	879.545	666.967
280.585	15.489	878.762	666.674
281.599	15.580	878.255	666.591
282.614	15.513	877.606	665.773
283.628	15.596	876.756	665.399
284.643	15.538	876.378	664.825
285.657	15.585	876.214	664.828
286.672	15.547	875.630	664.173
287.687	15.706	875.198	664.416
288.701	15.627	874.310	663.370
289.716	15.482	874.182	662.643
290.730	15.518	873.480	662.194
291.745	15.544	872.714	661.659
292.760	15.533	872.183	661.153
293.774	15.747	871.074	661.096
294.789	15.654	870.778	660.447
295.803	15.765	870.008	660.241
296.818	15.702	869.526	659.569
297.833	15.732	869.029	659.250
298.847	15.781	867.772	658.431
299.862	15.728	867.507	657.965
300.876	15.799	866.565	657.467
301.891	15.702	866.108	656.686
302.906	15.754	865.735	656.548
303.920	15.803	864.888	656.040
304.935	15.805	864.210	655.475
305.949	15.792	864.070	655.258
306.964	15.925	862.966	654.882
307.979	16.006	862.270	654.609
308.993	15.957	861.911	654.088
310.008	15.989	861.344	653.726
311.022	16.046	860.700	653.398
312.037	15.950	860.393	652.736
313.052	15.963	859.867	652.327
314.066	15.916	859.309	651.668
315.081	15.961	858.324	651.037
316.095	15.945	857.852	650.561
317.110	15.904	857.707	650.233
318.125	15.936	856.777	649.592
319.139	15.993	856.204	649.320
320.154	16.031	855.399	648.800
321.168	15.952	855.094	648.206
322.183	16.063	854.847	648.389
323.197	16.084	854.064	647.820
324.212	16.152	853.463	647.567
325.227	16.025	852.635	646.392
326.241	16.083	852.394	646.375
327.256	15.924	852.280	645.623
328.270	16.069	851.263	645.349
329.285	16.143	850.711	645.158
330.300	16.092	850.083	644.431
331.314	16.205	849.094	644.055
332.329	16.115	848.649	643.315
333.343	16.169	848.145	643.084
334.358	16.220	847.762	642.932
335.373	16.276	847.145	642.619
336.387	16.162	846.681	641.776
337.402	16.297	845.984	641.706
338.416	16.400	845.210	641.451
339.431	16.282	844.998	640.786
340.446	16.419	844.048	640.530
341.460	16.349	844.012	640.181
342.475	16.420	843.188	639.766
343.489	16.415	842.811	639.407
344.504	16.397	842.213	638.827
345.519	16.489	841.633	638.676
346.533	16.664	840.787	638.641
347.548	16.587	840.207	637.854
348.562	16.612	839.797	637.579
349.577	16.553	839.647	637.186
350.592	16.435	839.346	636.457
351.606	16.445	838.515	635.809
352.621	16.451	838.105	635.465
353.635	16.558	837.350	635.236
354.650	16.462	837.278	634.764
355.665	16.523	836.695	634.495
356.679	16.504	836.381	634.129
357.694	16.500	835.680	633.527
358.708	16.515	835.108	633.093
359.723	16.564	834.553	632.802
360.738	16.609	834.095	632.566
361.752	16.606	833.612	632.131
362.767	16.533	833.414	631.652
363.781	16.633	832.984	631.646
364.796	16.823	832.111	631.634
365.810	16.787	831.598	631.054
366.825	16.768	831.242	630.659
367.840	16.987	830.841	631.116
368.854	16.842	830.659	630.382
369.869	16.812	830.054	629.756
370.883	16.850	829.830	629.672
371.898	16.811	829.029	628.863
372.913	16.816	828.502	628.426
373.927	16.949	827.763	628.302
374.942	16.868	827.081	627.429
375.956	17.056	826.083	627.312
376.971	17.037	825.859	627.016
377.986	16.857	825.325	625.889
379.000	17.079	824.955	626.373
380.015	17.092	824.243	625.826
381.029	17.012	823.638	625.016
382.044	17.072	823.098	624.770
383.059	17.208	822.548	624.798
384.073	17.096	821.874	623.821
385.088	17.223	821.563	623.993
386.102	17.152	820.840	623.130
387.117	17.156	820.531	622.856
388.132	17.134	819.866	622.214
389.146	17.105	819.637	621.880
390.161	17.128	819.241	621.608
391.175	17.206	819.072	621.711
392.190	17.191	818.411	621.097
393.205	17.188	818.018	620.734
394.219	17.150	817.445	620.104
395.234	17.191	817.203	620.017
396.248	17.156	816.629	619.400
397.263	17.144	816.047	618.861
398.278	17.221	815.634	618.772
399.292	17.101	815.140	617.905
400.307	17.304	814.513	618.113
401.321	17.205	813.834	617.183
402.336	17.229	813.734	617.140
403.350	17.246	813.732	617.146
404.365	17.239	813.243	616.696
405.380	17.228	812.927	616.360
406.394	17.344	812.214	616.187
407.409	17.313	811.576	615.536
408.423	17.310	811.441	615.368
409.438	17.569	810.593	615.605
410.453	17.553	809.795	614.889
411.467	17.422	809.738	614.318
412.482	17.555	809.262	614.381
413.496	17.483	808.768	613.693
414.511	17.528	808.500	613.598
415.526	17.616	807.926	613.424
416.540	17.671	807.689	613.387
417.555	17.693	806.895	612.811
418.569	17.617	806.746	612.371
419.584	17.636	806.376	612.105
420.599	17.643	805.524	611.428
421.613	105.025	1285.397	1447.119
422.628	90.391	1355.304	1447.195
