DTS Sentinel unit serial number:	SN413079Multiplexer serial number:	ORYXHardware model number:	OX4-SRSoftware version number:	ORYX F/W v4.00 Oryx Data Collector v3.7.2.0data status	okinstallation	princeton_trtdifferential loss correction	single-endedforward channel	channel 3reverse channel	N/Adate	2019/09/12time	17:42:11forward acquisition time	60.00reverse acquisition time	0.00gamma	496.2192k internal	0.2316k external	0.2316temperature offset calibration	1.0093default loss term (dB/km)	0.3790temperature slope calibration	1.0000multiplexer offset coefficient	1.0000multiplexer slope coefficient	1.0000fibre end	0.00T internal ref (°C)	34.25T ext. ref 1 (°C)	2.88T ext. ref 2 (°C)	28.21length (m)	temperature (°C)	Stokes	anti-Stokes-747.200	-46.408	0.252	-0.125
-746.185	-200.000	0.070	0.603
-745.171	145.277	0.047	-0.064
-744.156	800.000	0.107	0.375
-743.142	800.000	-0.077	0.331
-742.127	800.000	0.076	0.332
-741.112	80.082	-0.039	-0.043
-740.098	238.842	-0.214	0.360
-739.083	-125.396	-0.059	0.009
-738.069	-200.000	-0.015	0.321
-737.054	800.000	0.037	0.126
-736.039	-186.531	-0.497	-0.007
-735.025	-20.762	0.173	0.107
-734.010	61.859	-0.115	-0.116
-732.996	-19.078	-0.123	-0.078
-731.981	-67.525	-0.232	0.092
-730.966	202.695	-0.148	-0.232
-729.952	-120.671	-0.179	0.031
-728.937	-86.397	0.338	-0.105
-727.923	-60.629	-0.318	0.137
-726.908	-10.604	-0.113	0.076
-725.894	-200.000	0.041	0.223
-724.879	-200.000	-0.035	0.241
-723.864	-100.665	-0.328	-0.082
-722.850	24.390	-0.236	-0.197
-721.835	408.145	-0.097	-0.208
-720.821	39.906	-0.231	0.210
-719.806	-51.932	-0.272	-0.128
-718.791	-75.857	0.092	0.033
-717.777	58.593	0.159	0.158
-716.762	-200.000	-0.018	-0.198
-715.748	-85.146	0.226	-0.072
-714.733	98.396	0.038	0.044
-713.718	31.185	0.222	-0.193
-712.704	-89.764	0.192	-0.057
-711.689	-163.910	0.086	-0.004
-710.675	34.009	-0.184	-0.162
-709.660	-139.863	-0.121	-0.013
-708.645	-0.650	-0.162	0.116
-707.631	800.000	-0.053	-0.156
-706.616	18.567	0.137	0.111
-705.602	-200.000	-0.031	-0.315
-704.587	-78.724	-0.286	0.099
-703.572	-200.000	0.047	0.284
-702.558	-134.080	-0.226	-0.028
-701.543	-200.000	-0.062	0.343
-700.529	-200.000	-0.043	0.224
-699.514	50.918	-0.192	0.184
-698.499	284.568	0.158	0.288
-697.485	-200.000	0.014	0.132
-696.470	-46.288	-0.071	-0.035
-695.456	-200.000	0.028	-0.134
-694.441	-200.000	0.016	-0.287
-693.426	-43.807	-0.264	-0.134
-692.412	-112.659	-0.066	0.013
-691.397	35.779	-0.040	0.035
-690.383	800.000	-0.055	-0.220
-689.368	342.930	-0.075	0.148
-688.354	-68.257	0.145	0.057
-687.339	-64.205	0.251	-0.103
-686.324	171.487	0.132	0.192
-685.310	86.743	-0.044	0.049
-684.295	9.838	-0.213	0.163
-683.281	330.353	0.147	0.286
-682.266	383.030	-0.130	-0.271
-681.251	-200.000	0.040	0.343
-680.237	-200.000	0.031	-0.160
-679.222	800.000	0.037	-0.143
-678.208	-57.536	-0.401	0.178
-677.193	-31.313	-0.221	0.126
-676.178	-200.000	-0.010	-0.390
-675.164	-51.954	0.161	-0.076
-674.149	-112.705	-0.360	0.072
-673.135	-94.028	0.137	0.038
-672.120	-161.790	0.220	0.011
-671.105	138.957	-0.132	-0.175
-670.091	-9.804	0.161	-0.108
-669.076	-73.203	0.095	-0.035
-668.062	-200.000	0.052	-0.279
-667.047	-65.083	0.294	0.120
-666.032	-38.422	-0.192	0.103
-665.018	-200.000	0.033	-0.180
-664.003	202.299	0.163	-0.255
-662.989	86.891	0.126	-0.140
-661.974	-81.955	-0.233	-0.077
-660.959	103.494	0.175	0.207
-659.945	21.032	-0.131	-0.107
-658.930	-200.000	-0.058	-0.354
-657.916	145.576	-0.227	-0.307
-656.901	-200.000	-0.015	0.350
-655.886	13.270	0.129	-0.101
-654.872	-200.000	-0.010	-0.068
-653.857	-150.091	0.353	-0.028
-652.843	-39.744	0.323	0.170
-651.828	-200.000	0.040	-0.344
-650.814	-102.026	-0.101	0.025
-649.799	214.219	-0.096	-0.154
-648.784	71.048	-0.239	0.250
-647.770	-200.000	0.014	-0.079
-646.755	40.241	0.080	0.073
-645.741	-131.412	-0.360	-0.048
-644.726	-118.511	0.114	0.020
-643.711	-16.829	0.083	-0.053
-642.697	72.148	0.065	0.068
-641.682	157.457	0.096	0.134
-640.668	-99.641	0.149	-0.038
-639.653	294.007	0.082	-0.151
-638.638	-145.514	-0.276	-0.025
-637.624	166.179	-0.098	-0.140
-636.609	-58.427	0.221	-0.097
-635.595	333.295	-0.070	0.136
-634.580	2.433	0.060	-0.044
-633.565	-36.288	0.157	-0.085
-632.551	88.988	0.162	0.182
-631.536	-156.784	-0.298	-0.019
-630.522	-200.000	0.011	-0.289
-629.507	38.398	0.141	0.127
-628.492	-52.402	-0.260	-0.122
-627.478	800.000	0.081	0.298
-626.463	-136.088	0.336	-0.040
-625.449	88.399	0.088	-0.098
-624.434	-128.264	-0.458	0.066
-623.419	126.223	0.073	-0.093
-622.405	701.470	-0.142	-0.378
-621.390	800.000	-0.061	0.252
-620.376	-30.770	0.259	0.148
-619.361	61.624	-0.264	0.265
-618.346	-67.493	-0.170	-0.067
-617.332	-79.015	0.192	-0.066
-616.317	-65.506	-0.242	0.098
-615.303	-200.000	-0.002	0.208
-614.288	137.875	0.085	-0.112
-613.273	253.065	-0.312	-0.537
-612.259	-200.000	-0.006	-0.041
-611.244	16.960	-0.166	0.132
-610.230	195.890	-0.173	-0.266
-609.215	-34.592	-0.101	-0.056
-608.201	-130.629	-0.300	0.041
-607.186	-0.559	0.207	-0.148
-606.171	-5.766	0.162	0.112
-605.157	90.582	0.046	0.051
-604.142	265.942	-0.061	0.107
-603.128	-200.000	0.017	-0.130
-602.113	800.000	0.100	-0.308
-601.098	623.289	-0.024	-0.060
-600.084	-131.964	-0.367	0.048
-599.069	-118.854	-0.197	0.035
-598.055	187.769	-0.189	-0.284
-597.040	800.000	-0.041	-0.141
-596.025	800.000	0.018	-0.068
-595.011	800.000	0.076	0.245
-593.996	110.225	-0.225	0.272
-592.982	-89.464	0.150	0.045
-591.967	139.843	-0.064	0.084
-590.952	-25.787	-0.073	-0.043
-589.938	800.000	-0.113	-0.407
-588.923	-13.177	0.190	-0.124
-587.909	70.256	-0.056	0.058
-586.894	-56.566	-0.037	-0.016
-585.879	-86.355	-0.367	-0.114
-584.865	800.000	0.094	0.262
-583.850	260.969	0.184	-0.321
-582.836	-95.451	-0.099	-0.027
-581.821	-35.976	0.224	-0.122
-580.806	125.526	-0.238	0.302
-579.792	-166.249	-0.232	0.010
-578.777	209.639	0.029	-0.046
-577.763	-200.000	-0.027	0.345
-576.748	-74.083	0.135	-0.049
-575.733	191.714	-0.208	-0.315
-574.719	196.997	0.285	-0.438
-573.704	-59.268	-0.210	-0.091
-572.690	25.906	0.172	-0.144
-571.675	800.000	-0.063	0.275
-570.661	332.074	0.218	0.424
-569.646	-189.962	0.205	0.002
-568.631	-2.645	-0.191	0.135
-567.617	-200.000	-0.063	0.481
-566.602	179.508	-0.029	0.042
-565.588	-36.651	0.069	-0.038
-564.573	-200.000	-0.058	-0.366
-563.558	-62.198	-0.134	-0.056
-562.544	-87.621	-0.170	0.052
-561.529	-100.280	-0.182	-0.045
-560.515	-200.000	0.017	-0.343
-559.500	18.040	0.120	0.096
-558.485	14.067	0.173	0.136
-557.471	30.864	-0.178	-0.153
-556.456	-200.000	0.011	-0.078
-555.442	102.974	-0.143	0.169
-554.427	-21.583	0.321	-0.197
-553.412	-54.114	0.052	-0.024
-552.398	-0.362	0.279	-0.199
-551.383	-92.150	0.234	-0.066
-550.369	-171.354	0.228	-0.008
-549.354	171.192	0.114	0.165
-548.339	-200.000	0.017	0.110
-547.325	124.714	0.155	-0.196
-546.310	-200.000	0.048	-0.431
-545.296	135.123	0.273	0.357
-544.281	-27.225	0.126	-0.074
-543.266	-67.924	-0.137	0.054
-542.252	-34.226	0.062	0.034
-541.237	434.169	-0.077	-0.168
-540.223	358.590	-0.031	0.062
-539.208	-112.381	0.298	0.060
-538.193	-110.029	0.053	0.011
-537.179	-119.531	0.527	-0.092
-536.164	-3.267	-0.262	-0.183
-535.150	-200.000	-0.023	-0.151
-534.135	-66.643	-0.161	-0.064
-533.121	-200.000	0.002	0.149
-532.106	-101.537	-0.127	0.031
-531.091	229.198	-0.086	0.141
-530.077	140.141	-0.081	0.107
-529.062	144.739	0.209	-0.281
-528.048	19.127	-0.230	-0.186
-527.033	41.479	0.188	0.170
-526.018	-2.236	-0.286	0.202
-525.004	-200.000	0.004	0.051
-523.989	456.137	0.037	-0.082
-522.975	-186.733	0.154	0.002
-521.960	800.000	-0.031	0.098
-520.945	-22.886	-0.261	0.158
-519.931	44.940	0.218	-0.202
-518.916	-29.307	-0.258	0.148
-517.902	-44.932	0.248	0.124
-516.887	-44.080	-0.108	-0.055
-515.872	641.636	0.092	-0.234
-514.858	269.223	0.055	0.097
-513.843	249.859	-0.034	0.057
-512.829	-34.767	0.405	0.222
-511.814	150.165	-0.235	-0.320
-510.799	149.562	-0.186	-0.253
-509.785	-200.000	0.005	-0.119
-508.770	800.000	-0.034	0.142
-507.756	-200.000	-0.036	0.360
-506.741	-150.105	-0.368	-0.029
-505.726	-125.245	-0.289	-0.044
-504.712	752.383	0.035	-0.095
-503.697	-123.036	-0.392	-0.063
-502.683	-200.000	-0.028	-0.131
-501.668	162.616	-0.132	0.186
-500.653	409.311	0.117	-0.248
-499.639	800.000	-0.063	-0.180
-498.624	323.511	-0.113	0.216
-497.610	200.622	-0.261	-0.403
-496.595	-200.000	0.001	0.022
-495.581	449.738	-0.108	-0.239
-494.566	-70.630	0.151	0.057
-493.551	-109.047	0.122	-0.026
-492.537	70.980	0.263	-0.273
-491.522	350.521	-0.076	0.151
-490.508	-129.172	0.037	-0.005
-489.493	118.312	-0.183	-0.227
-488.478	-91.128	-0.236	-0.068
-487.464	159.287	-0.072	-0.100
-486.449	17.330	0.079	-0.063
-485.435	-120.014	0.268	-0.046
-484.420	-4.893	-0.267	0.185
-483.405	-121.036	0.122	-0.021
-482.391	-78.569	0.186	0.064
-481.376	656.252	-0.106	0.274
-480.362	-200.000	0.020	-0.191
-479.347	538.789	-0.073	0.174
-478.332	-200.000	0.034	0.161
-477.318	179.648	0.137	0.202
-476.303	-45.491	-0.086	-0.043
-475.289	95.677	0.114	-0.131
-474.274	-170.562	-0.287	-0.010
-473.259	-200.000	-0.001	-0.021
-472.245	-59.368	0.249	0.107
-471.230	225.286	0.083	0.135
-470.216	-114.182	0.166	-0.032
-469.201	-115.299	0.273	-0.052
-468.186	-62.856	0.201	0.083
-467.172	60.343	-0.098	-0.097
-466.157	385.873	-0.049	-0.101
-465.143	10.383	0.111	0.085
-464.128	57.554	0.229	-0.224
-463.113	-200.000	0.022	-0.162
-462.099	48.995	0.107	0.101
-461.084	202.703	0.106	-0.164
-460.070	800.000	0.050	-0.157
-459.055	-164.153	-0.273	0.013
-458.040	89.632	-0.017	-0.019
-457.026	80.650	0.306	0.331
-456.011	61.637	0.188	0.188
-454.997	64.224	0.055	-0.056
-453.982	288.663	-0.023	-0.042
-452.968	-200.000	0.020	0.179
-451.953	312.230	-0.092	-0.174
-450.938	37.706	-0.264	0.235
-449.924	33.671	0.208	0.181
-448.909	800.000	0.042	0.155
-447.895	-21.140	0.041	-0.025
-446.880	54.739	-0.041	-0.040
-445.865	105.677	-0.248	0.293
-444.851	-37.972	-0.165	0.088
-443.836	800.000	0.071	0.206
-442.822	-103.738	-0.402	0.094
-441.807	-31.050	0.174	0.099
-440.792	508.820	-0.106	0.246
-439.778	82.724	-0.265	-0.288
-438.763	265.489	-0.124	-0.216
-437.749	-67.487	0.299	-0.118
-436.734	51.750	0.143	-0.136
-435.719	-100.673	0.361	0.089
-434.705	98.114	0.154	0.178
-433.690	-192.058	-0.287	0.003
-432.676	-88.071	-0.099	-0.030
-431.661	26.818	-0.195	0.163
-430.646	402.316	0.059	0.123
-429.632	137.351	-0.267	-0.349
-428.617	-74.686	0.031	-0.011
-427.603	-37.486	-0.311	-0.166
-426.588	179.367	0.057	-0.084
-425.573	-151.665	-0.272	-0.020
-424.559	-10.475	0.180	0.119
-423.544	-80.991	0.269	0.089
-422.530	-200.000	0.036	-0.237
-421.515	800.000	0.053	-0.230
-420.500	-25.783	0.135	-0.079
-419.486	705.780	-0.041	0.109
-418.471	-89.185	0.070	0.021
-417.457	340.231	-0.093	0.182
-416.442	343.122	0.145	0.285
-415.428	-31.257	0.117	0.066
-414.413	-77.341	-0.181	0.063
-413.398	12.783	-0.133	-0.102
-412.384	-56.389	-0.150	0.066
-411.369	143.514	-0.279	0.372
-410.355	-0.174	0.136	0.097
-409.340	173.665	0.067	0.096
-408.325	193.480	-0.137	0.208
-407.311	-53.842	-0.394	0.180
-406.296	-200.000	-0.016	0.089
-405.282	86.466	-0.094	-0.104
-404.267	800.000	-0.089	-0.279
-403.252	-200.000	0.022	0.258
-402.238	-54.839	0.177	0.080
-401.223	-36.673	0.155	0.083
-400.209	139.336	-0.179	0.235
-399.194	-22.544	-0.123	-0.075
-398.179	114.170	-0.125	0.152
-397.165	558.805	0.133	0.321
-396.150	-87.378	-0.336	0.102
-395.136	-85.540	-0.184	0.057
-394.121	-200.000	0.031	0.147
-393.106	-200.000	-0.022	0.179
-392.092	19.472	0.130	0.104
-391.077	-200.000	-0.098	-0.515
-390.063	266.293	0.147	0.256
-389.048	388.490	0.077	-0.160
-388.033	800.000	0.076	0.212
-387.019	-200.000	-0.009	0.301
-386.004	-96.194	-0.143	-0.038
-384.990	84.523	-0.103	-0.113
-383.975	-34.121	-0.038	-0.021
-382.960	190.686	-0.155	-0.233
-381.946	-200.000	0.009	-0.379
-380.931	-200.000	0.069	-0.340
-379.917	-200.000	0.013	-0.245
-378.902	47.571	0.170	0.159
-377.888	46.244	-0.500	-0.463
-376.873	-111.426	0.190	-0.039
-375.858	405.705	-0.040	0.084
-374.844	-197.482	0.176	-0.001
-373.829	-84.231	-0.072	0.023
-372.815	128.779	0.069	-0.088
-371.800	-65.227	-0.097	0.039
-370.785	116.844	0.045	0.056
-369.771	-85.637	0.240	-0.074
-368.756	237.074	-0.045	0.075
-367.742	741.972	0.030	-0.081
-366.727	-47.193	-0.263	-0.128
-365.712	110.548	-0.081	0.097
-364.698	-152.226	-0.325	-0.023
-363.683	-161.839	0.311	0.016
-362.669	-84.778	-0.187	0.059
-361.654	138.736	-0.239	0.314
-360.639	49.893	0.282	0.265
-359.625	122.993	0.133	0.166
-358.610	-7.545	-0.065	-0.044
-357.596	-94.625	-0.257	0.070
-356.581	-113.923	0.186	0.036
-355.566	685.399	0.111	0.290
-354.552	258.851	-0.034	-0.058
-353.537	800.000	0.040	-0.154
-352.523	800.000	0.090	-0.255
-351.508	-137.084	0.246	-0.028
-350.493	-200.000	-0.005	0.253
-349.479	571.652	-0.102	-0.247
-348.464	-69.874	-0.148	-0.056
-347.450	-200.000	-0.002	0.081
-346.435	141.877	0.211	-0.279
-345.420	23.554	-0.147	0.121
-344.406	-132.775	-0.401	0.051
-343.391	-124.173	-0.056	-0.009
-342.377	-200.000	-0.017	0.259
-341.362	-67.661	0.234	-0.091
-340.348	130.395	0.047	-0.060
-339.333	-89.353	0.320	-0.094
-338.318	-62.915	0.076	-0.031
-337.304	366.984	0.113	-0.226
-336.289	40.062	-0.104	0.093
-335.275	800.000	0.034	-0.115
-334.260	162.142	0.054	0.076
-333.245	39.563	-0.102	0.091
-332.231	-200.000	0.050	0.339
-331.216	9.759	-0.203	0.154
-330.202	264.419	0.126	-0.218
-329.187	800.000	-0.030	0.114
-328.172	130.037	-0.272	-0.347
-327.158	-200.000	0.034	0.280
-326.143	800.000	0.105	0.386
-325.129	172.353	-0.078	-0.113
-324.114	121.082	0.151	0.188
-323.099	200.002	-0.017	-0.025
-322.085	27.284	0.302	-0.253
-321.070	-200.000	-0.030	-0.210
-320.056	300.629	0.158	-0.290
-319.041	-52.685	-0.119	-0.055
-318.026	-60.497	-0.321	-0.136
-317.012	800.000	0.140	0.434
-315.997	-179.414	0.239	-0.005
-314.983	-200.000	0.008	0.167
-313.968	800.000	-0.040	-0.165
-312.953	-158.800	0.161	-0.009
-311.939	104.889	-0.161	-0.189
-310.924	71.763	-0.129	0.134
-309.910	800.000	0.112	-0.318
-308.895	-83.963	0.260	0.082
-307.880	800.000	0.086	-0.276
-306.866	281.080	0.051	0.091
-305.851	592.996	-0.098	0.241
-304.837	-62.751	0.156	0.065
-303.822	-55.383	0.407	-0.182
-302.807	800.000	0.061	-0.194
-301.793	-200.000	0.043	-0.219
-300.778	212.313	-0.063	0.099
-299.764	139.150	0.119	0.156
-298.749	252.216	-0.248	-0.421
-297.735	-68.696	-0.247	0.095
-296.720	157.288	-0.198	0.273
-295.705	320.404	-0.052	0.098
-294.691	-200.000	0.017	-0.122
-293.676	73.798	-0.095	-0.099
-292.662	141.084	-0.232	-0.305
-291.647	-140.891	-0.200	-0.021
-290.632	-20.583	0.257	0.157
-289.618	-25.398	-0.385	-0.227
-288.603	-200.000	0.015	-0.129
-287.589	6.888	-0.004	0.003
-286.574	-76.032	0.153	0.054
-285.559	-149.772	-0.313	0.024
-284.545	71.960	0.097	-0.101
-283.530	-125.421	-0.049	0.007
-282.516	240.617	0.118	-0.196
-281.501	372.431	0.233	-0.472
-280.486	429.231	0.165	-0.354
-279.472	7.812	0.296	-0.221
-278.457	-200.000	-0.055	-0.246
-277.443	272.756	0.202	0.355
-276.428	184.909	-0.181	-0.266
-275.413	7.512	0.151	-0.112
-274.399	75.947	-0.157	0.165
-273.384	63.223	-0.133	0.132
-272.370	49.409	-0.098	-0.092
-271.355	149.672	0.132	-0.178
-270.340	-200.000	-0.016	0.130
-269.326	76.146	0.129	-0.136
-268.311	-16.925	-0.161	0.101
-267.297	-112.516	-0.314	-0.062
-266.282	207.389	-0.112	-0.174
-265.267	267.088	-0.070	-0.121
-264.253	-88.337	0.288	0.085
-263.238	217.394	0.082	0.130
-262.224	109.664	-0.276	0.329
-261.209	-138.291	-0.115	-0.013
-260.195	-137.824	0.159	0.018
-259.180	54.686	0.068	0.065
-258.165	733.159	0.074	0.196
-257.151	227.653	-0.022	-0.036
-256.136	-131.216	-0.104	0.014
-255.122	304.906	0.117	0.215
-254.107	-26.189	0.254	0.148
-253.092	800.000	-0.072	-0.202
-252.078	-82.850	0.281	0.090
-251.063	54.678	-0.163	0.157
-250.049	-16.625	0.062	0.039
-249.034	800.000	-0.068	0.283
-248.019	-122.247	-0.285	-0.046
-247.005	-132.660	0.187	-0.024
-245.990	-69.993	0.541	0.205
-244.976	72.297	-0.106	0.110
-243.961	207.480	-0.157	0.244
-242.946	800.000	-0.020	0.071
-241.932	57.411	0.049	-0.048
-240.917	-8.424	0.296	0.198
-239.903	32.481	0.146	-0.126
-238.888	-4.599	-0.180	0.124
-237.873	146.039	0.145	0.194
-236.859	-82.073	-0.295	-0.096
-235.844	128.051	0.178	-0.225
-234.830	-47.824	-0.054	-0.026
-233.815	-105.276	-0.280	0.064
-232.800	201.546	-0.173	-0.264
-231.786	-125.476	0.215	0.033
-230.771	-171.266	0.553	-0.018
-229.757	-41.499	0.273	0.139
-228.742	-38.095	-0.046	0.024
-227.727	-60.789	0.486	-0.204
-226.713	105.251	-0.187	0.219
-225.698	-200.000	-0.050	0.218
-224.684	-200.000	-0.026	-0.162
-223.669	285.465	0.165	0.296
-222.655	133.483	0.185	-0.237
-221.640	14.158	0.325	0.251
-220.625	-191.710	0.115	0.001
-219.611	586.282	-0.064	-0.157
-218.596	262.047	-0.239	0.410
-217.582	220.005	0.136	0.216
-216.567	-200.000	-0.023	0.158
-215.552	-193.907	-0.318	-0.003
-214.538	-18.873	-0.181	0.112
-213.523	800.000	-0.079	-0.224
-212.509	-91.860	-0.473	0.133
-211.494	74.316	0.189	-0.198
-210.479	-10.221	0.061	0.040
-209.465	127.639	-0.257	-0.323
-208.450	-5.005	0.169	-0.115
-207.436	556.866	0.094	-0.224
-206.421	800.000	-0.109	-0.351
-205.406	475.460	-0.058	-0.129
-204.392	35.211	0.054	0.047
-203.377	-44.125	-0.207	0.103
-202.363	800.000	-0.129	0.549
-201.348	-168.418	-0.005	0.000
-200.333	222.588	0.109	0.174
-199.319	-163.709	-0.053	-0.002
-198.304	-123.845	-0.099	0.016
-197.290	800.000	-0.095	0.278
-196.275	-126.057	0.165	0.025
-195.260	495.117	-0.070	-0.159
-194.246	499.554	-0.091	0.208
-193.231	180.864	0.159	0.232
-192.217	-200.000	-0.002	0.074
-191.202	800.000	-0.072	-0.299
-190.187	62.604	0.063	0.062
-189.173	-200.000	0.005	0.207
-188.158	171.258	-0.125	0.177
-187.144	-117.754	-0.115	0.020
-186.129	12.546	-0.280	-0.214
-185.114	5.969	-0.131	-0.096
-184.100	-93.533	0.310	-0.085
-183.085	-124.922	-0.333	0.051
-182.071	74.170	0.048	0.050
-181.056	-200.000	-0.079	-0.385
-180.042	800.000	-0.019	-0.074
-179.027	56.231	0.114	-0.110
-178.012	-141.922	0.214	0.021
-176.998	-66.030	0.082	-0.032
-175.983	-125.461	-0.287	-0.043
-174.969	111.841	0.194	-0.232
-173.954	-4.510	0.310	-0.212
-172.939	800.000	0.134	0.521
-171.925	5.134	-0.199	0.145
-170.910	-200.000	0.016	-0.075
-169.896	-59.291	0.353	0.150
-168.881	441.475	-0.096	-0.208
-167.866	-52.518	0.206	0.094
-166.852	-116.555	-0.029	0.005
-165.837	-68.350	0.315	0.121
-164.823	-200.000	0.015	-0.162
-163.808	-126.129	0.238	0.035
-162.793	-55.528	-0.116	-0.051
-161.779	84.498	0.181	0.197
-160.764	66.663	0.131	0.132
-159.750	-130.088	0.282	-0.038
-158.735	-71.234	0.143	0.053
-157.720	39.207	0.269	-0.239
-156.706	209.962	0.063	0.098
-155.691	7.455	0.172	0.127
-154.677	355.205	-0.151	0.298
-153.662	-117.733	0.300	-0.053
-152.647	-73.815	-0.168	-0.060
-151.633	-200.000	-0.002	0.121
-150.618	-200.000	-0.001	0.132
-149.604	52.086	0.269	-0.254
-148.589	114.340	-0.136	0.164
-147.574	178.198	-0.144	0.208
-146.560	347.049	-0.064	0.125
-145.545	-200.000	-0.071	0.417
-144.531	-151.980	-0.014	-0.001
-143.516	30.497	-0.119	-0.100
-142.502	136.101	0.115	-0.148
-141.487	538.872	0.216	0.508
-140.472	-200.000	-0.006	0.205
-139.458	323.467	-0.025	0.048
-138.443	-39.365	-0.227	-0.118
-137.429	101.677	0.108	0.125
-136.414	64.828	-0.143	-0.142
-135.399	-89.851	0.329	0.095
-134.385	-53.570	0.176	-0.080
-133.370	-58.107	-0.149	-0.064
-132.356	-39.223	0.275	0.143
-131.341	-200.000	0.027	-0.160
-130.326	492.758	0.088	-0.201
-129.312	-39.091	-0.159	-0.083
-128.297	-200.000	-0.003	-0.032
-127.283	-200.000	-0.004	0.199
-126.268	-200.000	0.010	0.137
-125.253	196.377	0.099	0.149
-124.239	-183.322	-0.105	0.002
-123.224	559.481	0.191	0.456
-122.210	46.225	0.248	0.228
-121.195	800.000	0.176	0.657
-120.180	-200.000	-0.041	-0.400
-119.166	432.701	-0.120	0.257
-118.151	-153.170	-0.330	0.023
-117.137	139.554	0.079	-0.103
-116.122	-200.000	-0.048	0.212
-115.107	-200.000	0.030	-0.166
-114.093	-47.212	-0.084	-0.040
-113.078	-200.000	-0.015	0.071
-112.064	188.605	0.106	0.157
-111.049	-54.653	0.102	-0.045
-110.034	586.992	0.054	-0.132
-109.020	226.222	0.111	0.177
-108.005	184.548	-0.223	-0.326
-106.991	33.313	-0.133	0.114
-105.976	-98.212	0.228	-0.058
-104.962	-129.096	-0.271	0.037
-103.947	-200.000	0.011	-0.125
-102.932	800.000	-0.104	0.331
-101.918	-200.000	0.028	-0.254
-100.903	-200.000	-0.076	-0.406
-99.889	-8.439	0.226	0.150
-98.874	158.031	-0.185	0.254
-97.859	-82.614	0.210	-0.067
-96.845	158.005	-0.306	-0.420
-95.830	23.664	-0.143	-0.117
-94.816	800.000	-0.030	-0.123
-93.801	-200.000	0.016	0.293
-92.786	-200.000	-0.029	0.156
-91.772	800.000	-0.091	-0.273
-90.757	137.972	-0.143	-0.185
-89.743	195.172	0.166	0.249
-88.728	-94.407	-0.298	0.080
-87.713	-38.837	0.122	0.064
-86.699	-66.389	0.305	-0.120
-85.684	800.000	-0.061	0.180
-84.670	8.147	0.211	0.157
-83.655	118.731	0.277	0.338
-82.640	-92.026	-0.082	0.023
-81.626	-200.000	-0.002	0.055
-80.611	-15.183	-0.213	0.135
-79.597	-200.000	-0.004	-0.045
-78.582	-142.265	-0.136	-0.013
-77.567	-97.051	0.238	-0.062
-76.553	74.306	0.181	-0.187
-75.538	223.654	0.080	-0.127
-74.524	24.888	0.105	0.086
-73.509	-0.694	0.190	-0.133
-72.494	-200.000	-0.015	0.091
-71.480	62.526	-0.149	0.147
-70.465	-152.891	0.088	-0.006
-69.451	424.146	0.091	0.193
-68.436	-66.305	0.205	-0.080
-67.422	-57.842	0.162	-0.070
-66.407	365.242	0.167	-0.331
-65.392	695.110	0.133	-0.344
-64.378	800.000	-0.124	0.355
-63.363	64.840	0.154	0.153
-62.349	-200.000	0.043	-0.340
-61.334	131.795	-0.696	-0.884
-60.319	-200.000	0.176	0.804
-59.305	800.000	-0.243	-0.827
-58.290	75.458	0.873	0.909
-57.276	365.259	0.641	1.273
-56.261	-200.000	96.157	577.811
-55.246	548.580	1383.442	3267.983
-54.232	155.861	2571.885	3495.270
-53.217	111.885	2171.442	2585.757
-52.203	44.246	1711.158	1548.233
-51.188	37.284	1523.404	1330.811
-50.173	34.903	1496.454	1291.164
-49.159	54.368	1545.669	1467.558
-48.144	57.352	1564.844	1506.163
-47.130	37.657	1521.664	1331.632
-46.115	34.457	1506.698	1296.765
-45.100	34.278	1503.395	1292.659
-44.086	34.327	1501.121	1290.978
-43.071	34.228	1499.822	1289.145
-42.057	34.106	1497.891	1286.606
-41.042	34.252	1496.234	1286.122
-40.027	34.184	1494.998	1284.548
-39.013	34.284	1493.274	1283.690
-37.998	34.134	1492.730	1282.160
-36.984	34.298	1491.101	1281.810
-35.969	34.300	1489.343	1280.263
-34.954	34.216	1488.392	1278.829
-33.940	34.307	1486.360	1277.649
-32.925	34.214	1485.761	1276.455
-31.911	34.279	1484.553	1275.803
-30.896	34.240	1482.987	1274.145
-29.881	34.418	1481.573	1274.068
-28.867	34.367	1480.287	1272.571
-27.852	34.205	1479.012	1270.348
-26.838	34.193	1477.689	1269.079
-25.823	34.321	1475.720	1268.187
-24.809	34.268	1474.456	1266.699
-23.794	34.257	1473.026	1265.348
-22.779	34.395	1471.793	1265.159
-21.765	34.345	1470.541	1263.699
-20.750	34.333	1469.165	1262.384
-19.736	34.283	1468.567	1261.494
-18.721	34.302	1467.495	1260.644
-17.706	34.169	1466.801	1259.116
-16.692	34.244	1465.362	1258.333
-15.677	34.214	1464.792	1257.593
-14.663	34.142	1464.054	1256.435
-13.648	34.266	1462.644	1255.991
-12.633	34.297	1461.754	1255.379
-11.619	34.214	1461.094	1254.216
-10.604	34.206	1460.093	1253.258
-9.590	34.205	1459.069	1252.320
-8.575	34.166	1458.720	1251.714
-7.560	34.226	1457.307	1250.847
-6.546	34.301	1456.626	1250.708
-5.531	34.140	1455.901	1248.975
-4.517	34.149	1454.564	1247.840
-3.502	34.092	1454.509	1247.367
-2.487	34.176	1452.660	1246.281
-1.473	34.110	1452.421	1245.597
-0.458	34.136	1450.085	1243.715
0.556	35.227	1440.447	1232.957
1.571	31.676	1414.709	1188.336
2.586	27.819	1353.754	1113.558
3.600	25.781	1272.509	1034.934
4.615	24.240	1225.680	988.223
5.629	20.671	1169.407	923.853
6.644	11.478	1084.256	811.041
7.659	4.188	1042.747	744.988
8.673	3.244	1036.735	736.113
9.688	2.876	1033.410	731.935
10.702	2.607	1032.329	729.825
11.717	2.784	1030.296	729.162
12.731	5.752	1033.503	745.498
13.746	14.989	1047.096	799.566
14.761	23.462	1057.864	848.445
15.775	26.127	1060.012	862.853
16.790	26.612	1059.787	864.910
17.804	26.328	1059.213	863.007
18.819	26.282	1058.479	862.111
19.834	26.292	1058.062	861.745
20.848	26.439	1057.505	861.918
21.863	26.462	1057.447	861.902
22.877	26.492	1056.853	861.484
23.892	26.412	1056.264	860.545
24.907	26.356	1055.720	859.764
25.921	26.424	1054.659	859.145
26.936	26.407	1053.619	858.143
27.950	26.478	1052.667	857.626
28.965	26.282	1051.640	855.787
29.980	26.231	1050.207	854.300
30.994	26.433	1048.494	853.785
32.009	26.511	1048.297	853.919
33.023	26.584	1047.872	853.840
34.038	26.449	1046.695	852.172
35.053	26.319	1046.030	850.943
36.067	26.586	1045.055	851.329
37.082	26.396	1044.575	849.972
38.096	26.607	1043.559	850.056
39.111	26.660	1043.216	849.954
40.126	26.820	1042.080	849.701
41.140	26.563	1041.407	847.874
42.155	26.260	1040.094	845.314
43.169	25.899	1038.970	842.636
44.184	26.099	1037.372	842.199
45.199	26.050	1036.937	841.543
46.213	26.051	1035.672	840.448
47.228	25.905	1035.207	839.316
48.242	26.292	1033.866	839.955
49.257	26.344	1033.585	839.893
50.271	26.345	1032.856	839.230
51.286	26.572	1032.046	839.553
52.301	26.515	1031.776	838.992
53.315	26.632	1030.978	838.814
54.330	26.552	1029.975	837.551
55.344	26.298	1029.578	835.982
56.359	26.414	1028.362	835.452
57.374	26.336	1027.652	834.443
58.388	26.156	1026.863	832.897
59.403	26.060	1026.116	831.775
60.417	26.197	1025.188	831.581
61.432	26.077	1024.176	830.135
62.447	26.140	1023.556	829.850
63.461	26.218	1023.082	829.750
64.476	26.303	1022.054	829.232
65.490	26.199	1021.718	828.410
66.505	26.118	1020.380	826.878
67.520	26.123	1019.256	825.920
68.534	26.103	1019.403	825.875
69.549	25.948	1018.420	824.296
70.563	25.815	1016.799	822.302
71.578	25.545	1016.339	820.625
72.593	25.731	1015.151	820.442
73.607	25.542	1014.129	818.685
74.622	25.514	1013.309	817.819
75.636	25.822	1012.759	818.707
76.651	25.964	1011.970	818.640
77.666	25.969	1010.878	817.705
78.680	25.799	1010.027	816.177
79.695	25.757	1009.587	815.558
80.709	25.821	1009.048	815.341
81.724	26.086	1007.786	815.444
82.739	25.972	1007.421	814.561
83.753	25.955	1006.832	813.938
84.768	26.199	1006.370	814.594
85.782	26.683	1005.642	816.112
86.797	26.872	1004.904	816.291
87.812	26.743	1004.252	815.113
88.826	26.546	1002.989	813.128
89.841	26.524	1002.451	812.523
90.855	26.673	1001.499	812.348
91.870	26.793	1000.553	812.045
92.884	26.817	999.693	811.380
93.899	26.606	998.944	809.760
94.914	26.526	997.889	808.473
95.928	26.494	997.733	808.135
96.943	26.677	996.624	807.980
97.957	26.431	995.313	805.751
98.972	26.070	994.544	803.448
99.987	25.909	993.517	801.831
101.001	26.067	992.968	802.022
102.016	26.481	992.695	803.568
103.030	26.418	991.666	802.386
104.045	26.333	990.567	801.050
105.060	26.356	988.942	799.763
106.074	26.023	988.787	798.094
107.089	26.080	987.708	797.408
108.103	26.247	987.898	798.228
109.118	26.471	986.774	798.236
110.133	26.234	985.266	795.904
111.147	26.124	984.694	794.887
112.162	26.143	983.292	793.764
113.176	25.834	982.388	791.608
114.191	26.026	981.396	791.582
115.206	26.036	981.399	791.560
116.220	25.776	979.805	789.065
117.235	25.647	979.108	787.867
118.249	25.729	978.521	787.686
119.264	25.820	977.370	787.087
120.279	25.711	976.926	786.182
121.293	25.795	975.685	785.481
122.308	25.773	975.687	785.317
123.322	25.728	974.796	784.336
124.337	25.784	973.623	783.565
125.352	25.655	972.575	782.093
126.366	25.284	970.796	778.983
127.381	24.788	969.486	775.712
128.395	25.424	969.265	778.224
129.410	26.078	969.522	781.191
130.424	26.354	968.578	781.558
131.439	26.279	967.620	780.391
132.454	26.379	966.266	779.659
133.468	26.254	966.003	778.840
134.483	26.202	964.984	777.724
135.497	26.317	964.008	777.364
136.512	26.555	963.859	778.197
137.527	26.713	962.639	777.823
138.541	26.527	962.433	776.789
139.556	26.577	961.905	776.510
140.570	26.613	960.842	775.739
141.585	26.562	959.641	774.481
142.600	26.670	959.093	774.430
143.614	26.553	958.302	773.224
144.629	26.700	957.846	773.415
145.643	26.940	957.077	773.748
146.658	26.878	956.111	772.637
147.673	26.599	954.857	770.368
148.687	26.439	953.779	768.751
149.702	26.386	953.134	767.936
150.716	26.161	952.204	766.164
151.731	26.375	950.825	765.893
152.746	26.408	950.491	765.699
153.760	26.583	949.888	765.883
154.775	26.723	949.076	765.755
155.789	26.828	948.454	765.628
156.804	26.797	947.487	764.649
157.819	26.538	946.628	762.796
158.833	26.618	946.083	762.626
159.848	26.698	945.252	762.226
160.862	26.864	944.318	762.102
161.877	26.774	943.322	760.855
162.892	26.571	942.506	759.277
163.906	26.802	941.297	759.202
164.921	26.707	940.573	758.155
165.935	26.572	939.855	756.943
166.950	26.734	938.731	756.646
167.964	26.723	937.788	755.774
168.979	26.764	936.884	755.152
169.994	26.550	935.906	753.404
171.008	26.418	934.672	751.798
172.023	26.708	934.152	752.516
173.037	26.830	933.700	752.593
174.052	26.521	932.781	750.503
175.067	26.454	931.701	749.289
176.081	26.220	930.920	747.629
177.096	26.482	929.846	747.781
178.110	26.398	929.132	746.795
179.125	26.357	927.983	745.636
180.140	25.998	927.130	743.407
181.154	25.989	926.503	742.801
182.169	26.293	925.697	743.341
183.183	26.477	925.849	744.152
184.198	26.750	925.508	744.933
185.213	26.722	924.632	744.048
186.227	26.589	924.062	742.977
187.242	26.706	923.551	742.981
188.256	26.788	922.996	742.804
189.271	26.664	922.374	741.730
190.286	26.845	921.550	741.741
191.300	26.586	920.922	740.113
192.315	25.896	919.206	735.853
193.329	25.228	917.549	731.737
194.344	24.984	916.163	729.573
195.359	25.504	916.778	732.117
196.373	26.423	917.352	736.255
197.388	26.674	917.014	736.939
198.402	26.594	916.726	736.318
199.417	26.486	915.901	735.150
200.432	26.693	915.178	735.344
201.446	26.415	914.580	733.674
202.461	26.157	913.981	732.081
203.475	26.376	913.140	732.228
204.490	26.000	911.821	729.587
205.504	24.690	909.951	722.734
206.519	24.937	909.955	723.671
207.534	25.958	910.043	727.799
208.548	26.180	909.846	728.472
209.563	26.589	909.497	729.779
210.577	26.628	908.534	729.100
211.592	26.224	907.905	726.905
212.607	26.616	907.817	728.348
213.621	26.710	907.551	728.447
214.636	26.721	906.565	727.636
215.650	26.866	906.009	727.707
216.665	26.783	905.509	726.908
217.680	26.859	905.063	726.789
218.694	26.778	904.935	726.298
219.709	26.736	903.270	724.729
220.723	26.160	902.816	722.000
221.738	26.299	902.244	722.033
222.753	26.749	901.318	723.024
223.767	26.648	900.853	722.184
224.782	26.650	900.423	721.781
225.796	26.836	899.716	721.893
226.811	26.968	899.188	721.928
227.826	26.374	898.517	718.967
228.840	25.719	896.494	714.685
229.855	25.607	896.220	713.959
230.869	25.892	895.642	714.564
231.884	25.534	894.848	712.451
232.899	25.551	894.381	712.082
233.913	26.385	894.623	715.514
234.928	26.584	894.298	715.979
235.942	26.459	893.441	714.733
236.957	26.457	892.678	714.051
237.972	26.199	892.072	712.486
238.986	26.155	891.035	711.423
240.001	26.222	890.734	711.383
241.015	26.166	890.291	710.745
242.030	26.251	889.649	710.503
243.045	26.514	889.064	711.009
244.059	26.508	888.389	710.382
245.074	26.712	888.075	710.867
246.088	26.829	887.120	710.498
247.103	26.324	886.811	708.211
248.117	26.256	885.939	707.184
249.132	26.849	885.999	709.490
250.147	27.297	885.725	710.962
251.161	27.332	885.375	710.751
252.176	27.578	884.515	710.961
253.190	27.533	884.186	710.455
254.205	27.443	884.250	710.093
255.220	27.715	883.833	710.755
256.234	27.667	882.767	709.649
257.249	27.653	881.957	708.879
258.263	27.559	881.381	707.989
259.278	27.569	880.856	707.543
260.293	27.525	880.554	707.067
261.307	27.656	879.818	706.921
262.322	27.563	879.128	705.945
263.336	27.394	878.249	704.525
264.351	26.933	876.926	701.617
265.366	25.844	875.084	695.880
266.380	25.433	874.483	693.752
267.395	26.378	874.415	697.283
268.409	27.168	874.642	700.451
269.424	27.049	874.144	699.530
270.439	27.160	873.900	699.701
271.453	27.376	873.067	699.802
272.468	27.250	872.658	698.929
273.482	27.394	872.257	699.096
274.497	27.441	871.989	699.000
275.512	27.413	870.811	697.887
276.526	26.823	869.573	694.573
277.541	26.957	869.417	694.902
278.555	27.347	869.301	696.239
279.570	27.237	868.117	694.810
280.585	26.995	867.652	693.452
281.599	27.299	866.887	693.941
282.614	27.326	866.543	693.705
283.628	26.840	865.305	690.803
284.643	26.429	864.797	688.771
285.657	26.857	864.667	690.234
286.672	26.667	864.027	688.940
287.687	26.332	862.514	686.402
288.701	26.464	863.004	687.232
289.716	26.888	863.217	688.950
290.730	26.669	861.788	686.922
291.745	26.479	860.897	685.430
292.760	26.363	860.074	684.275
293.774	26.183	860.022	683.491
294.789	27.174	860.797	687.799
295.803	27.720	860.558	689.610
296.818	27.790	860.023	689.387
297.833	27.802	859.620	689.046
298.847	27.511	858.202	686.752
299.862	27.400	856.910	685.241
300.876	27.365	857.093	685.193
301.891	27.699	856.845	686.192
302.906	27.835	855.905	685.890
303.920	27.519	854.912	683.849
304.935	27.337	854.282	682.601
305.949	27.884	853.890	684.279
306.964	27.957	853.624	684.278
307.979	27.562	852.869	682.134
308.993	27.404	852.590	681.259
310.008	27.696	852.360	682.107
311.022	27.930	851.917	682.565
312.037	27.731	851.273	681.247
313.052	27.609	850.398	680.029
314.066	27.570	849.591	679.180
315.081	26.854	848.147	675.299
316.095	25.973	846.979	671.036
317.110	26.629	846.904	673.354
318.125	27.471	847.370	676.796
319.139	27.098	846.364	674.550
320.154	25.839	844.790	668.567
321.168	25.466	843.524	666.122
322.183	26.080	843.858	668.605
323.197	26.994	844.312	672.292
324.212	27.344	843.803	673.119
325.227	27.444	843.905	673.513
326.241	27.719	843.072	673.804
327.256	27.463	843.018	672.754
328.270	27.450	841.853	671.718
329.285	27.279	841.222	670.526
330.300	27.147	840.406	669.328
331.314	27.065	839.580	668.310
332.329	27.015	839.432	667.950
333.343	27.420	839.085	669.104
334.358	27.613	839.211	669.852
335.373	27.665	838.246	669.215
336.387	27.691	837.576	668.715
337.402	27.972	837.534	669.653
338.416	28.058	837.205	669.647
339.431	28.096	836.438	669.112
340.446	28.035	835.732	668.266
341.460	28.459	835.552	669.611
342.475	28.329	834.922	668.571
343.489	28.096	834.164	667.057
344.504	28.139	833.631	666.727
345.519	28.232	833.551	666.942
346.533	28.564	833.431	667.997
347.548	28.455	832.950	667.157
348.562	28.598	832.162	666.985
349.577	28.514	831.794	666.329
350.592	28.422	831.153	665.420
351.606	28.454	830.470	664.932
352.621	28.633	829.661	664.872
353.635	28.367	829.476	663.704
354.650	28.306	828.702	662.803
355.665	27.985	828.039	661.054
356.679	26.948	826.165	655.754
357.694	26.660	825.810	654.374
358.708	27.472	825.830	657.265
359.723	27.333	825.564	656.494
360.738	27.720	824.921	657.320
361.752	27.917	825.061	658.082
362.767	28.146	824.621	658.496
363.781	28.244	824.832	658.959
364.796	28.591	824.468	659.859
365.810	28.894	823.930	660.458
366.825	28.990	823.670	660.536
367.840	28.984	823.520	660.337
368.854	28.679	822.917	658.700
369.869	28.324	821.856	656.521
370.883	28.074	821.085	654.951
371.898	28.343	820.704	655.551
372.913	28.189	819.571	654.037
373.927	28.143	819.192	653.513
374.942	28.312	818.485	653.497
375.956	28.492	818.057	653.738
376.971	28.388	817.857	653.148
377.986	28.638	817.353	653.579
379.000	28.824	816.486	653.490
380.015	28.862	816.514	653.590
381.029	28.719	816.041	652.644
382.044	28.626	815.050	651.463
383.059	28.744	814.716	651.559
384.073	28.819	814.090	651.264
385.088	28.821	813.610	650.832
386.102	28.835	813.198	650.495
387.117	28.689	812.157	649.088
388.132	28.648	811.685	648.508
389.146	28.254	811.225	646.693
390.161	27.703	810.250	643.913
391.175	27.870	809.976	644.226
392.190	28.358	809.966	645.884
393.205	28.526	809.323	645.905
394.219	27.457	807.583	640.700
395.234	25.806	805.481	633.178
396.248	24.942	804.169	629.058
397.263	25.935	805.443	633.489
398.278	27.800	806.580	640.884
399.292	28.449	806.570	643.097
400.307	28.052	805.631	640.899
401.321	28.111	804.981	640.533
402.336	28.022	805.157	640.303
403.350	28.421	804.929	641.461
404.365	28.879	804.836	642.934
405.380	29.228	804.729	644.009
406.394	29.451	804.549	644.590
407.409	29.571	804.267	644.727
408.423	29.524	803.505	643.892
409.438	29.376	803.132	643.020
410.453	29.341	803.036	642.765
411.467	29.438	802.402	642.538
412.482	29.597	801.631	642.418
413.496	29.401	801.107	641.260
414.511	29.647	800.797	641.810
415.526	29.536	800.627	641.232
416.540	29.475	800.207	640.627
417.555	29.331	799.887	639.815
418.569	29.120	799.016	638.328
419.584	29.136	798.468	637.888
420.599	29.087	797.719	637.066
421.613	109.335	1284.276	1447.283
422.628	94.172	1355.177	1447.420
