DTS Sentinel unit serial number:	SN413079Multiplexer serial number:	ORYXHardware model number:	OX4-SRSoftware version number:	ORYX F/W v4.00 Oryx Data Collector v3.7.2.0data status	okinstallation	princeton_trtdifferential loss correction	single-endedforward channel	channel 3reverse channel	N/Adate	2019/09/17time	22:08:34forward acquisition time	60.00reverse acquisition time	0.00gamma	496.2192k internal	0.2345k external	0.2345temperature offset calibration	0.9951default loss term (dB/km)	0.3790temperature slope calibration	1.0000multiplexer offset coefficient	1.0000multiplexer slope coefficient	1.0000fibre end	0.00T internal ref (°C)	25.84T ext. ref 1 (°C)	0.17T ext. ref 2 (°C)	18.77length (m)	temperature (°C)	Stokes	anti-Stokes-747.200	30.920	-0.158	0.135
-746.185	-107.950	0.029	-0.006
-745.171	369.758	-0.150	-0.304
-744.156	-200.000	0.000	0.128
-743.142	-34.968	-0.231	0.126
-742.127	-200.000	-0.031	0.186
-741.112	92.022	-0.128	0.144
-740.098	-200.000	-0.042	0.268
-739.083	744.282	0.141	-0.379
-738.069	800.000	0.085	0.323
-737.054	-27.212	0.288	0.168
-736.039	-47.481	-0.255	0.124
-735.025	-141.130	-0.150	0.015
-734.010	-78.989	-0.397	0.135
-732.996	334.571	0.222	-0.430
-731.981	67.215	0.198	-0.202
-730.966	52.925	-0.161	-0.154
-729.952	-200.000	-0.041	-0.299
-728.937	-53.595	-0.195	-0.089
-727.923	800.000	0.022	-0.066
-726.908	-200.000	-0.040	-0.193
-725.894	-191.852	0.468	0.005
-724.879	-119.860	-0.438	0.075
-723.864	-200.000	-0.049	0.292
-722.850	307.682	0.106	-0.197
-721.835	316.831	0.142	0.269
-720.821	-158.502	-0.062	-0.004
-719.806	-71.146	-0.329	0.123
-718.791	103.273	-0.199	-0.233
-717.777	-200.000	0.004	-0.396
-716.762	-200.000	-0.004	-0.222
-715.748	285.540	-0.046	0.083
-714.733	-54.572	-0.463	0.210
-713.718	139.658	0.050	-0.066
-712.704	-38.709	-0.135	0.071
-711.689	339.049	-0.063	0.123
-710.675	14.629	0.155	0.121
-709.660	-200.000	-0.012	0.455
-708.645	-138.515	-0.372	0.041
-707.631	800.000	0.112	-0.451
-706.616	-49.411	0.116	-0.055
-705.602	799.489	-0.066	0.181
-704.587	-200.000	0.014	0.083
-703.572	222.388	-0.151	0.243
-702.558	85.343	-0.048	0.053
-701.543	-200.000	-0.028	0.357
-700.529	138.061	0.129	0.168
-699.514	800.000	-0.047	-0.167
-698.499	506.359	0.020	0.045
-697.485	-58.261	-0.104	0.045
-696.470	205.302	-0.193	0.299
-695.456	-10.498	-0.070	-0.046
-694.441	-57.179	-0.393	-0.173
-693.426	653.986	0.042	0.109
-692.412	-200.000	0.013	0.151
-691.397	113.036	-0.189	-0.229
-690.383	-40.489	0.105	-0.054
-689.368	58.373	0.056	0.055
-688.354	-112.766	-0.157	0.031
-687.339	-158.553	0.090	0.005
-686.324	-127.964	0.116	0.017
-685.310	0.502	-0.045	-0.032
-684.295	-81.493	0.036	0.012
-683.281	-97.168	-0.231	0.060
-682.266	-25.229	-0.206	-0.122
-681.251	-175.722	0.205	-0.006
-680.237	-200.000	-0.006	-0.143
-679.222	-88.397	-0.224	0.067
-678.208	800.000	-0.052	0.154
-677.193	-200.000	-0.034	0.277
-676.178	-200.000	-0.001	0.019
-675.164	-47.139	0.069	-0.034
-674.149	-200.000	-0.011	-0.072
-673.135	24.561	-0.328	-0.271
-672.120	1.577	0.420	0.302
-671.105	415.120	-0.083	0.176
-670.091	118.924	0.125	-0.154
-669.076	-159.352	0.316	-0.018
-668.062	5.663	-0.201	-0.148
-667.047	-3.751	-0.240	-0.166
-666.032	-200.000	-0.010	-0.372
-665.018	70.100	-0.284	-0.292
-664.003	56.106	0.108	-0.105
-662.989	-200.000	0.001	0.074
-661.974	108.604	-0.050	-0.059
-660.959	-200.000	0.021	0.158
-659.945	5.002	0.063	-0.046
-658.930	9.745	-0.224	-0.169
-657.916	109.915	0.061	-0.073
-656.901	487.127	-0.124	0.281
-655.886	-99.853	0.067	-0.017
-654.872	-84.391	0.056	-0.018
-653.857	-31.195	0.317	0.178
-652.843	229.088	0.135	0.219
-651.828	800.000	-0.055	-0.152
-650.814	-200.000	-0.053	-0.435
-649.799	505.451	-0.117	-0.271
-648.784	800.000	0.026	0.099
-647.770	800.000	-0.074	-0.252
-646.755	749.465	-0.094	0.252
-645.741	-200.000	0.069	0.479
-644.726	-82.156	-0.258	0.084
-643.711	-66.074	-0.150	-0.060
-642.697	-119.988	0.175	-0.030
-641.682	143.703	0.111	0.148
-640.668	474.775	-0.190	-0.427
-639.653	800.000	0.047	-0.198
-638.638	-200.000	0.055	-0.308
-637.624	55.399	0.041	0.040
-636.609	69.775	0.280	0.288
-635.595	800.000	-0.061	-0.197
-634.580	-100.805	-0.193	0.047
-633.565	-87.332	-0.091	0.028
-632.551	70.373	-0.098	0.101
-631.536	-76.419	-0.100	-0.035
-630.522	98.831	-0.051	0.059
-629.507	-148.900	0.204	0.016
-628.492	-23.731	-0.316	-0.189
-627.478	800.000	-0.073	-0.270
-626.463	475.278	0.045	-0.102
-625.449	-143.414	-0.245	-0.023
-624.434	-11.437	0.048	-0.031
-623.419	-40.763	-0.316	-0.163
-622.405	-200.000	0.017	0.145
-621.390	-127.602	0.227	0.033
-620.376	281.312	-0.039	0.069
-619.361	-106.457	-0.305	-0.068
-618.346	710.554	-0.052	-0.138
-617.332	-200.000	-0.003	0.102
-616.317	781.170	-0.032	-0.088
-615.303	130.111	0.180	0.229
-614.288	-105.046	-0.293	-0.067
-613.273	292.744	-0.102	-0.185
-612.259	-13.758	-0.129	-0.083
-611.244	-200.000	-0.039	-0.227
-610.230	-200.000	-0.004	-0.335
-609.215	30.684	0.308	-0.263
-608.201	21.180	0.261	-0.211
-607.186	-100.656	-0.235	-0.058
-606.171	192.308	0.133	0.200
-605.157	207.599	0.151	0.235
-604.142	404.160	0.068	-0.142
-603.128	142.566	-0.191	-0.253
-602.113	496.132	-0.121	0.277
-601.098	-200.000	0.051	0.265
-600.084	-26.653	0.220	-0.128
-599.069	-37.776	-0.283	-0.150
-598.055	-135.712	-0.136	-0.016
-597.040	-99.669	0.333	-0.083
-596.025	-151.243	0.345	0.026
-595.011	-200.000	-0.001	-0.107
-593.996	44.005	0.216	0.197
-592.982	-200.000	-0.030	0.142
-591.967	-112.820	0.522	0.103
-590.952	-200.000	-0.010	-0.412
-589.938	12.645	0.152	-0.116
-588.923	800.000	-0.078	-0.303
-587.909	57.910	-0.286	0.278
-586.894	24.174	0.157	-0.129
-585.879	18.144	-0.172	-0.137
-584.865	293.960	-0.018	-0.033
-583.850	-112.848	0.198	-0.039
-582.836	45.294	-0.205	0.188
-581.821	82.462	-0.110	-0.119
-580.806	800.000	0.075	0.255
-579.792	365.180	0.039	0.078
-578.777	117.993	-0.138	-0.170
-577.763	-18.066	-0.297	0.185
-576.748	-200.000	-0.024	0.149
-575.733	-163.847	0.220	-0.010
-574.719	-66.392	-0.094	0.037
-573.704	443.859	0.076	0.166
-572.690	309.354	-0.030	-0.055
-571.675	800.000	-0.062	0.227
-570.661	188.566	0.110	-0.164
-569.646	-44.726	-0.186	-0.092
-568.631	40.539	-0.166	-0.148
-567.617	-96.628	0.175	0.046
-566.602	-200.000	0.047	-0.565
-565.588	-200.000	0.033	-0.251
-564.573	800.000	-0.075	-0.283
-563.558	-107.504	-0.198	0.043
-562.544	-80.204	-0.221	0.074
-561.529	-91.516	0.173	-0.049
-560.515	-200.000	0.002	-0.032
-559.500	-75.501	-0.172	-0.061
-558.485	270.270	-0.076	0.133
-557.471	31.154	-0.301	-0.257
-556.456	-147.324	0.165	0.014
-555.442	73.230	-0.090	0.094
-554.427	-169.945	-0.239	-0.009
-553.412	-200.000	0.031	0.310
-552.398	76.733	-0.329	-0.347
-551.383	-166.297	-0.376	-0.016
-550.369	-124.741	-0.069	-0.011
-549.354	-52.882	0.272	0.125
-548.339	242.513	0.051	-0.084
-547.325	-200.000	0.033	-0.193
-546.310	-34.969	0.271	-0.147
-545.296	564.755	0.081	-0.196
-544.281	-50.639	0.243	-0.114
-543.266	100.354	0.317	0.365
-542.252	-200.000	-0.042	-0.191
-541.237	-15.143	0.091	-0.058
-540.223	525.793	0.092	0.215
-539.208	586.029	0.127	-0.310
-538.193	282.060	-0.129	0.230
-537.179	582.027	0.071	0.172
-536.164	-200.000	-0.018	-0.230
-535.150	10.867	-0.107	0.081
-534.135	-139.103	-0.228	0.024
-533.121	79.446	0.187	0.199
-532.106	-70.758	0.269	-0.101
-531.091	33.189	-0.225	-0.193
-530.077	-41.089	-0.140	-0.072
-529.062	800.000	0.065	0.182
-528.048	257.025	-0.158	0.270
-527.033	800.000	0.091	-0.260
-526.018	-200.000	-0.020	0.105
-525.004	800.000	0.060	0.240
-523.989	-200.000	-0.015	-0.209
-522.975	84.740	-0.059	0.064
-521.960	-148.663	0.192	0.016
-520.945	365.378	0.033	0.066
-519.931	-48.326	0.238	0.114
-518.916	-9.568	-0.075	0.049
-517.902	-155.898	0.245	-0.015
-516.887	-46.107	0.154	0.075
-515.872	800.000	-0.033	0.137
-514.858	22.506	-0.113	0.091
-513.843	-200.000	-0.023	0.102
-512.829	34.405	-0.064	0.056
-511.814	121.168	-0.131	0.161
-510.799	-21.192	-0.258	-0.157
-509.785	141.879	-0.164	-0.215
-508.770	79.448	0.188	-0.200
-507.756	-51.220	0.210	0.098
-506.741	800.000	0.073	0.316
-505.726	800.000	-0.034	-0.107
-504.712	-111.643	-0.455	-0.092
-503.697	800.000	0.071	-0.210
-502.683	85.871	-0.236	0.257
-501.668	-155.478	-0.231	0.015
-500.653	-27.979	0.327	-0.188
-499.639	-120.161	-0.092	0.016
-498.624	56.740	-0.026	-0.025
-497.610	354.511	-0.098	0.193
-496.595	-162.308	-0.175	-0.009
-495.581	132.112	0.180	-0.229
-494.566	252.123	0.035	-0.059
-493.551	-23.212	-0.280	0.167
-492.537	772.799	-0.054	-0.146
-491.522	-200.000	0.068	0.376
-490.508	64.399	-0.106	0.105
-489.493	53.076	-0.244	-0.231
-488.478	-137.319	-0.389	0.044
-487.464	-47.190	-0.186	0.090
-486.449	-113.362	0.124	0.024
-485.435	-55.241	0.200	0.089
-484.420	-83.531	-0.307	-0.097
-483.405	136.098	0.135	-0.174
-482.391	-134.592	-0.178	0.021
-481.376	-56.539	0.410	0.180
-480.362	-200.000	0.000	0.640
-479.347	138.930	0.011	0.015
-478.332	-172.664	-0.276	0.009
-477.318	-200.000	0.017	-0.142
-476.303	53.677	-0.327	-0.311
-475.289	800.000	-0.130	-0.459
-474.274	-150.856	0.192	0.014
-473.259	-51.128	0.129	0.060
-472.245	-80.270	-0.434	0.144
-471.230	-200.000	-0.039	0.180
-470.216	-200.000	0.007	-0.186
-469.201	254.578	0.057	-0.097
-468.186	-200.000	0.027	0.141
-467.172	-200.000	-0.011	0.302
-466.157	-63.233	-0.097	0.040
-465.143	-113.694	0.206	0.040
-464.128	99.301	0.329	0.377
-463.113	-200.000	0.015	-0.101
-462.099	71.552	-0.362	-0.372
-461.084	592.494	0.071	0.173
-460.070	769.755	0.130	0.351
-459.055	323.603	-0.066	0.125
-458.040	-200.000	0.047	0.264
-457.026	192.200	0.069	-0.102
-456.011	63.634	0.128	0.128
-454.997	-112.244	-0.136	0.027
-453.982	-42.664	-0.258	-0.130
-452.968	-200.000	0.004	-0.088
-451.953	775.904	0.083	-0.223
-450.938	-142.572	0.354	-0.034
-449.924	-48.633	0.170	-0.081
-448.909	201.861	0.188	0.287
-447.895	-162.904	0.327	0.016
-446.880	-26.394	-0.125	0.072
-445.865	160.242	0.092	0.127
-444.851	104.800	-0.157	0.183
-443.836	-141.863	0.094	0.009
-442.822	7.059	-0.058	-0.043
-441.807	436.687	0.097	-0.210
-440.792	482.413	-0.034	0.075
-439.778	264.669	0.220	-0.379
-438.763	-33.130	-0.230	-0.126
-437.749	648.295	0.071	-0.179
-436.734	359.755	-0.143	-0.282
-435.719	356.455	0.035	-0.069
-434.705	-200.000	-0.007	0.167
-433.690	800.000	-0.033	-0.101
-432.676	304.064	0.069	-0.127
-431.661	-5.523	-0.266	-0.180
-430.646	800.000	0.063	-0.271
-429.632	110.812	0.164	0.195
-428.617	-124.056	-0.150	-0.023
-427.603	-34.132	0.232	-0.126
-426.588	22.203	-0.058	0.047
-425.573	800.000	-0.074	-0.310
-424.559	-21.157	0.361	-0.218
-423.544	469.434	-0.092	-0.205
-422.530	-57.966	-0.224	0.097
-421.515	132.905	0.101	0.129
-420.500	-200.000	0.039	0.272
-419.486	-200.000	0.054	-0.421
-418.471	26.655	-0.040	0.033
-417.457	-200.000	-0.040	-0.192
-416.442	31.639	-0.068	0.058
-415.428	-200.000	-0.037	0.216
-414.413	-81.811	0.206	0.067
-413.398	5.983	-0.137	-0.100
-412.384	-69.015	-0.146	-0.056
-411.369	800.000	0.067	-0.287
-410.355	439.001	0.040	0.085
-409.340	446.071	0.069	0.150
-408.325	-200.000	-0.010	0.195
-407.311	313.548	-0.119	-0.221
-406.296	366.780	0.029	0.058
-405.282	-77.239	-0.355	-0.122
-404.267	-200.000	-0.016	-0.088
-403.252	77.427	0.128	-0.134
-402.238	91.230	0.211	0.234
-401.223	-22.475	-0.221	0.132
-400.209	-12.103	-0.060	-0.039
-399.194	-51.459	0.094	0.043
-398.179	-112.614	0.208	-0.041
-397.165	-102.734	-0.382	0.090
-396.150	-118.625	0.075	0.013
-395.136	-66.999	0.238	0.093
-394.121	26.324	-0.124	0.102
-393.106	-63.764	0.244	-0.099
-392.092	-53.566	0.170	-0.077
-391.077	-106.720	0.266	0.058
-390.063	61.989	0.255	-0.251
-389.048	102.484	0.115	-0.133
-388.033	-24.282	0.046	0.027
-387.019	-118.894	-0.071	0.012
-386.004	-193.784	-0.065	0.001
-384.990	-56.255	0.163	-0.071
-383.975	-63.184	0.201	0.082
-382.960	-198.651	0.184	0.001
-381.946	301.548	-0.048	-0.088
-380.931	-136.076	0.484	-0.056
-379.917	-200.000	0.065	0.501
-378.902	-200.000	0.003	-0.110
-377.888	55.385	0.095	-0.091
-376.873	-200.000	0.036	0.237
-375.858	-164.571	-0.068	0.003
-374.844	-200.000	0.022	0.283
-373.829	105.791	0.140	0.163
-372.815	800.000	-0.099	-0.320
-371.800	800.000	-0.062	0.205
-370.785	-200.000	0.033	-0.296
-369.771	26.555	-0.072	0.059
-368.756	-16.656	-0.277	0.173
-367.742	46.694	-0.168	0.154
-366.727	-146.184	-0.227	0.020
-365.712	-112.050	-0.199	0.040
-364.698	-126.240	-0.324	-0.048
-363.683	-71.744	-0.221	0.081
-362.669	609.041	0.081	0.199
-361.654	-131.895	0.273	-0.035
-360.639	14.115	-0.077	-0.059
-359.625	-36.797	0.092	-0.049
-358.610	196.980	-0.072	0.108
-357.596	-45.419	0.130	-0.063
-356.581	-16.536	-0.216	-0.135
-355.566	761.692	0.079	0.212
-354.552	-9.196	0.226	0.149
-353.537	-200.000	0.020	0.180
-352.523	-200.000	0.083	0.488
-351.508	-73.807	-0.110	0.040
-350.493	185.039	-0.033	0.049
-349.479	-13.847	-0.181	0.115
-348.464	-101.457	0.176	0.042
-347.450	-96.174	-0.220	-0.057
-346.435	-4.234	0.166	0.113
-345.420	-200.000	0.009	-0.227
-344.406	42.088	-0.051	-0.045
-343.391	800.000	-0.115	-0.410
-342.377	136.150	-0.124	0.159
-341.362	-200.000	0.026	0.138
-340.348	-48.829	-0.156	-0.074
-339.333	360.031	-0.194	0.382
-338.318	-47.515	0.082	0.039
-337.304	-200.000	0.023	0.139
-336.289	-18.203	0.115	-0.071
-335.275	598.445	0.037	-0.090
-334.260	57.372	0.163	-0.157
-333.245	-200.000	0.034	-0.254
-332.231	-106.462	0.328	0.072
-331.216	-115.580	0.223	-0.041
-330.202	-200.000	0.051	0.320
-329.187	178.175	0.047	0.068
-328.172	-124.498	0.334	-0.051
-327.158	333.037	-0.107	0.203
-326.143	-200.000	-0.005	-0.322
-325.129	70.064	-0.254	0.258
-324.114	-5.769	0.081	0.055
-323.099	281.427	0.052	-0.091
-322.085	-200.000	0.029	0.319
-321.070	800.000	0.035	0.136
-320.056	800.000	0.081	-0.257
-319.041	800.000	0.096	0.410
-318.026	-100.715	0.221	-0.054
-317.012	320.427	-0.089	0.167
-315.997	353.378	0.220	-0.430
-314.983	800.000	0.042	0.115
-313.968	-200.000	0.021	0.441
-312.953	106.515	0.043	0.050
-311.939	141.847	-0.080	-0.105
-310.924	403.735	-0.056	-0.115
-309.910	281.014	0.067	0.118
-308.895	244.621	-0.192	0.317
-307.880	91.543	0.092	-0.102
-306.866	-115.772	0.315	-0.058
-305.851	800.000	0.028	0.112
-304.837	-160.052	0.425	-0.023
-303.822	340.653	0.151	0.290
-302.807	800.000	0.104	-0.372
-301.793	443.478	0.081	-0.174
-300.778	800.000	0.143	0.392
-299.764	-56.466	0.080	0.035
-298.749	432.613	-0.213	-0.454
-297.735	-4.910	-0.211	0.143
-296.720	209.080	-0.224	-0.345
-295.705	382.031	-0.168	-0.339
-294.691	-149.277	-0.137	-0.011
-293.676	258.189	-0.067	-0.114
-292.662	278.618	-0.335	-0.587
-291.647	704.674	0.084	-0.219
-290.632	-137.832	-0.381	0.042
-289.618	400.674	0.059	0.121
-288.603	800.000	0.093	0.288
-287.589	59.481	0.137	0.133
-286.574	125.858	0.107	0.133
-285.559	107.962	-0.234	-0.274
-284.545	731.620	0.067	-0.175
-283.530	800.000	-0.019	0.079
-282.516	12.828	-0.238	-0.181
-281.501	800.000	0.018	-0.065
-280.486	-12.901	-0.162	0.104
-279.472	111.068	0.270	0.320
-278.457	322.214	0.101	-0.188
-277.443	-97.522	0.177	-0.045
-276.428	-11.899	0.249	-0.160
-275.413	-68.372	-0.248	0.094
-274.399	39.527	-0.146	0.129
-273.384	288.488	-0.053	0.094
-272.370	-200.000	-0.008	0.115
-271.355	-169.058	0.284	-0.010
-270.340	45.104	-0.131	-0.119
-269.326	-150.713	0.159	-0.012
-268.311	359.012	0.114	0.223
-267.297	-168.034	-0.194	-0.007
-266.282	311.513	0.265	-0.489
-265.267	90.147	-0.136	0.149
-264.253	151.956	-0.055	0.073
-263.238	-200.000	0.002	0.371
-262.224	-11.642	0.197	-0.127
-261.209	76.443	-0.168	-0.175
-260.195	-61.907	0.187	0.077
-259.180	-200.000	0.021	-0.141
-258.165	56.998	-0.388	0.371
-257.151	800.000	-0.068	0.210
-256.136	204.568	0.162	0.247
-255.122	-0.680	-0.207	0.144
-254.107	-43.831	0.053	0.026
-253.092	351.866	-0.119	0.231
-252.078	144.400	0.033	0.043
-251.063	145.968	0.130	0.171
-250.049	-122.527	0.201	-0.032
-249.034	234.772	-0.177	0.287
-248.019	-200.000	-0.041	0.488
-247.005	23.463	0.156	0.126
-245.990	-51.672	0.245	0.112
-244.976	180.139	0.171	0.246
-243.961	8.222	0.017	0.013
-242.946	50.491	0.123	0.114
-241.932	-46.417	0.341	-0.165
-240.917	103.179	-0.170	0.195
-239.903	-12.105	0.258	0.166
-238.888	261.974	0.155	-0.264
-237.873	-102.490	-0.254	0.060
-236.859	334.095	-0.115	0.218
-235.844	-200.000	-0.219	-0.000
-234.830	104.191	0.141	-0.163
-233.815	-11.826	0.171	0.110
-232.800	-173.317	0.164	0.005
-231.786	-200.000	0.015	-0.073
-230.771	-111.747	-0.082	0.016
-229.757	329.944	0.073	0.138
-228.742	342.076	-0.281	-0.539
-227.727	189.856	-0.071	-0.104
-226.713	90.406	-0.123	0.135
-225.698	16.253	0.259	-0.201
-224.684	-1.065	0.076	0.053
-223.669	-29.162	-0.208	0.117
-222.655	-141.412	0.260	-0.026
-221.640	-200.000	-0.003	-0.065
-220.625	800.000	-0.159	-0.506
-219.611	90.231	-0.134	0.147
-218.596	-200.000	-0.034	0.173
-217.582	-70.017	-0.411	-0.153
-216.567	-26.541	0.219	-0.125
-215.552	174.039	0.038	0.054
-214.538	-6.552	-0.211	0.141
-213.523	179.322	-0.082	0.118
-212.509	27.669	-0.335	0.276
-211.494	-17.687	-0.202	-0.124
-210.479	77.743	-0.239	-0.250
-209.465	60.375	0.073	0.071
-208.450	404.795	-0.097	0.199
-207.436	107.808	0.259	-0.302
-206.421	-200.000	0.117	-0.578
-205.406	-27.022	0.015	-0.008
-204.392	-40.891	-0.228	-0.116
-203.377	451.454	0.195	0.422
-202.363	-200.000	0.036	0.204
-201.348	-106.898	-0.169	0.037
-200.333	756.285	0.120	0.317
-199.319	232.953	-0.038	0.062
-198.304	-96.862	0.213	0.055
-197.290	-85.844	-0.253	-0.077
-196.275	67.496	-0.174	-0.174
-195.260	-128.605	0.163	-0.023
-194.246	-6.884	0.173	-0.115
-193.231	800.000	0.030	-0.092
-192.217	-80.001	0.067	-0.022
-191.202	-111.445	0.349	-0.070
-190.187	-108.872	0.150	0.031
-189.173	-200.000	-0.396	0.002
-188.158	1.315	-0.075	0.053
-187.144	-103.808	0.136	0.031
-186.129	-200.000	0.012	0.158
-185.114	800.000	-0.102	-0.308
-184.100	-103.984	0.207	-0.047
-183.085	-29.396	-0.216	-0.121
-182.071	33.885	-0.106	0.090
-181.056	-45.526	-0.468	0.227
-180.042	60.332	0.276	0.267
-179.027	-200.000	0.005	-0.183
-178.012	800.000	0.083	0.246
-176.998	-120.244	0.218	0.036
-175.983	-147.133	-0.319	0.027
-174.969	-129.044	0.185	0.025
-173.954	775.167	-0.098	-0.261
-172.939	23.531	0.341	0.274
-171.925	-10.957	-0.029	0.019
-170.910	168.635	0.091	0.126
-169.896	188.149	-0.269	-0.393
-168.881	37.322	-0.069	-0.060
-167.866	-161.888	-0.062	0.003
-166.852	539.465	-0.065	-0.152
-165.837	-200.000	-0.007	0.062
-164.823	79.462	-0.332	0.349
-163.808	800.000	0.051	-0.153
-162.793	-43.407	-0.027	0.014
-161.779	-52.532	-0.191	0.086
-160.764	-95.033	0.223	-0.059
-159.750	-66.920	-0.291	-0.112
-158.735	-0.640	0.163	-0.113
-157.720	99.993	0.202	-0.229
-156.706	-116.391	0.301	-0.054
-155.691	-200.000	0.025	-0.164
-154.677	-73.444	0.251	-0.090
-153.662	-200.000	-0.033	-0.360
-152.647	800.000	0.053	0.211
-151.633	156.006	0.119	0.160
-150.618	190.675	0.165	-0.243
-149.604	-40.896	-0.097	0.049
-148.589	-138.644	-0.371	0.040
-147.574	-144.352	-0.021	-0.002
-146.560	800.000	0.039	0.108
-145.545	295.676	-0.113	0.203
-144.531	-135.752	-0.215	0.025
-143.516	-200.000	0.010	-0.155
-142.502	-200.000	-0.051	0.240
-141.487	-132.289	0.190	-0.024
-140.472	800.000	0.042	-0.121
-139.458	800.000	0.060	-0.248
-138.443	-105.326	0.369	0.082
-137.429	6.208	0.184	0.133
-136.414	146.350	-0.084	0.110
-135.399	800.000	-0.017	-0.059
-134.385	44.131	-0.118	-0.106
-133.370	-200.000	-0.017	-0.160
-132.356	79.029	0.148	0.155
-131.341	-74.335	-0.163	0.058
-130.326	161.281	-0.219	-0.298
-129.312	-200.000	-0.003	-0.053
-128.297	-90.902	0.207	-0.058
-127.283	12.640	0.251	-0.189
-126.268	5.284	-0.082	-0.059
-125.253	-200.000	-0.023	-0.175
-124.239	103.506	0.250	0.286
-123.224	423.298	-0.037	0.077
-122.210	-200.000	-0.036	0.208
-121.195	-71.722	0.102	-0.037
-120.180	-123.493	0.095	-0.015
-119.166	2.864	0.150	-0.107
-118.151	-200.000	0.020	-0.251
-117.137	242.684	-0.229	-0.375
-116.122	-12.229	0.259	-0.166
-115.107	40.858	0.157	-0.139
-114.093	-102.377	-0.181	-0.042
-113.078	-200.000	0.041	-0.228
-112.064	16.954	0.336	-0.259
-111.049	94.047	0.192	-0.212
-110.034	-200.000	0.032	0.169
-109.020	-109.193	-0.191	-0.040
-108.005	-108.058	0.162	0.034
-106.991	-200.000	0.009	-0.253
-105.976	-63.048	-0.256	-0.103
-104.962	197.012	-0.145	0.216
-103.947	-200.000	0.051	0.356
-102.932	556.584	-0.088	0.207
-101.918	-144.954	-0.301	0.027
-100.903	276.846	0.073	0.127
-99.889	659.500	-0.088	0.222
-98.874	785.081	0.131	-0.350
-97.859	-26.803	0.144	-0.082
-96.845	50.495	-0.303	0.280
-95.830	-106.872	0.401	0.087
-94.816	79.165	-0.144	-0.151
-93.801	112.956	-0.196	0.232
-92.786	1.237	0.262	-0.183
-91.772	800.000	-0.005	0.016
-90.757	800.000	0.012	0.039
-89.743	-102.460	-0.358	0.084
-88.728	187.380	-0.113	0.165
-87.713	37.824	0.131	0.113
-86.699	132.790	0.261	0.329
-85.684	-72.757	-0.084	-0.030
-84.670	121.525	-0.071	0.087
-83.655	-19.855	-0.101	0.061
-82.640	-200.000	0.000	-0.270
-81.626	-2.240	-0.014	0.010
-80.611	-50.613	0.499	-0.229
-79.597	-200.000	-0.001	-0.015
-78.582	-90.184	0.223	0.063
-77.567	-200.000	-0.012	0.138
-76.553	559.236	0.128	0.301
-75.538	800.000	-0.036	0.113
-74.524	126.333	-0.119	-0.147
-73.509	141.315	0.200	-0.258
-72.494	47.759	-0.374	0.340
-71.480	-108.009	-0.438	0.093
-70.465	464.873	-0.023	-0.051
-69.451	-71.985	0.490	0.177
-68.436	116.164	-0.144	-0.172
-67.422	-92.317	0.430	0.118
-66.407	800.000	-0.048	0.130
-65.392	800.000	0.025	-0.095
-64.378	800.000	0.052	0.218
-63.363	518.308	0.038	0.087
-62.349	-200.000	0.001	0.138
-61.334	54.729	-0.982	-0.922
-60.319	188.268	0.469	0.682
-59.305	800.000	-0.329	-1.095
-58.290	416.246	0.595	1.237
-57.276	406.834	0.754	1.550
-56.261	-200.000	118.633	611.444
-55.246	416.969	1523.409	3167.422
-54.232	149.812	2674.240	3530.460
-53.217	96.690	2145.352	2392.918
-52.203	35.617	1671.659	1429.893
-51.188	29.006	1488.241	1228.969
-50.173	26.917	1463.786	1194.985
-49.159	47.600	1529.687	1389.258
-48.144	46.345	1544.446	1394.104
-47.130	28.871	1496.135	1234.387
-46.115	26.131	1479.831	1202.655
-45.100	25.875	1476.524	1198.222
-44.086	25.787	1474.818	1196.207
-43.071	25.867	1472.983	1195.201
-42.057	25.799	1471.755	1193.706
-41.042	25.827	1470.166	1192.554
-40.027	25.868	1468.346	1191.302
-39.013	25.843	1466.389	1189.503
-37.998	25.667	1466.554	1188.424
-36.984	25.819	1464.841	1187.992
-35.969	25.763	1463.717	1186.667
-34.954	25.787	1462.347	1185.664
-33.940	25.771	1461.170	1184.556
-32.925	25.846	1459.845	1183.934
-31.911	25.888	1458.161	1182.791
-30.896	25.846	1457.198	1181.692
-29.881	25.891	1456.092	1181.039
-28.867	25.883	1454.433	1179.598
-27.852	25.932	1453.543	1179.151
-26.838	25.883	1451.931	1177.474
-25.823	25.914	1450.069	1176.117
-24.809	25.795	1449.169	1174.564
-23.794	25.870	1447.400	1173.573
-22.779	25.874	1446.439	1172.773
-21.765	25.983	1444.867	1172.163
-20.750	25.903	1443.886	1170.801
-19.736	25.888	1443.200	1170.097
-18.721	25.931	1442.079	1169.422
-17.706	25.927	1440.915	1168.404
-16.692	25.740	1439.886	1166.315
-15.677	25.872	1438.172	1165.735
-14.663	25.786	1437.913	1164.920
-13.648	25.821	1437.051	1164.404
-12.633	25.847	1436.293	1163.911
-11.619	25.836	1435.458	1163.116
-10.604	25.869	1434.737	1162.698
-9.590	25.835	1433.943	1161.794
-8.575	25.920	1432.454	1161.086
-7.560	25.837	1432.055	1160.180
-6.546	25.848	1431.071	1159.413
-5.531	25.807	1430.243	1158.429
-4.517	25.797	1429.341	1157.586
-3.502	25.885	1428.243	1157.218
-2.487	25.835	1427.403	1156.170
-1.473	25.864	1426.000	1155.177
-0.458	25.813	1425.012	1154.001
0.556	23.963	1414.993	1141.436
1.571	20.536	1390.204	1099.693
2.586	16.673	1329.694	1028.317
3.600	14.900	1248.279	955.148
4.615	13.946	1204.794	916.532
5.629	12.098	1150.102	865.106
6.644	6.021	1070.269	775.073
7.659	1.043	1034.205	725.109
8.673	0.255	1028.695	717.429
9.688	0.143	1025.529	714.628
10.702	0.172	1024.342	713.874
11.717	0.129	1022.067	712.023
12.731	2.128	1023.219	722.222
13.746	8.619	1032.126	759.328
14.761	14.956	1040.118	795.361
15.775	16.873	1041.604	805.546
16.790	16.448	1040.164	802.345
17.804	15.569	1037.670	796.187
18.819	14.560	1036.254	790.249
19.834	14.109	1035.244	787.275
20.848	13.817	1034.414	785.194
21.863	13.720	1033.100	783.668
22.877	13.425	1032.213	781.532
23.892	13.342	1031.144	780.265
24.907	13.135	1030.851	778.996
25.921	13.156	1029.986	778.371
26.936	13.139	1029.766	778.057
27.950	13.167	1029.149	777.656
28.965	13.272	1027.682	776.969
29.980	13.183	1027.579	776.406
30.994	13.455	1025.998	776.417
32.009	13.317	1025.420	775.267
33.023	13.536	1024.337	775.403
34.038	13.399	1023.876	774.346
35.053	13.312	1023.136	773.311
36.067	13.335	1022.111	772.573
37.082	13.277	1021.554	771.813
38.096	13.264	1020.703	771.044
39.111	13.461	1019.807	771.213
40.126	13.498	1018.904	770.634
41.140	13.297	1017.646	768.681
42.155	13.236	1017.228	768.016
43.169	13.198	1016.227	767.017
44.184	13.206	1015.128	766.153
45.199	13.219	1014.185	765.433
46.213	13.140	1012.668	763.856
47.228	13.113	1012.343	763.419
48.242	13.255	1011.230	763.171
49.257	13.372	1009.853	762.601
50.271	13.328	1009.215	761.850
51.286	13.327	1008.360	761.133
52.301	13.248	1007.834	760.303
53.315	13.374	1006.706	759.966
54.330	13.346	1005.997	759.232
55.344	13.266	1005.067	758.098
56.359	13.273	1004.335	757.510
57.374	13.172	1003.636	756.456
58.388	13.185	1002.410	755.521
59.403	13.109	1001.789	754.638
60.417	13.167	1001.130	754.342
61.432	13.208	1000.649	754.100
62.447	13.221	999.780	753.438
63.461	13.150	998.775	752.288
64.476	13.188	997.668	751.563
65.490	13.179	996.711	750.735
66.505	13.295	996.071	750.712
67.520	13.126	995.669	749.576
68.534	13.103	994.908	748.830
69.549	13.158	994.644	748.819
70.563	13.255	993.371	748.230
71.578	13.162	992.990	747.455
72.593	13.139	992.029	746.566
73.607	13.037	991.114	745.349
74.622	13.204	990.298	745.422
75.636	13.139	989.440	744.416
76.651	13.092	988.593	743.502
77.666	13.090	987.924	742.925
78.680	13.007	987.420	742.107
79.695	13.186	986.613	742.238
80.709	13.134	986.113	741.564
81.724	13.264	985.334	741.494
82.739	13.232	984.762	740.858
83.753	13.264	983.773	740.190
84.768	13.192	983.333	739.471
85.782	13.284	982.577	739.251
86.797	13.398	981.567	738.931
87.812	13.432	980.211	737.999
88.826	13.296	980.044	737.202
89.841	13.204	979.325	736.182
90.855	13.441	978.052	736.216
91.870	13.347	977.764	735.518
92.884	13.455	976.666	735.105
93.899	13.367	975.937	734.099
94.914	13.431	975.141	733.720
95.928	13.580	974.105	733.538
96.943	13.505	973.948	733.020
97.957	13.423	973.235	732.056
98.972	13.445	972.286	731.377
99.987	13.462	971.180	730.556
101.001	13.484	970.992	730.444
102.016	13.336	970.547	729.392
103.030	13.374	969.557	728.750
104.045	13.265	968.581	727.475
105.060	13.431	967.498	727.325
106.074	13.391	966.485	726.322
107.089	13.388	965.520	725.524
108.103	13.227	964.699	724.137
109.118	13.212	964.064	723.531
110.133	13.132	963.326	722.562
111.147	13.221	962.274	722.096
112.162	13.247	961.341	721.445
113.176	13.271	960.652	720.972
114.191	13.208	960.052	720.183
115.206	13.366	958.897	719.937
116.220	13.380	957.831	719.138
117.235	13.223	957.433	718.091
118.249	13.272	956.521	717.558
119.264	13.261	955.553	716.718
120.279	13.479	954.588	716.875
121.293	13.199	954.450	715.498
122.308	13.367	953.220	715.239
123.322	13.221	952.445	713.961
124.337	13.214	951.809	713.393
125.352	13.356	950.128	712.681
126.366	13.349	949.317	711.982
127.381	13.267	948.454	710.914
128.395	13.198	947.605	709.923
129.410	13.234	946.531	709.210
130.424	13.261	945.757	708.681
131.439	13.385	944.373	708.112
132.454	13.339	943.821	707.441
133.468	13.323	943.451	707.029
134.483	13.350	942.437	706.322
135.497	13.165	941.917	705.081
136.512	13.220	941.225	704.737
137.527	13.327	940.343	704.469
138.541	13.382	939.514	704.020
139.556	13.426	938.636	703.487
140.570	13.286	938.552	702.765
141.585	13.441	936.909	702.132
142.600	13.378	936.388	701.410
143.614	13.555	935.488	701.425
144.629	13.466	935.477	700.976
145.643	13.617	934.334	700.697
146.658	13.520	933.382	699.513
147.673	13.595	932.370	699.008
148.687	13.623	931.583	698.473
149.702	13.354	931.027	696.862
150.716	13.374	929.961	696.090
151.731	13.491	929.363	696.069
152.746	13.392	928.701	695.098
153.760	13.507	927.671	694.746
154.775	13.498	927.111	694.228
155.789	13.504	926.120	693.452
156.804	13.652	925.594	693.615
157.819	13.567	924.819	692.616
158.833	13.588	924.098	692.104
159.848	13.653	923.504	691.869
160.862	13.771	922.420	691.488
161.877	13.765	922.082	691.146
162.892	13.679	921.235	690.092
163.906	13.549	920.178	688.701
164.921	13.565	919.517	688.210
165.935	13.610	918.689	687.718
166.950	13.511	917.821	686.595
167.964	13.610	917.208	686.486
168.979	13.613	915.627	685.255
169.994	13.575	914.988	684.558
171.008	13.586	914.280	684.015
172.023	13.619	913.522	683.523
173.037	13.776	912.997	683.717
174.052	13.691	912.067	682.612
175.067	13.858	911.043	682.470
176.081	13.729	910.185	681.236
177.096	13.684	909.710	680.634
178.110	13.674	908.924	679.945
179.125	13.751	908.247	679.694
180.140	13.830	907.541	679.430
181.154	13.696	907.071	678.472
182.169	13.848	906.074	678.286
183.183	13.757	905.857	677.693
184.198	13.873	904.959	677.432
185.213	13.849	904.575	676.987
186.227	13.899	903.877	676.610
187.242	13.902	903.552	676.320
188.256	13.924	902.342	675.444
189.271	13.866	902.006	674.895
190.286	13.972	901.032	674.536
191.300	13.886	900.663	673.853
192.315	13.747	899.741	672.538
193.329	13.854	898.981	672.344
194.344	13.753	898.356	671.411
195.359	13.859	897.683	671.276
196.373	13.862	897.275	670.924
197.388	13.927	896.705	670.700
198.402	13.939	896.350	670.423
199.417	13.982	896.293	670.495
200.432	14.076	895.274	670.053
201.446	14.110	894.669	669.680
202.461	14.196	894.354	669.728
203.475	14.226	893.804	669.376
204.490	14.227	893.364	668.995
205.504	14.195	892.434	668.110
206.519	14.316	891.509	667.845
207.534	14.293	890.724	667.106
208.548	14.109	890.611	666.222
209.563	14.215	889.699	665.907
210.577	14.211	888.768	665.134
211.592	14.247	888.569	665.071
212.607	14.346	887.679	664.742
213.621	14.364	887.246	664.430
214.636	14.248	886.645	663.457
215.650	14.310	886.165	663.287
216.665	14.366	885.167	662.703
217.680	14.243	885.155	662.147
218.694	14.226	884.775	661.736
219.709	14.385	884.171	661.858
220.723	14.454	883.424	661.516
221.738	14.421	882.436	660.586
222.753	14.428	881.540	659.883
223.767	14.397	880.875	659.207
224.782	14.475	880.148	658.912
225.796	14.431	879.557	658.237
226.811	14.558	878.801	658.116
227.826	14.553	877.933	657.387
228.840	14.414	877.897	656.754
229.855	14.547	876.704	656.324
230.869	14.512	876.500	655.977
231.884	14.350	876.185	655.048
232.899	14.361	875.612	654.602
233.913	14.482	874.249	654.001
234.928	14.558	873.286	653.520
235.942	14.396	873.385	652.903
236.957	14.458	872.494	652.419
237.972	14.379	872.102	651.761
238.986	14.508	871.056	651.425
240.001	14.425	870.775	650.834
241.015	14.484	869.682	650.187
242.030	14.555	869.186	650.036
243.045	14.590	868.266	649.430
244.059	14.641	867.894	649.290
245.074	14.680	866.996	648.713
246.088	14.724	866.532	648.481
247.103	14.721	865.954	647.980
248.117	14.693	865.670	647.601
249.132	14.710	865.286	647.319
250.147	14.710	864.549	646.710
251.161	14.920	863.736	646.859
252.176	14.861	863.356	646.291
253.190	15.002	861.890	645.679
254.205	15.042	861.766	645.682
255.220	14.861	861.372	644.632
256.234	14.976	860.778	644.575
257.249	15.094	859.737	644.192
258.263	14.911	859.730	643.426
259.278	15.054	858.831	643.247
260.293	15.088	858.333	642.947
261.307	15.128	857.769	642.619
262.322	15.067	857.155	641.871
263.336	15.114	856.299	641.354
264.351	15.227	856.029	641.527
265.366	15.189	855.369	640.830
266.380	15.206	854.723	640.352
267.395	15.277	853.898	639.948
268.409	15.251	853.457	639.462
269.424	15.148	852.489	638.289
270.439	15.162	852.147	638.030
271.453	15.328	851.586	638.185
272.468	15.144	850.857	636.883
273.482	15.278	850.074	636.747
274.497	15.226	849.825	636.309
275.512	15.155	849.124	635.458
276.526	15.301	848.211	635.270
277.541	15.332	847.644	634.909
278.555	15.225	847.169	634.092
279.570	15.456	846.661	634.529
280.585	15.332	846.246	633.693
281.599	15.474	845.403	633.543
282.614	15.497	844.519	632.909
283.628	15.318	844.363	632.063
284.643	15.414	843.557	631.764
285.657	15.413	843.058	631.330
286.672	15.500	842.551	631.222
287.687	15.522	841.968	630.811
288.701	15.423	841.862	630.303
289.716	15.466	841.167	629.892
290.730	15.482	840.622	629.488
291.745	15.440	840.189	628.948
292.760	15.547	838.959	628.372
293.774	15.544	838.445	627.923
294.789	15.528	837.960	627.443
295.803	15.557	837.351	627.041
296.818	15.541	836.939	626.616
297.833	15.524	836.480	626.155
298.847	15.612	835.610	625.773
299.862	15.721	834.514	625.305
300.876	15.612	834.331	624.707
301.891	15.556	833.859	624.089
302.906	15.778	832.713	624.000
303.920	15.734	832.187	623.386
304.935	15.689	832.023	623.043
305.949	15.665	831.488	622.498
306.964	15.844	830.451	622.328
307.979	15.817	829.901	621.761
308.993	15.924	829.600	621.876
310.008	15.894	829.204	621.414
311.022	16.010	828.197	621.033
312.037	15.890	828.068	620.438
313.052	15.843	827.935	620.110
314.066	15.844	827.037	619.386
315.081	15.947	826.205	619.088
316.095	15.901	825.712	618.494
317.110	15.950	825.259	618.281
318.125	15.918	824.585	617.602
319.139	15.830	824.497	617.159
320.154	15.877	824.247	617.090
321.168	16.002	823.040	616.591
322.183	15.941	822.957	616.251
323.197	16.080	822.074	616.042
324.212	15.898	821.697	615.041
325.227	16.071	820.931	615.044
326.241	15.956	820.552	614.287
327.256	16.062	820.159	614.322
328.270	16.037	819.698	613.831
329.285	15.972	819.052	613.056
330.300	16.141	818.238	613.009
331.314	16.115	817.757	612.498
332.329	16.214	817.213	612.398
333.343	16.121	816.740	611.652
334.358	16.137	815.987	611.093
335.373	16.135	815.637	610.766
336.387	16.100	815.187	610.249
337.402	16.139	814.714	609.984
338.416	16.138	814.012	609.401
339.431	16.288	813.696	609.651
340.446	16.142	812.908	608.482
341.460	16.295	812.386	608.587
342.475	16.382	811.625	608.278
343.489	16.486	811.142	608.234
344.504	16.297	810.886	607.310
345.519	16.406	810.443	607.314
346.533	16.381	809.573	606.519
347.548	16.409	809.595	606.581
348.562	16.392	808.768	605.847
349.577	16.372	808.329	605.396
350.592	16.408	807.474	604.832
351.606	16.344	807.612	604.651
352.621	16.310	806.888	603.932
353.635	16.367	806.667	603.918
354.650	16.307	806.235	603.328
355.665	16.599	805.275	603.598
356.679	16.467	805.024	602.885
357.694	16.532	804.945	603.003
358.708	16.518	803.861	602.088
359.723	16.611	803.144	601.830
360.738	16.638	802.639	601.495
361.752	16.484	802.724	600.957
362.767	16.523	802.233	600.677
363.781	16.503	801.706	600.157
364.796	16.707	800.790	600.142
365.810	16.706	800.634	599.966
366.825	16.798	800.354	600.030
367.840	16.762	800.401	599.885
368.854	16.748	799.756	599.298
369.869	16.907	799.200	599.390
370.883	16.663	798.730	598.125
371.898	16.754	798.168	597.971
372.913	16.896	797.291	597.760
373.927	16.796	797.000	597.140
374.942	16.765	796.321	596.468
375.956	16.780	795.765	596.049
376.971	16.874	795.340	596.009
377.986	17.054	794.366	595.860
379.000	16.828	794.214	594.899
380.015	16.928	793.890	594.956
381.029	17.045	792.956	594.612
382.044	17.035	792.512	594.193
383.059	16.950	791.934	593.409
384.073	16.947	791.421	592.960
385.088	17.072	790.783	592.869
386.102	16.967	790.491	592.230
387.117	16.988	789.912	591.816
388.132	17.014	789.476	591.528
389.146	17.030	789.156	591.292
390.161	17.071	788.881	591.178
391.175	17.144	788.188	590.857
392.190	17.098	787.820	590.369
393.205	17.102	787.765	590.291
394.219	17.120	787.158	589.847
395.234	17.171	786.347	589.364
396.248	17.182	785.538	588.744
397.263	17.028	785.551	588.168
398.278	17.082	785.381	588.176
399.292	17.144	784.450	587.641
400.307	17.071	783.959	586.966
401.321	17.082	783.993	586.980
402.336	17.018	783.766	586.534
403.350	17.220	782.935	586.560
404.365	17.286	782.633	586.511
405.380	17.159	782.441	585.875
406.394	17.233	781.589	585.439
407.409	17.251	781.182	585.146
408.423	17.374	781.069	585.434
409.438	17.381	780.600	585.055
410.453	17.420	780.022	584.702
411.467	17.521	779.399	584.529
412.482	17.365	779.093	583.715
413.496	17.615	778.406	584.004
414.511	17.570	778.052	583.532
415.526	17.581	777.890	583.398
416.540	17.585	777.410	582.999
417.555	17.645	777.055	582.888
418.569	17.535	776.576	582.100
419.584	17.590	775.996	581.803
420.599	17.674	775.538	581.694
421.613	113.911	1294.425	1483.789
422.628	97.546	1370.003	1483.881
