DTS Sentinel unit serial number:	SN413079Multiplexer serial number:	ORYXHardware model number:	OX4-SRSoftware version number:	ORYX F/W v4.00 Oryx Data Collector v3.7.2.0data status	okinstallation	princeton_trtdifferential loss correction	single-endedforward channel	channel 3reverse channel	N/Adate	2019/09/13time	06:52:35forward acquisition time	60.00reverse acquisition time	0.00gamma	496.2192k internal	0.2339k external	0.2339temperature offset calibration	1.0137default loss term (dB/km)	0.3790temperature slope calibration	1.0000multiplexer offset coefficient	1.0000multiplexer slope coefficient	1.0000fibre end	0.00T internal ref (°C)	26.00T ext. ref 1 (°C)	4.12T ext. ref 2 (°C)	20.62length (m)	temperature (°C)	Stokes	anti-Stokes-747.200	112.464	-0.075	0.090
-746.185	99.803	0.049	-0.057
-745.171	-200.000	-0.000	0.161
-744.156	-32.382	0.243	0.136
-743.142	396.610	0.115	-0.242
-742.127	-200.000	0.040	0.301
-741.112	669.855	-0.095	0.246
-740.098	101.066	-0.264	-0.309
-739.083	46.484	-0.206	0.191
-738.069	-42.137	-0.315	0.162
-737.054	13.238	0.129	-0.100
-736.039	654.728	-0.082	-0.210
-735.025	196.824	-0.089	0.137
-734.010	-200.000	-0.023	-0.379
-732.996	-200.000	-0.065	0.456
-731.981	-200.000	-0.037	-0.260
-730.966	-200.000	0.014	-0.115
-729.952	24.445	-0.399	0.330
-728.937	-200.000	0.019	0.161
-727.923	-72.015	0.308	-0.115
-726.908	604.748	-0.046	-0.115
-725.894	58.514	-0.140	-0.138
-724.879	7.709	-0.105	0.079
-723.864	58.132	0.105	-0.104
-722.850	42.589	0.129	-0.118
-721.835	-17.661	-0.085	-0.054
-720.821	800.000	0.057	-0.182
-719.806	113.168	0.262	-0.318
-718.791	-200.000	0.019	-0.220
-717.777	-30.318	-0.103	0.059
-716.762	59.527	-0.093	-0.091
-715.748	271.866	0.141	-0.250
-714.733	800.000	-0.025	0.089
-713.718	-37.646	-0.260	0.139
-712.704	-101.319	0.118	-0.029
-711.689	-68.110	-0.513	-0.200
-710.675	-1.713	-0.247	0.174
-709.660	-200.000	-0.069	-0.309
-708.645	800.000	0.075	-0.260
-707.631	800.000	0.079	-0.234
-706.616	-91.164	-0.258	0.074
-705.602	108.795	-0.149	-0.178
-704.587	-152.720	0.350	0.025
-703.572	-109.909	-0.076	-0.016
-702.558	1.601	0.270	0.195
-701.543	62.715	0.126	-0.127
-700.529	-0.148	0.252	-0.179
-699.514	-88.606	0.154	0.046
-698.499	-37.501	0.034	-0.018
-697.485	-141.814	0.099	-0.010
-696.470	255.081	0.121	-0.207
-695.456	73.639	0.143	-0.150
-694.441	-164.204	-0.270	-0.012
-693.426	251.135	0.108	-0.184
-692.412	-200.000	0.044	-0.202
-691.397	197.650	0.190	-0.290
-690.383	-200.000	-0.042	0.299
-689.368	-77.771	-0.237	-0.082
-688.354	-14.752	0.153	0.098
-687.339	800.000	-0.023	-0.078
-686.324	-174.178	-0.433	0.013
-685.310	-88.363	-0.217	0.065
-684.295	800.000	-0.093	-0.326
-683.281	113.802	0.052	0.064
-682.266	-78.389	-0.083	0.029
-681.251	-126.461	-0.231	-0.034
-680.237	-152.758	-0.177	0.013
-679.222	-120.149	-0.218	-0.037
-678.208	-200.000	0.160	0.000
-677.193	-32.012	0.139	-0.078
-676.178	-133.277	0.206	0.026
-675.164	-100.876	-0.058	-0.014
-674.149	243.859	-0.166	-0.278
-673.135	-89.454	-0.496	-0.146
-672.120	-119.586	-0.185	0.032
-671.105	-200.000	-0.027	-0.162
-670.091	-49.699	-0.175	0.083
-669.076	-200.000	-0.018	-0.128
-668.062	-79.004	0.271	-0.092
-667.047	-43.220	-0.207	-0.105
-666.032	-96.325	0.106	-0.028
-665.018	-173.327	0.444	0.013
-664.003	204.467	-0.130	-0.202
-662.989	64.182	0.075	-0.076
-661.974	720.091	-0.164	-0.435
-660.959	-200.000	-0.050	-0.315
-659.945	335.003	0.031	-0.060
-658.930	-112.004	-0.294	-0.059
-657.916	-94.727	-0.272	-0.074
-656.901	800.000	0.042	-0.160
-655.886	26.463	-0.169	-0.141
-654.872	-104.298	-0.287	-0.066
-653.857	-47.283	0.182	-0.089
-652.843	-41.851	0.067	0.034
-651.828	-18.746	-0.113	0.070
-650.814	137.037	-0.072	-0.093
-649.799	-115.218	-0.314	0.059
-648.784	-93.732	0.383	0.106
-647.770	-200.000	-0.010	0.227
-646.755	286.120	0.121	0.218
-645.741	-4.031	0.156	-0.108
-644.726	-31.855	0.206	0.115
-643.711	-145.117	0.305	0.028
-642.697	129.509	0.179	0.228
-641.682	-200.000	0.054	0.396
-640.668	-34.696	-0.142	0.078
-639.653	122.382	-0.207	-0.258
-638.638	-108.426	0.112	0.024
-637.624	147.403	0.256	-0.344
-636.609	80.630	-0.205	-0.221
-635.595	24.419	0.132	0.109
-634.580	-23.038	0.252	0.152
-633.565	-156.206	-0.038	-0.002
-632.551	800.000	0.156	0.479
-631.536	-200.000	0.012	-0.237
-630.522	281.858	-0.117	-0.209
-629.507	556.094	-0.083	0.201
-628.492	-200.000	-0.018	0.297
-627.478	800.000	-0.036	-0.136
-626.463	5.463	-0.129	-0.095
-625.449	58.033	-0.090	0.088
-624.434	227.928	-0.096	0.155
-623.419	693.540	0.126	0.329
-622.405	533.062	-0.193	-0.455
-621.390	-174.541	0.187	0.005
-620.376	-77.624	-0.182	-0.063
-619.361	-66.126	0.241	-0.096
-618.346	-93.975	0.253	0.069
-617.332	-31.663	0.095	0.053
-616.317	189.689	-0.166	0.249
-615.303	-108.329	0.070	0.015
-614.288	737.857	0.020	-0.053
-613.273	800.000	0.080	-0.271
-612.259	-22.868	0.065	-0.039
-611.244	-7.728	-0.157	0.106
-610.230	800.000	0.071	-0.294
-609.215	318.593	-0.018	0.033
-608.201	800.000	-0.063	0.197
-607.186	-64.051	-0.232	-0.094
-606.171	-133.204	0.253	-0.032
-605.157	248.722	0.119	-0.202
-604.142	26.353	-0.271	-0.226
-603.128	151.068	-0.085	-0.116
-602.113	184.492	0.180	-0.266
-601.098	65.430	-0.197	-0.198
-600.084	50.285	-0.078	-0.074
-599.069	-73.825	-0.346	0.125
-598.055	100.068	-0.211	-0.244
-597.040	-167.346	0.096	-0.004
-596.025	-34.518	0.040	-0.022
-595.011	-200.000	-0.044	-0.215
-593.996	35.246	-0.098	0.086
-592.982	248.760	-0.116	-0.196
-591.967	89.966	-0.261	0.291
-590.952	-21.457	0.327	0.199
-589.938	800.000	-0.120	-0.335
-588.923	93.140	-0.103	0.116
-587.909	87.780	0.071	-0.079
-586.894	73.672	-0.151	-0.158
-585.879	54.779	-0.098	0.095
-584.865	218.952	-0.184	0.294
-583.850	-136.198	-0.341	-0.040
-582.836	-66.035	-0.042	0.017
-581.821	-43.128	-0.025	-0.012
-580.806	749.897	0.116	-0.311
-579.792	309.268	0.086	-0.160
-578.777	158.304	-0.178	0.247
-577.763	1.998	-0.095	0.069
-576.748	96.099	-0.121	0.138
-575.733	149.973	-0.201	0.272
-574.719	352.072	-0.099	0.195
-573.704	-36.892	-0.120	0.064
-572.690	-200.000	-0.033	-0.152
-571.675	-200.000	-0.042	0.386
-570.661	77.170	-0.338	0.358
-569.646	-98.323	-0.147	0.038
-568.631	132.472	0.162	-0.208
-567.617	-155.617	-0.169	0.011
-566.602	800.000	-0.061	0.176
-565.588	-200.000	0.025	-0.123
-564.573	-130.545	-0.270	0.036
-563.558	-37.678	0.399	-0.211
-562.544	-30.631	-0.106	0.060
-561.529	33.765	0.115	-0.100
-560.515	-200.000	-0.028	-0.212
-559.500	800.000	-0.098	-0.276
-558.485	-161.326	0.109	0.006
-557.471	260.750	-0.275	0.473
-556.456	38.022	0.228	-0.202
-555.442	540.110	-0.100	-0.238
-554.427	-200.000	-0.013	-0.212
-553.412	-200.000	-0.048	0.250
-552.398	-69.593	-0.086	-0.033
-551.383	200.081	0.069	-0.106
-550.369	800.000	0.070	-0.256
-549.354	-2.314	0.306	0.214
-548.339	-200.000	-0.020	0.151
-547.325	-22.156	-0.165	0.099
-546.310	-69.867	-0.018	0.007
-545.296	63.930	-0.164	0.164
-544.281	800.000	-0.028	-0.088
-543.266	-89.555	-0.201	-0.059
-542.252	-29.695	0.175	-0.099
-541.237	263.882	0.153	-0.266
-540.223	-75.986	-0.118	-0.042
-539.208	138.445	-0.029	0.038
-538.193	100.182	0.263	-0.304
-537.179	-46.963	0.371	0.180
-536.164	123.213	-0.163	-0.203
-535.150	10.710	0.081	-0.062
-534.135	800.000	0.103	0.411
-533.121	86.332	-0.069	-0.075
-532.106	472.417	0.080	-0.180
-531.091	201.519	-0.122	-0.186
-530.077	-200.000	0.006	-0.112
-529.062	-65.020	-0.319	-0.128
-528.048	800.000	0.022	-0.086
-527.033	69.720	0.066	-0.068
-526.018	-31.564	0.236	-0.132
-525.004	-178.731	-0.131	0.003
-523.989	-158.790	-0.193	0.011
-522.975	26.778	0.231	-0.192
-521.960	335.980	0.090	-0.174
-520.945	-49.547	0.207	-0.098
-519.931	96.694	0.124	-0.142
-518.916	-200.000	-0.063	0.500
-517.902	276.410	-0.093	0.165
-516.887	-200.000	0.008	-0.045
-515.872	7.516	0.169	-0.125
-514.858	38.844	-0.108	-0.096
-513.843	-58.009	-0.185	-0.080
-512.829	-200.000	-0.029	-0.230
-511.814	-52.222	-0.107	-0.049
-510.799	-149.579	-0.170	0.013
-509.785	-60.844	0.272	-0.115
-508.770	-25.451	-0.224	-0.132
-507.756	65.107	-0.154	0.155
-506.741	-200.000	-0.018	0.231
-505.726	7.136	-0.071	0.053
-504.712	800.000	0.053	0.180
-503.697	0.777	-0.104	0.074
-502.683	494.582	-0.030	0.069
-501.668	-114.205	0.473	0.091
-500.653	442.575	0.067	0.145
-499.639	-101.687	-0.109	0.026
-498.624	121.612	0.161	-0.200
-497.610	800.000	0.086	-0.340
-496.595	-200.000	-0.012	0.064
-495.581	107.022	0.159	0.188
-494.566	800.000	-0.055	-0.236
-493.551	657.570	-0.103	0.262
-492.537	-200.000	0.040	-0.176
-491.522	-200.000	-0.003	0.078
-490.508	123.146	-0.200	0.249
-489.493	11.770	-0.160	0.122
-488.478	327.395	0.133	0.253
-487.464	-200.000	-0.033	0.250
-486.449	-90.743	0.148	0.042
-485.435	13.899	0.112	0.086
-484.420	-140.322	-0.313	0.032
-483.405	-74.486	0.317	0.113
-482.391	800.000	0.038	0.146
-481.376	800.000	0.026	0.077
-480.362	164.106	0.162	-0.226
-479.347	-23.259	0.236	0.141
-478.332	115.253	-0.140	0.170
-477.318	-111.090	0.179	-0.036
-476.303	386.930	0.028	-0.057
-475.289	800.000	-0.040	0.120
-474.274	800.000	0.052	-0.178
-473.259	444.804	0.114	-0.249
-472.245	-52.895	-0.102	0.047
-471.230	-101.792	-0.063	0.015
-470.216	-144.007	-0.185	0.017
-469.201	-33.831	-0.208	-0.114
-468.186	-200.000	0.011	-0.178
-467.172	800.000	-0.035	-0.138
-466.157	-27.255	0.238	-0.138
-465.143	13.780	0.160	0.123
-464.128	47.995	-0.200	0.186
-463.113	106.916	0.016	0.019
-462.099	67.512	-0.237	-0.240
-461.084	-106.144	-0.226	0.050
-460.070	133.694	-0.174	0.224
-459.055	294.048	-0.186	-0.336
-458.040	-98.787	-0.402	-0.102
-457.026	-200.000	-0.018	0.130
-456.011	2.801	0.190	0.137
-454.997	91.534	-0.102	0.113
-453.982	643.510	0.062	0.157
-452.968	-48.516	0.177	0.085
-451.953	-147.641	-0.185	-0.015
-450.938	-105.806	-0.149	-0.033
-449.924	4.857	0.189	0.138
-448.909	-114.813	-0.172	0.032
-447.895	-18.088	-0.211	0.131
-446.880	800.000	0.135	-0.486
-445.865	-8.565	0.237	-0.158
-444.851	-200.000	0.019	0.229
-443.836	-200.000	0.047	0.214
-442.822	800.000	-0.088	-0.369
-441.807	-200.000	0.043	0.246
-440.792	109.625	-0.154	-0.183
-439.778	-13.035	-0.143	-0.092
-438.763	-172.323	-0.122	0.004
-437.749	231.397	-0.127	-0.206
-436.734	334.021	-0.107	-0.205
-435.719	-38.533	0.330	-0.173
-434.705	2.138	-0.180	0.129
-433.690	-148.120	0.217	0.018
-432.676	-32.671	0.349	-0.192
-431.661	-48.755	-0.287	-0.137
-430.646	800.000	0.081	0.348
-429.632	-134.491	0.192	0.023
-428.617	-74.508	-0.464	0.166
-427.603	56.270	-0.294	-0.283
-426.588	-27.977	0.176	0.101
-425.573	27.068	-0.115	-0.096
-424.559	465.289	-0.135	-0.299
-423.544	-86.097	-0.241	0.074
-422.530	800.000	-0.144	-0.448
-421.515	800.000	0.058	0.182
-420.500	-83.505	0.296	0.094
-419.486	402.845	-0.074	-0.154
-418.471	800.000	0.037	-0.148
-417.457	281.472	0.276	-0.490
-416.442	-200.000	0.023	-0.283
-415.428	192.126	-0.091	-0.136
-414.413	-81.611	-0.046	0.015
-413.398	548.042	0.022	0.053
-412.384	-43.083	0.362	0.182
-411.369	-200.000	0.004	0.121
-410.355	-63.823	0.017	0.007
-409.340	-3.595	0.256	0.176
-408.325	55.877	0.069	0.066
-407.311	47.972	0.160	-0.148
-406.296	168.255	0.125	0.176
-405.282	-97.790	0.088	0.023
-404.267	58.969	-0.092	-0.090
-403.252	-200.000	0.018	-0.110
-402.238	-81.643	0.293	0.095
-401.223	211.535	-0.126	-0.196
-400.209	12.069	0.198	0.151
-399.194	800.000	-0.091	0.372
-398.179	-120.459	-0.486	0.082
-397.165	22.807	0.197	0.160
-396.150	-200.000	0.024	0.154
-395.136	217.512	-0.079	0.125
-394.121	227.542	0.112	-0.180
-393.106	102.754	-0.232	0.269
-392.092	-200.000	-0.013	0.153
-391.077	11.214	0.354	-0.268
-390.063	223.696	0.091	0.145
-389.048	397.532	0.062	-0.128
-388.033	-200.000	-0.002	-0.060
-387.019	97.045	0.194	-0.221
-386.004	-132.521	0.164	-0.021
-384.990	-200.000	-0.046	0.246
-383.975	-103.759	-0.343	-0.079
-382.960	255.756	0.049	-0.084
-381.946	-4.620	-0.177	0.121
-380.931	-76.048	0.282	0.099
-379.917	-200.000	-0.036	0.414
-378.902	-99.790	0.225	-0.056
-377.888	-200.000	-0.082	0.456
-376.873	-147.848	0.189	0.016
-375.858	-147.810	0.368	-0.030
-374.844	-32.809	-0.031	0.017
-373.829	-10.681	-0.216	-0.141
-372.815	-144.224	0.088	-0.008
-371.800	-142.984	0.113	-0.011
-370.785	111.442	-0.103	0.123
-369.771	-107.058	-0.098	-0.021
-368.756	67.985	-0.179	-0.182
-367.742	-200.000	0.008	0.045
-366.727	488.455	0.071	-0.161
-365.712	-200.000	-0.035	0.213
-364.698	237.871	-0.179	-0.293
-363.683	-65.499	0.193	-0.077
-362.669	-6.714	0.149	-0.100
-361.654	51.218	0.256	0.240
-360.639	124.777	-0.138	0.171
-359.625	18.643	-0.056	0.044
-358.610	-200.000	0.012	0.093
-357.596	109.023	-0.221	-0.262
-356.581	-68.377	-0.311	-0.119
-355.566	-102.896	-0.210	-0.049
-354.552	-139.014	-0.252	-0.027
-353.537	-196.205	0.108	-0.001
-352.523	-38.225	0.127	0.066
-351.508	60.222	-0.209	-0.205
-350.493	43.172	-0.049	-0.044
-349.479	47.093	-0.094	-0.087
-348.464	39.704	-0.111	-0.098
-347.450	-2.485	0.366	-0.253
-346.435	314.401	0.070	0.131
-345.420	-66.679	0.238	-0.093
-344.406	-164.018	-0.152	-0.007
-343.391	-95.582	0.075	0.020
-342.377	214.983	0.102	0.159
-341.362	-53.548	0.091	-0.041
-340.348	-200.000	-0.021	-0.122
-339.333	122.126	0.081	-0.100
-338.318	242.813	0.063	0.104
-337.304	800.000	0.096	-0.404
-336.289	37.576	-0.198	-0.173
-335.275	-21.658	0.141	0.085
-334.260	-114.720	-0.353	-0.067
-333.245	-107.589	-0.289	-0.062
-332.231	78.513	0.333	-0.352
-331.216	-200.000	-0.064	-0.480
-330.202	-69.230	0.133	0.051
-329.187	800.000	0.042	0.124
-328.172	131.353	-0.055	0.069
-327.158	-200.000	-0.030	0.184
-326.143	5.703	-0.041	0.030
-325.129	63.430	-0.081	-0.080
-324.114	-87.991	0.220	-0.065
-323.099	56.945	0.083	0.080
-322.085	-65.329	0.366	0.145
-321.070	211.360	-0.176	0.273
-320.056	101.335	0.210	-0.242
-319.041	-200.000	-0.045	0.273
-318.026	-26.647	-0.158	-0.091
-317.012	-137.479	-0.351	-0.039
-315.997	-42.191	-0.327	-0.165
-314.983	153.056	0.050	-0.067
-313.968	-120.232	0.466	-0.078
-312.953	800.000	-0.040	0.112
-311.939	-177.342	-0.104	0.003
-310.924	62.730	-0.060	0.059
-309.910	-165.125	0.183	-0.008
-308.895	-71.222	0.452	0.167
-307.880	-64.358	0.174	-0.070
-306.866	800.000	0.048	0.136
-305.851	12.785	0.240	-0.183
-304.837	-52.692	0.136	-0.062
-303.822	234.617	-0.093	0.151
-302.807	22.848	-0.037	-0.030
-301.793	-60.071	0.082	0.035
-300.778	292.166	0.102	0.183
-299.764	-200.000	0.018	-0.085
-298.749	-142.925	0.276	0.026
-297.735	-48.722	-0.087	-0.041
-296.720	247.207	0.290	-0.482
-295.705	800.000	0.069	0.269
-294.691	-147.526	0.107	-0.009
-293.676	-87.744	0.414	0.123
-292.662	-200.000	0.021	-0.212
-291.647	77.900	0.253	-0.266
-290.632	-113.094	-0.244	0.047
-289.618	103.883	0.043	0.049
-288.603	-14.795	-0.305	0.193
-287.589	490.841	-0.026	0.060
-286.574	-47.381	0.261	0.125
-285.559	-109.285	-0.148	0.031
-284.545	-200.000	0.048	-0.266
-283.530	-46.294	0.203	0.098
-282.516	22.147	-0.106	-0.085
-281.501	49.567	-0.095	-0.088
-280.486	800.000	0.126	0.424
-279.472	-77.905	-0.201	-0.068
-278.457	44.997	0.094	-0.085
-277.443	800.000	0.058	-0.226
-276.428	201.100	0.077	-0.117
-275.413	108.483	0.057	0.067
-274.399	800.000	0.066	-0.249
-273.384	-58.762	0.273	-0.116
-272.370	800.000	0.097	0.386
-271.355	354.988	0.165	0.323
-270.340	155.742	0.127	-0.172
-269.326	223.675	0.265	-0.421
-268.311	35.026	0.146	-0.126
-267.297	-18.104	-0.175	0.108
-266.282	-200.000	0.019	0.238
-265.267	-44.666	0.317	0.156
-264.253	-38.411	0.087	0.045
-263.238	267.208	0.153	-0.264
-262.224	-171.486	-0.227	0.007
-261.209	-38.631	-0.331	-0.172
-260.195	-35.795	0.236	0.126
-259.180	-71.232	-0.348	0.129
-258.165	762.194	-0.038	-0.102
-257.151	800.000	0.134	0.382
-256.136	7.160	0.103	-0.076
-255.122	166.558	0.155	0.216
-254.107	106.386	-0.167	-0.195
-253.092	-200.000	0.002	-0.019
-252.078	-121.931	-0.029	-0.005
-251.063	49.844	0.161	0.150
-250.049	-10.504	0.192	0.125
-249.034	219.207	0.140	0.220
-248.019	96.319	-0.131	-0.147
-247.005	-127.311	0.333	-0.048
-245.990	-200.000	-0.036	0.270
-244.976	-101.412	-0.102	-0.024
-243.961	-99.788	-0.075	-0.018
-242.946	6.766	0.220	0.161
-241.932	90.683	-0.314	-0.346
-240.917	206.231	-0.087	0.134
-239.903	-200.000	0.033	0.192
-238.888	-120.880	-0.247	-0.041
-237.873	-80.030	0.184	0.061
-236.859	4.053	0.194	0.139
-235.844	37.847	0.069	0.060
-234.830	283.622	-0.162	0.287
-233.815	122.323	0.087	0.107
-232.800	46.955	-0.218	-0.200
-231.786	-9.175	-0.060	-0.039
-230.771	-10.306	0.155	0.101
-229.757	-200.000	-0.037	-0.204
-228.742	800.000	0.016	-0.058
-227.727	-86.738	-0.424	-0.127
-226.713	264.002	-0.207	-0.354
-225.698	800.000	0.013	-0.052
-224.684	-39.855	0.190	0.098
-223.669	-137.296	-0.167	-0.019
-222.655	91.209	-0.056	0.061
-221.640	100.187	-0.138	-0.158
-220.625	-200.000	-0.013	0.077
-219.611	-200.000	0.061	0.264
-218.596	-200.000	-0.066	-0.410
-217.582	-94.112	0.167	-0.045
-216.567	-200.000	0.009	0.100
-215.552	-200.000	0.022	0.110
-214.538	-108.816	0.199	0.042
-213.523	40.962	-0.035	-0.031
-212.509	-176.568	-0.217	-0.005
-211.494	84.424	-0.120	-0.129
-210.479	130.157	-0.046	-0.058
-209.465	-200.000	-0.035	0.271
-208.450	800.000	0.051	0.200
-207.436	57.572	-0.246	-0.237
-206.421	230.478	0.092	-0.148
-205.406	47.725	-0.142	-0.130
-204.392	-10.582	0.386	0.251
-203.377	-51.803	-0.164	0.075
-202.363	-98.402	-0.118	0.030
-201.348	232.798	-0.114	0.185
-200.333	800.000	-0.118	-0.340
-199.319	-40.673	-0.135	0.069
-198.304	-43.811	0.377	0.187
-197.290	-16.615	-0.107	0.066
-196.275	507.860	-0.116	0.263
-195.260	-38.188	0.222	-0.115
-194.246	800.000	0.043	0.180
-193.231	-200.000	-0.037	-0.197
-192.217	-64.569	-0.328	-0.131
-191.202	19.752	0.099	0.078
-190.187	-64.591	0.133	0.053
-189.173	687.226	0.064	0.164
-188.158	-200.000	0.018	-0.179
-187.144	-200.000	-0.021	0.228
-186.129	800.000	0.098	0.412
-185.114	800.000	-0.006	0.024
-184.100	149.500	0.143	-0.191
-183.085	357.953	-0.122	0.240
-182.071	32.757	-0.170	0.145
-181.056	35.077	-0.125	0.108
-180.042	145.498	0.062	0.081
-179.027	-44.669	0.300	0.147
-178.012	113.700	-0.145	-0.173
-176.998	711.443	-0.036	-0.094
-175.983	800.000	0.065	-0.243
-174.969	436.459	0.102	0.219
-173.954	-9.168	-0.128	0.084
-172.939	-2.428	0.166	-0.114
-171.925	-200.000	0.017	-0.075
-170.910	31.716	-0.215	0.182
-169.896	-70.318	-0.208	0.078
-168.881	-64.781	0.126	-0.050
-167.866	181.581	-0.028	0.041
-166.852	327.936	-0.164	0.308
-165.837	-45.346	-0.466	0.227
-164.823	-35.962	-0.004	-0.002
-163.808	-200.000	-0.008	-0.160
-162.793	-76.726	0.123	-0.042
-161.779	-200.000	-0.057	0.350
-160.764	-200.000	0.016	-0.314
-159.750	133.822	-0.196	-0.249
-158.735	146.534	-0.163	0.214
-157.720	22.517	-0.253	-0.203
-156.706	40.287	-0.155	0.137
-155.691	654.543	-0.091	-0.230
-154.677	-200.000	-0.021	0.111
-153.662	380.168	0.148	0.298
-152.647	85.662	-0.085	-0.092
-151.633	-16.519	-0.041	-0.025
-150.618	-71.167	-0.112	-0.041
-149.604	567.129	-0.049	0.116
-148.589	-200.000	-0.041	-0.279
-147.574	472.031	0.061	-0.134
-146.560	-200.000	0.063	-0.424
-145.545	-200.000	0.042	0.229
-144.531	-200.000	-0.017	0.243
-143.516	-200.000	0.004	-0.080
-142.502	-200.000	0.035	-0.292
-141.487	-79.216	-0.159	-0.053
-140.472	65.149	0.174	-0.172
-139.458	-90.948	-0.328	-0.093
-138.443	-100.468	0.240	0.058
-137.429	320.905	0.137	0.254
-136.414	12.828	-0.172	-0.130
-135.399	-58.306	0.097	0.041
-134.385	499.010	0.055	0.125
-133.370	-85.823	-0.090	0.027
-132.356	800.000	0.089	-0.262
-131.341	321.030	-0.096	-0.179
-130.326	140.616	-0.217	0.280
-129.312	12.217	0.324	0.244
-128.297	776.162	-0.155	-0.415
-127.283	-135.292	0.192	-0.023
-126.268	-134.602	0.207	-0.025
-125.253	-13.241	-0.172	-0.110
-124.239	81.823	0.127	0.135
-123.224	-109.565	0.259	0.054
-122.210	-11.088	-0.114	-0.073
-121.195	800.000	0.064	0.175
-120.180	800.000	-0.096	0.266
-119.166	-43.021	0.269	0.134
-118.151	-49.960	-0.294	0.136
-117.137	40.668	-0.173	0.153
-116.122	-131.390	0.423	0.055
-115.107	-59.832	-0.200	-0.084
-114.093	116.037	0.051	0.061
-113.078	-200.000	0.355	-0.001
-112.064	-23.953	0.349	0.204
-111.049	-59.900	-0.205	0.086
-110.034	800.000	-0.074	0.248
-109.020	-200.000	-0.032	-0.341
-108.005	-200.000	-0.002	-0.026
-106.991	23.056	-0.271	-0.218
-105.976	-110.820	0.135	-0.027
-104.962	-54.612	0.051	0.023
-103.947	-200.000	-0.034	-0.267
-102.932	-93.386	-0.124	-0.034
-101.918	-200.000	0.042	0.198
-100.903	-72.145	-0.159	-0.058
-99.889	-200.000	0.195	0.001
-98.874	-55.813	0.191	0.084
-97.859	-104.368	0.091	-0.021
-96.845	-41.761	0.281	0.141
-95.830	-200.000	-0.021	0.107
-94.816	166.312	0.130	0.180
-93.801	75.322	0.209	-0.215
-92.786	-35.861	-0.133	0.071
-91.772	-29.725	0.400	0.223
-90.757	-120.874	0.311	-0.051
-89.743	157.838	0.076	0.103
-88.728	-33.747	0.271	-0.146
-87.713	65.906	-0.250	0.247
-86.699	-70.866	-0.182	0.067
-85.684	-200.000	-0.021	0.183
-84.670	106.903	0.169	-0.196
-83.655	-200.000	0.020	-0.307
-82.640	-96.719	0.109	-0.028
-81.626	-106.258	0.062	-0.013
-80.611	800.000	-0.053	-0.148
-79.597	139.054	-0.274	-0.352
-78.582	348.773	0.131	0.253
-77.567	280.899	0.096	0.168
-76.553	748.008	0.104	-0.274
-75.538	-48.483	0.181	-0.085
-74.524	-39.052	0.186	0.096
-73.509	-8.754	-0.053	0.035
-72.494	800.000	0.160	0.538
-71.480	-132.539	0.302	0.038
-70.465	-116.888	0.334	0.060
-69.451	-200.000	-0.012	0.055
-68.436	-200.000	-0.018	0.317
-67.422	-200.000	0.005	-0.132
-66.407	28.360	0.129	-0.106
-65.392	81.412	0.086	-0.091
-64.378	36.372	0.222	-0.191
-63.363	800.000	-0.094	0.350
-62.349	-1.620	-0.054	0.037
-61.334	147.029	-0.845	-1.110
-60.319	116.132	0.786	0.940
-59.305	468.515	-0.545	-1.195
-58.290	503.891	0.626	1.414
-57.276	419.715	0.734	1.535
-56.261	-200.000	118.471	641.037
-55.246	474.281	1560.455	3437.288
-54.232	173.988	2725.220	3843.361
-53.217	103.682	2176.930	2495.831
-52.203	36.583	1691.621	1458.033
-51.188	29.154	1507.687	1249.278
-50.173	26.894	1483.205	1213.839
-49.159	49.008	1545.263	1416.602
-48.144	47.829	1559.478	1421.513
-47.130	29.200	1513.964	1254.590
-46.115	26.231	1498.647	1221.800
-45.100	26.124	1495.173	1218.197
-44.086	25.991	1493.478	1215.874
-43.071	25.940	1491.344	1213.744
-42.057	25.903	1490.170	1212.491
-41.042	26.004	1488.551	1211.807
-40.027	25.935	1487.103	1210.113
-39.013	25.962	1485.556	1208.986
-37.998	26.067	1484.176	1208.519
-36.984	26.013	1483.524	1207.578
-35.969	25.924	1482.416	1206.031
-34.954	25.955	1480.600	1204.717
-33.940	25.918	1479.103	1203.205
-32.925	26.070	1477.694	1203.022
-31.911	25.981	1476.624	1201.511
-30.896	26.019	1475.469	1200.774
-29.881	26.009	1474.071	1199.523
-28.867	26.030	1472.479	1198.324
-27.852	25.977	1471.471	1197.104
-26.838	26.029	1470.031	1196.227
-25.823	26.040	1468.595	1195.084
-24.809	26.041	1466.373	1193.236
-23.794	26.033	1465.773	1192.648
-22.779	26.088	1464.118	1191.618
-21.765	26.020	1463.389	1190.528
-20.750	26.034	1461.926	1189.379
-19.736	26.054	1460.956	1188.678
-18.721	26.069	1459.881	1187.856
-17.706	26.034	1459.045	1186.895
-16.692	25.993	1457.623	1185.424
-15.677	26.000	1457.109	1185.004
-14.663	25.998	1455.781	1183.865
-13.648	26.025	1454.783	1183.181
-12.633	25.974	1454.022	1182.180
-11.619	26.030	1452.837	1181.539
-10.604	25.980	1452.494	1180.885
-9.590	25.943	1451.466	1179.760
-8.575	25.942	1450.543	1178.959
-7.560	25.996	1449.754	1178.623
-6.546	26.021	1448.631	1177.822
-5.531	25.969	1447.992	1176.923
-4.517	25.986	1446.782	1175.998
-3.502	25.946	1446.068	1175.113
-2.487	25.919	1445.133	1174.128
-1.473	25.958	1443.741	1173.207
-0.458	25.936	1442.460	1171.976
0.556	27.712	1432.714	1161.355
1.571	24.539	1407.893	1121.247
2.586	21.022	1349.623	1053.543
3.600	19.580	1267.934	981.497
4.615	18.481	1223.424	940.925
5.629	16.273	1167.267	886.080
6.644	9.735	1086.004	792.298
7.659	4.874	1049.796	742.680
8.673	4.302	1044.753	736.333
9.688	4.158	1041.312	733.163
10.702	3.962	1039.432	730.851
11.717	4.058	1037.444	729.839
12.731	6.385	1039.146	741.947
13.746	13.325	1048.607	781.529
14.761	19.988	1057.095	819.422
15.775	22.175	1059.101	831.258
16.790	21.833	1057.963	828.677
17.804	20.917	1055.811	822.597
18.819	20.138	1053.919	817.379
19.834	19.779	1053.081	814.964
20.848	19.656	1052.120	813.569
21.863	19.598	1051.871	813.032
22.877	19.484	1050.938	811.702
23.892	19.310	1050.246	810.279
24.907	19.123	1049.439	808.705
25.921	19.205	1048.715	808.463
26.936	19.109	1048.020	807.404
27.950	19.146	1046.889	806.635
28.965	19.112	1046.023	805.739
29.980	19.190	1044.851	805.126
30.994	19.260	1043.878	804.634
32.009	19.457	1042.938	804.755
33.023	19.541	1042.359	804.628
34.038	19.499	1041.727	803.876
35.053	19.384	1040.648	802.436
36.067	19.251	1039.613	800.948
37.082	19.223	1038.362	799.785
38.096	19.291	1038.106	799.833
39.111	19.312	1037.693	799.543
40.126	19.432	1036.662	799.234
41.140	19.315	1035.249	797.528
42.155	19.043	1033.765	795.061
43.169	18.825	1032.771	793.216
44.184	18.694	1031.952	791.917
45.199	18.735	1030.845	791.184
46.213	18.843	1029.668	790.707
47.228	18.717	1029.827	790.180
48.242	19.055	1028.430	790.590
49.257	19.263	1027.998	791.143
50.271	19.261	1026.581	789.976
51.286	19.307	1025.756	789.482
52.301	19.347	1025.306	789.248
53.315	19.370	1024.939	789.001
54.330	19.246	1023.774	787.467
55.344	19.040	1022.616	785.568
56.359	19.010	1021.552	784.545
57.374	18.979	1020.968	783.885
58.388	19.031	1020.097	783.380
59.403	18.892	1018.884	781.748
60.417	18.765	1018.121	780.517
61.432	18.781	1017.388	779.961
62.447	18.645	1017.163	779.101
63.461	18.772	1015.821	778.580
64.476	18.531	1015.208	776.949
65.490	18.734	1013.956	776.842
66.505	18.584	1013.525	775.763
67.520	18.558	1012.720	774.960
68.534	18.695	1011.674	774.709
69.549	18.720	1011.338	774.496
70.563	18.611	1010.278	773.128
71.578	18.628	1009.309	772.393
72.593	18.459	1008.644	771.053
73.607	18.291	1007.603	769.437
74.622	18.195	1006.879	768.381
75.636	18.335	1006.258	768.469
76.651	18.530	1005.234	768.494
77.666	18.416	1004.900	767.661
78.680	18.506	1003.992	767.304
79.695	18.645	1003.067	767.149
80.709	18.519	1002.588	766.153
81.724	18.769	1002.077	766.809
82.739	18.887	1001.281	766.658
83.753	18.842	1001.001	766.174
84.768	19.107	1000.646	767.017
85.782	19.343	999.962	767.474
86.797	19.593	999.375	768.070
87.812	19.740	998.183	767.740
88.826	19.403	997.381	765.557
89.841	19.342	996.499	764.543
90.855	19.514	995.700	764.622
91.870	19.557	995.009	764.215
92.884	19.666	994.387	764.153
93.899	19.588	993.427	763.002
94.914	19.458	992.698	761.800
95.928	19.659	992.111	762.171
96.943	19.576	991.295	761.109
97.957	19.515	990.254	759.977
98.972	19.470	988.994	758.742
99.987	19.423	989.064	758.521
101.001	19.486	987.889	757.830
102.016	19.489	987.091	757.166
103.030	19.438	986.135	756.139
104.045	19.404	985.308	755.292
105.060	19.433	984.121	754.442
106.074	19.473	983.272	753.898
107.089	19.308	981.682	751.892
108.103	18.829	981.234	749.396
109.118	18.695	980.184	747.944
110.133	18.660	979.647	747.312
111.147	18.651	978.454	746.300
112.162	18.630	977.624	745.507
113.176	18.605	976.939	744.813
114.191	18.912	975.766	745.183
115.206	18.903	974.814	744.349
116.220	18.944	974.457	744.191
117.235	18.939	973.663	743.498
118.249	18.790	972.616	741.987
119.264	18.694	971.883	740.948
120.279	18.713	971.227	740.465
121.293	18.602	970.375	739.271
122.308	18.499	969.197	737.864
123.322	18.290	968.734	736.547
124.337	18.393	967.030	735.628
125.352	18.281	966.317	734.539
126.366	18.324	964.942	733.615
127.381	18.323	964.003	732.831
128.395	18.274	963.528	732.194
129.410	18.228	962.465	731.126
130.424	18.482	961.145	731.143
131.439	18.711	960.404	731.492
132.454	18.816	959.891	731.482
133.468	18.756	959.156	730.602
134.483	18.834	958.659	730.493
135.497	18.799	957.902	729.703
136.512	18.710	957.658	729.073
137.527	18.769	956.451	728.339
138.541	18.816	955.715	727.915
139.556	18.872	955.272	727.751
140.570	18.822	954.457	726.853
141.585	18.968	954.055	727.101
142.600	19.173	953.433	727.428
143.614	19.447	952.628	727.905
144.629	19.532	951.813	727.574
145.643	19.478	951.144	726.774
146.658	19.517	950.203	726.154
147.673	19.225	949.442	724.280
148.687	19.041	948.035	722.368
149.702	18.915	946.987	720.981
150.716	18.810	946.314	719.964
151.731	18.913	945.198	719.483
152.746	18.905	944.924	719.175
153.760	19.055	943.639	718.760
154.775	18.931	943.171	717.824
155.789	19.114	942.622	718.107
156.804	19.209	942.006	717.966
157.819	19.114	941.040	716.772
158.833	19.206	940.372	716.584
159.848	19.516	939.750	717.335
160.862	19.447	939.847	717.058
161.877	19.445	938.807	716.194
162.892	19.191	937.110	713.781
163.906	18.851	936.487	711.836
164.921	18.946	935.088	711.105
165.935	18.883	934.415	710.270
166.950	18.997	933.550	710.020
167.964	19.156	932.717	709.978
168.979	19.111	931.521	708.817
169.994	18.950	930.911	707.631
171.008	18.937	929.963	706.795
172.023	19.069	928.875	706.447
173.037	19.216	928.575	706.758
174.052	19.487	927.774	707.196
175.067	19.411	927.087	706.298
176.081	19.061	926.020	703.992
177.096	18.777	924.988	701.984
178.110	18.800	924.183	701.407
179.125	18.876	923.674	701.270
180.140	19.132	922.694	701.505
181.154	19.037	922.340	700.786
182.169	18.970	922.114	700.282
183.183	19.366	921.796	701.588
184.198	19.520	920.316	701.027
185.213	19.301	920.198	699.986
186.227	19.447	919.354	699.871
187.242	19.414	919.164	699.532
188.256	19.450	918.581	699.172
189.271	19.702	917.676	699.443
190.286	19.780	916.693	698.944
191.300	19.444	915.955	696.965
192.315	19.014	914.680	694.196
193.329	18.766	913.952	692.583
194.344	18.767	913.299	692.030
195.359	18.949	913.104	692.556
196.373	19.196	912.292	692.872
197.388	19.231	912.289	692.948
198.402	19.423	911.578	693.117
199.417	19.544	911.994	693.861
200.432	19.821	910.858	694.045
201.446	19.973	910.554	694.363
202.461	19.990	910.390	694.243
203.475	20.033	909.650	693.791
204.490	20.086	909.047	693.483
205.504	19.698	908.238	691.253
206.519	19.561	907.676	690.214
207.534	19.467	906.513	688.895
208.548	19.567	905.309	688.318
209.563	19.403	905.129	687.467
210.577	19.529	904.302	687.280
211.592	19.603	903.709	687.062
212.607	19.593	903.855	687.073
213.621	19.859	903.157	687.537
214.636	19.759	902.298	686.427
215.650	19.707	901.704	685.708
216.665	19.778	901.363	685.669
217.680	19.950	900.692	685.778
218.694	20.029	900.451	685.848
219.709	20.054	899.991	685.537
220.723	19.936	899.561	684.679
221.738	19.912	898.551	683.755
222.753	19.926	897.579	683.012
223.767	19.835	897.036	682.180
224.782	20.013	896.452	682.375
225.796	20.047	895.716	681.890
226.811	20.193	895.091	681.926
227.826	20.030	894.868	681.056
228.840	19.867	893.695	679.463
229.855	19.823	893.565	679.132
230.869	19.936	892.505	678.711
231.884	19.770	891.368	677.135
232.899	19.746	891.165	676.828
233.913	19.655	889.967	675.499
234.928	19.667	889.177	674.888
235.942	19.492	888.858	673.904
236.957	19.440	888.022	673.005
237.972	19.532	887.217	672.695
238.986	19.594	886.644	672.445
240.001	19.619	885.855	671.883
241.015	19.526	885.112	670.896
242.030	19.598	885.027	671.053
243.045	19.681	884.926	671.241
244.059	19.968	883.762	671.410
245.074	19.993	883.374	671.155
246.088	19.962	882.461	670.280
247.103	19.927	882.623	670.208
248.117	19.990	881.936	669.871
249.132	20.282	881.348	670.496
250.147	20.661	880.909	671.565
251.161	20.844	880.748	672.088
252.176	20.946	879.887	671.764
253.190	20.789	879.715	670.969
254.205	20.822	879.363	670.769
255.220	20.938	878.392	670.415
256.234	20.907	877.817	669.796
257.249	20.902	877.308	669.332
258.263	20.730	876.870	668.275
259.278	20.722	876.117	667.615
260.293	20.853	875.380	667.494
261.307	20.876	875.256	667.427
262.322	20.951	874.590	667.150
263.336	20.910	874.232	666.662
264.351	20.961	873.435	666.190
265.366	20.990	872.813	665.765
266.380	20.944	872.371	665.195
267.395	21.115	871.616	665.213
268.409	20.845	870.645	663.382
269.424	20.827	869.928	662.710
270.439	20.798	869.314	662.075
271.453	20.779	868.171	661.072
272.468	20.640	867.673	660.108
273.482	20.671	866.803	659.506
274.497	20.647	866.066	658.794
275.512	20.601	865.843	658.392
276.526	20.633	864.885	657.725
277.541	20.518	864.378	656.849
278.555	20.616	863.841	656.751
279.570	21.051	863.385	657.990
280.585	21.076	862.945	657.689
281.599	21.153	862.523	657.600
282.614	20.964	861.797	656.278
283.628	20.830	860.701	654.881
284.643	20.630	860.628	654.016
285.657	20.742	860.238	654.080
286.672	20.769	859.453	653.528
287.687	20.743	859.152	653.142
288.701	20.725	858.449	652.482
289.716	20.723	857.968	652.055
290.730	20.842	856.987	651.695
291.745	20.875	856.393	651.308
292.760	20.977	855.745	651.138
293.774	20.933	855.321	650.595
294.789	21.315	854.720	651.503
295.803	21.203	854.480	650.848
296.818	20.935	853.849	649.310
297.833	20.822	852.906	648.114
298.847	20.869	852.364	647.820
299.862	20.955	851.489	647.417
300.876	20.999	851.000	647.152
301.891	21.104	850.244	646.909
302.906	21.225	849.980	647.100
303.920	21.416	849.433	647.334
304.935	21.454	849.205	647.242
305.949	21.635	848.431	647.265
306.964	21.578	847.700	646.438
307.979	21.215	847.564	644.936
308.993	21.154	846.845	644.109
310.008	21.260	846.434	644.128
311.022	21.421	845.965	644.310
312.037	21.398	844.783	643.269
313.052	21.318	844.354	642.589
314.066	20.937	843.957	640.831
315.081	20.817	842.824	639.473
316.095	20.840	842.397	639.174
317.110	20.877	842.108	639.035
318.125	20.900	841.084	638.287
319.139	20.892	840.822	638.001
320.154	20.993	839.907	637.620
321.168	20.711	839.810	636.461
322.183	20.977	839.280	636.975
323.197	21.122	838.721	637.022
324.212	21.018	838.158	636.160
325.227	21.062	837.831	636.014
326.241	21.020	837.336	635.431
327.256	20.886	836.687	634.391
328.270	21.064	835.807	634.319
329.285	20.999	835.425	633.734
330.300	21.048	834.473	633.133
331.314	21.066	833.793	632.626
332.329	20.967	833.611	632.073
333.343	21.246	832.916	632.502
334.358	21.199	832.777	632.171
335.373	21.284	832.066	631.883
336.387	21.302	831.916	631.777
337.402	21.424	831.183	631.606
338.416	21.413	831.031	631.393
339.431	21.612	830.103	631.353
340.446	21.740	829.711	631.459
341.460	21.831	829.387	631.485
342.475	21.916	829.023	631.457
343.489	21.937	828.567	631.129
344.504	22.047	827.787	630.876
345.519	22.056	827.440	630.587
346.533	22.099	827.069	630.403
347.548	21.987	826.568	629.563
348.562	21.858	825.736	628.411
349.577	21.570	825.217	626.929
350.592	21.550	823.731	625.672
351.606	21.459	823.652	625.231
352.621	21.404	823.175	624.620
353.635	21.322	822.865	624.035
354.650	21.402	822.787	624.207
355.665	21.459	822.084	623.820
356.679	21.619	821.390	623.809
357.694	21.734	821.325	624.114
358.708	21.702	820.650	623.432
359.723	21.729	820.105	623.060
360.738	21.468	819.951	621.959
361.752	21.589	819.071	621.668
362.767	21.765	818.509	621.811
363.781	21.879	818.462	622.125
364.796	22.045	818.101	622.382
365.810	22.236	817.814	622.787
366.825	22.371	817.535	622.996
367.840	22.429	817.147	622.852
368.854	22.379	816.608	622.207
369.869	22.145	816.097	620.936
370.883	22.238	814.911	620.308
371.898	22.057	814.991	619.673
372.913	22.194	814.164	619.472
373.927	22.238	813.658	619.187
374.942	22.188	812.802	618.307
375.956	22.142	812.121	617.572
376.971	22.285	811.699	617.701
377.986	22.323	811.395	617.547
379.000	22.500	810.843	617.693
380.015	22.501	810.349	617.264
381.029	22.466	809.890	616.737
382.044	22.538	809.259	616.453
383.059	22.560	808.240	615.702
384.073	22.464	808.108	615.210
385.088	22.380	807.582	614.461
386.102	22.243	806.724	613.277
387.117	22.019	806.469	612.247
388.132	22.053	805.619	611.666
389.146	21.915	805.398	610.966
390.161	22.101	804.916	611.192
391.175	22.201	804.838	611.425
392.190	22.419	804.278	611.704
393.205	22.235	803.915	610.734
394.219	22.188	803.259	610.022
395.234	22.181	802.468	609.342
396.248	22.128	801.651	608.484
397.263	21.868	801.476	607.397
398.278	21.887	800.754	606.861
399.292	21.759	800.399	606.097
400.307	21.852	799.919	606.002
401.321	21.932	799.220	605.693
402.336	21.867	799.398	605.550
403.350	22.112	798.957	606.008
404.365	22.144	798.677	605.852
405.380	22.305	798.163	605.961
406.394	22.538	797.807	606.441
407.409	22.652	797.278	606.378
408.423	22.655	797.214	606.285
409.438	22.905	796.593	606.619
410.453	22.640	796.398	605.506
411.467	22.816	796.069	605.808
412.482	22.871	795.616	605.597
413.496	22.833	795.422	605.266
414.511	23.074	795.031	605.739
415.526	22.979	794.631	605.058
416.540	22.926	794.123	604.435
417.555	22.738	793.780	603.479
418.569	22.867	792.805	603.124
419.584	22.847	792.403	602.697
420.599	22.864	792.045	602.429
421.613	165.680	1370.399	1798.443
422.628	143.729	1454.649	1798.505
