DTS Sentinel unit serial number:	SN413079Multiplexer serial number:	ORYXHardware model number:	OX4-SRSoftware version number:	ORYX F/W v4.00 Oryx Data Collector v3.7.2.0data status	okinstallation	princeton_trtdifferential loss correction	single-endedforward channel	channel 3reverse channel	N/Adate	2019/09/15time	07:16:35forward acquisition time	60.00reverse acquisition time	0.00gamma	496.2192k internal	0.2324k external	0.2324temperature offset calibration	0.9976default loss term (dB/km)	0.3790temperature slope calibration	1.0000multiplexer offset coefficient	1.0000multiplexer slope coefficient	1.0000fibre end	0.00T internal ref (°C)	30.55T ext. ref 1 (°C)	4.88T ext. ref 2 (°C)	25.84length (m)	temperature (°C)	Stokes	anti-Stokes-747.200	21.327	-0.214	0.175
-746.185	-200.000	-0.076	0.450
-745.171	-200.000	0.001	-0.297
-744.156	800.000	0.047	-0.170
-743.142	-51.932	0.284	0.133
-742.127	45.183	0.117	0.109
-741.112	-5.529	0.163	0.113
-740.098	65.553	-0.151	-0.154
-739.083	216.975	-0.189	0.304
-738.069	-127.350	-0.068	0.010
-737.054	56.304	0.050	-0.049
-736.039	-200.000	0.046	-0.300
-735.025	-38.779	-0.154	-0.082
-734.010	-200.000	-0.079	-0.380
-732.996	-143.210	-0.322	0.031
-731.981	484.102	-0.081	-0.187
-730.966	-11.052	0.234	0.155
-729.952	547.914	-0.069	-0.167
-728.937	-200.000	-0.045	-0.272
-727.923	-102.410	-0.393	-0.095
-726.908	-76.918	-0.419	0.148
-725.894	-114.516	-0.236	0.046
-724.879	-174.490	-0.236	-0.007
-723.864	-115.030	-0.279	0.054
-722.850	-200.000	-0.040	0.265
-721.835	502.144	0.079	-0.184
-720.821	36.611	-0.218	-0.194
-719.806	-42.232	-0.133	-0.068
-718.791	-99.984	-0.176	0.044
-717.777	-5.130	-0.020	0.014
-716.762	532.267	-0.065	0.155
-715.748	72.616	-0.141	-0.148
-714.733	-20.331	-0.238	-0.148
-713.718	-200.000	-0.020	-0.181
-712.704	-132.367	-0.547	-0.071
-711.689	-86.475	0.113	0.035
-710.675	-44.918	-0.225	0.113
-709.660	-107.150	0.252	0.056
-708.645	15.942	-0.207	0.164
-707.631	340.058	0.217	-0.427
-706.616	51.609	-0.257	0.246
-705.602	14.152	0.106	0.083
-704.587	-200.000	0.007	0.076
-703.572	800.000	-0.012	0.050
-702.558	51.492	0.306	-0.293
-701.543	389.781	-0.087	-0.182
-700.529	-59.353	0.106	0.046
-699.514	800.000	-0.060	-0.197
-698.499	-200.000	-0.014	-0.258
-697.485	-141.736	-0.113	-0.011
-696.470	-193.519	0.240	0.002
-695.456	-126.135	0.197	0.030
-694.441	573.477	-0.112	0.276
-693.426	800.000	0.016	0.070
-692.412	-109.334	-0.306	-0.065
-691.397	-34.601	-0.406	0.224
-690.383	46.122	0.054	-0.051
-689.368	33.571	0.335	0.293
-688.354	-87.239	-0.447	0.137
-687.339	800.000	-0.090	0.253
-686.324	-200.000	0.116	-0.526
-685.310	98.420	-0.251	-0.292
-684.295	-80.681	-0.292	-0.098
-683.281	-125.898	-0.227	-0.034
-682.266	-74.518	-0.056	0.020
-681.251	60.926	-0.259	-0.258
-680.237	4.978	0.182	-0.135
-679.222	-200.000	-0.049	-0.230
-678.208	-31.416	0.072	-0.041
-677.193	-200.000	-0.021	-0.115
-676.178	86.817	-0.209	-0.232
-675.164	102.901	0.077	0.091
-674.149	533.001	0.037	-0.087
-673.135	325.627	0.081	-0.156
-672.120	-48.654	0.166	-0.080
-671.105	156.145	-0.144	0.200
-670.091	61.627	-0.055	0.055
-669.076	-200.000	0.020	-0.089
-668.062	-140.305	-0.321	-0.034
-667.047	-200.000	-0.062	0.285
-666.032	-200.000	0.012	-0.064
-665.018	-45.231	0.178	-0.089
-664.003	-185.106	0.113	-0.002
-662.989	148.788	-0.228	-0.310
-661.974	347.163	0.171	0.339
-660.959	-200.000	-0.005	0.503
-659.945	-129.094	-0.100	0.014
-658.930	533.599	-0.084	0.199
-657.916	22.913	0.182	0.150
-656.901	554.357	0.085	-0.206
-655.886	-86.314	0.114	-0.035
-654.872	-68.262	-0.175	0.068
-653.857	800.000	0.055	0.190
-652.843	390.293	0.052	0.108
-651.828	-200.000	-0.226	-0.001
-650.814	21.263	-0.068	0.056
-649.799	35.564	0.247	0.218
-648.784	-200.000	-0.007	0.347
-647.770	-200.000	0.023	0.273
-646.755	-66.659	-0.497	0.198
-645.741	14.883	-0.042	-0.033
-644.726	-69.909	0.055	-0.021
-643.711	189.905	-0.344	0.519
-642.697	-183.652	-0.248	0.004
-641.682	-200.000	0.025	0.233
-640.668	-139.450	-0.164	-0.018
-639.653	621.982	-0.034	-0.086
-638.638	686.325	0.022	-0.059
-637.624	9.263	-0.137	0.104
-636.609	-200.000	0.002	0.021
-635.595	-108.482	-0.252	-0.054
-634.580	-139.035	-0.117	0.013
-633.565	800.000	-0.088	-0.305
-632.551	749.837	0.108	-0.293
-631.536	95.524	-0.022	-0.025
-630.522	-60.379	0.094	0.040
-629.507	800.000	-0.111	0.351
-628.492	-115.173	0.141	0.027
-627.478	-200.000	-0.006	0.139
-626.463	341.793	0.087	0.171
-625.449	363.021	-0.068	0.136
-624.434	44.181	-0.178	-0.164
-623.419	-52.886	-0.441	0.204
-622.405	-80.650	-0.282	0.094
-621.390	-200.000	0.024	-0.258
-620.376	-41.809	-0.173	0.089
-619.361	-66.251	0.288	0.115
-618.346	-95.926	-0.138	-0.037
-617.332	-70.618	-0.285	-0.108
-616.317	-133.049	0.340	-0.043
-615.303	-138.587	-0.164	-0.018
-614.288	800.000	0.037	0.112
-613.273	-200.000	-0.015	-0.159
-612.259	-58.898	-0.301	0.131
-611.244	-200.000	-0.015	-0.098
-610.230	274.807	-0.114	0.203
-609.215	-142.928	-0.094	-0.009
-608.201	-104.593	-0.028	0.006
-607.186	-146.737	0.290	0.025
-606.171	297.216	0.116	-0.213
-605.157	33.597	-0.256	0.224
-604.142	-200.000	-0.021	0.255
-603.128	-135.724	0.187	-0.022
-602.113	800.000	0.059	-0.231
-601.098	33.067	-0.321	-0.279
-600.084	-200.000	0.033	-0.348
-599.069	-108.698	0.408	0.088
-598.055	-147.582	0.291	0.025
-597.040	-106.589	-0.088	-0.020
-596.025	-157.525	0.035	-0.002
-595.011	-146.631	0.153	-0.013
-593.996	-110.936	0.277	0.057
-592.982	-157.237	-0.288	-0.017
-591.967	-177.974	-0.216	0.005
-590.952	19.307	0.097	-0.078
-589.938	577.710	-0.097	0.238
-588.923	-200.000	0.015	-0.213
-587.909	-6.896	-0.123	-0.084
-586.894	-200.000	-0.312	-0.000
-585.879	-200.000	-0.002	0.090
-584.865	84.925	-0.171	-0.188
-583.850	12.130	0.082	-0.063
-582.836	42.088	0.258	0.235
-581.821	-122.073	0.240	0.040
-580.806	800.000	-0.045	0.132
-579.792	-2.250	0.173	-0.122
-578.777	-142.211	-0.285	0.028
-577.763	119.315	0.086	0.107
-576.748	773.817	0.036	-0.098
-575.733	-87.723	0.298	0.090
-574.719	-127.705	0.110	0.016
-573.704	-6.341	0.105	-0.072
-572.690	45.584	0.069	-0.064
-571.675	-169.156	0.081	-0.003
-570.661	-200.000	-0.012	0.124
-569.646	-1.948	0.429	0.302
-568.631	-93.859	0.247	0.068
-567.617	4.678	0.261	0.192
-566.602	344.661	-0.053	0.105
-565.588	-140.383	-0.087	-0.009
-564.573	-121.029	0.103	0.017
-563.558	800.000	-0.034	-0.117
-562.544	706.642	-0.045	-0.119
-561.529	132.184	-0.152	-0.197
-560.515	-46.625	-0.121	-0.059
-559.500	266.107	-0.198	-0.346
-558.485	120.303	-0.158	0.197
-557.471	-41.881	0.134	0.069
-556.456	312.353	-0.113	-0.213
-555.442	94.712	0.211	-0.241
-554.427	-3.305	0.159	-0.111
-553.412	-71.863	0.165	0.062
-552.398	-18.221	-0.368	-0.231
-551.383	63.863	0.160	-0.161
-550.369	133.197	0.237	-0.307
-549.354	-146.462	0.224	0.020
-548.339	-19.343	0.131	0.081
-547.325	-70.854	-0.101	0.038
-546.310	-163.580	0.282	0.013
-545.296	-79.476	0.102	-0.035
-544.281	-119.117	0.131	0.023
-543.266	30.768	0.201	-0.173
-542.252	-200.000	0.013	0.065
-541.237	-140.425	0.483	-0.050
-540.223	409.479	0.012	-0.026
-539.208	-108.505	0.385	-0.083
-538.193	-75.627	0.460	-0.164
-537.179	426.031	-0.211	-0.455
-536.164	800.000	0.072	0.223
-535.150	600.945	-0.076	0.189
-534.135	276.671	0.058	-0.103
-533.121	140.882	-0.235	-0.311
-532.106	-200.000	-0.004	-0.051
-531.091	246.137	-0.049	-0.083
-530.077	-200.000	0.040	-0.494
-529.062	227.406	-0.111	-0.180
-528.048	108.336	0.171	0.204
-527.033	-16.172	-0.160	0.102
-526.018	305.636	-0.071	-0.132
-525.004	732.579	0.078	0.208
-523.989	644.545	-0.149	0.380
-522.975	-200.000	0.023	0.338
-521.960	-26.652	0.389	0.228
-520.945	-39.415	0.104	-0.054
-519.931	381.007	-0.115	0.236
-518.916	222.499	-0.082	-0.133
-517.902	-96.241	-0.154	-0.041
-516.887	-90.062	0.376	0.110
-515.872	9.648	0.238	-0.181
-514.858	567.655	-0.057	0.137
-513.843	-86.709	-0.311	0.095
-512.829	563.434	0.095	0.229
-511.814	800.000	-0.066	-0.184
-510.799	-144.912	-0.168	0.015
-509.785	-142.570	0.321	-0.031
-508.770	-157.974	0.369	0.022
-507.756	-17.043	0.158	-0.100
-506.741	-89.437	-0.156	-0.046
-505.726	207.076	0.063	0.099
-504.712	556.253	0.063	-0.152
-503.697	800.000	-0.092	0.372
-502.683	46.898	0.048	0.045
-501.668	522.089	0.008	0.018
-500.653	-200.000	0.061	0.361
-499.639	-109.251	0.184	-0.039
-498.624	-96.114	0.367	0.098
-497.610	144.961	0.097	-0.129
-496.595	252.240	-0.092	0.156
-495.581	128.995	-0.048	-0.062
-494.566	431.360	-0.127	0.275
-493.551	-200.000	-0.034	0.243
-492.537	-200.000	-0.035	-0.216
-491.522	795.783	-0.069	-0.189
-490.508	-128.313	0.054	0.008
-489.493	-200.000	0.036	0.256
-488.478	-200.000	0.030	0.327
-487.464	-200.000	-0.034	0.209
-486.449	22.480	0.160	-0.130
-485.435	656.424	0.050	-0.128
-484.420	-200.000	0.016	0.208
-483.405	-200.000	-0.004	0.136
-482.391	192.808	-0.163	-0.246
-481.376	-200.000	-0.030	-0.335
-480.362	196.713	-0.044	0.067
-479.347	184.328	0.223	-0.329
-478.332	800.000	0.039	0.127
-477.318	728.182	0.060	0.161
-476.303	-200.000	-0.004	0.340
-475.289	-86.672	-0.220	0.067
-474.274	361.642	-0.090	0.181
-473.259	-7.800	-0.180	-0.121
-472.245	34.879	-0.240	0.210
-471.230	-200.000	-0.040	0.251
-470.216	-22.442	-0.089	-0.054
-469.201	-113.758	0.056	0.011
-468.186	-77.302	0.326	-0.113
-467.172	-122.789	0.059	-0.009
-466.157	800.000	0.010	0.032
-465.143	-200.000	-0.011	-0.502
-464.128	28.892	-0.127	0.107
-463.113	-200.000	0.045	0.394
-462.099	-200.000	0.015	0.458
-461.084	-200.000	-0.015	-0.236
-460.070	47.558	-0.144	0.134
-459.055	-200.000	0.036	0.168
-458.040	70.475	0.195	0.201
-457.026	-200.000	0.018	0.081
-456.011	-76.474	0.532	-0.187
-454.997	-200.000	-0.065	-0.289
-453.982	279.007	-0.121	-0.215
-452.968	-20.816	0.228	-0.139
-451.953	-63.590	-0.170	-0.069
-450.938	-75.153	-0.128	0.046
-449.924	166.244	-0.108	0.153
-448.909	318.714	-0.066	0.125
-447.895	-200.000	0.018	0.150
-446.880	13.047	0.287	0.222
-445.865	61.555	-0.263	0.261
-444.851	800.000	0.052	0.175
-443.836	800.000	-0.134	-0.529
-442.822	105.691	-0.179	-0.211
-441.807	-136.949	-0.224	0.026
-440.792	60.749	0.232	-0.229
-439.778	1.608	-0.096	0.069
-438.763	-135.640	0.089	-0.011
-437.749	-34.723	0.145	-0.079
-436.734	-200.000	0.055	0.289
-435.719	800.000	0.070	-0.221
-434.705	-173.452	0.310	0.009
-433.690	407.750	-0.065	0.138
-432.676	-41.296	0.205	0.105
-431.661	34.233	-0.219	-0.191
-430.646	-200.000	0.298	-0.000
-429.632	-132.718	0.315	-0.040
-428.617	800.000	0.124	0.346
-427.603	-9.028	-0.158	0.105
-426.588	31.712	-0.352	0.302
-425.573	-200.000	0.012	0.145
-424.559	-13.167	0.335	0.217
-423.544	-157.686	0.293	-0.017
-422.530	174.374	0.243	-0.351
-421.515	209.886	-0.155	0.242
-420.500	-108.919	-0.199	0.042
-419.486	-200.000	0.004	0.283
-418.471	-165.566	-0.304	-0.013
-417.457	162.081	-0.133	0.185
-416.442	-127.944	0.077	-0.011
-415.428	-33.871	-0.260	0.143
-414.413	-131.229	0.120	-0.016
-413.398	234.268	0.123	-0.202
-412.384	-57.215	0.313	0.137
-411.369	3.005	0.098	0.071
-410.355	-80.825	-0.104	-0.035
-409.340	-115.830	0.162	-0.030
-408.325	126.713	0.054	0.068
-407.311	173.781	-0.120	0.173
-406.296	-122.359	0.116	-0.019
-405.282	150.548	0.073	-0.099
-404.267	-176.928	-0.213	0.005
-403.252	-200.000	-0.004	0.109
-402.238	-1.190	-0.340	-0.239
-401.223	-4.184	0.120	-0.083
-400.209	-125.246	-0.131	0.020
-399.194	195.682	0.073	-0.110
-398.179	-200.000	-0.009	-0.107
-397.165	176.900	-0.207	-0.300
-396.150	-56.250	-0.108	-0.048
-395.136	-159.432	0.369	-0.020
-394.121	-126.016	-0.380	-0.057
-393.106	-186.182	-0.237	-0.003
-392.092	-200.000	-0.015	0.114
-391.077	-200.000	-0.027	0.282
-390.063	664.696	-0.088	0.227
-389.048	465.853	0.106	0.237
-388.033	800.000	0.045	-0.175
-387.019	-72.438	-0.213	0.078
-386.004	601.071	-0.046	0.113
-384.990	800.000	0.019	-0.062
-383.975	-2.674	-0.097	-0.067
-382.960	423.710	0.161	-0.345
-381.946	-25.846	-0.301	0.176
-380.931	-157.209	0.255	0.015
-379.917	-18.290	0.123	-0.077
-378.902	-118.685	-0.114	0.020
-377.888	159.770	-0.095	0.131
-376.873	-41.232	0.195	-0.100
-375.858	800.000	-0.050	-0.188
-374.844	-200.000	-0.040	0.183
-373.829	-152.221	-0.185	0.013
-372.815	-122.582	0.157	0.025
-371.800	-200.000	-0.017	0.314
-370.785	297.348	-0.106	-0.193
-369.771	219.723	0.128	-0.203
-368.756	-145.056	-0.151	-0.014
-367.742	191.561	0.215	0.322
-366.727	110.655	0.236	-0.283
-365.712	601.411	-0.079	0.195
-364.698	-200.000	-0.010	0.275
-363.683	-186.859	-0.085	-0.001
-362.669	179.587	0.186	0.270
-361.654	64.503	0.172	0.172
-360.639	-110.278	0.102	-0.021
-359.625	56.513	-0.231	-0.223
-358.610	80.659	-0.162	-0.173
-357.596	-97.573	-0.321	0.083
-356.581	-124.513	-0.050	0.008
-355.566	744.298	0.085	0.227
-354.552	120.388	0.030	-0.037
-353.537	-200.000	-0.007	-0.190
-352.523	32.723	-0.250	-0.215
-351.508	152.335	0.054	-0.074
-350.493	163.180	-0.077	0.107
-349.479	482.755	-0.076	-0.172
-348.464	-107.995	0.070	-0.015
-347.450	-158.393	-0.105	-0.006
-346.435	108.728	0.277	-0.329
-345.420	-13.545	-0.151	-0.097
-344.406	88.177	-0.160	0.176
-343.391	325.822	0.039	0.075
-342.377	-200.000	-0.005	0.026
-341.362	800.000	0.082	-0.324
-340.348	-61.273	-0.321	0.134
-339.333	58.384	0.259	0.252
-338.318	800.000	0.057	-0.198
-337.304	173.637	-0.134	-0.192
-336.289	-80.058	0.091	-0.030
-335.275	-180.875	-0.501	-0.010
-334.260	434.712	-0.034	-0.072
-333.245	334.451	0.205	0.393
-332.231	-200.000	-0.059	0.271
-331.216	-200.000	0.003	-0.242
-330.202	102.122	-0.113	-0.131
-329.187	39.369	-0.096	-0.085
-328.172	207.882	-0.050	-0.077
-327.158	324.658	-0.245	0.464
-326.143	800.000	0.076	0.304
-325.129	165.232	0.069	0.097
-324.114	27.656	-0.086	-0.072
-323.099	-200.000	-0.020	-0.284
-322.085	-157.538	-0.139	0.008
-321.070	-200.000	-0.045	-0.322
-320.056	-179.255	-0.308	0.007
-319.041	-120.613	0.146	0.024
-318.026	20.216	0.185	0.148
-317.012	-102.392	-0.249	0.059
-315.997	6.044	0.083	-0.061
-314.983	-200.000	0.003	-0.044
-313.968	-71.324	-0.174	0.065
-312.953	212.102	-0.135	0.212
-311.939	268.692	-0.072	-0.125
-310.924	-200.000	-0.007	0.051
-309.910	121.711	0.152	-0.188
-308.895	7.636	-0.193	-0.143
-307.880	-200.000	-0.001	0.023
-306.866	483.452	0.018	0.040
-305.851	-115.683	0.074	-0.014
-304.837	-41.439	-0.129	-0.066
-303.822	-37.448	0.310	-0.164
-302.807	-47.099	0.290	-0.140
-301.793	-121.089	-0.206	-0.034
-300.778	-32.995	-0.252	0.139
-299.764	800.000	-0.051	-0.173
-298.749	-121.909	-0.130	0.021
-297.735	-173.059	0.198	0.006
-296.720	666.946	-0.075	-0.191
-295.705	-73.304	-0.240	0.087
-294.691	464.724	-0.135	0.300
-293.676	-52.732	0.319	-0.146
-292.662	56.111	-0.252	-0.243
-291.647	-149.370	0.185	-0.015
-290.632	-200.000	-0.026	0.178
-289.618	213.007	0.169	0.264
-288.603	53.026	0.150	0.142
-287.589	240.044	-0.023	-0.039
-286.574	-86.435	0.072	-0.022
-285.559	800.000	-0.081	0.348
-284.545	-90.944	-0.105	0.030
-283.530	361.275	0.096	-0.191
-282.516	-1.008	0.031	-0.022
-281.501	-47.603	0.167	0.080
-280.486	-34.944	-0.215	0.116
-279.472	216.422	-0.073	-0.115
-278.457	88.927	0.153	-0.169
-277.443	-26.799	0.152	-0.088
-276.428	-62.699	0.207	-0.085
-275.413	-200.000	-0.041	0.258
-274.399	19.409	-0.061	0.048
-273.384	800.000	-0.127	-0.425
-272.370	800.000	-0.035	-0.104
-271.355	-200.000	0.041	-0.226
-270.340	-175.098	0.302	-0.008
-269.326	-200.000	-0.045	0.304
-268.311	-193.536	-0.017	-0.000
-267.297	3.746	0.140	-0.101
-266.282	-132.991	0.286	0.036
-265.267	-200.000	-0.002	-0.144
-264.253	-138.106	0.197	0.022
-263.238	545.836	-0.082	0.195
-262.224	-119.194	0.372	-0.064
-261.209	-2.492	-0.172	-0.119
-260.195	122.992	-0.421	-0.522
-259.180	84.125	-0.289	0.312
-258.165	-120.137	-0.418	0.071
-257.151	-200.000	-0.026	-0.249
-256.136	583.703	0.091	-0.221
-255.122	9.013	-0.155	-0.116
-254.107	64.253	0.168	-0.167
-253.092	256.430	-0.054	0.091
-252.078	205.084	-0.098	0.150
-251.063	3.371	-0.198	-0.143
-250.049	797.989	-0.050	0.137
-249.034	-30.001	-0.113	-0.064
-248.019	-200.000	0.005	-0.117
-247.005	-32.002	0.512	-0.284
-245.990	80.232	-0.257	-0.273
-244.976	417.749	-0.097	-0.205
-243.961	91.485	0.191	0.213
-242.946	-155.083	-0.419	-0.027
-241.932	-200.000	0.044	-0.260
-240.917	-83.672	-0.051	0.016
-239.903	-8.311	-0.360	-0.239
-238.888	166.355	0.102	-0.142
-237.873	165.133	0.180	-0.252
-236.859	-15.757	-0.167	0.105
-235.844	-83.683	0.221	-0.070
-234.830	800.000	-0.028	-0.093
-233.815	199.436	0.202	-0.307
-232.800	-200.000	0.007	0.148
-231.786	15.189	-0.190	0.148
-230.771	59.197	-0.183	0.179
-229.757	-142.295	0.211	0.021
-228.742	566.505	0.056	-0.134
-227.727	-75.471	-0.328	0.115
-226.713	-200.000	-0.007	-0.306
-225.698	617.454	0.033	-0.082
-224.684	120.190	0.084	-0.104
-223.669	338.515	0.195	-0.375
-222.655	80.489	-0.252	0.268
-221.640	-42.031	-0.113	-0.057
-220.625	142.741	0.197	-0.258
-219.611	-167.596	0.139	0.005
-218.596	-200.000	0.025	-0.129
-217.582	800.000	0.042	0.132
-216.567	-200.000	0.034	-0.168
-215.552	-52.993	0.273	-0.124
-214.538	-200.000	0.014	0.194
-213.523	-17.370	0.204	-0.127
-212.509	400.261	0.024	0.051
-211.494	-19.030	-0.421	0.259
-210.479	-200.000	0.000	0.068
-209.465	-142.600	0.352	0.034
-208.450	190.166	-0.171	-0.254
-207.436	299.146	0.141	0.256
-206.421	-137.944	0.045	-0.005
-205.406	800.000	-0.027	-0.092
-204.392	35.568	-0.091	0.079
-203.377	394.470	-0.063	0.130
-202.363	-200.000	-0.016	-0.104
-201.348	-28.519	0.310	0.176
-200.333	-200.000	-0.005	-0.106
-199.319	800.000	-0.046	-0.156
-198.304	-89.531	0.097	-0.028
-197.290	-66.919	0.318	0.124
-196.275	173.193	-0.107	-0.153
-195.260	-200.000	-0.001	-0.244
-194.246	40.172	0.104	-0.093
-193.231	270.142	0.079	-0.137
-192.217	626.100	-0.089	0.221
-191.202	177.770	-0.218	0.313
-190.187	-153.887	-0.069	-0.005
-189.173	-200.000	-0.015	0.078
-188.158	-45.472	-0.018	0.009
-187.144	800.000	-0.026	-0.071
-186.129	-13.319	-0.090	0.058
-185.114	-200.000	-0.012	0.162
-184.100	-200.000	0.056	0.362
-183.085	-7.417	0.363	0.242
-182.071	403.722	-0.064	-0.133
-181.056	-102.655	-0.060	-0.014
-180.042	-200.000	0.017	-0.343
-179.027	-83.506	0.116	-0.037
-178.012	-105.003	-0.311	0.070
-176.998	173.106	-0.099	-0.141
-175.983	35.634	-0.171	-0.148
-174.969	252.173	-0.065	-0.109
-173.954	-116.434	-0.291	-0.053
-172.939	-200.000	-0.005	-0.083
-171.925	-15.187	0.146	0.092
-170.910	-45.297	0.063	-0.031
-169.896	317.249	-0.058	-0.107
-168.881	30.077	-0.144	0.121
-167.866	-12.158	-0.261	-0.168
-166.852	-38.703	-0.059	-0.031
-165.837	-196.609	0.063	0.000
-164.823	-116.120	0.128	0.023
-163.808	99.152	0.115	-0.131
-162.793	-200.000	0.011	0.087
-161.779	17.186	-0.233	0.183
-160.764	151.502	0.120	0.161
-159.750	770.787	0.086	-0.230
-158.735	-52.499	-0.154	-0.070
-157.720	268.557	0.186	0.322
-156.706	246.263	0.168	-0.279
-155.691	-49.924	-0.342	0.160
-154.677	-49.521	-0.181	-0.085
-153.662	800.000	-0.095	-0.393
-152.647	-89.700	0.225	-0.065
-151.633	72.726	0.182	0.187
-150.618	-42.315	0.115	-0.058
-149.604	-143.486	0.195	0.018
-148.589	-200.000	0.295	0.001
-147.574	-119.996	-0.231	0.039
-146.560	800.000	-0.072	-0.203
-145.545	16.700	-0.227	-0.177
-144.531	684.064	-0.050	0.129
-143.516	800.000	-0.077	0.318
-142.502	-159.745	-0.325	-0.018
-141.487	800.000	0.007	-0.019
-140.472	-200.000	-0.054	0.302
-139.458	800.000	0.089	0.290
-138.443	-200.000	-0.059	0.272
-137.429	121.587	-0.138	-0.170
-136.414	-47.818	-0.238	0.114
-135.399	-145.416	-0.356	-0.032
-134.385	-37.116	0.394	-0.208
-133.370	-200.000	0.014	0.107
-132.356	-200.000	-0.242	-0.001
-131.341	-200.000	-0.013	-0.157
-130.326	132.152	-0.162	0.206
-129.312	326.495	0.043	-0.081
-128.297	-120.741	-0.029	0.005
-127.283	-75.663	0.175	-0.061
-126.268	-23.566	-0.367	0.217
-125.253	-146.488	-0.480	0.041
-124.239	147.337	0.238	0.315
-123.224	-200.000	0.004	-0.120
-122.210	-81.202	0.264	-0.086
-121.195	800.000	-0.116	-0.409
-120.180	-200.000	0.028	0.191
-119.166	265.834	-0.081	-0.139
-118.151	-200.000	0.040	0.417
-117.137	-4.782	-0.191	-0.130
-116.122	-86.786	0.422	0.127
-115.107	10.737	0.112	-0.084
-114.093	-130.066	0.269	-0.036
-113.078	-42.856	-0.171	0.086
-112.064	-21.837	0.074	0.044
-111.049	-94.241	-0.247	0.067
-110.034	195.097	0.308	0.460
-109.020	22.632	-0.214	-0.172
-108.005	-0.505	0.133	0.093
-106.991	109.777	0.105	0.124
-105.976	-2.243	0.137	0.095
-104.962	-62.753	-0.165	-0.067
-103.947	81.169	0.260	0.276
-102.932	-200.000	0.024	-0.288
-101.918	-121.933	-0.439	0.071
-100.903	97.852	0.067	0.076
-99.889	-64.051	-0.068	0.027
-98.874	-148.853	0.126	0.010
-97.859	524.933	-0.058	0.135
-96.845	-127.028	-0.085	0.012
-95.830	-159.535	-0.225	-0.012
-94.816	-88.977	0.234	0.068
-93.801	-104.661	0.240	0.054
-92.786	-130.725	-0.340	-0.045
-91.772	75.851	-0.287	-0.298
-90.757	-41.806	-0.225	-0.114
-89.743	401.487	-0.153	0.317
-88.728	-200.000	0.028	0.249
-87.713	-3.410	0.196	0.134
-86.699	800.000	0.058	0.192
-85.684	-3.992	-0.303	0.207
-84.670	217.922	0.077	0.121
-83.655	-95.902	0.178	-0.047
-82.640	62.195	0.005	-0.005
-81.626	299.557	-0.203	-0.368
-80.611	210.950	0.117	-0.181
-79.597	-200.000	-0.012	-0.129
-78.582	-200.000	0.042	0.202
-77.567	-69.475	-0.201	0.076
-76.553	312.658	0.066	-0.123
-75.538	688.700	-0.109	0.281
-74.524	88.712	0.092	0.101
-73.509	-144.759	-0.276	0.025
-72.494	138.176	0.138	0.178
-71.480	-145.383	-0.154	0.014
-70.465	339.247	0.071	-0.137
-69.451	169.342	0.246	-0.345
-68.436	-130.050	-0.215	0.029
-67.422	94.514	0.050	0.056
-66.407	-107.467	0.184	-0.040
-65.392	-200.000	-0.010	-0.370
-64.378	188.312	-0.125	-0.184
-63.363	-29.868	-0.129	-0.072
-62.349	35.196	-0.211	-0.181
-61.334	181.828	-0.751	-1.087
-60.319	371.667	0.349	0.695
-59.305	538.649	-0.439	-1.027
-58.290	166.891	0.601	0.838
-57.276	800.000	0.550	1.706
-56.261	-200.000	103.031	599.805
-55.246	562.220	1437.193	3415.829
-54.232	186.697	2626.151	3842.497
-53.217	116.798	2169.201	2615.593
-52.203	41.395	1697.674	1508.782
-51.188	33.725	1506.516	1287.078
-50.173	31.384	1479.369	1248.224
-49.159	52.159	1532.603	1434.892
-48.144	52.798	1550.669	1456.100
-47.130	33.940	1507.519	1289.187
-46.115	30.843	1492.980	1255.857
-45.100	30.640	1488.948	1251.049
-44.086	30.686	1486.835	1249.537
-43.071	30.579	1485.056	1247.274
-42.057	30.464	1483.626	1245.251
-41.042	30.460	1482.354	1244.105
-40.027	30.558	1480.737	1243.359
-39.013	30.562	1479.121	1241.976
-37.998	30.448	1478.193	1240.384
-36.984	30.509	1476.672	1239.468
-35.969	30.557	1475.045	1238.371
-34.954	30.464	1473.954	1236.788
-33.940	30.536	1472.617	1236.096
-32.925	30.568	1471.279	1235.139
-31.911	30.469	1469.964	1233.330
-30.896	30.622	1468.757	1233.279
-29.881	30.673	1467.175	1232.242
-28.867	30.604	1465.899	1230.665
-27.852	30.567	1465.048	1229.654
-26.838	30.576	1463.323	1228.219
-25.823	30.591	1461.290	1226.563
-24.809	30.587	1460.253	1225.619
-23.794	30.657	1458.628	1224.665
-22.779	30.652	1457.629	1223.745
-21.765	30.600	1456.727	1222.597
-20.750	30.562	1455.523	1221.288
-19.736	30.513	1454.947	1220.435
-18.721	30.574	1453.278	1219.385
-17.706	30.500	1452.798	1218.447
-16.692	30.538	1451.207	1217.317
-15.677	30.593	1450.263	1216.834
-14.663	30.504	1449.250	1215.357
-13.648	30.520	1448.169	1214.505
-12.633	30.572	1446.859	1213.695
-11.619	30.516	1447.029	1213.424
-10.604	30.512	1445.624	1212.172
-9.590	30.522	1444.613	1211.346
-8.575	30.506	1444.072	1210.737
-7.560	30.489	1443.205	1209.850
-6.546	30.634	1441.657	1209.451
-5.531	30.530	1441.556	1208.641
-4.517	30.418	1440.594	1207.056
-3.502	30.621	1438.928	1206.931
-2.487	30.555	1438.290	1205.919
-1.473	30.518	1437.352	1204.846
-0.458	30.494	1436.056	1203.560
0.556	29.369	1426.554	1192.985
1.571	26.625	1401.559	1154.509
2.586	23.306	1344.597	1087.157
3.600	21.666	1264.282	1012.659
4.615	20.307	1219.141	968.832
5.629	17.739	1163.543	910.868
6.644	10.824	1081.411	812.052
7.659	5.641	1043.882	758.749
8.673	5.062	1038.650	752.086
9.688	4.871	1035.575	748.879
10.702	4.816	1033.817	747.274
11.717	4.762	1032.115	745.720
12.731	6.707	1033.894	756.268
13.746	13.286	1042.485	794.176
14.761	18.327	1048.488	822.970
15.775	18.364	1048.126	822.792
16.790	17.411	1045.443	816.043
17.804	16.418	1043.332	809.568
18.819	15.496	1041.703	803.820
19.834	15.042	1040.256	800.464
20.848	14.812	1039.387	798.624
21.863	14.389	1038.697	796.004
22.877	14.229	1038.185	794.777
23.892	14.213	1036.802	793.573
24.907	13.926	1036.450	791.865
25.921	14.087	1035.361	791.726
26.936	14.151	1034.728	791.477
27.950	14.151	1034.062	790.897
28.965	14.016	1032.679	789.129
29.980	14.246	1031.341	789.129
30.994	14.240	1030.415	788.324
32.009	14.225	1029.506	787.483
33.023	14.265	1029.050	787.255
34.038	14.414	1027.923	787.027
35.053	14.238	1026.986	785.409
36.067	14.178	1025.691	784.069
37.082	14.137	1025.416	783.596
38.096	14.216	1024.149	782.928
39.111	14.312	1023.504	782.820
40.126	14.235	1022.806	781.856
41.140	14.194	1021.540	780.624
42.155	14.074	1020.348	779.084
43.169	14.042	1019.325	778.084
44.184	13.954	1018.634	777.075
45.199	13.933	1017.487	776.033
46.213	13.959	1016.373	775.237
47.228	13.985	1015.810	774.861
48.242	14.118	1014.639	774.518
49.257	14.191	1013.453	773.883
50.271	14.251	1012.148	773.096
51.286	14.096	1012.102	772.271
52.301	14.159	1011.113	771.742
53.315	14.349	1009.509	771.329
54.330	14.067	1009.443	769.904
55.344	13.994	1008.569	768.832
56.359	13.984	1007.648	768.015
57.374	14.001	1006.937	767.486
58.388	14.079	1005.873	766.968
59.403	13.934	1005.029	765.585
60.417	13.876	1004.053	764.509
61.432	13.955	1003.480	764.368
62.447	13.850	1003.131	763.550
63.461	13.969	1001.510	762.794
64.476	13.921	1000.682	761.877
65.490	13.842	1000.033	760.954
66.505	13.886	999.233	760.480
67.520	13.866	998.544	759.798
68.534	13.894	997.617	759.150
69.549	13.839	997.211	758.526
70.563	14.014	996.332	758.588
71.578	13.923	995.626	757.568
72.593	13.890	994.971	756.853
73.607	13.725	993.657	755.033
74.622	13.849	992.758	754.849
75.636	13.877	991.674	754.084
76.651	13.768	991.364	753.287
77.666	13.865	990.553	753.044
78.680	13.819	989.650	752.082
79.695	13.907	989.249	752.110
80.709	13.729	988.695	750.818
81.724	13.869	988.048	750.892
82.739	13.907	987.423	750.523
83.753	14.103	986.410	750.569
84.768	14.052	986.123	750.056
85.782	14.139	985.373	749.813
86.797	14.356	984.591	750.127
87.812	14.223	983.837	748.887
88.826	14.268	982.465	747.978
89.841	14.174	982.038	747.168
90.855	14.211	980.959	746.447
91.870	14.258	980.329	746.110
92.884	14.278	979.735	745.680
93.899	14.260	978.649	744.706
94.914	14.374	978.205	744.813
95.928	14.287	977.456	743.789
96.943	14.394	976.615	743.560
97.957	14.230	975.904	742.223
98.972	14.286	975.296	741.945
99.987	14.164	974.679	740.865
101.001	14.283	973.999	740.811
102.016	14.182	973.276	739.747
103.030	14.180	971.883	738.617
104.045	14.176	971.154	737.978
105.060	14.202	970.517	737.544
106.074	14.218	969.106	736.480
107.089	14.235	968.132	735.748
108.103	13.941	967.418	733.842
109.118	14.075	966.367	733.569
110.133	14.008	965.644	732.662
111.147	14.006	965.011	732.107
112.162	13.939	964.178	731.114
113.176	13.904	963.302	730.233
114.191	13.974	962.347	729.749
115.206	14.054	961.626	729.493
116.220	14.039	961.039	728.918
117.235	14.125	959.958	728.410
118.249	14.027	959.138	727.293
119.264	14.060	958.187	726.651
120.279	14.052	957.782	726.244
121.293	14.014	956.820	725.285
122.308	14.014	955.909	724.529
123.322	14.113	955.281	724.422
124.337	13.909	954.513	722.888
125.352	13.927	953.307	721.989
126.366	13.814	952.046	720.478
127.381	13.889	951.343	720.208
128.395	13.779	950.736	719.207
129.410	13.966	949.616	719.107
130.424	14.010	948.384	718.303
131.439	13.900	947.830	717.342
132.454	14.003	947.031	717.121
133.468	13.874	946.658	716.216
134.483	14.183	945.818	716.850
135.497	13.977	945.265	715.478
136.512	13.938	944.470	714.648
137.527	14.130	942.976	714.276
138.541	14.084	942.529	713.680
139.556	14.097	942.041	713.303
140.570	14.035	941.210	712.345
141.585	14.175	940.139	712.070
142.600	14.295	939.626	712.131
143.614	14.261	939.392	711.743
144.629	14.249	938.516	710.969
145.643	14.334	937.516	710.509
146.658	14.332	936.893	709.965
147.673	14.309	935.829	708.998
148.687	14.167	935.222	707.872
149.702	14.161	933.998	706.860
150.716	14.109	933.297	706.045
151.731	14.283	932.430	706.066
152.746	14.108	931.736	704.733
153.760	14.156	931.189	704.462
154.775	14.272	930.304	704.219
155.789	14.175	929.964	703.488
156.804	14.265	928.936	703.032
157.819	14.338	928.233	702.746
158.833	14.335	927.513	702.123
159.848	14.421	926.989	702.027
160.862	14.488	926.299	701.726
161.877	14.302	925.801	700.503
162.892	14.271	924.661	699.449
163.906	14.245	923.558	698.444
164.921	14.256	923.302	698.234
165.935	14.328	921.638	697.215
166.950	14.312	920.877	696.509
167.964	14.338	920.007	695.902
168.979	14.327	919.074	695.086
169.994	14.395	917.772	694.326
171.008	14.214	917.187	693.066
172.023	14.405	916.552	693.319
173.037	14.456	915.959	693.021
174.052	14.469	915.171	692.417
175.067	14.494	914.721	692.122
176.081	14.474	913.341	690.934
177.096	14.267	912.944	689.713
178.110	14.390	911.650	689.182
179.125	14.365	910.986	688.517
180.140	14.347	910.739	688.197
181.154	14.550	909.540	688.067
182.169	14.518	909.109	687.546
183.183	14.538	908.108	686.812
184.198	14.646	907.981	687.101
185.213	14.627	907.064	686.267
186.227	14.558	906.395	685.417
187.242	14.571	906.195	685.257
188.256	14.632	905.418	684.860
189.271	14.654	904.838	684.450
190.286	14.583	904.078	683.524
191.300	14.532	902.833	682.315
192.315	14.343	901.833	680.728
193.329	14.276	901.900	680.440
194.344	14.153	901.304	679.429
195.359	14.365	900.290	679.472
196.373	14.508	899.924	679.716
197.388	14.580	899.583	679.694
198.402	14.715	899.019	679.756
199.417	14.709	898.721	679.446
200.432	14.821	898.312	679.530
201.446	14.737	897.871	678.795
202.461	14.763	897.568	678.614
203.475	14.881	896.846	678.485
204.490	14.984	895.961	678.174
205.504	14.883	895.278	677.186
206.519	14.787	894.434	676.101
207.534	14.748	894.063	675.604
208.548	14.694	893.229	674.696
209.563	14.759	892.614	674.432
210.577	14.822	891.609	673.869
211.592	14.805	891.131	673.377
212.607	14.869	890.762	673.298
213.621	14.940	889.983	672.934
214.636	14.933	889.424	672.425
215.650	15.110	888.853	672.647
216.665	15.012	888.241	671.731
217.680	15.034	888.007	671.580
218.694	15.181	887.015	671.361
219.709	15.133	886.792	670.938
220.723	14.996	886.586	670.177
221.738	15.084	885.348	669.532
222.753	15.047	884.919	668.999
223.767	14.993	884.327	668.280
224.782	15.096	883.348	667.889
225.796	15.221	882.825	667.935
226.811	15.116	882.325	667.077
227.826	15.158	881.534	666.587
228.840	15.127	880.763	665.824
229.855	14.985	880.205	664.779
230.869	15.042	879.245	664.221
231.884	15.220	878.567	664.358
232.899	15.193	877.738	663.563
233.913	15.093	877.195	662.697
234.928	15.179	876.663	662.577
235.942	14.950	875.837	660.990
236.957	15.071	875.086	660.844
237.972	15.073	874.637	660.453
238.986	15.039	873.819	659.644
240.001	14.985	873.389	659.048
241.015	15.081	872.477	658.678
242.030	15.147	871.645	658.253
243.045	15.157	871.328	657.993
244.059	15.182	870.897	657.708
245.074	15.237	870.328	657.436
246.088	15.242	869.528	656.795
247.103	15.313	869.118	656.702
248.117	15.402	868.807	656.757
249.132	15.576	868.037	656.800
250.147	15.567	867.398	656.222
251.161	15.630	867.005	656.113
252.176	15.732	866.298	655.916
253.190	15.687	865.559	655.124
254.205	15.768	865.122	655.051
255.220	15.681	864.644	654.291
256.234	15.699	863.995	653.811
257.249	15.744	863.254	653.370
258.263	15.660	863.304	653.022
259.278	15.718	862.283	652.417
260.293	15.872	861.748	652.554
261.307	15.750	861.351	651.722
262.322	15.874	860.630	651.598
263.336	15.937	859.888	651.222
264.351	15.859	859.619	650.661
265.366	15.946	858.967	650.445
266.380	16.005	858.131	649.983
267.395	15.877	857.620	649.044
268.409	15.810	856.760	648.079
269.424	15.786	856.199	647.503
270.439	15.959	855.312	647.442
271.453	15.843	854.551	646.360
272.468	15.924	853.693	645.965
273.482	15.988	853.027	645.649
274.497	15.797	852.919	644.780
275.512	15.856	852.279	644.465
276.526	15.879	851.120	643.620
277.541	15.913	850.725	643.393
278.555	15.906	850.095	642.833
279.570	15.886	850.139	642.735
280.585	15.919	849.496	642.316
281.599	16.043	848.929	642.303
282.614	16.072	848.118	641.743
283.628	16.172	846.983	641.209
284.643	15.873	847.288	640.245
285.657	16.040	846.463	640.198
286.672	16.011	846.052	639.720
287.687	16.019	845.503	639.279
288.701	16.039	845.046	638.952
289.716	16.072	844.472	638.586
290.730	16.053	843.760	637.920
291.745	16.229	842.868	637.858
292.760	16.127	841.963	636.730
293.774	16.199	841.926	636.916
294.789	16.276	841.262	636.650
295.803	16.179	840.653	635.766
296.818	16.094	840.285	635.111
297.833	16.154	839.868	634.965
298.847	16.159	838.755	634.087
299.862	16.206	837.955	633.604
300.876	16.331	837.113	633.378
301.891	16.254	837.028	632.968
302.906	16.447	835.942	632.816
303.920	16.508	835.366	632.551
304.935	16.245	835.039	631.263
305.949	16.482	834.194	631.456
306.964	16.486	833.849	631.154
307.979	16.474	832.980	630.395
308.993	16.511	832.603	630.193
310.008	16.445	832.131	629.531
311.022	16.502	831.694	629.359
312.037	16.565	830.991	629.004
313.052	16.500	830.273	628.165
314.066	16.456	829.820	627.601
315.081	16.376	829.375	626.914
316.095	16.414	828.690	626.479
317.110	16.415	827.974	625.889
318.125	16.458	827.756	625.829
319.139	16.342	827.505	625.152
320.154	16.435	826.780	624.893
321.168	16.442	825.498	623.895
322.183	16.586	825.420	624.314
323.197	16.500	825.121	623.715
324.212	16.414	824.642	622.979
325.227	16.439	824.241	622.714
326.241	16.397	823.527	621.965
327.256	16.513	822.820	621.802
328.270	16.602	822.240	621.635
329.285	16.547	821.847	621.083
330.300	16.650	821.147	620.876
331.314	16.648	820.618	620.415
332.329	16.622	820.456	620.139
333.343	16.553	819.985	619.476
334.358	16.690	818.746	618.986
335.373	16.719	818.517	618.865
336.387	16.599	818.046	618.017
337.402	16.659	817.451	617.732
338.416	16.695	816.928	617.413
339.431	16.724	816.605	617.221
340.446	16.950	815.804	617.382
341.460	16.926	815.668	617.137
342.475	17.082	814.601	616.841
343.489	16.912	814.670	616.222
344.504	17.068	813.654	615.966
345.519	16.972	813.525	615.465
346.533	17.000	812.793	614.957
347.548	16.966	812.713	614.720
348.562	16.961	811.840	613.988
349.577	17.020	811.006	613.516
350.592	16.915	810.562	612.747
351.606	16.889	810.075	612.231
352.621	16.988	809.267	611.920
353.635	16.862	809.052	611.250
354.650	16.935	809.103	611.497
355.665	16.748	808.620	610.406
356.679	17.012	807.987	610.825
357.694	16.971	807.445	610.214
358.708	17.004	807.131	610.038
359.723	16.994	806.277	609.305
360.738	17.164	805.564	609.322
361.752	17.058	805.834	609.091
362.767	17.066	804.934	608.386
363.781	17.156	804.685	608.468
364.796	17.210	804.181	608.227
365.810	17.162	803.953	607.825
366.825	17.404	803.277	608.127
367.840	17.368	803.202	607.889
368.854	17.238	802.994	607.211
369.869	17.343	802.391	607.077
370.883	17.379	801.796	606.701
371.898	17.295	801.128	605.844
372.913	17.324	800.923	605.739
373.927	17.543	799.834	605.640
374.942	17.400	799.509	604.831
375.956	17.333	798.740	603.960
376.971	17.442	798.388	604.027
377.986	17.539	797.755	603.838
379.000	17.489	797.276	603.246
380.015	17.739	796.720	603.655
381.029	17.709	795.952	602.912
382.044	17.595	795.587	602.180
383.059	17.603	795.307	601.943
384.073	17.632	794.449	601.343
385.088	17.525	794.024	600.593
386.102	17.442	793.422	599.790
387.117	17.467	793.198	599.656
388.132	17.362	792.651	598.819
389.146	17.460	792.457	598.967
390.161	17.603	791.613	598.779
391.175	17.665	791.176	598.612
392.190	17.668	791.233	598.614
393.205	17.722	790.534	598.220
394.219	17.718	789.719	597.537
395.234	17.611	789.629	597.039
396.248	17.501	789.056	596.167
397.263	17.557	788.523	595.909
398.278	17.409	788.169	595.070
399.292	17.478	787.852	595.022
400.307	17.432	787.456	594.509
401.321	17.585	786.570	594.320
402.336	17.442	786.584	593.779
403.350	17.653	785.830	593.892
404.365	17.655	785.489	593.592
405.380	17.818	784.948	593.695
406.394	17.742	784.919	593.358
407.409	17.867	784.117	593.135
408.423	17.919	783.974	593.153
409.438	17.959	783.324	592.749
410.453	18.116	782.701	592.768
411.467	17.996	782.429	592.093
412.482	18.017	781.854	591.680
413.496	18.065	781.697	591.672
414.511	18.131	781.572	591.754
415.526	18.068	781.107	591.131
416.540	17.992	780.865	590.635
417.555	18.041	780.310	590.331
418.569	18.046	779.612	589.768
419.584	17.986	779.374	589.331
420.599	18.108	778.783	589.250
421.613	157.017	1368.830	1795.258
422.628	135.489	1454.808	1795.358
