DTS Sentinel unit serial number:	SN413079Multiplexer serial number:	ORYXHardware model number:	OX4-SRSoftware version number:	ORYX F/W v4.00 Oryx Data Collector v3.7.2.0data status	okinstallation	princeton_trtdifferential loss correction	single-endedforward channel	channel 3reverse channel	N/Adate	2019/09/15time	11:28:35forward acquisition time	60.00reverse acquisition time	0.00gamma	496.2192k internal	0.2307k external	0.2307temperature offset calibration	0.9976default loss term (dB/km)	0.3790temperature slope calibration	1.0000multiplexer offset coefficient	1.0000multiplexer slope coefficient	1.0000fibre end	0.00T internal ref (°C)	34.31T ext. ref 1 (°C)	5.02T ext. ref 2 (°C)	29.82length (m)	temperature (°C)	Stokes	anti-Stokes-747.200	-200.000	0.063	-0.314
-746.185	105.167	-0.123	0.148
-745.171	245.473	-0.100	-0.172
-744.156	-200.000	-0.036	0.459
-743.142	800.000	0.061	0.251
-742.127	-200.000	-0.040	-0.222
-741.112	137.560	-0.043	0.058
-740.098	-200.000	0.064	0.332
-739.083	46.814	-0.159	0.151
-738.069	-200.000	0.002	0.182
-737.054	-18.809	-0.079	-0.050
-736.039	-68.398	-0.214	0.084
-735.025	800.000	0.020	-0.057
-734.010	14.398	0.024	-0.019
-732.996	-115.947	-0.257	-0.049
-731.981	800.000	-0.108	0.315
-730.966	89.690	0.016	0.018
-729.952	-63.268	-0.187	-0.078
-728.937	-10.507	-0.458	0.308
-727.923	47.847	-0.172	-0.163
-726.908	22.585	-0.222	-0.184
-725.894	-21.999	-0.210	-0.130
-724.879	-200.000	-0.012	-0.080
-723.864	102.801	-0.185	0.220
-722.850	-179.913	0.240	-0.005
-721.835	422.489	0.141	0.307
-720.821	673.921	-0.055	-0.145
-719.806	-49.208	-0.127	-0.061
-718.791	-118.624	-0.092	-0.016
-717.777	109.784	-0.230	-0.281
-716.762	-200.000	0.020	0.207
-715.748	-73.301	0.188	-0.070
-714.733	-70.199	0.379	-0.146
-713.718	-87.498	-0.130	0.040
-712.704	-136.938	-0.057	0.007
-711.689	800.000	0.033	-0.138
-710.675	-162.263	-0.201	0.010
-709.660	45.210	-0.381	0.357
-708.645	191.796	-0.202	0.309
-707.631	70.068	0.040	0.042
-706.616	458.958	-0.022	-0.051
-705.602	-110.161	-0.101	0.021
-704.587	39.084	0.255	0.232
-703.572	68.782	-0.254	0.264
-702.558	149.273	-0.075	0.103
-701.543	-200.000	0.002	-0.097
-700.529	-149.835	0.137	-0.011
-699.514	646.843	-0.058	-0.150
-698.499	695.176	0.083	0.220
-697.485	-89.856	-0.307	0.091
-696.470	-123.491	-0.041	-0.007
-695.456	-152.828	0.104	0.008
-694.441	-200.000	-0.048	-0.327
-693.426	800.000	-0.046	-0.189
-692.412	800.000	0.044	0.156
-691.397	-80.613	-0.223	-0.076
-690.383	27.910	0.099	0.084
-689.368	-18.216	0.343	0.218
-688.354	-200.000	0.014	0.196
-687.339	800.000	0.131	-0.387
-686.324	-200.000	0.024	0.243
-685.310	704.803	-0.060	0.160
-684.295	800.000	-0.040	-0.170
-683.281	710.625	0.025	0.068
-682.266	-144.366	-0.285	-0.027
-681.251	-200.000	-0.022	-0.403
-680.237	-200.000	-0.014	0.185
-679.222	-111.860	0.266	-0.054
-678.208	800.000	-0.100	-0.290
-677.193	-200.000	0.030	-0.177
-676.178	250.713	-0.132	-0.228
-675.164	305.128	0.061	0.115
-674.149	800.000	0.157	-0.489
-673.135	-70.554	-0.177	-0.068
-672.120	-42.792	-0.074	0.038
-671.105	-7.555	0.178	0.122
-670.091	-5.342	0.103	0.072
-669.076	-200.000	-0.003	0.172
-668.062	-109.539	0.096	-0.021
-667.047	-200.000	-0.022	-0.218
-666.032	-64.128	0.032	0.013
-665.018	184.110	-0.076	-0.114
-664.003	213.287	0.030	-0.047
-662.989	293.695	0.048	0.088
-661.974	-200.000	-0.003	-0.040
-660.959	39.648	0.177	-0.161
-659.945	-200.000	-0.001	-0.309
-658.930	800.000	0.052	0.192
-657.916	69.155	-0.089	-0.092
-656.901	475.291	0.076	-0.175
-655.886	-200.000	0.017	0.237
-654.872	91.931	-0.221	-0.253
-653.857	-133.722	0.157	0.020
-652.843	-72.320	0.140	-0.053
-651.828	128.932	0.130	0.168
-650.814	-200.000	0.044	0.212
-649.799	-200.000	-0.012	-0.111
-648.784	76.077	0.230	0.247
-647.770	752.163	-0.018	0.048
-646.755	-160.423	0.384	0.021
-645.741	148.399	-0.175	-0.239
-644.726	483.209	0.114	-0.263
-643.711	111.996	0.143	-0.175
-642.697	-200.000	-0.054	-0.264
-641.682	-200.000	-0.010	0.110
-640.668	-39.273	-0.311	-0.165
-639.653	-186.013	-0.325	0.005
-638.638	-1.902	0.181	0.129
-637.624	-200.000	-0.046	-0.212
-636.609	-93.681	0.369	0.103
-635.595	69.203	0.207	0.215
-634.580	-108.677	0.193	-0.042
-633.565	25.608	0.352	0.297
-632.551	-75.274	-0.221	-0.080
-631.536	800.000	-0.047	0.199
-630.522	-32.761	0.094	0.053
-629.507	800.000	0.108	-0.392
-628.492	-1.266	0.163	-0.116
-627.478	-47.281	-0.176	0.087
-626.463	65.080	0.211	-0.216
-625.449	136.885	-0.129	-0.170
-624.434	-200.000	0.001	-0.076
-623.419	-146.864	-0.083	0.007
-622.405	-4.535	-0.245	-0.171
-621.390	-108.706	-0.211	0.046
-620.376	443.334	-0.103	0.229
-619.361	-61.179	-0.190	-0.081
-618.346	306.606	-0.044	-0.082
-617.332	103.914	-0.296	-0.351
-616.317	-200.000	0.010	-0.298
-615.303	800.000	-0.079	-0.339
-614.288	-9.838	0.184	-0.124
-613.273	-138.291	0.123	0.014
-612.259	800.000	-0.067	-0.239
-611.244	-82.736	0.026	-0.008
-610.230	279.045	0.129	-0.232
-609.215	-200.000	-0.083	0.392
-608.201	4.626	-0.253	-0.188
-607.186	800.000	0.124	0.346
-606.171	116.363	-0.121	0.151
-605.157	580.226	-0.089	-0.222
-604.142	-3.029	-0.245	0.173
-603.128	-113.359	-0.069	0.014
-602.113	-76.035	-0.241	-0.086
-601.098	599.245	-0.109	-0.273
-600.084	-175.687	0.298	0.008
-599.069	800.000	0.063	0.183
-598.055	-126.266	0.160	0.024
-597.040	220.421	0.150	0.243
-596.025	-118.633	0.168	0.030
-595.011	428.477	-0.063	0.138
-593.996	-80.745	-0.140	-0.047
-592.982	-200.000	-0.009	-0.079
-591.967	-83.154	-0.279	0.091
-590.952	-101.847	0.203	-0.050
-589.938	-126.467	-0.050	0.008
-588.923	-200.000	-0.041	0.312
-587.909	323.675	0.071	-0.137
-586.894	141.697	0.171	-0.229
-585.879	-65.086	0.139	-0.057
-584.865	800.000	-0.039	-0.121
-583.850	-36.760	0.162	0.088
-582.836	484.023	-0.087	0.201
-581.821	54.187	-0.274	-0.266
-580.806	-88.166	-0.265	-0.080
-579.792	-0.813	-0.023	0.016
-578.777	-200.000	-0.015	-0.161
-577.763	-200.000	0.003	-0.143
-576.748	-81.665	-0.171	0.057
-575.733	-44.640	0.248	0.125
-574.719	-200.000	-0.032	0.238
-573.704	800.000	0.039	0.125
-572.690	-167.991	0.419	0.017
-571.675	-200.000	0.024	0.211
-570.661	-96.272	-0.327	0.087
-569.646	-56.590	-0.250	-0.112
-568.631	800.000	0.110	-0.401
-567.617	-200.000	-0.020	0.246
-566.602	13.480	0.254	-0.199
-565.588	-76.729	-0.204	-0.072
-564.573	-107.369	-0.150	-0.033
-563.558	-200.000	-0.037	0.176
-562.544	-19.858	0.440	0.275
-561.529	70.075	-0.019	0.020
-560.515	227.723	0.125	0.206
-559.500	-200.000	-0.021	0.185
-558.485	22.814	0.042	-0.035
-557.471	-137.557	-0.043	0.005
-556.456	800.000	0.069	-0.306
-555.442	-73.446	-0.429	-0.158
-554.427	329.329	-0.210	0.407
-553.412	293.225	0.038	0.070
-552.398	-200.000	-0.001	-0.012
-551.383	-165.007	-0.022	0.001
-550.369	-200.000	-0.000	0.274
-549.354	-105.345	0.284	-0.065
-548.339	800.000	0.023	0.074
-547.325	225.767	-0.040	-0.066
-546.310	168.627	0.172	-0.247
-545.296	99.420	-0.129	-0.151
-544.281	-61.640	0.562	-0.238
-543.266	-84.381	-0.524	0.167
-542.252	57.797	-0.187	0.185
-541.237	-134.895	0.221	-0.027
-540.223	359.964	0.121	-0.243
-539.208	69.511	-0.252	-0.262
-538.193	47.497	0.214	-0.201
-537.179	-80.035	-0.279	0.094
-536.164	-11.158	0.159	-0.106
-535.150	-120.172	-0.254	-0.044
-534.135	-138.448	-0.114	0.013
-533.121	-80.396	-0.095	-0.032
-532.106	-200.000	0.026	0.284
-531.091	-35.288	-0.177	-0.097
-530.077	528.130	-0.152	-0.362
-529.062	-158.144	-0.130	0.008
-528.048	800.000	-0.107	0.347
-527.033	-114.020	-0.174	0.034
-526.018	43.900	-0.212	0.196
-525.004	-200.000	-0.001	-0.222
-523.989	-66.737	-0.321	-0.128
-522.975	800.000	-0.047	-0.178
-521.960	16.690	-0.344	0.274
-520.945	-130.955	0.207	0.028
-519.931	440.038	0.075	0.166
-518.916	800.000	-0.066	-0.257
-517.902	-58.474	-0.059	-0.026
-516.887	410.244	-0.076	-0.162
-515.872	101.726	0.112	-0.131
-514.858	-200.000	0.044	-0.386
-513.843	179.354	-0.141	-0.209
-512.829	62.471	0.078	-0.078
-511.814	-66.747	0.402	0.160
-510.799	-5.160	-0.221	0.153
-509.785	285.361	0.082	0.148
-508.770	-29.438	-0.107	0.062
-507.756	-38.285	0.137	0.073
-506.741	800.000	0.199	-0.737
-505.726	-128.432	0.212	-0.030
-504.712	139.301	-0.122	-0.161
-503.697	782.885	-0.132	-0.365
-502.683	-91.560	-0.215	-0.062
-501.668	-178.811	0.286	-0.007
-500.653	245.621	-0.210	-0.357
-499.639	7.525	-0.208	-0.157
-498.624	-104.925	-0.229	-0.053
-497.610	-108.409	-0.175	0.038
-496.595	-200.000	0.027	0.198
-495.581	383.059	0.200	0.415
-494.566	-21.933	-0.231	0.141
-493.551	-17.696	0.278	-0.176
-492.537	-200.000	0.003	-0.211
-491.522	85.130	-0.147	0.162
-490.508	-78.656	-0.092	0.032
-489.493	-15.309	0.147	0.095
-488.478	109.300	-0.093	0.113
-487.464	477.742	-0.011	-0.026
-486.449	-134.445	0.414	-0.051
-485.435	-200.000	-0.045	-0.210
-484.420	-200.000	0.019	-0.331
-483.405	16.045	0.104	0.083
-482.391	-1.763	0.217	-0.154
-481.376	800.000	-0.088	-0.294
-480.362	146.156	0.060	0.082
-479.347	-127.754	0.233	-0.034
-478.332	-63.604	0.234	-0.097
-477.318	130.591	-0.039	-0.051
-476.303	66.436	0.110	0.113
-475.289	-158.778	0.163	-0.009
-474.274	445.470	0.049	0.108
-473.259	191.467	0.085	0.129
-472.245	-66.337	-0.119	-0.048
-471.230	-21.896	0.283	0.173
-470.216	109.211	-0.155	-0.187
-469.201	18.595	-0.213	0.171
-468.186	419.149	-0.104	-0.223
-467.172	89.153	0.082	-0.091
-466.157	531.045	0.079	-0.187
-465.143	-200.000	-0.071	-0.466
-464.128	-41.107	0.133	0.069
-463.113	-200.000	0.040	0.213
-462.099	52.069	0.151	-0.145
-461.084	87.462	-0.026	0.029
-460.070	120.442	0.153	-0.191
-459.055	-175.191	0.361	0.010
-458.040	123.152	0.220	-0.277
-457.026	-53.386	-0.288	-0.133
-456.011	-200.000	0.040	0.341
-454.997	-49.692	-0.152	-0.073
-453.982	-200.000	-0.050	-0.242
-452.968	66.124	-0.160	-0.164
-451.953	352.748	0.197	-0.394
-450.938	-84.017	-0.105	-0.034
-449.924	-25.652	0.192	-0.114
-448.909	-22.837	0.180	0.109
-447.895	800.000	-0.069	0.274
-446.880	180.003	0.144	0.212
-445.865	-49.522	-0.122	0.059
-444.851	147.143	-0.124	0.168
-443.836	142.287	0.276	0.368
-442.822	800.000	0.062	-0.190
-441.807	-200.000	-0.039	0.207
-440.792	-36.407	-0.020	0.011
-439.778	-200.000	-0.015	-0.160
-438.763	-171.004	-0.153	-0.005
-437.749	-99.636	-0.313	0.079
-436.734	-200.000	-0.046	-0.405
-435.719	-178.865	-0.304	0.007
-434.705	-200.000	0.010	0.102
-433.690	-50.305	0.255	0.121
-432.676	438.676	0.101	0.221
-431.661	101.275	-0.124	0.146
-430.646	800.000	-0.066	-0.203
-429.632	270.511	-0.060	-0.106
-428.617	-200.000	0.024	0.145
-427.603	-20.669	-0.228	0.140
-426.588	59.722	-0.300	-0.297
-425.573	-200.000	-0.004	-0.133
-424.559	-145.655	-0.132	0.012
-423.544	231.922	0.142	-0.234
-422.530	-150.966	-0.025	0.002
-421.515	234.120	0.040	-0.066
-420.500	-200.000	-0.001	0.176
-419.486	-45.736	0.311	-0.154
-418.471	36.138	0.129	0.114
-417.457	-200.000	0.004	0.056
-416.442	-200.000	-0.040	-0.419
-415.428	-71.812	-0.157	-0.059
-414.413	23.870	0.099	-0.082
-413.398	63.110	0.103	0.104
-412.384	800.000	0.013	0.056
-411.369	-29.298	0.198	0.114
-410.355	-137.717	0.169	0.019
-409.340	70.134	0.086	0.089
-408.325	-83.591	0.162	0.052
-407.311	-155.280	0.119	-0.008
-406.296	78.289	-0.130	0.139
-405.282	-82.503	-0.171	-0.056
-404.267	3.608	0.197	-0.144
-403.252	90.478	0.216	0.243
-402.238	492.581	0.092	-0.211
-401.223	-47.567	0.135	-0.066
-400.209	-70.482	0.186	-0.071
-399.194	23.533	0.164	-0.136
-398.179	800.000	0.022	0.083
-397.165	-200.000	-0.002	-0.086
-396.150	515.257	-0.047	0.110
-395.136	19.045	0.250	-0.201
-394.121	800.000	-0.066	-0.226
-393.106	-61.664	0.179	0.075
-392.092	-127.740	0.465	-0.067
-391.077	-63.780	0.153	-0.063
-390.063	5.326	-0.109	-0.080
-389.048	2.874	0.119	-0.086
-388.033	-200.000	0.106	0.552
-387.019	-12.702	0.060	-0.039
-386.004	800.000	-0.111	0.369
-384.990	4.427	0.274	0.201
-383.975	-135.974	-0.111	-0.013
-382.960	348.903	-0.176	-0.348
-381.946	336.196	-0.177	0.344
-380.931	370.602	-0.026	-0.054
-379.917	-200.000	0.014	-0.121
-378.902	-200.000	0.044	0.238
-377.888	800.000	-0.070	-0.206
-376.873	157.037	-0.047	0.065
-375.858	800.000	-0.022	0.078
-374.844	56.345	0.086	0.084
-373.829	-41.554	0.181	-0.093
-372.815	800.000	-0.060	0.190
-371.800	540.530	-0.018	0.042
-370.785	603.326	-0.020	0.049
-369.771	-173.999	-0.230	0.007
-368.756	-89.657	-0.298	0.088
-367.742	-56.869	-0.222	-0.098
-366.727	-101.495	0.196	-0.048
-365.712	-200.000	-0.008	-0.176
-364.698	226.955	-0.087	-0.141
-363.683	259.773	-0.264	-0.456
-362.669	-143.794	0.064	0.006
-361.654	800.000	-0.085	0.257
-360.639	-199.610	-0.078	0.000
-359.625	37.579	-0.057	0.050
-358.610	226.644	0.060	-0.098
-357.596	-74.961	-0.213	0.076
-356.581	-200.000	0.071	-0.471
-355.566	343.564	-0.166	0.325
-354.552	-200.000	-0.288	0.001
-353.537	252.290	-0.084	-0.144
-352.523	175.683	-0.195	0.283
-351.508	124.130	-0.213	0.268
-350.493	451.618	-0.060	-0.132
-349.479	-4.845	0.173	-0.120
-348.464	-44.408	0.207	0.104
-347.450	-58.723	0.195	0.085
-346.435	800.000	0.048	-0.140
-345.420	160.496	-0.144	-0.201
-344.406	327.177	0.204	0.392
-343.391	-57.209	0.073	-0.032
-342.377	323.861	-0.132	0.253
-341.362	-169.981	0.115	0.004
-340.348	-118.984	-0.524	0.092
-339.333	-200.000	-0.018	-0.279
-338.318	222.015	-0.116	0.187
-337.304	-32.395	-0.265	0.148
-336.289	76.803	-0.101	0.107
-335.275	-149.991	-0.152	0.012
-334.260	8.145	0.310	-0.233
-333.245	-74.761	0.097	0.035
-332.231	800.000	-0.033	-0.124
-331.216	51.062	-0.232	-0.220
-330.202	-74.031	-0.065	0.024
-329.187	800.000	0.050	-0.185
-328.172	800.000	-0.072	0.267
-327.158	-110.437	-0.238	0.049
-326.143	800.000	-0.076	0.225
-325.129	69.309	0.130	0.134
-324.114	800.000	0.034	0.126
-323.099	-24.978	-0.130	0.077
-322.085	-90.561	-0.238	0.069
-321.070	-112.737	0.102	0.020
-320.056	-200.000	0.003	0.164
-319.041	-25.060	0.107	0.064
-318.026	-200.000	-0.044	-0.296
-317.012	120.798	-0.030	-0.037
-315.997	-139.665	0.058	0.006
-314.983	-200.000	0.007	-0.036
-313.968	800.000	-0.074	-0.266
-312.953	-57.712	-0.075	-0.033
-311.939	-110.440	0.222	-0.046
-310.924	-122.243	-0.340	-0.056
-309.910	-53.069	-0.245	-0.113
-308.895	-6.617	0.077	-0.052
-307.880	51.304	-0.317	0.301
-306.866	-24.529	-0.116	0.069
-305.851	665.061	0.068	-0.176
-304.837	134.524	0.092	-0.119
-303.822	-200.000	0.061	0.366
-302.807	-200.000	-0.028	-0.379
-301.793	173.980	0.162	0.233
-300.778	-7.759	-0.292	0.197
-299.764	-118.241	-0.266	0.047
-298.749	326.968	-0.036	0.068
-297.735	800.000	0.042	-0.150
-296.720	196.449	0.096	0.146
-295.705	800.000	0.018	-0.058
-294.691	-141.730	-0.314	0.032
-293.676	119.020	0.045	0.056
-292.662	-80.985	-0.154	-0.051
-291.647	-200.000	-0.030	0.154
-290.632	204.222	-0.094	-0.146
-289.618	-41.036	0.196	-0.101
-288.603	-121.371	0.068	0.011
-287.589	-200.000	-0.038	-0.201
-286.574	-199.243	0.119	-0.001
-285.559	-25.351	0.025	0.015
-284.545	800.000	0.028	0.103
-283.530	-122.093	0.212	-0.035
-282.516	-31.029	0.159	-0.090
-281.501	-45.819	-0.187	0.092
-280.486	-84.092	0.133	0.042
-279.472	182.935	-0.038	0.056
-278.457	22.876	0.330	0.270
-277.443	-54.912	0.604	-0.272
-276.428	156.900	-0.112	-0.154
-275.413	-46.402	0.203	-0.100
-274.399	1.338	0.190	0.136
-273.384	-14.625	0.190	-0.122
-272.370	200.473	-0.111	-0.170
-271.355	4.067	-0.060	0.044
-270.340	-44.542	0.212	-0.106
-269.326	800.000	0.047	0.134
-268.311	-151.494	-0.299	-0.022
-267.297	800.000	0.013	-0.043
-266.282	-33.015	0.298	-0.165
-265.267	1.340	0.155	0.111
-264.253	-83.347	0.360	0.115
-263.238	-115.956	-0.342	-0.064
-262.224	-81.807	0.021	0.007
-261.209	23.328	0.272	0.223
-260.195	108.358	-0.255	0.304
-259.180	-11.339	-0.065	-0.043
-258.165	-200.000	0.017	-0.077
-257.151	25.537	-0.205	0.170
-256.136	55.641	-0.227	0.220
-255.122	-200.000	0.032	0.437
-254.107	-108.715	0.166	-0.035
-253.092	299.496	-0.112	-0.205
-252.078	596.220	0.065	-0.161
-251.063	397.233	0.112	0.233
-250.049	414.757	0.062	-0.132
-249.034	800.000	0.062	0.174
-248.019	8.359	0.278	-0.208
-247.005	-200.000	0.013	-0.190
-245.990	643.863	0.116	-0.296
-244.976	-40.968	0.179	0.092
-243.961	-68.573	0.260	0.100
-242.946	-136.009	-0.117	-0.014
-241.932	-64.842	-0.446	-0.180
-240.917	800.000	0.063	0.189
-239.903	20.602	-0.133	0.107
-238.888	39.209	0.068	-0.061
-237.873	32.774	0.053	-0.045
-236.859	-200.000	0.029	0.239
-235.844	-106.138	0.259	0.058
-234.830	673.991	0.039	0.101
-233.815	800.000	0.093	0.309
-232.800	-130.273	-0.110	0.015
-231.786	4.234	0.091	0.066
-230.771	221.614	-0.023	0.037
-229.757	-200.000	-0.035	-0.203
-228.742	144.342	0.050	0.067
-227.727	5.109	-0.232	-0.171
-226.713	380.666	-0.093	-0.190
-225.698	30.379	-0.164	0.140
-224.684	-61.241	0.231	0.097
-223.669	77.491	-0.117	0.124
-222.655	-152.085	0.107	-0.008
-221.640	21.220	0.077	-0.062
-220.625	-140.222	0.453	0.047
-219.611	355.316	0.101	0.201
-218.596	250.331	0.199	0.337
-217.582	-57.532	0.157	-0.069
-216.567	189.867	0.094	-0.140
-215.552	92.322	-0.073	0.082
-214.538	-51.773	-0.224	0.104
-213.523	62.838	-0.058	0.058
-212.509	-39.410	-0.233	0.122
-211.494	-200.000	0.024	-0.210
-210.479	623.569	-0.025	0.063
-209.465	67.521	-0.365	0.371
-208.450	800.000	0.123	0.382
-207.436	-45.868	-0.431	-0.212
-206.421	38.915	-0.228	0.203
-205.406	243.332	0.073	-0.123
-204.392	183.675	-0.119	-0.175
-203.377	122.756	-0.195	-0.243
-202.363	2.860	0.189	-0.137
-201.348	16.452	-0.177	-0.140
-200.333	-200.000	-0.029	0.192
-199.319	-6.490	0.273	0.185
-198.304	-200.000	0.020	-0.105
-197.290	540.040	-0.098	-0.231
-196.275	800.000	-0.012	0.042
-195.260	-200.000	-0.004	-0.138
-194.246	800.000	-0.044	0.157
-193.231	-138.501	-0.261	-0.029
-192.217	-1.730	0.293	0.206
-191.202	-200.000	-0.007	0.348
-190.187	800.000	0.069	0.294
-189.173	-36.461	0.357	0.191
-188.158	-156.990	-0.421	0.026
-187.144	-184.567	0.343	-0.006
-186.129	-24.198	-0.096	-0.057
-185.114	109.831	0.249	0.297
-184.100	-200.000	0.030	0.583
-183.085	-79.119	-0.106	-0.036
-182.071	-51.584	0.185	-0.086
-181.056	174.210	0.103	-0.148
-180.042	12.201	0.152	-0.116
-179.027	244.336	-0.091	-0.152
-178.012	727.362	-0.143	0.380
-176.998	-42.534	0.441	0.223
-175.983	60.664	-0.233	0.230
-174.969	800.000	-0.062	0.193
-173.954	96.589	0.128	0.146
-172.939	-70.140	-0.028	0.010
-171.925	-113.820	-0.232	-0.045
-170.910	-114.407	0.165	-0.032
-169.896	-66.372	-0.064	0.025
-168.881	56.938	-0.075	-0.073
-167.866	-21.176	-0.184	-0.112
-166.852	244.363	-0.131	0.219
-165.837	570.419	0.067	0.163
-164.823	53.685	0.084	-0.080
-163.808	-200.000	-0.050	0.247
-162.793	57.235	0.063	-0.061
-161.779	-200.000	-0.030	-0.226
-160.764	243.263	-0.240	0.400
-159.750	-200.000	-0.004	0.084
-158.735	85.852	0.198	0.217
-157.720	-48.500	0.295	0.141
-156.706	116.535	-0.029	0.035
-155.691	-200.000	-0.062	-0.295
-154.677	-169.119	0.156	0.006
-153.662	64.334	0.094	-0.094
-152.647	-200.000	-0.013	0.157
-151.633	4.603	-0.318	0.232
-150.618	-117.045	0.153	-0.028
-149.604	-34.736	0.135	0.073
-148.589	43.514	-0.132	0.120
-147.574	-12.765	0.068	0.044
-146.560	-17.023	0.062	-0.039
-145.545	-10.519	-0.065	0.043
-144.531	-116.368	-0.112	0.021
-143.516	800.000	-0.034	-0.133
-142.502	7.422	0.141	-0.105
-141.487	142.906	0.131	0.173
-140.472	-200.000	0.047	0.314
-139.458	-7.220	-0.163	-0.110
-138.443	-200.000	-0.007	0.163
-137.429	305.459	-0.228	0.420
-136.414	-200.000	0.001	0.330
-135.399	112.363	0.101	0.121
-134.385	-200.000	0.003	0.416
-133.370	-81.513	-0.177	0.058
-132.356	-200.000	0.020	-0.092
-131.341	800.000	-0.076	0.300
-130.326	-178.305	0.282	-0.007
-129.312	-120.610	0.157	0.026
-128.297	-66.484	0.152	-0.060
-127.283	131.369	-0.127	-0.162
-126.268	-1.518	0.081	-0.057
-125.253	-47.654	0.316	-0.152
-124.239	-200.000	-0.025	-0.167
-123.224	144.198	-0.161	0.213
-122.210	800.000	0.074	-0.229
-121.195	-83.667	-0.136	0.043
-120.180	-77.017	-0.106	0.037
-119.166	-200.000	0.017	-0.107
-118.151	-2.102	0.141	0.098
-117.137	75.823	0.427	0.448
-116.122	800.000	0.060	0.253
-115.107	-84.710	0.152	0.048
-114.093	-129.917	-0.230	0.031
-113.078	-200.000	-0.001	-0.224
-112.064	-126.234	-0.139	0.021
-111.049	764.234	0.123	0.332
-110.034	-162.533	-0.346	-0.017
-109.020	-166.628	-0.071	0.003
-108.005	-154.410	-0.369	0.025
-106.991	39.810	0.285	0.254
-105.976	107.440	0.055	-0.065
-104.962	-200.000	0.034	-0.180
-103.947	247.789	-0.116	0.194
-102.932	-200.000	0.021	-0.125
-101.918	56.881	0.157	-0.151
-100.903	-72.033	0.139	0.051
-99.889	-44.679	-0.224	-0.111
-98.874	5.200	-0.166	0.121
-97.859	-200.000	-0.053	0.256
-96.845	-200.000	0.039	0.268
-95.830	800.000	-0.046	0.169
-94.816	800.000	-0.034	0.125
-93.801	-141.393	0.181	0.018
-92.786	30.187	0.070	0.060
-91.772	-200.000	-0.020	0.299
-90.757	800.000	0.028	-0.086
-89.743	-68.798	-0.114	0.044
-88.728	-57.405	-0.105	0.046
-87.713	111.407	-0.064	0.077
-86.699	-99.808	-0.657	0.163
-85.684	522.386	0.071	0.165
-84.670	-149.577	0.148	-0.012
-83.655	-30.334	0.247	0.139
-82.640	-138.443	-0.121	-0.013
-81.626	-200.000	0.026	0.280
-80.611	460.031	0.102	0.225
-79.597	384.869	0.179	-0.366
-78.582	-48.779	-0.048	0.023
-77.567	-200.000	-0.080	0.488
-76.553	-164.954	0.524	-0.023
-75.538	386.399	0.139	0.284
-74.524	-200.000	-0.033	0.236
-73.509	25.097	-0.284	-0.234
-72.494	-75.217	-0.287	0.102
-71.480	-21.577	-0.113	0.068
-70.465	448.243	-0.130	-0.283
-69.451	-36.755	0.203	0.108
-68.436	42.858	0.051	-0.046
-67.422	-49.773	0.125	0.059
-66.407	-200.000	-0.004	0.227
-65.392	-86.502	-0.425	-0.129
-64.378	-12.941	0.191	-0.123
-63.363	-131.389	0.276	0.036
-62.349	77.372	0.172	0.181
-61.334	-16.836	-0.905	-0.566
-60.319	-122.521	0.368	0.059
-59.305	456.529	-0.391	-0.859
-58.290	29.252	0.622	0.523
-57.276	800.000	0.478	1.486
-56.261	-200.000	97.490	569.809
-55.246	624.044	1398.237	3488.506
-54.232	186.129	2606.714	3838.031
-53.217	119.089	2203.306	2696.963
-52.203	44.740	1735.389	1580.081
-51.188	37.347	1546.878	1357.002
-50.173	35.024	1519.043	1316.568
-49.159	53.152	1570.036	1488.050
-48.144	56.840	1588.932	1531.711
-47.130	37.786	1544.304	1357.582
-46.115	34.447	1529.008	1321.002
-45.100	34.421	1524.970	1317.282
-44.086	34.343	1523.948	1315.806
-43.071	34.301	1521.620	1313.453
-42.057	34.280	1520.384	1312.192
-41.042	34.311	1518.382	1310.626
-40.027	34.358	1517.249	1309.915
-39.013	34.191	1516.513	1308.082
-37.998	34.289	1514.395	1306.874
-36.984	34.348	1513.517	1306.470
-35.969	34.240	1512.459	1304.765
-34.954	34.263	1510.980	1303.594
-33.940	34.290	1509.460	1302.420
-32.925	34.339	1507.676	1301.161
-31.911	34.402	1506.222	1300.282
-30.896	34.393	1505.470	1299.526
-29.881	34.462	1503.802	1298.500
-28.867	34.396	1502.540	1296.909
-27.852	34.371	1501.336	1295.648
-26.838	34.330	1500.269	1294.401
-25.823	34.350	1498.514	1292.972
-24.809	34.326	1496.875	1291.340
-23.794	34.424	1494.906	1290.254
-22.779	34.316	1494.007	1288.701
-21.765	34.325	1492.903	1287.753
-20.750	34.408	1492.030	1287.508
-19.736	34.425	1490.466	1286.226
-18.721	34.340	1489.786	1285.014
-17.706	34.320	1489.222	1284.343
-16.692	34.318	1488.298	1283.478
-15.677	34.378	1486.641	1282.402
-14.663	34.324	1485.777	1281.245
-13.648	34.233	1485.013	1279.926
-12.633	34.207	1484.258	1279.048
-11.619	34.313	1483.116	1278.723
-10.604	34.263	1481.848	1277.246
-9.590	34.241	1480.806	1276.149
-8.575	34.275	1480.120	1275.731
-7.560	34.317	1479.643	1275.551
-6.546	34.231	1478.555	1273.988
-5.531	34.211	1477.981	1273.314
-4.517	34.336	1476.380	1272.715
-3.502	34.215	1475.917	1271.457
-2.487	34.183	1475.297	1270.658
-1.473	34.207	1473.861	1269.533
-0.458	34.303	1471.972	1268.494
0.556	33.227	1462.719	1258.319
1.571	30.155	1436.836	1215.832
2.586	26.662	1373.684	1140.344
3.600	24.745	1290.255	1059.645
4.615	23.355	1244.006	1013.630
5.629	20.483	1187.570	951.846
6.644	12.502	1102.308	842.692
7.659	6.108	1061.016	779.426
8.673	5.193	1055.284	770.631
9.688	4.993	1052.679	767.674
10.702	4.932	1050.924	766.026
11.717	4.973	1048.562	764.440
12.731	7.672	1051.852	780.033
13.746	15.056	1062.232	824.140
14.761	19.610	1066.762	850.046
15.775	18.645	1065.129	843.925
16.790	17.461	1062.585	836.023
17.804	16.417	1060.378	829.089
18.819	15.550	1058.475	823.280
19.834	15.104	1057.190	820.028
20.848	14.665	1055.784	816.716
21.863	14.400	1055.538	815.156
22.877	14.263	1054.435	813.563
23.892	14.056	1053.709	811.920
24.907	13.983	1052.852	810.832
25.921	13.990	1052.419	810.463
26.936	14.081	1051.253	809.933
27.950	14.037	1050.375	808.971
28.965	14.111	1049.086	808.268
29.980	14.102	1048.380	807.606
30.994	14.188	1046.980	806.875
32.009	14.264	1045.792	806.255
33.023	14.285	1045.282	805.893
34.038	14.344	1044.303	805.355
35.053	14.289	1043.321	804.260
36.067	14.223	1042.423	803.177
37.082	14.067	1042.236	802.211
38.096	14.238	1040.471	801.602
39.111	14.259	1040.227	801.446
40.126	14.345	1038.740	800.643
41.140	14.204	1038.354	799.598
42.155	14.085	1036.910	797.842
43.169	13.963	1035.984	796.475
44.184	13.990	1034.915	795.713
45.199	13.841	1034.271	794.434
46.213	13.957	1032.882	793.849
47.228	13.924	1032.155	793.065
48.242	14.045	1031.366	792.965
49.257	14.147	1030.399	792.636
50.271	14.037	1029.282	791.184
51.286	14.120	1028.668	791.037
52.301	14.027	1027.899	789.932
53.315	14.102	1026.635	789.251
54.330	14.083	1025.642	788.327
55.344	13.969	1025.165	787.349
56.359	14.143	1023.821	787.069
57.374	14.099	1022.907	786.091
58.388	13.993	1022.585	785.274
59.403	13.998	1021.564	784.441
60.417	13.959	1020.624	783.466
61.432	13.847	1020.218	782.556
62.447	13.951	1019.227	782.217
63.461	13.897	1018.460	781.307
64.476	13.902	1017.674	780.658
65.490	13.866	1016.405	779.445
66.505	13.863	1015.620	778.762
67.520	13.682	1015.176	777.503
68.534	13.865	1014.035	777.417
69.549	13.855	1013.648	777.004
70.563	13.996	1012.488	776.708
71.578	13.923	1012.179	776.059
72.593	13.849	1011.197	774.895
73.607	13.732	1010.360	773.636
74.622	13.607	1009.684	772.468
75.636	13.695	1008.487	771.895
76.651	13.782	1007.753	771.669
77.666	13.640	1007.260	770.563
78.680	13.601	1006.935	770.062
79.695	13.739	1005.862	769.817
80.709	13.767	1005.500	769.602
81.724	13.924	1004.187	769.254
82.739	13.931	1003.512	768.704
83.753	14.025	1003.186	768.820
84.768	13.960	1002.198	767.696
85.782	14.109	1001.717	767.945
86.797	14.175	1000.750	767.442
87.812	14.258	999.731	766.975
88.826	14.180	999.011	765.995
89.841	14.130	998.369	765.206
90.855	14.028	997.417	763.937
91.870	14.015	997.402	763.802
92.884	14.208	995.842	763.424
93.899	14.347	994.846	763.229
94.914	14.257	994.401	762.408
95.928	14.248	993.522	761.625
96.943	14.261	992.872	761.121
97.957	14.282	991.894	760.396
98.972	14.332	990.806	759.725
99.987	14.223	990.729	759.099
101.001	14.269	989.718	758.470
102.016	14.101	989.340	757.348
103.030	14.206	988.423	757.057
104.045	14.081	987.562	755.763
105.060	14.228	986.206	755.326
106.074	14.161	985.462	754.385
107.089	14.047	984.401	752.989
108.103	13.991	983.640	752.088
109.118	13.890	982.807	750.928
110.133	13.990	981.239	750.112
111.147	13.985	981.174	749.972
112.162	13.970	980.292	749.167
113.176	13.857	979.716	748.150
114.191	14.047	977.994	747.626
115.206	13.962	977.568	746.848
116.220	13.946	976.933	746.229
117.235	14.029	975.683	745.580
118.249	13.986	975.272	745.004
119.264	13.995	974.531	744.414
120.279	14.037	973.586	743.812
121.293	14.012	972.571	742.864
122.308	13.902	971.644	741.597
123.322	13.954	970.818	741.132
124.337	13.860	969.999	740.022
125.352	13.793	968.790	738.737
126.366	13.821	967.724	737.983
127.381	13.802	966.927	737.227
128.395	13.991	965.465	736.882
129.410	13.875	964.711	735.729
130.424	13.942	963.806	735.268
131.439	13.920	963.332	734.744
132.454	13.879	962.458	733.835
133.468	14.114	961.436	734.026
134.483	14.054	960.959	733.332
135.497	14.076	960.408	732.943
136.512	14.082	959.625	732.306
137.527	13.990	958.766	731.185
138.541	14.063	957.925	730.800
139.556	14.020	957.377	730.127
140.570	14.090	956.461	729.672
141.585	14.146	955.729	729.291
142.600	14.336	954.979	729.487
143.614	14.223	954.298	728.409
144.629	14.197	954.188	728.148
145.643	14.185	953.025	727.144
146.658	14.328	952.307	727.154
147.673	14.218	951.112	725.700
148.687	14.142	950.169	724.582
149.702	14.279	948.689	723.987
150.716	14.085	948.271	722.760
151.731	14.018	947.661	721.942
152.746	14.061	946.678	721.314
153.760	14.009	946.325	720.754
154.775	14.208	945.173	720.679
155.789	14.329	944.295	720.468
156.804	14.120	944.206	719.431
157.819	14.313	943.091	719.351
158.833	14.275	942.705	718.831
159.848	14.353	941.943	718.522
160.862	14.346	941.009	717.717
161.877	14.391	940.091	717.146
162.892	14.244	939.381	715.908
163.906	14.210	938.612	715.114
164.921	14.039	938.504	714.234
165.935	14.225	937.014	713.831
166.950	14.295	935.918	713.237
167.964	14.238	935.582	712.671
168.979	14.212	934.339	711.552
169.994	14.235	933.250	710.756
171.008	14.259	932.608	710.306
172.023	14.377	931.630	710.001
173.037	14.349	931.096	709.412
174.052	14.365	930.581	709.025
175.067	14.512	929.429	708.711
176.081	14.292	928.872	707.289
177.096	14.170	927.824	705.911
178.110	14.229	927.147	705.584
179.125	14.181	926.665	704.949
180.140	14.300	925.698	704.655
181.154	14.364	924.958	704.300
182.169	14.438	924.138	703.928
183.183	14.452	923.929	703.765
184.198	14.520	923.203	703.435
185.213	14.436	922.228	702.277
186.227	14.595	921.482	702.315
187.242	14.669	920.837	702.075
188.256	14.610	920.818	701.748
189.271	14.609	920.039	701.090
190.286	14.708	918.944	700.607
191.300	14.490	918.288	699.130
192.315	14.330	917.216	697.582
193.329	14.161	916.860	696.545
194.344	14.320	916.000	696.493
195.359	14.319	915.361	695.942
196.373	14.406	915.206	696.127
197.388	14.437	914.583	695.719
198.402	14.628	914.441	696.348
199.417	14.735	913.808	696.251
200.432	14.733	913.199	695.714
201.446	14.761	912.851	695.505
202.461	14.865	912.403	695.534
203.475	14.853	912.117	695.206
204.490	14.866	911.229	694.522
205.504	14.694	910.461	693.162
206.519	14.781	909.526	692.748
207.534	14.750	908.629	691.875
208.548	14.587	908.229	690.836
209.563	14.729	907.323	690.674
210.577	14.778	906.856	690.456
211.592	14.688	906.459	689.724
212.607	14.844	905.669	689.706
213.621	14.827	905.295	689.288
214.636	14.923	904.397	688.939
215.650	14.919	903.669	688.306
216.665	14.862	903.173	687.634
217.680	14.790	903.128	687.243
218.694	15.068	902.430	687.795
219.709	15.087	901.797	687.326
220.723	15.130	900.914	686.772
221.738	14.960	900.449	685.660
222.753	15.070	899.495	685.320
223.767	14.962	899.258	684.640
224.782	14.886	898.513	683.701
225.796	15.129	897.415	683.797
226.811	15.111	896.753	683.157
227.826	15.051	896.315	682.518
228.840	15.106	895.204	681.836
229.855	15.003	894.683	680.961
230.869	15.009	894.336	680.659
231.884	15.013	893.550	680.018
232.899	15.100	892.709	679.673
233.913	15.080	891.549	678.649
234.928	15.043	891.350	678.286
235.942	15.025	890.504	677.510
236.957	15.076	889.836	677.149
237.972	14.960	889.278	676.196
238.986	15.074	888.464	675.977
240.001	14.995	887.868	675.144
241.015	15.080	887.005	674.770
242.030	15.009	887.053	674.462
243.045	15.143	886.337	674.396
244.059	15.227	885.181	673.794
245.074	15.073	884.958	672.944
246.088	15.176	884.145	672.683
247.103	15.234	883.974	672.726
248.117	15.264	883.051	672.082
249.132	15.319	882.533	671.851
250.147	15.280	882.126	671.326
251.161	15.676	881.069	672.046
252.176	15.631	880.222	671.161
253.190	15.659	879.778	670.872
254.205	15.667	879.461	670.605
255.220	15.541	879.265	669.891
256.234	15.554	878.447	669.263
257.249	15.654	877.325	668.747
258.263	15.754	876.898	668.759
259.278	15.670	876.537	668.092
260.293	15.748	875.724	667.720
261.307	15.657	875.518	667.145
262.322	15.738	874.840	666.889
263.336	15.916	874.112	666.982
264.351	15.756	873.794	666.047
265.366	15.925	872.825	665.916
266.380	15.776	872.618	665.111
267.395	15.684	871.939	664.171
268.409	15.917	870.565	663.985
269.424	15.852	870.365	663.517
270.439	15.928	869.163	662.842
271.453	15.899	868.595	662.237
272.468	15.736	868.043	661.115
273.482	15.606	867.873	660.415
274.497	15.765	867.269	660.522
275.512	15.876	866.213	660.095
276.526	15.710	865.544	658.875
277.541	15.844	864.661	658.669
278.555	16.043	864.032	658.910
279.570	15.937	863.923	658.353
280.585	15.936	863.516	657.983
281.599	16.098	862.426	657.726
282.614	16.021	862.070	657.096
283.628	15.991	861.750	656.676
284.643	15.984	860.842	655.897
285.657	16.058	860.382	655.780
286.672	15.954	859.944	654.982
287.687	15.983	859.439	654.652
288.701	15.982	858.969	654.235
289.716	16.002	858.355	653.783
290.730	16.018	857.818	653.382
291.745	16.060	857.182	653.000
292.760	16.067	856.271	652.277
293.774	16.042	855.935	651.865
294.789	16.114	855.429	651.700
295.803	16.196	854.347	651.134
296.818	16.090	853.656	650.142
297.833	16.118	853.377	649.982
298.847	16.111	852.689	649.370
299.862	16.007	852.221	648.558
300.876	16.060	851.178	647.912
301.891	16.175	850.597	647.853
302.906	16.182	850.296	647.593
303.920	16.366	849.364	647.530
304.935	16.392	848.747	647.101
305.949	16.436	848.262	646.845
306.964	16.433	847.652	646.310
307.979	16.360	847.731	646.033
308.993	16.269	846.944	645.028
310.008	16.365	846.366	644.897
311.022	16.477	845.614	644.695
312.037	16.422	845.235	644.141
313.052	16.330	844.529	643.196
314.066	16.378	844.014	642.929
315.081	16.274	843.137	641.809
316.095	16.408	842.599	641.852
317.110	16.421	842.076	641.444
318.125	16.382	841.539	640.831
319.139	16.319	841.124	640.219
320.154	16.411	840.778	640.247
321.168	16.333	839.979	639.288
322.183	16.459	839.476	639.324
323.197	16.360	839.437	638.863
324.212	16.454	838.268	638.272
325.227	16.440	837.813	637.819
326.241	16.520	837.513	637.836
327.256	16.572	836.437	637.155
328.270	16.487	836.195	636.593
329.285	16.522	835.678	636.274
330.300	16.388	835.042	635.231
331.314	16.408	834.722	635.007
332.329	16.562	833.853	634.867
333.343	16.544	833.485	634.462
334.358	16.698	832.678	634.370
335.373	16.696	832.206	633.947
336.387	16.627	831.737	633.276
337.402	16.617	831.435	632.950
338.416	16.784	830.521	632.825
339.431	16.790	829.973	632.373
340.446	16.856	829.396	632.122
341.460	16.880	829.087	631.920
342.475	16.923	828.317	631.438
343.489	16.904	828.003	631.075
344.504	17.088	827.523	631.336
345.519	16.898	827.158	630.295
346.533	16.999	826.453	630.076
347.548	17.039	825.988	629.816
348.562	16.988	825.332	629.069
349.577	16.895	825.089	628.484
350.592	17.004	823.953	627.969
351.606	16.838	823.778	627.164
352.621	16.824	823.120	626.557
353.635	16.700	823.067	626.002
354.650	16.944	822.264	626.235
355.665	16.980	821.811	625.968
356.679	16.994	821.400	625.651
357.694	16.966	821.250	625.378
358.708	17.013	820.429	624.872
359.723	16.998	820.048	624.470
360.738	17.035	819.403	624.061
361.752	17.073	818.581	623.520
362.767	17.143	818.273	623.488
363.781	17.093	817.949	623.003
364.796	17.112	818.017	623.066
365.810	17.148	817.475	622.731
366.825	17.138	817.065	622.327
367.840	17.258	816.683	622.420
368.854	17.349	815.867	622.077
369.869	17.243	815.578	621.413
370.883	17.356	814.643	621.058
371.898	17.287	814.211	620.424
372.913	17.446	813.385	620.319
373.927	17.375	813.093	619.783
374.942	17.255	812.704	618.994
375.956	17.332	811.949	618.644
376.971	17.441	811.480	618.629
377.986	17.394	811.059	618.082
379.000	17.653	810.174	618.291
380.015	17.542	809.998	617.700
381.029	17.549	809.133	617.011
382.044	17.658	808.692	617.014
383.059	17.550	808.363	616.319
384.073	17.574	807.531	615.717
385.088	17.556	806.793	615.033
386.102	17.569	806.498	614.801
387.117	17.296	805.967	613.357
388.132	17.448	805.735	613.675
389.146	17.479	804.995	613.169
390.161	17.460	804.727	612.842
391.175	17.563	804.524	613.005
392.190	17.531	803.989	612.429
393.205	17.439	803.854	611.939
394.219	17.597	803.018	611.818
395.234	17.494	802.428	610.941
396.248	17.517	802.076	610.704
397.263	17.544	801.406	610.235
398.278	17.402	800.864	609.261
399.292	17.520	800.428	609.297
400.307	17.486	800.266	608.997
401.321	17.491	800.047	608.798
402.336	17.560	799.380	608.480
403.350	17.576	799.059	608.239
404.365	17.615	798.715	608.065
405.380	17.687	798.249	607.913
406.394	17.637	798.111	607.575
407.409	17.802	797.357	607.535
408.423	17.756	796.929	606.991
409.438	17.923	796.066	606.874
410.453	17.899	796.092	606.756
411.467	17.872	795.742	606.339
412.482	17.939	795.432	606.288
413.496	17.979	794.707	605.820
414.511	17.889	794.640	605.398
415.526	18.066	794.221	605.654
416.540	18.014	793.780	605.077
417.555	18.090	793.093	604.769
418.569	18.032	792.587	604.124
419.584	18.070	792.164	603.885
420.599	18.091	791.491	603.392
421.613	153.277	1368.691	1790.609
422.628	132.536	1452.807	1790.721
