DTS Sentinel unit serial number:	SN413079Multiplexer serial number:	ORYXHardware model number:	OX4-SRSoftware version number:	ORYX F/W v4.00 Oryx Data Collector v3.7.2.0data status	okinstallation	princeton_trtdifferential loss correction	single-endedforward channel	channel 3reverse channel	N/Adate	2019/09/19time	14:16:34forward acquisition time	60.00reverse acquisition time	0.00gamma	496.2192k internal	0.2322k external	0.2322temperature offset calibration	1.0001default loss term (dB/km)	0.3790temperature slope calibration	1.0000multiplexer offset coefficient	1.0000multiplexer slope coefficient	1.0000fibre end	0.00T internal ref (°C)	31.69T ext. ref 1 (°C)	1.04T ext. ref 2 (°C)	28.99length (m)	temperature (°C)	Stokes	anti-Stokes-747.200	-98.567	-0.370	-0.096
-746.185	-83.331	0.228	-0.074
-745.171	-200.000	0.030	0.188
-744.156	800.000	0.116	0.342
-743.142	-22.438	-0.121	0.074
-742.127	-153.649	-0.183	0.013
-741.112	-200.000	0.012	0.123
-740.098	9.836	0.259	0.198
-739.083	98.820	-0.163	-0.190
-738.069	164.816	0.217	-0.309
-737.054	-200.000	-0.026	-0.291
-736.039	246.259	0.089	-0.151
-735.025	-108.843	0.230	0.050
-734.010	283.756	-0.141	0.255
-732.996	30.320	-0.149	0.128
-731.981	53.722	-0.236	-0.229
-730.966	-200.000	-0.021	-0.312
-729.952	-200.000	0.009	0.233
-728.937	178.178	-0.109	-0.161
-727.923	-200.000	-0.003	0.218
-726.908	178.723	-0.104	0.153
-725.894	-200.000	0.038	0.196
-724.879	-76.801	-0.544	0.192
-723.864	-22.214	-0.245	-0.150
-722.850	276.689	0.088	-0.159
-721.835	129.359	-0.036	-0.046
-720.821	-30.772	-0.213	-0.122
-719.806	-200.000	0.039	-0.260
-718.791	-200.000	-0.037	-0.187
-717.777	-20.431	-0.068	0.042
-716.762	-200.000	-0.044	-0.374
-715.748	-136.854	0.089	0.010
-714.733	74.254	-0.028	0.029
-713.718	-67.513	0.141	0.056
-712.704	-27.568	0.254	-0.149
-711.689	-137.491	0.257	0.029
-710.675	-180.888	-0.150	0.003
-709.660	-93.485	0.284	-0.079
-708.645	202.220	0.072	0.112
-707.631	84.906	0.044	-0.049
-706.616	-43.739	-0.279	-0.142
-705.602	90.013	0.193	-0.217
-704.587	27.352	0.268	0.227
-703.572	-142.523	-0.395	0.039
-702.558	-114.765	-0.147	0.028
-701.543	63.919	0.191	0.194
-700.529	-11.162	0.121	0.080
-699.514	246.085	-0.154	0.262
-698.499	-200.000	-0.021	-0.271
-697.485	-118.523	-0.315	-0.056
-696.470	-17.925	0.180	-0.114
-695.456	69.592	0.207	0.215
-694.441	800.000	0.048	-0.149
-693.426	-200.000	-0.049	0.316
-692.412	-2.041	0.251	-0.177
-691.397	131.039	0.144	0.186
-690.383	172.206	0.078	-0.113
-689.368	678.200	0.053	-0.139
-688.354	46.523	-0.156	0.146
-687.339	-61.013	-0.289	0.123
-686.324	-162.789	0.463	0.023
-685.310	-122.280	-0.311	0.051
-684.295	-54.283	-0.373	0.171
-683.281	-149.011	-0.267	0.022
-682.266	-21.737	-0.241	0.148
-681.251	-80.855	-0.173	0.058
-680.237	800.000	0.014	0.054
-679.222	-118.947	-0.167	0.029
-678.208	-135.940	0.151	0.018
-677.193	264.926	0.081	0.141
-676.178	800.000	0.134	-0.379
-675.164	-61.521	-0.103	-0.044
-674.149	50.457	-0.268	-0.255
-673.135	-200.000	-0.032	0.183
-672.120	-165.263	-0.246	0.011
-671.105	52.150	0.228	0.219
-670.091	-72.050	0.433	-0.162
-669.076	-79.267	-0.214	-0.073
-668.062	-200.000	-0.077	-0.367
-667.047	-145.059	0.112	-0.010
-666.032	-113.807	-0.336	-0.066
-665.018	800.000	-0.097	-0.320
-664.003	481.492	0.099	0.227
-662.989	-26.955	-0.107	0.063
-661.974	52.963	0.318	0.306
-660.959	553.844	0.029	-0.071
-659.945	-200.000	-0.011	0.114
-658.930	107.911	-0.087	-0.105
-657.916	800.000	-0.044	0.171
-656.901	725.524	-0.187	-0.502
-655.886	800.000	0.026	-0.107
-654.872	-47.169	0.171	0.084
-653.857	-200.000	0.103	-0.000
-652.843	-134.223	-0.271	-0.034
-651.828	6.047	-0.056	-0.041
-650.814	-200.000	0.016	-0.082
-649.799	106.481	-0.127	-0.152
-648.784	-200.000	-0.018	-0.383
-647.770	93.229	0.251	-0.285
-646.755	226.191	0.078	-0.127
-645.741	-200.000	-0.013	-0.306
-644.726	800.000	-0.030	-0.086
-643.711	-31.957	0.174	0.098
-642.697	302.638	-0.148	0.276
-641.682	-200.000	0.022	0.324
-640.668	-134.702	-0.520	-0.064
-639.653	-69.580	0.384	-0.148
-638.638	-200.000	-0.016	0.154
-637.624	-31.718	0.267	0.151
-636.609	265.672	-0.168	-0.295
-635.595	627.611	-0.117	-0.298
-634.580	-200.000	-0.016	0.078
-633.565	800.000	0.036	-0.107
-632.551	96.194	-0.146	-0.168
-631.536	-163.753	0.241	0.011
-630.522	-60.287	0.030	0.013
-629.507	119.742	0.041	0.051
-628.492	-200.000	0.027	0.289
-627.478	-30.811	-0.106	0.060
-626.463	293.289	0.095	-0.175
-625.449	-135.742	-0.117	0.014
-624.434	-22.682	0.043	0.026
-623.419	52.177	-0.148	-0.142
-622.405	-73.572	0.126	0.046
-621.390	-153.819	-0.040	-0.003
-620.376	-29.610	-0.073	-0.042
-619.361	43.791	-0.063	0.058
-618.346	-167.789	0.220	0.009
-617.332	-85.202	0.152	0.048
-616.317	147.068	0.131	0.178
-615.303	0.719	-0.294	-0.211
-614.288	-200.000	-0.054	0.274
-613.273	111.931	0.245	0.298
-612.259	-200.000	-0.004	-0.400
-611.244	-176.065	-0.231	-0.006
-610.230	-108.655	-0.255	0.055
-609.215	25.742	-0.193	0.162
-608.201	161.243	0.055	0.077
-607.186	-200.000	-0.002	-0.287
-606.171	-200.000	0.029	-0.381
-605.157	-35.368	0.379	0.207
-604.142	-157.577	-0.321	-0.019
-603.128	-98.708	-0.416	0.107
-602.113	14.216	0.127	0.100
-601.098	201.916	0.150	-0.232
-600.084	34.852	-0.340	-0.299
-599.069	174.924	-0.036	0.053
-598.055	379.164	0.160	-0.330
-597.040	-200.000	0.029	-0.320
-596.025	-60.514	0.461	-0.197
-595.011	209.592	0.236	-0.371
-593.996	221.220	-0.174	-0.281
-592.982	-110.033	-0.337	0.071
-591.967	-20.121	0.096	0.059
-590.952	-1.019	-0.155	-0.110
-589.938	104.129	-0.126	0.149
-588.923	-180.728	-0.263	-0.005
-587.909	-1.140	0.082	-0.058
-586.894	-200.000	0.021	-0.117
-585.879	1.834	0.107	-0.078
-584.865	89.716	0.123	-0.137
-583.850	-19.822	-0.329	-0.204
-582.836	33.668	-0.087	0.076
-581.821	-122.422	0.430	-0.070
-580.806	-8.337	-0.187	-0.126
-579.792	-200.000	-0.009	-0.420
-578.777	-200.000	-0.007	-0.267
-577.763	-35.129	-0.079	0.043
-576.748	-168.677	0.290	-0.011
-575.733	-122.035	-0.189	0.031
-574.719	-129.346	0.312	-0.044
-573.704	-148.924	0.207	0.017
-572.690	-200.000	-0.078	0.424
-571.675	125.070	0.224	-0.283
-570.661	-78.408	-0.294	-0.101
-569.646	800.000	-0.048	0.197
-568.631	227.489	-0.180	-0.294
-567.617	177.454	-0.341	-0.499
-566.602	-134.736	0.063	0.008
-565.588	-110.335	-0.129	0.027
-564.573	800.000	-0.053	-0.174
-563.558	-200.000	-0.202	-0.000
-562.544	109.226	-0.273	0.328
-561.529	425.284	-0.110	0.238
-560.515	-200.000	-0.045	-0.258
-559.500	-96.626	0.216	0.057
-558.485	-38.419	-0.348	-0.185
-557.471	-200.000	-0.101	0.520
-556.456	5.227	-0.052	0.038
-555.442	232.248	-0.113	0.186
-554.427	-200.000	-0.005	0.234
-553.412	-200.000	0.015	-0.142
-552.398	428.173	0.162	-0.352
-551.383	667.392	0.073	0.190
-550.369	392.121	0.115	-0.240
-549.354	-146.884	0.049	0.004
-548.339	800.000	-0.061	0.263
-547.325	-6.300	-0.081	0.055
-546.310	-200.000	0.029	0.189
-545.296	113.493	-0.170	0.206
-544.281	270.809	0.200	-0.353
-543.266	76.244	-0.086	-0.092
-542.252	-200.000	0.025	-0.212
-541.237	47.846	0.136	-0.127
-540.223	-16.644	-0.137	-0.087
-539.208	-200.000	0.025	0.328
-538.193	-144.182	0.129	0.012
-537.179	-91.656	-0.290	-0.083
-536.164	-200.000	-0.033	0.262
-535.150	-48.794	0.191	-0.092
-534.135	298.285	0.036	-0.067
-533.121	-127.046	0.216	0.032
-532.106	137.902	0.093	0.121
-531.091	-64.232	0.028	-0.011
-530.077	376.064	-0.233	0.476
-529.062	-162.990	-0.222	0.011
-528.048	76.161	0.143	0.151
-527.033	-200.000	0.010	-0.141
-526.018	-166.058	-0.241	-0.010
-525.004	-23.742	0.223	0.134
-523.989	-200.000	-0.013	0.374
-522.975	800.000	0.111	-0.361
-521.960	-200.000	0.029	0.130
-520.945	-129.292	0.278	0.039
-519.931	-129.362	0.386	0.054
-518.916	-35.704	0.185	0.100
-517.902	-97.470	0.333	0.087
-516.887	531.786	-0.115	0.273
-515.872	291.144	0.027	-0.049
-514.858	571.773	-0.107	-0.262
-513.843	-200.000	-0.029	-0.239
-512.829	-96.561	0.292	-0.077
-511.814	16.910	0.026	-0.021
-510.799	-200.000	0.009	0.362
-509.785	19.134	0.081	-0.065
-508.770	63.386	-0.052	0.052
-507.756	-200.000	-0.043	0.206
-506.741	-200.000	0.007	-0.057
-505.726	214.162	0.087	0.138
-504.712	246.581	0.120	-0.203
-503.697	-142.876	-0.225	-0.022
-502.683	800.000	0.081	-0.231
-501.668	-200.000	-0.019	0.192
-500.653	-37.063	-0.089	-0.048
-499.639	-44.054	0.077	0.039
-498.624	-144.631	0.197	0.018
-497.610	800.000	0.060	0.175
-496.595	722.887	0.090	-0.241
-495.581	106.589	0.092	0.109
-494.566	-50.048	-0.100	-0.048
-493.551	663.321	0.069	-0.178
-492.537	-169.070	-0.244	-0.009
-491.522	-200.000	0.004	0.172
-490.508	158.641	0.034	-0.047
-489.493	73.285	0.125	0.131
-488.478	800.000	-0.006	0.022
-487.464	-79.291	0.164	-0.056
-486.449	-200.000	0.031	0.253
-485.435	-128.033	0.251	-0.036
-484.420	12.853	0.190	0.147
-483.405	-49.138	0.208	-0.099
-482.391	16.866	-0.375	0.297
-481.376	-11.847	0.191	0.126
-480.362	42.960	-0.265	0.242
-479.347	-54.479	-0.112	-0.051
-478.332	-172.577	0.126	0.004
-477.318	740.426	-0.101	-0.271
-476.303	-102.261	0.292	0.070
-475.289	-200.000	-0.024	0.150
-474.274	-187.534	-0.281	-0.004
-473.259	106.831	-0.154	-0.183
-472.245	800.000	-0.055	0.225
-471.230	-85.780	0.058	-0.018
-470.216	-68.997	-0.314	-0.121
-469.201	267.735	-0.047	0.081
-468.186	-96.934	0.277	0.073
-467.172	-200.000	-0.025	-0.138
-466.157	800.000	-0.118	0.342
-465.143	-66.253	0.231	-0.092
-464.128	-51.478	-0.441	0.206
-463.113	-200.000	-0.025	-0.155
-462.099	24.117	-0.375	0.309
-461.084	-200.000	0.034	-0.200
-460.070	-22.295	-0.157	-0.095
-459.055	-46.207	-0.445	-0.219
-458.040	-200.000	0.020	0.115
-457.026	-200.000	0.022	-0.228
-456.011	800.000	0.038	-0.111
-454.997	-119.556	0.075	0.013
-453.982	-58.886	0.433	0.187
-452.968	800.000	-0.069	-0.218
-451.953	559.025	0.156	0.377
-450.938	800.000	-0.009	0.034
-449.924	-93.522	0.112	0.031
-448.909	529.101	0.098	0.231
-447.895	25.659	0.103	0.086
-446.880	-184.160	0.185	0.003
-445.865	-12.604	0.264	-0.172
-444.851	358.115	-0.111	-0.221
-443.836	-63.940	-0.238	-0.097
-442.822	-157.397	-0.181	-0.011
-441.807	438.269	0.049	0.106
-440.792	-194.931	-0.302	0.002
-439.778	-62.160	0.093	0.039
-438.763	253.879	-0.094	0.161
-437.749	-200.000	0.047	0.310
-436.734	-115.502	0.136	0.025
-435.719	-8.703	-0.185	-0.124
-434.705	268.640	0.128	0.224
-433.690	58.060	0.069	-0.068
-432.676	-12.055	0.154	0.101
-431.661	228.920	-0.050	0.082
-430.646	-200.000	0.022	0.250
-429.632	-49.608	-0.184	-0.088
-428.617	-200.000	0.018	0.166
-427.603	-97.902	-0.251	0.065
-426.588	-42.238	0.231	0.118
-425.573	-54.617	-0.353	-0.159
-424.559	-200.000	0.038	-0.190
-423.544	-87.561	-0.153	-0.046
-422.530	238.063	-0.088	0.146
-421.515	-200.000	0.020	-0.374
-420.500	-12.489	-0.283	0.184
-419.486	365.485	-0.165	0.332
-418.471	140.504	0.110	0.145
-417.457	257.112	-0.008	0.013
-416.442	-15.007	-0.214	0.137
-415.428	-40.849	0.090	-0.047
-414.413	-74.369	-0.034	0.012
-413.398	-200.000	-0.025	-0.490
-412.384	-200.000	0.035	0.197
-411.369	-200.000	0.017	0.081
-410.355	360.791	-0.088	0.175
-409.340	-19.001	0.305	-0.189
-408.325	-132.667	-0.117	-0.015
-407.311	-200.000	-0.004	-0.238
-406.296	283.242	-0.052	-0.092
-405.282	106.777	-0.212	0.251
-404.267	800.000	-0.083	-0.303
-403.252	800.000	0.049	0.186
-402.238	451.968	-0.109	-0.240
-401.223	-17.545	0.208	0.130
-400.209	199.749	0.085	0.129
-399.194	702.230	-0.117	-0.306
-398.179	800.000	-0.030	0.091
-397.165	533.227	0.049	0.116
-396.150	800.000	0.061	-0.193
-395.136	-159.879	0.294	-0.016
-394.121	-6.100	-0.213	-0.145
-393.106	21.411	0.177	-0.143
-392.092	86.337	-0.133	0.146
-391.077	-179.796	0.489	0.011
-390.063	-21.716	0.229	-0.139
-389.048	58.557	-0.222	0.217
-388.033	-200.000	-0.076	-0.433
-387.019	-200.000	0.001	-0.410
-386.004	-71.244	0.345	0.129
-384.990	-121.358	0.225	-0.037
-383.975	372.581	0.181	0.366
-382.960	53.678	0.246	-0.235
-381.946	48.236	0.133	0.124
-380.931	-35.271	-0.205	-0.111
-379.917	579.149	0.048	-0.117
-378.902	-38.131	-0.285	-0.150
-377.888	-200.000	-0.047	-0.262
-376.873	-28.418	-0.334	0.192
-375.858	800.000	-0.026	0.078
-374.844	122.590	0.152	0.190
-373.829	800.000	-0.111	0.308
-372.815	-200.000	0.005	-0.057
-371.800	-63.174	0.114	-0.047
-370.785	656.387	-0.055	-0.142
-369.771	-200.000	0.031	-0.182
-368.756	-200.000	0.079	0.373
-367.742	237.784	-0.115	0.190
-366.727	76.271	0.225	-0.238
-365.712	-200.000	0.022	0.337
-364.698	463.646	0.179	-0.399
-363.683	-48.946	0.348	0.166
-362.669	85.875	0.062	-0.068
-361.654	-97.918	0.140	0.036
-360.639	-139.234	-0.083	-0.009
-359.625	247.242	0.157	-0.264
-358.610	74.818	0.204	-0.213
-357.596	45.887	-0.208	-0.191
-356.581	191.355	-0.076	-0.114
-355.566	85.119	0.047	-0.051
-354.552	638.640	-0.017	0.042
-353.537	-89.432	0.174	-0.051
-352.523	-78.094	0.308	-0.105
-351.508	800.000	0.079	0.235
-350.493	-71.241	0.082	-0.030
-349.479	-200.000	-0.055	0.241
-348.464	93.308	0.102	0.115
-347.450	-200.000	0.006	-0.267
-346.435	439.818	0.107	0.232
-345.420	-200.000	-0.087	0.479
-344.406	379.302	-0.073	-0.150
-343.391	-61.230	0.249	-0.104
-342.377	-156.853	-0.326	-0.020
-341.362	-170.847	-0.360	0.012
-340.348	65.693	0.031	-0.031
-339.333	-91.473	-0.163	0.046
-338.318	-200.000	-0.047	-0.246
-337.304	363.638	-0.195	0.390
-336.289	258.792	-0.077	-0.131
-335.275	-113.447	-0.275	0.054
-334.260	51.816	-0.167	0.158
-333.245	-200.000	0.025	0.130
-332.231	-200.000	0.052	-0.242
-331.216	70.624	0.139	-0.143
-330.202	-200.000	-0.016	0.308
-329.187	-10.143	-0.138	-0.091
-328.172	184.642	-0.035	0.051
-327.158	-199.554	-0.278	0.001
-326.143	800.000	0.040	0.130
-325.129	-95.587	0.041	-0.011
-324.114	317.544	-0.184	-0.345
-323.099	-200.000	0.032	-0.219
-322.085	-200.000	-0.011	0.268
-321.070	-78.419	-0.187	-0.064
-320.056	-82.688	0.112	0.036
-319.041	246.162	0.040	0.067
-318.026	55.769	-0.122	-0.117
-317.012	-171.735	0.165	-0.005
-315.997	-126.102	-0.251	0.037
-314.983	800.000	0.004	-0.014
-313.968	-84.280	0.072	0.023
-312.953	-200.000	0.002	-0.098
-311.939	-200.000	-0.008	-0.503
-310.924	800.000	-0.056	-0.221
-309.910	-19.940	0.228	0.140
-308.895	35.057	-0.322	-0.280
-307.880	-200.000	0.035	0.200
-306.866	320.284	0.080	0.151
-305.851	800.000	0.052	-0.186
-304.837	-20.092	0.098	-0.060
-303.822	-200.000	0.004	0.451
-302.807	293.047	-0.122	-0.222
-301.793	136.380	0.148	-0.192
-300.778	-16.168	-0.132	-0.083
-299.764	-122.317	-0.150	0.024
-298.749	296.795	-0.086	0.157
-297.735	60.369	0.149	-0.146
-296.720	-126.682	-0.372	0.055
-295.705	800.000	-0.042	-0.181
-294.691	161.568	0.156	-0.217
-293.676	-200.000	0.003	0.175
-292.662	247.719	-0.122	0.205
-291.647	27.481	-0.097	0.081
-290.632	-164.347	0.145	-0.007
-289.618	-124.885	-0.268	-0.041
-288.603	-62.797	-0.117	-0.048
-287.589	93.823	0.109	0.123
-286.574	-200.000	-0.023	0.291
-285.559	-81.401	-0.415	-0.136
-284.545	-200.000	-0.010	-0.111
-283.530	-200.000	0.044	0.353
-282.516	800.000	0.048	0.145
-281.501	-200.000	-0.093	-0.469
-280.486	-47.961	0.034	0.016
-279.472	212.157	0.098	0.154
-278.457	15.347	0.081	0.063
-277.443	-57.112	-0.117	0.051
-276.428	261.543	-0.173	0.297
-275.413	-200.000	-0.020	0.133
-274.399	140.993	0.057	-0.074
-273.384	9.912	0.237	0.179
-272.370	114.193	0.072	0.087
-271.355	-37.063	-0.226	0.120
-270.340	-57.624	0.087	0.038
-269.326	88.930	0.145	-0.160
-268.311	-76.957	-0.390	0.135
-267.297	-200.000	-0.054	0.265
-266.282	485.379	0.013	0.029
-265.267	-112.963	0.145	0.028
-264.253	405.649	0.206	-0.431
-263.238	-200.000	0.008	-0.104
-262.224	102.743	0.134	0.156
-261.209	-34.071	-0.048	-0.026
-260.195	-103.830	-0.161	0.037
-259.180	-200.000	0.027	0.326
-258.165	-200.000	0.036	-0.438
-257.151	102.720	-0.168	-0.195
-256.136	254.231	-0.022	-0.037
-255.122	-85.794	0.179	-0.055
-254.107	-157.732	0.330	-0.019
-253.092	-200.000	-0.047	0.361
-252.078	-200.000	0.003	-0.078
-251.063	-200.000	0.061	-0.359
-250.049	282.910	0.043	-0.077
-249.034	-200.000	-0.023	0.252
-248.019	-200.000	0.018	0.295
-247.005	400.750	0.085	0.177
-245.990	74.471	0.192	-0.200
-244.976	-200.000	0.015	0.129
-243.961	-124.967	0.132	-0.020
-242.946	94.827	0.084	0.095
-241.932	-71.658	-0.309	0.114
-240.917	-200.000	0.011	-0.053
-239.903	800.000	0.027	0.084
-238.888	25.573	0.220	0.181
-237.873	103.236	0.064	0.074
-236.859	549.052	0.090	0.213
-235.844	140.063	0.132	-0.173
-234.830	-200.000	-0.012	0.081
-233.815	-200.000	-0.018	0.192
-232.800	-200.000	0.587	-0.002
-231.786	529.631	-0.049	0.114
-230.771	271.614	0.100	0.175
-229.757	-63.611	0.304	0.123
-228.742	-98.289	0.184	-0.047
-227.727	-200.000	0.033	-0.160
-226.713	-200.000	-0.011	0.066
-225.698	-24.205	0.126	-0.074
-224.684	41.362	-0.142	-0.127
-223.669	-200.000	0.040	0.200
-222.655	-200.000	0.002	-0.062
-221.640	-200.000	-0.049	-0.341
-220.625	107.249	-0.094	-0.110
-219.611	800.000	0.017	0.073
-218.596	-162.273	-0.160	-0.008
-217.582	800.000	-0.016	-0.048
-216.567	-200.000	-0.040	0.298
-215.552	-103.234	0.311	0.073
-214.538	340.312	0.190	-0.367
-213.523	-200.000	0.009	0.241
-212.509	612.736	0.075	-0.186
-211.494	120.919	-0.120	0.148
-210.479	74.676	0.217	0.226
-209.465	-196.437	0.052	-0.000
-208.450	92.518	-0.041	0.046
-207.436	60.194	0.166	-0.162
-206.421	-54.527	-0.296	0.133
-205.406	-200.000	-0.011	0.131
-204.392	-43.517	0.030	-0.015
-203.377	276.989	-0.042	0.074
-202.363	13.569	-0.340	0.261
-201.348	-114.720	-0.191	0.036
-200.333	-105.237	-0.131	0.030
-199.319	-161.513	0.269	-0.014
-198.304	152.598	-0.047	0.064
-197.290	391.636	-0.126	-0.260
-196.275	-187.566	-0.149	-0.002
-195.260	-4.131	-0.123	0.085
-194.246	-119.064	-0.390	-0.068
-193.231	-200.000	-0.040	0.487
-192.217	777.179	-0.076	-0.207
-191.202	-50.334	0.233	-0.109
-190.187	644.478	0.164	-0.413
-189.173	-100.694	-0.271	-0.066
-188.158	-200.000	-0.030	0.196
-187.144	108.677	0.061	-0.072
-186.129	64.476	-0.180	0.180
-185.114	800.000	-0.109	-0.396
-184.100	265.888	0.033	0.057
-183.085	-175.991	-0.189	-0.005
-182.071	158.496	0.190	0.260
-181.056	152.233	0.128	-0.173
-180.042	-127.022	0.212	-0.031
-179.027	800.000	-0.068	0.279
-178.012	-200.000	0.063	0.362
-176.998	-83.009	0.272	0.087
-175.983	54.330	0.304	-0.289
-174.969	26.798	-0.259	0.215
-173.954	-158.314	-0.240	-0.014
-172.939	74.998	-0.148	-0.154
-171.925	-139.502	0.464	0.049
-170.910	-200.000	-0.012	-0.113
-169.896	-86.243	-0.129	-0.039
-168.881	-72.400	-0.204	-0.075
-167.866	238.686	0.089	0.146
-166.852	-10.414	0.167	0.109
-165.837	-65.069	0.142	0.057
-164.823	-146.821	0.308	0.026
-163.808	46.685	-0.164	0.151
-162.793	-183.055	-0.039	0.001
-161.779	-74.460	0.084	0.030
-160.764	396.641	-0.082	0.168
-159.750	124.442	-0.107	0.134
-158.735	275.163	0.150	-0.263
-157.720	800.000	0.122	-0.390
-156.706	-115.854	-0.401	-0.074
-155.691	159.202	0.053	0.073
-154.677	-45.978	-0.306	-0.149
-153.662	524.864	-0.082	-0.189
-152.647	372.475	0.195	0.390
-151.633	800.000	0.093	-0.272
-150.618	238.157	0.078	-0.127
-149.604	800.000	0.060	-0.211
-148.589	465.512	-0.099	-0.218
-147.574	-200.000	0.003	-0.138
-146.560	-95.176	-0.106	-0.028
-145.545	117.698	0.030	-0.037
-144.531	-200.000	-0.033	-0.217
-143.516	-105.717	0.141	0.031
-142.502	191.264	0.114	0.169
-141.487	-200.000	0.057	-0.361
-140.472	188.450	-0.037	0.055
-139.458	-144.690	0.445	-0.040
-138.443	82.111	-0.134	-0.143
-137.429	229.240	-0.096	-0.155
-136.414	-16.696	0.085	-0.053
-135.399	-40.320	-0.142	-0.073
-134.385	-200.000	0.032	0.379
-133.370	325.010	-0.084	0.159
-132.356	-63.850	0.070	-0.028
-131.341	-85.058	0.389	-0.120
-130.326	-65.814	0.272	-0.107
-129.312	-101.285	0.152	0.037
-128.297	-109.614	0.102	-0.021
-127.283	-84.205	-0.186	-0.058
-126.268	-140.017	-0.086	-0.009
-125.253	130.766	0.140	-0.177
-124.239	478.199	0.150	0.334
-123.224	-175.951	-0.205	-0.005
-122.210	-106.423	0.075	-0.017
-121.195	-39.956	-0.108	0.056
-120.180	2.232	0.199	0.142
-119.166	111.529	0.113	-0.135
-118.151	-38.179	0.056	-0.029
-117.137	-183.806	0.131	0.002
-116.122	-44.942	0.242	0.119
-115.107	-93.700	0.156	-0.042
-114.093	-30.712	-0.134	-0.075
-113.078	-108.155	0.038	-0.008
-112.064	78.704	-0.156	0.165
-111.049	409.208	-0.017	0.036
-110.034	-44.192	0.251	-0.124
-109.020	192.303	0.106	-0.158
-108.005	156.229	-0.144	0.196
-106.991	622.675	0.087	0.217
-105.976	-44.573	-0.238	-0.117
-104.962	-93.266	0.125	0.034
-103.947	-200.000	0.011	-0.430
-102.932	-177.475	0.072	0.002
-101.918	-200.000	0.026	-0.259
-100.903	72.023	0.208	-0.214
-99.889	-72.583	0.402	0.146
-98.874	800.000	-0.073	-0.228
-97.859	-127.853	0.285	-0.040
-96.845	40.867	0.148	0.132
-95.830	-29.347	0.226	0.128
-94.816	-200.000	-0.005	-0.045
-93.801	-9.529	0.149	-0.098
-92.786	56.447	0.343	0.329
-91.772	181.533	0.209	0.302
-90.757	800.000	0.068	0.249
-89.743	96.505	0.273	-0.307
-88.728	-53.959	-0.330	-0.148
-87.713	746.971	-0.080	0.212
-86.699	800.000	-0.056	-0.221
-85.684	8.785	0.211	0.157
-84.670	-22.663	-0.170	-0.101
-83.655	-0.888	0.193	-0.134
-82.640	379.535	-0.074	-0.149
-81.626	-137.467	0.135	-0.015
-80.611	-192.311	-0.226	-0.002
-79.597	800.000	0.110	0.475
-78.582	-115.165	-0.170	-0.032
-77.567	-68.468	0.360	0.137
-76.553	-10.638	0.197	0.129
-75.538	800.000	-0.016	0.045
-74.524	53.249	0.040	-0.038
-73.509	-200.000	0.000	0.460
-72.494	67.252	0.258	-0.259
-71.480	800.000	0.091	0.332
-70.465	-10.073	0.216	-0.141
-69.451	-161.088	0.339	0.017
-68.436	-158.080	-0.454	0.026
-67.422	164.102	-0.264	0.367
-66.407	-117.662	-0.267	0.047
-65.392	51.291	-0.090	0.084
-64.378	-137.444	-0.225	0.025
-63.363	-157.916	-0.285	0.017
-62.349	512.907	0.127	0.292
-61.334	144.142	-0.669	-0.879
-60.319	139.116	0.459	0.594
-59.305	668.319	-0.504	-1.282
-58.290	307.622	0.623	1.142
-57.276	-200.000	0.270	1.476
-56.261	-200.000	94.369	569.829
-55.246	511.153	1405.214	3216.646
-54.232	152.637	2611.866	3509.409
-53.217	111.014	2217.564	2626.057
-52.203	42.856	1747.110	1565.805
-51.188	34.807	1555.009	1337.540
-50.173	32.478	1527.478	1297.773
-49.159	52.436	1574.973	1478.102
-48.144	53.501	1592.623	1502.048
-47.130	35.090	1553.832	1338.298
-46.115	32.043	1538.513	1303.922
-45.100	31.822	1535.374	1299.681
-44.086	31.777	1533.479	1297.713
-43.071	31.739	1531.106	1295.389
-42.057	31.681	1529.651	1293.708
-41.042	31.685	1528.499	1292.711
-40.027	31.684	1526.906	1291.306
-39.013	31.664	1525.712	1290.104
-37.998	31.697	1524.148	1288.957
-36.984	31.700	1523.150	1288.083
-35.969	31.763	1521.658	1287.205
-34.954	31.645	1520.561	1285.411
-33.940	31.787	1518.612	1284.687
-32.925	31.744	1517.392	1283.309
-31.911	31.784	1515.569	1281.992
-30.896	31.862	1513.977	1281.128
-29.881	31.775	1513.117	1279.757
-28.867	31.704	1512.004	1278.274
-27.852	31.738	1510.434	1277.132
-26.838	31.790	1508.806	1276.059
-25.823	31.752	1507.267	1274.450
-24.809	31.729	1505.620	1272.847
-23.794	31.758	1503.960	1271.589
-22.779	31.661	1503.307	1270.331
-21.765	31.734	1502.170	1269.816
-20.750	31.673	1500.956	1268.326
-19.736	31.658	1499.834	1267.221
-18.721	31.624	1498.529	1265.844
-17.706	31.592	1497.450	1264.663
-16.692	31.710	1496.011	1264.194
-15.677	31.668	1495.134	1263.122
-14.663	31.606	1494.671	1262.264
-13.648	31.701	1492.970	1261.412
-12.633	31.654	1492.219	1260.412
-11.619	31.598	1491.613	1259.477
-10.604	31.714	1490.212	1259.024
-9.590	31.605	1489.728	1257.829
-8.575	31.650	1488.878	1257.365
-7.560	31.634	1487.864	1256.350
-6.546	31.662	1486.883	1255.663
-5.531	31.560	1486.096	1254.265
-4.517	31.542	1485.452	1253.548
-3.502	31.574	1484.197	1252.653
-2.487	31.648	1482.956	1252.050
-1.473	31.645	1481.599	1250.836
-0.458	31.692	1480.582	1250.242
0.556	31.261	1470.966	1241.007
1.571	28.631	1445.871	1202.524
2.586	25.087	1382.346	1127.341
3.600	22.874	1296.767	1044.387
4.615	20.520	1249.696	992.952
5.629	17.041	1191.943	927.994
6.644	8.951	1104.657	818.806
7.659	2.242	1063.447	755.126
8.673	1.193	1057.170	745.448
9.688	1.025	1054.756	742.859
10.702	0.968	1053.124	741.362
11.717	0.965	1051.570	740.191
12.731	3.358	1053.457	753.158
13.746	10.786	1063.475	796.799
14.761	16.356	1070.474	829.398
15.775	17.598	1071.032	835.853
16.790	17.256	1069.471	832.886
17.804	16.358	1067.208	826.656
18.819	15.439	1065.603	820.845
19.834	14.952	1064.324	817.408
20.848	14.526	1063.516	814.634
21.863	14.391	1062.491	813.120
22.877	14.168	1061.654	811.318
23.892	13.846	1060.716	808.964
24.907	13.704	1060.322	807.897
25.921	13.792	1059.751	807.821
26.936	13.677	1058.688	806.381
27.950	13.757	1058.579	806.614
28.965	13.877	1057.238	806.102
29.980	13.901	1056.375	805.489
30.994	13.979	1055.155	804.867
32.009	14.026	1054.236	804.322
33.023	14.028	1053.594	803.770
34.038	14.008	1053.188	803.292
35.053	13.961	1051.949	802.052
36.067	13.942	1051.446	801.505
37.082	13.844	1051.022	800.638
38.096	13.945	1049.819	800.139
39.111	14.025	1048.463	799.419
40.126	13.930	1048.237	798.718
41.140	13.877	1047.113	797.536
42.155	13.875	1046.393	796.905
43.169	13.761	1045.448	795.572
44.184	13.833	1044.079	794.803
45.199	13.774	1043.414	793.943
46.213	13.603	1042.477	792.344
47.228	13.783	1041.797	792.616
48.242	13.916	1040.160	791.934
49.257	13.881	1039.447	791.154
50.271	13.914	1038.556	790.564
51.286	13.865	1037.415	789.392
52.301	13.918	1036.643	788.990
53.315	13.855	1036.043	788.160
54.330	13.877	1035.278	787.613
55.344	13.757	1034.767	786.588
56.359	13.852	1033.147	785.736
57.374	13.848	1032.271	784.980
58.388	13.880	1031.474	784.456
59.403	13.827	1030.722	783.566
60.417	13.803	1030.192	782.981
61.432	13.744	1029.530	782.131
62.447	13.820	1028.652	781.750
63.461	13.664	1027.987	780.443
64.476	13.842	1026.637	780.184
65.490	13.772	1026.150	779.415
66.505	13.601	1025.959	778.400
67.520	13.840	1023.994	777.959
68.534	13.746	1024.145	777.568
69.549	13.879	1022.752	777.064
70.563	13.802	1021.999	776.061
71.578	13.823	1022.049	776.126
72.593	13.700	1021.226	774.861
73.607	13.702	1020.145	773.981
74.622	13.743	1018.994	773.231
75.636	13.706	1018.017	772.250
76.651	13.777	1017.071	771.793
77.666	13.688	1016.593	770.947
78.680	13.700	1015.832	770.359
79.695	13.790	1015.043	770.108
80.709	13.691	1014.791	769.392
81.724	13.711	1013.910	768.746
82.739	13.859	1012.750	768.486
83.753	13.916	1012.325	768.357
84.768	13.802	1011.564	767.183
85.782	14.021	1010.417	767.260
86.797	14.092	1009.602	766.900
87.812	14.024	1008.906	765.989
88.826	13.900	1008.322	764.907
89.841	13.855	1007.073	763.685
90.855	13.901	1006.396	763.314
91.870	13.978	1005.517	762.936
92.884	13.964	1005.257	762.605
93.899	13.899	1004.126	761.385
94.914	13.979	1003.561	761.255
95.928	14.196	1002.339	761.249
96.943	14.068	1001.866	760.242
97.957	13.962	1001.493	759.407
98.972	14.022	1000.759	759.053
99.987	13.927	999.887	757.893
101.001	14.072	998.950	757.779
102.016	13.906	998.518	756.624
103.030	14.001	997.210	756.002
104.045	14.026	996.343	755.388
105.060	14.007	995.196	754.368
106.074	13.984	994.858	753.939
107.089	13.917	993.736	752.717
108.103	13.963	992.652	752.040
109.118	13.906	991.975	751.200
110.133	13.868	991.177	750.362
111.147	13.875	990.465	749.787
112.162	13.846	989.763	749.059
113.176	14.008	988.493	748.760
114.191	13.900	987.769	747.660
115.206	13.954	986.948	747.212
116.220	13.865	986.438	746.362
117.235	13.845	985.235	745.296
118.249	13.932	984.405	744.991
119.264	13.904	983.790	744.336
120.279	13.933	982.769	743.626
121.293	13.786	982.140	742.427
122.308	14.041	980.936	742.593
123.322	13.868	980.356	741.315
124.337	13.985	979.285	740.960
125.352	14.001	977.762	739.813
126.366	13.859	977.074	738.594
127.381	13.876	976.046	737.829
128.395	13.920	974.827	737.038
129.410	13.780	974.060	735.772
130.424	13.931	972.907	735.503
131.439	14.103	971.830	735.388
132.454	13.901	971.536	734.206
133.468	13.887	970.988	733.663
134.483	14.027	970.318	733.711
135.497	14.021	969.463	732.974
136.512	13.985	968.726	732.193
137.527	13.956	967.915	731.386
138.541	13.895	967.325	730.610
139.556	14.130	966.044	730.610
140.570	13.997	965.791	729.769
141.585	14.084	964.624	729.203
142.600	14.018	964.081	728.441
143.614	14.090	963.073	727.931
144.629	14.068	962.633	727.437
145.643	14.130	962.054	727.206
146.658	14.025	961.070	725.940
147.673	14.043	960.141	725.250
148.687	14.147	959.170	724.905
149.702	14.027	958.502	723.815
150.716	13.915	958.103	722.963
151.731	13.992	956.811	722.257
152.746	14.085	955.898	721.909
153.760	14.069	955.152	721.210
154.775	14.065	954.406	720.568
155.789	14.163	953.206	720.024
156.804	14.141	952.951	719.671
157.819	14.096	952.195	718.839
158.833	14.165	951.428	718.498
159.848	14.107	950.779	717.693
160.862	14.316	950.315	718.180
161.877	14.171	949.702	717.027
162.892	14.170	948.380	715.965
163.906	14.107	947.806	715.193
164.921	14.132	946.676	714.388
165.935	14.287	945.350	713.989
166.950	14.204	944.651	713.043
167.964	14.227	944.071	712.637
168.979	14.254	942.784	711.718
169.994	14.150	942.226	710.791
171.008	14.223	941.092	710.184
172.023	14.256	940.159	709.556
173.037	14.190	939.775	708.926
174.052	14.395	938.702	708.924
175.067	14.325	938.146	708.143
176.081	14.299	937.816	707.720
177.096	14.222	936.830	706.587
178.110	14.326	935.767	706.165
179.125	14.411	934.810	705.741
180.140	14.396	933.786	704.840
181.154	14.306	933.515	704.196
182.169	14.261	933.106	703.632
183.183	14.394	932.172	703.428
184.198	14.513	930.978	702.968
185.213	14.487	930.347	702.316
186.227	14.412	930.173	701.808
187.242	14.435	929.748	701.521
188.256	14.453	928.582	700.656
189.271	14.575	927.863	700.564
190.286	14.606	926.913	699.913
191.300	14.625	926.206	699.401
192.315	14.441	925.748	698.218
193.329	14.428	925.314	697.778
194.344	14.288	924.530	696.538
195.359	14.411	924.091	696.660
196.373	14.482	923.300	696.300
197.388	14.515	922.525	695.791
198.402	14.466	922.666	695.631
199.417	14.572	922.158	695.629
200.432	14.495	921.602	694.827
201.446	14.661	920.878	694.911
202.461	14.723	920.368	694.721
203.475	14.638	920.292	694.248
204.490	14.730	918.866	693.494
205.504	14.654	918.094	692.534
206.519	14.813	917.134	692.408
207.534	14.831	916.783	692.156
208.548	14.686	916.290	691.123
209.563	14.754	915.075	690.428
210.577	14.746	914.762	690.094
211.592	14.867	913.562	689.627
212.607	14.836	913.296	689.241
213.621	14.869	913.023	689.106
214.636	14.824	912.244	688.275
215.650	14.875	911.676	687.995
216.665	14.952	911.271	687.946
217.680	14.882	910.739	687.195
218.694	15.002	910.021	687.085
219.709	14.816	909.512	685.877
220.723	14.919	908.636	685.579
221.738	14.983	908.127	685.395
222.753	14.915	907.701	684.736
223.767	14.936	907.034	684.257
224.782	14.959	906.162	683.632
225.796	15.025	904.943	682.921
226.811	15.130	904.288	682.793
227.826	14.982	903.827	681.782
228.840	15.018	903.272	681.451
229.855	14.994	902.462	680.684
230.869	15.050	901.714	680.286
231.884	15.055	901.592	680.155
232.899	15.127	900.408	679.493
233.913	14.987	899.753	678.371
234.928	14.989	899.253	677.941
235.942	14.974	898.548	677.289
236.957	14.914	897.724	676.366
237.972	14.958	896.874	675.841
238.986	15.098	896.503	676.069
240.001	15.004	896.087	675.313
241.015	15.065	895.199	674.832
242.030	15.124	894.546	674.518
243.045	15.210	893.583	674.080
244.059	15.280	892.968	673.835
245.074	15.212	892.510	673.156
246.088	15.307	892.049	673.133
247.103	15.121	891.442	671.868
248.117	15.270	890.790	671.915
249.132	15.267	890.446	671.583
250.147	15.256	889.589	670.833
251.161	15.280	888.936	670.378
252.176	15.410	887.735	669.933
253.190	15.540	887.240	670.020
254.205	15.456	886.711	669.222
255.220	15.528	886.156	669.031
256.234	15.478	885.288	668.120
257.249	15.569	884.928	668.149
258.263	15.561	884.427	667.679
259.278	15.447	883.961	666.815
260.293	15.702	883.340	667.303
261.307	15.611	882.581	666.307
262.322	15.723	881.654	665.994
263.336	15.661	881.144	665.303
264.351	15.691	880.438	664.830
265.366	15.763	880.156	664.842
266.380	15.740	879.592	664.270
267.395	15.756	879.063	663.872
268.409	15.607	878.610	662.883
269.424	15.716	877.514	662.428
270.439	15.804	876.743	662.132
271.453	15.767	875.819	661.231
272.468	15.701	875.484	660.660
273.482	15.784	874.673	660.316
274.497	15.676	874.256	659.521
275.512	15.918	873.043	659.492
276.526	15.744	872.562	658.392
277.541	15.748	872.029	657.949
278.555	15.838	871.408	657.772
279.570	15.971	870.777	657.756
280.585	15.869	870.579	657.149
281.599	15.873	870.069	656.723
282.614	15.891	869.237	656.109
283.628	15.871	868.873	655.698
284.643	15.965	868.198	655.493
285.657	16.019	867.505	655.123
286.672	15.991	866.975	654.556
287.687	15.943	866.786	654.171
288.701	16.107	865.955	654.119
289.716	16.043	865.483	653.460
290.730	16.039	865.264	653.220
291.745	15.913	864.502	652.099
292.760	16.115	863.368	651.965
293.774	16.067	862.990	651.436
294.789	16.066	862.522	651.022
295.803	16.261	861.425	650.890
296.818	16.046	861.037	649.710
297.833	16.156	860.270	649.499
298.847	16.156	859.704	649.012
299.862	16.127	858.728	648.107
300.876	16.116	858.281	647.671
301.891	16.246	857.489	647.515
302.906	16.287	856.856	647.135
303.920	16.256	856.205	646.470
304.935	16.253	855.797	646.093
305.949	16.415	855.321	646.296
306.964	16.420	854.266	645.458
307.979	16.457	853.839	645.220
308.993	16.374	853.604	644.668
310.008	16.455	853.179	644.601
311.022	16.455	852.086	643.718
312.037	16.500	851.742	643.570
313.052	16.559	851.176	643.311
314.066	16.409	850.864	642.448
315.081	16.512	849.849	642.018
316.095	16.437	849.395	641.334
317.110	16.549	848.863	641.300
318.125	16.367	848.276	640.108
319.139	16.483	848.001	640.282
320.154	16.509	847.305	639.801
321.168	16.457	846.844	639.197
322.183	16.571	846.383	639.226
323.197	16.446	845.903	638.335
324.212	16.426	845.557	637.942
325.227	16.477	844.766	637.480
326.241	16.562	844.141	637.271
327.256	16.503	843.675	636.644
328.270	16.616	842.900	636.424
329.285	16.695	842.239	636.168
330.300	16.654	841.661	635.519
331.314	16.722	841.406	635.527
332.329	16.574	840.787	634.449
333.343	16.664	839.974	634.115
334.358	16.625	839.393	633.475
335.373	16.725	838.637	633.222
336.387	16.799	838.282	633.174
337.402	16.792	838.023	632.896
338.416	16.694	837.879	632.367
339.431	16.750	837.046	631.892
340.446	16.862	836.156	631.579
341.460	16.800	835.612	630.881
342.475	16.779	835.383	630.574
343.489	16.993	834.141	630.377
344.504	16.951	834.037	630.086
345.519	16.937	833.408	629.506
346.533	16.990	833.094	629.407
347.548	16.992	832.334	628.787
348.562	17.023	831.698	628.362
349.577	16.968	831.487	627.944
350.592	16.878	831.121	627.278
351.606	16.993	830.352	627.069
352.621	17.036	829.892	626.824
353.635	17.118	829.576	626.832
354.650	16.770	829.694	625.582
355.665	17.124	828.591	626.002
356.679	16.926	828.358	625.039
357.694	16.949	827.692	624.567
358.708	17.125	826.981	624.621
359.723	17.120	826.574	624.240
360.738	17.118	825.834	623.619
361.752	16.950	826.019	623.089
362.767	17.132	825.021	622.946
363.781	17.170	824.502	622.640
364.796	17.059	824.482	622.162
365.810	17.199	823.873	622.159
366.825	17.203	823.278	621.673
367.840	17.305	822.900	621.701
368.854	17.422	822.405	621.702
369.869	17.391	821.965	621.202
370.883	17.383	821.307	620.619
371.898	17.452	820.673	620.335
372.913	17.387	820.134	619.640
373.927	17.370	819.565	619.090
374.942	17.301	818.818	618.220
375.956	17.397	818.503	618.279
376.971	17.384	817.867	617.697
377.986	17.377	817.161	617.081
379.000	17.610	816.523	617.392
380.015	17.490	816.621	616.976
381.029	17.580	815.914	616.711
382.044	17.384	815.469	615.613
383.059	17.637	814.363	615.636
384.073	17.512	814.379	615.142
385.088	17.621	813.680	614.955
386.102	17.761	812.888	614.806
387.117	17.492	812.492	613.481
388.132	17.582	812.237	613.560
389.146	17.703	811.602	613.459
390.161	17.531	811.381	612.623
391.175	17.530	811.179	612.412
392.190	17.669	810.764	612.542
393.205	17.582	810.485	611.965
394.219	17.681	810.093	611.971
395.234	17.624	809.071	610.940
396.248	17.745	808.743	611.072
397.263	17.581	808.125	609.963
398.278	17.745	807.675	610.157
399.292	17.551	807.385	609.188
400.307	17.555	807.138	608.963
401.321	17.717	806.260	608.826
402.336	17.702	805.926	608.467
403.350	17.762	805.556	608.348
404.365	17.755	805.079	607.908
405.380	17.841	804.709	607.883
406.394	17.982	803.778	607.625
407.409	17.887	803.602	607.101
408.423	17.906	803.076	606.717
409.438	17.835	802.940	606.310
410.453	17.885	802.438	606.052
411.467	17.946	802.065	605.935
412.482	17.971	801.702	605.697
413.496	17.884	801.051	604.843
414.511	18.058	800.786	605.206
415.526	18.111	799.935	604.696
416.540	18.036	799.986	604.417
417.555	18.173	799.368	604.379
418.569	18.027	799.036	603.557
419.584	18.077	798.483	603.264
420.599	18.161	797.877	603.048
421.613	109.096	1289.435	1461.396
422.628	93.862	1361.035	1461.497
