DTS Sentinel unit serial number:	SN413079Multiplexer serial number:	ORYXHardware model number:	OX4-SRSoftware version number:	ORYX F/W v4.00 Oryx Data Collector v3.7.2.0data status	okinstallation	princeton_trtdifferential loss correction	single-endedforward channel	channel 3reverse channel	N/Adate	2019/09/15time	10:16:34forward acquisition time	60.00reverse acquisition time	0.00gamma	496.2192k internal	0.2307k external	0.2307temperature offset calibration	0.9973default loss term (dB/km)	0.3790temperature slope calibration	1.0000multiplexer offset coefficient	1.0000multiplexer slope coefficient	1.0000fibre end	0.00T internal ref (°C)	34.25T ext. ref 1 (°C)	5.03T ext. ref 2 (°C)	29.64length (m)	temperature (°C)	Stokes	anti-Stokes-747.200	800.000	-0.070	0.289
-746.185	-139.349	0.222	-0.024
-745.171	88.854	0.135	0.153
-744.156	120.221	0.111	-0.140
-743.142	-200.000	-0.025	-0.255
-742.127	-86.498	-0.173	0.054
-741.112	-200.000	-0.015	0.090
-740.098	57.985	0.061	0.061
-739.083	-200.000	-0.032	-0.276
-738.069	-35.333	0.148	-0.082
-737.054	-200.000	-0.014	-0.265
-736.039	19.584	-0.357	-0.292
-735.025	169.873	0.017	-0.024
-734.010	143.300	-0.063	-0.085
-732.996	-200.000	0.014	0.443
-731.981	84.415	0.166	0.185
-730.966	-32.752	0.209	0.118
-729.952	-48.205	0.113	-0.055
-728.937	652.278	-0.175	-0.457
-727.923	147.835	-0.239	-0.327
-726.908	-200.000	0.046	0.368
-725.894	-64.297	0.093	-0.039
-724.879	-92.126	-0.036	-0.010
-723.864	-34.070	-0.122	0.068
-722.850	45.139	-0.310	0.290
-721.835	321.805	0.079	-0.152
-720.821	-200.000	-0.011	0.117
-719.806	-47.609	-0.156	0.077
-718.791	90.104	-0.086	-0.097
-717.777	-45.875	-0.342	0.172
-716.762	-149.664	-0.027	-0.002
-715.748	800.000	-0.121	-0.475
-714.733	-173.763	0.332	0.010
-713.718	6.903	-0.317	-0.240
-712.704	-107.813	-0.443	-0.098
-711.689	800.000	0.015	0.050
-710.675	-12.553	-0.173	-0.115
-709.660	-180.471	-0.429	0.009
-708.645	-90.929	-0.181	0.053
-707.631	-200.000	-0.012	-0.166
-706.616	290.198	-0.153	-0.282
-705.602	-174.559	0.129	-0.004
-704.587	-200.000	-0.015	-0.291
-703.572	-126.026	-0.481	0.073
-702.558	-81.867	-0.046	-0.015
-701.543	102.099	-0.280	-0.332
-700.529	800.000	0.087	-0.292
-699.514	-39.761	-0.106	0.056
-698.499	-200.000	-0.018	0.114
-697.485	-23.955	0.072	-0.044
-696.470	-99.307	-0.042	0.011
-695.456	800.000	-0.088	0.299
-694.441	-73.276	-0.205	-0.076
-693.426	-103.663	0.339	-0.081
-692.412	362.246	0.072	0.146
-691.397	-4.817	-0.413	0.289
-690.383	672.152	-0.144	0.378
-689.368	-158.875	0.105	0.006
-688.354	97.769	0.120	0.140
-687.339	-200.000	-0.007	-0.158
-686.324	-158.546	-0.070	0.004
-685.310	-200.000	-0.006	0.067
-684.295	69.741	-0.286	0.299
-683.281	87.226	-0.032	-0.035
-682.266	-28.184	0.299	-0.175
-681.251	543.229	0.099	0.240
-680.237	69.711	-0.168	-0.176
-679.222	-170.743	0.292	0.010
-678.208	-200.000	0.009	0.113
-677.193	800.000	-0.069	0.241
-676.178	33.661	-0.075	0.067
-675.164	-35.536	-0.401	-0.221
-674.149	91.150	-0.240	-0.273
-673.135	-103.979	0.277	-0.066
-672.120	-70.996	0.198	0.075
-671.105	-93.023	-0.072	-0.020
-670.091	800.000	-0.106	-0.367
-669.076	-200.000	0.006	-0.126
-668.062	-200.000	-0.055	0.288
-667.047	185.759	-0.221	0.332
-666.032	-7.443	-0.443	-0.304
-665.018	300.312	0.039	-0.073
-664.003	-106.242	0.203	0.046
-662.989	-60.725	-0.054	0.023
-661.974	-66.068	0.166	-0.067
-660.959	-200.000	0.027	0.202
-659.945	-139.030	0.378	0.041
-658.930	282.301	-0.150	0.272
-657.916	274.918	-0.196	0.352
-656.901	8.457	-0.284	-0.216
-655.886	42.650	-0.217	-0.200
-654.872	29.022	-0.162	-0.140
-653.857	197.992	0.035	0.055
-652.843	800.000	0.025	-0.098
-651.828	37.347	-0.157	0.141
-650.814	606.002	0.079	0.199
-649.799	800.000	0.050	-0.179
-648.784	-101.822	-0.173	0.042
-647.770	-200.000	-0.055	-0.254
-646.755	-200.000	-0.003	0.059
-645.741	-200.000	-0.004	-0.184
-644.726	-128.404	0.155	0.022
-643.711	800.000	-0.040	-0.128
-642.697	393.341	-0.119	0.251
-641.682	-72.541	0.216	0.081
-640.668	206.319	-0.020	0.032
-639.653	-24.982	0.052	-0.031
-638.638	-170.604	-0.257	0.009
-637.624	-107.330	0.137	-0.031
-636.609	-200.000	-0.007	0.142
-635.595	24.036	-0.103	-0.086
-634.580	-200.000	-0.023	0.103
-633.565	-3.853	-0.270	-0.189
-632.551	100.994	0.306	-0.360
-631.536	-31.817	-0.196	-0.111
-630.522	-70.460	-0.071	-0.027
-629.507	49.250	0.286	0.273
-628.492	-20.724	-0.143	0.089
-627.478	-93.146	-0.359	-0.101
-626.463	-200.000	-0.006	-0.162
-625.449	-115.602	-0.166	-0.031
-624.434	-128.269	-0.039	-0.006
-623.419	-47.779	0.221	-0.108
-622.405	-186.910	-0.128	-0.002
-621.390	-29.727	-0.139	0.080
-620.376	121.986	-0.128	0.161
-619.361	-200.000	0.001	0.211
-618.346	-176.091	-0.134	-0.004
-617.332	244.558	0.090	-0.153
-616.317	-150.089	-0.227	-0.018
-615.303	47.735	0.081	0.076
-614.288	-95.684	0.320	-0.087
-613.273	309.295	0.077	0.145
-612.259	-11.041	0.115	-0.077
-611.244	59.767	-0.141	-0.141
-610.230	-140.891	0.285	-0.030
-609.215	-55.535	0.323	0.146
-608.201	190.667	-0.085	0.129
-607.186	641.333	0.047	0.121
-606.171	-24.233	-0.030	0.018
-605.157	-125.997	-0.367	-0.056
-604.142	-92.918	-0.178	0.050
-603.128	-25.371	0.222	0.133
-602.113	800.000	-0.062	-0.181
-601.098	594.472	-0.105	0.261
-600.084	22.961	0.136	-0.113
-599.069	29.708	-0.153	0.132
-598.055	-125.037	-0.152	-0.024
-597.040	242.761	0.003	-0.005
-596.025	-54.531	0.267	-0.122
-595.011	800.000	-0.039	0.153
-593.996	-89.961	0.237	-0.070
-592.982	440.792	0.071	0.157
-591.967	800.000	0.069	-0.269
-590.952	-25.991	-0.092	0.055
-589.938	-26.501	-0.283	-0.168
-588.923	-200.000	0.028	-0.302
-587.909	-139.086	-0.142	0.016
-586.894	800.000	-0.021	-0.060
-585.879	800.000	0.094	-0.378
-584.865	-200.000	-0.028	-0.319
-583.850	186.748	0.080	0.120
-582.836	800.000	0.034	0.105
-581.821	-168.298	-0.103	-0.004
-580.806	-41.691	0.195	-0.101
-579.792	800.000	0.072	-0.263
-578.777	-100.579	0.361	-0.090
-577.763	-62.391	0.027	-0.011
-576.748	630.947	0.071	0.181
-575.733	-43.260	-0.322	0.165
-574.719	320.058	-0.102	0.196
-573.704	-57.061	-0.227	0.101
-572.690	38.994	0.165	0.149
-571.675	-200.000	0.007	0.196
-570.661	95.151	-0.062	0.071
-569.646	178.661	0.166	-0.245
-568.631	103.913	-0.140	-0.166
-567.617	-72.922	0.334	-0.124
-566.602	-200.000	0.001	-0.183
-565.588	-200.000	0.058	0.266
-564.573	266.141	-0.203	-0.358
-563.558	-136.336	-0.294	0.035
-562.544	-59.641	0.070	0.031
-561.529	-171.667	-0.112	-0.004
-560.515	51.243	0.139	0.134
-559.500	58.234	0.069	0.068
-558.485	367.917	0.073	0.149
-557.471	-200.000	0.046	0.222
-556.456	313.410	0.165	0.313
-555.442	-27.506	0.072	-0.042
-554.427	45.206	-0.043	0.040
-553.412	-108.538	0.081	0.018
-552.398	-101.477	-0.239	0.059
-551.383	165.645	-0.173	0.247
-550.369	-200.000	0.016	-0.106
-549.354	-171.453	0.291	0.010
-548.339	-200.000	-0.268	-0.000
-547.325	-71.661	0.443	-0.167
-546.310	800.000	0.031	-0.128
-545.296	-107.917	0.171	-0.038
-544.281	499.157	0.122	-0.284
-543.266	-200.000	0.057	0.358
-542.252	291.424	-0.113	0.207
-541.237	76.652	-0.295	-0.315
-540.223	-16.555	0.176	-0.112
-539.208	-54.581	0.188	-0.086
-538.193	218.299	-0.269	-0.433
-537.179	800.000	0.022	0.086
-536.164	-200.000	-0.036	0.480
-535.150	54.186	0.095	0.092
-534.135	36.129	0.103	0.091
-533.121	38.022	-0.096	-0.086
-532.106	335.170	-0.085	0.166
-531.091	59.854	-0.070	-0.070
-530.077	-136.055	-0.245	-0.029
-529.062	-95.871	0.084	0.023
-528.048	800.000	-0.081	-0.286
-527.033	-105.782	-0.050	-0.011
-526.018	640.749	-0.018	-0.046
-525.004	-149.199	-0.122	-0.010
-523.989	444.604	0.046	0.103
-522.975	68.808	-0.139	0.144
-521.960	126.564	-0.137	0.175
-520.945	800.000	0.071	0.303
-519.931	207.140	0.197	0.309
-518.916	-73.506	-0.061	0.022
-517.902	96.480	-0.176	0.203
-516.887	-200.000	-0.028	-0.224
-515.872	800.000	-0.021	-0.065
-514.858	14.128	0.122	-0.096
-513.843	-200.000	0.011	0.115
-512.829	-200.000	-0.038	-0.272
-511.814	-52.058	-0.179	0.084
-510.799	192.134	-0.249	-0.378
-509.785	800.000	-0.112	0.336
-508.770	-59.041	-0.177	0.077
-507.756	1.773	-0.339	0.246
-506.741	-138.422	-0.184	0.020
-505.726	48.906	-0.426	-0.403
-504.712	-134.864	0.227	-0.028
-503.697	0.369	0.074	0.053
-502.683	-68.061	-0.099	-0.039
-501.668	8.387	-0.142	0.107
-500.653	56.542	-0.083	0.081
-499.639	-8.927	-0.118	-0.080
-498.624	-71.185	0.389	-0.147
-497.610	-1.810	-0.171	-0.121
-496.595	350.170	-0.070	0.138
-495.581	164.277	0.080	0.113
-494.566	181.902	0.062	0.093
-493.551	800.000	-0.023	-0.069
-492.537	-200.000	-0.010	-0.195
-491.522	-5.230	-0.218	-0.151
-490.508	-85.837	-0.189	-0.059
-489.493	128.410	-0.025	0.032
-488.478	551.457	0.053	-0.128
-487.464	-117.597	0.272	0.049
-486.449	202.572	-0.264	-0.411
-485.435	253.443	0.086	-0.148
-484.420	-90.165	-0.297	0.087
-483.405	72.887	0.147	0.154
-482.391	-76.138	0.279	0.099
-481.376	236.634	-0.105	-0.176
-480.362	-86.707	-0.500	-0.154
-479.347	-60.786	0.276	0.118
-478.332	-22.195	0.227	-0.138
-477.318	-200.000	-0.018	-0.196
-476.303	-200.000	0.002	0.501
-475.289	300.562	-0.105	0.196
-474.274	-124.115	0.171	-0.027
-473.259	130.489	-0.172	-0.222
-472.245	-137.961	-0.096	0.011
-471.230	63.513	0.088	0.088
-470.216	141.177	0.121	0.161
-469.201	218.728	-0.104	0.168
-468.186	-200.000	0.023	0.243
-467.172	-65.222	-0.128	0.052
-466.157	-53.418	-0.186	-0.086
-465.143	800.000	0.040	-0.162
-464.128	-200.000	-0.036	-0.293
-463.113	-114.154	-0.335	0.065
-462.099	362.784	-0.152	-0.307
-461.084	-49.156	0.137	-0.066
-460.070	-200.000	0.002	-0.102
-459.055	384.608	0.084	0.173
-458.040	-112.674	-0.141	0.028
-457.026	-87.232	0.446	0.136
-456.011	-96.896	0.056	0.015
-454.997	102.858	0.096	-0.113
-453.982	91.069	-0.193	-0.217
-452.968	246.093	0.061	-0.103
-451.953	-73.926	0.133	0.048
-450.938	-71.221	-0.039	-0.015
-449.924	-101.757	0.195	0.048
-448.909	671.868	-0.130	0.338
-447.895	214.572	-0.155	0.246
-446.880	-148.350	-0.392	-0.032
-445.865	118.736	-0.283	0.351
-444.851	800.000	-0.033	0.133
-443.836	543.104	-0.082	0.196
-442.822	-200.000	-0.016	0.201
-441.807	-191.452	-0.338	-0.003
-440.792	80.350	0.221	0.239
-439.778	-39.156	0.123	-0.065
-438.763	-139.389	0.155	-0.017
-437.749	24.386	-0.113	0.094
-436.734	353.979	-0.202	-0.404
-435.719	756.709	0.063	-0.171
-434.705	800.000	-0.047	-0.141
-433.690	-53.307	-0.054	-0.025
-432.676	82.473	-0.182	0.198
-431.661	23.797	-0.177	-0.147
-430.646	122.535	0.278	-0.349
-429.632	-10.722	-0.098	0.065
-428.617	74.249	0.129	0.136
-427.603	-153.470	-0.573	-0.040
-426.588	-14.966	0.483	0.311
-425.573	339.045	0.077	0.151
-424.559	800.000	-0.094	-0.293
-423.544	-59.136	-0.296	-0.128
-422.530	-133.478	-0.175	-0.022
-421.515	-23.682	0.314	0.189
-420.500	-72.977	-0.301	0.111
-419.486	-51.537	0.342	-0.160
-418.471	71.864	0.160	0.168
-417.457	800.000	0.006	0.021
-416.442	145.332	-0.144	-0.193
-415.428	53.930	-0.278	-0.268
-414.413	-145.809	0.182	0.016
-413.398	-188.458	0.164	0.002
-412.384	171.819	-0.093	-0.134
-411.369	34.976	-0.070	-0.061
-410.355	-75.242	-0.089	-0.032
-409.340	-200.000	0.014	0.478
-408.325	800.000	-0.155	0.526
-407.311	-200.000	0.042	0.312
-406.296	368.565	-0.125	-0.254
-405.282	13.043	-0.105	0.082
-404.267	130.684	0.085	-0.109
-403.252	-33.490	0.157	-0.087
-402.238	-200.000	-0.027	-0.121
-401.223	60.646	0.091	-0.090
-400.209	-102.737	0.087	-0.021
-399.194	-133.998	-0.275	-0.034
-398.179	-31.799	0.217	-0.122
-397.165	-83.592	0.360	0.116
-396.150	-130.615	-0.371	0.050
-395.136	800.000	-0.025	0.081
-394.121	-200.000	-0.018	0.093
-393.106	9.153	-0.134	0.101
-392.092	-5.984	-0.340	-0.233
-391.077	-200.000	-0.008	-0.063
-390.063	-76.273	-0.190	0.067
-389.048	-85.992	-0.133	-0.041
-388.033	-77.305	-0.274	-0.096
-387.019	94.292	-0.136	-0.155
-386.004	-26.198	-0.119	-0.070
-384.990	-15.363	-0.138	0.088
-383.975	49.047	0.222	0.209
-382.960	-100.809	0.358	0.088
-381.946	139.149	-0.041	0.055
-380.931	-37.698	-0.126	0.067
-379.917	262.154	-0.024	0.041
-378.902	250.552	0.257	0.438
-377.888	-54.795	-0.151	-0.068
-376.873	-110.104	-0.023	0.005
-375.858	-200.000	0.021	-0.263
-374.844	348.550	-0.175	0.347
-373.829	52.973	-0.159	0.153
-372.815	-94.228	0.428	-0.117
-371.800	-17.726	0.293	0.185
-370.785	25.147	0.284	0.236
-369.771	-61.025	-0.176	-0.074
-368.756	-84.979	-0.265	0.083
-367.742	-200.000	-0.003	-0.198
-366.727	164.236	0.094	0.132
-365.712	800.000	0.072	-0.276
-364.698	-40.092	0.113	-0.059
-363.683	62.930	-0.209	0.210
-362.669	-147.632	0.426	-0.036
-361.654	-15.538	-0.114	-0.073
-360.639	-162.853	-0.010	-0.000
-359.625	-118.958	-0.220	-0.039
-358.610	-1.145	0.453	-0.321
-357.596	-200.000	-0.046	-0.326
-356.581	-29.562	0.346	-0.198
-355.566	-200.000	-0.030	0.174
-354.552	6.310	0.233	0.173
-353.537	-48.388	-0.191	-0.092
-352.523	-200.000	-0.004	0.150
-351.508	-200.000	-0.004	-0.170
-350.493	800.000	-0.074	0.312
-349.479	53.254	0.052	0.050
-348.464	137.277	0.137	0.180
-347.450	-200.000	0.003	-0.099
-346.435	141.872	0.188	0.250
-345.420	-200.000	0.023	0.358
-344.406	31.728	0.141	0.122
-343.391	311.642	-0.015	0.028
-342.377	-19.821	-0.072	0.044
-341.362	-188.388	0.232	0.003
-340.348	242.122	-0.111	0.186
-339.333	800.000	-0.041	-0.179
-338.318	245.724	-0.162	0.273
-337.304	-200.000	-0.024	-0.408
-336.289	248.048	0.127	-0.215
-335.275	-131.546	-0.270	-0.036
-334.260	-200.000	-0.049	-0.395
-333.245	800.000	0.034	0.114
-332.231	-123.324	0.038	0.006
-331.216	466.547	0.051	0.115
-330.202	800.000	-0.027	-0.093
-329.187	173.277	0.128	-0.185
-328.172	-200.000	0.007	-0.188
-327.158	125.711	-0.047	-0.059
-326.143	84.591	-0.175	-0.192
-325.129	-97.554	-0.181	-0.047
-324.114	-163.545	0.141	-0.007
-323.099	343.172	-0.087	0.171
-322.085	800.000	0.063	-0.221
-321.070	143.816	-0.097	-0.130
-320.056	-133.048	-0.378	0.048
-319.041	781.213	-0.033	-0.090
-318.026	-49.521	-0.107	-0.051
-317.012	-5.467	0.375	0.257
-315.997	758.124	0.077	0.210
-314.983	-84.395	0.396	0.125
-313.968	-59.945	-0.163	0.070
-312.953	206.240	-0.200	0.311
-311.939	248.466	-0.124	-0.210
-310.924	-0.230	0.272	-0.193
-309.910	-200.000	0.029	0.171
-308.895	100.233	0.180	-0.208
-307.880	468.601	-0.188	0.422
-306.866	-32.132	0.062	-0.035
-305.851	-86.634	0.041	-0.012
-304.837	28.759	-0.262	0.222
-303.822	31.740	0.218	0.188
-302.807	-200.000	-0.005	0.349
-301.793	-200.000	0.005	-0.137
-300.778	113.473	0.178	0.216
-299.764	-71.599	0.246	0.092
-298.749	-0.084	0.175	-0.124
-297.735	800.000	-0.080	-0.289
-296.720	-200.000	-0.042	0.186
-295.705	800.000	0.068	-0.190
-294.691	107.877	0.079	0.094
-293.676	299.780	0.057	0.104
-292.662	95.572	0.126	0.144
-291.647	-200.000	-0.015	-0.102
-290.632	-29.674	-0.187	0.107
-289.618	-13.518	0.266	-0.172
-288.603	-110.455	0.149	-0.031
-287.589	-59.061	-0.186	0.080
-286.574	-3.575	0.227	0.158
-285.559	31.744	0.084	0.072
-284.545	-57.681	-0.028	-0.012
-283.530	-116.512	0.465	-0.086
-282.516	370.182	0.193	-0.391
-281.501	-130.297	0.211	-0.029
-280.486	-105.499	0.108	-0.025
-279.472	-144.799	0.382	0.035
-278.457	107.376	-0.172	0.205
-277.443	-181.827	0.063	-0.001
-276.428	-70.268	0.175	0.066
-275.413	-44.387	0.261	-0.131
-274.399	-98.615	0.215	0.055
-273.384	35.100	-0.052	0.046
-272.370	-200.000	-0.002	-0.362
-271.355	-3.881	0.046	0.032
-270.340	800.000	0.025	-0.106
-269.326	0.873	0.056	-0.040
-268.311	-200.000	-0.027	-0.407
-267.297	-113.861	-0.242	0.047
-266.282	800.000	-0.034	-0.101
-265.267	-200.000	-0.088	-0.000
-264.253	743.272	-0.085	-0.228
-263.238	-64.289	0.158	0.064
-262.224	-33.408	-0.128	0.071
-261.209	-200.000	0.007	0.047
-260.195	-101.690	-0.086	-0.021
-259.180	423.425	0.056	-0.120
-258.165	-200.000	-0.013	-0.283
-257.151	122.592	-0.197	0.246
-256.136	41.467	-0.149	-0.134
-255.122	-200.000	0.038	-0.167
-254.107	-200.000	-0.009	0.292
-253.092	90.389	-0.079	-0.088
-252.078	800.000	-0.060	0.201
-251.063	284.623	-0.137	-0.246
-250.049	800.000	0.084	0.351
-249.034	-8.553	-0.077	-0.052
-248.019	-200.000	0.005	0.100
-247.005	-15.347	0.131	-0.083
-245.990	321.151	0.055	0.104
-244.976	339.187	0.082	-0.158
-243.961	684.162	-0.144	-0.374
-242.946	-20.226	-0.303	0.186
-241.932	391.413	0.059	-0.123
-240.917	-200.000	0.013	-0.287
-239.903	210.909	0.122	0.191
-238.888	612.818	0.073	0.183
-237.873	284.262	0.067	-0.119
-236.859	-93.608	-0.101	0.028
-235.844	257.978	0.072	-0.123
-234.830	800.000	0.051	0.177
-233.815	355.792	0.199	0.395
-232.800	-48.011	-0.196	-0.095
-231.786	16.512	-0.101	-0.079
-230.771	442.365	-0.139	0.302
-229.757	-105.769	0.352	0.079
-228.742	120.739	0.083	-0.103
-227.727	-58.587	-0.216	0.093
-226.713	606.828	0.091	-0.227
-225.698	50.550	-0.163	0.154
-224.684	-200.000	-0.009	-0.057
-223.669	-200.000	0.006	-0.140
-222.655	126.912	-0.196	-0.248
-221.640	4.053	0.300	0.219
-220.625	160.183	-0.247	0.343
-219.611	97.205	0.274	0.314
-218.596	-43.877	-0.097	0.049
-217.582	185.650	0.207	-0.307
-216.567	-148.180	-0.034	0.003
-215.552	46.653	0.197	-0.182
-214.538	25.180	0.105	-0.087
-213.523	60.350	0.192	-0.189
-212.509	-121.467	-0.093	0.015
-211.494	-200.000	-0.008	-0.106
-210.479	-200.000	0.049	-0.261
-209.465	21.835	0.162	0.132
-208.450	-35.100	0.137	-0.074
-207.436	-200.000	0.010	0.193
-206.421	-158.319	0.030	0.002
-205.406	800.000	0.076	0.231
-204.392	-200.000	0.012	-0.053
-203.377	-36.400	0.246	0.132
-202.363	-40.585	0.153	0.079
-201.348	172.798	0.078	0.112
-200.333	89.257	0.176	-0.195
-199.319	99.569	0.185	-0.213
-198.304	-124.469	0.160	-0.025
-197.290	9.787	0.223	0.168
-196.275	-44.573	-0.431	-0.215
-195.260	-200.000	0.055	-0.269
-194.246	67.002	0.141	0.142
-193.231	70.049	-0.114	0.117
-192.217	119.271	-0.117	0.144
-191.202	-112.104	-0.160	-0.032
-190.187	-97.945	0.275	0.071
-189.173	169.049	0.095	-0.135
-188.158	-200.000	-0.028	0.125
-187.144	111.528	-0.037	0.044
-186.129	-200.000	-0.003	-0.264
-185.114	-36.373	0.275	-0.147
-184.100	-200.000	0.026	0.126
-183.085	-200.000	0.022	0.138
-182.071	-200.000	-0.012	0.150
-181.056	285.695	-0.065	-0.116
-180.042	800.000	-0.051	-0.190
-179.027	-157.826	0.097	0.006
-178.012	-10.573	-0.041	0.027
-176.998	212.128	-0.140	-0.219
-175.983	800.000	-0.087	-0.260
-174.969	-11.404	-0.116	0.076
-173.954	169.063	-0.173	0.245
-172.939	77.209	0.066	-0.069
-171.925	207.258	0.181	-0.281
-170.910	-200.000	-0.034	-0.371
-169.896	-200.000	-0.041	0.206
-168.881	-76.907	0.258	0.090
-167.866	201.203	-0.035	0.053
-166.852	-200.000	-0.028	-0.169
-165.837	-200.000	0.015	0.100
-164.823	135.617	-0.109	0.141
-163.808	-200.000	-0.015	0.098
-162.793	-103.843	0.065	-0.015
-161.779	-164.959	-0.355	-0.016
-160.764	-143.215	0.209	0.020
-159.750	35.190	0.163	-0.142
-158.735	390.115	-0.097	-0.199
-157.720	-200.000	-0.036	-0.466
-156.706	0.054	-0.106	-0.075
-155.691	163.620	-0.057	0.079
-154.677	-11.550	-0.076	0.050
-153.662	115.185	0.188	0.228
-152.647	-200.000	0.020	0.141
-151.633	-200.000	-0.017	0.318
-150.618	159.600	-0.185	0.256
-149.604	-200.000	0.007	-0.292
-148.589	-14.918	-0.192	0.122
-147.574	6.862	-0.076	-0.057
-146.560	-40.014	0.310	0.161
-145.545	363.747	-0.251	0.500
-144.531	-200.000	0.036	0.000
-143.516	-113.468	-0.047	-0.009
-142.502	275.938	0.021	0.037
-141.487	181.272	-0.208	0.303
-140.472	286.152	0.084	0.151
-139.458	591.035	0.077	-0.189
-138.443	-200.000	-0.011	-0.247
-137.429	-25.121	-0.502	0.295
-136.414	195.525	-0.130	-0.196
-135.399	69.574	0.179	-0.183
-134.385	-200.000	-0.049	-0.342
-133.370	800.000	0.051	-0.171
-132.356	76.055	0.128	0.135
-131.341	-92.029	0.127	-0.036
-130.326	-200.000	0.061	0.305
-129.312	41.395	-0.187	0.168
-128.297	-158.111	-0.264	0.015
-127.283	-4.846	-0.207	0.141
-126.268	307.402	0.137	-0.254
-125.253	194.053	0.042	-0.063
-124.239	800.000	-0.086	0.257
-123.224	-140.438	-0.041	0.004
-122.210	-23.386	-0.328	-0.196
-121.195	525.680	0.123	-0.288
-120.180	-200.000	-0.016	0.199
-119.166	518.790	-0.034	0.079
-118.151	325.325	0.068	-0.128
-117.137	-96.114	-0.178	-0.047
-116.122	30.602	-0.190	0.161
-115.107	134.259	0.115	-0.148
-114.093	13.205	-0.121	0.093
-113.078	-200.000	-0.047	0.214
-112.064	-60.533	0.094	0.040
-111.049	752.445	0.005	0.014
-110.034	-69.650	0.411	-0.156
-109.020	800.000	0.010	-0.037
-108.005	-37.614	0.126	-0.067
-106.991	314.769	-0.080	0.149
-105.976	395.778	0.052	0.108
-104.962	-200.000	0.025	-0.115
-103.947	-200.000	-0.034	0.179
-102.932	-116.324	0.401	0.074
-101.918	-98.566	0.185	-0.047
-100.903	-115.183	-0.260	0.049
-99.889	186.592	-0.081	-0.120
-98.874	-200.000	0.060	-0.297
-97.859	800.000	0.120	-0.377
-96.845	-33.871	-0.363	0.198
-95.830	-200.000	-0.069	0.382
-94.816	-126.346	0.085	-0.013
-93.801	119.902	0.144	0.176
-92.786	56.034	-0.152	-0.146
-91.772	-200.000	0.000	0.017
-90.757	399.364	-0.113	0.236
-89.743	-200.000	-0.014	0.207
-88.728	-48.861	-0.028	0.013
-87.713	800.000	-0.055	-0.191
-86.699	18.620	0.259	-0.206
-85.684	-78.645	0.318	0.108
-84.670	711.629	-0.033	-0.087
-83.655	8.769	-0.214	-0.160
-82.640	-55.105	0.074	0.033
-81.626	115.123	-0.101	0.122
-80.611	-200.000	-0.004	0.262
-79.597	-50.640	0.315	-0.147
-78.582	480.045	0.146	-0.328
-77.567	-200.000	0.081	-0.359
-76.553	58.674	0.086	-0.083
-75.538	800.000	-0.070	-0.204
-74.524	-85.226	-0.251	0.078
-73.509	126.920	-0.200	0.251
-72.494	-200.000	-0.029	0.168
-71.480	-108.261	0.267	0.057
-70.465	329.166	-0.136	0.260
-69.451	138.392	0.150	0.195
-68.436	220.744	-0.071	-0.112
-67.422	800.000	-0.032	-0.137
-66.407	-158.787	0.115	0.007
-65.392	671.073	-0.055	0.140
-64.378	166.402	0.208	-0.292
-63.363	-87.037	-0.250	0.075
-62.349	157.108	0.101	0.138
-61.334	3.551	-0.998	-0.720
-60.319	130.176	0.285	0.361
-59.305	-200.000	-0.080	-1.153
-58.290	337.470	0.468	0.900
-57.276	-200.000	0.358	1.720
-56.261	-200.000	97.045	572.265
-55.246	624.181	1402.733	3499.124
-54.232	185.460	2611.633	3838.243
-53.217	119.801	2206.344	2706.189
-52.203	44.661	1738.440	1581.843
-51.188	37.314	1549.245	1358.498
-50.173	34.840	1522.584	1318.035
-49.159	53.511	1572.823	1492.803
-48.144	57.106	1591.110	1535.274
-47.130	37.774	1546.587	1359.159
-46.115	34.479	1531.144	1322.733
-45.100	34.390	1527.611	1319.011
-44.086	34.265	1526.463	1317.101
-43.071	34.226	1524.696	1315.255
-42.057	34.227	1522.576	1313.383
-41.042	34.232	1521.304	1312.266
-40.027	34.228	1520.192	1311.231
-39.013	34.300	1518.086	1309.854
-37.998	34.283	1516.965	1308.719
-36.984	34.307	1515.842	1307.865
-35.969	34.251	1514.812	1306.541
-34.954	34.207	1513.073	1304.681
-33.940	34.178	1512.148	1303.639
-32.925	34.253	1510.527	1302.702
-31.911	34.236	1509.264	1301.440
-30.896	34.296	1507.629	1300.389
-29.881	34.279	1506.768	1299.483
-28.867	34.411	1504.781	1298.617
-27.852	34.286	1503.760	1296.834
-26.838	34.339	1502.348	1295.927
-25.823	34.262	1500.930	1294.126
-24.809	34.253	1499.391	1292.687
-23.794	34.268	1498.162	1291.674
-22.779	34.237	1496.931	1290.355
-21.765	34.231	1495.839	1289.324
-20.750	34.288	1494.577	1288.569
-19.736	34.220	1493.729	1287.326
-18.721	34.244	1492.224	1286.143
-17.706	34.249	1491.366	1285.381
-16.692	34.276	1490.400	1284.680
-15.677	34.219	1489.095	1283.120
-14.663	34.230	1487.917	1282.133
-13.648	34.231	1487.245	1281.505
-12.633	34.239	1486.344	1280.734
-11.619	34.223	1485.503	1279.849
-10.604	34.250	1484.229	1278.883
-9.590	34.288	1483.293	1278.282
-8.575	34.210	1482.618	1277.125
-7.560	34.291	1482.067	1277.141
-6.546	34.189	1481.604	1276.007
-5.531	34.222	1480.179	1274.954
-4.517	34.338	1478.559	1274.280
-3.502	34.211	1478.341	1273.195
-2.487	34.175	1477.150	1271.875
-1.473	34.183	1476.241	1271.099
-0.458	34.165	1474.933	1269.798
0.556	33.028	1465.337	1259.323
1.571	30.037	1438.868	1216.853
2.586	26.335	1375.648	1139.988
3.600	24.372	1292.140	1059.052
4.615	22.881	1245.528	1012.214
5.629	20.037	1189.302	950.852
6.644	12.205	1104.301	842.743
7.659	6.014	1062.735	780.270
8.673	5.220	1057.112	772.151
9.688	4.989	1054.341	768.915
10.702	4.973	1052.654	767.541
11.717	4.918	1050.668	765.756
12.731	7.354	1053.550	779.780
13.746	14.699	1064.219	823.974
14.761	19.258	1069.215	850.318
15.775	18.656	1067.192	845.667
16.790	17.481	1064.708	837.846
17.804	16.383	1062.378	830.541
18.819	15.556	1060.039	824.583
19.834	15.108	1059.195	821.654
20.848	14.632	1058.430	818.655
21.863	14.507	1057.512	817.257
22.877	14.227	1056.833	815.288
23.892	14.037	1055.758	813.461
24.907	14.004	1054.814	812.495
25.921	13.955	1054.208	811.723
26.936	13.961	1053.665	811.260
27.950	14.113	1052.253	810.840
28.965	14.134	1051.221	810.077
29.980	14.081	1050.105	808.886
30.994	14.188	1048.737	808.281
32.009	14.188	1048.321	807.888
33.023	14.281	1047.430	807.584
34.038	14.306	1046.623	807.009
35.053	14.180	1045.903	805.773
36.067	14.193	1044.643	804.794
37.082	14.090	1043.772	803.556
38.096	14.132	1042.933	803.038
39.111	14.129	1042.217	802.403
40.126	14.166	1041.538	801.988
41.140	14.180	1040.389	801.099
42.155	14.068	1039.230	799.599
43.169	13.957	1037.766	797.867
44.184	13.974	1036.930	797.235
45.199	13.837	1035.921	795.731
46.213	13.921	1034.736	795.156
47.228	13.923	1033.987	794.517
48.242	14.109	1033.300	794.807
49.257	13.991	1032.442	793.514
50.271	14.085	1031.106	792.868
51.286	14.064	1030.249	792.038
52.301	14.160	1029.465	791.824
53.315	14.227	1028.317	791.188
54.330	14.259	1027.437	790.591
55.344	14.004	1027.104	789.055
56.359	14.050	1025.909	788.284
57.374	13.961	1025.250	787.289
58.388	13.923	1024.561	786.509
59.403	13.914	1023.149	785.312
60.417	13.981	1022.528	785.081
61.432	13.983	1021.560	784.279
62.447	13.910	1020.895	783.354
63.461	13.885	1020.135	782.588
64.476	13.921	1019.231	781.992
65.490	13.896	1018.510	781.250
66.505	13.895	1017.538	780.433
67.520	13.932	1017.332	780.380
68.534	14.006	1015.895	779.555
69.549	13.915	1015.188	778.518
70.563	13.914	1014.667	778.044
71.578	13.949	1013.670	777.374
72.593	13.878	1012.861	776.355
73.607	13.712	1011.994	774.846
74.622	13.808	1011.114	774.551
75.636	13.824	1010.092	773.776
76.651	13.777	1009.302	772.879
77.666	13.740	1008.664	772.154
78.680	13.834	1007.895	771.931
79.695	13.842	1007.475	771.581
80.709	13.783	1006.571	770.543
81.724	13.935	1005.982	770.730
82.739	13.920	1005.053	769.880
83.753	13.882	1004.910	769.527
84.768	14.036	1003.962	769.448
85.782	14.106	1003.181	769.105
86.797	14.383	1002.274	769.619
87.812	14.278	1001.503	768.477
88.826	14.109	1000.572	766.915
89.841	14.031	999.922	765.990
90.855	14.172	999.405	766.171
91.870	14.089	998.778	765.244
92.884	14.168	997.541	764.592
93.899	14.309	996.793	764.599
94.914	14.269	996.185	763.882
95.928	14.294	995.308	763.254
96.943	14.374	994.943	763.274
97.957	14.235	993.945	761.803
98.972	14.233	993.375	761.290
99.987	14.219	992.589	760.558
101.001	14.235	991.781	759.944
102.016	14.177	990.718	758.798
103.030	14.178	989.658	757.922
104.045	14.275	988.994	757.789
105.060	14.190	987.712	756.354
106.074	14.170	986.515	755.280
107.089	14.105	985.836	754.399
108.103	13.968	984.981	753.057
109.118	13.971	984.161	752.376
110.133	13.948	983.391	751.614
111.147	13.881	982.691	750.710
112.162	13.861	981.428	749.592
113.176	13.937	980.606	749.238
114.191	14.002	979.643	748.732
115.206	14.163	978.718	748.683
116.220	14.110	978.492	748.204
117.235	14.099	977.500	747.329
118.249	13.971	976.683	746.066
119.264	13.986	975.814	745.403
120.279	13.984	975.089	744.772
121.293	14.009	974.122	744.082
122.308	13.961	973.356	743.213
123.322	14.016	972.170	742.488
124.337	13.873	971.268	741.094
125.352	13.988	969.750	740.386
126.366	13.854	969.531	739.555
127.381	13.897	968.259	738.712
128.395	13.983	967.164	738.191
129.410	13.948	966.114	737.171
130.424	13.913	965.059	736.144
131.439	13.982	964.547	735.996
132.454	14.116	963.634	735.828
133.468	14.054	963.088	735.071
134.483	13.989	962.396	734.190
135.497	14.034	961.652	733.757
136.512	14.108	960.859	733.411
137.527	14.069	960.269	732.726
138.541	14.027	959.482	731.876
139.556	14.032	958.828	731.335
140.570	14.050	957.885	730.629
141.585	14.004	957.382	729.977
142.600	14.185	956.415	729.968
143.614	14.157	955.932	729.416
144.629	14.191	955.392	729.085
145.643	14.290	954.661	728.897
146.658	14.420	953.321	728.377
147.673	14.281	952.494	727.074
148.687	14.175	951.572	725.842
149.702	14.190	950.305	724.878
150.716	14.247	949.889	724.747
151.731	14.143	948.800	723.398
152.746	14.194	947.999	722.945
153.760	14.150	947.564	722.359
154.775	14.172	947.022	721.975
155.789	14.250	946.049	721.507
156.804	14.327	945.484	721.347
157.819	14.182	944.732	720.085
158.833	14.245	943.901	719.658
159.848	14.368	943.291	719.660
160.862	14.370	942.806	719.235
161.877	14.325	942.015	718.374
162.892	14.359	940.586	717.366
163.906	14.274	939.798	716.339
164.921	14.163	939.275	715.399
165.935	14.159	938.726	714.901
166.950	14.112	937.758	713.896
167.964	14.371	936.626	714.083
168.979	14.278	935.251	712.575
169.994	14.317	934.554	712.147
171.008	14.352	933.923	711.751
172.023	14.376	933.148	711.203
173.037	14.504	932.781	711.403
174.052	14.411	932.064	710.397
175.067	14.528	931.240	710.204
176.081	14.339	930.360	708.666
177.096	14.359	929.289	707.875
178.110	14.146	928.836	706.562
179.125	14.371	928.199	706.968
180.140	14.356	927.415	706.245
181.154	14.310	926.642	705.401
182.169	14.598	925.711	705.848
183.183	14.440	925.256	704.771
184.198	14.536	925.013	704.927
185.213	14.522	924.103	704.115
186.227	14.594	923.557	703.938
187.242	14.497	923.165	703.167
188.256	14.543	922.481	702.778
189.271	14.613	921.608	702.346
190.286	14.627	920.638	701.604
191.300	14.516	919.908	700.519
192.315	14.289	919.214	698.978
193.329	14.200	918.210	697.776
194.344	14.271	917.699	697.625
195.359	14.385	917.289	697.729
196.373	14.489	916.600	697.576
197.388	14.549	916.190	697.454
198.402	14.637	915.503	697.240
199.417	14.729	915.535	697.585
200.432	14.897	914.609	697.521
201.446	14.871	914.826	697.512
202.461	14.766	914.278	696.596
203.475	14.875	913.580	696.458
204.490	14.738	912.925	695.329
205.504	14.900	911.594	694.924
206.519	14.751	910.848	693.676
207.534	14.692	910.321	692.967
208.548	14.674	909.554	692.248
209.563	14.744	908.932	692.005
210.577	14.821	908.198	691.702
211.592	14.779	907.484	690.925
212.607	14.902	907.332	691.254
213.621	15.047	906.623	691.252
214.636	14.878	906.074	690.076
215.650	14.972	904.953	689.546
216.665	14.930	904.609	689.051
217.680	14.969	904.476	689.051
218.694	14.877	904.161	688.371
219.709	15.113	903.172	688.528
220.723	15.031	902.631	687.718
221.738	14.977	902.057	686.999
222.753	14.941	901.380	686.272
223.767	15.066	900.590	686.121
224.782	15.142	899.613	685.630
225.796	15.069	898.924	684.744
226.811	15.193	898.213	684.650
227.826	15.150	897.558	683.914
228.840	15.092	896.714	682.974
229.855	15.114	895.915	682.394
230.869	15.169	895.421	682.183
231.884	15.084	894.747	681.262
232.899	15.050	894.094	680.567
233.913	15.047	893.576	680.100
234.928	14.894	893.083	679.043
235.942	14.934	892.403	678.630
236.957	14.922	891.652	677.948
237.972	15.006	890.616	677.441
238.986	14.999	890.229	677.057
240.001	15.031	889.653	676.690
241.015	15.056	888.783	676.069
242.030	15.147	888.027	675.802
243.045	15.097	887.591	675.207
244.059	15.211	886.999	675.159
245.074	15.283	886.254	674.819
246.088	15.251	885.577	674.115
247.103	15.355	884.956	674.002
248.117	15.247	884.416	673.097
249.132	15.336	884.024	673.095
250.147	15.491	883.362	673.155
251.161	15.486	883.096	672.873
252.176	15.626	882.468	672.895
253.190	15.593	881.707	672.124
254.205	15.489	881.392	671.406
255.220	15.664	879.956	670.954
256.234	15.754	879.822	671.151
257.249	15.677	879.364	670.436
258.263	15.856	878.369	670.332
259.278	15.714	878.171	669.555
260.293	15.667	877.734	668.972
261.307	15.880	876.641	668.927
262.322	15.880	876.024	668.400
263.336	15.844	875.775	668.008
264.351	15.939	875.070	667.787
265.366	15.907	874.560	667.212
266.380	15.817	873.827	666.238
267.395	15.995	872.881	666.158
268.409	15.833	872.519	665.184
269.424	15.886	871.571	664.613
270.439	15.801	871.324	664.030
271.453	15.838	870.196	663.259
272.468	15.766	869.656	662.504
273.482	15.847	869.330	662.516
274.497	15.691	868.452	661.176
275.512	15.873	867.718	661.272
276.526	15.816	867.138	660.550
277.541	15.782	865.985	659.479
278.555	15.876	865.738	659.600
279.570	15.948	865.420	659.583
280.585	16.062	864.457	659.233
281.599	16.092	863.991	658.939
282.614	15.944	863.581	657.988
283.628	16.019	862.654	657.517
284.643	15.990	862.225	657.018
285.657	16.009	861.805	656.715
286.672	15.803	861.292	655.463
287.687	16.063	860.634	655.916
288.701	16.164	859.904	655.693
289.716	16.125	859.665	655.302
290.730	16.050	859.148	654.558
291.745	16.172	858.178	654.236
292.760	16.170	857.332	653.525
293.774	16.234	857.208	653.622
294.789	16.167	856.821	653.009
295.803	16.207	855.709	652.259
296.818	16.146	855.167	651.551
297.833	16.228	854.397	651.224
298.847	16.260	853.660	650.729
299.862	16.137	853.333	649.948
300.876	16.222	852.795	649.805
301.891	16.340	851.850	649.484
302.906	16.309	851.175	648.792
303.920	16.349	850.693	648.522
304.935	16.543	849.698	648.448
305.949	16.531	849.344	648.073
306.964	16.625	848.690	647.879
307.979	16.429	847.865	646.442
308.993	16.395	847.941	646.312
310.008	16.365	847.235	645.604
311.022	16.545	846.608	645.755
312.037	16.346	846.472	644.833
313.052	16.444	845.689	644.553
314.066	16.260	845.042	643.303
315.081	16.441	844.039	643.172
316.095	16.453	843.337	642.625
317.110	16.406	843.112	642.218
318.125	16.459	842.612	641.981
319.139	16.443	842.258	641.596
320.154	16.305	841.633	640.538
321.168	16.502	841.012	640.756
322.183	16.335	840.705	639.833
323.197	16.471	840.271	639.962
324.212	16.440	839.199	638.970
325.227	16.400	839.007	638.616
326.241	16.537	838.193	638.458
327.256	16.566	837.663	638.109
328.270	16.389	837.433	637.206
329.285	16.439	836.895	636.930
330.300	16.418	836.491	636.489
331.314	16.400	835.639	635.715
332.329	16.516	835.109	635.693
333.343	16.610	834.331	635.394
334.358	16.708	833.596	635.150
335.373	16.772	833.065	634.929
336.387	16.763	832.437	634.357
337.402	16.727	832.552	634.257
338.416	16.796	831.303	633.506
339.431	16.805	830.958	633.222
340.446	16.821	830.825	633.123
341.460	16.821	830.222	632.608
342.475	17.059	829.160	632.629
343.489	16.851	829.116	631.762
344.504	16.909	828.492	631.449
345.519	17.020	827.857	631.324
346.533	16.986	827.467	630.844
347.548	17.106	827.151	630.992
348.562	16.921	826.577	629.809
349.577	17.004	825.599	629.318
350.592	16.869	825.335	628.559
351.606	16.703	824.925	627.576
352.621	16.896	824.463	627.885
353.635	16.938	823.774	627.462
354.650	16.902	823.654	627.179
355.665	16.994	823.082	627.030
356.679	17.038	822.679	626.828
357.694	17.002	822.014	626.134
358.708	17.035	821.960	626.159
359.723	17.020	821.129	625.415
360.738	17.050	820.399	624.913
361.752	16.983	819.974	624.290
362.767	17.070	819.606	624.274
363.781	17.088	819.216	623.986
364.796	17.165	818.963	624.023
365.810	17.253	818.217	623.722
366.825	17.298	818.034	623.693
367.840	17.292	817.787	623.428
368.854	17.251	817.332	622.873
369.869	17.157	816.751	622.032
370.883	17.286	815.970	621.854
371.898	17.159	815.296	620.820
372.913	17.390	814.610	621.088
373.927	17.413	813.960	620.622
374.942	17.340	813.575	620.005
375.956	17.371	813.030	619.647
376.971	17.488	812.551	619.654
377.986	17.524	812.034	619.338
379.000	17.455	811.828	618.876
380.015	17.607	810.851	618.625
381.029	17.528	810.605	618.096
382.044	17.460	809.936	617.285
383.059	17.690	809.070	617.406
384.073	17.498	808.972	616.580
385.088	17.653	808.327	616.596
386.102	17.622	807.427	615.741
387.117	17.598	806.949	615.236
388.132	17.434	806.712	614.408
389.146	17.432	806.519	614.201
390.161	17.487	806.117	614.038
391.175	17.471	805.552	613.497
392.190	17.487	805.364	613.355
393.205	17.621	804.830	613.376
394.219	17.609	804.054	612.690
395.234	17.585	803.797	612.353
396.248	17.406	803.185	611.190
397.263	17.687	802.168	611.369
398.278	17.360	802.291	610.236
399.292	17.447	802.060	610.318
400.307	17.484	801.354	609.857
401.321	17.569	801.058	609.884
402.336	17.739	800.108	609.714
403.350	17.651	799.982	609.249
404.365	17.471	800.154	608.684
405.380	17.532	799.740	608.534
406.394	17.835	798.753	608.810
407.409	17.699	798.840	608.335
408.423	17.770	798.027	607.918
409.438	17.962	797.499	608.143
410.453	17.957	797.169	607.822
411.467	17.821	796.771	606.978
412.482	18.058	796.171	607.310
413.496	17.980	795.714	606.632
414.511	18.073	795.441	606.702
415.526	18.130	794.623	606.224
416.540	18.203	794.806	606.571
417.555	17.932	794.327	605.188
418.569	17.992	793.667	604.847
419.584	18.001	793.343	604.578
420.599	18.071	792.621	604.220
421.613	153.231	1368.891	1790.760
422.628	132.532	1452.865	1790.882
