DTS Sentinel unit serial number:	SN413079Multiplexer serial number:	ORYXHardware model number:	OX4-SRSoftware version number:	ORYX F/W v4.00 Oryx Data Collector v3.7.2.0data status	okinstallation	princeton_trtdifferential loss correction	single-endedforward channel	channel 3reverse channel	N/Adate	2019/09/15time	03:36:35forward acquisition time	60.00reverse acquisition time	0.00gamma	496.2192k internal	0.2323k external	0.2323temperature offset calibration	0.9967default loss term (dB/km)	0.3790temperature slope calibration	1.0000multiplexer offset coefficient	1.0000multiplexer slope coefficient	1.0000fibre end	0.00T internal ref (°C)	31.00T ext. ref 1 (°C)	4.61T ext. ref 2 (°C)	25.82length (m)	temperature (°C)	Stokes	anti-Stokes-747.200	144.465	-0.219	0.295
-746.185	-200.000	0.028	0.320
-745.171	-54.361	0.138	0.063
-744.156	-98.054	-0.071	0.018
-743.142	-91.709	-0.314	0.090
-742.127	745.980	-0.031	-0.084
-741.112	49.840	0.205	0.195
-740.098	-170.931	-0.218	-0.008
-739.083	94.880	0.128	-0.148
-738.069	88.043	-0.084	-0.094
-737.054	-123.483	0.070	-0.011
-736.039	-107.929	0.150	-0.033
-735.025	800.000	-0.036	0.131
-734.010	57.382	-0.093	0.092
-732.996	352.502	0.148	-0.296
-731.981	80.260	0.219	-0.238
-730.966	-59.739	-0.450	0.195
-729.952	135.339	0.049	0.064
-728.937	-91.774	-0.219	0.063
-727.923	124.574	0.056	-0.071
-726.908	-166.238	-0.200	0.009
-725.894	800.000	-0.043	0.141
-724.879	-22.568	-0.391	0.239
-723.864	-200.000	0.024	0.174
-722.850	40.657	0.184	0.168
-721.835	53.262	-0.329	0.318
-720.821	800.000	0.050	-0.153
-719.806	-124.948	0.194	0.030
-718.791	-13.535	-0.168	0.110
-717.777	228.911	0.094	0.155
-716.762	47.036	-0.376	-0.353
-715.748	25.401	0.032	-0.027
-714.733	-136.185	0.456	-0.054
-713.718	61.835	-0.066	-0.066
-712.704	141.115	0.217	-0.289
-711.689	-19.227	-0.036	0.023
-710.675	800.000	-0.057	-0.203
-709.660	-70.155	-0.161	-0.062
-708.645	82.241	0.196	0.214
-707.631	-45.701	-0.126	-0.063
-706.616	-145.764	0.062	0.006
-705.602	104.901	0.110	0.131
-704.587	85.923	-0.142	0.157
-703.572	-101.387	-0.107	-0.026
-702.558	-21.522	-0.202	-0.124
-701.543	-120.624	-0.160	0.027
-700.529	-200.000	0.061	-0.278
-699.514	187.219	0.133	-0.200
-698.499	-79.622	-0.125	0.042
-697.485	0.596	0.086	-0.062
-696.470	-124.771	-0.491	0.076
-695.456	-200.000	0.006	0.181
-694.441	188.211	-0.104	-0.157
-693.426	-90.391	-0.196	-0.057
-692.412	-91.218	0.034	0.010
-691.397	75.543	-0.204	-0.217
-690.383	-122.502	-0.231	-0.038
-689.368	-114.599	-0.106	-0.020
-688.354	800.000	-0.155	0.450
-687.339	800.000	0.040	-0.132
-686.324	800.000	-0.150	-0.462
-685.310	-72.683	-0.144	-0.054
-684.295	-120.110	0.245	0.042
-683.281	48.848	-0.065	0.062
-682.266	36.735	-0.260	0.231
-681.251	-200.000	0.008	-0.076
-680.237	415.842	0.079	-0.170
-679.222	-54.948	0.123	-0.056
-678.208	800.000	-0.082	0.341
-677.193	-126.696	0.119	0.018
-676.178	47.267	-0.097	0.091
-675.164	-136.507	0.123	-0.014
-674.149	2.566	-0.189	0.138
-673.135	69.237	-0.340	0.353
-672.120	57.795	0.084	0.083
-671.105	-86.353	-0.184	-0.057
-670.091	170.725	-0.058	-0.084
-669.076	-8.213	0.234	0.159
-668.062	176.381	0.158	-0.231
-667.047	-200.000	-0.037	-0.350
-666.032	-20.782	-0.166	-0.103
-665.018	800.000	0.102	-0.334
-664.003	180.269	-0.235	0.347
-662.989	1.422	-0.198	0.143
-661.974	312.165	0.103	-0.195
-660.959	-120.107	-0.061	-0.010
-659.945	-200.000	0.064	-0.335
-658.930	800.000	0.050	0.182
-657.916	5.203	-0.084	-0.062
-656.901	85.344	0.239	0.264
-655.886	447.849	0.099	-0.220
-654.872	-55.681	0.452	-0.203
-653.857	194.809	0.025	0.038
-652.843	-52.375	0.056	0.026
-651.828	171.857	-0.045	-0.065
-650.814	76.234	-0.145	0.155
-649.799	-35.197	-0.507	0.278
-648.784	-200.000	0.005	0.158
-647.770	284.089	0.097	0.175
-646.755	64.153	0.229	0.231
-645.741	113.762	0.130	-0.159
-644.726	237.088	-0.054	0.090
-643.711	-200.000	-0.026	0.123
-642.697	46.990	0.255	0.238
-641.682	-60.119	-0.222	-0.095
-640.668	336.836	0.091	0.178
-639.653	49.844	-0.182	0.173
-638.638	-200.000	0.006	-0.079
-637.624	227.048	-0.186	0.304
-636.609	-94.874	0.180	-0.049
-635.595	-200.000	0.001	0.041
-634.580	85.850	-0.025	0.028
-633.565	-26.284	-0.187	0.110
-632.551	-82.029	0.102	0.033
-631.536	216.364	0.112	-0.179
-630.522	-44.234	-0.351	0.177
-629.507	-200.000	0.035	0.197
-628.492	28.424	-0.101	-0.086
-627.478	-200.000	-0.006	-0.393
-626.463	800.000	0.071	-0.269
-625.449	77.478	0.046	-0.050
-624.434	-73.152	-0.196	0.072
-623.419	315.621	-0.195	-0.369
-622.405	-103.295	-0.284	-0.067
-621.390	-200.000	-0.087	0.416
-620.376	-181.531	0.238	0.005
-619.361	38.707	0.170	-0.152
-618.346	92.819	-0.127	-0.144
-617.332	-136.907	-0.186	-0.021
-616.317	-200.000	0.014	0.341
-615.303	26.928	0.092	-0.077
-614.288	-94.597	-0.228	0.062
-613.273	58.827	-0.127	0.125
-612.259	148.915	0.231	0.314
-611.244	383.867	-0.176	0.365
-610.230	-52.736	-0.164	-0.076
-609.215	-77.944	-0.324	-0.112
-608.201	5.163	-0.147	0.109
-607.186	133.718	0.107	0.139
-606.171	-86.285	-0.373	0.115
-605.157	45.563	-0.141	0.131
-604.142	-27.809	-0.300	-0.175
-603.128	-123.505	-0.139	0.022
-602.113	38.678	0.126	0.113
-601.098	310.404	-0.106	-0.199
-600.084	760.526	0.128	0.349
-599.069	-101.400	0.164	0.040
-598.055	-75.642	0.209	0.075
-597.040	424.086	-0.114	0.246
-596.025	434.879	0.119	-0.260
-595.011	-31.706	-0.408	0.230
-593.996	800.000	0.029	0.127
-592.982	800.000	0.111	0.309
-591.967	800.000	0.026	-0.093
-590.952	-100.207	-0.131	-0.033
-589.938	743.201	0.127	0.343
-588.923	128.948	0.166	0.212
-587.909	-136.123	0.179	-0.021
-586.894	186.378	-0.135	0.201
-585.879	175.369	-0.130	0.188
-584.865	213.279	0.037	0.058
-583.850	64.798	0.036	-0.036
-582.836	690.298	-0.117	0.307
-581.821	631.869	-0.012	0.030
-580.806	-115.766	0.169	0.032
-579.792	-152.333	0.136	0.010
-578.777	144.181	-0.042	0.056
-577.763	344.565	-0.036	0.070
-576.748	-200.000	-0.013	0.074
-575.733	665.242	0.051	-0.133
-574.719	147.534	0.129	-0.174
-573.704	800.000	-0.028	0.110
-572.690	-52.656	-0.249	0.115
-571.675	1.889	0.367	-0.266
-570.661	-20.760	-0.129	0.079
-569.646	800.000	0.095	0.313
-568.631	742.488	0.092	0.248
-567.617	59.094	-0.168	-0.166
-566.602	-200.000	0.070	-0.446
-565.588	-1.754	-0.367	0.259
-564.573	335.748	0.047	0.091
-563.558	800.000	0.041	-0.172
-562.544	-5.254	0.075	-0.052
-561.529	-132.526	-0.133	-0.017
-560.515	37.677	-0.129	0.115
-559.500	-56.236	-0.127	-0.056
-558.485	73.839	-0.050	0.053
-557.471	-121.531	0.268	-0.045
-556.456	-119.596	-0.135	0.023
-555.442	-54.473	0.229	-0.104
-554.427	87.079	0.023	-0.026
-553.412	55.512	0.215	-0.208
-552.398	-200.000	-0.002	-0.155
-551.383	-117.745	0.153	-0.028
-550.369	17.100	-0.133	0.106
-549.354	-116.361	-0.357	-0.066
-548.339	450.112	0.056	-0.124
-547.325	-200.000	0.119	0.716
-546.310	-23.606	-0.238	0.143
-545.296	-102.984	0.233	-0.055
-544.281	-35.775	-0.333	-0.181
-543.266	139.905	0.289	-0.381
-542.252	-200.000	0.011	-0.191
-541.237	-0.168	-0.177	0.126
-540.223	-114.932	0.066	-0.013
-539.208	-200.000	0.010	-0.237
-538.193	-200.000	0.022	-0.154
-537.179	281.251	-0.102	0.182
-536.164	9.336	-0.088	-0.067
-535.150	279.006	0.090	-0.161
-534.135	168.614	-0.132	-0.189
-533.121	-98.572	-0.243	-0.062
-532.106	328.274	0.185	-0.355
-531.091	-200.000	0.003	-0.184
-530.077	346.190	0.015	-0.029
-529.062	-111.681	-0.320	0.065
-528.048	-171.696	-0.231	0.008
-527.033	180.538	-0.086	-0.126
-526.018	-135.133	0.271	0.033
-525.004	663.502	0.043	0.112
-523.989	99.830	-0.142	-0.164
-522.975	-52.466	-0.132	0.061
-521.960	-105.890	0.380	0.086
-520.945	-49.684	-0.237	-0.113
-519.931	296.173	-0.253	-0.463
-518.916	-200.000	-0.073	-0.498
-517.902	-200.000	0.017	-0.111
-516.887	-199.292	-0.156	-0.001
-515.872	800.000	-0.044	-0.150
-514.858	56.667	-0.062	-0.061
-513.843	-73.705	-0.136	0.049
-512.829	131.707	0.342	0.441
-511.814	800.000	0.071	-0.215
-510.799	-11.436	-0.270	-0.178
-509.785	131.306	-0.303	-0.390
-508.770	-200.000	0.085	0.396
-507.756	-200.000	0.014	-0.071
-506.741	8.921	-0.316	-0.239
-505.726	-49.122	0.056	0.027
-504.712	244.717	0.219	-0.369
-503.697	254.689	0.091	-0.156
-502.683	-200.000	0.014	-0.118
-501.668	25.703	-0.108	0.090
-500.653	65.985	-0.358	-0.363
-499.639	-200.000	0.068	-0.342
-498.624	146.086	-0.097	0.130
-497.610	133.003	0.066	-0.085
-496.595	-200.000	-0.049	0.218
-495.581	151.768	-0.134	-0.183
-494.566	-64.624	-0.120	-0.049
-493.551	800.000	0.035	0.121
-492.537	62.067	0.053	0.053
-491.522	761.350	0.252	0.684
-490.508	289.528	0.018	-0.032
-489.493	-30.775	0.174	-0.098
-488.478	-148.925	0.115	-0.009
-487.464	-48.809	0.081	0.039
-486.449	-110.943	-0.237	-0.049
-485.435	-200.000	0.037	-0.474
-484.420	-115.794	0.427	-0.080
-483.405	-68.577	0.104	-0.040
-482.391	314.505	-0.134	0.253
-481.376	-200.000	0.052	-0.342
-480.362	53.588	-0.253	0.243
-479.347	-200.000	-0.439	0.001
-478.332	-174.913	-0.289	-0.008
-477.318	198.378	0.133	0.203
-476.303	-200.000	0.030	0.434
-475.289	-50.961	0.164	0.077
-474.274	30.235	-0.077	-0.065
-473.259	741.074	-0.099	-0.267
-472.245	-200.000	0.019	0.131
-471.230	19.269	-0.169	0.136
-470.216	-79.300	0.201	0.068
-469.201	-199.817	0.246	0.001
-468.186	-18.426	0.280	0.175
-467.172	14.833	-0.131	0.103
-466.157	129.128	-0.086	0.109
-465.143	361.104	-0.110	0.221
-464.128	-176.829	0.396	-0.010
-463.113	-165.202	0.167	-0.007
-462.099	-108.579	-0.172	0.037
-461.084	545.231	-0.078	0.185
-460.070	36.046	0.063	0.055
-459.055	174.542	0.046	-0.066
-458.040	-174.325	-0.075	-0.002
-457.026	-200.000	-0.057	-0.312
-456.011	-40.633	-0.224	-0.116
-454.997	-200.000	-0.006	0.328
-453.982	-24.505	0.256	-0.152
-452.968	103.084	0.077	-0.090
-451.953	-200.000	-0.032	0.189
-450.938	-9.078	0.049	0.033
-449.924	596.430	0.104	-0.258
-448.909	63.297	-0.046	0.046
-447.895	76.480	-0.100	0.106
-446.880	37.041	-0.161	-0.142
-445.865	-159.308	-0.303	0.017
-444.851	731.601	0.100	-0.266
-443.836	800.000	-0.079	0.305
-442.822	-200.000	-0.007	0.396
-441.807	-49.115	0.086	-0.041
-440.792	67.658	0.151	-0.154
-439.778	-121.761	-0.192	0.032
-438.763	-112.937	-0.158	0.031
-437.749	60.569	-0.026	0.026
-436.734	-200.000	0.027	0.438
-435.719	800.000	-0.069	0.203
-434.705	213.858	0.071	0.113
-433.690	691.906	-0.033	-0.086
-432.676	-91.732	-0.316	-0.090
-431.661	9.645	-0.328	-0.248
-430.646	-8.461	0.070	0.047
-429.632	-56.012	-0.078	-0.035
-428.617	171.519	0.053	0.076
-427.603	-200.000	0.000	0.145
-426.588	-119.354	-0.217	-0.038
-425.573	-103.508	0.283	-0.066
-424.559	-41.199	0.410	0.211
-423.544	-200.000	0.016	-0.311
-422.530	558.111	-0.035	0.085
-421.515	-200.000	0.013	-0.245
-420.500	-77.791	-0.176	-0.060
-419.486	-16.172	0.105	-0.066
-418.471	-200.000	0.006	-0.093
-417.457	-117.155	0.073	-0.013
-416.442	118.246	0.136	-0.168
-415.428	-138.984	0.069	-0.008
-414.413	-59.373	0.269	0.115
-413.398	-165.344	0.334	-0.015
-412.384	-66.085	-0.026	-0.010
-411.369	-119.772	0.157	-0.027
-410.355	800.000	0.088	0.304
-409.340	404.862	-0.122	-0.256
-408.325	-200.000	0.004	-0.171
-407.311	-75.081	-0.380	-0.135
-406.296	760.799	-0.115	0.310
-405.282	-160.950	-0.307	-0.016
-404.267	138.084	0.036	-0.047
-403.252	446.291	0.071	-0.155
-402.238	800.000	-0.029	0.084
-401.223	66.926	0.243	-0.246
-400.209	-115.193	0.081	0.015
-399.194	-200.000	0.029	-0.350
-398.179	-58.029	0.297	0.129
-397.165	78.100	0.163	0.173
-396.150	-166.811	-0.342	-0.014
-395.136	60.499	0.153	0.151
-394.121	800.000	0.044	0.193
-393.106	-200.000	0.044	-0.337
-392.092	-200.000	-0.068	-0.383
-391.077	40.113	0.195	-0.175
-390.063	800.000	0.048	0.202
-389.048	281.683	0.049	0.088
-388.033	-200.000	0.022	-0.144
-387.019	-78.777	0.391	-0.133
-386.004	362.391	-0.060	-0.121
-384.990	-112.315	-0.343	0.068
-383.975	-156.664	0.059	-0.004
-382.960	416.442	0.030	-0.065
-381.946	-200.000	-0.048	-0.232
-380.931	-27.086	-0.185	-0.107
-379.917	800.000	0.044	0.163
-378.902	-159.451	0.084	0.005
-377.888	-115.282	0.190	-0.036
-376.873	295.692	-0.086	-0.156
-375.858	447.708	0.075	0.164
-374.844	-200.000	0.032	0.156
-373.829	294.727	-0.031	-0.056
-372.815	-14.981	0.127	0.081
-371.800	337.342	-0.171	-0.331
-370.785	206.143	0.033	0.051
-369.771	-147.411	-0.262	-0.022
-368.756	-105.721	-0.317	-0.071
-367.742	24.128	0.162	0.133
-366.727	9.722	-0.129	0.097
-365.712	-65.514	-0.066	-0.027
-364.698	52.910	-0.123	0.117
-363.683	-200.000	0.005	-0.491
-362.669	-200.000	0.049	-0.340
-361.654	227.447	-0.069	-0.112
-360.639	-13.090	0.152	-0.098
-359.625	88.189	0.058	0.064
-358.610	458.828	-0.025	0.056
-357.596	18.742	0.151	0.120
-356.581	-200.000	0.028	0.155
-355.566	-200.000	-0.070	-0.405
-354.552	-7.278	-0.203	0.137
-353.537	-200.000	-0.004	0.059
-352.523	800.000	-0.054	0.150
-351.508	-150.727	0.095	-0.007
-350.493	-82.667	-0.244	0.079
-349.479	-200.000	0.025	0.210
-348.464	-30.294	-0.203	-0.114
-347.450	207.502	0.036	0.056
-346.435	-28.527	-0.232	-0.133
-345.420	327.008	0.105	-0.201
-344.406	262.280	-0.231	-0.399
-343.391	-170.416	0.097	-0.003
-342.377	676.809	0.074	-0.192
-341.362	196.475	0.048	0.073
-340.348	-51.116	0.276	0.129
-339.333	424.415	0.061	0.130
-338.318	-45.751	0.290	-0.143
-337.304	-40.770	-0.169	0.087
-336.289	-87.182	0.143	0.043
-335.275	-77.887	0.390	-0.134
-334.260	800.000	0.044	0.186
-333.245	-145.291	0.309	0.028
-332.231	-30.284	0.155	-0.088
-331.216	108.755	-0.151	-0.179
-330.202	-176.606	-0.271	-0.007
-329.187	143.868	0.075	-0.100
-328.172	25.737	0.089	0.073
-327.158	-30.796	-0.218	-0.122
-326.143	772.528	-0.046	-0.125
-325.129	-171.889	-0.090	-0.003
-324.114	94.927	-0.209	0.237
-323.099	72.257	-0.105	-0.109
-322.085	347.685	-0.263	-0.515
-321.070	-200.000	-0.134	-0.001
-320.056	86.021	-0.132	-0.145
-319.041	336.671	0.136	0.262
-318.026	44.183	0.105	0.096
-317.012	-83.674	-0.025	-0.008
-315.997	-80.463	0.234	-0.078
-314.983	507.294	0.112	-0.259
-313.968	800.000	0.084	-0.314
-312.953	800.000	-0.076	0.254
-311.939	-200.000	0.053	0.278
-310.924	-166.496	-0.323	0.013
-309.910	159.065	0.014	-0.020
-308.895	-200.000	-0.008	0.222
-307.880	-86.662	-0.309	0.094
-306.866	-88.932	0.313	0.092
-305.851	-46.814	0.111	0.054
-304.837	-200.000	0.047	0.211
-303.822	-73.055	0.188	-0.068
-302.807	-200.000	-0.004	0.050
-301.793	-200.000	0.006	-0.115
-300.778	800.000	0.167	-0.543
-299.764	19.153	-0.188	0.150
-298.749	-104.372	0.036	0.008
-297.735	-145.194	0.219	-0.020
-296.720	-16.313	-0.090	0.057
-295.705	67.348	0.241	-0.244
-294.691	-200.000	-0.020	0.119
-293.676	-29.773	-0.103	0.058
-292.662	-200.000	0.036	0.182
-291.647	-53.966	-0.372	-0.168
-290.632	53.759	0.208	-0.198
-289.618	662.888	-0.038	-0.097
-288.603	-200.000	0.035	-0.211
-287.589	6.611	0.129	-0.095
-286.574	-124.498	-0.228	-0.035
-285.559	348.484	-0.181	-0.353
-284.545	152.743	0.078	0.106
-283.530	33.695	-0.060	-0.052
-282.516	-129.392	0.330	0.045
-281.501	229.225	-0.024	-0.039
-280.486	350.080	0.096	-0.188
-279.472	800.000	0.119	0.373
-278.457	541.591	-0.047	0.111
-277.443	51.164	0.235	0.221
-276.428	232.491	0.034	-0.055
-275.413	-10.791	0.172	-0.113
-274.399	-166.217	0.243	-0.010
-273.384	33.269	-0.257	0.221
-272.370	800.000	-0.084	0.265
-271.355	317.507	-0.131	0.246
-270.340	212.127	0.048	0.075
-269.326	-200.000	0.040	0.290
-268.311	204.728	0.094	-0.145
-267.297	-54.686	0.193	-0.087
-266.282	331.584	-0.067	0.128
-265.267	-200.000	-0.034	0.157
-264.253	800.000	0.092	0.316
-263.238	20.620	0.107	-0.086
-262.224	-200.000	-0.069	-0.453
-261.209	124.395	0.118	-0.147
-260.195	5.521	0.154	0.113
-259.180	-138.490	0.348	-0.038
-258.165	85.372	0.199	-0.217
-257.151	-200.000	-0.002	-0.050
-256.136	-132.358	0.300	0.038
-255.122	1.326	0.207	-0.148
-254.107	-92.957	-0.262	0.072
-253.092	-97.415	0.290	-0.075
-252.078	-24.342	0.152	0.090
-251.063	556.148	0.088	-0.210
-250.049	-200.000	-0.024	-0.133
-249.034	122.443	0.160	-0.198
-248.019	-8.021	-0.123	-0.082
-247.005	298.810	0.054	0.098
-245.990	-37.530	-0.185	-0.098
-244.976	-200.000	0.021	0.351
-243.961	76.176	0.113	-0.119
-242.946	-78.716	-0.281	0.095
-241.932	-17.550	-0.341	-0.213
-240.917	800.000	-0.050	0.173
-239.903	1.772	0.278	0.198
-238.888	168.969	-0.125	0.177
-237.873	-60.274	0.338	0.142
-236.859	-200.000	-0.025	-0.189
-235.844	-163.608	0.341	0.016
-234.830	-184.479	0.105	0.002
-233.815	-54.448	-0.089	-0.040
-232.800	800.000	0.025	-0.086
-231.786	646.442	0.077	0.196
-230.771	235.268	-0.263	0.429
-229.757	21.589	0.030	0.024
-228.742	513.258	-0.224	-0.517
-227.727	64.913	-0.084	-0.084
-226.713	-200.000	0.004	0.113
-225.698	-90.124	-0.230	0.066
-224.684	-73.920	-0.101	0.036
-223.669	207.271	0.171	-0.264
-222.655	191.331	0.052	-0.078
-221.640	-200.000	-0.001	0.236
-220.625	35.585	-0.168	-0.146
-219.611	-200.000	0.092	-0.462
-218.596	-11.352	0.153	0.100
-217.582	165.176	0.055	0.077
-216.567	-150.424	0.091	-0.007
-215.552	-41.424	0.245	-0.125
-214.538	-200.000	0.012	-0.111
-213.523	0.669	-0.240	-0.170
-212.509	800.000	0.090	0.263
-211.494	-48.485	0.267	-0.127
-210.479	800.000	-0.094	-0.388
-209.465	-70.830	-0.198	-0.074
-208.450	-200.000	-0.054	0.411
-207.436	194.020	0.062	0.093
-206.421	-200.000	-0.034	-0.297
-205.406	-200.000	0.031	0.169
-204.392	-95.977	0.117	-0.031
-203.377	0.725	0.260	0.184
-202.363	1.498	0.120	0.086
-201.348	-200.000	0.009	0.055
-200.333	-200.000	0.004	-0.083
-199.319	387.640	-0.064	0.132
-198.304	116.188	0.145	-0.176
-197.290	-200.000	-0.044	-0.477
-196.275	33.646	0.211	-0.181
-195.260	136.505	-0.190	-0.245
-194.246	72.002	0.115	0.118
-193.231	12.383	-0.210	0.160
-192.217	60.096	0.064	-0.062
-191.202	246.211	-0.143	0.238
-190.187	-200.000	-0.051	-0.220
-189.173	89.168	0.118	-0.129
-188.158	800.000	0.020	0.058
-187.144	104.018	0.071	0.083
-186.129	-34.203	0.190	0.103
-185.114	221.650	0.187	0.296
-184.100	146.630	-0.257	-0.341
-183.085	-200.000	-0.014	0.169
-182.071	800.000	-0.029	0.110
-181.056	23.265	-0.123	0.099
-180.042	-200.000	0.010	0.154
-179.027	38.869	-0.085	-0.075
-178.012	225.048	0.124	0.198
-176.998	527.016	0.027	-0.062
-175.983	90.349	-0.102	0.112
-174.969	2.574	-0.158	0.113
-173.954	-19.514	-0.131	-0.080
-172.939	-200.000	-0.043	0.301
-171.925	661.266	-0.107	0.272
-170.910	-53.951	0.597	-0.269
-169.896	-17.598	-0.063	0.039
-168.881	-200.000	0.010	-0.147
-167.866	-103.956	-0.291	-0.067
-166.852	36.819	0.323	0.282
-165.837	-200.000	-0.013	0.424
-164.823	494.395	0.090	-0.205
-163.808	-83.094	0.382	0.121
-162.793	3.259	0.090	0.065
-161.779	181.247	-0.157	0.228
-160.764	800.000	-0.062	0.214
-159.750	-104.131	0.404	0.093
-158.735	35.771	-0.117	-0.102
-157.720	643.046	-0.031	-0.079
-156.706	68.575	-0.027	0.027
-155.691	327.315	0.042	-0.079
-154.677	-155.183	-0.223	-0.014
-153.662	214.495	0.109	0.171
-152.647	743.523	-0.084	0.222
-151.633	-10.049	0.170	0.111
-150.618	800.000	-0.053	-0.170
-149.604	-19.476	0.196	-0.120
-148.589	800.000	0.080	-0.277
-147.574	207.823	0.092	0.142
-146.560	-157.506	-0.415	0.025
-145.545	124.152	-0.031	0.038
-144.531	210.925	-0.081	0.126
-143.516	800.000	-0.010	-0.039
-142.502	91.317	-0.122	-0.135
-141.487	28.175	-0.235	-0.195
-140.472	-123.501	-0.156	0.025
-139.458	-200.000	0.067	0.289
-138.443	52.626	-0.271	0.255
-137.429	800.000	-0.120	-0.355
-136.414	-63.687	-0.366	-0.148
-135.399	55.808	0.141	0.135
-134.385	85.961	-0.287	0.311
-133.370	551.763	-0.083	0.196
-132.356	-200.000	-0.026	-0.251
-131.341	62.094	0.096	-0.095
-130.326	56.362	-0.395	-0.378
-129.312	28.369	0.112	-0.093
-128.297	-23.211	0.146	0.087
-127.283	-200.000	-0.023	-0.179
-126.268	800.000	-0.024	-0.097
-125.253	800.000	0.050	0.201
-124.239	24.200	0.204	-0.166
-123.224	-114.094	0.091	0.017
-122.210	-104.988	-0.268	-0.060
-121.195	273.036	0.049	-0.085
-120.180	56.914	0.168	-0.162
-119.166	116.578	0.211	0.255
-118.151	3.512	-0.127	0.091
-117.137	-55.199	-0.405	-0.180
-116.122	-79.168	0.192	-0.064
-115.107	-2.571	0.257	0.177
-114.093	-200.000	0.034	0.186
-113.078	-39.310	-0.315	0.163
-112.064	611.811	0.067	0.164
-111.049	-26.269	0.052	-0.030
-110.034	800.000	0.043	0.161
-109.020	-82.742	-0.128	0.041
-108.005	-29.260	0.305	0.172
-106.991	-149.524	-0.385	-0.030
-105.976	-200.000	0.025	-0.139
-104.962	739.879	0.030	0.079
-103.947	-115.189	0.306	0.057
-102.932	248.128	-0.076	-0.127
-101.918	203.615	-0.126	0.191
-100.903	689.436	0.028	-0.071
-99.889	-200.000	0.055	0.425
-98.874	-75.086	0.107	0.038
-97.859	67.422	0.351	0.353
-96.845	-85.097	-0.142	0.044
-95.830	-9.463	0.193	0.127
-94.816	11.150	-0.212	0.160
-93.801	626.113	-0.107	0.266
-92.786	41.359	-0.121	0.107
-91.772	-200.000	0.028	0.337
-90.757	-44.816	-0.216	0.106
-89.743	-124.386	-0.098	-0.015
-88.728	-96.513	0.093	-0.024
-87.713	581.180	-0.054	-0.130
-86.699	582.484	-0.065	-0.158
-85.684	249.046	-0.134	0.223
-84.670	189.541	-0.149	0.220
-83.655	215.233	-0.135	-0.211
-82.640	20.792	-0.186	0.149
-81.626	-200.000	0.017	0.126
-80.611	-132.120	0.199	-0.025
-79.597	-124.658	-0.161	-0.025
-78.582	-73.419	0.045	0.016
-77.567	800.000	-0.029	-0.086
-76.553	147.460	0.089	-0.118
-75.538	11.115	0.048	-0.036
-74.524	-73.422	0.234	-0.084
-73.509	27.782	0.070	-0.058
-72.494	800.000	0.132	0.361
-71.480	-200.000	0.049	0.309
-70.465	160.441	-0.147	0.202
-69.451	198.849	-0.048	-0.072
-68.436	-200.000	-0.059	-0.264
-67.422	-192.971	0.128	-0.001
-66.407	-200.000	0.392	0.001
-65.392	90.298	0.056	-0.062
-64.378	-24.232	-0.310	0.182
-63.363	252.385	-0.088	-0.147
-62.349	62.699	0.299	0.294
-61.334	15.736	-1.108	-0.857
-60.319	-59.226	0.582	0.247
-59.305	582.943	-0.358	-0.863
-58.290	125.880	0.842	1.046
-57.276	471.531	0.709	1.569
-56.261	-200.000	101.200	599.455
-55.246	578.886	1413.086	3399.340
-54.232	191.593	2597.553	3845.867
-53.217	117.655	2163.520	2617.236
-52.203	41.775	1696.932	1511.686
-51.188	34.186	1506.831	1291.060
-50.173	31.793	1480.246	1252.267
-49.159	51.488	1531.996	1430.468
-48.144	53.203	1549.737	1458.647
-47.130	34.355	1507.879	1292.905
-46.115	31.227	1492.709	1258.798
-45.100	30.990	1489.634	1254.557
-44.086	30.991	1487.779	1252.949
-43.071	31.072	1485.205	1251.279
-42.057	30.986	1484.118	1249.737
-41.042	30.942	1482.654	1248.156
-40.027	30.985	1481.144	1247.129
-39.013	31.047	1479.440	1246.056
-37.998	30.916	1478.667	1244.479
-36.984	31.011	1476.890	1243.568
-35.969	30.978	1475.558	1242.177
-34.954	30.927	1474.765	1241.125
-33.940	30.991	1472.983	1240.000
-32.925	30.917	1472.438	1238.996
-31.911	31.037	1470.389	1238.019
-30.896	31.145	1468.770	1237.324
-29.881	31.064	1467.772	1235.896
-28.867	31.061	1466.460	1234.725
-27.852	31.056	1465.035	1233.446
-26.838	31.047	1463.496	1232.037
-25.823	31.106	1461.659	1230.833
-24.809	31.007	1460.785	1229.398
-23.794	31.053	1459.075	1228.209
-22.779	30.993	1458.556	1227.330
-21.765	31.088	1457.136	1226.713
-20.750	31.066	1455.781	1225.381
-19.736	30.979	1454.930	1224.043
-18.721	31.003	1453.460	1222.912
-17.706	30.944	1453.026	1222.112
-16.692	30.983	1451.453	1221.001
-15.677	31.044	1450.153	1220.254
-14.663	31.110	1449.301	1219.923
-13.648	31.001	1448.328	1218.340
-12.633	30.992	1447.018	1217.132
-11.619	30.935	1446.661	1216.409
-10.604	30.978	1446.033	1216.114
-9.590	30.967	1444.919	1215.055
-8.575	30.900	1444.509	1214.230
-7.560	30.985	1443.076	1213.529
-6.546	30.997	1442.358	1212.957
-5.531	30.918	1441.761	1211.890
-4.517	30.988	1440.225	1211.006
-3.502	30.964	1439.483	1210.176
-2.487	30.970	1438.255	1209.139
-1.473	30.878	1437.996	1208.275
-0.458	30.951	1436.292	1207.268
0.556	29.598	1427.140	1196.604
1.571	26.726	1402.038	1157.150
2.586	23.321	1344.023	1088.286
3.600	21.702	1262.750	1013.035
4.615	20.441	1217.373	969.510
5.629	17.852	1162.084	911.586
6.644	10.850	1080.171	812.375
7.659	5.344	1042.538	757.382
8.673	4.736	1036.679	750.129
9.688	4.647	1034.112	747.774
10.702	4.568	1032.651	746.277
11.717	4.469	1030.957	744.509
12.731	6.480	1032.524	755.219
13.746	13.155	1041.501	793.893
14.761	18.104	1047.152	821.989
15.775	18.171	1046.964	822.089
16.790	17.333	1044.911	816.382
17.804	16.260	1042.705	809.441
18.819	15.317	1041.072	803.589
19.834	14.821	1039.485	799.919
20.848	14.717	1037.903	798.132
21.863	14.528	1037.319	796.711
22.877	14.090	1036.985	794.290
23.892	13.960	1035.912	792.779
24.907	13.966	1035.251	792.232
25.921	14.039	1034.212	791.712
26.936	13.912	1033.884	790.787
27.950	14.040	1033.040	790.683
28.965	13.953	1031.798	789.247
29.980	14.155	1030.327	789.009
30.994	14.210	1029.447	788.528
32.009	14.196	1028.027	787.305
33.023	14.326	1027.644	787.555
34.038	14.335	1026.852	786.922
35.053	14.214	1026.148	785.740
36.067	14.188	1024.972	784.650
37.082	13.996	1024.591	783.385
38.096	14.150	1023.258	783.018
39.111	14.097	1022.912	782.435
40.126	14.187	1021.704	781.864
41.140	14.106	1020.633	780.595
42.155	13.946	1019.847	779.174
43.169	13.951	1018.189	777.863
44.184	14.001	1017.346	777.387
45.199	13.909	1016.225	776.029
46.213	13.910	1015.473	775.392
47.228	13.884	1014.842	774.721
48.242	13.996	1013.760	774.348
49.257	14.144	1012.692	774.149
50.271	14.015	1011.960	772.922
51.286	13.982	1011.298	772.194
52.301	14.082	1010.208	771.758
53.315	14.108	1009.259	771.087
54.330	14.104	1008.822	770.669
55.344	13.991	1007.840	769.324
56.359	13.978	1006.427	768.118
57.374	13.917	1005.965	767.417
58.388	13.804	1005.305	766.323
59.403	13.854	1004.231	765.665
60.417	13.807	1003.871	765.108
61.432	13.800	1002.781	764.177
62.447	13.754	1002.152	763.416
63.461	13.733	1001.347	762.639
64.476	13.760	1000.221	761.841
65.490	13.782	999.396	761.248
66.505	13.793	998.388	760.459
67.520	13.747	997.708	759.667
68.534	13.936	996.754	759.734
69.549	13.771	996.489	758.711
70.563	13.791	995.350	757.868
71.578	13.837	994.793	757.588
72.593	13.681	993.964	756.179
73.607	13.661	992.606	754.989
74.622	13.730	991.767	754.598
75.636	13.634	991.290	753.731
76.651	13.640	990.543	753.124
77.666	13.647	989.975	752.656
78.680	13.858	988.709	752.585
79.695	13.624	989.200	751.828
80.709	13.736	988.414	751.673
81.724	13.715	987.553	750.856
82.739	13.791	986.651	750.449
83.753	13.856	986.200	750.331
84.768	14.058	985.295	750.488
85.782	14.086	984.549	749.983
86.797	14.192	983.842	749.856
87.812	14.133	983.508	749.269
88.826	14.067	982.045	747.791
89.841	14.000	981.524	747.026
90.855	14.081	980.582	746.606
91.870	14.042	980.007	745.925
92.884	14.120	979.499	745.826
93.899	14.190	978.433	745.260
94.914	14.410	976.977	745.070
95.928	14.236	976.942	744.200
96.943	14.381	975.687	743.824
97.957	14.154	975.698	742.752
98.972	14.133	974.758	741.878
99.987	14.174	973.511	741.045
101.001	14.034	973.308	740.202
102.016	14.103	972.507	739.836
103.030	14.168	970.969	738.890
104.045	14.198	970.814	738.839
105.060	14.212	969.299	737.683
106.074	14.080	969.009	736.810
107.089	13.997	967.893	735.530
108.103	13.914	966.858	734.311
109.118	13.999	965.843	733.848
110.133	13.779	965.402	732.479
111.147	13.855	964.673	732.197
112.162	13.977	963.164	731.526
113.176	13.868	962.914	730.789
114.191	13.997	961.962	730.568
115.206	13.889	961.032	729.322
116.220	14.055	959.908	729.137
117.235	14.004	959.500	728.536
118.249	13.857	959.040	727.480
119.264	13.918	958.039	726.922
120.279	13.843	957.089	725.808
121.293	13.800	956.066	724.782
122.308	13.810	955.541	724.362
123.322	13.825	954.216	723.359
124.337	13.774	953.857	722.802
125.352	13.823	952.459	721.892
126.366	13.733	951.559	720.753
127.381	13.719	950.664	719.953
128.395	13.756	949.640	719.272
129.410	13.771	948.634	718.511
130.424	13.805	947.663	717.859
131.439	13.937	947.051	717.905
132.454	13.955	946.315	717.362
133.468	13.881	945.597	716.433
134.483	14.008	944.755	716.279
135.497	14.007	944.144	715.750
136.512	14.017	943.304	715.092
137.527	14.016	942.596	714.486
138.541	13.943	941.825	713.527
139.556	13.957	941.093	712.966
140.570	14.032	940.343	712.661
141.585	14.112	939.200	712.075
142.600	14.171	938.814	711.970
143.614	14.194	938.282	711.599
144.629	14.169	937.648	710.952
145.643	14.259	937.137	710.886
146.658	14.405	935.820	710.444
147.673	14.185	934.794	708.666
148.687	14.156	933.860	707.771
149.702	14.052	933.409	706.924
150.716	14.119	932.342	706.338
151.731	13.976	931.291	704.876
152.746	13.981	930.890	704.531
153.760	14.050	930.129	704.185
154.775	14.086	929.133	703.519
155.789	14.071	928.861	703.189
156.804	14.252	927.670	702.990
157.819	14.183	927.479	702.489
158.833	14.206	926.443	701.740
159.848	14.378	925.558	701.733
160.862	14.258	925.189	700.886
161.877	14.313	924.579	700.591
162.892	14.142	923.612	699.078
163.906	14.233	922.542	698.588
164.921	14.097	922.134	697.650
165.935	14.116	921.122	696.899
166.950	14.146	919.841	695.995
167.964	14.177	919.094	695.497
168.979	14.095	918.493	694.638
169.994	14.189	917.420	694.158
171.008	14.211	916.418	693.430
172.023	14.085	916.124	692.620
173.037	14.342	914.926	692.724
174.052	14.431	914.409	692.642
175.067	14.323	913.972	691.800
176.081	14.303	912.972	690.899
177.096	14.182	911.869	689.504
178.110	14.271	910.921	689.093
179.125	14.213	910.481	688.457
180.140	14.358	909.513	688.263
181.154	14.337	908.885	687.641
182.169	14.281	908.737	687.239
183.183	14.322	908.075	686.845
184.198	14.418	907.301	686.597
185.213	14.532	906.671	686.529
186.227	14.514	905.986	685.875
187.242	14.566	905.543	685.692
188.256	14.584	904.930	685.241
189.271	14.609	904.051	684.618
190.286	14.557	903.758	684.119
191.300	14.346	902.598	682.319
192.315	14.248	901.969	681.381
193.329	14.154	901.282	680.418
194.344	14.212	900.192	679.771
195.359	14.240	899.929	679.625
196.373	14.424	899.367	679.892
197.388	14.443	898.863	679.530
198.402	14.578	898.491	679.736
199.417	14.719	898.217	680.047
200.432	14.823	897.506	679.869
201.446	14.747	896.905	679.046
202.461	14.952	896.681	679.648
203.475	14.943	896.271	679.240
204.490	14.866	896.100	678.739
205.504	14.697	894.824	677.025
206.519	14.686	893.762	676.118
207.534	14.609	893.391	675.466
208.548	14.698	892.796	675.318
209.563	14.688	891.827	674.485
210.577	14.719	891.058	673.968
211.592	14.625	890.706	673.263
212.607	14.976	889.688	673.849
213.621	14.837	889.767	673.287
214.636	14.972	888.552	672.853
215.650	14.713	888.485	671.701
216.665	14.793	887.687	671.360
217.680	14.919	887.334	671.537
218.694	15.007	886.884	671.491
219.709	14.928	886.305	670.678
220.723	14.901	885.952	670.242
221.738	15.022	884.918	669.884
222.753	14.921	884.373	669.009
223.767	15.017	883.214	668.457
224.782	14.966	883.073	668.087
225.796	15.015	881.893	667.330
226.811	15.098	881.006	666.929
227.826	14.954	881.017	666.305
228.840	15.115	879.433	665.690
229.855	14.974	878.979	664.728
230.869	15.098	878.559	664.845
231.884	15.087	877.710	664.097
232.899	14.981	877.374	663.366
233.913	14.889	876.504	662.284
234.928	14.882	875.972	661.797
235.942	15.005	874.926	661.431
236.957	14.877	874.413	660.481
237.972	15.043	873.877	660.672
238.986	14.979	873.198	659.848
240.001	15.063	872.752	659.786
241.015	15.044	871.784	658.921
242.030	14.900	871.587	658.144
243.045	14.949	871.014	657.847
244.059	15.011	870.686	657.785
245.074	15.100	869.635	657.282
246.088	15.125	869.094	656.914
247.103	15.172	868.437	656.541
248.117	15.216	867.974	656.307
249.132	15.290	867.391	656.098
250.147	15.344	866.984	655.942
251.161	15.453	866.154	655.684
252.176	15.607	865.611	655.815
253.190	15.465	865.186	654.879
254.205	15.580	864.618	654.840
255.220	15.650	863.826	654.456
256.234	15.718	863.218	654.202
257.249	15.576	862.562	653.095
258.263	15.630	862.204	652.976
259.278	15.533	861.748	652.195
260.293	15.538	861.152	651.708
261.307	15.788	860.284	651.960
262.322	15.754	860.271	651.762
263.336	15.865	859.185	651.309
264.351	15.810	858.726	650.692
265.366	15.831	858.230	650.339
266.380	15.750	857.779	649.628
267.395	15.663	857.294	648.870
268.409	15.675	856.578	648.314
269.424	15.737	855.328	647.550
270.439	15.634	855.143	646.956
271.453	15.727	854.288	646.610
272.468	15.862	853.152	646.210
273.482	15.626	852.973	645.112
274.497	15.534	852.362	644.240
275.512	15.725	851.563	644.311
276.526	15.699	851.377	644.015
277.541	15.727	849.839	642.902
278.555	15.676	849.977	642.753
279.570	15.811	849.158	642.594
280.585	15.953	849.062	643.006
281.599	16.018	848.208	642.548
282.614	15.911	847.489	641.541
283.628	15.923	846.675	640.912
284.643	16.031	846.156	640.873
285.657	15.850	845.855	639.902
286.672	15.846	845.651	639.675
287.687	16.013	845.004	639.763
288.701	16.053	844.308	639.330
289.716	15.920	843.873	638.443
290.730	15.993	842.874	637.906
291.745	16.067	842.790	638.067
292.760	16.105	841.760	637.374
293.774	16.062	841.222	636.749
294.789	16.181	840.750	636.783
295.803	16.312	839.938	636.606
296.818	16.165	839.295	635.507
297.833	15.951	839.307	634.653
298.847	15.972	838.094	633.759
299.862	16.141	837.244	633.696
300.876	16.227	836.875	633.682
301.891	16.164	836.508	633.114
302.906	16.072	836.044	632.362
303.920	16.273	835.246	632.455
304.935	16.357	834.455	632.116
305.949	16.413	834.075	631.978
306.964	16.265	833.602	631.013
307.979	16.453	832.553	630.865
308.993	16.509	832.340	630.856
310.008	16.372	831.848	629.914
311.022	16.378	831.346	629.503
312.037	16.477	830.680	629.313
313.052	16.241	830.054	627.904
314.066	16.259	829.286	627.334
315.081	16.372	828.755	627.296
316.095	16.297	828.343	626.651
317.110	16.285	827.520	625.929
318.125	16.253	827.303	625.588
319.139	16.373	826.613	625.457
320.154	16.266	826.397	624.842
321.168	16.216	825.982	624.288
322.183	16.380	825.142	624.205
323.197	16.441	824.653	624.004
324.212	16.359	824.670	623.659
325.227	16.493	823.469	623.189
326.241	16.306	823.483	622.456
327.256	16.498	822.544	622.397
328.270	16.386	822.066	621.568
329.285	16.450	821.624	621.415
330.300	16.412	820.988	620.738
331.314	16.419	820.301	620.190
332.329	16.413	819.639	619.614
333.343	16.565	819.086	619.697
334.358	16.539	818.912	619.415
335.373	16.642	818.044	619.081
336.387	16.499	817.530	618.116
337.402	16.673	817.180	618.430
338.416	16.621	816.838	617.929
339.431	16.705	815.958	617.512
340.446	16.766	815.610	617.419
341.460	16.778	815.328	617.193
342.475	16.871	814.431	616.799
343.489	16.857	814.073	616.420
344.504	16.862	813.591	616.021
345.519	17.134	813.027	616.528
346.533	16.979	812.844	615.771
347.548	17.012	811.821	615.060
348.562	16.806	811.390	613.932
349.577	16.902	810.704	613.709
350.592	16.867	810.168	613.120
351.606	16.739	810.121	612.569
352.621	16.826	809.322	612.224
353.635	16.801	808.937	611.789
354.650	16.826	808.503	611.496
355.665	16.818	808.284	611.246
356.679	16.883	807.562	610.881
357.694	16.891	807.273	610.639
358.708	16.897	806.716	610.185
359.723	16.935	806.219	609.889
360.738	16.926	805.737	609.442
361.752	17.023	805.021	609.191
362.767	16.854	804.751	608.327
363.781	16.995	804.520	608.604
364.796	17.088	804.028	608.512
365.810	17.231	803.554	608.614
366.825	17.299	803.020	608.396
367.840	17.234	802.927	608.041
368.854	17.291	802.386	607.779
369.869	17.218	802.039	607.202
370.883	17.009	801.709	606.153
371.898	17.194	800.761	606.043
372.913	17.348	799.923	605.904
373.927	17.251	799.871	605.465
374.942	17.388	799.007	605.245
375.956	17.281	798.247	604.235
376.971	17.356	797.741	604.065
377.986	17.460	797.047	603.854
379.000	17.551	796.545	603.743
380.015	17.526	796.735	603.748
381.029	17.537	795.619	602.887
382.044	17.489	795.008	602.200
383.059	17.400	794.944	601.784
384.073	17.636	794.392	602.147
385.088	17.555	793.855	601.398
386.102	17.398	793.158	600.265
387.117	17.449	792.425	599.835
388.132	17.402	792.235	599.475
389.146	17.388	791.773	599.024
390.161	17.246	791.627	598.359
391.175	17.672	791.103	599.409
392.190	17.510	790.803	598.560
393.205	17.455	790.235	597.884
394.219	17.571	789.811	597.914
395.234	17.508	789.232	597.204
396.248	17.430	788.628	596.421
397.263	17.442	787.855	595.826
398.278	17.317	787.456	595.032
399.292	17.308	787.316	594.844
400.307	17.270	787.216	594.581
401.321	17.439	786.388	594.495
402.336	17.507	786.374	594.670
403.350	17.546	785.927	594.413
404.365	17.409	785.151	593.298
405.380	17.743	784.225	593.708
406.394	17.747	784.305	593.731
407.409	17.815	784.240	593.865
408.423	17.806	783.780	593.434
409.438	17.763	783.376	592.923
410.453	17.869	782.682	592.717
411.467	17.913	782.181	592.435
412.482	18.039	781.785	592.522
413.496	17.868	781.655	591.776
414.511	18.002	781.011	591.702
415.526	18.120	780.713	591.832
416.540	17.906	780.157	590.617
417.555	17.959	779.622	590.342
418.569	17.997	779.399	590.253
419.584	18.027	779.017	590.014
420.599	17.903	778.618	589.233
421.613	156.973	1369.612	1798.555
422.628	135.427	1455.739	1798.659
