DTS Sentinel unit serial number:	SN413079Multiplexer serial number:	ORYXHardware model number:	OX4-SRSoftware version number:	ORYX F/W v4.00 Oryx Data Collector v3.7.2.0data status	okinstallation	princeton_trtdifferential loss correction	single-endedforward channel	channel 3reverse channel	N/Adate	2019/09/19time	03:04:34forward acquisition time	60.00reverse acquisition time	0.00gamma	496.2192k internal	0.2348k external	0.2348temperature offset calibration	0.9993default loss term (dB/km)	0.3790temperature slope calibration	1.0000multiplexer offset coefficient	1.0000multiplexer slope coefficient	1.0000fibre end	0.00T internal ref (°C)	20.81T ext. ref 1 (°C)	0.65T ext. ref 2 (°C)	14.45length (m)	temperature (°C)	Stokes	anti-Stokes-747.200	182.242	0.191	0.282
-746.185	-158.147	-0.240	-0.014
-745.171	-142.771	0.263	0.026
-744.156	-40.040	-0.126	0.065
-743.142	-85.882	0.159	0.049
-742.127	119.025	0.170	0.210
-741.112	-33.434	-0.096	0.053
-740.098	800.000	-0.097	0.390
-739.083	297.977	-0.149	0.273
-738.069	-63.797	-0.109	-0.045
-737.054	-133.177	-0.403	-0.051
-736.039	800.000	0.058	0.184
-735.025	144.301	-0.153	-0.204
-734.010	-66.035	-0.270	0.108
-732.996	-200.000	-0.055	0.250
-731.981	501.590	0.189	0.435
-730.966	-32.237	-0.039	-0.022
-729.952	-104.485	0.168	-0.039
-728.937	53.657	0.223	-0.214
-727.923	27.596	-0.257	0.216
-726.908	-200.000	-0.008	0.075
-725.894	601.002	-0.097	-0.241
-724.879	-64.074	-0.178	0.073
-723.864	-10.901	-0.106	-0.070
-722.850	277.162	-0.135	0.240
-721.835	193.165	-0.114	0.172
-720.821	-200.000	0.007	0.040
-719.806	-166.446	-0.074	-0.003
-718.791	130.294	0.119	-0.152
-717.777	-13.958	-0.232	-0.149
-716.762	447.374	-0.065	0.144
-715.748	-50.747	0.136	-0.064
-714.733	-86.298	-0.225	0.069
-713.718	36.498	0.023	-0.020
-712.704	33.638	0.075	-0.065
-711.689	698.999	0.064	-0.168
-710.675	-200.000	0.017	-0.168
-709.660	95.946	0.103	0.118
-708.645	-200.000	-0.014	0.221
-707.631	155.555	-0.138	0.190
-706.616	44.071	-0.113	0.103
-705.602	50.201	-0.256	0.241
-704.587	103.471	-0.106	-0.124
-703.572	-100.382	0.072	0.018
-702.558	-160.258	0.147	0.008
-701.543	-74.424	-0.251	0.090
-700.529	625.617	0.039	0.098
-699.514	1.381	-0.290	0.208
-698.499	-200.000	-0.007	-0.119
-697.485	-59.090	0.231	-0.099
-696.470	-200.000	-0.000	-0.180
-695.456	800.000	-0.053	0.191
-694.441	-127.109	-0.392	0.057
-693.426	-79.500	-0.131	0.044
-692.412	-111.314	-0.174	0.035
-691.397	41.500	-0.194	-0.176
-690.383	-92.347	-0.306	0.086
-689.368	-200.000	0.004	0.229
-688.354	800.000	0.105	0.301
-687.339	-96.381	-0.313	-0.082
-686.324	-46.945	0.339	-0.165
-685.310	197.502	0.116	0.177
-684.295	-200.000	-0.009	-0.095
-683.281	416.342	-0.118	-0.251
-682.266	332.690	0.175	-0.337
-681.251	-93.659	-0.442	-0.122
-680.237	-200.000	-0.255	-0.001
-679.222	213.450	0.112	-0.176
-678.208	109.860	-0.049	0.059
-677.193	50.634	-0.195	-0.184
-676.178	-177.642	-0.291	-0.007
-675.164	11.914	-0.063	-0.048
-674.149	-62.949	0.141	0.058
-673.135	91.176	0.053	-0.059
-672.120	91.092	-0.038	-0.042
-671.105	-200.000	-0.020	0.187
-670.091	6.141	-0.145	-0.107
-669.076	236.482	0.034	0.056
-668.062	99.093	-0.118	0.136
-667.047	629.486	0.079	-0.199
-666.032	196.066	-0.170	0.258
-665.018	-39.854	0.042	-0.022
-664.003	-49.065	-0.163	0.078
-662.989	-200.000	0.028	-0.189
-661.974	19.080	0.383	0.306
-660.959	194.385	0.077	-0.117
-659.945	302.467	0.053	-0.097
-658.930	-199.709	0.061	0.000
-657.916	800.000	-0.048	-0.161
-656.901	-64.089	0.309	0.125
-655.886	-55.815	0.145	0.064
-654.872	149.380	-0.093	0.125
-653.857	6.388	-0.126	0.093
-652.843	-10.628	0.205	0.135
-651.828	-200.000	0.023	0.136
-650.814	-200.000	0.006	-0.162
-649.799	124.346	0.203	-0.254
-648.784	57.205	0.205	-0.199
-647.770	-80.673	0.165	-0.055
-646.755	-156.001	0.162	0.010
-645.741	48.074	0.077	-0.072
-644.726	214.399	-0.090	-0.141
-643.711	-103.020	-0.242	-0.057
-642.697	34.569	0.234	-0.203
-641.682	458.290	-0.164	-0.363
-640.668	800.000	0.104	-0.335
-639.653	496.208	0.102	0.232
-638.638	-70.882	-0.227	-0.085
-637.624	-119.196	-0.444	0.077
-636.609	800.000	-0.018	-0.057
-635.595	417.504	0.030	0.063
-634.580	47.667	-0.070	-0.065
-633.565	800.000	-0.027	-0.102
-632.551	-46.735	0.244	0.119
-631.536	-200.000	0.015	0.291
-630.522	52.067	0.019	-0.018
-629.507	-122.181	-0.567	-0.092
-628.492	295.896	-0.113	0.206
-627.478	333.126	-0.048	0.093
-626.463	-200.000	0.018	-0.419
-625.449	-95.161	-0.152	0.041
-624.434	-99.478	0.107	0.027
-623.419	-200.000	-0.031	-0.472
-622.405	-122.840	0.181	0.029
-621.390	-200.000	0.084	-0.000
-620.376	-93.088	-0.093	0.026
-619.361	-84.790	0.146	0.046
-618.346	-152.039	-0.189	0.014
-617.332	247.174	0.171	0.287
-616.317	-19.517	0.099	-0.061
-615.303	84.146	-0.091	0.099
-614.288	-119.010	0.345	0.060
-613.273	299.894	-0.055	-0.101
-612.259	-118.334	0.270	-0.048
-611.244	548.050	0.055	-0.132
-610.230	-26.534	0.187	-0.109
-609.215	-200.000	-0.029	-0.257
-608.201	71.332	-0.168	0.173
-607.186	-77.012	0.424	0.147
-606.171	77.707	-0.208	-0.220
-605.157	-200.000	-0.017	0.301
-604.142	800.000	-0.072	0.242
-603.128	-3.292	-0.147	-0.102
-602.113	-200.000	0.048	0.247
-601.098	-43.720	0.234	-0.117
-600.084	81.985	-0.022	0.024
-599.069	210.795	0.101	-0.158
-598.055	800.000	-0.058	-0.210
-597.040	226.049	-0.251	-0.405
-596.025	44.131	0.088	-0.080
-595.011	302.297	-0.068	0.125
-593.996	13.949	0.154	-0.119
-592.982	264.875	-0.087	0.151
-591.967	280.324	0.081	0.143
-590.952	41.038	-0.042	-0.037
-589.938	-95.498	-0.202	0.054
-588.923	114.909	0.040	0.048
-587.909	-200.000	0.039	-0.266
-586.894	-200.000	-0.010	0.136
-585.879	800.000	0.007	-0.022
-584.865	800.000	0.020	0.082
-583.850	-161.671	0.099	-0.005
-582.836	89.811	0.208	0.231
-581.821	333.300	0.096	-0.184
-580.806	-61.860	0.067	0.028
-579.792	-57.954	0.105	0.046
-578.777	613.945	0.007	0.018
-577.763	-77.248	0.070	-0.024
-576.748	-133.608	0.175	0.022
-575.733	59.150	0.256	-0.251
-574.719	285.341	0.178	-0.319
-573.704	-131.187	-0.307	0.040
-572.690	-63.162	0.205	-0.084
-571.675	295.047	-0.247	-0.448
-570.661	702.558	0.044	-0.115
-569.646	-138.916	0.098	-0.011
-568.631	-30.436	0.100	-0.057
-567.617	-134.530	0.395	0.048
-566.602	58.851	0.183	-0.178
-565.588	800.000	-0.066	0.204
-564.573	800.000	-0.078	0.314
-563.558	-102.844	0.183	0.043
-562.544	72.572	-0.183	-0.190
-561.529	-150.141	-0.112	0.009
-560.515	-200.000	0.021	-0.176
-559.500	397.570	0.016	-0.033
-558.485	166.371	-0.042	-0.060
-557.471	800.000	-0.056	0.227
-556.456	233.015	0.143	0.233
-555.442	-200.000	-0.009	-0.171
-554.427	-79.994	-0.247	0.082
-553.412	800.000	0.031	0.098
-552.398	42.646	-0.061	0.055
-551.383	10.671	-0.212	0.160
-550.369	-101.805	-0.284	0.068
-549.354	-200.000	-0.040	0.295
-548.339	-105.291	-0.185	-0.042
-547.325	800.000	-0.068	-0.223
-546.310	209.343	0.188	0.293
-545.296	-11.151	-0.147	-0.096
-544.281	800.000	0.040	0.121
-543.266	-81.110	0.097	-0.032
-542.252	800.000	0.131	-0.431
-541.237	90.511	-0.084	-0.093
-540.223	-135.988	0.251	-0.029
-539.208	-37.392	-0.273	-0.145
-538.193	-200.000	0.080	0.492
-537.179	-76.695	-0.239	-0.083
-536.164	800.000	0.024	-0.099
-535.150	800.000	0.060	0.167
-534.135	-181.100	-0.154	0.003
-533.121	-200.000	0.039	-0.368
-532.106	-58.422	-0.108	0.047
-531.091	-3.479	0.134	0.093
-530.077	-110.392	-0.197	-0.041
-529.062	-4.183	-0.108	-0.074
-528.048	-7.970	0.154	0.103
-527.033	800.000	0.024	-0.068
-526.018	-97.466	0.046	0.012
-525.004	47.498	-0.065	0.060
-523.989	109.043	-0.118	0.140
-522.975	50.396	-0.438	0.410
-521.960	491.753	0.094	-0.213
-520.945	-200.000	-0.018	-0.146
-519.931	-97.808	-0.318	-0.081
-518.916	-76.256	0.161	-0.056
-517.902	-4.747	0.358	0.245
-516.887	83.244	0.048	0.052
-515.872	-123.910	0.166	-0.026
-514.858	-125.359	0.236	-0.036
-513.843	-200.000	0.027	-0.350
-512.829	344.582	-0.063	0.122
-511.814	69.986	0.094	0.096
-510.799	800.000	-0.075	0.226
-509.785	16.835	-0.066	-0.052
-508.770	-200.000	-0.037	0.276
-507.756	-77.318	0.172	0.059
-506.741	-12.019	-0.313	0.203
-505.726	786.598	-0.135	0.367
-504.712	56.770	0.096	0.093
-503.697	-183.497	-0.134	0.002
-502.683	-135.469	-0.577	0.068
-501.668	221.845	0.074	-0.118
-500.653	-200.000	0.040	0.290
-499.639	53.936	0.089	0.084
-498.624	-200.000	-0.007	-0.102
-497.610	121.056	-0.080	-0.099
-496.595	-53.983	0.206	0.093
-495.581	-50.176	-0.219	0.103
-494.566	800.000	-0.079	0.276
-493.551	127.385	0.082	-0.103
-492.537	-200.000	-0.010	0.045
-491.522	133.467	-0.126	-0.161
-490.508	-200.000	-0.020	0.201
-489.493	800.000	-0.057	-0.238
-488.478	98.813	-0.193	0.220
-487.464	252.215	0.047	-0.079
-486.449	101.068	-0.089	-0.102
-485.435	26.723	0.292	0.242
-484.420	79.893	0.126	-0.134
-483.405	0.285	0.248	0.175
-482.391	417.725	0.104	0.219
-481.376	-101.071	-0.221	-0.054
-480.362	-101.841	0.184	0.044
-479.347	-102.892	-0.127	-0.030
-478.332	-200.000	0.029	0.339
-477.318	6.927	-0.275	0.203
-476.303	800.000	0.036	-0.128
-475.289	-12.159	0.233	0.151
-474.274	490.553	-0.028	0.064
-473.259	-200.000	-0.036	-0.260
-472.245	-188.294	0.155	0.002
-471.230	202.312	-0.133	-0.203
-470.216	-47.945	0.204	-0.098
-469.201	-140.986	-0.040	0.004
-468.186	800.000	0.170	0.556
-467.172	79.365	0.074	0.078
-466.157	800.000	-0.083	-0.322
-465.143	30.499	0.155	-0.131
-464.128	170.519	-0.166	0.235
-463.113	-189.364	-0.172	-0.002
-462.099	-200.000	0.030	0.201
-461.084	-196.262	-0.229	0.002
-460.070	-49.155	0.091	-0.043
-459.055	402.152	0.113	0.234
-458.040	-100.250	-0.089	-0.022
-457.026	-200.000	0.003	0.287
-456.011	800.000	-0.071	0.258
-454.997	800.000	0.142	-0.389
-453.982	27.144	-0.127	0.106
-452.968	123.676	-0.074	0.092
-451.953	116.642	-0.270	-0.328
-450.938	-77.303	-0.073	-0.025
-449.924	-143.200	0.512	0.049
-448.909	-200.000	0.002	-0.057
-447.895	338.679	-0.084	-0.161
-446.880	-145.461	-0.231	0.021
-445.865	96.191	0.123	-0.139
-444.851	-66.997	0.247	0.096
-443.836	214.657	-0.135	-0.212
-442.822	-200.000	-0.006	-0.207
-441.807	-200.000	-0.073	-0.372
-440.792	800.000	0.042	0.131
-439.778	657.180	-0.119	-0.301
-438.763	577.583	0.105	0.254
-437.749	34.499	0.081	-0.070
-436.734	183.449	-0.322	0.470
-435.719	2.396	0.122	0.087
-434.705	-200.000	-0.025	-0.344
-433.690	674.161	-0.074	-0.191
-432.676	-200.000	-0.001	0.037
-431.661	800.000	0.101	-0.299
-430.646	-14.864	-0.245	0.155
-429.632	-97.554	-0.095	-0.024
-428.617	-7.299	0.247	-0.165
-427.603	-200.000	-0.063	0.276
-426.588	-200.000	0.030	-0.265
-425.573	800.000	0.038	0.147
-424.559	-84.463	-0.331	0.103
-423.544	170.713	0.110	0.156
-422.530	-142.266	-0.197	0.019
-421.515	800.000	0.040	0.116
-420.500	298.970	-0.057	-0.104
-419.486	-200.000	0.112	0.000
-418.471	-32.350	0.179	0.099
-417.457	500.424	0.100	-0.227
-416.442	-72.008	-0.355	-0.130
-415.428	800.000	0.094	-0.334
-414.413	89.853	0.291	-0.321
-413.398	-200.000	-0.011	0.079
-412.384	218.544	-0.172	0.271
-411.369	483.412	0.259	-0.580
-410.355	800.000	0.049	-0.172
-409.340	364.395	0.151	0.299
-408.325	800.000	0.095	0.297
-407.311	2.406	-0.204	0.145
-406.296	29.179	0.240	0.201
-405.282	30.539	-0.177	-0.149
-404.267	-90.476	0.335	-0.096
-403.252	-77.262	0.220	-0.075
-402.238	11.619	0.277	-0.210
-401.223	-75.566	-0.255	-0.090
-400.209	-200.000	-0.013	-0.155
-399.194	-200.000	0.003	-0.103
-398.179	121.653	-0.069	0.084
-397.165	-80.845	0.279	-0.091
-396.150	347.241	0.030	0.058
-395.136	800.000	-0.024	-0.101
-394.121	-173.508	0.187	0.006
-393.106	87.200	-0.090	0.098
-392.092	-105.537	0.249	-0.056
-391.077	-200.000	0.017	-0.398
-390.063	20.152	0.225	0.179
-389.048	526.602	0.078	0.181
-388.033	-191.961	-0.240	0.002
-387.019	-200.000	-0.026	-0.218
-386.004	17.205	0.070	-0.055
-384.990	-59.130	0.162	-0.069
-383.975	-123.419	-0.223	0.035
-382.960	-200.000	-0.002	0.087
-381.946	800.000	-0.047	0.149
-380.931	-200.000	-0.025	-0.135
-379.917	33.875	-0.092	0.079
-378.902	-200.000	0.019	0.271
-377.888	320.485	-0.190	-0.356
-376.873	682.480	0.066	0.170
-375.858	-124.342	0.248	0.038
-374.844	-2.307	-0.390	-0.269
-373.829	800.000	-0.087	-0.266
-372.815	167.800	0.111	0.156
-371.800	497.184	-0.026	0.058
-370.785	800.000	0.070	0.247
-369.771	-25.714	-0.303	0.176
-368.756	634.116	-0.090	0.223
-367.742	404.617	0.036	-0.075
-366.727	-164.940	0.111	-0.005
-365.712	186.889	-0.244	-0.357
-364.698	253.049	-0.162	-0.272
-363.683	255.672	0.091	0.154
-362.669	119.117	-0.114	-0.139
-361.654	-200.000	-0.013	-0.258
-360.639	434.216	-0.065	0.139
-359.625	-200.000	0.003	-0.026
-358.610	-54.369	0.097	0.043
-357.596	786.308	0.134	-0.361
-356.581	-2.659	0.039	0.027
-355.566	14.862	0.224	0.173
-354.552	-35.432	0.223	0.119
-353.537	-200.000	-0.021	0.574
-352.523	223.498	-0.118	0.187
-351.508	324.464	0.159	0.298
-350.493	-133.129	-0.341	-0.043
-349.479	425.625	0.165	0.350
-348.464	223.681	-0.223	0.354
-347.450	-2.392	-0.113	-0.078
-346.435	-34.001	0.075	0.040
-345.420	211.643	0.079	0.122
-344.406	-98.382	0.380	0.096
-343.391	-19.085	-0.114	0.069
-342.377	122.424	-0.085	-0.104
-341.362	44.887	-0.186	0.169
-340.348	199.198	0.067	0.102
-339.333	11.625	-0.080	-0.061
-338.318	800.000	-0.045	-0.191
-337.304	-75.856	-0.128	0.045
-336.289	10.308	0.142	0.106
-335.275	-200.000	-0.015	0.280
-334.260	-200.000	-0.016	-0.082
-333.245	-123.110	-0.604	0.095
-332.231	-42.020	-0.136	-0.069
-331.216	223.269	0.167	-0.265
-330.202	150.255	-0.026	-0.035
-329.187	-200.000	-0.039	-0.255
-328.172	-200.000	-0.038	-0.450
-327.158	-11.658	-0.202	-0.131
-326.143	99.259	0.246	0.280
-325.129	-60.559	-0.198	-0.083
-324.114	43.657	-0.066	-0.059
-323.099	-70.485	-0.242	0.090
-322.085	-200.000	-0.014	0.077
-321.070	-200.000	-0.004	0.079
-320.056	-154.188	0.067	0.004
-319.041	-105.182	0.500	0.112
-318.026	-200.000	-0.011	0.075
-317.012	800.000	0.022	-0.086
-315.997	-200.000	0.009	-0.277
-314.983	398.013	0.136	-0.280
-313.968	-79.179	0.150	-0.050
-312.953	107.304	0.095	0.111
-311.939	-139.255	0.155	-0.016
-310.924	800.000	-0.057	-0.236
-309.910	800.000	-0.059	-0.165
-308.895	110.375	0.116	0.137
-307.880	566.441	0.016	-0.039
-306.866	26.574	0.121	0.099
-305.851	-200.000	0.019	0.151
-304.837	-35.277	-0.120	-0.064
-303.822	340.257	-0.107	0.205
-302.807	192.325	0.083	-0.123
-301.793	-8.427	0.262	0.173
-300.778	-6.657	0.058	0.039
-299.764	-188.808	-0.247	-0.003
-298.749	800.000	-0.104	0.319
-297.735	-16.810	-0.244	-0.151
-296.720	-102.059	0.235	0.056
-295.705	190.432	-0.279	0.412
-294.691	364.963	0.108	-0.214
-293.676	710.055	-0.025	-0.064
-292.662	-200.000	-0.006	-0.085
-291.647	62.408	-0.216	0.212
-290.632	-24.112	-0.281	-0.165
-289.618	-200.000	-0.048	0.443
-288.603	-200.000	-0.001	-0.074
-287.589	-200.000	0.001	-0.104
-286.574	-193.879	0.063	0.001
-285.559	-86.559	0.268	0.081
-284.545	-200.000	-0.015	0.134
-283.530	664.967	0.089	-0.225
-282.516	-200.000	-0.051	-0.448
-281.501	800.000	-0.095	-0.300
-280.486	-102.636	-0.350	0.082
-279.472	364.015	-0.045	-0.090
-278.457	225.905	-0.049	-0.078
-277.443	2.387	0.298	-0.212
-276.428	-97.440	0.053	0.013
-275.413	260.899	-0.131	-0.222
-274.399	70.166	-0.251	-0.254
-273.384	-59.412	-0.134	-0.057
-272.370	-99.440	0.183	-0.045
-271.355	-200.000	0.086	0.371
-270.340	-98.525	-0.134	-0.034
-269.326	-200.000	0.023	0.143
-268.311	485.932	-0.127	-0.284
-267.297	-200.000	0.003	0.037
-266.282	-47.383	0.054	-0.026
-265.267	-24.994	-0.046	-0.027
-264.253	-200.000	0.006	0.137
-263.238	187.546	0.166	-0.242
-262.224	-61.090	-0.083	0.034
-261.209	800.000	0.032	-0.113
-260.195	337.895	0.096	0.183
-259.180	98.103	0.255	0.288
-258.165	22.986	-0.179	0.144
-257.151	-88.442	0.354	0.104
-256.136	-3.145	-0.121	-0.083
-255.122	480.363	0.080	-0.179
-254.107	800.000	0.037	0.110
-253.092	208.269	0.123	0.189
-252.078	190.735	0.152	-0.225
-251.063	139.627	-0.283	-0.366
-250.049	-110.800	-0.371	-0.075
-249.034	-200.000	-0.022	-0.277
-248.019	45.145	0.152	0.137
-247.005	0.445	0.197	0.138
-245.990	112.366	-0.101	-0.120
-244.976	-129.992	0.204	0.027
-243.961	302.391	-0.124	-0.225
-242.946	58.581	-0.053	0.051
-241.932	185.618	-0.052	0.075
-240.917	-90.708	-0.426	0.121
-239.903	-26.535	0.104	-0.060
-238.888	4.284	-0.219	0.157
-237.873	237.034	0.071	0.115
-236.859	288.190	0.075	0.132
-235.844	21.128	0.299	0.238
-234.830	73.002	-0.224	0.229
-233.815	-20.826	0.218	-0.131
-232.800	800.000	-0.119	-0.332
-231.786	23.643	-0.020	0.016
-230.771	-30.512	0.119	0.066
-229.757	-200.000	-0.007	0.061
-228.742	-159.721	0.044	0.002
-227.727	435.078	-0.150	0.319
-226.713	404.976	-0.187	0.386
-225.698	4.731	-0.151	-0.108
-224.684	-19.669	0.102	0.062
-223.669	-77.823	0.433	-0.147
-222.655	-134.821	0.160	-0.019
-221.640	-76.544	-0.053	0.018
-220.625	800.000	-0.048	-0.174
-219.611	-200.000	0.049	0.408
-218.596	308.830	-0.112	0.204
-217.582	-8.711	-0.111	0.073
-216.567	-98.397	-0.299	0.075
-215.552	-179.978	0.160	-0.003
-214.538	13.786	-0.086	-0.065
-213.523	800.000	0.047	0.160
-212.509	800.000	0.075	0.282
-211.494	800.000	0.090	0.262
-210.479	145.266	0.112	-0.146
-209.465	-17.087	0.080	-0.050
-208.450	-86.061	-0.034	0.010
-207.436	225.261	-0.216	0.341
-206.421	800.000	0.063	0.232
-205.406	278.478	0.131	-0.229
-204.392	-200.000	-0.033	-0.160
-203.377	156.083	0.040	-0.054
-202.363	-83.962	0.199	0.062
-201.348	-200.000	-0.034	-0.422
-200.333	-200.000	-0.020	0.101
-199.319	-131.150	-0.290	-0.038
-198.304	34.188	0.297	0.253
-197.290	52.783	-0.240	-0.224
-196.275	0.160	-0.162	-0.113
-195.260	-200.000	-0.108	0.464
-194.246	68.107	-0.331	0.331
-193.231	401.000	0.057	0.117
-192.217	-65.225	-0.028	0.011
-191.202	-144.686	0.123	0.011
-190.187	14.622	0.161	-0.123
-189.173	-200.000	-0.012	-0.527
-188.158	247.602	0.048	0.079
-187.144	-90.171	0.176	-0.050
-186.129	372.280	0.093	0.185
-185.114	270.980	0.043	0.074
-184.100	800.000	0.044	-0.139
-183.085	-145.300	0.253	0.022
-182.071	-13.743	-0.126	-0.080
-181.056	-200.000	0.008	-0.325
-180.042	445.122	-0.056	0.120
-179.027	83.028	0.231	0.246
-178.012	-3.168	-0.190	0.129
-176.998	-200.000	0.021	-0.199
-175.983	-36.995	-0.185	-0.097
-174.969	523.001	0.125	0.287
-173.954	231.542	-0.203	-0.325
-172.939	-200.000	-0.030	-0.160
-171.925	112.500	0.131	0.155
-170.910	-171.217	-0.034	0.001
-169.896	-195.357	0.182	-0.001
-168.881	-89.219	0.140	0.040
-167.866	318.843	-0.110	-0.204
-166.852	100.516	0.116	0.131
-165.837	653.752	-0.158	-0.396
-164.823	52.040	-0.070	0.065
-163.808	560.495	0.072	-0.171
-162.793	-200.000	0.059	-0.481
-161.779	-71.845	-0.274	-0.100
-160.764	-38.724	0.069	-0.036
-159.750	-160.168	0.168	-0.009
-158.735	800.000	0.053	0.147
-157.720	-94.528	0.283	-0.075
-156.706	800.000	-0.091	0.332
-155.691	117.441	0.092	0.110
-154.677	-74.790	0.154	0.054
-153.662	-155.574	-0.262	-0.016
-152.647	271.558	-0.135	0.232
-151.633	-111.503	-0.202	0.040
-150.618	-94.695	0.193	0.051
-149.604	-200.000	-0.043	-0.435
-148.589	467.657	0.133	-0.292
-147.574	800.000	0.016	-0.059
-146.560	286.568	-0.172	-0.303
-145.545	-57.672	0.326	0.139
-144.531	247.593	-0.095	-0.156
-143.516	-47.971	-0.351	-0.166
-142.502	28.109	-0.155	0.128
-141.487	800.000	-0.037	-0.149
-140.472	-200.000	-0.007	0.050
-139.458	-167.888	0.220	-0.008
-138.443	217.009	0.144	0.223
-137.429	-0.356	0.367	-0.254
-136.414	-75.133	0.076	0.026
-135.399	800.000	-0.029	-0.110
-134.385	590.528	0.131	-0.315
-133.370	-171.528	-0.201	-0.007
-132.356	507.757	0.061	-0.139
-131.341	-200.000	-0.087	0.398
-130.326	800.000	-0.046	0.147
-129.312	744.339	0.094	0.246
-128.297	270.642	0.193	0.331
-127.283	-91.167	-0.065	-0.018
-126.268	-99.238	-0.077	-0.019
-125.253	243.551	0.199	0.326
-124.239	-83.664	-0.460	0.143
-123.224	-33.735	0.373	-0.201
-122.210	-191.653	-0.375	0.004
-121.195	178.554	-0.275	-0.391
-120.180	228.222	-0.093	0.148
-119.166	132.851	0.260	0.327
-118.151	800.000	-0.098	-0.356
-117.137	-128.617	-0.232	-0.032
-116.122	131.311	0.201	-0.251
-115.107	-200.000	0.022	0.181
-114.093	233.184	0.029	0.047
-113.078	-64.514	0.256	0.101
-112.064	-74.083	0.161	0.057
-111.049	-41.865	-0.274	-0.137
-110.034	244.141	-0.187	-0.305
-109.020	-102.185	-0.396	0.093
-108.005	64.452	0.135	-0.132
-106.991	663.452	0.194	-0.489
-105.976	-22.002	-0.337	0.200
-104.962	24.411	-0.032	0.026
-103.947	190.322	-0.037	0.054
-102.932	19.999	-0.300	0.236
-101.918	-60.042	0.130	0.054
-100.903	-200.000	0.078	-0.370
-99.889	-200.000	0.017	-0.231
-98.874	-200.000	0.010	-0.265
-97.859	-200.000	-0.034	0.313
-96.845	469.143	0.185	0.404
-95.830	-99.036	0.167	-0.041
-94.816	-111.427	-0.279	0.055
-93.801	147.563	-0.115	0.151
-92.786	-42.551	0.146	0.072
-91.772	359.511	-0.023	0.045
-90.757	-200.000	-0.022	0.422
-89.743	800.000	-0.057	0.167
-88.728	352.569	-0.110	0.212
-87.713	249.321	-0.266	0.440
-86.699	-200.000	0.002	0.084
-85.684	-109.077	-0.081	-0.017
-84.670	-36.088	0.464	-0.244
-83.655	800.000	0.061	-0.194
-82.640	-200.000	0.037	-0.182
-81.626	-96.635	-0.461	-0.118
-80.611	476.633	0.148	-0.326
-79.597	50.936	0.058	-0.053
-78.582	-84.601	-0.093	-0.029
-77.567	800.000	0.121	-0.422
-76.553	800.000	0.111	0.426
-75.538	-135.551	0.227	0.026
-74.524	-149.510	0.327	-0.025
-73.509	-200.000	-0.031	-0.243
-72.494	-10.098	-0.156	-0.101
-71.480	-26.826	0.342	0.194
-70.465	800.000	-0.061	0.191
-69.451	188.020	0.139	-0.202
-68.436	128.260	-0.133	0.165
-67.422	-172.016	-0.379	0.012
-66.407	-96.061	-0.335	-0.087
-65.392	307.164	-0.131	-0.238
-64.378	34.936	0.223	0.190
-63.363	-90.676	0.157	0.044
-62.349	-200.000	0.008	0.047
-61.334	104.873	-1.164	-1.336
-60.319	2.676	1.008	0.711
-59.305	223.122	-0.874	-1.370
-58.290	359.813	0.886	1.725
-57.276	-200.000	0.219	1.460
-56.261	-200.000	135.727	679.673
-55.246	338.826	1678.875	3180.575
-54.232	134.406	2804.377	3537.353
-53.217	87.051	2195.236	2359.330
-52.203	30.887	1712.402	1426.839
-51.188	23.776	1535.779	1230.565
-50.173	22.068	1514.568	1201.849
-49.159	46.289	1590.442	1433.546
-48.144	42.952	1600.274	1418.887
-47.130	23.869	1548.885	1241.523
-46.115	21.064	1533.135	1209.428
-45.100	20.892	1529.366	1205.223
-44.086	20.756	1527.983	1203.139
-43.071	20.840	1525.558	1201.765
-42.057	20.860	1524.485	1201.013
-41.042	20.714	1522.917	1198.719
-40.027	20.754	1521.324	1197.694
-39.013	20.735	1519.889	1196.384
-37.998	20.699	1518.678	1195.138
-36.984	20.765	1517.668	1194.749
-35.969	20.685	1516.298	1193.074
-34.954	20.722	1514.541	1191.902
-33.940	20.761	1513.550	1191.335
-32.925	20.741	1511.886	1189.842
-31.911	20.763	1510.337	1188.732
-30.896	20.903	1509.214	1188.751
-29.881	20.859	1508.087	1187.516
-28.867	20.767	1507.125	1186.090
-27.852	20.860	1505.223	1185.177
-26.838	20.768	1504.560	1183.984
-25.823	20.875	1502.393	1182.954
-24.809	20.799	1501.265	1181.507
-23.794	20.848	1499.379	1180.303
-22.779	20.876	1498.142	1179.478
-21.765	20.873	1497.175	1178.647
-20.750	20.971	1495.724	1178.122
-19.736	20.818	1495.153	1176.587
-18.721	20.914	1494.234	1176.465
-17.706	20.813	1493.524	1175.180
-16.692	20.847	1492.151	1174.283
-15.677	20.770	1491.828	1173.461
-14.663	20.872	1489.818	1172.520
-13.648	20.815	1488.836	1171.319
-12.633	20.835	1488.034	1170.775
-11.619	20.772	1487.809	1170.130
-10.604	20.870	1486.210	1169.480
-9.590	20.889	1485.082	1168.679
-8.575	20.874	1484.512	1168.080
-7.560	20.880	1483.394	1167.197
-6.546	20.798	1482.323	1165.758
-5.531	20.806	1482.154	1165.634
-4.517	20.732	1481.192	1164.336
-3.502	20.744	1480.016	1163.444
-2.487	20.782	1478.880	1162.758
-1.473	20.769	1477.388	1161.448
-0.458	20.851	1476.117	1160.954
0.556	19.810	1466.802	1149.275
1.571	16.657	1441.827	1108.978
2.586	13.357	1378.756	1039.666
3.600	11.584	1293.182	964.594
4.615	10.683	1249.608	926.867
5.629	9.514	1192.842	878.314
6.644	4.964	1112.574	795.948
7.659	1.189	1077.834	752.323
8.673	0.794	1072.565	746.631
9.688	0.563	1069.173	743.066
10.702	0.630	1067.799	742.378
11.717	0.633	1065.126	740.465
12.731	2.234	1065.394	748.432
13.746	7.621	1072.839	780.104
14.761	13.913	1081.290	817.233
15.775	17.035	1084.692	835.117
16.790	16.994	1083.574	833.981
17.804	15.985	1081.841	827.622
18.819	15.299	1079.511	822.402
19.834	14.707	1078.204	818.430
20.848	14.457	1077.583	816.665
21.863	14.181	1076.912	814.729
22.877	14.060	1076.056	813.420
23.892	13.747	1075.071	811.071
24.907	13.774	1073.969	810.301
25.921	13.646	1073.809	809.485
26.936	13.575	1073.098	808.529
27.950	13.808	1071.897	808.687
28.965	13.902	1070.996	808.398
29.980	13.787	1070.721	807.558
30.994	13.815	1069.476	806.680
32.009	13.983	1068.247	806.499
33.023	13.906	1068.163	805.991
34.038	13.955	1067.155	805.398
35.053	13.838	1066.282	804.098
36.067	13.951	1065.010	803.616
37.082	13.829	1064.222	802.363
38.096	13.888	1063.751	802.219
39.111	13.828	1062.957	801.262
40.126	13.988	1061.789	801.082
41.140	13.740	1060.551	798.881
42.155	13.803	1059.578	798.380
43.169	13.798	1059.145	797.962
44.184	13.694	1058.098	796.599
45.199	13.751	1056.421	795.541
46.213	13.785	1055.802	795.170
47.228	13.884	1054.893	794.888
48.242	13.782	1053.860	793.549
49.257	13.713	1052.716	792.291
50.271	13.819	1051.512	791.820
51.286	13.818	1051.169	791.484
52.301	13.805	1050.027	790.495
53.315	13.893	1049.361	790.339
54.330	13.718	1048.565	788.838
55.344	13.740	1047.899	788.373
56.359	13.709	1046.990	787.473
57.374	13.799	1045.574	786.766
58.388	13.808	1045.308	786.539
59.403	13.774	1044.085	785.387
60.417	13.747	1043.742	784.929
61.432	13.764	1042.964	784.359
62.447	13.655	1042.049	783.086
63.461	13.735	1041.630	783.076
64.476	13.722	1040.477	782.081
65.490	13.811	1039.619	781.785
66.505	13.708	1038.899	780.690
67.520	13.755	1037.754	779.981
68.534	13.737	1037.219	779.424
69.549	13.766	1036.227	778.748
70.563	13.777	1035.399	778.108
71.578	13.721	1034.942	777.435
72.593	13.738	1033.886	776.650
73.607	13.529	1033.369	775.215
74.622	13.699	1031.910	774.846
75.636	13.773	1030.828	774.314
76.651	13.543	1030.513	772.933
77.666	13.593	1029.548	772.375
78.680	13.643	1028.698	771.899
79.695	13.701	1028.421	771.897
80.709	13.698	1027.862	771.391
81.724	13.746	1026.727	770.695
82.739	13.760	1025.476	769.755
83.753	13.814	1024.857	769.473
84.768	13.781	1024.140	768.712
85.782	13.812	1023.545	768.341
86.797	13.933	1022.601	768.124
87.812	14.032	1021.365	767.584
88.826	13.829	1021.262	766.502
89.841	13.734	1020.573	765.477
90.855	13.842	1019.413	765.040
91.870	13.909	1018.651	764.707
92.884	13.881	1017.852	763.909
93.899	13.863	1017.139	763.229
94.914	13.889	1016.634	762.902
95.928	14.043	1015.443	762.645
96.943	13.999	1014.759	761.863
97.957	13.882	1014.117	760.775
98.972	13.774	1013.824	759.995
99.987	13.869	1012.465	759.342
101.001	13.977	1011.985	759.408
102.016	14.051	1010.695	758.713
103.030	13.905	1010.264	757.658
104.045	13.902	1009.075	756.681
105.060	13.885	1008.487	756.099
106.074	13.791	1006.971	754.465
107.089	13.747	1006.434	753.798
108.103	13.857	1005.601	753.605
109.118	13.726	1004.726	752.290
110.133	13.769	1003.780	751.709
111.147	13.855	1002.634	751.176
112.162	13.860	1001.770	750.484
113.176	13.798	1001.349	749.823
114.191	13.765	1000.761	749.167
115.206	13.865	999.185	748.370
116.220	13.940	998.182	747.889
117.235	13.833	997.587	746.897
118.249	13.821	996.622	746.057
119.264	13.810	995.736	745.274
120.279	13.720	995.465	744.605
121.293	13.807	993.861	743.730
122.308	13.693	993.139	742.609
123.322	13.836	992.377	742.616
124.337	13.723	991.419	741.328
125.352	13.744	990.256	740.487
126.366	13.725	989.119	739.486
127.381	13.834	987.706	738.849
128.395	13.768	986.982	737.950
129.410	13.640	986.499	736.955
130.424	13.731	985.171	736.299
131.439	13.694	984.272	735.401
132.454	13.849	983.285	735.285
133.468	13.878	982.803	734.988
134.483	13.755	982.333	734.027
135.497	13.807	981.063	733.243
136.512	13.846	980.343	732.811
137.527	13.834	979.546	732.097
138.541	13.843	979.174	731.795
139.556	13.828	978.339	731.037
140.570	13.972	977.244	730.791
141.585	13.881	977.047	730.176
142.600	13.947	975.913	729.555
143.614	13.923	975.519	729.091
144.629	13.934	975.017	728.700
145.643	13.939	974.134	727.997
146.658	14.033	973.207	727.650
147.673	14.053	972.086	726.835
148.687	14.044	971.010	725.928
149.702	13.837	970.635	724.680
150.716	13.952	969.255	724.089
151.731	13.925	968.560	723.388
152.746	13.992	968.083	723.256
153.760	14.047	966.915	722.559
154.775	13.975	966.455	721.837
155.789	13.961	965.318	720.865
156.804	14.139	964.747	721.146
157.819	14.038	963.946	720.047
158.833	14.021	963.322	719.443
159.848	14.128	962.711	719.385
160.862	14.170	961.726	718.769
161.877	14.170	961.013	718.170
162.892	14.246	960.190	717.820
163.906	14.210	959.137	716.816
164.921	14.126	958.257	715.730
165.935	14.204	957.231	715.237
166.950	14.093	956.473	714.131
167.964	14.156	955.814	713.847
168.979	14.234	954.456	713.102
169.994	14.220	953.548	712.305
171.008	14.194	952.888	711.636
172.023	14.120	951.997	710.590
173.037	14.232	950.999	710.261
174.052	14.217	950.590	709.829
175.067	14.313	949.376	709.266
176.081	14.299	948.907	708.795
177.096	14.148	948.027	707.434
178.110	14.254	946.900	706.979
179.125	14.285	946.430	706.699
180.140	14.168	945.619	705.533
181.154	14.358	944.942	705.773
182.169	14.317	944.062	704.879
183.183	14.367	943.643	704.713
184.198	14.393	943.216	704.443
185.213	14.398	942.337	703.744
186.227	14.473	941.243	703.185
187.242	14.468	941.276	703.125
188.256	14.505	940.730	702.811
189.271	14.577	939.668	702.259
190.286	14.481	938.949	701.256
191.300	14.474	938.003	700.456
192.315	14.320	937.400	699.297
193.329	14.372	936.686	698.919
194.344	14.211	936.403	697.971
195.359	14.402	935.525	698.056
196.373	14.461	934.787	697.694
197.388	14.540	934.219	697.535
198.402	14.530	933.921	697.210
199.417	14.656	933.119	697.074
200.432	14.621	932.894	696.698
201.446	14.564	933.082	696.542
202.461	14.653	932.049	696.081
203.475	14.863	931.439	696.438
204.490	14.757	930.672	695.361
205.504	14.743	929.800	694.591
206.519	14.594	928.929	693.258
207.534	14.709	927.992	692.976
208.548	14.788	927.290	692.717
209.563	14.770	926.724	692.158
210.577	14.832	925.580	691.498
211.592	14.865	925.136	691.241
212.607	14.705	925.323	690.660
213.621	14.869	924.116	690.376
214.636	14.884	923.470	689.894
215.650	14.831	922.974	689.244
216.665	14.857	922.477	688.916
217.680	14.830	922.086	688.455
218.694	14.823	921.536	687.951
219.709	14.858	921.003	687.638
220.723	14.915	920.324	687.303
221.738	14.992	919.261	686.765
222.753	14.896	918.783	685.954
223.767	15.007	917.929	685.712
224.782	14.914	917.109	684.658
225.796	14.933	916.568	684.273
226.811	15.158	915.415	684.268
227.826	14.949	915.059	683.087
228.840	15.029	914.192	682.709
229.855	14.976	913.804	682.142
230.869	14.944	913.199	681.497
231.884	15.130	912.280	681.508
232.899	14.958	911.402	680.095
233.913	14.938	910.851	679.540
234.928	15.087	910.088	679.516
235.942	15.010	909.542	678.737
236.957	14.991	908.728	677.990
237.972	15.098	908.090	677.890
238.986	15.105	907.030	677.068
240.001	15.132	906.513	676.728
241.015	15.010	906.049	675.830
242.030	15.092	905.650	675.806
243.045	15.308	904.523	675.774
244.059	15.133	904.160	674.738
245.074	15.159	903.363	674.190
246.088	15.074	903.229	673.687
247.103	15.180	902.278	673.344
248.117	15.291	901.303	673.003
249.132	15.176	901.159	672.374
250.147	15.329	900.485	672.424
251.161	15.355	899.718	671.898
252.176	15.420	898.769	671.387
253.190	15.500	897.842	670.957
254.205	15.448	897.517	670.446
255.220	15.426	896.910	669.844
256.234	15.491	896.075	669.421
257.249	15.432	895.670	668.824
258.263	15.554	895.314	668.985
259.278	15.597	894.536	668.516
260.293	15.629	894.051	668.220
261.307	15.439	893.731	667.170
262.322	15.742	892.766	667.592
263.336	15.501	892.318	666.242
264.351	15.666	891.749	666.414
265.366	15.684	890.569	665.544
266.380	15.795	890.126	665.591
267.395	15.689	889.444	664.603
268.409	15.595	888.920	663.783
269.424	15.700	887.860	663.345
270.439	15.761	887.099	662.961
271.453	15.754	886.546	662.460
272.468	15.662	885.568	661.308
273.482	15.827	885.111	661.558
274.497	15.753	884.907	661.058
275.512	15.609	883.938	659.710
276.526	15.898	883.081	660.145
277.541	15.831	882.197	659.163
278.555	15.774	881.829	658.605
279.570	15.880	881.251	658.529
280.585	15.917	881.057	658.472
281.599	15.897	880.418	657.858
282.614	15.978	879.939	657.759
283.628	15.822	878.828	656.260
284.643	15.777	878.454	655.750
285.657	16.030	877.676	656.094
286.672	15.941	877.563	655.604
287.687	15.924	876.835	654.938
288.701	16.019	876.165	654.748
289.716	15.930	875.790	654.065
290.730	15.997	875.166	653.801
291.745	15.952	874.611	653.153
292.760	15.912	874.075	652.541
293.774	16.072	873.284	652.512
294.789	16.103	872.500	651.987
295.803	16.065	872.069	651.460
296.818	15.993	871.595	650.771
297.833	16.125	870.813	650.640
298.847	16.277	869.957	650.528
299.862	16.244	869.181	649.761
300.876	16.192	868.270	648.824
301.891	16.225	868.136	648.795
302.906	16.205	867.408	648.115
303.920	16.163	867.050	647.631
304.935	16.431	865.621	647.532
305.949	16.323	865.496	646.968
306.964	16.239	864.907	646.146
307.979	16.334	864.072	645.829
308.993	16.314	864.054	645.684
310.008	16.301	863.348	645.047
311.022	16.261	863.027	644.598
312.037	16.340	862.475	644.430
313.052	16.392	861.240	643.648
314.066	16.422	860.769	643.354
315.081	16.468	859.898	642.823
316.095	16.367	859.760	642.279
317.110	16.435	859.404	642.213
318.125	16.355	858.622	641.269
319.139	16.441	858.006	641.077
320.154	16.455	857.571	640.748
321.168	16.402	857.128	640.162
322.183	16.530	856.130	639.845
323.197	16.541	855.795	639.579
324.212	16.473	855.219	638.833
325.227	16.523	855.021	638.818
326.241	16.573	854.278	638.395
327.256	16.451	853.816	637.532
328.270	16.517	853.159	637.235
329.285	16.530	852.721	636.901
330.300	16.471	851.913	636.019
331.314	16.593	851.038	635.769
332.329	16.598	850.622	635.421
333.343	16.687	850.022	635.249
334.358	16.752	849.410	634.978
335.373	16.750	848.786	634.450
336.387	16.665	848.244	633.671
337.402	16.742	848.075	633.776
338.416	16.855	847.097	633.412
339.431	16.861	846.555	632.973
340.446	16.742	846.149	632.167
341.460	16.843	845.497	632.002
342.475	16.969	845.042	632.076
343.489	16.886	844.348	631.190
344.504	16.955	843.863	631.029
345.519	17.157	842.994	631.073
346.533	16.853	842.958	629.863
347.548	17.090	842.005	629.974
348.562	16.923	841.634	629.021
349.577	16.972	841.089	628.740
350.592	16.915	840.717	628.197
351.606	17.008	840.012	627.958
352.621	17.008	840.057	627.934
353.635	16.934	839.668	627.314
354.650	16.909	839.193	626.814
355.665	16.999	838.647	626.680
356.679	16.985	837.924	626.034
357.694	16.955	837.791	625.768
358.708	16.934	837.222	625.213
359.723	17.046	836.218	624.818
360.738	17.003	835.948	624.402
361.752	17.002	835.473	623.990
362.767	17.074	835.243	624.025
363.781	17.278	834.154	623.906
364.796	17.225	833.851	623.430
365.810	17.167	833.609	622.982
366.825	17.307	832.683	622.746
367.840	17.250	832.579	622.407
368.854	17.382	832.106	622.481
369.869	17.279	831.739	621.774
370.883	17.290	831.312	621.439
371.898	17.216	830.923	620.823
372.913	17.421	830.060	620.874
373.927	17.412	829.412	620.300
374.942	17.368	828.930	619.726
375.956	17.330	828.521	619.224
376.971	17.564	827.444	619.217
377.986	17.531	826.997	618.706
379.000	17.526	826.659	618.383
380.015	17.661	825.986	618.314
381.029	17.635	825.749	617.987
382.044	17.551	824.695	616.837
383.059	17.679	823.756	616.545
384.073	17.425	824.360	616.022
385.088	17.555	823.428	615.743
386.102	17.472	822.839	614.946
387.117	17.408	822.481	614.393
388.132	17.425	822.368	614.317
389.146	17.559	821.586	614.162
390.161	17.660	821.138	614.137
391.175	17.599	820.478	613.367
392.190	17.729	820.352	613.687
393.205	17.595	819.942	612.845
394.219	17.636	819.639	612.711
395.234	17.610	818.960	612.056
396.248	17.512	818.793	611.524
397.263	17.597	817.743	610.992
398.278	17.645	817.590	610.995
399.292	17.626	817.019	610.447
400.307	17.650	816.484	610.078
401.321	17.736	816.051	610.010
402.336	17.803	815.618	609.872
403.350	17.654	815.505	609.200
404.365	17.737	814.741	608.872
405.380	17.812	814.434	608.856
406.394	17.833	813.809	608.410
407.409	17.878	813.469	608.263
408.423	17.964	813.008	608.169
409.438	17.957	812.348	607.597
410.453	17.816	811.971	606.760
411.467	18.045	811.477	607.151
412.482	18.050	811.340	607.013
413.496	17.867	811.159	606.174
414.511	17.878	810.763	605.863
415.526	18.008	810.226	605.868
416.540	18.024	809.648	605.439
417.555	18.019	809.465	605.232
418.569	18.009	808.914	604.732
419.584	18.040	808.369	604.379
420.599	18.101	807.573	603.945
421.613	115.558	1301.085	1491.417
422.628	99.895	1372.925	1491.505
