DTS Sentinel unit serial number:	SN413079Multiplexer serial number:	ORYXHardware model number:	OX4-SRSoftware version number:	ORYX F/W v4.00 Oryx Data Collector v3.7.2.0data status	okinstallation	princeton_trtdifferential loss correction	single-endedforward channel	channel 3reverse channel	N/Adate	2019/09/14time	20:28:35forward acquisition time	60.00reverse acquisition time	0.00gamma	496.2192k internal	0.2315k external	0.2315temperature offset calibration	1.0011default loss term (dB/km)	0.3790temperature slope calibration	1.0000multiplexer offset coefficient	1.0000multiplexer slope coefficient	1.0000fibre end	0.00T internal ref (°C)	33.56T ext. ref 1 (°C)	4.88T ext. ref 2 (°C)	28.16length (m)	temperature (°C)	Stokes	anti-Stokes-747.200	-9.209	0.108	-0.073
-746.185	-35.638	0.111	0.061
-745.171	11.254	0.267	-0.207
-744.156	-200.000	-0.004	0.066
-743.142	373.103	0.035	0.071
-742.127	800.000	0.025	0.092
-741.112	800.000	0.092	-0.262
-740.098	-147.531	0.201	-0.017
-739.083	-93.565	0.254	-0.071
-738.069	30.055	-0.228	0.197
-737.054	218.721	0.080	-0.129
-736.039	-94.525	-0.404	0.111
-735.025	620.025	-0.096	0.243
-734.010	-100.306	-0.191	0.048
-732.996	800.000	0.082	0.241
-731.981	197.309	-0.226	-0.349
-730.966	210.521	-0.053	-0.085
-729.952	-60.204	-0.135	0.058
-728.937	-200.000	-0.010	0.046
-727.923	-172.399	-0.195	0.006
-726.908	90.797	-0.122	0.139
-725.894	65.896	-0.200	-0.205
-724.879	800.000	-0.095	-0.309
-723.864	-200.000	0.030	-0.242
-722.850	6.943	0.300	0.227
-721.835	-98.076	-0.453	-0.118
-720.821	140.875	0.190	-0.254
-719.806	-1.689	0.090	0.064
-718.791	-58.649	-0.152	-0.067
-717.777	54.861	-0.136	-0.133
-716.762	-92.059	0.316	0.090
-715.748	574.911	-0.084	-0.207
-714.733	800.000	0.008	-0.024
-713.718	-1.719	0.203	-0.144
-712.704	547.361	-0.178	-0.432
-711.689	-186.929	-0.288	0.004
-710.675	-32.897	-0.221	0.124
-709.660	333.172	-0.030	-0.058
-708.645	-180.728	-0.040	0.001
-707.631	187.380	-0.190	0.287
-706.616	202.591	0.159	0.249
-705.602	-67.826	0.120	0.047
-704.587	-38.410	0.162	-0.087
-703.572	220.171	0.036	-0.058
-702.558	-28.949	0.161	-0.094
-701.543	800.000	0.043	0.179
-700.529	33.701	-0.240	0.211
-699.514	43.754	0.207	-0.192
-698.499	-113.725	-0.067	0.013
-697.485	-57.637	-0.169	-0.075
-696.470	-200.000	0.049	-0.274
-695.456	611.213	-0.098	-0.247
-694.441	-77.151	-0.156	-0.055
-693.426	499.919	-0.048	-0.112
-692.412	-200.000	-0.061	-0.608
-691.397	-9.501	-0.162	0.109
-690.383	50.129	-0.143	0.136
-689.368	800.000	0.026	0.100
-688.354	800.000	0.050	-0.155
-687.339	-120.969	-0.187	0.032
-686.324	800.000	0.094	0.390
-685.310	-81.610	-0.022	-0.007
-684.295	-200.000	-0.024	-0.255
-683.281	124.825	-0.175	-0.223
-682.266	35.442	-0.166	0.148
-681.251	-120.657	-0.434	0.074
-680.237	-152.137	0.319	0.023
-679.222	72.333	0.128	0.135
-678.208	9.308	-0.222	-0.170
-677.193	-140.884	-0.390	-0.041
-676.178	-6.150	0.324	-0.224
-675.164	-200.000	-0.108	-0.491
-674.149	-200.000	-0.001	0.278
-673.135	-160.261	0.340	0.019
-672.120	-74.754	-0.016	0.006
-671.105	540.087	-0.049	-0.117
-670.091	-100.611	0.041	0.010
-669.076	-72.512	0.073	-0.027
-668.062	-200.000	-0.008	0.041
-667.047	-38.682	0.353	-0.188
-666.032	-200.000	-0.003	-0.329
-665.018	-200.000	0.048	-0.398
-664.003	800.000	0.126	0.374
-662.989	322.674	0.157	-0.301
-661.974	-96.067	0.207	0.056
-660.959	449.599	0.066	-0.147
-659.945	114.625	-0.201	0.248
-658.930	-190.377	-0.144	-0.002
-657.916	-200.000	-0.010	-0.338
-656.901	-200.000	0.051	0.287
-655.886	-200.000	-0.029	0.164
-654.872	-110.907	0.204	-0.042
-653.857	-69.219	0.297	0.115
-652.843	-24.180	0.183	-0.110
-651.828	27.482	-0.234	-0.198
-650.814	-168.007	0.095	0.004
-649.799	127.951	0.167	-0.214
-648.784	-141.744	-0.198	0.020
-647.770	568.118	-0.137	-0.337
-646.755	84.959	-0.203	-0.225
-645.741	-200.000	0.040	-0.477
-644.726	47.223	-0.325	-0.306
-643.711	-91.849	0.104	-0.030
-642.697	389.642	-0.098	0.205
-641.682	-116.775	-0.278	0.052
-640.668	-103.692	0.144	-0.034
-639.653	800.000	0.012	0.042
-638.638	-58.332	-0.139	-0.061
-637.624	71.855	0.146	0.154
-636.609	188.011	-0.300	0.452
-635.595	126.723	0.201	0.257
-634.580	800.000	-0.071	-0.234
-633.565	296.853	-0.136	-0.253
-632.551	800.000	0.045	0.156
-631.536	188.504	0.040	0.060
-630.522	-72.906	-0.217	0.081
-629.507	69.595	0.204	0.212
-628.492	-46.368	-0.156	0.077
-627.478	-200.000	-0.020	-0.117
-626.463	800.000	0.034	-0.107
-625.449	672.885	-0.054	-0.141
-624.434	93.218	0.160	0.183
-623.419	17.608	-0.292	-0.234
-622.405	-42.717	0.184	-0.094
-621.390	58.374	0.304	0.300
-620.376	196.204	0.076	0.116
-619.361	120.577	0.100	-0.125
-618.346	-200.000	-0.021	-0.242
-617.332	-87.660	-0.240	0.073
-616.317	63.399	-0.138	0.139
-615.303	128.738	-0.160	-0.205
-614.288	8.832	-0.144	-0.110
-613.273	-130.516	-0.269	0.037
-612.259	800.000	-0.122	-0.377
-611.244	-117.773	-0.338	-0.061
-610.230	231.428	-0.282	-0.466
-609.215	800.000	0.033	0.123
-608.201	-200.000	0.018	0.143
-607.186	800.000	-0.046	-0.145
-606.171	800.000	0.062	-0.260
-605.157	12.820	-0.262	0.204
-604.142	-43.101	0.112	-0.057
-603.128	764.588	0.103	0.282
-602.113	-58.623	-0.034	0.015
-601.098	203.124	0.126	0.196
-600.084	2.422	0.147	-0.107
-599.069	740.407	0.035	0.094
-598.055	92.116	0.320	0.363
-597.040	522.626	-0.032	0.075
-596.025	-200.000	0.028	-0.128
-595.011	207.982	-0.159	-0.250
-593.996	66.615	0.060	0.062
-592.982	-200.000	0.022	-0.525
-591.967	284.948	0.115	-0.208
-590.952	-200.000	-0.047	-0.407
-589.938	-149.957	0.077	-0.006
-588.923	-55.656	0.102	-0.046
-587.909	17.137	-0.081	0.064
-586.894	116.270	0.215	0.265
-585.879	-104.331	0.072	-0.017
-584.865	504.646	0.028	-0.066
-583.850	-147.041	-0.410	-0.035
-582.836	55.687	-0.211	0.206
-581.821	-200.000	0.002	0.167
-580.806	-163.048	-0.352	0.017
-579.792	-33.964	-0.139	-0.077
-578.777	-200.000	-0.014	-0.359
-577.763	377.584	0.039	-0.081
-576.748	-175.984	-0.220	0.006
-575.733	-44.114	-0.176	0.089
-574.719	301.149	-0.131	0.244
-573.704	301.746	0.080	0.149
-572.690	-121.832	-0.066	-0.011
-571.675	-56.973	0.344	-0.153
-570.661	60.332	0.048	-0.048
-569.646	30.672	-0.159	-0.137
-568.631	-79.103	0.336	0.115
-567.617	-133.263	0.202	0.026
-566.602	-119.313	-0.293	0.051
-565.588	189.123	0.090	-0.136
-564.573	-56.877	-0.036	0.016
-563.558	265.415	-0.241	0.422
-562.544	-157.606	0.223	-0.013
-561.529	-89.736	-0.577	-0.170
-560.515	-153.057	0.058	-0.004
-559.500	572.421	0.112	-0.275
-558.485	181.390	0.045	-0.067
-557.471	119.147	0.141	-0.176
-556.456	-41.478	-0.177	0.091
-555.442	-32.757	-0.136	0.076
-554.427	-140.949	-0.217	-0.022
-553.412	91.407	-0.090	0.101
-552.398	-73.437	0.229	-0.084
-551.383	263.233	0.194	-0.339
-550.369	107.983	-0.231	-0.277
-549.354	-112.721	-0.358	0.072
-548.339	-65.583	0.287	-0.116
-547.325	117.800	-0.296	-0.367
-546.310	388.430	0.099	-0.205
-545.296	-200.000	0.133	0.000
-544.281	6.462	-0.149	0.111
-543.266	-200.000	0.010	0.466
-542.252	-54.679	-0.085	-0.039
-541.237	49.232	-0.182	0.172
-540.223	-200.000	0.002	-0.022
-539.208	-157.069	0.471	-0.029
-538.193	800.000	0.054	-0.153
-537.179	141.125	0.015	0.020
-536.164	241.083	-0.073	0.122
-535.150	160.611	-0.073	0.103
-534.135	295.895	-0.188	0.345
-533.121	394.573	-0.099	-0.208
-532.106	-148.481	0.075	-0.006
-531.091	-77.764	-0.370	0.128
-530.077	-116.601	-0.509	0.094
-529.062	149.854	-0.144	-0.196
-528.048	134.984	0.163	0.212
-527.033	70.455	0.151	-0.157
-526.018	125.485	-0.142	-0.181
-525.004	130.812	0.178	-0.230
-523.989	-39.814	0.221	-0.116
-522.975	339.072	0.094	0.184
-521.960	-70.402	0.090	-0.034
-520.945	-42.140	-0.101	-0.052
-519.931	577.991	-0.105	0.258
-518.916	-2.221	0.084	-0.059
-517.902	158.475	0.195	0.272
-516.887	146.027	0.078	0.105
-515.872	-108.603	-0.087	-0.019
-514.858	68.385	-0.099	0.102
-513.843	-200.000	-0.038	0.169
-512.829	-200.000	0.010	-0.082
-511.814	-9.837	0.434	-0.290
-510.799	-145.974	-0.367	0.033
-509.785	-41.411	-0.257	0.133
-508.770	-200.000	0.008	-0.051
-507.756	58.401	-0.037	-0.037
-506.741	-134.348	-0.186	0.023
-505.726	-200.000	0.093	0.461
-504.712	30.219	-0.142	-0.122
-503.697	-34.709	0.076	0.042
-502.683	203.519	0.078	0.121
-501.668	384.695	0.074	0.152
-500.653	44.505	0.175	0.162
-499.639	233.337	0.139	0.230
-498.624	800.000	0.055	-0.186
-497.610	-200.000	0.016	0.200
-496.595	434.834	0.061	-0.134
-495.581	-200.000	-0.017	-0.097
-494.566	-200.000	-0.053	0.248
-493.551	-11.504	-0.162	-0.107
-492.537	-18.572	-0.096	0.060
-491.522	-183.540	-0.133	0.002
-490.508	-7.066	-0.201	0.137
-489.493	800.000	-0.087	0.315
-488.478	430.591	0.036	0.078
-487.464	85.022	0.245	0.269
-486.449	243.905	-0.116	-0.195
-485.435	-200.000	0.001	0.009
-484.420	90.242	-0.122	0.137
-483.405	-148.359	-0.426	0.035
-482.391	-147.311	0.239	0.020
-481.376	125.351	0.111	0.141
-480.362	84.228	0.140	0.154
-479.347	-41.797	0.379	-0.195
-478.332	-200.000	0.003	0.191
-477.318	-193.997	-0.206	0.002
-476.303	192.321	0.101	0.153
-475.289	800.000	0.120	0.432
-474.274	418.179	0.116	0.248
-473.259	61.677	0.245	0.245
-472.245	-200.000	-0.007	-0.123
-471.230	-88.538	0.185	0.055
-470.216	626.217	0.097	-0.246
-469.201	254.963	-0.117	-0.201
-468.186	93.974	-0.117	0.132
-467.172	8.751	-0.147	0.111
-466.157	-73.556	0.064	-0.024
-465.143	-61.108	0.452	0.191
-464.128	214.911	-0.132	0.210
-463.113	-85.750	-0.123	-0.038
-462.099	-131.976	0.233	0.030
-461.084	58.193	-0.030	0.030
-460.070	800.000	-0.049	0.167
-459.055	309.116	-0.164	-0.307
-458.040	-67.968	-0.261	-0.102
-457.026	-200.000	-0.003	0.146
-456.011	181.440	0.133	0.197
-454.997	4.541	-0.195	-0.144
-453.982	-39.746	0.216	0.113
-452.968	197.609	-0.142	-0.217
-451.953	-47.581	0.010	-0.005
-450.938	38.428	0.328	-0.293
-449.924	-200.000	-0.038	-0.405
-448.909	-200.000	-0.009	-0.094
-447.895	316.727	0.096	-0.182
-446.880	159.218	0.059	-0.082
-445.865	107.404	-0.148	0.176
-444.851	-66.463	-0.128	0.051
-443.836	119.310	-0.224	0.278
-442.822	136.997	-0.184	-0.240
-441.807	-96.163	0.428	-0.114
-440.792	61.367	-0.151	0.150
-439.778	-59.204	-0.336	0.145
-438.763	108.521	0.070	-0.083
-437.749	323.101	0.044	0.084
-436.734	-113.893	-0.235	0.046
-435.719	70.132	0.108	-0.112
-434.705	24.436	0.129	0.106
-433.690	-16.589	0.238	-0.151
-432.676	312.718	-0.062	-0.117
-431.661	800.000	-0.036	-0.110
-430.646	-102.956	0.275	-0.065
-429.632	-51.373	-0.173	-0.081
-428.617	-122.347	-0.070	-0.011
-427.603	-132.427	0.188	-0.024
-426.588	-200.000	-0.039	-0.286
-425.573	48.656	-0.246	0.231
-424.559	104.928	-0.131	0.155
-423.544	-19.041	0.230	0.143
-422.530	-56.322	-0.323	0.144
-421.515	273.011	0.182	-0.322
-420.500	137.171	-0.099	0.129
-419.486	190.426	-0.147	-0.221
-418.471	261.007	-0.089	-0.155
-417.457	800.000	0.113	-0.355
-416.442	-69.471	-0.069	0.027
-415.428	151.851	0.187	-0.255
-414.413	-32.994	0.080	0.044
-413.398	-9.072	0.210	-0.141
-412.384	-200.000	0.010	0.267
-411.369	-200.000	-0.009	0.283
-410.355	-21.535	-0.121	0.074
-409.340	342.037	0.072	0.140
-408.325	-200.000	-0.054	0.278
-407.311	-200.000	0.011	-0.270
-406.296	-106.253	0.067	0.015
-405.282	-111.418	-0.036	0.007
-404.267	-200.000	0.032	-0.209
-403.252	-169.026	-0.357	-0.013
-402.238	-122.683	0.043	-0.007
-401.223	528.021	-0.127	-0.300
-400.209	-179.771	-0.292	-0.006
-399.194	145.525	0.019	-0.026
-398.179	-200.000	-0.045	0.265
-397.165	105.750	0.140	-0.166
-396.150	734.112	-0.077	0.206
-395.136	-92.951	-0.515	-0.144
-394.121	-173.843	0.208	-0.006
-393.106	-200.000	-0.060	0.274
-392.092	-29.781	-0.332	0.189
-391.077	195.721	-0.110	0.167
-390.063	43.833	0.132	0.120
-389.048	-200.000	-0.023	-0.124
-388.033	42.075	0.285	-0.258
-387.019	-200.000	-0.009	0.198
-386.004	52.546	-0.222	0.212
-384.990	357.838	-0.070	-0.140
-383.975	-21.212	0.184	-0.112
-382.960	-70.376	-0.163	0.062
-381.946	-59.734	-0.244	-0.105
-380.931	162.715	0.079	0.111
-379.917	-200.000	0.003	-0.121
-378.902	-12.484	0.332	0.217
-377.888	-27.810	0.127	-0.073
-376.873	-176.142	-0.295	0.008
-375.858	496.053	0.101	-0.231
-374.844	64.285	0.158	0.158
-373.829	30.348	-0.204	0.174
-372.815	-84.380	-0.306	-0.097
-371.800	-70.384	-0.248	0.094
-370.785	800.000	-0.024	-0.099
-369.771	-200.000	0.058	-0.262
-368.756	453.128	-0.058	-0.127
-367.742	-200.000	-0.026	0.173
-366.727	-17.167	-0.053	0.033
-365.712	-200.000	0.041	-0.237
-364.698	800.000	0.052	0.148
-363.683	301.277	0.084	-0.154
-362.669	242.145	0.132	0.220
-361.654	55.181	0.184	-0.177
-360.639	-8.700	0.090	-0.060
-359.625	135.397	0.091	-0.119
-358.610	-149.695	0.079	-0.006
-357.596	800.000	-0.013	0.051
-356.581	60.119	-0.039	0.038
-355.566	-124.608	0.367	-0.057
-354.552	-200.000	0.071	0.332
-353.537	70.431	0.219	0.226
-352.523	9.621	0.134	0.102
-351.508	-200.000	0.041	0.226
-350.493	800.000	0.083	-0.293
-349.479	-34.726	0.116	0.063
-348.464	25.978	0.228	0.190
-347.450	-57.648	0.224	-0.098
-346.435	64.282	-0.162	-0.163
-345.420	-200.000	0.257	0.000
-344.406	346.429	0.152	-0.299
-343.391	13.776	-0.146	-0.114
-342.377	-17.429	0.072	0.045
-341.362	94.284	0.113	0.128
-340.348	65.488	0.357	0.360
-339.333	-0.641	-0.189	-0.134
-338.318	-92.656	0.289	0.081
-337.304	-200.000	-0.017	0.102
-336.289	42.375	0.137	0.124
-335.275	-200.000	0.336	0.000
-334.260	-58.698	0.179	0.077
-333.245	-76.957	-0.226	0.079
-332.231	143.406	-0.168	-0.224
-331.216	-200.000	0.004	0.064
-330.202	-89.497	0.288	0.084
-329.187	17.206	0.222	-0.175
-328.172	-189.374	0.092	0.001
-327.158	117.998	0.102	0.126
-326.143	447.712	-0.068	-0.149
-325.129	-145.485	0.223	-0.020
-324.114	-42.997	0.094	-0.048
-323.099	800.000	0.120	-0.434
-322.085	800.000	0.062	0.204
-321.070	109.380	-0.124	-0.148
-320.056	-3.268	0.143	-0.100
-319.041	-37.704	0.198	-0.105
-318.026	-128.534	-0.322	-0.045
-317.012	-174.097	-0.339	0.010
-315.997	800.000	-0.087	-0.290
-314.983	-65.626	-0.248	-0.099
-313.968	-2.037	-0.109	-0.076
-312.953	65.673	-0.292	0.295
-311.939	-90.171	-0.109	-0.032
-310.924	-200.000	0.023	0.123
-309.910	-45.419	0.291	0.144
-308.895	-5.568	0.081	0.055
-307.880	-200.000	-0.039	0.199
-306.866	74.038	0.022	0.023
-305.851	-16.898	-0.030	-0.019
-304.837	800.000	-0.122	0.451
-303.822	800.000	0.014	0.055
-302.807	159.556	0.178	-0.246
-301.793	140.973	0.183	-0.241
-300.778	800.000	0.117	-0.357
-299.764	-200.000	0.036	0.199
-298.749	-85.314	0.248	0.077
-297.735	-91.019	-0.186	-0.053
-296.720	800.000	0.107	0.302
-295.705	800.000	0.103	0.308
-294.691	89.836	-0.217	0.241
-293.676	-72.005	-0.141	0.052
-292.662	-78.740	0.242	-0.082
-291.647	-24.249	-0.267	0.159
-290.632	-200.000	0.009	0.134
-289.618	48.586	0.128	0.120
-288.603	539.530	0.114	0.271
-287.589	-104.416	0.121	-0.028
-286.574	-200.000	0.031	0.290
-285.559	-124.785	0.063	0.010
-284.545	173.706	-0.066	-0.095
-283.530	800.000	-0.047	-0.145
-282.516	-37.021	-0.296	-0.158
-281.501	-200.000	-0.015	-0.341
-280.486	139.462	0.081	0.106
-279.472	166.877	0.027	0.038
-278.457	-200.000	-0.008	0.165
-277.443	56.457	-0.162	0.156
-276.428	800.000	0.086	-0.240
-275.413	-61.683	-0.097	-0.040
-274.399	273.761	-0.107	-0.189
-273.384	262.223	0.071	0.123
-272.370	800.000	-0.044	-0.152
-271.355	41.759	0.116	0.105
-270.340	87.728	-0.175	0.193
-269.326	-179.166	-0.262	0.006
-268.311	194.350	0.111	-0.167
-267.297	-59.376	0.099	0.042
-266.282	-200.000	-0.012	-0.097
-265.267	-113.729	-0.253	0.049
-264.253	152.003	-0.017	0.023
-263.238	25.766	0.150	0.124
-262.224	-200.000	0.021	-0.137
-261.209	-94.365	0.241	-0.065
-260.195	192.721	-0.097	-0.146
-259.180	71.676	-0.154	0.159
-258.165	-133.511	-0.280	-0.035
-257.151	-26.572	0.053	0.031
-256.136	-80.933	-0.510	-0.168
-255.122	193.042	-0.097	0.146
-254.107	-200.000	-0.014	0.156
-253.092	-200.000	-0.041	0.192
-252.078	-81.559	0.243	-0.080
-251.063	-123.658	0.221	0.035
-250.049	-115.670	0.361	0.067
-249.034	-129.438	0.292	-0.040
-248.019	120.565	0.188	-0.232
-247.005	-31.914	-0.159	-0.089
-245.990	63.924	-0.256	0.256
-244.976	-19.864	-0.139	0.085
-243.961	-80.401	0.203	-0.067
-242.946	800.000	0.053	0.221
-241.932	-90.392	0.475	0.137
-240.917	-168.872	0.174	-0.006
-239.903	-104.818	0.144	-0.033
-238.888	35.773	-0.369	-0.322
-237.873	100.648	0.163	-0.188
-236.859	-172.891	0.148	-0.005
-235.844	800.000	-0.062	-0.198
-234.830	300.041	0.134	0.245
-233.815	68.751	-0.116	0.119
-232.800	-200.000	0.010	0.293
-231.786	-104.518	0.285	-0.065
-230.771	312.296	0.135	0.251
-229.757	-168.786	0.279	-0.010
-228.742	800.000	-0.063	-0.243
-227.727	-106.995	0.103	0.023
-226.713	-110.402	0.106	-0.022
-225.698	-48.963	-0.073	0.035
-224.684	159.766	0.143	-0.198
-223.669	-110.214	0.043	0.009
-222.655	39.564	-0.159	-0.142
-221.640	-24.977	0.095	-0.056
-220.625	348.691	-0.112	0.219
-219.611	43.086	0.068	-0.062
-218.596	25.519	-0.183	-0.151
-217.582	-61.631	0.076	0.032
-216.567	21.509	-0.143	0.115
-215.552	800.000	-0.056	0.191
-214.538	-200.000	-0.084	-0.421
-213.523	-167.066	-0.222	0.009
-212.509	-82.992	0.286	0.091
-211.494	1.147	-0.215	-0.153
-210.479	-87.521	0.508	0.152
-209.465	629.998	0.088	-0.222
-208.450	-200.000	-0.001	0.089
-207.436	163.731	0.183	0.255
-206.421	32.394	0.142	0.122
-205.406	-8.960	0.121	-0.080
-204.392	-9.364	-0.174	-0.115
-203.377	-200.000	-0.019	0.211
-202.363	72.859	0.050	0.051
-201.348	-197.678	0.234	0.001
-200.333	1.747	0.038	-0.027
-199.319	-24.626	0.218	-0.129
-198.304	-200.000	-0.026	-0.236
-197.290	-141.985	-0.196	-0.019
-196.275	-200.000	-0.022	0.213
-195.260	6.185	-0.111	0.081
-194.246	46.970	0.114	0.105
-193.231	-134.665	0.149	-0.018
-192.217	-116.138	0.141	-0.026
-191.202	-200.000	0.054	0.268
-190.187	358.041	-0.088	0.175
-189.173	210.539	-0.217	-0.338
-188.158	357.896	-0.083	-0.164
-187.144	-167.806	-0.153	-0.006
-186.129	-115.887	0.268	0.050
-185.114	10.743	-0.208	-0.157
-184.100	-23.267	0.183	-0.109
-183.085	-200.000	0.037	0.490
-182.071	-14.358	0.266	-0.170
-181.056	-75.838	-0.694	0.244
-180.042	254.563	0.276	0.468
-179.027	-141.421	-0.333	0.033
-178.012	-200.000	-0.018	-0.153
-176.998	263.727	0.097	-0.166
-175.983	-56.501	-0.278	-0.122
-174.969	56.878	0.130	-0.126
-173.954	-129.214	0.274	0.038
-172.939	800.000	-0.070	-0.287
-171.925	116.897	-0.167	0.204
-170.910	-193.140	-0.109	-0.001
-169.896	-200.000	0.022	-0.214
-168.881	28.171	-0.059	0.049
-167.866	83.879	-0.135	-0.146
-166.852	-200.000	-0.011	0.149
-165.837	-20.383	-0.098	-0.060
-164.823	-35.544	0.350	-0.188
-163.808	345.190	-0.126	0.244
-162.793	201.485	0.137	-0.209
-161.779	800.000	-0.101	-0.312
-160.764	106.954	0.319	-0.376
-159.750	35.146	-0.061	-0.053
-158.735	-200.000	0.041	0.236
-157.720	-24.687	0.276	-0.163
-156.706	-106.180	-0.193	0.043
-155.691	-107.676	0.241	-0.052
-154.677	-62.503	0.134	-0.055
-153.662	-80.426	-0.079	-0.026
-152.647	-35.759	0.134	-0.072
-151.633	-171.400	-0.304	-0.010
-150.618	-166.103	0.425	0.018
-149.604	800.000	0.068	0.265
-148.589	-188.608	0.104	0.001
-147.574	-74.778	0.142	0.050
-146.560	194.485	-0.086	-0.130
-145.545	-200.000	-0.006	-0.080
-144.531	-200.000	0.019	-0.212
-143.516	161.435	-0.110	-0.153
-142.502	-131.351	0.334	-0.044
-141.487	36.494	0.042	-0.036
-140.472	-47.529	0.369	0.178
-139.458	651.123	0.052	0.131
-138.443	26.584	-0.159	-0.132
-137.429	800.000	0.046	0.127
-136.414	500.249	0.075	-0.171
-135.399	-1.440	-0.138	-0.096
-134.385	-200.000	0.073	0.464
-133.370	-15.290	-0.179	0.113
-132.356	110.392	0.102	-0.121
-131.341	11.814	0.114	-0.087
-130.326	715.161	0.065	0.170
-129.312	800.000	-0.040	0.159
-128.297	-108.725	-0.145	0.031
-127.283	-67.800	0.219	-0.085
-126.268	-142.720	-0.302	-0.029
-125.253	132.654	-0.116	0.148
-124.239	193.464	0.024	0.036
-123.224	175.251	0.115	-0.165
-122.210	78.826	-0.097	-0.103
-121.195	-138.845	-0.345	0.037
-120.180	-200.000	-0.050	-0.449
-119.166	-15.960	-0.490	-0.308
-118.151	153.966	0.324	-0.439
-117.137	800.000	-0.044	-0.161
-116.122	28.775	-0.294	-0.246
-115.107	-171.086	0.320	0.011
-114.093	585.257	-0.098	0.237
-113.078	221.851	-0.180	0.286
-112.064	-138.774	-0.398	-0.043
-111.049	13.291	-0.131	0.100
-110.034	-16.849	-0.343	-0.214
-109.020	150.083	-0.092	-0.124
-108.005	-200.000	0.001	-0.219
-106.991	-33.104	-0.066	-0.036
-105.976	-200.000	0.046	-0.279
-104.962	-54.347	-0.167	0.075
-103.947	-181.616	0.515	-0.010
-102.932	-195.107	0.272	-0.002
-101.918	-93.785	-0.130	0.035
-100.903	176.458	-0.061	0.088
-99.889	-200.000	-0.019	0.184
-98.874	-104.747	0.121	0.028
-97.859	292.830	0.121	-0.218
-96.845	800.000	0.108	0.330
-95.830	800.000	0.111	0.315
-94.816	-200.000	0.039	-0.256
-93.801	686.032	-0.156	0.403
-92.786	-103.892	-0.157	-0.036
-91.772	9.758	0.150	-0.112
-90.757	-200.000	0.053	0.381
-89.743	-61.287	0.201	0.084
-88.728	486.532	-0.057	-0.129
-87.713	800.000	0.026	0.099
-86.699	172.192	0.066	0.094
-85.684	-144.435	0.085	0.008
-84.670	800.000	-0.008	0.028
-83.655	-116.554	0.216	-0.039
-82.640	130.473	0.149	-0.188
-81.626	295.162	-0.152	-0.275
-80.611	-200.000	-0.003	-0.025
-79.597	800.000	0.046	0.166
-78.582	100.841	-0.104	-0.120
-77.567	183.531	-0.058	0.084
-76.553	534.597	0.102	0.240
-75.538	-200.000	0.086	0.485
-74.524	-200.000	0.037	-0.463
-73.509	92.705	-0.162	0.180
-72.494	-200.000	0.039	0.236
-71.480	600.809	0.110	0.271
-70.465	261.373	0.021	0.035
-69.451	-170.130	-0.214	-0.007
-68.436	319.166	-0.047	0.089
-67.422	-136.021	0.042	0.005
-66.407	-65.529	-0.061	-0.024
-65.392	-74.085	-0.175	0.063
-64.378	-112.333	0.142	-0.028
-63.363	27.570	-0.291	0.241
-62.349	-87.363	-0.498	0.149
-61.334	47.088	-1.057	-0.971
-60.319	-43.799	0.472	0.235
-59.305	-200.000	-0.117	-1.161
-58.290	336.867	0.645	1.236
-57.276	744.492	0.596	1.582
-56.261	-200.000	95.714	565.447
-55.246	623.124	1383.573	3437.444
-54.232	194.524	2567.016	3839.618
-53.217	117.694	2171.004	2635.852
-52.203	43.941	1712.315	1547.320
-51.188	36.768	1525.320	1329.259
-50.173	34.297	1498.330	1288.988
-49.159	53.481	1546.286	1462.461
-48.144	55.564	1565.059	1494.473
-47.130	36.806	1524.111	1328.257
-46.115	33.790	1509.186	1294.664
-45.100	33.677	1505.840	1290.978
-44.086	33.548	1504.247	1288.682
-43.071	33.625	1501.833	1287.086
-42.057	33.584	1500.181	1285.342
-41.042	33.591	1498.883	1284.224
-40.027	33.575	1497.779	1283.122
-39.013	33.535	1495.912	1281.198
-37.998	33.544	1495.144	1280.553
-36.984	33.568	1493.770	1279.484
-35.969	33.568	1492.369	1278.235
-34.954	33.548	1490.935	1276.823
-33.940	33.609	1489.467	1275.926
-32.925	33.556	1488.322	1274.537
-31.911	33.593	1487.019	1273.618
-30.896	33.562	1485.932	1272.433
-29.881	33.773	1483.870	1272.029
-28.867	33.651	1482.562	1270.037
-27.852	33.546	1481.549	1268.416
-26.838	33.673	1479.835	1267.751
-25.823	33.658	1478.814	1266.725
-24.809	33.616	1477.258	1265.063
-23.794	33.596	1475.693	1263.537
-22.779	33.580	1474.173	1262.080
-21.765	33.645	1473.147	1261.580
-20.750	33.652	1472.060	1260.649
-19.736	33.659	1470.467	1259.281
-18.721	33.464	1470.514	1257.973
-17.706	33.472	1469.354	1256.990
-16.692	33.500	1468.027	1255.985
-15.677	33.561	1466.579	1255.103
-14.663	33.579	1465.617	1254.351
-13.648	33.499	1465.103	1253.329
-12.633	33.528	1463.914	1252.453
-11.619	33.602	1462.907	1252.033
-10.604	33.498	1462.247	1250.732
-9.590	33.491	1461.572	1250.059
-8.575	33.500	1460.749	1249.365
-7.560	33.545	1459.533	1248.572
-6.546	33.515	1458.520	1247.454
-5.531	33.467	1458.450	1247.030
-4.517	33.463	1456.730	1245.485
-3.502	33.540	1456.094	1245.399
-2.487	33.500	1454.767	1243.951
-1.473	33.507	1454.160	1243.429
-0.458	33.552	1452.646	1242.377
0.556	32.958	1443.144	1230.827
1.571	29.814	1417.182	1188.421
2.586	26.068	1355.660	1113.654
3.600	24.301	1273.786	1036.048
4.615	22.874	1227.512	990.323
5.629	19.701	1171.412	927.974
6.644	11.863	1088.388	822.875
7.659	5.811	1048.229	763.068
8.673	4.990	1043.132	755.316
9.688	4.885	1040.423	752.780
10.702	4.912	1038.586	751.514
11.717	4.723	1037.569	749.803
12.731	6.973	1038.671	761.374
13.746	14.158	1048.933	803.654
14.761	19.367	1054.785	833.304
15.775	19.081	1054.014	831.242
16.790	18.122	1051.671	824.697
17.804	17.044	1049.374	817.631
18.819	16.223	1047.729	812.324
19.834	15.743	1045.799	808.451
20.848	15.473	1045.275	806.679
21.863	15.290	1043.895	804.664
22.877	14.950	1043.748	802.846
23.892	14.840	1042.976	801.656
24.907	14.873	1041.855	800.879
25.921	14.850	1041.351	800.313
26.936	14.745	1040.491	799.080
27.950	14.817	1039.229	798.382
28.965	14.800	1038.512	797.680
29.980	14.902	1037.161	797.055
30.994	15.183	1035.775	797.257
32.009	15.183	1035.398	796.900
33.023	15.113	1034.616	795.895
34.038	15.165	1033.901	795.521
35.053	15.094	1032.972	794.400
36.067	15.017	1031.900	793.136
37.082	14.959	1031.068	792.152
38.096	15.045	1030.220	791.841
39.111	15.086	1029.531	791.433
40.126	15.130	1028.876	791.066
41.140	14.898	1027.629	788.943
42.155	14.804	1026.858	787.837
43.169	14.667	1025.988	786.458
44.184	14.755	1024.567	785.711
45.199	14.682	1023.559	784.525
46.213	14.768	1022.393	783.968
47.228	14.632	1021.609	782.659
48.242	14.990	1020.590	783.483
49.257	14.858	1019.890	782.260
50.271	14.830	1019.069	781.430
51.286	14.874	1017.954	780.711
52.301	14.916	1017.203	780.261
53.315	14.890	1016.219	779.320
54.330	14.887	1015.033	778.325
55.344	14.849	1014.113	777.374
56.359	14.804	1013.234	776.422
57.374	14.932	1012.124	776.098
58.388	14.845	1011.616	775.235
59.403	14.739	1011.105	774.286
60.417	14.840	1009.886	773.750
61.432	14.842	1008.868	772.911
62.447	14.691	1008.835	772.118
63.461	14.530	1008.105	770.749
64.476	14.504	1006.994	769.710
65.490	14.573	1006.071	769.254
66.505	14.584	1005.299	768.649
67.520	14.704	1004.559	768.565
68.534	14.629	1003.740	767.528
69.549	14.718	1002.830	767.172
70.563	14.551	1002.559	766.129
71.578	14.561	1001.732	765.477
72.593	14.680	1000.712	765.172
73.607	14.435	999.943	763.398
74.622	14.422	999.311	762.786
75.636	14.422	998.131	761.819
76.651	14.562	997.180	761.664
77.666	14.562	996.290	760.918
78.680	14.506	995.778	760.203
79.695	14.568	995.191	759.973
80.709	14.651	994.392	759.672
81.724	14.633	994.157	759.344
82.739	14.723	993.187	758.946
83.753	14.668	992.626	758.199
84.768	14.850	991.868	758.377
85.782	14.983	991.251	758.444
86.797	15.119	990.244	758.220
87.812	14.924	990.088	757.150
88.826	14.954	988.624	756.100
89.841	14.868	987.913	755.098
90.855	14.885	987.456	754.760
91.870	14.943	986.651	754.341
92.884	15.185	985.726	754.656
93.899	14.913	985.174	752.944
94.914	15.079	984.574	753.167
95.928	14.949	983.607	751.773
96.943	15.162	982.826	752.067
97.957	15.091	982.285	751.268
98.972	14.986	980.990	749.739
99.987	15.035	980.461	749.490
101.001	15.039	979.945	749.048
102.016	15.005	979.114	748.193
103.030	14.913	978.112	746.950
104.045	15.144	976.897	746.988
105.060	15.082	976.099	746.032
106.074	14.972	975.489	745.010
107.089	14.882	974.025	743.427
108.103	14.796	973.464	742.553
109.118	14.643	972.579	741.130
110.133	14.710	971.891	740.840
111.147	14.694	971.050	740.061
112.162	14.622	970.491	739.250
113.176	14.601	969.776	738.547
114.191	14.598	969.085	737.945
115.206	14.779	967.836	737.728
116.220	14.799	967.158	737.231
117.235	14.644	966.578	736.041
118.249	14.679	965.819	735.554
119.264	14.795	964.547	735.031
120.279	14.591	964.068	733.703
121.293	14.687	963.225	733.416
122.308	14.683	962.298	732.628
123.322	14.609	961.510	731.642
124.337	14.630	960.337	730.777
125.352	14.540	959.394	729.598
126.366	14.522	958.269	728.600
127.381	14.538	957.288	727.859
128.395	14.625	956.067	727.247
129.410	14.656	955.364	726.782
130.424	14.748	954.266	726.284
131.439	14.661	953.444	725.217
132.454	14.837	952.530	725.218
133.468	14.731	952.110	724.375
134.483	14.883	951.702	724.662
135.497	14.817	950.731	723.572
136.512	14.790	950.054	722.875
137.527	14.809	949.578	722.530
138.541	14.906	948.647	722.176
139.556	14.809	948.148	721.317
140.570	14.856	947.345	720.841
141.585	14.820	946.872	720.263
142.600	14.918	946.003	719.961
143.614	15.007	945.181	719.656
144.629	14.965	944.635	718.995
145.643	15.071	944.023	718.919
146.658	15.054	943.137	718.111
147.673	14.948	942.139	716.833
148.687	14.910	941.064	715.789
149.702	14.894	940.393	715.145
150.716	14.800	939.121	713.714
151.731	14.787	938.759	713.317
152.746	14.795	938.205	712.870
153.760	14.964	937.484	712.978
154.775	14.836	936.840	711.881
155.789	14.853	936.333	711.507
156.804	15.075	934.924	711.314
157.819	15.007	934.483	710.628
158.833	15.033	933.494	709.922
159.848	15.031	933.553	709.897
160.862	15.212	932.780	710.013
161.877	15.164	931.811	709.010
162.892	14.990	930.630	707.313
163.906	14.791	930.218	706.096
164.921	14.839	929.536	705.717
165.935	14.840	928.481	704.858
166.950	14.948	926.994	704.124
167.964	15.085	925.988	703.873
168.979	15.055	925.451	703.274
169.994	14.963	924.179	701.859
171.008	14.884	923.683	701.092
172.023	15.038	922.745	700.961
173.037	15.041	922.589	700.795
174.052	15.070	921.750	700.216
175.067	15.334	920.403	700.234
176.081	15.094	920.031	698.886
177.096	14.956	919.087	697.532
178.110	15.003	918.283	697.058
179.125	14.976	917.573	696.342
180.140	15.005	917.040	695.997
181.154	15.182	916.055	695.922
182.169	15.276	915.108	695.534
183.183	15.259	914.873	695.222
184.198	15.421	914.076	695.225
185.213	15.203	913.816	694.064
186.227	15.377	912.856	693.994
187.242	15.310	912.611	693.468
188.256	15.312	911.907	692.881
189.271	15.496	911.189	693.034
190.286	15.410	910.516	692.107
191.300	15.360	909.400	690.988
192.315	15.088	908.837	689.382
193.329	15.123	907.758	688.645
194.344	14.965	907.464	687.712
195.359	14.932	907.097	687.239
196.373	15.207	906.149	687.587
197.388	15.212	906.116	687.520
198.402	15.207	905.926	687.295
199.417	15.508	905.120	687.859
200.432	15.562	904.502	687.548
201.446	15.513	904.256	687.099
202.461	15.651	903.838	687.286
203.475	15.560	903.670	686.725
204.490	15.636	902.706	686.243
205.504	15.556	901.353	684.825
206.519	15.528	900.607	684.085
207.534	15.566	899.871	683.622
208.548	15.424	899.536	682.729
209.563	15.490	898.495	682.147
210.577	15.454	898.113	681.648
211.592	15.513	897.265	681.186
212.607	15.578	897.161	681.310
213.621	15.640	896.514	681.009
214.636	15.658	895.697	680.401
215.650	15.759	894.662	679.963
216.665	15.683	894.565	679.520
217.680	15.719	893.867	679.074
218.694	15.831	893.352	679.076
219.709	15.856	892.768	678.673
220.723	15.769	892.184	677.820
221.738	15.770	891.741	677.424
222.753	15.808	890.630	676.676
223.767	15.750	890.329	676.154
224.782	15.926	889.280	676.003
225.796	15.867	888.451	675.078
226.811	15.956	887.946	674.992
227.826	15.898	887.241	674.163
228.840	15.879	886.781	673.677
229.855	15.747	886.043	672.528
230.869	15.856	885.256	672.308
231.884	15.889	884.546	671.840
232.899	15.805	884.120	671.123
233.913	15.662	883.424	669.965
234.928	15.667	882.599	669.301
235.942	15.791	882.017	669.293
236.957	15.568	881.339	667.832
237.972	15.745	880.589	667.906
238.986	15.906	879.908	667.973
240.001	15.787	879.308	666.983
241.015	15.639	879.085	666.172
242.030	15.744	878.323	665.950
243.045	15.834	877.750	665.811
244.059	15.806	877.152	665.187
245.074	15.901	876.468	664.985
246.088	15.810	876.146	664.324
247.103	15.956	875.581	664.413
248.117	16.005	874.687	663.870
249.132	16.060	874.342	663.764
250.147	16.154	873.869	663.718
251.161	16.478	872.724	664.061
252.176	16.410	872.320	663.427
253.190	16.386	871.916	662.969
254.205	16.348	871.797	662.672
255.220	16.442	870.597	662.066
256.234	16.447	870.021	661.592
257.249	16.459	869.381	661.092
258.263	16.537	868.804	660.900
259.278	16.482	868.607	660.477
260.293	16.422	868.222	659.892
261.307	16.396	867.517	659.195
262.322	16.582	866.887	659.382
263.336	16.609	866.036	658.784
264.351	16.662	865.595	658.594
265.366	16.595	864.984	657.812
266.380	16.612	864.329	657.322
267.395	16.723	863.354	656.953
268.409	16.657	862.589	656.055
269.424	16.540	862.517	655.491
270.439	16.655	861.302	654.954
271.453	16.404	861.146	653.806
272.468	16.468	860.341	653.384
273.482	16.392	859.887	652.687
274.497	16.580	858.936	652.634
275.512	16.585	858.297	652.111
276.526	16.642	857.518	651.680
277.541	16.496	857.388	650.961
278.555	16.637	856.285	650.610
279.570	16.657	856.214	650.574
280.585	16.680	855.776	650.270
281.599	16.880	854.700	650.165
282.614	16.804	854.112	649.367
283.628	16.757	853.299	648.512
284.643	16.637	852.997	647.765
285.657	16.730	852.587	647.752
286.672	16.692	852.259	647.303
287.687	16.671	851.425	646.529
288.701	16.840	850.900	646.721
289.716	16.935	850.257	646.534
290.730	16.754	849.893	645.510
291.745	16.783	849.399	645.188
292.760	16.783	848.249	644.259
293.774	16.813	847.835	644.003
294.789	16.884	847.488	643.953
295.803	17.065	846.505	643.836
296.818	16.997	846.305	643.367
297.833	16.834	845.456	642.047
298.847	16.890	844.969	641.833
299.862	16.962	844.430	641.640
300.876	16.956	843.613	640.939
301.891	17.033	843.069	640.758
302.906	17.090	842.507	640.490
303.920	17.140	841.869	640.137
304.935	17.197	841.329	639.885
305.949	17.256	840.539	639.450
306.964	17.273	840.070	639.101
307.979	17.140	839.688	638.254
308.993	17.169	838.625	637.496
310.008	17.236	838.119	637.306
311.022	17.181	837.946	636.913
312.037	17.228	837.440	636.649
313.052	17.227	836.805	636.105
314.066	16.989	836.575	634.984
315.081	16.960	835.759	634.201
316.095	17.068	834.986	633.962
317.110	17.055	834.350	633.374
318.125	17.070	833.901	633.030
319.139	16.977	833.518	632.337
320.154	17.200	832.965	632.696
321.168	17.074	832.487	631.807
322.183	17.157	831.734	631.486
323.197	17.091	831.557	631.052
324.212	17.184	830.781	630.750
325.227	17.249	830.231	630.520
326.241	17.138	829.732	629.672
327.256	17.192	829.035	629.289
328.270	17.299	828.328	629.091
329.285	17.256	827.591	628.319
330.300	17.186	827.010	627.562
331.314	17.195	826.848	627.419
332.329	17.184	826.268	626.883
333.343	17.248	825.558	626.524
334.358	17.349	825.349	626.682
335.373	17.408	824.688	626.343
336.387	17.370	824.110	625.708
337.402	17.487	823.511	625.628
338.416	17.494	822.924	625.153
339.431	17.539	822.476	624.922
340.446	17.650	822.199	625.061
341.460	17.656	821.634	624.601
342.475	17.665	821.009	624.103
343.489	17.671	820.496	623.678
344.504	17.791	819.907	623.615
345.519	17.734	819.794	623.265
346.533	17.708	819.399	622.814
347.548	17.766	818.654	622.404
348.562	17.606	818.279	621.482
349.577	17.666	817.610	621.137
350.592	17.590	816.704	620.117
351.606	17.544	816.384	619.652
352.621	17.514	816.131	619.296
353.635	17.388	815.773	618.510
354.650	17.479	815.183	618.338
355.665	17.728	814.569	618.723
356.679	17.715	814.166	618.315
357.694	17.662	813.980	617.925
358.708	17.748	813.368	617.718
359.723	17.719	812.425	616.842
360.738	17.716	812.011	616.462
361.752	17.962	811.329	616.780
362.767	17.717	810.985	615.580
363.781	17.915	810.721	616.040
364.796	17.946	810.338	615.804
365.810	18.085	809.820	615.859
366.825	17.978	809.568	615.225
367.840	18.154	809.089	615.442
368.854	18.128	808.765	615.046
369.869	18.175	807.518	614.214
370.883	18.100	807.329	613.747
371.898	17.970	807.170	613.102
372.913	18.102	806.462	612.986
373.927	18.191	805.995	612.894
374.942	18.117	805.459	612.169
375.956	18.031	804.815	611.318
376.971	18.249	804.017	611.434
377.986	18.370	803.680	611.559
379.000	18.291	802.976	610.685
380.015	18.232	802.762	610.258
381.029	18.320	802.530	610.342
382.044	18.437	801.410	609.851
383.059	18.510	800.815	609.605
384.073	18.303	800.604	608.654
385.088	18.401	799.958	608.459
386.102	18.319	799.223	607.554
387.117	18.371	798.526	607.153
388.132	18.179	798.226	606.194
389.146	18.208	798.050	606.108
390.161	18.280	797.557	605.936
391.175	18.418	797.452	606.291
392.190	18.406	796.701	605.623
393.205	18.427	796.153	605.227
394.219	18.256	795.818	604.316
395.234	18.328	795.500	604.275
396.248	18.302	794.675	603.502
397.263	18.176	794.192	602.637
398.278	18.196	793.792	602.351
399.292	17.965	793.576	601.321
400.307	18.040	793.088	601.162
401.321	18.198	792.555	601.261
402.336	18.153	792.374	600.913
403.350	18.310	791.954	601.090
404.365	18.390	791.308	600.829
405.380	18.374	791.059	600.530
406.394	18.350	790.545	600.002
407.409	18.538	790.196	600.345
408.423	18.693	789.481	600.291
409.438	18.665	789.214	599.934
410.453	18.730	788.968	599.921
411.467	18.670	788.597	599.378
412.482	18.773	788.124	599.325
413.496	18.708	787.685	598.711
414.511	18.799	787.388	598.749
415.526	18.779	786.965	598.306
416.540	18.819	786.477	598.019
417.555	18.648	785.963	596.982
418.569	18.689	785.541	596.751
419.584	18.829	784.933	596.723
420.599	18.999	784.387	596.844
421.613	156.137	1369.579	1792.782
422.628	134.868	1454.853	1792.882
