DTS Sentinel unit serial number:	SN413079Multiplexer serial number:	ORYXHardware model number:	OX4-SRSoftware version number:	ORYX F/W v4.00 Oryx Data Collector v3.7.2.0data status	okinstallation	princeton_trtdifferential loss correction	single-endedforward channel	channel 3reverse channel	N/Adate	2019/09/12time	22:44:34forward acquisition time	60.00reverse acquisition time	0.00gamma	496.2192k internal	0.2326k external	0.2326temperature offset calibration	1.0136default loss term (dB/km)	0.3790temperature slope calibration	1.0000multiplexer offset coefficient	1.0000multiplexer slope coefficient	1.0000fibre end	0.00T internal ref (°C)	29.50T ext. ref 1 (°C)	3.74T ext. ref 2 (°C)	24.11length (m)	temperature (°C)	Stokes	anti-Stokes-747.200	-200.000	0.014	-0.128
-746.185	-69.630	0.137	0.053
-745.171	-113.590	-0.223	0.044
-744.156	34.946	0.066	0.058
-743.142	-68.647	0.113	0.044
-742.127	800.000	0.014	-0.038
-741.112	238.740	0.180	-0.302
-740.098	-200.000	-0.031	0.337
-739.083	6.135	-0.222	0.166
-738.069	81.835	0.104	0.113
-737.054	2.577	-0.050	0.037
-736.039	-157.486	-0.442	0.027
-735.025	67.240	-0.217	-0.223
-734.010	-200.000	0.003	-0.305
-732.996	-108.016	-0.256	0.056
-731.981	800.000	0.111	-0.333
-730.966	-81.815	-0.416	-0.137
-729.952	-79.669	0.284	-0.097
-728.937	1.718	-0.137	-0.099
-727.923	758.843	-0.135	0.368
-726.908	-117.076	0.073	-0.013
-725.894	-83.147	-0.325	-0.105
-724.879	684.989	-0.118	-0.310
-723.864	6.664	0.330	0.247
-722.850	-92.120	0.268	-0.076
-721.835	-56.598	-0.034	0.015
-720.821	-103.785	-0.102	-0.024
-719.806	237.414	-0.068	0.114
-718.791	65.393	-0.347	-0.354
-717.777	146.180	0.154	-0.208
-716.762	-80.596	-0.312	-0.105
-715.748	-62.019	0.136	0.057
-714.733	130.263	-0.139	-0.179
-713.718	520.512	-0.044	-0.103
-712.704	-200.000	0.014	0.161
-711.689	89.661	0.107	0.120
-710.675	350.133	-0.211	-0.421
-709.660	-200.000	0.017	0.352
-708.645	-115.074	-0.062	-0.012
-707.631	-62.564	-0.214	0.089
-706.616	209.663	0.235	-0.371
-705.602	99.089	0.217	-0.252
-704.587	185.051	-0.220	-0.329
-703.572	136.630	0.078	0.103
-702.558	-94.513	0.298	-0.082
-701.543	-200.000	-0.001	0.155
-700.529	258.531	-0.089	-0.155
-699.514	800.000	-0.079	-0.317
-698.499	-89.127	-0.038	-0.011
-697.485	-58.209	-0.285	-0.125
-696.470	-55.895	0.114	-0.051
-695.456	-151.997	0.043	0.003
-694.441	14.115	0.174	0.136
-693.426	-67.140	0.066	-0.026
-692.412	-10.999	-0.148	0.098
-691.397	375.872	0.129	0.264
-690.383	-18.184	0.156	-0.098
-689.368	-200.000	0.032	-0.176
-688.354	-147.403	-0.208	0.018
-687.339	-91.552	-0.254	0.073
-686.324	70.943	0.120	-0.125
-685.310	126.930	0.121	-0.155
-684.295	229.799	-0.079	0.131
-683.281	-158.473	-0.482	0.028
-682.266	19.223	-0.092	0.074
-681.251	350.573	-0.134	-0.267
-680.237	-200.000	-0.007	0.149
-679.222	-9.770	-0.250	-0.168
-678.208	395.798	0.103	-0.217
-677.193	-200.000	0.015	-0.282
-676.178	-151.956	-0.302	-0.022
-675.164	49.696	-0.116	-0.110
-674.149	356.414	0.086	-0.172
-673.135	-200.000	0.017	-0.152
-672.120	-143.587	-0.407	-0.039
-671.105	800.000	0.040	0.152
-670.091	-95.857	0.200	-0.054
-669.076	-53.175	-0.250	-0.115
-668.062	422.606	-0.047	-0.101
-667.047	-77.047	-0.194	-0.068
-666.032	-129.416	-0.083	0.012
-665.018	10.564	-0.164	0.126
-664.003	800.000	0.088	-0.301
-662.989	-101.120	-0.342	-0.084
-661.974	-200.000	0.002	-0.180
-660.959	128.397	-0.241	-0.309
-659.945	-2.557	-0.086	-0.061
-658.930	26.935	0.243	0.205
-657.916	1.097	-0.141	0.101
-656.901	-89.974	0.087	0.026
-655.886	-132.014	-0.212	0.028
-654.872	-200.000	-0.064	0.399
-653.857	215.387	-0.078	0.124
-652.843	-161.499	0.283	-0.015
-651.828	-77.280	0.167	0.058
-650.814	619.536	-0.055	-0.140
-649.799	48.195	-0.185	0.174
-648.784	205.848	0.071	0.111
-647.770	-139.292	-0.080	-0.009
-646.755	435.181	-0.054	0.119
-645.741	529.056	-0.118	0.280
-644.726	68.537	0.069	0.071
-643.711	800.000	0.025	-0.092
-642.697	-130.832	-0.213	0.029
-641.682	-97.013	-0.136	-0.036
-640.668	-168.202	-0.335	-0.013
-639.653	-9.133	0.292	-0.196
-638.638	-36.152	-0.295	0.160
-637.624	50.404	-0.320	0.303
-636.609	305.911	-0.101	-0.188
-635.595	187.914	-0.076	0.113
-634.580	-149.777	0.161	-0.013
-633.565	74.697	-0.110	0.116
-632.551	-200.000	-0.013	-0.063
-631.536	336.069	-0.102	-0.199
-630.522	275.130	-0.007	-0.013
-629.507	360.074	-0.115	0.232
-628.492	5.278	-0.316	-0.234
-627.478	-140.916	-0.215	0.022
-626.463	-141.887	-0.128	-0.013
-625.449	800.000	-0.081	-0.346
-624.434	-200.000	-0.017	-0.365
-623.419	139.991	0.190	0.251
-622.405	151.033	-0.038	0.052
-621.390	-106.643	-0.286	0.064
-620.376	-44.000	0.194	-0.098
-619.361	-13.089	-0.422	-0.275
-618.346	18.924	0.190	-0.152
-617.332	-112.039	-0.108	-0.022
-616.317	-200.000	-0.005	-0.191
-615.303	-98.426	-0.177	0.046
-614.288	-50.026	0.339	-0.161
-613.273	-160.385	-0.149	0.008
-612.259	-139.840	0.198	0.021
-611.244	-11.161	0.164	0.108
-610.230	109.507	0.212	-0.255
-609.215	-200.000	-0.053	0.364
-608.201	-22.707	0.304	0.185
-607.186	800.000	0.089	-0.327
-606.171	15.426	0.119	0.093
-605.157	161.135	0.065	-0.091
-604.142	-73.409	-0.182	0.067
-603.128	-46.392	-0.040	0.019
-602.113	-200.000	0.013	0.061
-601.098	223.298	-0.143	0.231
-600.084	-177.444	0.107	-0.003
-599.069	-140.634	-0.099	0.010
-598.055	706.675	0.150	0.398
-597.040	25.231	0.152	0.126
-596.025	-200.000	-0.014	-0.254
-595.011	413.237	0.159	0.340
-593.996	-111.930	0.063	0.013
-592.982	63.470	0.206	0.208
-591.967	-200.000	0.004	0.148
-590.952	217.278	-0.184	-0.294
-589.938	485.457	-0.060	-0.138
-588.923	-156.415	0.293	-0.018
-587.909	-87.396	-0.340	0.103
-586.894	128.633	0.171	-0.218
-585.879	-146.027	0.108	-0.010
-584.865	38.745	0.167	0.150
-583.850	35.770	0.027	-0.024
-582.836	14.356	0.032	-0.025
-581.821	-95.136	0.136	-0.037
-580.806	-131.766	0.209	-0.027
-579.792	-200.000	-0.006	-0.205
-578.777	7.134	-0.153	0.114
-577.763	179.952	-0.070	0.103
-576.748	212.611	0.103	0.163
-575.733	-35.662	0.282	-0.153
-574.719	-200.000	-0.032	0.275
-573.704	138.435	-0.202	-0.265
-572.690	800.000	0.094	-0.294
-571.675	-148.229	-0.188	-0.016
-570.661	-84.501	0.215	-0.068
-569.646	-39.300	-0.129	-0.068
-568.631	83.807	-0.085	-0.092
-567.617	344.615	0.161	-0.316
-566.602	17.285	-0.093	-0.074
-565.588	-73.701	-0.082	0.030
-564.573	-200.000	-0.004	-0.044
-563.558	800.000	0.152	0.544
-562.544	424.266	-0.131	-0.281
-561.529	-155.650	0.231	0.015
-560.515	-153.020	0.153	-0.011
-559.500	197.335	-0.105	-0.160
-558.485	304.583	0.182	0.339
-557.471	531.974	0.179	-0.425
-556.456	-120.226	-0.152	-0.026
-555.442	-200.000	-0.038	0.295
-554.427	319.821	-0.051	-0.097
-553.412	-200.000	0.013	-0.073
-552.398	491.310	-0.119	0.272
-551.383	168.879	-0.119	-0.169
-550.369	378.893	0.158	-0.325
-549.354	85.002	-0.075	-0.082
-548.339	134.089	0.096	-0.124
-547.325	436.194	0.103	-0.225
-546.310	57.072	0.364	-0.355
-545.296	-131.151	0.358	-0.048
-544.281	-200.000	-0.020	0.183
-543.266	-200.000	-0.000	0.108
-542.252	577.182	0.072	-0.175
-541.237	800.000	-0.034	-0.136
-540.223	-69.830	0.135	0.052
-539.208	-35.833	0.204	-0.110
-538.193	-200.000	0.028	-0.409
-537.179	47.277	-0.209	0.195
-536.164	129.389	-0.213	-0.272
-535.150	-106.429	0.091	0.020
-534.135	-92.138	-0.424	-0.120
-533.121	98.652	-0.165	0.190
-532.106	-200.000	-0.083	-0.458
-531.091	75.211	-0.143	0.151
-530.077	787.921	0.037	-0.103
-529.062	45.524	-0.085	-0.079
-528.048	-78.762	-0.104	0.035
-527.033	-66.272	-0.128	-0.051
-526.018	800.000	0.079	0.294
-525.004	-168.806	-0.146	0.006
-523.989	632.113	0.079	0.200
-522.975	260.139	-0.162	0.279
-521.960	-104.252	0.241	0.056
-520.945	97.425	0.077	-0.088
-519.931	-48.669	-0.240	0.115
-518.916	800.000	-0.036	0.127
-517.902	-200.000	-0.004	-0.253
-516.887	20.865	0.174	-0.141
-515.872	-66.381	-0.134	-0.053
-514.858	149.712	-0.163	-0.220
-513.843	-200.000	0.009	-0.042
-512.829	-92.537	0.112	0.031
-511.814	600.605	-0.166	-0.413
-510.799	-200.000	-0.010	0.168
-509.785	31.892	-0.144	-0.124
-508.770	-55.147	0.098	-0.044
-507.756	3.695	0.182	-0.133
-506.741	288.377	0.177	0.321
-505.726	-59.243	-0.405	0.174
-504.712	-127.015	-0.124	-0.018
-503.697	39.423	-0.201	0.179
-502.683	800.000	0.103	0.295
-501.668	-186.401	-0.203	-0.003
-500.653	-130.166	-0.149	-0.020
-499.639	-91.158	-0.224	0.064
-498.624	-48.317	0.191	0.092
-497.610	-29.205	-0.503	0.288
-496.595	-33.862	-0.205	-0.113
-495.581	-64.662	-0.222	-0.090
-494.566	-123.342	-0.171	0.027
-493.551	-200.000	0.011	0.187
-492.537	800.000	-0.027	0.104
-491.522	376.241	-0.159	-0.324
-490.508	280.721	-0.080	-0.143
-489.493	-200.000	0.057	0.316
-488.478	-1.039	-0.093	0.065
-487.464	800.000	-0.102	-0.312
-486.449	-157.487	0.227	-0.014
-485.435	106.596	-0.207	0.245
-484.420	53.685	0.163	0.157
-483.405	-37.884	-0.015	0.008
-482.391	-144.211	0.213	-0.020
-481.376	357.238	-0.108	0.214
-480.362	136.713	0.065	-0.084
-479.347	85.818	0.085	0.093
-478.332	-78.222	0.157	0.054
-477.318	-67.441	0.202	-0.079
-476.303	427.069	-0.167	0.359
-475.289	-22.143	-0.280	-0.170
-474.274	49.119	-0.183	-0.171
-473.259	800.000	-0.064	-0.238
-472.245	-41.867	0.079	0.040
-471.230	63.117	0.182	-0.181
-470.216	-200.000	-0.007	0.162
-469.201	800.000	-0.071	0.233
-468.186	359.383	-0.148	0.295
-467.172	1.284	0.498	-0.357
-466.157	-200.000	0.011	-0.257
-465.143	59.376	0.298	-0.293
-464.128	-69.724	-0.159	-0.060
-463.113	-59.618	0.209	-0.089
-462.099	14.830	0.088	-0.069
-461.084	-73.379	0.119	0.043
-460.070	-80.207	-0.095	0.032
-459.055	-200.000	-0.018	0.138
-458.040	-146.984	-0.235	-0.020
-457.026	800.000	0.027	-0.102
-456.011	126.391	-0.249	-0.315
-454.997	-73.560	0.129	0.047
-453.982	521.879	0.029	0.067
-452.968	800.000	-0.104	0.303
-451.953	-76.733	-0.115	0.040
-450.938	22.988	-0.202	0.165
-449.924	107.849	0.383	0.455
-448.909	-200.000	0.020	0.142
-447.895	-6.280	-0.247	0.168
-446.880	323.664	-0.063	-0.119
-445.865	74.639	-0.162	-0.170
-444.851	38.555	-0.099	-0.088
-443.836	800.000	0.044	-0.161
-442.822	135.647	-0.170	-0.221
-441.807	-62.478	0.233	-0.097
-440.792	-146.966	0.066	0.006
-439.778	-56.578	0.351	0.155
-438.763	-4.419	-0.300	0.207
-437.749	-30.018	0.264	-0.150
-436.734	-29.764	0.149	0.085
-435.719	217.436	-0.132	-0.210
-434.705	274.742	-0.196	-0.347
-433.690	-200.000	-0.003	0.268
-432.676	800.000	0.110	0.366
-431.661	-81.356	-0.153	-0.050
-430.646	-200.000	-0.018	-0.092
-429.632	-79.578	-0.250	-0.084
-428.617	-88.904	0.225	-0.067
-427.603	800.000	0.056	0.168
-426.588	800.000	-0.117	0.323
-425.573	-97.614	0.342	0.088
-424.559	-134.149	0.440	0.054
-423.544	318.551	-0.171	-0.322
-422.530	113.308	0.029	-0.036
-421.515	-200.000	-0.027	-0.231
-420.500	311.076	-0.108	0.202
-419.486	-90.851	-0.195	0.056
-418.471	-37.034	0.245	0.131
-417.457	11.895	0.302	-0.231
-416.442	800.000	-0.074	-0.251
-415.428	56.460	0.039	-0.038
-414.413	-94.285	0.139	-0.038
-413.398	-36.232	0.389	0.209
-412.384	252.097	-0.085	-0.143
-411.369	292.678	-0.172	-0.313
-410.355	-29.059	0.368	-0.210
-409.340	-200.000	-0.033	0.267
-408.325	-154.175	0.094	-0.006
-407.311	-200.000	0.004	-0.079
-406.296	471.242	0.055	-0.122
-405.282	-59.103	0.220	0.094
-404.267	177.257	0.171	0.248
-403.252	253.987	0.051	-0.087
-402.238	129.367	-0.063	-0.080
-401.223	-63.587	-0.377	0.154
-400.209	-81.191	0.204	0.067
-399.194	-200.000	0.019	-0.220
-398.179	-200.000	-0.003	0.075
-397.165	253.671	0.019	0.032
-396.150	-19.233	-0.273	0.168
-395.136	-200.000	0.032	0.196
-394.121	88.291	-0.347	-0.383
-393.106	203.526	-0.189	0.291
-392.092	800.000	0.078	0.219
-391.077	-200.000	-0.033	0.173
-390.063	177.805	-0.026	0.037
-389.048	-100.741	-0.096	0.024
-388.033	116.554	-0.145	0.177
-387.019	-200.000	-0.003	-0.056
-386.004	608.442	-0.101	-0.250
-384.990	-49.616	-0.109	-0.051
-383.975	141.268	-0.058	-0.076
-382.960	-6.426	0.154	-0.104
-381.946	-24.195	-0.027	-0.016
-380.931	29.395	0.050	0.042
-379.917	-49.636	-0.034	-0.016
-378.902	-90.721	-0.143	0.041
-377.888	-3.565	-0.102	0.070
-376.873	-52.531	0.308	-0.142
-375.858	-116.508	0.118	0.022
-374.844	-57.850	-0.078	-0.034
-373.829	74.858	0.151	-0.158
-372.815	-200.000	-0.028	0.124
-371.800	-101.357	0.140	-0.034
-370.785	-200.000	0.050	-0.360
-369.771	-27.510	-0.225	0.130
-368.756	373.353	-0.154	0.311
-367.742	-145.449	0.110	0.010
-366.727	-35.089	-0.167	0.091
-365.712	4.986	0.192	-0.140
-364.698	-0.140	0.204	-0.144
-363.683	-200.000	-0.040	-0.253
-362.669	-4.999	0.239	0.163
-361.654	-50.959	-0.259	0.121
-360.639	705.377	0.099	-0.259
-359.625	-25.805	0.378	-0.221
-358.610	242.913	0.068	-0.114
-357.596	-200.000	-0.003	-0.040
-356.581	68.756	0.099	0.101
-355.566	-135.256	-0.322	0.038
-354.552	-102.777	-0.142	0.034
-353.537	-128.028	0.451	0.064
-352.523	745.039	-0.116	-0.309
-351.508	-200.000	0.019	0.235
-350.493	-102.808	-0.272	-0.064
-349.479	-124.053	-0.191	0.030
-348.464	-60.790	-0.219	-0.092
-347.450	-200.000	0.052	0.280
-346.435	800.000	-0.085	-0.242
-345.420	-140.419	0.090	-0.009
-344.406	-61.103	-0.262	-0.110
-343.391	311.024	0.141	0.263
-342.377	556.381	-0.021	0.050
-341.362	-23.504	-0.298	0.178
-340.348	-30.595	0.160	0.090
-339.333	243.227	-0.164	0.274
-338.318	112.017	0.042	0.051
-337.304	800.000	0.013	0.054
-336.289	62.638	0.019	0.019
-335.275	-46.886	-0.065	0.031
-334.260	-111.545	0.238	0.048
-333.245	-58.860	-0.164	-0.070
-332.231	650.508	0.136	-0.344
-331.216	341.049	-0.181	-0.351
-330.202	-200.000	0.023	-0.200
-329.187	-61.589	-0.095	-0.040
-328.172	-113.780	0.201	0.039
-327.158	78.266	0.100	0.106
-326.143	-200.000	0.026	0.358
-325.129	23.752	-0.208	0.170
-324.114	-42.809	0.094	0.047
-323.099	115.128	-0.093	0.112
-322.085	-200.000	-0.033	-0.154
-321.070	-50.637	-0.240	0.112
-320.056	119.647	-0.308	-0.379
-319.041	25.765	-0.212	0.175
-318.026	-10.502	-0.087	-0.057
-317.012	-200.000	0.027	0.208
-315.997	-51.677	0.318	-0.147
-314.983	154.210	0.087	0.118
-313.968	800.000	-0.054	0.219
-312.953	-34.313	0.209	-0.114
-311.939	36.140	-0.333	-0.291
-310.924	379.056	0.103	0.208
-309.910	-93.651	0.148	0.041
-308.895	-105.521	-0.216	0.049
-307.880	-8.710	0.217	0.145
-306.866	28.470	0.089	0.074
-305.851	13.444	-0.321	-0.247
-304.837	-10.105	0.215	-0.142
-303.822	-200.000	-0.028	-0.278
-302.807	-48.907	0.202	-0.096
-301.793	657.736	-0.155	0.394
-300.778	-4.612	0.243	0.166
-299.764	-200.000	0.027	0.356
-298.749	-114.542	-0.280	-0.053
-297.735	117.456	0.190	0.231
-296.720	-200.000	0.035	-0.222
-295.705	-55.601	-0.228	0.101
-294.691	-48.989	0.255	0.121
-293.676	59.075	-0.239	0.233
-292.662	800.000	0.055	0.203
-291.647	-6.710	-0.071	-0.048
-290.632	-200.000	0.053	-0.263
-289.618	-133.900	0.345	-0.042
-288.603	-55.133	0.221	0.098
-287.589	-86.323	-0.441	-0.134
-286.574	205.522	-0.173	-0.266
-285.559	-22.675	-0.144	0.086
-284.545	609.764	0.048	0.119
-283.530	49.049	-0.112	0.104
-282.516	-111.280	0.113	-0.023
-281.501	125.314	0.226	-0.282
-280.486	-58.763	0.219	0.094
-279.472	3.018	-0.166	0.119
-278.457	-200.000	-0.053	-0.331
-277.443	800.000	0.109	0.329
-276.428	34.823	0.013	-0.011
-275.413	-91.919	-0.206	-0.058
-274.399	-200.000	0.015	0.167
-273.384	-121.706	0.119	0.019
-272.370	0.837	-0.349	-0.248
-271.355	-128.529	0.188	0.026
-270.340	265.666	0.141	0.243
-269.326	41.122	0.111	0.099
-268.311	253.725	-0.125	0.212
-267.297	-9.720	-0.183	-0.121
-266.282	-50.088	-0.141	-0.066
-265.267	-136.282	0.468	-0.054
-264.253	118.401	0.007	0.008
-263.238	287.532	-0.126	0.226
-262.224	-76.760	0.268	-0.093
-261.209	217.771	0.131	0.207
-260.195	-200.000	0.024	-0.248
-259.180	800.000	0.088	0.340
-258.165	-200.000	0.000	0.146
-257.151	-200.000	-0.033	-0.148
-256.136	-93.697	0.315	-0.086
-255.122	-200.000	0.035	0.421
-254.107	-119.674	0.267	0.046
-253.092	-198.151	0.261	0.002
-252.078	205.827	0.204	0.314
-251.063	14.202	-0.168	-0.129
-250.049	-200.000	0.028	0.158
-249.034	-131.112	-0.025	0.003
-248.019	77.856	-0.206	-0.217
-247.005	-65.817	0.141	0.056
-245.990	69.987	-0.116	-0.119
-244.976	488.621	-0.173	-0.391
-243.961	-200.000	0.004	-0.086
-242.946	-166.906	-0.270	-0.011
-241.932	-200.000	0.029	0.348
-240.917	-200.000	0.011	-0.119
-239.903	359.179	0.126	-0.249
-238.888	514.131	0.074	-0.171
-237.873	-124.005	0.247	-0.038
-236.859	4.228	-0.092	0.066
-235.844	-200.000	0.000	-0.049
-234.830	161.737	0.071	-0.098
-233.815	-116.793	-0.271	-0.049
-232.800	233.633	0.080	0.130
-231.786	33.233	-0.225	-0.193
-230.771	-158.836	-0.291	-0.016
-229.757	109.052	-0.059	-0.070
-228.742	-90.130	0.397	0.114
-227.727	-35.743	-0.314	0.168
-226.713	-39.164	0.193	0.100
-225.698	742.251	-0.102	0.272
-224.684	800.000	-0.024	0.072
-223.669	-200.000	-0.010	-0.074
-222.655	-195.925	0.132	0.001
-221.640	16.118	0.154	0.120
-220.625	6.430	0.043	0.031
-219.611	-95.618	0.396	0.105
-218.596	170.746	0.183	0.259
-217.582	800.000	-0.057	-0.229
-216.567	-184.824	0.253	-0.004
-215.552	2.941	0.443	-0.318
-214.538	42.306	0.186	-0.167
-213.523	101.318	-0.155	0.178
-212.509	316.008	0.193	0.360
-211.494	67.133	-0.066	-0.066
-210.479	239.679	-0.200	-0.328
-209.465	-116.290	-0.200	0.037
-208.450	-157.108	0.046	-0.003
-207.436	-44.653	0.403	-0.199
-206.421	335.186	0.063	-0.121
-205.406	714.462	0.087	-0.229
-204.392	118.279	0.071	-0.087
-203.377	122.606	0.145	-0.179
-202.363	40.748	0.123	0.109
-201.348	77.671	0.059	-0.062
-200.333	231.292	0.081	0.131
-199.319	32.361	-0.196	0.167
-198.304	-200.000	-0.006	-0.277
-197.290	800.000	-0.088	0.310
-196.275	509.957	0.112	-0.258
-195.260	-115.547	0.137	0.025
-194.246	-181.135	-0.401	0.008
-193.231	74.375	-0.092	-0.095
-192.217	11.505	0.098	0.074
-191.202	-200.000	0.000	-0.273
-190.187	-42.753	-0.160	-0.080
-189.173	-200.000	-0.036	0.480
-188.158	30.860	-0.271	0.229
-187.144	124.696	0.094	0.116
-186.129	-91.884	-0.036	-0.010
-185.114	-112.201	0.192	0.038
-184.100	14.430	-0.170	0.131
-183.085	143.480	0.290	-0.380
-182.071	-101.101	-0.198	0.048
-181.056	4.603	-0.117	0.085
-180.042	302.317	-0.180	0.329
-179.027	800.000	-0.043	0.118
-178.012	489.355	0.094	-0.212
-176.998	-200.000	-0.036	-0.443
-175.983	113.574	0.172	0.206
-174.969	-59.107	-0.195	0.083
-173.954	-161.149	-0.182	0.009
-172.939	-18.284	0.186	-0.115
-171.925	-72.785	0.244	0.088
-170.910	40.913	-0.130	0.115
-169.896	-130.910	-0.078	-0.010
-168.881	83.147	-0.184	0.197
-167.866	800.000	0.014	-0.062
-166.852	53.956	0.184	0.174
-165.837	16.779	-0.076	-0.059
-164.823	-21.780	0.091	0.054
-163.808	-69.058	0.012	0.005
-162.793	800.000	0.137	-0.441
-161.779	-200.000	0.006	-0.113
-160.764	1.224	0.209	-0.148
-159.750	-200.000	-0.000	0.004
-158.735	-35.835	0.244	0.130
-157.720	-159.896	-0.255	-0.014
-156.706	-6.427	0.032	0.022
-155.691	-147.645	0.096	-0.008
-154.677	217.897	0.056	0.087
-153.662	-200.000	-0.014	0.206
-152.647	800.000	0.034	0.096
-151.633	-133.338	-0.137	-0.017
-150.618	315.807	-0.104	0.193
-149.604	-184.177	-0.143	-0.002
-148.589	375.128	0.018	-0.037
-147.574	-200.000	0.210	-0.001
-146.560	13.409	-0.100	-0.076
-145.545	-175.122	0.186	0.005
-144.531	357.851	0.019	0.037
-143.516	88.249	0.104	-0.114
-142.502	-200.000	-0.018	-0.322
-141.487	195.461	-0.266	-0.398
-140.472	437.685	-0.018	0.039
-139.458	197.404	-0.100	-0.150
-138.443	15.693	0.207	-0.161
-137.429	87.569	0.047	-0.051
-136.414	71.710	-0.195	0.199
-135.399	94.466	-0.316	0.353
-134.385	427.344	-0.114	-0.241
-133.370	308.329	-0.188	0.345
-132.356	-200.000	-0.032	0.339
-131.341	55.284	0.094	-0.090
-130.326	800.000	-0.106	-0.380
-129.312	-155.598	0.318	-0.020
-128.297	-200.000	0.004	-0.080
-127.283	-96.606	-0.267	-0.069
-126.268	-200.000	0.035	-0.191
-125.253	-42.912	-0.060	-0.030
-124.239	63.164	-0.132	0.130
-123.224	95.962	0.322	-0.362
-122.210	83.910	-0.051	0.055
-121.195	-200.000	-0.063	-0.379
-120.180	103.462	0.111	0.128
-119.166	-200.000	0.010	-0.169
-118.151	-21.818	0.225	0.135
-117.137	-43.886	0.190	0.094
-116.122	152.238	-0.134	0.180
-115.107	293.722	0.224	0.402
-114.093	165.193	-0.142	-0.198
-113.078	800.000	-0.102	0.309
-112.064	-200.000	-0.033	0.377
-111.049	-102.990	-0.400	-0.093
-110.034	5.380	-0.201	-0.146
-109.020	-5.520	0.263	-0.178
-108.005	-200.000	-0.008	-0.215
-106.991	372.518	0.110	0.220
-105.976	261.307	0.115	-0.196
-104.962	800.000	-0.073	0.306
-103.947	-64.627	0.358	0.143
-102.932	-57.563	-0.150	-0.065
-101.918	-200.000	-0.098	0.428
-100.903	-137.630	0.444	-0.049
-99.889	-96.728	0.078	-0.020
-98.874	-200.000	0.016	-0.165
-97.859	588.999	0.159	-0.385
-96.845	-200.000	-0.005	-0.050
-95.830	-61.900	-0.228	0.094
-94.816	-200.000	0.018	-0.157
-93.801	10.970	-0.349	-0.262
-92.786	164.753	0.043	-0.059
-91.772	-138.472	0.331	-0.036
-90.757	26.399	0.146	-0.120
-89.743	-160.051	-0.348	-0.019
-88.728	27.561	0.135	0.111
-87.713	76.958	-0.196	0.204
-86.699	266.499	-0.066	-0.114
-85.684	400.157	0.024	-0.050
-84.670	-200.000	0.021	-0.268
-83.655	-147.919	-0.059	-0.005
-82.640	359.330	0.049	-0.097
-81.626	56.374	-0.129	-0.123
-80.611	-25.922	0.103	-0.060
-79.597	-200.000	0.013	0.143
-78.582	675.364	-0.117	-0.298
-77.567	-200.000	-0.007	-0.319
-76.553	-177.615	0.244	0.006
-75.538	68.822	0.109	-0.110
-74.524	98.604	-0.277	0.314
-73.509	-57.056	-0.157	-0.068
-72.494	-7.127	0.031	-0.021
-71.480	-200.000	0.004	-0.319
-70.465	58.343	0.066	-0.064
-69.451	-148.902	0.263	-0.021
-68.436	-200.000	0.014	0.485
-67.422	800.000	-0.034	-0.116
-66.407	-66.480	0.261	-0.102
-65.392	149.661	-0.135	0.179
-64.378	280.243	-0.042	-0.074
-63.363	800.000	-0.029	0.100
-62.349	-101.803	0.115	-0.027
-61.334	72.859	-1.004	-1.030
-60.319	70.530	0.659	0.669
-59.305	-200.000	-0.187	-0.964
-58.290	279.558	0.670	1.174
-57.276	222.714	1.019	1.611
-56.261	-200.000	108.663	602.476
-55.246	511.121	1492.041	3408.423
-54.232	179.259	2675.355	3842.116
-53.217	109.080	2170.749	2548.719
-52.203	39.480	1702.700	1497.314
-51.188	32.608	1518.189	1288.224
-50.173	30.222	1492.109	1249.983
-49.159	50.320	1548.809	1436.220
-48.144	50.798	1565.503	1454.935
-47.130	32.726	1521.188	1291.371
-46.115	29.752	1506.301	1258.479
-45.100	29.613	1502.147	1254.011
-44.086	29.562	1500.420	1252.173
-43.071	29.366	1498.475	1249.177
-42.057	29.421	1496.939	1248.214
-41.042	29.492	1495.542	1247.480
-40.027	29.419	1494.041	1245.684
-39.013	29.432	1491.855	1243.900
-37.998	29.394	1491.163	1243.019
-36.984	29.433	1489.738	1242.046
-35.969	29.428	1488.683	1241.082
-34.954	29.416	1487.505	1239.971
-33.940	29.416	1486.056	1238.715
-32.925	29.529	1484.438	1238.072
-31.911	29.553	1483.290	1237.231
-30.896	29.517	1482.061	1235.915
-29.881	29.537	1480.672	1234.839
-28.867	29.633	1479.241	1234.241
-27.852	29.623	1477.965	1233.059
-26.838	29.622	1476.981	1232.185
-25.823	29.476	1475.311	1229.770
-24.809	29.573	1473.226	1228.623
-23.794	29.530	1472.428	1227.624
-22.779	29.551	1471.407	1226.862
-21.765	29.532	1470.551	1225.975
-20.750	29.612	1468.830	1225.026
-19.736	29.566	1467.643	1223.680
-18.721	29.578	1466.345	1222.626
-17.706	29.544	1465.490	1221.642
-16.692	29.476	1464.700	1220.486
-15.677	29.532	1463.667	1219.950
-14.663	29.511	1462.231	1218.563
-13.648	29.481	1461.664	1217.847
-12.633	29.472	1460.447	1216.725
-11.619	29.517	1459.788	1216.422
-10.604	29.441	1459.004	1215.219
-9.590	29.438	1458.121	1214.419
-8.575	29.446	1457.593	1213.982
-7.560	29.430	1456.646	1213.038
-6.546	29.485	1455.297	1212.230
-5.531	29.518	1454.779	1211.967
-4.517	29.406	1453.820	1210.385
-3.502	29.419	1452.561	1209.370
-2.487	29.558	1451.253	1209.147
-1.473	29.435	1450.155	1207.378
-0.458	29.365	1449.167	1206.051
0.556	31.087	1439.599	1194.876
1.571	27.991	1413.865	1153.900
2.586	24.242	1355.132	1083.134
3.600	22.395	1274.115	1007.722
4.615	21.174	1227.980	964.407
5.629	18.498	1171.309	905.698
6.644	10.914	1088.710	804.377
7.659	4.860	1049.954	746.720
8.673	3.978	1044.674	738.691
9.688	3.747	1041.114	735.009
10.702	3.540	1039.444	732.782
11.717	3.696	1037.719	732.240
12.731	6.391	1040.472	746.914
13.746	14.361	1051.207	792.612
14.761	21.442	1060.027	833.046
15.775	23.481	1062.337	844.508
16.790	23.114	1061.062	841.674
17.804	22.563	1058.481	836.936
18.819	21.885	1057.205	832.637
19.834	21.578	1056.356	830.437
20.848	21.549	1055.855	829.833
21.863	21.584	1055.919	829.976
22.877	21.541	1055.164	829.103
23.892	21.375	1054.104	827.413
24.907	21.315	1053.307	826.429
25.921	21.303	1051.939	825.229
26.936	21.195	1051.908	824.619
27.950	21.133	1050.339	823.022
28.965	21.232	1049.375	822.662
29.980	21.120	1048.553	821.416
30.994	21.269	1047.558	821.267
32.009	21.511	1046.586	821.569
33.023	21.471	1046.339	821.116
34.038	21.307	1045.510	819.621
35.053	21.338	1044.552	818.942
36.067	21.344	1043.298	817.914
37.082	21.045	1042.466	815.794
38.096	21.149	1042.027	815.866
39.111	21.301	1041.275	815.912
40.126	21.371	1040.703	815.718
41.140	21.306	1039.141	814.118
42.155	20.963	1037.782	811.385
43.169	20.794	1036.570	809.579
44.184	20.654	1035.635	808.130
45.199	20.599	1034.023	806.544
46.213	20.574	1033.969	806.313
47.228	20.771	1033.118	806.495
48.242	21.077	1032.635	807.461
49.257	21.397	1031.692	808.132
50.271	21.186	1031.190	806.693
51.286	21.310	1030.346	806.533
52.301	21.291	1030.129	806.203
53.315	21.517	1028.856	806.175
54.330	21.328	1028.266	804.774
55.344	21.101	1027.259	802.871
56.359	20.997	1026.036	801.367
57.374	20.881	1025.621	800.435
58.388	20.971	1024.571	799.958
59.403	20.751	1023.512	798.053
60.417	20.669	1022.407	796.748
61.432	20.526	1022.176	795.839
62.447	20.727	1021.173	795.909
63.461	20.592	1020.534	794.721
64.476	20.548	1019.609	793.732
65.490	20.249	1018.630	791.537
66.505	20.410	1017.446	791.278
67.520	20.368	1016.799	790.515
68.534	20.575	1015.960	790.736
69.549	20.481	1015.487	789.869
70.563	20.367	1014.755	788.709
71.578	20.173	1014.466	787.534
72.593	20.085	1012.916	785.864
73.607	19.820	1011.990	783.877
74.622	19.948	1010.606	783.312
75.636	20.009	1010.173	783.182
76.651	20.142	1009.138	782.911
77.666	20.055	1008.822	782.208
78.680	20.302	1007.731	782.403
79.695	20.117	1007.614	781.411
80.709	20.145	1007.071	781.048
81.724	20.395	1006.370	781.557
82.739	20.384	1005.839	781.029
83.753	20.577	1004.595	780.860
84.768	20.969	1004.324	782.338
85.782	21.464	1004.184	784.380
86.797	21.856	1003.513	785.545
87.812	21.792	1002.979	784.771
88.826	21.297	1002.565	782.164
89.841	21.278	1001.371	781.077
90.855	21.530	1000.641	781.563
91.870	21.537	1000.145	781.138
92.884	21.707	999.386	781.236
93.899	21.675	998.595	780.403
94.914	21.589	997.482	779.082
95.928	21.605	996.795	778.550
96.943	21.629	996.239	778.150
97.957	21.361	995.232	776.108
98.972	21.300	994.107	774.889
99.987	21.336	993.382	774.415
101.001	21.550	992.589	774.677
102.016	21.632	991.807	774.359
103.030	21.302	991.157	772.325
104.045	21.392	990.647	772.257
105.060	21.459	989.467	771.564
106.074	21.333	988.526	770.210
107.089	21.133	987.022	768.086
108.103	20.865	986.455	766.400
109.118	20.712	985.093	764.603
110.133	20.457	984.240	762.752
111.147	20.367	982.844	761.208
112.162	20.208	982.242	759.976
113.176	20.317	981.623	759.911
114.191	20.550	980.998	760.379
115.206	20.743	979.857	760.269
116.220	20.655	979.507	759.544
117.235	20.569	978.292	758.162
118.249	20.528	977.491	757.295
119.264	20.521	976.268	756.250
120.279	20.322	975.927	755.051
121.293	20.251	974.929	753.905
122.308	20.114	974.049	752.563
123.322	20.047	973.085	751.461
124.337	19.932	972.614	750.535
125.352	20.014	970.957	749.541
126.366	19.939	969.925	748.358
127.381	19.920	969.364	747.775
128.395	19.931	968.528	747.109
129.410	19.985	967.510	746.494
130.424	20.179	966.437	746.433
131.439	20.153	966.205	746.074
132.454	20.379	965.715	746.603
133.468	20.585	964.505	746.485
134.483	20.514	964.274	745.937
135.497	20.496	963.142	744.917
136.512	20.615	962.652	744.983
137.527	20.691	961.636	744.455
138.541	20.772	960.852	744.130
139.556	20.741	960.369	743.556
140.570	20.780	959.545	743.022
141.585	20.798	959.246	742.799
142.600	21.161	958.619	743.798
143.614	21.352	958.099	744.139
144.629	21.465	957.329	743.957
145.643	21.595	956.830	744.055
146.658	21.620	955.813	743.307
147.673	21.278	954.478	740.749
148.687	21.066	953.240	738.826
149.702	20.850	952.438	737.227
150.716	20.730	951.498	735.927
151.731	20.629	950.607	734.743
152.746	20.695	949.721	734.275
153.760	20.912	949.032	734.590
154.775	20.821	948.666	733.860
155.789	21.005	947.633	733.768
156.804	20.989	947.366	733.432
157.819	21.046	946.026	732.568
158.833	20.950	946.126	732.178
159.848	21.220	945.616	732.852
160.862	21.356	945.367	733.163
161.877	21.412	943.634	731.988
162.892	21.105	942.434	729.709
163.906	20.713	941.080	726.960
164.921	20.460	940.482	725.376
165.935	20.450	939.524	724.532
166.950	20.743	937.929	724.459
167.964	20.779	938.224	724.773
168.979	20.822	936.848	723.822
169.994	20.833	935.201	722.532
171.008	20.539	934.921	721.034
172.023	20.788	933.730	721.081
173.037	21.134	933.453	722.236
174.052	21.398	932.893	722.832
175.067	21.212	932.163	721.433
176.081	20.899	930.910	719.109
177.096	20.488	929.773	716.470
178.110	20.383	928.920	715.317
179.125	20.448	928.401	715.123
180.140	20.554	927.479	714.786
181.154	20.592	927.274	714.722
182.169	20.852	927.078	715.574
183.183	21.061	926.524	715.942
184.198	21.136	925.893	715.698
185.213	21.210	924.993	715.243
186.227	21.125	924.651	714.565
187.242	21.221	924.054	714.433
188.256	21.335	923.263	714.224
189.271	21.423	922.723	714.105
190.286	21.617	921.844	714.151
191.300	21.212	921.247	711.976
192.315	20.703	919.930	708.822
193.329	20.332	918.935	706.484
194.344	20.275	918.336	705.729
195.359	20.536	917.892	706.384
196.373	20.773	917.423	706.922
197.388	20.937	916.955	707.165
198.402	21.065	917.080	707.720
199.417	21.400	916.765	708.773
200.432	21.662	916.329	709.435
201.446	21.843	915.892	709.764
202.461	21.808	915.915	709.578
203.475	21.855	915.402	709.308
204.490	21.823	914.421	708.358
205.504	21.421	913.228	705.747
206.519	21.298	911.989	704.232
207.534	21.233	911.313	703.385
208.548	21.183	910.485	702.482
209.563	21.206	909.985	702.127
210.577	21.220	909.363	701.643
211.592	21.236	908.772	701.189
212.607	21.395	908.771	701.764
213.621	21.735	908.432	702.803
214.636	21.651	907.703	701.842
215.650	21.474	907.190	700.674
216.665	21.552	906.112	700.091
217.680	21.567	906.091	700.072
218.694	21.796	905.514	700.478
219.709	21.949	904.866	700.527
220.723	21.799	904.030	699.221
221.738	21.530	903.555	697.719
222.753	21.578	902.587	697.099
223.767	21.515	901.919	696.272
224.782	21.555	901.155	695.779
225.796	21.720	900.728	696.044
226.811	21.816	900.149	695.914
227.826	21.855	899.163	695.245
228.840	21.496	898.660	693.373
229.855	21.342	897.715	691.973
230.869	21.290	897.173	691.286
231.884	21.351	896.525	690.971
232.899	21.162	895.695	689.521
233.913	21.279	894.670	689.132
234.928	21.177	894.126	688.252
235.942	20.888	893.732	686.750
236.957	20.839	892.572	685.602
237.972	20.856	891.882	685.079
238.986	20.831	891.732	684.806
240.001	21.027	890.957	684.921
241.015	20.933	890.298	683.984
242.030	20.991	889.806	683.772
243.045	21.028	889.791	683.843
244.059	21.298	888.792	684.075
245.074	21.419	888.137	683.984
246.088	21.461	887.697	683.749
247.103	21.496	887.433	683.622
248.117	21.652	886.988	683.826
249.132	21.867	886.618	684.321
250.147	22.227	886.403	685.496
251.161	22.625	886.168	686.806
252.176	22.818	885.954	687.330
253.190	22.940	884.760	686.816
254.205	22.721	884.912	686.024
255.220	22.842	884.030	685.747
256.234	22.658	883.636	684.669
257.249	22.477	882.988	683.403
258.263	22.535	882.151	682.919
259.278	22.507	881.510	682.253
260.293	22.472	881.075	681.720
261.307	22.635	880.547	681.882
262.322	22.751	879.965	681.822
263.336	22.710	879.421	681.180
264.351	22.720	878.947	680.792
265.366	22.788	878.280	680.475
266.380	22.787	877.390	679.723
267.395	22.740	876.887	679.092
268.409	22.675	876.087	678.163
269.424	22.508	875.235	676.802
270.439	22.416	874.739	676.005
271.453	22.480	873.772	675.445
272.468	22.296	873.223	674.255
273.482	22.294	872.179	673.383
274.497	22.280	871.699	672.897
275.512	22.193	871.407	672.280
276.526	22.266	870.447	671.759
277.541	22.281	869.837	671.285
278.555	22.186	869.802	670.837
279.570	22.617	869.306	672.037
280.585	22.769	868.805	672.168
281.599	22.897	868.384	672.273
282.614	22.702	867.348	670.670
283.628	22.396	866.355	668.680
284.643	22.149	866.039	667.439
285.657	22.213	865.452	667.169
286.672	22.299	864.622	666.799
287.687	22.173	864.694	666.314
288.701	22.294	864.181	666.320
289.716	22.405	863.438	666.109
290.730	22.358	862.950	665.497
291.745	22.373	862.188	664.904
292.760	22.449	861.095	664.291
293.774	22.429	860.943	664.040
294.789	22.828	860.664	665.269
295.803	22.955	859.868	665.073
296.818	22.501	859.862	663.300
297.833	22.190	858.636	661.126
298.847	22.357	857.865	661.103
299.862	22.312	857.315	660.451
300.876	22.392	856.940	660.402
301.891	22.593	856.083	660.439
302.906	22.802	855.857	660.989
303.920	23.047	855.500	661.571
304.935	23.096	854.769	661.130
305.949	23.274	854.358	661.419
306.964	23.309	853.581	660.890
307.979	22.915	852.800	658.756
308.993	22.869	852.142	658.019
310.008	23.059	851.782	658.391
311.022	23.031	851.749	658.200
312.037	22.820	851.121	656.872
313.052	22.665	850.494	655.757
314.066	22.565	849.258	654.374
315.081	22.277	848.188	652.422
316.095	22.210	847.836	651.847
317.110	22.200	847.780	651.709
318.125	22.410	846.694	651.593
319.139	22.181	846.378	650.446
320.154	22.208	845.762	650.014
321.168	22.137	845.129	649.205
322.183	22.315	844.269	649.144
323.197	22.459	844.101	649.490
324.212	22.456	843.721	649.128
325.227	22.375	843.113	648.304
326.241	22.422	843.002	648.336
327.256	22.308	842.010	647.096
328.270	22.373	841.377	646.793
329.285	22.228	840.749	645.720
330.300	22.140	840.249	644.956
331.314	22.092	839.893	644.449
332.329	22.249	838.983	644.270
333.343	22.538	838.680	645.039
334.358	22.651	838.734	645.434
335.373	22.799	838.044	645.390
336.387	22.814	837.092	644.651
337.402	22.831	836.658	644.322
338.416	22.963	836.484	644.615
339.431	23.132	835.859	644.690
340.446	23.427	835.539	645.463
341.460	23.672	834.916	645.814
342.475	23.464	835.003	645.068
343.489	23.639	834.127	644.972
344.504	23.570	833.996	644.563
345.519	23.773	833.361	644.749
346.533	23.899	832.790	644.709
347.548	23.754	832.414	643.835
348.562	23.461	831.546	642.045
349.577	23.078	830.972	640.158
350.592	22.897	829.873	638.603
351.606	22.790	829.569	637.924
352.621	22.755	828.830	637.173
353.635	22.859	828.714	637.402
354.650	22.622	828.380	636.235
355.665	22.964	827.577	636.793
356.679	23.135	826.981	636.895
357.694	23.103	826.891	636.652
358.708	23.166	826.106	636.219
359.723	23.081	825.510	635.398
360.738	22.858	825.179	634.289
361.752	22.977	824.639	634.245
362.767	22.983	824.474	634.083
363.781	23.291	824.351	635.036
364.796	23.689	823.668	635.880
365.810	23.822	823.173	635.917
366.825	23.900	823.452	636.355
367.840	24.216	822.994	637.075
368.854	23.860	822.727	635.539
369.869	23.528	821.845	633.615
370.883	23.482	821.084	632.810
371.898	23.523	820.293	632.289
372.913	23.628	820.059	632.428
373.927	23.788	819.375	632.415
374.942	23.676	818.600	631.361
375.956	23.573	817.780	630.306
376.971	23.737	817.423	630.557
377.986	23.912	816.737	630.595
379.000	24.093	816.545	631.031
380.015	24.207	815.996	630.955
381.029	24.001	815.508	629.792
382.044	23.964	814.990	629.208
383.059	23.988	814.289	628.694
384.073	24.117	813.667	628.614
385.088	23.899	813.193	627.422
386.102	23.694	812.025	625.745
387.117	23.460	811.411	624.390
388.132	23.251	811.079	623.346
389.146	23.233	810.526	622.800
390.161	23.291	810.309	622.783
391.175	23.597	810.275	623.776
392.190	23.746	810.076	624.091
393.205	23.735	809.724	623.728
394.219	23.542	808.494	622.051
395.234	23.385	807.899	620.987
396.248	23.314	807.263	620.193
397.263	23.153	806.646	619.100
398.278	23.149	806.269	618.742
399.292	22.967	805.761	617.661
400.307	22.806	805.033	616.488
401.321	22.971	804.576	616.658
402.336	23.022	804.552	616.764
403.350	23.302	804.079	617.323
404.365	23.431	803.885	617.570
405.380	23.611	803.571	617.901
406.394	24.028	803.739	619.424
407.409	24.189	803.236	619.543
408.423	24.225	802.722	619.217
409.438	24.334	802.282	619.203
410.453	24.338	802.000	618.941
411.467	24.537	801.277	619.020
412.482	24.531	800.680	618.482
413.496	24.472	800.289	617.922
414.511	24.476	800.329	617.913
415.526	24.637	799.812	618.015
416.540	24.326	799.773	616.853
417.555	24.267	798.900	615.923
418.569	24.285	798.473	615.601
419.584	24.275	797.670	614.894
420.599	24.374	797.458	615.018
421.613	163.132	1370.562	1796.429
422.628	141.623	1454.055	1796.545
