DTS Sentinel unit serial number:	SN413079Multiplexer serial number:	ORYXHardware model number:	OX4-SRSoftware version number:	ORYX F/W v4.00 Oryx Data Collector v3.7.2.0data status	okinstallation	princeton_trtdifferential loss correction	single-endedforward channel	channel 3reverse channel	N/Adate	2019/09/14time	05:32:35forward acquisition time	60.00reverse acquisition time	0.00gamma	496.2192k internal	0.2337k external	0.2337temperature offset calibration	1.0054default loss term (dB/km)	0.3790temperature slope calibration	1.0000multiplexer offset coefficient	1.0000multiplexer slope coefficient	1.0000fibre end	0.00T internal ref (°C)	26.94T ext. ref 1 (°C)	3.40T ext. ref 2 (°C)	21.83length (m)	temperature (°C)	Stokes	anti-Stokes-747.200	-38.158	-0.038	-0.020
-746.185	-77.502	-0.084	0.029
-745.171	-61.843	-0.349	0.147
-744.156	-103.426	-0.189	-0.045
-743.142	360.135	0.107	0.214
-742.127	382.158	0.068	0.139
-741.112	306.087	0.027	0.051
-740.098	-90.420	0.316	-0.092
-739.083	159.569	0.023	0.032
-738.069	123.845	0.155	0.196
-737.054	-138.748	0.060	-0.007
-736.039	-7.377	-0.195	0.133
-735.025	-10.646	0.145	-0.096
-734.010	-42.809	-0.211	0.107
-732.996	22.363	0.228	-0.187
-731.981	-20.565	-0.404	0.249
-730.966	-85.513	-0.433	0.135
-729.952	-149.465	0.078	-0.006
-728.937	270.322	0.173	0.304
-727.923	96.120	-0.124	-0.142
-726.908	36.399	0.115	0.102
-725.894	-200.000	-0.063	-0.350
-724.879	-93.841	-0.354	-0.098
-723.864	38.701	0.034	0.030
-722.850	-97.296	-0.016	-0.004
-721.835	-112.745	-0.234	-0.047
-720.821	236.851	0.072	-0.119
-719.806	19.996	-0.029	0.023
-718.791	-48.912	0.255	0.122
-717.777	665.121	0.055	0.142
-716.762	800.000	0.024	0.095
-715.748	473.252	0.078	-0.177
-714.733	-200.000	-0.034	-0.257
-713.718	800.000	-0.067	-0.251
-712.704	226.380	-0.205	0.333
-711.689	32.732	-0.160	-0.139
-710.675	-78.597	0.211	-0.072
-709.660	334.676	-0.089	0.173
-708.645	-88.666	0.263	-0.078
-707.631	67.702	-0.151	-0.155
-706.616	164.879	-0.028	0.039
-705.602	305.623	-0.042	-0.078
-704.587	268.980	0.122	-0.215
-703.572	800.000	-0.146	-0.461
-702.558	-200.000	0.008	-0.303
-701.543	167.613	-0.148	-0.210
-700.529	-161.400	0.042	0.002
-699.514	-85.533	-0.210	0.066
-698.499	-200.000	0.015	-0.159
-697.485	-84.999	-0.215	-0.068
-696.470	800.000	-0.159	-0.453
-695.456	528.880	-0.109	0.257
-694.441	-200.000	0.010	0.259
-693.426	93.081	0.166	0.188
-692.412	177.726	-0.098	0.144
-691.397	554.752	-0.093	-0.225
-690.383	0.079	-0.187	-0.134
-689.368	-182.487	-0.176	-0.003
-688.354	392.963	-0.082	0.171
-687.339	800.000	0.063	-0.188
-686.324	-200.000	0.006	-0.264
-685.310	132.926	0.027	-0.035
-684.295	-67.772	-0.245	0.096
-683.281	395.457	-0.068	-0.141
-682.266	401.036	-0.233	-0.489
-681.251	-91.102	0.182	-0.052
-680.237	1.963	-0.222	-0.161
-679.222	-71.751	-0.257	-0.096
-678.208	-53.430	-0.431	0.198
-677.193	71.217	0.101	-0.104
-676.178	675.279	0.115	-0.299
-675.164	19.127	-0.310	0.249
-674.149	800.000	0.093	-0.292
-673.135	-60.772	-0.109	-0.046
-672.120	296.303	-0.117	0.216
-671.105	-60.043	0.047	-0.020
-670.091	-18.121	-0.389	-0.244
-669.076	800.000	0.146	0.463
-668.062	-200.000	-0.001	-0.048
-667.047	-200.000	-0.018	0.132
-666.032	108.151	0.157	-0.188
-665.018	339.375	0.079	0.154
-664.003	-29.728	0.157	-0.090
-662.989	113.258	0.077	-0.093
-661.974	40.910	-0.338	0.305
-660.959	-115.456	-0.212	0.040
-659.945	-200.000	0.048	0.328
-658.930	24.095	0.337	-0.278
-657.916	-12.097	0.268	-0.176
-656.901	163.563	-0.163	0.229
-655.886	-200.000	0.024	-0.383
-654.872	494.101	0.139	-0.319
-653.857	-200.000	0.032	-0.303
-652.843	-193.216	-0.171	0.002
-651.828	-137.922	-0.211	0.024
-650.814	-16.779	0.089	0.056
-649.799	774.251	-0.109	0.297
-648.784	-162.161	-0.400	0.020
-647.770	-114.737	0.081	-0.015
-646.755	14.058	-0.189	0.147
-645.741	-147.513	-0.316	0.027
-644.726	-200.000	-0.034	0.289
-643.711	237.567	0.210	-0.348
-642.697	-117.223	0.673	0.122
-641.682	39.406	-0.113	0.102
-640.668	-87.514	-0.331	-0.100
-639.653	-116.725	-0.211	-0.039
-638.638	346.216	-0.123	-0.242
-637.624	104.197	0.201	-0.236
-636.609	199.772	0.114	0.174
-635.595	34.027	-0.064	0.056
-634.580	46.872	-0.128	-0.119
-633.565	-85.814	-0.152	0.047
-632.551	-110.174	-0.223	0.046
-631.536	-119.119	0.092	0.016
-630.522	8.037	-0.122	0.092
-629.507	-90.339	-0.150	-0.043
-628.492	-88.570	0.290	-0.086
-627.478	19.630	-0.082	0.066
-626.463	18.456	-0.103	-0.082
-625.449	-61.083	-0.254	-0.107
-624.434	-89.256	0.187	-0.055
-623.419	32.081	-0.282	0.243
-622.405	-146.128	-0.168	-0.015
-621.390	38.580	0.150	-0.133
-620.376	-149.305	-0.334	0.027
-619.361	800.000	0.116	-0.373
-618.346	241.051	-0.058	0.096
-617.332	-10.607	-0.187	-0.124
-616.317	-200.000	-0.062	-0.580
-615.303	-118.022	-0.258	-0.046
-614.288	21.485	-0.186	0.151
-613.273	39.840	0.144	0.129
-612.259	-53.592	0.268	-0.123
-611.244	349.997	-0.093	0.183
-610.230	12.948	-0.102	0.079
-609.215	17.567	0.104	-0.083
-608.201	84.675	-0.072	0.078
-607.186	516.335	0.147	0.342
-606.171	-200.000	0.035	-0.198
-605.157	-121.771	0.272	-0.045
-604.142	-75.186	0.061	-0.022
-603.128	-200.000	-0.020	0.094
-602.113	-125.542	-0.086	-0.013
-601.098	-52.024	-0.160	-0.074
-600.084	506.992	-0.132	-0.306
-599.069	22.976	-0.102	-0.083
-598.055	536.798	-0.105	0.249
-597.040	104.747	-0.133	-0.157
-596.025	2.467	-0.358	-0.259
-595.011	579.994	0.134	-0.327
-593.996	-200.000	-0.017	-0.153
-592.982	-200.000	0.021	-0.126
-591.967	109.059	0.087	-0.104
-590.952	211.607	0.173	0.272
-589.938	-20.740	0.338	0.207
-588.923	-100.626	-0.333	-0.082
-587.909	-112.582	0.178	0.035
-586.894	54.922	-0.107	-0.103
-585.879	800.000	-0.077	0.286
-584.865	124.385	0.301	0.377
-583.850	164.288	0.171	0.240
-582.836	-59.121	0.428	0.184
-581.821	-176.645	0.353	-0.009
-580.806	94.316	0.272	0.308
-579.792	30.680	-0.086	-0.074
-578.777	-52.438	-0.091	-0.042
-577.763	-200.000	-0.009	-0.146
-576.748	345.259	-0.062	-0.122
-575.733	-85.905	0.111	-0.034
-574.719	-200.000	-0.012	-0.450
-573.704	-200.000	0.033	-0.376
-572.690	-45.603	-0.073	-0.036
-571.675	-76.287	-0.453	-0.159
-570.661	-50.407	-0.131	-0.061
-569.646	-57.089	-0.289	0.127
-568.631	618.423	0.148	-0.371
-567.617	346.271	0.090	-0.176
-566.602	-200.000	-0.043	0.197
-565.588	-73.073	-0.309	0.113
-564.573	43.301	-0.098	0.089
-563.558	-89.298	-0.050	0.015
-562.544	-49.969	0.270	0.128
-561.529	316.844	-0.084	0.158
-560.515	78.919	-0.309	0.330
-559.500	-200.000	0.048	-0.232
-558.485	-83.476	0.166	-0.053
-557.471	171.874	-0.149	0.213
-556.456	79.171	0.254	0.271
-555.442	43.725	0.148	0.135
-554.427	-200.000	-0.263	-0.001
-553.412	65.309	0.161	0.163
-552.398	9.783	-0.317	-0.239
-551.383	21.019	0.129	-0.104
-550.369	-78.756	-0.306	-0.104
-549.354	-200.000	-0.019	0.437
-548.339	-5.207	0.279	0.191
-547.325	313.634	-0.132	-0.247
-546.310	85.558	-0.119	-0.130
-545.296	800.000	-0.083	-0.283
-544.281	-200.000	0.004	-0.128
-543.266	248.511	0.171	-0.288
-542.252	-133.721	0.064	0.008
-541.237	534.674	0.100	0.236
-540.223	800.000	0.005	-0.020
-539.208	-135.594	0.394	0.047
-538.193	224.265	-0.029	0.047
-537.179	-129.183	0.052	0.007
-536.164	20.912	0.140	-0.113
-535.150	-20.927	-0.246	0.150
-534.135	-44.369	0.186	0.093
-533.121	99.795	-0.225	-0.259
-532.106	-133.154	0.251	-0.032
-531.091	800.000	0.078	0.241
-530.077	-200.000	-0.044	-0.242
-529.062	-31.311	0.201	-0.113
-528.048	-144.283	0.108	0.010
-527.033	-137.548	0.135	0.015
-526.018	-126.646	0.341	0.050
-525.004	449.114	0.100	-0.219
-523.989	-97.490	-0.493	-0.128
-522.975	-200.000	0.001	-0.048
-521.960	-52.815	-0.101	0.046
-520.945	-35.631	0.303	0.164
-519.931	-21.705	-0.225	0.137
-518.916	58.821	0.081	-0.079
-517.902	218.957	0.147	-0.235
-516.887	-11.979	-0.283	-0.184
-515.872	94.548	0.202	0.228
-514.858	-67.632	-0.087	-0.034
-513.843	-90.852	-0.233	0.067
-512.829	110.631	-0.063	0.075
-511.814	-200.000	0.007	0.121
-510.799	-47.837	-0.287	-0.138
-509.785	-51.154	-0.311	0.145
-508.770	800.000	-0.087	0.313
-507.756	100.049	0.182	-0.210
-506.741	-40.961	0.162	-0.083
-505.726	260.165	0.083	0.142
-504.712	-200.000	-0.016	-0.141
-503.697	84.112	0.247	-0.269
-502.683	-200.000	-0.004	-0.415
-501.668	-200.000	-0.021	0.234
-500.653	420.045	-0.164	-0.348
-499.639	800.000	-0.070	0.244
-498.624	-137.189	-0.272	-0.031
-497.610	-48.497	-0.025	-0.012
-496.595	-200.000	0.009	0.309
-495.581	12.721	0.214	-0.164
-494.566	-110.073	-0.144	0.030
-493.551	-42.064	0.198	-0.101
-492.537	341.925	-0.169	0.328
-491.522	20.686	-0.150	0.120
-490.508	-108.310	-0.079	-0.017
-489.493	-163.244	0.483	-0.023
-488.478	-23.041	-0.162	0.097
-487.464	-177.845	-0.200	-0.005
-486.449	-137.062	-0.276	0.031
-485.435	-78.963	-0.316	0.107
-484.420	150.802	0.163	-0.221
-483.405	211.339	-0.115	-0.180
-482.391	85.260	0.046	-0.050
-481.376	-161.055	0.427	0.022
-480.362	-30.898	0.049	-0.028
-479.347	-20.137	-0.282	0.173
-478.332	-200.000	0.013	-0.135
-477.318	34.446	0.126	-0.110
-476.303	520.535	-0.123	-0.287
-475.289	-78.762	0.144	0.049
-474.274	-46.361	0.187	-0.091
-473.259	800.000	-0.058	-0.183
-472.245	-200.000	0.057	-0.450
-471.230	-75.709	0.313	0.110
-470.216	-161.683	-0.521	0.026
-469.201	248.855	-0.147	-0.246
-468.186	-81.023	0.405	-0.133
-467.172	800.000	0.057	-0.161
-466.157	800.000	-0.055	0.153
-465.143	41.921	-0.187	-0.169
-464.128	199.544	0.055	0.084
-463.113	800.000	0.067	0.216
-462.099	-5.636	-0.373	0.254
-461.084	29.036	-0.263	-0.222
-460.070	-110.943	0.147	-0.030
-459.055	-131.299	-0.067	-0.009
-458.040	-101.783	-0.090	0.022
-457.026	115.823	0.092	0.112
-456.011	282.843	-0.195	-0.348
-454.997	102.838	0.092	0.107
-453.982	-34.062	-0.296	0.161
-452.968	800.000	0.045	-0.137
-451.953	210.918	-0.228	0.355
-450.938	800.000	-0.063	-0.228
-449.924	800.000	-0.024	0.079
-448.909	-46.665	0.159	-0.077
-447.895	800.000	0.047	0.143
-446.880	-149.379	-0.408	-0.032
-445.865	56.917	0.027	-0.026
-444.851	103.441	-0.221	-0.257
-443.836	-112.705	0.158	-0.031
-442.822	-46.917	0.151	-0.073
-441.807	34.917	-0.306	-0.266
-440.792	-200.000	0.006	0.114
-439.778	286.752	-0.105	0.189
-438.763	-12.049	0.052	-0.034
-437.749	63.425	0.146	-0.145
-436.734	15.775	-0.199	-0.155
-435.719	84.907	0.234	-0.254
-434.705	800.000	-0.054	-0.156
-433.690	-96.574	0.308	0.081
-432.676	-150.439	-0.324	-0.025
-431.661	-182.149	-0.615	0.011
-430.646	-111.979	-0.211	0.042
-429.632	-75.565	0.249	-0.088
-428.617	-50.921	-0.330	0.154
-427.603	-200.000	-0.003	0.094
-426.588	-2.446	-0.035	-0.025
-425.573	273.907	0.236	0.414
-424.559	319.531	0.088	-0.166
-423.544	-200.000	0.016	0.102
-422.530	-144.700	-0.186	-0.017
-421.515	-200.000	-0.005	-0.176
-420.500	-92.437	0.130	0.036
-419.486	-95.885	-0.202	0.053
-418.471	366.640	-0.093	-0.187
-417.457	271.997	-0.125	-0.219
-416.442	-82.919	-0.172	-0.055
-415.428	-29.827	-0.168	0.095
-414.413	429.137	0.057	0.122
-413.398	-127.958	-0.377	0.054
-412.384	800.000	-0.046	0.128
-411.369	23.037	0.091	0.074
-410.355	115.566	0.058	-0.070
-409.340	800.000	0.033	0.095
-408.325	-113.643	-0.144	-0.028
-407.311	424.991	0.111	-0.237
-406.296	21.490	0.053	-0.043
-405.282	-120.810	-0.179	0.030
-404.267	-89.771	0.132	0.038
-403.252	398.856	0.077	-0.159
-402.238	457.400	0.070	-0.154
-401.223	800.000	-0.089	0.261
-400.209	251.150	0.123	-0.207
-399.194	19.591	-0.204	-0.163
-398.179	800.000	-0.054	0.148
-397.165	-133.523	-0.279	0.035
-396.150	432.581	-0.054	-0.116
-395.136	-200.000	0.023	0.125
-394.121	800.000	-0.015	0.048
-393.106	-15.834	0.155	-0.098
-392.092	800.000	0.034	-0.100
-391.077	-200.000	0.012	-0.135
-390.063	-200.000	-0.001	-0.225
-389.048	800.000	-0.045	-0.140
-388.033	-11.186	-0.052	-0.034
-387.019	-59.049	0.302	0.129
-386.004	-200.000	0.024	-0.232
-384.990	360.029	0.073	0.145
-383.975	-52.870	0.154	-0.070
-382.960	399.227	-0.103	0.214
-381.946	-200.000	0.035	-0.164
-380.931	-26.940	-0.160	-0.092
-379.917	800.000	-0.062	-0.229
-378.902	-39.895	-0.171	0.088
-377.888	170.735	0.061	-0.087
-376.873	56.423	0.260	0.250
-375.858	173.019	-0.136	0.194
-374.844	-200.000	-0.014	-0.284
-373.829	-200.000	0.000	0.181
-372.815	-200.000	-0.013	-0.275
-371.800	617.139	-0.077	0.192
-370.785	-93.350	0.199	0.055
-369.771	-23.039	0.402	-0.239
-368.756	-137.591	0.263	-0.029
-367.742	32.526	0.054	-0.046
-366.727	-83.276	0.208	0.066
-365.712	154.682	-0.160	0.218
-364.698	-200.000	-0.039	0.169
-363.683	-200.000	-0.016	-0.099
-362.669	83.012	0.153	0.165
-361.654	-200.000	-0.006	-0.132
-360.639	800.000	-0.075	0.304
-359.625	-43.969	-0.130	0.065
-358.610	-200.000	-0.048	0.249
-357.596	-18.771	-0.219	-0.135
-356.581	-200.000	-0.026	-0.282
-355.566	260.592	0.213	0.365
-354.552	-33.861	0.244	0.133
-353.537	89.131	-0.156	-0.172
-352.523	-57.437	0.189	-0.082
-351.508	-42.016	0.200	0.101
-350.493	168.094	-0.131	-0.184
-349.479	98.777	0.173	-0.197
-348.464	-34.389	0.204	0.111
-347.450	-200.000	-0.007	-0.036
-346.435	-150.357	-0.184	0.014
-345.420	132.371	0.056	-0.071
-344.406	107.989	0.094	0.110
-343.391	7.431	-0.201	0.149
-342.377	220.381	0.125	0.198
-341.362	800.000	-0.017	0.064
-340.348	-200.000	0.001	0.035
-339.333	-200.000	0.048	0.216
-338.318	800.000	0.116	0.361
-337.304	319.234	0.163	0.306
-336.289	-104.662	0.181	0.041
-335.275	22.165	-0.120	0.096
-334.260	-140.141	-0.138	-0.014
-333.245	167.923	-0.109	0.153
-332.231	-73.033	-0.146	0.053
-331.216	-200.000	-0.057	-0.417
-330.202	-200.000	-0.019	-0.138
-329.187	-106.736	-0.077	0.017
-328.172	-30.716	0.213	-0.119
-327.158	-107.657	0.164	0.035
-326.143	246.307	0.159	0.265
-325.129	-200.000	0.149	0.676
-324.114	-200.000	-0.007	0.302
-323.099	431.222	0.232	-0.496
-322.085	216.486	0.169	-0.266
-321.070	-24.104	-0.144	0.085
-320.056	-117.106	-0.108	0.019
-319.041	-200.000	-0.038	-0.386
-318.026	800.000	-0.099	-0.284
-317.012	156.407	0.161	0.219
-315.997	67.880	-0.105	-0.106
-314.983	122.082	-0.201	-0.248
-313.968	99.748	0.172	-0.197
-312.953	-115.136	0.256	-0.048
-311.939	-200.000	-0.010	-0.175
-310.924	-200.000	0.011	-0.168
-309.910	80.744	0.192	-0.205
-308.895	176.646	0.203	0.292
-307.880	635.600	0.135	0.337
-306.866	676.590	-0.131	0.335
-305.851	-61.840	0.322	-0.133
-304.837	-200.000	0.022	-0.175
-303.822	14.185	0.077	0.060
-302.807	-200.000	-0.426	-0.001
-301.793	-93.212	0.357	0.098
-300.778	195.846	-0.197	0.296
-299.764	-75.567	0.325	0.114
-298.749	293.832	-0.107	0.193
-297.735	-10.093	-0.077	0.051
-296.720	-200.000	0.003	-0.074
-295.705	-124.953	-0.151	0.023
-294.691	-200.000	0.006	0.142
-293.676	-124.472	-0.072	0.011
-292.662	-200.000	-0.029	0.137
-291.647	-110.665	-0.271	-0.055
-290.632	121.746	0.198	0.243
-289.618	-162.275	0.160	0.008
-288.603	-62.235	-0.139	-0.057
-287.589	-200.000	-0.037	-0.188
-286.574	-200.000	0.005	0.127
-285.559	157.260	0.071	-0.097
-284.545	-121.088	-0.317	-0.052
-283.530	341.351	-0.075	0.144
-282.516	-200.000	-0.000	0.424
-281.501	-3.415	0.144	-0.099
-280.486	-32.968	0.099	-0.054
-279.472	-92.906	0.161	0.044
-278.457	-175.243	-0.263	-0.007
-277.443	-89.353	0.321	-0.093
-276.428	-39.047	0.161	-0.083
-275.413	-23.061	0.231	0.137
-274.399	-200.000	0.016	-0.188
-273.384	219.253	-0.211	-0.332
-272.370	122.194	-0.139	-0.170
-271.355	4.519	0.122	0.088
-270.340	-142.155	0.154	-0.015
-269.326	-46.178	-0.185	-0.090
-268.311	-27.321	0.158	-0.090
-267.297	357.328	-0.036	-0.070
-266.282	-147.983	0.272	-0.022
-265.267	-51.915	0.133	-0.061
-264.253	134.615	0.122	0.156
-263.238	276.203	-0.185	-0.324
-262.224	330.809	-0.117	-0.222
-261.209	57.429	-0.149	-0.144
-260.195	-69.829	-0.259	-0.097
-259.180	-200.000	0.005	0.139
-258.165	-100.582	0.155	0.038
-257.151	800.000	-0.030	-0.105
-256.136	26.262	0.049	-0.040
-255.122	279.521	0.160	0.282
-254.107	3.100	-0.212	0.152
-253.092	85.363	-0.067	-0.073
-252.078	116.346	0.158	0.190
-251.063	800.000	0.108	0.308
-250.049	-46.635	-0.285	-0.138
-249.034	13.593	-0.041	-0.031
-248.019	-74.471	-0.242	0.086
-247.005	800.000	-0.014	-0.045
-245.990	-200.000	-0.025	-0.398
-244.976	800.000	-0.069	0.208
-243.961	-177.613	-0.193	-0.005
-242.946	800.000	0.045	-0.142
-241.932	485.502	0.053	-0.119
-240.917	-56.111	0.312	-0.137
-239.903	800.000	-0.041	-0.157
-238.888	-200.000	0.126	-0.000
-237.873	48.539	0.177	-0.163
-236.859	243.701	0.105	0.174
-235.844	58.958	0.129	-0.124
-234.830	-114.807	0.169	-0.032
-233.815	6.878	-0.099	-0.072
-232.800	-200.000	0.053	0.296
-231.786	150.897	-0.232	0.310
-230.771	30.569	0.233	-0.196
-229.757	-24.735	-0.079	0.046
-228.742	752.322	0.067	-0.178
-227.727	800.000	0.029	0.112
-226.713	-33.402	0.156	-0.085
-225.698	-200.000	0.055	0.273
-224.684	-40.553	0.053	0.027
-223.669	-200.000	0.038	0.190
-222.655	-200.000	0.097	0.449
-221.640	-163.750	0.091	-0.004
-220.625	-83.058	0.073	-0.023
-219.611	-200.000	0.040	0.632
-218.596	-94.301	-0.277	-0.074
-217.582	4.491	0.121	-0.088
-216.567	-200.000	0.007	-0.088
-215.552	-49.413	0.319	0.149
-214.538	-50.149	0.201	0.093
-213.523	-133.085	-0.318	0.040
-212.509	-200.000	0.019	-0.244
-211.494	-200.000	-0.024	0.357
-210.479	-200.000	-0.057	0.380
-209.465	127.346	0.131	-0.163
-208.450	-129.368	-0.304	-0.042
-207.436	-200.000	0.001	0.113
-206.421	55.153	0.201	0.191
-205.406	-125.518	0.154	0.023
-204.392	-110.921	-0.083	-0.017
-203.377	-5.519	-0.311	-0.210
-202.363	-149.609	0.077	0.006
-201.348	800.000	0.078	0.221
-200.333	-93.186	-0.313	-0.086
-199.319	-200.000	0.089	0.421
-198.304	116.222	0.096	-0.116
-197.290	102.413	-0.100	-0.115
-196.275	114.880	-0.101	-0.121
-195.260	-123.454	0.305	-0.048
-194.246	197.141	-0.111	0.166
-193.231	176.411	-0.081	-0.115
-192.217	800.000	-0.066	-0.221
-191.202	301.996	0.190	-0.345
-190.187	514.309	0.032	-0.072
-189.173	256.864	-0.059	-0.099
-188.158	-93.710	-0.158	-0.043
-187.144	-34.973	0.127	0.068
-186.129	800.000	-0.165	0.500
-185.114	237.388	-0.008	0.013
-184.100	681.661	0.099	-0.253
-183.085	33.112	0.132	0.112
-182.071	-98.549	-0.179	-0.045
-181.056	-48.738	-0.255	0.120
-180.042	81.676	-0.118	-0.125
-179.027	-30.147	0.198	0.110
-178.012	-116.866	0.197	0.035
-176.998	-94.713	0.549	0.146
-175.983	163.930	0.239	-0.330
-174.969	28.357	0.124	-0.103
-173.954	-16.802	0.304	0.189
-172.939	186.992	-0.215	0.315
-171.925	238.486	-0.162	0.264
-170.910	23.762	0.222	-0.180
-169.896	-2.237	-0.294	0.203
-168.881	-60.543	0.311	0.130
-167.866	-200.000	0.004	0.069
-166.852	800.000	0.071	-0.221
-165.837	-6.489	0.089	0.060
-164.823	-200.000	-0.012	0.057
-163.808	26.530	0.080	0.066
-162.793	7.045	-0.174	-0.128
-161.779	148.535	0.240	0.317
-160.764	36.457	0.014	0.012
-159.750	-35.128	0.100	0.053
-158.735	-183.639	-0.087	0.001
-157.720	317.382	-0.239	-0.443
-156.706	62.978	0.227	0.223
-155.691	-100.288	0.139	0.034
-154.677	-13.431	0.231	-0.147
-153.662	796.457	0.120	0.324
-152.647	17.587	0.220	0.171
-151.633	48.575	-0.253	0.232
-150.618	-33.935	0.233	-0.126
-149.604	204.253	-0.079	0.120
-148.589	583.445	-0.069	-0.167
-147.574	-200.000	0.041	0.215
-146.560	-84.614	-0.078	0.024
-145.545	800.000	0.094	-0.282
-144.531	195.198	-0.142	0.211
-143.516	-200.000	-0.130	0.000
-142.502	1.556	-0.132	0.093
-141.487	114.490	0.181	0.216
-140.472	-200.000	0.072	-0.335
-139.458	173.395	-0.066	0.094
-138.443	115.435	-0.103	0.123
-137.429	-22.941	0.019	0.011
-136.414	29.475	0.372	-0.310
-135.399	-200.000	-0.000	0.158
-134.385	8.659	0.247	0.182
-133.370	291.486	0.029	-0.052
-132.356	-183.661	-0.276	-0.005
-131.341	-146.354	-0.091	-0.008
-130.326	67.635	0.137	-0.137
-129.312	-200.000	-0.053	0.301
-128.297	-200.000	-0.084	0.361
-127.283	-148.498	0.198	-0.016
-126.268	-141.527	-0.295	0.029
-125.253	92.561	-0.085	0.093
-124.239	55.233	-0.045	0.043
-123.224	344.614	-0.135	-0.259
-122.210	298.567	0.104	-0.187
-121.195	-200.000	0.050	-0.296
-120.180	-81.690	0.601	0.193
-119.166	-119.687	-0.126	-0.021
-118.151	53.712	-0.275	-0.259
-117.137	-70.355	0.084	-0.031
-116.122	284.885	-0.060	-0.107
-115.107	-36.819	0.127	-0.067
-114.093	-67.920	-0.176	-0.067
-113.078	-98.447	-0.012	-0.003
-112.064	98.506	-0.181	0.204
-111.049	-49.485	0.301	0.141
-110.034	-88.721	0.372	-0.108
-109.020	-102.106	0.187	-0.044
-108.005	127.171	0.162	0.201
-106.991	167.984	-0.026	0.036
-105.976	94.907	-0.106	-0.118
-104.962	-200.000	-0.003	0.047
-103.947	320.318	0.107	0.199
-102.932	117.600	-0.284	-0.342
-101.918	-200.000	-0.006	0.303
-100.903	95.990	-0.081	-0.091
-99.889	196.511	0.123	0.184
-98.874	-136.981	-0.022	-0.002
-97.859	143.714	0.119	-0.155
-96.845	-154.584	0.150	0.010
-95.830	546.824	-0.127	-0.297
-94.816	453.778	0.038	-0.081
-93.801	-98.327	0.185	-0.046
-92.786	-200.000	-0.043	-0.239
-91.772	-89.014	-0.172	-0.050
-90.757	37.926	0.149	-0.130
-89.743	-21.894	-0.171	-0.102
-88.728	137.063	0.106	-0.135
-87.713	194.574	-0.091	-0.135
-86.699	-50.761	-0.183	0.084
-85.684	-83.346	-0.269	-0.084
-84.670	-58.563	0.262	0.111
-83.655	-111.745	0.157	0.031
-82.640	-157.780	0.150	-0.009
-81.626	106.792	0.144	-0.167
-80.611	270.690	-0.077	0.132
-79.597	-200.000	-0.049	-0.277
-78.582	-200.000	0.010	0.074
-77.567	90.581	-0.147	0.161
-76.553	5.347	0.186	-0.134
-75.538	7.853	-0.224	-0.164
-74.524	156.491	0.150	-0.202
-73.509	20.949	0.166	0.131
-72.494	-43.067	-0.163	-0.081
-71.480	-124.153	-0.441	-0.068
-70.465	-83.650	0.420	0.131
-69.451	9.040	0.202	-0.149
-68.436	614.215	0.089	-0.218
-67.422	340.957	-0.105	-0.201
-66.407	-200.000	-0.029	-0.523
-65.392	707.155	-0.038	-0.097
-64.378	800.000	-0.097	-0.368
-63.363	-200.000	-0.005	0.313
-62.349	-2.198	0.209	-0.144
-61.334	123.330	-0.557	-0.682
-60.319	86.783	0.394	0.425
-59.305	500.246	-0.606	-1.367
-58.290	234.328	0.884	1.424
-57.276	800.000	0.567	1.774
-56.261	-200.000	116.506	662.604
-55.246	531.252	1533.500	3542.715
-54.232	176.651	2705.773	3843.449
-53.217	108.352	2182.642	2544.615
-52.203	37.835	1702.572	1477.870
-51.188	29.967	1518.485	1264.557
-50.173	27.766	1493.591	1228.967
-49.159	52.430	1553.328	1448.128
-48.144	50.328	1567.985	1447.333
-47.130	30.258	1523.792	1270.768
-46.115	27.188	1508.160	1236.831
-45.100	27.017	1504.633	1232.728
-44.086	27.024	1502.671	1231.118
-43.071	26.865	1500.657	1228.340
-42.057	26.932	1499.224	1227.575
-41.042	26.935	1497.657	1226.265
-40.027	26.921	1496.535	1225.201
-39.013	26.849	1494.840	1223.277
-37.998	26.890	1493.698	1222.574
-36.984	26.879	1492.743	1221.667
-35.969	26.951	1491.176	1220.822
-34.954	26.885	1489.796	1219.196
-33.940	26.885	1488.418	1218.021
-32.925	26.974	1487.184	1217.563
-31.911	27.008	1485.618	1216.462
-30.896	26.918	1484.726	1215.075
-29.881	26.923	1482.897	1213.567
-28.867	27.016	1482.196	1213.568
-27.852	26.944	1481.081	1212.121
-26.838	26.887	1479.682	1210.550
-25.823	26.949	1477.755	1209.340
-24.809	26.985	1476.111	1208.187
-23.794	26.972	1474.908	1207.067
-22.779	26.938	1473.371	1205.531
-21.765	26.973	1472.562	1205.056
-20.750	26.988	1471.506	1204.248
-19.736	26.990	1470.194	1203.138
-18.721	26.923	1469.551	1202.118
-17.706	26.958	1468.329	1201.302
-16.692	26.933	1467.154	1200.128
-15.677	26.972	1466.239	1199.589
-14.663	26.987	1465.318	1198.887
-13.648	26.851	1464.358	1197.158
-12.633	27.028	1463.158	1197.293
-11.619	27.007	1462.490	1196.561
-10.604	26.873	1461.987	1195.220
-9.590	26.912	1461.122	1194.722
-8.575	26.933	1459.997	1193.892
-7.560	27.020	1459.066	1193.656
-6.546	26.963	1457.953	1192.325
-5.531	26.937	1457.012	1191.339
-4.517	27.002	1456.222	1191.070
-3.502	26.920	1455.355	1189.779
-2.487	26.935	1453.974	1188.701
-1.473	26.872	1453.664	1187.986
-0.458	26.871	1452.070	1186.630
0.556	27.158	1442.128	1175.817
1.571	24.028	1417.735	1135.887
2.586	20.863	1356.139	1067.086
3.600	19.107	1273.505	991.864
4.615	17.837	1228.062	949.331
5.629	15.390	1171.849	892.786
6.644	8.810	1090.382	797.972
7.659	3.976	1053.754	747.787
8.673	3.455	1048.603	741.559
9.688	3.379	1045.125	738.668
10.702	3.313	1044.249	737.668
11.717	3.444	1041.926	736.588
12.731	5.120	1042.974	745.273
13.746	11.661	1051.862	782.976
14.761	17.798	1060.238	818.684
15.775	19.425	1061.314	827.249
16.790	19.110	1059.784	824.476
17.804	18.083	1057.815	817.959
18.819	17.041	1056.361	811.781
19.834	16.763	1054.644	809.060
20.848	16.670	1053.610	807.754
21.863	16.406	1053.356	806.226
22.877	16.319	1051.962	804.674
23.892	16.093	1051.299	803.021
24.907	15.966	1050.877	802.022
25.921	15.977	1049.815	801.190
26.936	16.048	1049.608	801.300
27.950	16.119	1048.078	800.398
28.965	15.963	1047.426	799.090
29.980	16.152	1045.936	798.780
30.994	16.302	1044.727	798.495
32.009	16.367	1043.891	798.091
33.023	16.432	1043.338	797.905
34.038	16.379	1042.403	796.871
35.053	16.347	1041.606	796.039
36.067	16.275	1040.576	794.843
37.082	16.124	1039.535	793.265
38.096	16.027	1039.305	792.563
39.111	16.162	1038.336	792.389
40.126	16.335	1037.754	792.687
41.140	16.161	1036.544	790.876
42.155	16.020	1034.927	788.913
43.169	15.967	1033.945	787.846
44.184	15.970	1033.191	787.219
45.199	15.868	1031.926	785.707
46.213	15.991	1030.760	785.324
47.228	15.893	1029.808	784.071
48.242	16.081	1029.041	784.293
49.257	16.180	1028.389	784.189
50.271	16.034	1027.098	782.456
51.286	16.048	1026.524	782.014
52.301	16.270	1025.558	782.240
53.315	16.139	1024.989	781.126
54.330	16.060	1023.858	779.834
55.344	16.028	1023.007	778.965
56.359	15.929	1022.429	778.001
57.374	15.947	1021.489	777.298
58.388	16.049	1020.548	776.985
59.403	15.865	1019.955	775.616
60.417	15.864	1018.765	774.640
61.432	15.799	1018.364	773.967
62.447	15.925	1017.405	773.750
63.461	15.815	1016.486	772.476
64.476	15.748	1015.555	771.393
65.490	15.803	1014.510	770.782
66.505	15.658	1014.292	769.884
67.520	15.652	1013.618	769.279
68.534	15.857	1011.957	768.887
69.549	15.818	1011.649	768.407
70.563	15.937	1010.616	768.096
71.578	15.629	1010.272	766.363
72.593	15.666	1009.510	765.883
73.607	15.646	1008.150	764.695
74.622	15.693	1007.222	764.135
75.636	15.483	1006.739	762.750
76.651	15.777	1005.332	762.947
77.666	15.726	1005.215	762.559
78.680	15.660	1004.392	761.568
79.695	15.568	1003.936	760.741
80.709	15.682	1003.179	760.613
81.724	15.771	1002.572	760.491
82.739	15.909	1001.779	760.445
83.753	16.035	1000.943	760.310
84.768	15.891	1000.803	759.488
85.782	16.209	999.910	760.177
86.797	16.338	998.845	759.878
87.812	16.325	998.005	759.112
88.826	16.223	997.078	757.884
89.841	16.191	996.236	757.031
90.855	16.159	995.819	756.506
91.870	16.245	994.906	756.130
92.884	16.256	994.432	755.753
93.899	16.209	993.726	754.938
94.914	16.404	992.494	754.805
95.928	16.371	992.114	754.306
96.943	16.568	990.784	754.104
97.957	16.422	990.254	752.985
98.972	16.213	989.862	751.689
99.987	16.264	989.090	751.264
101.001	16.209	988.390	750.419
102.016	16.264	987.748	750.112
103.030	16.299	986.309	749.108
104.045	16.267	985.544	748.317
105.060	16.387	984.533	748.015
106.074	16.264	983.758	746.817
107.089	16.103	982.787	745.301
108.103	15.934	981.821	743.754
109.118	15.960	980.124	742.521
110.133	15.790	979.842	741.493
111.147	15.884	979.104	741.281
112.162	15.894	978.064	740.474
113.176	15.830	977.502	739.698
114.191	15.936	976.670	739.469
115.206	16.023	975.900	739.203
116.220	15.848	975.120	737.779
117.235	15.935	974.078	737.309
118.249	15.925	973.010	736.389
119.264	15.925	972.453	735.904
120.279	15.906	971.717	735.200
121.293	15.770	971.123	734.090
122.308	15.785	969.951	733.205
123.322	15.700	969.427	732.374
124.337	15.760	967.831	731.365
125.352	15.820	966.802	730.785
126.366	15.783	965.612	729.658
127.381	15.771	964.820	728.941
128.395	15.652	963.844	727.625
129.410	15.678	962.729	726.831
130.424	15.726	961.950	726.388
131.439	15.885	960.835	726.166
132.454	16.043	960.348	726.416
133.468	16.029	959.324	725.516
134.483	15.857	959.029	724.487
135.497	16.033	958.268	724.606
136.512	15.979	957.702	723.881
137.527	15.818	956.986	722.584
138.541	15.976	955.681	722.212
139.556	15.946	955.210	721.665
140.570	16.026	954.412	721.343
141.585	16.139	953.991	721.442
142.600	16.168	953.685	721.273
143.614	16.329	952.435	720.951
144.629	16.329	952.088	720.622
145.643	16.263	951.764	720.031
146.658	16.390	950.286	719.393
147.673	16.237	949.199	717.856
148.687	16.246	948.454	717.266
149.702	16.125	947.140	715.694
150.716	16.178	946.090	715.062
151.731	16.029	945.364	713.820
152.746	15.971	944.947	713.196
153.760	15.928	944.424	712.557
154.775	16.006	943.652	712.242
155.789	16.234	942.800	712.498
156.804	16.258	942.300	712.156
157.819	16.376	941.417	711.925
158.833	16.299	940.372	710.748
159.848	16.301	940.118	710.500
160.862	16.553	939.167	710.779
161.877	16.376	938.747	709.656
162.892	16.176	937.793	708.031
163.906	15.922	936.708	706.086
164.921	16.190	935.734	706.411
165.935	16.184	934.417	705.329
166.950	15.993	934.233	704.327
167.964	16.143	933.228	704.136
168.979	16.280	931.877	703.625
169.994	16.243	930.841	702.626
171.008	16.217	930.131	701.920
172.023	16.252	929.491	701.519
173.037	16.249	928.667	700.826
174.052	16.448	928.077	701.141
175.067	16.527	927.348	700.856
176.081	16.253	926.451	698.981
177.096	16.094	925.765	697.745
178.110	16.179	924.811	697.316
179.125	16.232	923.956	696.829
180.140	16.253	923.547	696.543
181.154	16.241	922.548	695.680
182.169	16.336	922.167	695.721
183.183	16.327	921.863	695.393
184.198	16.468	921.176	695.395
185.213	16.457	920.478	694.761
186.227	16.596	919.707	694.688
187.242	16.481	919.554	694.040
188.256	16.612	918.578	693.778
189.271	16.788	917.370	693.527
190.286	16.670	917.273	692.907
191.300	16.518	916.354	691.531
192.315	16.268	915.391	689.722
193.329	16.076	914.726	688.376
194.344	16.066	913.978	687.711
195.359	16.193	913.471	687.785
196.373	16.312	913.132	687.953
197.388	16.415	912.522	687.855
198.402	16.560	912.354	688.258
199.417	16.699	911.805	688.348
200.432	16.771	911.609	688.430
201.446	16.827	911.031	688.159
202.461	16.884	910.507	687.935
203.475	16.967	909.976	687.810
204.490	16.882	909.177	686.802
205.504	16.840	908.167	685.805
206.519	16.716	907.658	684.859
207.534	16.640	906.596	683.690
208.548	16.758	905.950	683.619
209.563	16.743	905.067	682.833
210.577	16.700	904.429	682.117
211.592	16.751	903.953	681.904
212.607	16.946	903.444	682.244
213.621	16.826	903.174	681.498
214.636	16.995	902.197	681.378
215.650	16.815	901.846	680.332
216.665	16.934	900.918	680.046
217.680	17.050	900.748	680.326
218.694	17.030	900.515	680.008
219.709	17.088	899.929	679.735
220.723	17.190	899.129	679.481
221.738	16.950	898.318	677.850
222.753	17.049	897.823	677.811
223.767	16.972	897.060	676.866
224.782	16.998	896.504	676.492
225.796	17.219	895.484	676.543
226.811	17.332	894.655	676.305
227.826	17.132	894.189	675.099
228.840	17.096	893.508	674.381
229.855	17.175	892.627	673.971
230.869	17.047	892.056	672.970
231.884	17.036	891.911	672.760
232.899	16.962	890.891	671.638
233.913	16.876	890.411	670.878
234.928	16.887	889.420	670.115
235.942	16.900	888.559	669.458
236.957	16.924	887.887	668.987
237.972	16.935	887.527	668.701
238.986	16.987	886.663	668.194
240.001	16.948	886.192	667.624
241.015	16.816	885.735	666.703
242.030	17.006	884.973	666.817
243.045	17.022	884.347	666.351
244.059	17.220	883.620	666.521
245.074	17.137	882.786	665.507
246.088	17.120	882.603	665.242
247.103	17.197	881.875	664.935
248.117	17.283	881.693	665.077
249.132	17.331	880.881	664.592
250.147	17.510	880.726	665.116
251.161	17.554	880.276	664.890
252.176	17.612	879.626	664.567
253.190	17.755	878.860	664.487
254.205	17.800	878.133	664.054
255.220	17.853	877.492	663.715
256.234	17.676	876.831	662.470
257.249	17.752	875.981	662.064
258.263	17.845	875.597	662.074
259.278	17.810	875.067	661.480
260.293	17.813	874.523	661.020
261.307	17.905	873.794	660.768
262.322	17.827	873.601	660.263
263.336	17.867	873.000	659.905
264.351	17.875	872.629	659.594
265.366	17.927	871.988	659.255
266.380	17.961	871.204	658.734
267.395	17.993	870.580	658.328
268.409	17.887	869.823	657.289
269.424	17.852	868.727	656.268
270.439	17.904	868.118	655.951
271.453	17.898	867.420	655.340
272.468	17.762	866.451	654.031
273.482	17.672	865.858	653.179
274.497	17.699	865.566	653.006
275.512	17.720	865.214	652.761
276.526	17.857	864.059	652.357
277.541	17.866	863.186	651.674
278.555	17.724	863.239	651.114
279.570	18.004	862.131	651.289
280.585	17.904	862.147	650.861
281.599	18.017	861.771	650.949
282.614	17.941	860.787	649.861
283.628	18.033	860.245	649.745
284.643	17.955	859.355	648.718
285.657	17.875	858.937	648.041
286.672	17.945	858.419	647.859
287.687	18.013	858.044	647.777
288.701	18.001	857.608	647.343
289.716	18.006	856.593	646.541
290.730	18.155	856.264	646.799
291.745	18.073	855.685	645.993
292.760	18.104	855.036	645.563
293.774	18.171	854.438	645.306
294.789	18.116	854.324	644.957
295.803	18.396	853.201	645.106
296.818	18.079	852.610	643.411
297.833	17.987	851.857	642.437
298.847	18.130	851.103	642.349
299.862	18.065	850.731	641.767
300.876	18.126	849.986	641.379
301.891	18.293	849.760	641.777
302.906	18.401	848.695	641.321
303.920	18.592	847.974	641.433
304.935	18.382	847.755	640.426
305.949	18.508	847.161	640.392
306.964	18.539	846.549	639.986
307.979	18.449	845.895	639.102
308.993	18.297	846.131	638.655
310.008	18.438	845.175	638.401
311.022	18.592	844.192	638.177
312.037	18.534	844.041	637.789
313.052	18.370	843.378	636.623
314.066	18.318	842.392	635.631
315.081	18.241	842.265	635.192
316.095	18.308	841.154	634.545
317.110	18.317	840.939	634.360
318.125	18.269	840.535	633.824
319.139	18.385	839.785	633.628
320.154	18.245	839.616	632.927
321.168	18.263	839.052	632.514
322.183	18.379	838.304	632.321
323.197	18.253	837.744	631.380
324.212	18.334	837.559	631.481
325.227	18.557	836.415	631.385
326.241	18.344	836.260	630.427
327.256	18.393	836.000	630.356
328.270	18.325	835.287	629.513
329.285	18.434	834.449	629.227
330.300	18.404	833.983	628.708
331.314	18.409	833.412	628.241
332.329	18.502	832.809	628.074
333.343	18.536	832.283	627.744
334.358	18.565	831.813	627.441
335.373	18.696	831.268	627.452
336.387	18.687	830.635	626.886
337.402	18.636	829.871	626.069
338.416	18.830	829.423	626.383
339.431	18.765	829.285	625.986
340.446	18.869	828.889	626.010
341.460	18.843	828.149	625.301
342.475	18.997	827.671	625.444
343.489	18.979	827.123	624.912
344.504	19.054	826.627	624.753
345.519	19.112	825.981	624.419
346.533	19.090	825.355	623.811
347.548	19.079	825.305	623.677
348.562	18.936	824.548	622.535
349.577	18.775	823.877	621.389
350.592	18.771	823.408	620.966
351.606	18.767	822.949	620.551
352.621	18.750	822.323	619.961
353.635	18.720	821.991	619.551
354.650	18.651	821.913	619.185
355.665	18.834	821.243	619.286
356.679	18.862	820.469	618.748
357.694	18.894	820.000	618.457
358.708	19.033	819.365	618.421
359.723	18.907	819.150	617.752
360.738	19.033	818.217	617.444
361.752	18.910	817.739	616.588
362.767	18.945	817.517	616.493
363.781	19.077	817.110	616.605
364.796	19.332	816.486	616.992
365.810	19.227	816.526	616.592
366.825	19.345	815.906	616.490
367.840	19.314	815.969	616.372
368.854	19.302	815.645	616.030
369.869	19.453	814.601	615.725
370.883	19.248	814.243	614.670
371.898	19.284	813.496	614.182
372.913	19.334	812.953	613.893
373.927	19.446	812.421	613.836
374.942	19.507	811.352	613.190
375.956	19.375	811.205	612.557
376.971	19.428	810.484	612.148
377.986	19.496	810.118	612.058
379.000	19.656	809.691	612.246
380.015	19.625	809.222	611.730
381.029	19.728	808.606	611.572
382.044	19.618	808.280	610.882
383.059	19.611	807.354	610.104
384.073	19.784	806.893	610.314
385.088	19.602	806.423	609.261
386.102	19.410	805.910	608.145
387.117	19.444	805.299	607.749
388.132	19.403	804.758	607.143
389.146	19.433	804.281	606.834
390.161	19.393	804.073	606.482
391.175	19.495	803.713	606.516
392.190	19.642	803.710	606.978
393.205	19.696	802.637	606.302
394.219	19.535	802.372	605.483
395.234	19.549	801.899	605.123
396.248	19.464	801.067	604.142
397.263	19.391	800.438	603.360
398.278	19.410	800.246	603.228
399.292	19.271	799.909	602.434
400.307	19.376	799.506	602.445
401.321	19.511	798.994	602.477
402.336	19.418	798.422	601.668
403.350	19.545	798.214	601.901
404.365	19.572	797.693	601.547
405.380	19.627	797.504	601.546
406.394	19.777	796.723	601.424
407.409	19.876	796.660	601.666
408.423	19.933	796.019	601.329
409.438	19.955	795.513	600.970
410.453	19.918	795.364	600.675
411.467	19.897	795.053	600.315
412.482	20.067	794.435	600.383
413.496	20.000	794.281	599.983
414.511	20.189	793.864	600.266
415.526	19.999	793.514	599.291
416.540	20.130	792.809	599.159
417.555	20.077	792.460	598.660
418.569	20.055	792.123	598.277
419.584	20.066	791.661	597.911
420.599	20.114	791.149	597.637
421.613	161.640	1371.879	1797.443
422.628	140.021	1456.489	1797.518
