DTS Sentinel unit serial number:	SN413079Multiplexer serial number:	ORYXHardware model number:	OX4-SRSoftware version number:	ORYX F/W v4.00 Oryx Data Collector v3.7.2.0data status	okinstallation	princeton_trtdifferential loss correction	single-endedforward channel	channel 3reverse channel	N/Adate	2019/09/16time	20:24:35forward acquisition time	60.00reverse acquisition time	0.00gamma	496.2192k internal	0.2323k external	0.2323temperature offset calibration	0.9936default loss term (dB/km)	0.3790temperature slope calibration	1.0000multiplexer offset coefficient	1.0000multiplexer slope coefficient	1.0000fibre end	0.00T internal ref (°C)	32.75T ext. ref 1 (°C)	0.05T ext. ref 2 (°C)	26.67length (m)	temperature (°C)	Stokes	anti-Stokes-747.200	-200.000	-0.005	0.407
-746.185	-200.000	0.004	0.150
-745.171	174.523	-0.229	-0.335
-744.156	-123.844	-0.035	0.006
-743.142	800.000	0.091	0.309
-742.127	-71.265	0.202	0.076
-741.112	-83.776	0.216	0.070
-740.098	-109.913	-0.101	-0.021
-739.083	121.490	0.195	0.246
-738.069	-80.858	-0.235	0.079
-737.054	-97.962	0.362	0.094
-736.039	86.843	-0.136	-0.151
-735.025	259.216	0.229	0.399
-734.010	51.318	0.049	-0.047
-732.996	565.871	-0.013	-0.031
-731.981	190.135	-0.091	0.138
-730.966	800.000	-0.050	0.167
-729.952	-200.000	-0.000	0.103
-728.937	5.252	-0.097	-0.072
-727.923	-170.007	-0.362	0.013
-726.908	556.518	0.060	-0.145
-725.894	-200.000	0.037	-0.419
-724.879	-200.000	0.008	0.165
-723.864	-19.386	-0.171	0.107
-722.850	44.962	-0.074	0.069
-721.835	-51.944	0.102	0.048
-720.821	87.098	-0.108	-0.120
-719.806	30.043	0.257	-0.221
-718.791	-200.000	-0.008	-0.180
-717.777	252.275	-0.141	-0.242
-716.762	-19.687	0.071	0.044
-715.748	-38.584	-0.232	-0.124
-714.733	83.456	-0.253	-0.278
-713.718	-200.000	0.031	0.313
-712.704	375.541	0.129	-0.265
-711.689	800.000	0.121	-0.366
-710.675	36.099	0.087	0.077
-709.660	2.510	0.161	-0.118
-708.645	-66.379	0.310	0.124
-707.631	-200.000	-0.014	0.148
-706.616	-77.374	0.147	0.051
-705.602	-73.263	0.136	0.050
-704.587	-101.676	0.602	0.147
-703.572	-169.983	-0.082	0.003
-702.558	340.136	-0.156	0.307
-701.543	23.359	-0.319	0.264
-700.529	-169.572	-0.404	-0.015
-699.514	800.000	-0.077	0.233
-698.499	345.831	0.075	0.149
-697.485	800.000	0.085	-0.334
-696.470	463.440	-0.051	0.115
-695.456	388.925	-0.154	-0.321
-694.441	112.893	-0.252	-0.308
-693.426	-200.000	-0.007	0.116
-692.412	317.051	0.043	-0.082
-691.397	129.991	-0.181	0.233
-690.383	-127.495	0.332	-0.049
-689.368	-95.236	0.331	-0.090
-688.354	-95.571	0.144	0.039
-687.339	-169.692	-0.227	0.008
-686.324	138.167	-0.077	-0.102
-685.310	-200.000	-0.012	-0.151
-684.295	-113.201	-0.303	-0.060
-683.281	-200.000	-0.040	-0.445
-682.266	-88.594	-0.312	0.094
-681.251	-47.297	-0.077	-0.038
-680.237	-200.000	-0.009	-0.251
-679.222	8.177	0.420	-0.318
-678.208	101.640	0.225	-0.265
-677.193	-108.662	0.265	0.057
-676.178	154.128	-0.029	-0.040
-675.164	800.000	0.147	0.434
-674.149	327.115	0.099	0.192
-673.135	-200.000	0.044	-0.341
-672.120	73.308	-0.148	-0.156
-671.105	-200.000	-0.004	-0.393
-670.091	477.086	-0.144	-0.328
-669.076	36.199	0.168	0.149
-668.062	-63.089	-0.085	0.035
-667.047	203.744	-0.187	-0.291
-666.032	800.000	0.091	-0.299
-665.018	198.903	-0.041	-0.062
-664.003	-97.179	0.053	-0.014
-662.989	-25.268	-0.018	-0.011
-661.974	208.126	-0.267	-0.420
-660.959	249.063	-0.118	-0.201
-659.945	800.000	-0.119	0.396
-658.930	42.676	-0.235	0.216
-657.916	-200.000	-0.069	0.351
-656.901	-76.499	0.155	-0.055
-655.886	800.000	-0.097	-0.304
-654.872	15.696	0.111	0.088
-653.857	-200.000	-0.043	0.332
-652.843	-37.957	-0.276	-0.148
-651.828	200.206	0.131	-0.202
-650.814	-200.000	-0.003	0.180
-649.799	-200.000	0.018	0.192
-648.784	-2.521	0.209	-0.147
-647.770	-59.402	0.350	-0.151
-646.755	183.491	-0.186	-0.277
-645.741	-151.482	0.198	-0.015
-644.726	-200.000	-0.042	0.513
-643.711	8.997	0.227	-0.172
-642.697	66.293	-0.147	0.151
-641.682	355.733	0.028	-0.057
-640.668	800.000	0.099	-0.395
-639.653	-200.000	-0.027	0.273
-638.638	149.653	-0.078	0.107
-637.624	21.487	0.110	0.090
-636.609	-17.478	0.342	0.216
-635.595	-96.150	-0.177	-0.047
-634.580	-48.337	-0.231	0.112
-633.565	292.396	-0.040	0.074
-632.551	-16.985	0.113	0.072
-631.536	-200.000	-0.002	0.137
-630.522	19.981	0.063	0.051
-629.507	-182.697	-0.243	-0.004
-628.492	87.310	0.128	0.143
-627.478	-98.846	-0.192	-0.049
-626.463	-4.853	0.373	-0.259
-625.449	800.000	-0.104	0.317
-624.434	-96.249	0.266	0.071
-623.419	-163.037	0.193	0.009
-622.405	230.683	0.121	0.199
-621.390	-48.835	-0.266	0.128
-620.376	88.701	0.157	-0.175
-619.361	-200.000	0.066	0.389
-618.346	-200.000	0.039	0.202
-617.332	-28.382	-0.299	-0.174
-616.317	-55.600	0.394	-0.177
-615.303	-200.000	0.053	0.329
-614.288	-104.619	-0.209	0.048
-613.273	-38.124	0.070	-0.037
-612.259	31.696	-0.125	0.108
-611.244	-200.000	-0.030	0.184
-610.230	294.239	-0.071	-0.130
-609.215	-200.000	0.028	-0.308
-608.201	-176.579	-0.171	0.004
-607.186	800.000	-0.057	0.222
-606.171	800.000	-0.061	0.186
-605.157	-78.720	-0.146	-0.050
-604.142	-87.644	0.285	0.087
-603.128	-200.000	-0.008	-0.062
-602.113	-110.521	-0.087	0.018
-601.098	107.035	0.194	-0.232
-600.084	800.000	0.019	0.057
-599.069	-200.000	0.003	-0.144
-598.055	125.651	0.127	-0.161
-597.040	122.850	0.021	-0.027
-596.025	-152.193	-0.163	0.012
-595.011	168.090	-0.104	0.149
-593.996	19.514	0.346	0.279
-592.982	479.518	0.106	-0.242
-591.967	-66.843	0.254	0.101
-590.952	65.199	0.091	-0.092
-589.938	800.000	0.108	-0.351
-588.923	-43.042	0.237	-0.121
-587.909	-28.529	-0.197	0.114
-586.894	-200.000	-0.058	0.436
-585.879	-82.661	-0.206	-0.067
-584.865	181.612	-0.273	0.403
-583.850	-95.262	-0.139	0.038
-582.836	78.005	-0.073	0.079
-581.821	-200.000	0.015	-0.111
-580.806	-45.943	-0.061	0.030
-579.792	141.652	0.209	-0.278
-578.777	800.000	0.049	0.186
-577.763	800.000	-0.063	-0.187
-576.748	-200.000	-0.036	-0.208
-575.733	96.197	0.033	0.038
-574.719	-55.758	0.174	-0.078
-573.704	800.000	-0.026	0.115
-572.690	-63.571	-0.160	0.066
-571.675	-98.777	0.210	0.054
-570.661	800.000	-0.048	0.137
-569.646	117.627	-0.126	0.156
-568.631	29.242	-0.239	0.204
-567.617	-109.574	-0.220	-0.046
-566.602	-64.458	0.408	0.166
-565.588	-194.880	-0.195	-0.002
-564.573	2.716	0.284	-0.206
-563.558	-200.000	-0.006	-0.187
-562.544	-173.035	0.215	-0.007
-561.529	3.213	-0.022	0.016
-560.515	35.927	-0.158	-0.139
-559.500	178.481	0.232	-0.339
-558.485	-111.846	0.144	0.029
-557.471	-200.000	0.001	0.290
-556.456	-200.000	-0.061	-0.276
-555.442	230.507	0.166	0.272
-554.427	119.636	0.174	-0.216
-553.412	178.553	0.005	-0.007
-552.398	-16.982	0.402	0.254
-551.383	-173.665	-0.179	-0.005
-550.369	-200.000	0.021	-0.363
-549.354	-29.264	0.243	0.139
-548.339	-43.974	-0.221	-0.111
-547.325	0.871	-0.144	-0.103
-546.310	-200.000	0.045	-0.352
-545.296	-39.846	0.208	0.109
-544.281	166.095	-0.048	0.068
-543.266	-200.000	0.028	-0.236
-542.252	319.538	-0.095	-0.181
-541.237	191.789	0.154	0.233
-540.223	-57.623	-0.165	0.072
-539.208	800.000	-0.071	-0.196
-538.193	257.767	-0.245	0.423
-537.179	-7.937	-0.269	0.182
-536.164	-58.789	0.323	0.140
-535.150	800.000	-0.097	-0.369
-534.135	800.000	-0.055	-0.171
-533.121	394.124	-0.212	0.442
-532.106	-200.000	0.032	0.171
-531.091	-200.000	0.025	-0.386
-530.077	800.000	-0.094	-0.302
-529.062	800.000	-0.017	0.064
-528.048	177.416	-0.043	-0.063
-527.033	50.582	0.214	-0.203
-526.018	35.139	-0.401	0.352
-525.004	-44.829	0.458	0.229
-523.989	-1.717	-0.221	-0.156
-522.975	247.693	-0.050	-0.085
-521.960	20.970	-0.203	-0.165
-520.945	-200.000	0.182	0.000
-519.931	689.640	0.087	-0.228
-518.916	-7.474	-0.077	0.052
-517.902	487.266	-0.129	-0.295
-516.887	-200.000	-0.052	-0.262
-515.872	472.098	0.108	-0.244
-514.858	-119.431	0.066	0.011
-513.843	-200.000	0.015	-0.140
-512.829	748.753	-0.032	-0.085
-511.814	-200.000	-0.007	-0.170
-510.799	-112.620	-0.047	0.009
-509.785	-9.679	0.044	-0.029
-508.770	-102.083	0.246	-0.059
-507.756	-72.269	0.172	0.064
-506.741	187.794	-0.102	-0.153
-505.726	-45.240	-0.186	-0.093
-504.712	484.088	-0.131	0.297
-503.697	351.825	-0.101	0.201
-502.683	-106.580	0.088	0.020
-501.668	-167.721	0.109	0.004
-500.653	-16.113	-0.344	0.219
-499.639	-200.000	-0.000	-0.160
-498.624	-96.869	-0.309	0.081
-497.610	88.698	0.295	-0.328
-496.595	-200.000	0.012	0.161
-495.581	121.590	-0.232	0.289
-494.566	-162.584	-0.452	-0.022
-493.551	-31.105	0.208	0.117
-492.537	-88.865	0.222	-0.066
-491.522	-200.000	-0.017	0.087
-490.508	-12.120	-0.140	0.092
-489.493	248.768	0.149	-0.252
-488.478	195.987	0.125	0.190
-487.464	800.000	-0.071	-0.197
-486.449	-120.237	0.032	-0.006
-485.435	15.106	0.124	-0.097
-484.420	-178.874	-0.341	-0.008
-483.405	800.000	-0.029	-0.111
-482.391	-200.000	0.008	-0.058
-481.376	-19.721	-0.223	0.138
-480.362	33.470	-0.232	-0.201
-479.347	-111.419	-0.161	-0.033
-478.332	-111.710	0.141	0.029
-477.318	35.173	0.118	-0.103
-476.303	-18.596	0.349	0.218
-475.289	-51.946	-0.201	-0.093
-474.274	800.000	0.034	-0.137
-473.259	56.385	-0.281	0.273
-472.245	-200.000	-0.375	0.001
-471.230	-170.745	0.151	0.005
-470.216	-84.033	0.208	0.066
-469.201	-90.095	-0.179	0.052
-468.186	-200.000	0.061	0.438
-467.172	-200.000	0.012	0.199
-466.157	-168.629	-0.083	-0.003
-465.143	14.934	-0.152	0.119
-464.128	-54.448	-0.035	0.016
-463.113	-56.256	0.149	-0.066
-462.099	14.244	0.214	-0.167
-461.084	800.000	0.080	0.235
-460.070	99.175	0.060	-0.069
-459.055	-99.790	-0.133	-0.033
-458.040	274.821	-0.086	-0.151
-457.026	-200.000	0.039	-0.305
-456.011	-46.136	-0.043	-0.021
-454.997	74.024	0.200	0.209
-453.982	-197.277	-0.324	0.002
-452.968	-14.399	-0.264	-0.170
-451.953	-200.000	-0.027	0.162
-450.938	-45.725	0.063	0.031
-449.924	173.197	-0.202	-0.290
-448.909	157.994	0.023	-0.032
-447.895	187.292	-0.066	0.098
-446.880	-144.212	-0.356	-0.033
-445.865	-110.838	-0.114	-0.023
-444.851	189.053	-0.134	-0.201
-443.836	-80.665	0.252	-0.084
-442.822	-107.527	0.083	0.018
-441.807	180.848	0.033	-0.049
-440.792	138.532	-0.044	0.058
-439.778	29.492	-0.157	0.133
-438.763	-200.000	0.030	-0.305
-437.749	451.961	0.039	0.086
-436.734	-146.718	-0.404	0.035
-435.719	120.420	0.235	0.291
-434.705	279.830	0.124	-0.222
-433.690	-0.111	0.077	0.055
-432.676	267.925	-0.050	0.087
-431.661	145.649	0.155	0.207
-430.646	-200.000	-0.048	-0.314
-429.632	-63.530	0.128	0.053
-428.617	-200.000	0.049	0.272
-427.603	51.832	-0.100	-0.095
-426.588	484.587	0.115	0.261
-425.573	-118.273	-0.162	0.029
-424.559	-200.000	0.013	0.070
-423.544	-200.000	-0.151	-0.000
-422.530	263.610	0.052	-0.089
-421.515	-94.865	-0.104	-0.028
-420.500	800.000	0.052	0.213
-419.486	670.028	0.090	-0.231
-418.471	-8.254	-0.052	0.035
-417.457	-27.202	-0.071	0.041
-416.442	-12.371	-0.020	-0.013
-415.428	800.000	-0.006	-0.027
-414.413	-148.048	-0.307	0.025
-413.398	-51.755	-0.108	-0.050
-412.384	188.978	-0.068	0.101
-411.369	800.000	0.085	0.261
-410.355	196.704	-0.206	0.312
-409.340	-86.165	-0.045	0.014
-408.325	-200.000	0.035	0.321
-407.311	48.192	0.076	-0.071
-406.296	-47.282	0.180	0.087
-405.282	443.222	-0.084	0.183
-404.267	-200.000	0.001	0.035
-403.252	24.036	-0.026	-0.021
-402.238	194.543	0.037	-0.055
-401.223	-200.000	0.009	0.067
-400.209	193.456	0.110	0.166
-399.194	-109.706	-0.468	0.098
-398.179	-49.804	-0.347	-0.164
-397.165	-200.000	-0.036	-0.272
-396.150	-185.764	-0.220	0.003
-395.136	800.000	0.044	0.139
-394.121	134.700	0.091	-0.118
-393.106	574.679	-0.081	-0.197
-392.092	-200.000	-0.030	0.193
-391.077	-0.932	-0.049	0.035
-390.063	259.089	0.198	-0.340
-389.048	181.887	-0.129	0.189
-388.033	800.000	-0.061	-0.237
-387.019	645.942	-0.126	-0.320
-386.004	-64.823	0.571	-0.230
-384.990	278.984	-0.061	0.108
-383.975	-200.000	0.005	-0.077
-382.960	-200.000	-0.044	-0.236
-381.946	679.414	0.063	-0.164
-380.931	16.369	-0.162	0.128
-379.917	-200.000	-0.012	-0.125
-378.902	34.760	-0.217	0.189
-377.888	39.949	0.130	-0.116
-376.873	-101.573	-0.298	0.072
-375.858	-77.156	-0.271	-0.094
-374.844	800.000	-0.039	-0.147
-373.829	267.261	-0.136	0.236
-372.815	306.399	0.071	-0.132
-371.800	-130.299	0.213	-0.029
-370.785	41.562	-0.078	-0.070
-369.771	227.994	0.012	0.019
-368.756	-123.393	-0.198	-0.031
-367.742	513.244	-0.092	-0.214
-366.727	-161.484	0.217	0.011
-365.712	556.420	-0.010	0.025
-364.698	-83.201	-0.087	0.028
-363.683	78.430	-0.248	-0.264
-362.669	31.078	-0.173	0.148
-361.654	91.524	0.167	-0.187
-360.639	40.528	0.192	-0.173
-359.625	213.236	0.120	-0.188
-358.610	-200.000	-0.005	0.085
-357.596	119.009	0.070	0.086
-356.581	71.754	-0.109	-0.113
-355.566	800.000	-0.009	0.031
-354.552	-57.545	-0.197	0.086
-353.537	800.000	-0.040	0.118
-352.523	-118.989	-0.199	0.035
-351.508	-28.206	0.205	-0.118
-350.493	458.748	0.074	0.164
-349.479	-143.931	-0.301	0.028
-348.464	-93.415	0.372	0.102
-347.450	-200.000	0.011	-0.117
-346.435	-131.383	0.226	-0.030
-345.420	-173.255	0.122	-0.004
-344.406	-200.000	-0.011	-0.069
-343.391	-77.504	0.252	0.087
-342.377	71.781	-0.093	-0.096
-341.362	246.399	0.114	-0.192
-340.348	-200.000	0.032	-0.201
-339.333	173.939	0.184	-0.264
-338.318	800.000	0.092	-0.264
-337.304	-134.313	0.413	-0.050
-336.289	800.000	0.094	0.320
-335.275	58.428	0.154	-0.151
-334.260	308.178	-0.126	0.234
-333.245	-139.268	0.305	0.033
-332.231	-54.752	0.284	0.127
-331.216	-200.000	-0.030	-0.306
-330.202	800.000	-0.083	-0.265
-329.187	329.011	0.103	0.196
-328.172	166.264	0.145	-0.205
-327.158	-100.582	0.389	0.096
-326.143	-200.000	-0.019	-0.333
-325.129	240.405	0.259	-0.430
-324.114	-180.941	-0.238	-0.005
-323.099	800.000	-0.052	0.187
-322.085	-149.256	-0.269	0.021
-321.070	-60.270	0.167	-0.071
-320.056	-108.411	0.213	-0.046
-319.041	132.202	-0.086	0.111
-318.026	679.131	0.103	0.268
-317.012	63.484	0.157	0.156
-315.997	-102.505	-0.335	-0.080
-314.983	-39.314	0.141	0.074
-313.968	-122.111	0.163	0.027
-312.953	169.860	-0.043	-0.060
-311.939	-58.974	0.169	0.073
-310.924	197.299	-0.211	-0.320
-309.910	45.434	-0.101	-0.093
-308.895	-102.594	0.552	0.131
-307.880	-14.965	0.184	-0.117
-306.866	-200.000	-0.012	0.159
-305.851	95.826	0.086	-0.097
-304.837	297.674	-0.120	0.219
-303.822	-200.000	0.020	0.193
-302.807	-200.000	-0.007	0.166
-301.793	46.258	0.003	-0.003
-300.778	-200.000	0.039	0.174
-299.764	123.428	-0.240	0.299
-298.749	352.118	0.060	-0.119
-297.735	-110.583	0.152	-0.031
-296.720	-91.514	-0.045	0.013
-295.705	-200.000	0.033	0.221
-294.691	-36.982	-0.229	-0.122
-293.676	-68.764	0.413	-0.158
-292.662	-200.000	0.008	0.220
-291.647	800.000	-0.077	-0.221
-290.632	-78.057	-0.132	-0.045
-289.618	-200.000	-0.014	-0.196
-288.603	800.000	0.060	-0.182
-287.589	-20.882	-0.043	0.026
-286.574	-200.000	-0.066	0.438
-285.559	463.405	0.117	-0.259
-284.545	63.970	-0.244	0.244
-283.530	-200.000	-0.009	-0.123
-282.516	53.515	-0.087	-0.083
-281.501	136.116	0.160	-0.206
-280.486	1.224	0.058	-0.041
-279.472	-115.701	-0.026	-0.005
-278.457	-59.488	-0.115	-0.049
-277.443	300.916	0.064	0.117
-276.428	230.055	-0.053	0.086
-275.413	-62.790	-0.160	0.066
-274.399	286.625	0.107	-0.192
-273.384	-200.000	0.001	-0.289
-272.370	-200.000	0.024	0.254
-271.355	-93.339	0.257	0.071
-270.340	-200.000	0.038	0.389
-269.326	244.937	-0.112	0.186
-268.311	-200.000	-0.028	-0.404
-267.297	-200.000	0.068	-0.387
-266.282	528.825	-0.060	-0.140
-265.267	-67.148	-0.145	0.057
-264.253	63.983	-0.144	0.143
-263.238	-108.042	-0.191	0.041
-262.224	34.680	-0.187	0.162
-261.209	-200.000	0.038	-0.183
-260.195	800.000	-0.128	0.361
-259.180	7.947	0.137	0.102
-258.165	-26.594	-0.270	0.156
-257.151	-8.343	0.124	-0.083
-256.136	110.845	0.121	0.144
-255.122	96.734	-0.135	0.153
-254.107	-110.943	-0.461	-0.094
-253.092	-14.489	0.219	-0.139
-252.078	-161.960	-0.480	0.024
-251.063	59.762	0.301	0.294
-250.049	-76.015	-0.605	0.212
-249.034	12.299	0.231	0.176
-248.019	800.000	0.048	-0.147
-247.005	90.927	0.075	-0.084
-245.990	-104.342	0.479	0.110
-244.976	43.891	-0.415	0.376
-243.961	-200.000	0.019	0.192
-242.946	59.637	0.152	-0.149
-241.932	267.324	0.140	-0.242
-240.917	-84.354	-0.122	-0.038
-239.903	167.446	-0.129	-0.182
-238.888	151.712	-0.188	-0.253
-237.873	-97.099	0.061	0.016
-236.859	-151.526	-0.085	-0.006
-235.844	800.000	-0.012	0.045
-234.830	-41.893	-0.210	-0.107
-233.815	206.628	0.087	0.133
-232.800	19.386	-0.224	0.178
-231.786	288.264	0.111	-0.199
-230.771	-126.408	0.270	-0.040
-229.757	112.079	0.335	-0.401
-228.742	-156.689	-0.101	0.006
-227.727	30.568	-0.209	0.177
-226.713	72.621	0.105	0.108
-225.698	44.740	-0.252	-0.230
-224.684	-150.237	0.155	-0.012
-223.669	-94.535	0.053	0.014
-222.655	-58.064	0.110	0.047
-221.640	692.386	-0.124	0.322
-220.625	434.439	0.061	-0.130
-219.611	445.689	0.061	-0.132
-218.596	757.432	-0.039	-0.104
-217.582	373.171	0.248	0.499
-216.567	-200.000	0.022	0.393
-215.552	-43.311	-0.073	-0.037
-214.538	268.312	-0.144	0.250
-213.523	32.663	-0.306	0.262
-212.509	-149.467	-0.259	0.020
-211.494	-200.000	0.025	0.226
-210.479	72.348	0.120	0.124
-209.465	399.757	0.054	0.112
-208.450	703.821	0.045	0.117
-207.436	564.958	-0.003	-0.007
-206.421	514.523	0.108	0.250
-205.406	-163.170	-0.305	-0.015
-204.392	-31.290	0.224	0.125
-203.377	448.243	-0.050	0.110
-202.363	164.846	0.159	-0.222
-201.348	800.000	0.093	-0.338
-200.333	167.563	0.052	0.072
-199.319	207.071	0.241	-0.371
-198.304	-13.410	-0.279	-0.179
-197.290	660.417	0.166	0.423
-196.275	-18.957	-0.128	-0.079
-195.260	-200.000	0.020	0.096
-194.246	-200.000	0.027	0.293
-193.231	235.759	-0.212	-0.346
-192.217	468.010	0.085	-0.188
-191.202	24.771	-0.238	0.195
-190.187	-200.000	0.012	-0.105
-189.173	54.124	0.191	0.182
-188.158	497.208	-0.051	0.116
-187.144	-200.000	-0.037	-0.276
-186.129	800.000	-0.098	-0.367
-185.114	372.775	0.192	0.385
-184.100	337.392	0.188	-0.361
-183.085	96.643	0.141	-0.160
-182.071	-110.754	0.361	0.074
-181.056	-200.000	0.047	0.370
-180.042	-200.000	0.178	-0.000
-179.027	-200.000	-0.012	0.113
-178.012	60.138	-0.063	-0.062
-176.998	40.568	-0.125	-0.111
-175.983	301.499	0.143	0.261
-174.969	35.762	0.108	-0.094
-173.954	68.004	0.130	-0.132
-172.939	800.000	0.048	0.194
-171.925	-200.000	-0.024	0.255
-170.910	267.903	0.031	0.054
-169.896	-68.156	0.245	-0.094
-168.881	328.470	0.161	-0.306
-167.866	-99.910	-0.230	-0.057
-166.852	-200.000	-0.000	-0.266
-165.837	-112.427	-0.170	0.034
-164.823	-196.407	0.261	-0.002
-163.808	800.000	-0.088	-0.282
-162.793	-200.000	0.001	0.102
-161.779	-185.130	-0.460	0.007
-160.764	454.344	0.079	0.173
-159.750	319.457	-0.142	-0.266
-158.735	-118.657	0.335	-0.058
-157.720	274.859	0.089	0.156
-156.706	-200.000	-0.009	-0.152
-155.691	171.262	0.141	-0.200
-154.677	-154.696	-0.306	0.020
-153.662	-200.000	0.006	0.121
-152.647	-200.000	-0.028	-0.162
-151.633	348.838	-0.087	-0.170
-150.618	21.628	0.202	-0.162
-149.604	25.050	-0.151	-0.123
-148.589	-169.195	-0.454	-0.017
-147.574	800.000	0.031	0.124
-146.560	-116.733	-0.145	-0.026
-145.545	567.948	-0.047	0.113
-144.531	-65.438	0.401	-0.159
-143.516	126.328	0.136	-0.170
-142.502	673.657	-0.150	0.383
-141.487	70.887	0.102	0.104
-140.472	393.225	-0.094	-0.192
-139.458	92.463	0.047	0.053
-138.443	800.000	0.063	-0.239
-137.429	800.000	0.072	0.217
-136.414	612.847	0.167	0.412
-135.399	-36.048	-0.109	0.058
-134.385	800.000	-0.022	-0.083
-133.370	473.896	0.050	0.112
-132.356	96.880	0.102	0.115
-131.341	-47.611	0.155	-0.074
-130.326	-167.438	0.153	-0.006
-129.312	-200.000	0.014	0.406
-128.297	214.491	0.146	0.228
-127.283	32.593	-0.140	-0.119
-126.268	-66.537	0.376	-0.147
-125.253	-46.591	0.130	0.063
-124.239	-6.577	-0.268	0.180
-123.224	-200.000	-0.016	-0.225
-122.210	16.028	0.387	-0.301
-121.195	-200.000	0.024	-0.309
-120.180	-200.000	0.022	-0.289
-119.166	-19.133	-0.231	-0.141
-118.151	800.000	0.102	-0.320
-117.137	50.629	-0.183	0.171
-116.122	485.128	-0.158	0.355
-115.107	529.751	0.105	0.244
-114.093	339.502	0.173	-0.333
-113.078	-200.000	0.009	0.223
-112.064	-200.000	0.021	-0.309
-111.049	98.598	-0.035	-0.040
-110.034	-78.108	0.163	-0.055
-109.020	800.000	-0.077	-0.238
-108.005	-158.908	0.092	-0.005
-106.991	410.080	0.053	-0.111
-105.976	800.000	0.009	-0.030
-104.962	-80.063	-0.276	-0.091
-103.947	527.322	0.132	-0.307
-102.932	105.374	0.123	0.144
-101.918	-32.050	0.286	-0.158
-100.903	-31.022	-0.100	-0.055
-99.889	287.863	-0.048	-0.086
-98.874	3.288	0.235	0.169
-97.859	685.201	0.036	-0.092
-96.845	-200.000	0.017	0.370
-95.830	58.068	-0.193	0.186
-94.816	-59.389	0.193	0.082
-93.801	-200.000	-0.029	0.301
-92.786	8.664	-0.162	-0.120
-91.772	-28.429	0.190	-0.108
-90.757	130.431	-0.102	0.129
-89.743	300.707	-0.082	-0.150
-88.728	-102.925	-0.295	0.069
-87.713	70.030	0.172	0.175
-86.699	-56.670	-0.548	0.239
-85.684	-8.619	0.228	-0.151
-84.670	133.493	-0.072	0.092
-83.655	117.247	-0.081	0.098
-82.640	365.912	-0.041	0.081
-81.626	-6.117	0.078	-0.053
-80.611	72.336	-0.245	-0.251
-79.597	50.270	-0.057	0.053
-78.582	-200.000	0.002	-0.052
-77.567	-200.000	-0.072	0.366
-76.553	129.585	-0.180	0.226
-75.538	-123.495	0.066	0.010
-74.524	-25.996	0.297	0.172
-73.509	38.209	0.198	-0.174
-72.494	800.000	-0.073	-0.232
-71.480	2.598	0.231	0.165
-70.465	152.772	-0.066	0.089
-69.451	-200.000	-0.045	-0.277
-68.436	466.238	-0.123	0.271
-67.422	309.779	0.204	-0.376
-66.407	-47.790	-0.075	0.036
-65.392	-186.296	0.189	0.003
-64.378	277.307	-0.087	-0.152
-63.363	-200.000	0.004	0.017
-62.349	9.717	0.231	0.173
-61.334	47.299	-0.844	-0.773
-60.319	102.329	0.433	0.498
-59.305	-200.000	-0.137	-1.129
-58.290	292.509	0.693	1.242
-57.276	539.248	0.655	1.532
-56.261	-200.000	92.985	570.787
-55.246	573.900	1357.681	3255.649
-54.232	165.341	2521.889	3503.456
-53.217	113.037	2156.533	2570.081
-52.203	43.201	1704.787	1529.872
-51.188	36.036	1516.368	1312.153
-50.173	33.597	1489.182	1272.238
-49.159	52.984	1536.198	1444.825
-48.144	54.741	1554.087	1473.553
-47.130	36.121	1515.288	1311.589
-46.115	33.050	1500.632	1278.123
-45.100	32.852	1497.227	1273.836
-44.086	32.818	1495.412	1272.008
-43.071	32.798	1493.503	1270.203
-42.057	32.748	1492.087	1268.609
-41.042	32.794	1490.795	1267.766
-40.027	32.731	1488.844	1265.637
-39.013	32.744	1487.336	1264.391
-37.998	32.777	1485.873	1263.319
-36.984	32.798	1485.121	1262.770
-35.969	32.698	1483.896	1261.008
-34.954	32.760	1482.989	1260.603
-33.940	32.792	1480.871	1258.965
-32.925	32.852	1479.378	1258.044
-31.911	32.787	1478.610	1256.914
-30.896	32.747	1477.192	1255.388
-29.881	32.828	1475.568	1254.497
-28.867	32.857	1474.382	1253.631
-27.852	32.792	1472.971	1251.953
-26.838	32.862	1471.296	1250.941
-25.823	32.738	1470.674	1249.539
-24.809	32.865	1468.060	1248.114
-23.794	32.746	1467.004	1246.376
-22.779	32.688	1465.667	1244.812
-21.765	32.826	1464.344	1244.543
-20.750	32.675	1463.546	1242.823
-19.736	32.842	1461.865	1242.443
-18.721	32.755	1461.370	1241.402
-17.706	32.856	1459.988	1240.845
-16.692	32.844	1458.795	1239.703
-15.677	32.792	1458.050	1238.676
-14.663	32.616	1457.585	1237.082
-13.648	32.612	1456.194	1235.820
-12.633	32.637	1455.462	1235.319
-11.619	32.664	1454.650	1234.755
-10.604	32.680	1454.007	1234.266
-9.590	32.702	1452.757	1233.300
-8.575	32.734	1452.039	1232.848
-7.560	32.781	1451.035	1232.255
-6.546	32.711	1450.606	1231.385
-5.531	32.688	1449.339	1230.112
-4.517	32.711	1448.256	1229.290
-3.502	32.691	1447.439	1228.420
-2.487	32.771	1446.434	1228.037
-1.473	32.679	1445.104	1226.264
-0.458	32.714	1443.776	1225.313
0.556	30.771	1433.920	1213.960
1.571	27.422	1408.994	1171.247
2.586	23.814	1348.087	1098.265
3.600	22.091	1266.160	1021.420
4.615	20.740	1221.371	977.620
5.629	17.846	1165.239	917.075
6.644	9.082	1078.955	805.302
7.659	1.423	1036.973	736.862
8.673	0.270	1031.169	727.110
9.688	0.000	1028.041	723.541
10.702	-0.055	1026.572	722.177
11.717	0.006	1024.582	721.005
12.731	2.843	1027.464	736.597
13.746	11.429	1039.516	786.712
14.761	17.624	1046.775	822.118
15.775	17.473	1045.357	820.204
16.790	16.483	1043.226	813.697
17.804	15.382	1040.521	806.224
18.819	14.348	1039.035	800.039
19.834	14.175	1037.797	798.183
20.848	13.847	1036.767	795.749
21.863	13.485	1036.229	793.532
22.877	13.348	1035.087	791.929
23.892	13.052	1034.616	790.085
24.907	12.957	1033.790	788.932
25.921	13.045	1032.658	788.414
26.936	13.007	1032.532	788.070
27.950	13.114	1031.611	787.808
28.965	13.102	1030.709	786.992
29.980	13.155	1030.045	786.665
30.994	13.157	1029.428	786.136
32.009	13.235	1028.024	785.363
33.023	13.322	1027.429	785.250
34.038	13.282	1026.805	784.517
35.053	13.147	1026.281	783.409
36.067	13.272	1025.332	783.206
37.082	13.146	1024.295	781.747
38.096	13.200	1023.471	781.303
39.111	13.214	1023.205	781.098
40.126	13.233	1022.015	780.212
41.140	13.216	1020.652	779.022
42.155	13.055	1020.184	777.837
43.169	13.003	1019.114	776.707
44.184	13.005	1018.033	775.822
45.199	13.060	1016.714	775.009
46.213	13.036	1015.967	774.257
47.228	13.082	1014.968	773.642
48.242	13.124	1014.121	773.128
49.257	13.164	1013.254	772.585
50.271	13.132	1012.518	771.804
51.286	13.116	1011.269	770.712
52.301	13.252	1010.219	770.475
53.315	13.173	1009.804	769.721
54.330	13.086	1009.091	768.704
55.344	12.986	1008.237	767.523
56.359	13.169	1006.913	767.298
57.374	13.110	1006.337	766.517
58.388	13.171	1005.810	766.330
59.403	13.001	1005.068	764.908
60.417	12.890	1004.248	763.703
61.432	13.006	1003.378	763.511
62.447	12.995	1002.874	763.009
63.461	12.909	1002.024	761.898
64.476	12.899	1001.131	761.103
65.490	12.955	1000.084	760.498
66.505	12.874	999.198	759.385
67.520	12.941	998.190	758.860
68.534	13.102	997.286	758.844
69.549	12.950	997.027	757.885
70.563	12.916	996.369	757.161
71.578	13.039	995.380	756.904
72.593	13.098	994.238	756.242
73.607	12.904	993.535	754.752
74.622	12.901	992.819	754.128
75.636	12.869	992.061	753.338
76.651	12.826	991.549	752.687
77.666	12.953	990.584	752.468
78.680	12.861	989.929	751.482
79.695	12.931	989.565	751.460
80.709	12.998	988.631	750.989
81.724	13.029	987.983	750.569
82.739	12.961	987.034	749.473
83.753	12.978	986.683	749.219
84.768	13.218	985.499	749.342
85.782	13.218	984.800	748.742
86.797	13.225	984.237	748.280
87.812	13.199	983.213	747.318
88.826	13.256	982.193	746.735
89.841	13.151	981.674	745.798
90.855	13.130	981.103	745.204
91.870	13.172	980.270	744.695
92.884	13.225	979.895	744.583
93.899	13.238	978.583	743.578
94.914	13.336	977.774	743.339
95.928	13.356	977.133	742.877
96.943	13.198	976.818	741.864
97.957	13.158	975.869	740.894
98.972	13.243	975.153	740.668
99.987	13.213	974.184	739.733
101.001	13.247	973.443	739.256
102.016	13.107	973.085	738.292
103.030	13.182	971.890	737.654
104.045	13.187	971.275	737.147
105.060	13.292	969.758	736.397
106.074	13.242	968.845	735.418
107.089	13.070	968.460	734.293
108.103	13.025	967.307	733.157
109.118	12.998	966.650	732.473
110.133	13.095	965.642	732.073
111.147	12.958	965.198	731.066
112.162	13.147	963.697	730.698
113.176	13.059	963.220	729.887
114.191	13.034	962.416	729.098
115.206	13.166	961.767	729.126
116.220	13.081	960.577	727.786
117.235	13.165	959.819	727.516
118.249	13.114	959.249	726.797
119.264	13.037	958.110	725.531
120.279	13.084	957.206	724.990
121.293	13.085	956.545	724.428
122.308	13.069	955.970	723.857
123.322	13.096	955.090	723.244
124.337	13.044	954.002	722.129
125.352	12.972	952.852	720.882
126.366	12.878	952.066	719.812
127.381	13.065	951.030	719.782
128.395	12.954	950.173	718.585
129.410	13.035	949.043	718.018
130.424	13.116	948.057	717.563
131.439	13.203	946.888	716.990
132.454	13.161	946.219	716.239
133.468	13.121	946.467	716.190
134.483	13.213	945.385	715.704
135.497	13.205	944.803	715.168
136.512	13.242	943.703	714.430
137.527	13.163	942.926	713.438
138.541	13.169	942.504	713.081
139.556	13.149	941.445	712.133
140.570	13.277	940.495	711.902
141.585	13.275	939.878	711.362
142.600	13.304	939.293	710.984
143.614	13.237	938.684	710.169
144.629	13.430	937.977	710.402
145.643	13.268	937.467	709.258
146.658	13.334	935.727	708.159
147.673	13.276	935.447	707.639
148.687	13.365	934.142	706.966
149.702	13.354	933.661	706.493
150.716	13.239	932.741	705.244
151.731	13.252	932.138	704.782
152.746	13.211	931.001	703.687
153.760	13.246	930.846	703.656
154.775	13.201	930.102	702.837
155.789	13.408	928.913	702.757
156.804	13.247	928.445	701.659
157.819	13.379	927.339	701.319
158.833	13.406	926.927	701.060
159.848	13.412	926.275	700.529
160.862	13.470	925.586	700.194
161.877	13.456	924.837	699.506
162.892	13.410	924.015	698.627
163.906	13.425	922.958	697.828
164.921	13.341	922.349	696.954
165.935	13.275	921.140	695.703
166.950	13.379	920.623	695.685
167.964	13.354	919.544	694.706
168.979	13.397	918.986	694.400
169.994	13.238	918.271	693.134
171.008	13.438	917.430	693.274
172.023	13.346	916.102	691.824
173.037	13.372	915.714	691.580
174.052	13.558	914.820	691.619
175.067	13.474	914.134	690.689
176.081	13.465	913.252	689.924
177.096	13.512	912.585	689.557
178.110	13.546	911.773	689.021
179.125	13.486	911.164	688.250
180.140	13.627	910.153	688.014
181.154	13.493	909.754	687.095
182.169	13.529	909.211	686.775
183.183	13.617	908.493	686.532
184.198	13.572	907.558	685.579
185.213	13.686	907.053	685.608
186.227	13.787	906.130	685.271
187.242	13.705	906.016	684.783
188.256	13.581	905.307	683.677
189.271	13.632	904.563	683.261
190.286	13.721	903.626	682.863
191.300	13.637	902.950	681.942
192.315	13.506	902.156	680.748
193.329	13.466	901.461	679.998
194.344	13.488	900.843	679.559
195.359	13.529	900.237	679.212
196.373	13.572	899.436	678.723
197.388	13.800	898.922	679.208
198.402	13.606	898.858	678.308
199.417	13.844	898.493	678.946
200.432	13.857	897.813	678.422
201.446	13.889	897.364	678.154
202.461	14.039	896.796	678.279
203.475	14.017	896.775	678.114
204.490	14.086	895.687	677.512
205.504	14.000	894.584	676.265
206.519	13.868	894.252	675.418
207.534	13.787	893.304	674.313
208.548	13.844	893.070	674.309
209.563	13.923	892.603	674.218
210.577	13.896	891.024	672.858
211.592	13.879	890.795	672.553
212.607	14.107	890.130	672.915
213.621	14.096	889.488	672.326
214.636	14.177	888.674	671.980
215.650	14.027	888.090	670.872
216.665	13.936	888.116	670.464
217.680	14.021	887.158	670.025
218.694	14.084	886.859	669.993
219.709	14.123	886.471	669.798
220.723	14.158	885.509	669.155
221.738	14.224	884.626	668.692
222.753	14.157	884.383	668.182
223.767	14.115	883.683	667.425
224.782	14.142	882.906	666.888
225.796	14.299	881.766	666.593
226.811	14.242	881.255	665.923
227.826	14.212	880.907	665.480
228.840	14.295	880.200	665.219
229.855	14.357	879.343	664.760
230.869	14.243	878.433	663.558
231.884	14.378	877.869	663.611
232.899	14.234	877.438	662.654
233.913	14.190	876.731	661.885
234.928	14.243	875.946	661.447
235.942	14.226	875.156	660.722
236.957	14.182	874.592	660.064
237.972	14.245	873.942	659.763
238.986	14.225	873.503	659.295
240.001	14.150	873.184	658.699
241.015	14.196	872.202	658.083
242.030	14.233	871.751	657.828
243.045	14.302	871.123	657.569
244.059	14.352	870.327	657.107
245.074	14.416	869.680	656.816
246.088	14.307	869.617	656.280
247.103	14.363	869.044	656.009
248.117	14.476	867.950	655.568
249.132	14.550	867.465	655.435
250.147	14.632	867.096	655.422
251.161	14.669	866.144	654.788
252.176	14.725	865.419	654.403
253.190	14.716	864.958	653.959
254.205	14.859	864.310	653.972
255.220	14.617	864.179	652.867
256.234	14.709	863.305	652.509
257.249	14.701	862.660	651.932
258.263	14.692	861.923	651.285
259.278	14.781	861.582	651.315
260.293	14.750	861.221	650.864
261.307	14.877	860.320	650.621
262.322	14.882	859.947	650.300
263.336	14.883	859.270	649.733
264.351	14.921	859.010	649.629
265.366	14.790	857.961	648.267
266.380	15.022	857.456	648.730
267.395	15.046	856.655	648.157
268.409	14.945	856.333	647.467
269.424	14.957	855.350	646.712
270.439	14.836	854.764	645.743
271.453	14.925	853.918	645.392
272.468	15.075	852.929	645.167
273.482	14.830	852.910	644.151
274.497	14.868	852.377	643.837
275.512	14.924	851.406	643.262
276.526	15.018	850.684	643.021
277.541	14.990	850.077	642.397
278.555	15.006	849.816	642.205
279.570	15.058	848.857	641.624
280.585	15.152	848.344	641.538
281.599	15.094	847.811	640.854
282.614	15.098	847.552	640.618
283.628	15.078	847.001	640.071
284.643	15.134	846.266	639.670
285.657	15.157	845.960	639.471
286.672	15.220	845.248	639.117
287.687	15.086	844.890	638.279
288.701	15.174	844.418	638.200
289.716	15.283	843.678	637.999
290.730	15.241	842.786	637.109
291.745	15.304	842.247	636.886
292.760	15.293	841.581	636.285
293.774	15.124	841.398	635.446
294.789	15.285	840.486	635.312
295.803	15.486	839.991	635.642
296.818	15.305	839.267	634.356
297.833	15.326	838.814	634.036
298.847	15.254	838.205	633.248
299.862	15.342	837.628	633.087
300.876	15.420	836.870	632.750
301.891	15.444	836.005	632.131
302.906	15.498	835.379	631.806
303.920	15.519	834.868	631.441
304.935	15.467	834.568	630.965
305.949	15.525	833.806	630.550
306.964	15.594	833.305	630.375
307.979	15.631	832.666	629.975
308.993	15.554	832.352	629.392
310.008	15.620	831.333	628.814
311.022	15.688	830.826	628.629
312.037	15.682	830.505	628.307
313.052	15.573	830.261	627.661
314.066	15.591	829.664	627.220
315.081	15.601	828.664	626.445
316.095	15.505	828.599	625.984
317.110	15.708	828.051	626.271
318.125	15.621	827.214	625.258
319.139	15.498	826.678	624.340
320.154	15.508	826.281	624.023
321.168	15.729	825.667	624.325
322.183	15.671	824.991	623.543
323.197	15.662	824.487	623.072
324.212	15.792	823.708	622.911
325.227	15.804	823.197	622.515
326.241	15.699	823.267	622.121
327.256	15.681	822.534	621.449
328.270	15.656	822.016	620.908
329.285	15.687	821.415	620.513
330.300	15.688	820.884	620.063
331.314	15.828	820.026	619.874
332.329	15.787	819.563	619.321
333.343	15.725	819.419	618.927
334.358	15.711	818.556	618.170
335.373	15.765	817.901	617.819
336.387	15.824	817.321	617.543
337.402	15.864	816.721	617.178
338.416	15.910	816.049	616.785
339.431	15.817	815.790	616.197
340.446	15.829	815.576	616.021
341.460	16.032	814.789	616.115
342.475	16.081	814.252	615.834
343.489	16.198	813.620	615.731
344.504	15.960	813.320	614.579
345.519	16.268	812.362	614.925
346.533	16.088	812.261	614.137
347.548	16.253	811.466	614.084
348.562	16.213	810.942	613.485
349.577	16.166	810.319	612.788
350.592	16.100	809.972	612.232
351.606	16.020	809.827	611.781
352.621	16.028	809.094	611.200
353.635	16.125	808.572	611.103
354.650	16.096	808.329	610.759
355.665	16.156	807.851	610.562
356.679	16.103	807.586	610.115
357.694	16.211	806.947	609.972
358.708	16.226	806.142	609.362
359.723	16.244	805.743	609.071
360.738	16.213	805.239	608.524
361.752	16.253	804.724	608.224
362.767	16.289	804.286	607.969
363.781	16.369	803.860	607.884
364.796	16.375	803.703	607.732
365.810	16.380	803.344	607.424
366.825	16.483	802.662	607.225
367.840	16.421	802.496	606.821
368.854	16.384	802.224	606.429
369.869	16.458	801.575	606.152
370.883	16.335	800.865	605.120
371.898	16.472	800.542	605.314
372.913	16.522	799.820	604.893
373.927	16.579	799.058	604.468
374.942	16.638	798.544	604.237
375.956	16.535	798.057	603.447
376.971	16.635	797.453	603.293
377.986	16.578	797.301	602.921
379.000	16.590	796.683	602.444
380.015	16.830	795.765	602.548
381.029	16.747	795.214	601.782
382.044	16.788	794.701	601.489
383.059	16.683	794.546	600.944
384.073	16.798	793.435	600.459
385.088	16.753	793.117	600.005
386.102	16.829	792.300	599.602
387.117	16.677	792.184	598.925
388.132	16.784	791.781	598.946
389.146	16.772	791.367	598.535
390.161	16.779	790.964	598.203
391.175	16.584	790.760	597.307
392.190	16.883	790.104	597.813
393.205	16.691	790.093	597.075
394.219	16.784	789.099	596.598
395.234	16.738	788.697	596.081
396.248	16.700	788.274	595.576
397.263	16.849	787.525	595.478
398.278	16.674	787.524	594.811
399.292	16.624	787.041	594.218
400.307	16.810	786.477	594.392
401.321	16.732	786.352	593.970
402.336	16.772	785.809	593.650
403.350	16.820	785.422	593.473
404.365	16.888	784.992	593.331
405.380	16.966	784.390	593.098
406.394	16.942	783.944	592.626
407.409	17.057	783.686	592.778
408.423	16.964	783.190	592.027
409.438	17.134	782.238	591.846
410.453	17.264	782.021	592.081
411.467	17.191	781.693	591.530
412.482	17.176	781.511	591.285
413.496	17.107	780.553	590.269
414.511	17.239	780.414	590.571
415.526	17.159	780.197	590.077
416.540	17.108	779.840	589.575
417.555	17.271	779.392	589.750
418.569	17.354	778.969	589.668
419.584	17.195	778.345	588.591
420.599	17.274	777.820	588.415
421.613	106.896	1285.999	1455.438
422.628	91.323	1360.021	1455.564
