DTS Sentinel unit serial number:	SN413079Multiplexer serial number:	ORYXHardware model number:	OX4-SRSoftware version number:	ORYX F/W v4.00 Oryx Data Collector v3.7.2.0data status	okinstallation	princeton_trtdifferential loss correction	single-endedforward channel	channel 3reverse channel	N/Adate	2019/09/13time	11:24:35forward acquisition time	60.00reverse acquisition time	0.00gamma	496.2192k internal	0.2315k external	0.2315temperature offset calibration	1.0134default loss term (dB/km)	0.3790temperature slope calibration	1.0000multiplexer offset coefficient	1.0000multiplexer slope coefficient	1.0000fibre end	0.00T internal ref (°C)	32.55T ext. ref 1 (°C)	4.38T ext. ref 2 (°C)	29.67length (m)	temperature (°C)	Stokes	anti-Stokes-747.200	116.718	0.177	-0.220
-746.185	-4.100	-0.242	0.170
-745.171	-134.037	0.224	0.028
-744.156	-26.924	-0.180	0.106
-743.142	-101.247	0.482	0.119
-742.127	17.876	0.190	-0.153
-741.112	800.000	-0.030	0.090
-740.098	177.872	-0.135	0.200
-739.083	180.636	-0.111	0.165
-738.069	-103.188	-0.140	-0.034
-737.054	-74.257	-0.079	-0.029
-736.039	19.468	-0.191	0.155
-735.025	267.163	0.079	0.140
-734.010	-23.875	0.110	-0.067
-732.996	-57.331	-0.352	0.157
-731.981	152.325	0.091	0.127
-730.966	-158.183	0.245	-0.015
-729.952	71.248	-0.074	-0.077
-728.937	-200.000	-0.012	-0.198
-727.923	-16.116	-0.227	0.146
-726.908	452.327	0.164	0.367
-725.894	303.073	-0.186	0.348
-724.879	-72.000	0.139	-0.052
-723.864	800.000	-0.037	-0.159
-722.850	-108.098	-0.143	0.031
-721.835	521.649	-0.111	0.264
-720.821	367.595	0.039	0.080
-719.806	185.425	-0.087	-0.131
-718.791	800.000	-0.074	-0.221
-717.777	-123.765	-0.196	0.031
-716.762	92.654	-0.133	-0.152
-715.748	202.280	-0.058	-0.090
-714.733	-58.389	-0.220	-0.097
-713.718	-9.643	0.297	-0.200
-712.704	130.276	-0.194	-0.251
-711.689	800.000	-0.057	0.175
-710.675	137.753	0.051	-0.068
-709.660	189.101	-0.094	-0.142
-708.645	-112.003	0.180	-0.037
-707.631	-40.206	-0.142	-0.075
-706.616	-145.025	-0.096	-0.009
-705.602	-101.381	-0.178	0.044
-704.587	-35.183	0.110	-0.061
-703.572	52.947	-0.219	-0.212
-702.558	75.987	0.251	-0.268
-701.543	102.010	-0.049	0.058
-700.529	32.790	0.148	0.130
-699.514	-80.498	0.116	-0.039
-698.499	-78.448	0.236	0.082
-697.485	-200.000	-0.065	-0.309
-696.470	-200.000	-0.004	0.152
-695.456	758.011	-0.066	-0.181
-694.441	-200.000	0.021	0.101
-693.426	139.084	-0.084	-0.112
-692.412	-121.760	-0.466	-0.078
-691.397	-78.854	-0.102	-0.035
-690.383	-125.446	-0.078	0.012
-689.368	-200.000	-0.021	-0.198
-688.354	-65.147	0.347	0.142
-687.339	65.285	-0.282	-0.288
-686.324	61.346	-0.227	-0.228
-685.310	125.010	-0.148	-0.188
-684.295	-134.980	0.466	-0.057
-683.281	-200.000	-0.005	-0.286
-682.266	-42.406	0.228	-0.118
-681.251	-200.000	-0.036	-0.350
-680.237	-200.000	-0.033	-0.213
-679.222	-11.093	-0.117	0.078
-678.208	101.986	0.254	-0.300
-677.193	239.411	0.106	-0.178
-676.178	-200.000	0.009	-0.080
-675.164	528.017	-0.073	0.175
-674.149	-85.290	0.060	-0.019
-673.135	364.645	0.099	0.202
-672.120	-200.000	-0.051	0.306
-671.105	-29.096	-0.124	0.072
-670.091	75.112	-0.089	-0.094
-669.076	166.125	0.124	0.177
-668.062	-54.534	-0.414	0.189
-667.047	14.308	-0.130	0.103
-666.032	-200.000	0.034	-0.203
-665.018	800.000	0.080	-0.243
-664.003	-75.498	-0.278	-0.100
-662.989	-200.000	-0.001	-0.043
-661.974	13.475	0.177	-0.139
-660.959	7.414	-0.201	0.152
-659.945	-63.364	0.187	-0.078
-658.930	24.114	-0.183	-0.153
-657.916	129.690	-0.229	0.296
-656.901	-77.351	0.295	0.103
-655.886	3.831	0.494	-0.364
-654.872	-73.283	-0.158	-0.058
-653.857	-177.805	-0.245	0.006
-652.843	-200.000	0.016	0.085
-651.828	-200.000	0.029	0.158
-650.814	-185.605	-0.105	0.002
-649.799	-60.718	-0.171	0.073
-648.784	150.199	-0.120	-0.164
-647.770	-151.368	0.173	-0.013
-646.755	103.601	0.200	-0.238
-645.741	326.937	0.191	-0.369
-644.726	-13.410	0.098	-0.064
-643.711	98.668	0.156	0.182
-642.697	9.420	-0.342	0.261
-641.682	292.271	-0.140	-0.258
-640.668	305.749	-0.145	-0.272
-639.653	800.000	0.057	0.169
-638.638	432.612	-0.143	-0.314
-637.624	-90.909	-0.138	0.040
-636.609	-11.912	-0.138	-0.092
-635.595	-200.000	-0.042	0.203
-634.580	800.000	0.069	0.212
-633.565	-41.817	-0.510	0.264
-632.551	-138.558	0.172	-0.019
-631.536	-200.000	0.004	0.343
-630.522	1.036	0.294	0.213
-629.507	-30.288	-0.160	-0.092
-628.492	75.351	-0.129	-0.138
-627.478	531.850	-0.030	0.071
-626.463	143.646	0.309	-0.415
-625.449	779.483	0.113	-0.312
-624.434	61.140	-0.011	-0.011
-623.419	-83.591	0.113	0.036
-622.405	-111.618	0.160	-0.033
-621.390	487.110	-0.180	-0.414
-620.376	-133.214	-0.432	-0.055
-619.361	-111.947	0.300	-0.061
-618.346	800.000	-0.045	-0.125
-617.332	63.351	-0.182	-0.184
-616.317	-200.000	0.035	0.395
-615.303	146.147	0.193	-0.261
-614.288	-104.048	-0.019	0.004
-613.273	23.327	0.029	0.024
-612.259	-200.000	-0.010	0.269
-611.244	141.332	-0.171	-0.229
-610.230	-82.688	0.189	0.062
-609.215	41.905	-0.268	-0.245
-608.201	132.521	-0.108	-0.140
-607.186	-139.047	-0.122	-0.013
-606.171	327.474	0.007	0.013
-605.157	19.819	0.140	0.113
-604.142	-200.000	-0.016	0.113
-603.128	38.540	-0.141	-0.127
-602.113	-160.260	-0.098	0.005
-601.098	-48.872	0.277	-0.134
-600.084	-200.000	-0.012	0.080
-599.069	-200.000	-0.023	-0.149
-598.055	-200.000	0.063	0.302
-597.040	125.515	0.177	0.225
-596.025	-49.962	0.102	0.049
-595.011	-139.021	0.073	-0.008
-593.996	351.029	-0.053	0.106
-592.982	-199.941	-0.114	-0.001
-591.967	-200.000	0.023	-0.125
-590.952	18.194	0.155	0.125
-589.938	16.375	0.077	-0.061
-588.923	-100.125	-0.388	-0.097
-587.909	-12.374	-0.199	0.131
-586.894	-19.013	0.238	0.149
-585.879	254.762	0.052	-0.090
-584.865	92.546	0.255	-0.289
-583.850	361.110	-0.160	0.323
-582.836	34.256	0.256	0.225
-581.821	-200.000	-0.011	0.179
-580.806	-82.058	0.270	-0.089
-579.792	90.843	-0.087	-0.098
-578.777	-64.322	0.124	0.051
-577.763	800.000	0.049	0.183
-576.748	176.606	0.081	-0.119
-575.733	-200.000	-0.015	0.194
-574.719	240.103	-0.160	-0.268
-573.704	-14.960	0.278	-0.179
-572.690	298.182	0.079	0.146
-571.675	-98.111	-0.286	-0.074
-570.661	-21.488	-0.134	-0.082
-569.646	-200.000	-0.003	-0.235
-568.631	28.073	0.176	-0.149
-567.617	82.115	0.023	0.025
-566.602	-200.000	-0.018	-0.313
-565.588	-41.317	0.371	-0.192
-564.573	-62.624	-0.029	0.012
-563.558	-200.000	-0.009	0.133
-562.544	-14.174	-0.108	-0.070
-561.529	-118.093	0.228	0.041
-560.515	-143.099	0.230	0.022
-559.500	-31.186	0.250	0.142
-558.485	155.680	0.109	0.151
-557.471	274.353	0.110	0.196
-556.456	-200.000	0.040	0.270
-555.442	441.428	0.090	0.198
-554.427	-154.926	0.087	-0.006
-553.412	415.192	-0.081	0.174
-552.398	-8.878	0.305	0.206
-551.383	-40.226	-0.205	-0.108
-550.369	406.380	-0.036	-0.077
-549.354	-27.664	0.464	0.271
-548.339	-48.662	0.206	-0.099
-547.325	50.448	-0.082	0.078
-546.310	27.776	-0.170	-0.144
-545.296	-74.251	-0.136	-0.050
-544.281	373.474	0.071	-0.144
-543.266	-44.379	-0.193	-0.097
-542.252	-39.331	0.181	-0.096
-541.237	2.320	-0.140	-0.102
-540.223	78.098	-0.163	-0.175
-539.208	800.000	-0.079	-0.249
-538.193	-30.582	0.225	-0.128
-537.179	122.072	0.213	-0.267
-536.164	800.000	-0.108	-0.419
-535.150	37.749	-0.197	0.176
-534.135	363.830	0.161	0.325
-533.121	33.867	-0.159	0.139
-532.106	-74.421	-0.045	-0.016
-531.091	800.000	0.052	-0.163
-530.077	-143.913	0.044	-0.004
-529.062	-16.907	0.038	0.024
-528.048	245.031	-0.164	-0.277
-527.033	-30.821	-0.098	-0.056
-526.018	30.494	-0.017	0.014
-525.004	6.893	-0.070	0.053
-523.989	-127.390	-0.388	-0.057
-522.975	-200.000	-0.006	0.120
-521.960	-38.357	0.064	-0.034
-520.945	-29.325	-0.015	0.009
-519.931	4.518	0.112	0.082
-518.916	26.705	-0.064	-0.054
-517.902	-66.656	0.355	0.141
-516.887	530.227	-0.095	0.226
-515.872	-78.183	0.281	0.097
-514.858	-200.000	-0.013	0.193
-513.843	378.023	-0.063	-0.130
-512.829	55.331	-0.041	-0.040
-511.814	45.702	0.105	0.098
-510.799	-198.119	0.205	-0.001
-509.785	318.729	-0.221	0.421
-508.770	-45.142	0.168	-0.084
-507.756	-31.010	-0.245	0.139
-506.741	47.603	-0.225	-0.211
-505.726	-200.000	0.033	0.387
-504.712	289.965	0.081	0.148
-503.697	-124.732	-0.403	-0.063
-502.683	-53.820	-0.176	-0.081
-501.668	-200.000	-0.011	-0.275
-500.653	-86.733	-0.426	-0.131
-499.639	-200.000	0.034	-0.297
-498.624	-200.000	-0.019	0.093
-497.610	-136.435	0.078	0.009
-496.595	160.842	0.112	0.157
-495.581	432.222	0.128	-0.280
-494.566	266.311	-0.081	-0.142
-493.551	161.073	0.092	0.129
-492.537	158.367	-0.112	0.155
-491.522	-15.251	-0.127	-0.082
-490.508	6.062	0.120	0.089
-489.493	-173.801	-0.260	0.008
-488.478	-200.000	-0.012	-0.092
-487.464	538.242	0.126	0.300
-486.449	-200.000	0.040	-0.223
-485.435	114.808	-0.254	0.311
-484.420	-73.119	-0.317	0.117
-483.405	456.024	0.073	0.162
-482.391	86.955	0.068	0.076
-481.376	149.057	-0.106	-0.144
-480.362	147.538	0.137	-0.185
-479.347	-7.946	-0.127	-0.086
-478.332	-160.188	0.054	0.003
-477.318	-11.996	-0.034	0.022
-476.303	800.000	0.037	-0.158
-475.289	305.796	-0.086	-0.160
-474.274	195.353	-0.144	-0.220
-473.259	-47.947	0.246	0.119
-472.245	-200.000	-0.009	-0.339
-471.230	154.019	-0.161	-0.221
-470.216	-94.255	-0.149	0.041
-469.201	-59.078	0.300	-0.130
-468.186	319.196	-0.102	-0.194
-467.172	-94.293	-0.118	0.032
-466.157	104.481	-0.115	-0.136
-465.143	-200.000	-0.014	0.288
-464.128	-31.245	-0.181	-0.102
-463.113	193.875	-0.085	0.128
-462.099	-58.880	0.226	0.098
-461.084	-116.836	-0.150	-0.028
-460.070	519.610	-0.091	-0.214
-459.055	104.592	-0.101	0.120
-458.040	786.355	-0.053	0.147
-457.026	-200.000	0.022	-0.359
-456.011	46.423	0.034	0.032
-454.997	-200.000	0.001	0.337
-453.982	800.000	-0.037	-0.153
-452.968	-79.286	-0.211	0.072
-451.953	-98.547	-0.146	-0.037
-450.938	11.825	0.358	0.275
-449.924	281.219	-0.256	0.460
-448.909	-200.000	0.015	-0.165
-447.895	-185.207	-0.297	-0.005
-446.880	-38.981	-0.157	-0.083
-445.865	428.770	-0.107	-0.232
-444.851	238.369	0.068	-0.113
-443.836	-12.415	0.281	0.184
-442.822	141.974	0.047	0.062
-441.807	306.622	0.044	0.082
-440.792	191.876	-0.045	-0.068
-439.778	-200.000	-0.054	-0.420
-438.763	800.000	0.045	-0.186
-437.749	18.554	-0.195	0.156
-436.734	-200.000	-0.045	0.405
-435.719	-103.583	-0.354	0.083
-434.705	-39.145	0.246	0.129
-433.690	-83.368	-0.067	0.022
-432.676	-154.852	-0.335	0.022
-431.661	-150.563	0.171	-0.013
-430.646	-68.476	-0.099	-0.038
-429.632	-72.413	0.406	0.150
-428.617	-54.956	0.145	0.065
-427.603	-200.000	0.080	-0.375
-426.588	439.099	-0.074	0.162
-425.573	-63.897	0.067	0.027
-424.559	268.278	0.090	-0.158
-423.544	305.759	0.165	-0.306
-422.530	800.000	0.028	-0.113
-421.515	-72.209	-0.146	0.054
-420.500	703.822	-0.037	-0.098
-419.486	-112.626	-0.324	0.065
-418.471	118.988	0.115	-0.142
-417.457	348.217	0.147	-0.291
-416.442	26.921	0.204	0.171
-415.428	-200.000	-0.008	-0.058
-414.413	622.685	-0.120	0.303
-413.398	-29.582	-0.215	0.123
-412.384	90.729	-0.119	-0.133
-411.369	-110.532	-0.255	-0.053
-410.355	-50.745	-0.082	-0.039
-409.340	-185.913	0.082	-0.001
-408.325	-72.247	-0.444	-0.165
-407.311	-200.000	-0.056	-0.267
-406.296	-167.370	-0.062	-0.003
-405.282	-200.000	-0.014	0.183
-404.267	-8.505	-0.208	0.140
-403.252	12.262	-0.043	-0.033
-402.238	-71.247	-0.108	0.041
-401.223	-6.648	0.142	-0.097
-400.209	545.384	0.059	0.142
-399.194	30.273	0.109	-0.093
-398.179	-200.000	0.016	0.095
-397.165	-200.000	-0.014	-0.239
-396.150	-200.000	-0.002	-0.075
-395.136	254.119	0.187	0.320
-394.121	713.756	0.053	-0.140
-393.106	93.975	-0.159	-0.180
-392.092	174.958	-0.143	-0.207
-391.077	111.784	-0.235	0.283
-390.063	270.267	-0.197	-0.346
-389.048	-14.539	0.188	0.121
-388.033	74.319	0.217	0.227
-387.019	-84.390	-0.156	-0.049
-386.004	80.682	-0.061	-0.066
-384.990	800.000	-0.016	-0.050
-383.975	56.847	0.321	-0.312
-382.960	111.408	0.068	0.082
-381.946	0.304	-0.308	-0.219
-380.931	416.729	-0.127	0.271
-379.917	489.718	-0.151	-0.346
-378.902	-200.000	-0.014	-0.221
-377.888	800.000	0.037	0.114
-376.873	94.623	0.077	-0.087
-375.858	800.000	0.061	-0.182
-374.844	367.703	-0.091	-0.184
-373.829	230.799	0.014	-0.023
-372.815	601.902	-0.072	-0.178
-371.800	-49.645	-0.121	-0.057
-370.785	5.147	0.224	-0.165
-369.771	-88.920	0.063	-0.019
-368.756	155.631	0.239	0.329
-367.742	-112.092	0.165	-0.033
-366.727	-31.739	0.247	0.139
-365.712	111.268	0.165	-0.198
-364.698	-30.872	0.323	-0.183
-363.683	800.000	-0.096	-0.307
-362.669	-130.815	-0.136	0.018
-361.654	98.217	-0.231	-0.265
-360.639	800.000	-0.045	0.137
-359.625	800.000	-0.032	-0.092
-358.610	518.015	0.057	-0.134
-357.596	-33.894	-0.147	0.081
-356.581	-6.017	0.210	-0.143
-355.566	-9.282	-0.204	-0.136
-354.552	-75.553	0.086	0.030
-353.537	-125.723	0.184	0.028
-352.523	-200.000	-0.009	0.058
-351.508	110.030	-0.263	0.315
-350.493	800.000	-0.019	-0.067
-349.479	40.017	0.302	-0.271
-348.464	-174.981	0.111	0.003
-347.450	-200.000	0.079	0.415
-346.435	715.391	0.104	0.274
-345.420	78.526	0.310	-0.331
-344.406	-200.000	0.006	-0.055
-343.391	74.842	0.271	0.284
-342.377	-9.997	0.126	0.083
-341.362	216.172	-0.170	0.270
-340.348	-200.000	-0.014	-0.168
-339.333	-131.187	-0.166	-0.022
-338.318	85.771	-0.256	0.280
-337.304	21.068	-0.150	0.122
-336.289	-200.000	-0.016	0.202
-335.275	-24.165	0.169	0.100
-334.260	-78.536	0.319	-0.109
-333.245	-24.087	-0.089	0.053
-332.231	401.206	0.050	0.106
-331.216	203.473	0.293	0.452
-330.202	-200.000	0.004	0.148
-329.187	20.341	-0.128	-0.103
-328.172	-168.022	-0.243	0.009
-327.158	691.397	0.048	0.126
-326.143	-131.994	0.323	0.042
-325.129	-200.000	-0.045	0.242
-324.114	-200.000	0.075	0.353
-323.099	-74.751	-0.196	0.070
-322.085	-200.000	-0.033	-0.203
-321.070	-88.688	-0.187	0.056
-320.056	590.917	0.171	-0.420
-319.041	24.135	-0.196	-0.162
-318.026	-179.745	0.332	-0.007
-317.012	800.000	0.025	-0.068
-315.997	-5.587	0.195	0.133
-314.983	10.552	0.051	-0.039
-313.968	192.089	0.236	0.355
-312.953	14.394	-0.304	0.236
-311.939	37.084	0.059	-0.052
-310.924	-124.115	-0.173	0.027
-309.910	218.772	-0.108	0.172
-308.895	44.894	0.263	-0.241
-307.880	-141.677	-0.183	-0.018
-306.866	-60.370	0.278	0.118
-305.851	-200.000	-0.047	0.319
-304.837	-89.449	0.104	-0.030
-303.822	-200.000	-0.002	0.067
-302.807	-144.528	-0.247	0.023
-301.793	-45.269	0.092	-0.046
-300.778	800.000	0.016	-0.044
-299.764	800.000	-0.030	-0.127
-298.749	-58.084	-0.245	-0.106
-297.735	712.124	0.041	-0.109
-296.720	62.158	0.374	-0.371
-295.705	31.563	-0.396	0.339
-294.691	-38.871	0.052	0.027
-293.676	538.995	0.081	0.192
-292.662	-200.000	0.013	0.104
-291.647	55.614	0.047	0.045
-290.632	-1.307	-0.522	0.367
-289.618	-26.963	0.280	-0.163
-288.603	38.832	0.036	0.032
-287.589	-110.777	-0.315	-0.065
-286.574	-63.185	-0.295	-0.121
-285.559	223.353	0.162	-0.260
-284.545	-75.275	0.352	0.125
-283.530	-165.608	0.480	0.021
-282.516	434.712	0.077	-0.166
-281.501	118.398	-0.101	0.125
-280.486	800.000	0.067	-0.281
-279.472	-200.000	-0.014	0.228
-278.457	20.412	0.083	0.067
-277.443	-179.021	-0.180	-0.004
-276.428	134.933	0.139	-0.180
-275.413	120.568	-0.158	0.196
-274.399	-200.000	0.012	0.253
-273.384	2.466	0.198	-0.142
-272.370	141.666	0.192	0.253
-271.355	-79.717	0.143	0.048
-270.340	-200.000	-0.002	0.424
-269.326	-44.563	0.186	-0.093
-268.311	-51.689	-0.380	0.176
-267.297	800.000	-0.115	-0.370
-266.282	-200.000	-0.045	0.288
-265.267	143.624	-0.137	0.182
-264.253	-200.000	0.039	0.263
-263.238	48.553	-0.236	0.220
-262.224	-130.993	-0.173	0.023
-261.209	-200.000	0.007	-0.269
-260.195	72.538	-0.308	0.320
-259.180	-93.584	-0.362	0.099
-258.165	-100.187	-0.338	0.084
-257.151	800.000	0.042	0.134
-256.136	-45.607	-0.167	0.082
-255.122	389.322	0.146	0.300
-254.107	-200.000	-0.048	0.290
-253.092	-154.495	0.101	-0.007
-252.078	200.712	-0.205	0.314
-251.063	243.532	-0.030	0.050
-250.049	-123.050	-0.242	-0.039
-249.034	-36.380	-0.090	-0.048
-248.019	7.148	0.151	-0.112
-247.005	800.000	0.035	-0.126
-245.990	482.626	0.086	-0.195
-244.976	800.000	-0.053	0.230
-243.961	-102.495	0.312	-0.074
-242.946	74.808	-0.109	0.114
-241.932	-171.897	0.184	0.006
-240.917	-181.519	0.367	0.007
-239.903	130.214	0.175	-0.222
-238.888	-66.017	0.116	0.046
-237.873	-95.548	-0.179	0.048
-236.859	-200.000	-0.015	-0.120
-235.844	-200.000	-0.067	-0.324
-234.830	-51.666	0.357	-0.165
-233.815	270.274	0.120	-0.210
-232.800	87.078	-0.133	0.146
-231.786	21.075	-0.082	-0.066
-230.771	424.482	-0.032	0.069
-229.757	-7.616	0.152	-0.102
-228.742	172.139	-0.068	0.097
-227.727	-133.250	-0.153	0.019
-226.713	800.000	-0.013	0.053
-225.698	193.310	-0.200	0.301
-224.684	-198.120	0.131	-0.001
-223.669	-199.516	-0.177	0.001
-222.655	-68.551	0.179	-0.069
-221.640	280.360	-0.174	-0.310
-220.625	-151.109	-0.286	0.021
-219.611	-162.633	-0.384	0.019
-218.596	1.081	-0.003	0.002
-217.582	-43.843	-0.060	-0.030
-216.567	504.447	0.099	-0.228
-215.552	46.776	0.291	-0.269
-214.538	-6.902	0.183	0.124
-213.523	46.241	0.047	-0.043
-212.509	-93.174	0.377	-0.104
-211.494	-200.000	0.019	-0.139
-210.479	800.000	-0.004	0.018
-209.465	-200.000	0.036	-0.174
-208.450	0.602	0.067	0.048
-207.436	-151.045	-0.238	-0.018
-206.421	154.006	-0.063	-0.086
-205.406	79.200	-0.134	0.142
-204.392	-64.474	-0.080	-0.032
-203.377	-122.134	0.420	-0.068
-202.363	-96.764	-0.402	0.105
-201.348	257.901	0.163	-0.279
-200.333	800.000	-0.055	-0.222
-199.319	-4.793	0.371	0.254
-198.304	-200.000	0.007	0.086
-197.290	800.000	0.142	0.582
-196.275	-200.000	-0.008	0.100
-195.260	-200.000	0.047	0.291
-194.246	-102.286	0.539	0.128
-193.231	-53.711	0.169	0.076
-192.217	-120.562	-0.375	0.063
-191.202	108.000	0.227	0.268
-190.187	-200.000	0.028	-0.193
-189.173	800.000	0.046	0.130
-188.158	-200.000	0.008	0.123
-187.144	16.521	0.171	0.134
-186.129	800.000	0.096	-0.301
-185.114	-34.056	-0.434	-0.237
-184.100	106.785	-0.146	-0.172
-183.085	-146.561	0.154	0.013
-182.071	6.556	-0.170	-0.125
-181.056	15.904	-0.129	-0.100
-180.042	-200.000	-0.044	0.243
-179.027	-125.826	0.308	-0.046
-178.012	-96.945	-0.054	0.014
-176.998	-103.860	-0.080	-0.019
-175.983	113.338	-0.128	-0.154
-174.969	-100.501	-0.143	0.035
-173.954	-36.551	0.088	-0.047
-172.939	-147.324	0.253	0.021
-171.925	-200.000	-0.019	-0.186
-170.910	-200.000	-0.008	-0.144
-169.896	121.212	-0.091	-0.112
-168.881	85.605	0.110	-0.120
-167.866	-38.874	-0.243	0.127
-166.852	-77.554	0.412	0.141
-165.837	-200.000	-0.005	0.118
-164.823	-6.304	0.158	-0.107
-163.808	800.000	0.104	0.413
-162.793	40.961	0.104	-0.093
-161.779	800.000	0.061	-0.252
-160.764	-159.026	0.145	-0.008
-159.750	518.911	-0.069	-0.161
-158.735	-200.000	0.027	0.157
-157.720	76.486	-0.077	0.081
-156.706	120.331	-0.204	0.251
-155.691	13.002	-0.220	-0.169
-154.677	152.670	-0.091	0.124
-153.662	71.917	0.237	-0.244
-152.647	-4.609	0.246	0.168
-151.633	-102.964	0.091	0.021
-150.618	-142.335	0.193	0.019
-149.604	47.900	0.287	-0.265
-148.589	-200.000	0.046	-0.333
-147.574	25.813	-0.205	-0.169
-146.560	46.585	0.232	-0.213
-145.545	403.475	-0.055	-0.115
-144.531	103.258	-0.040	-0.046
-143.516	86.106	-0.051	-0.056
-142.502	-200.000	-0.014	0.362
-141.487	-53.023	0.216	0.098
-140.472	81.448	0.195	0.208
-139.458	157.041	0.119	0.163
-138.443	268.700	-0.080	0.139
-137.429	396.671	-0.181	-0.373
-136.414	-138.367	0.073	-0.008
-135.399	188.756	0.206	0.305
-134.385	167.922	-0.393	0.554
-133.370	-188.616	0.107	0.001
-132.356	-83.146	-0.474	0.151
-131.341	-63.717	-0.100	-0.040
-130.326	197.979	-0.154	0.233
-129.312	360.940	0.074	-0.147
-128.297	-200.000	-0.035	-0.195
-127.283	263.035	0.055	-0.095
-126.268	18.370	0.186	-0.147
-125.253	-174.372	0.220	-0.006
-124.239	175.172	-0.075	0.107
-123.224	684.416	0.082	-0.212
-122.210	-127.835	0.269	-0.038
-121.195	138.486	-0.226	-0.293
-120.180	-71.645	0.074	-0.027
-119.166	-89.955	-0.342	0.099
-118.151	800.000	-0.033	-0.091
-117.137	249.349	0.089	-0.149
-116.122	-1.497	-0.046	0.032
-115.107	-200.000	-0.046	0.223
-114.093	-101.991	0.187	0.045
-113.078	-200.000	-0.004	0.061
-112.064	-86.556	-0.035	0.011
-111.049	-200.000	-0.018	0.199
-110.034	-22.328	0.190	0.114
-109.020	-107.221	-0.068	-0.015
-108.005	-200.000	0.001	-0.210
-106.991	-124.030	0.198	-0.031
-105.976	281.872	-0.177	-0.313
-104.962	127.557	-0.226	-0.283
-103.947	-123.207	-0.109	0.017
-102.932	182.729	-0.126	0.183
-101.918	115.217	-0.217	-0.262
-100.903	54.197	-0.271	0.258
-99.889	130.137	-0.124	-0.157
-98.874	-42.397	-0.312	0.157
-97.859	496.506	0.136	-0.309
-96.845	-36.769	-0.165	-0.088
-95.830	-137.771	-0.299	-0.033
-94.816	-15.393	0.209	-0.132
-93.801	131.066	0.080	-0.102
-92.786	40.075	-0.104	0.092
-91.772	-33.511	-0.183	0.100
-90.757	334.069	0.105	0.200
-89.743	-23.862	0.095	0.056
-88.728	-200.000	-0.047	-0.444
-87.713	390.630	0.032	-0.065
-86.699	-200.000	-0.019	-0.319
-85.684	408.917	0.075	-0.156
-84.670	111.254	-0.147	0.175
-83.655	2.788	-0.141	0.101
-82.640	-130.240	-0.265	0.036
-81.626	-174.151	0.123	-0.004
-80.611	184.541	-0.082	0.120
-79.597	199.448	0.078	0.119
-78.582	-200.000	0.025	0.210
-77.567	-35.300	0.209	-0.112
-76.553	-200.000	0.034	-0.355
-75.538	-200.000	-0.070	-0.435
-74.524	-200.000	0.042	0.242
-73.509	66.763	0.269	-0.270
-72.494	186.724	-0.134	0.198
-71.480	-200.000	-0.013	0.117
-70.465	800.000	0.033	-0.117
-69.451	6.493	-0.046	-0.034
-68.436	-200.000	-0.062	0.294
-67.422	-200.000	0.049	0.216
-66.407	800.000	-0.078	0.300
-65.392	-200.000	-0.015	-0.092
-64.378	-54.338	0.370	0.166
-63.363	-45.704	0.250	-0.122
-62.349	580.255	-0.123	0.297
-61.334	72.907	-0.869	-0.896
-60.319	84.029	0.368	0.397
-59.305	267.567	-0.494	-0.852
-58.290	151.803	0.738	0.992
-57.276	191.022	0.908	1.348
-56.261	-200.000	97.133	588.852
-55.246	612.856	1423.690	3515.396
-54.232	185.444	2621.416	3840.461
-53.217	118.512	2205.018	2684.950
-52.203	43.136	1736.625	1563.449
-51.188	35.646	1547.973	1341.518
-50.173	33.350	1521.013	1302.329
-49.159	53.248	1569.780	1483.452
-48.144	54.925	1587.572	1511.911
-47.130	35.964	1547.060	1342.730
-46.115	32.750	1532.218	1307.555
-45.100	32.570	1529.366	1303.823
-44.086	32.715	1526.745	1302.540
-43.071	32.603	1525.277	1300.466
-42.057	32.605	1523.580	1298.976
-41.042	32.542	1522.080	1297.213
-40.027	32.606	1520.805	1296.515
-39.013	32.585	1519.153	1294.915
-37.998	32.619	1517.622	1293.788
-36.984	32.577	1517.274	1293.156
-35.969	32.542	1515.602	1291.436
-34.954	32.637	1514.128	1290.782
-33.940	32.537	1512.924	1289.021
-32.925	32.584	1511.343	1287.944
-31.911	32.632	1509.918	1287.008
-30.896	32.572	1508.768	1285.565
-29.881	32.629	1507.095	1284.473
-28.867	32.602	1505.805	1283.144
-27.852	32.600	1504.423	1281.902
-26.838	32.643	1502.728	1280.695
-25.823	32.637	1501.199	1279.299
-24.809	32.593	1499.710	1277.685
-23.794	32.549	1498.318	1276.148
-22.779	32.623	1496.856	1275.356
-21.765	32.681	1495.644	1274.660
-20.750	32.571	1494.817	1273.164
-19.736	32.626	1493.844	1272.659
-18.721	32.495	1493.068	1271.058
-17.706	32.568	1491.460	1270.131
-16.692	32.444	1490.700	1268.600
-15.677	32.505	1489.467	1267.915
-14.663	32.455	1488.804	1266.957
-13.648	32.503	1488.006	1266.551
-12.633	32.598	1486.394	1265.768
-11.619	32.429	1486.208	1264.425
-10.604	32.466	1485.223	1263.784
-9.590	32.450	1483.881	1262.489
-8.575	32.433	1483.089	1261.651
-7.560	32.470	1482.409	1261.268
-6.546	32.496	1481.298	1260.447
-5.531	32.470	1480.572	1259.606
-4.517	32.436	1479.219	1258.173
-3.502	32.456	1478.656	1257.782
-2.487	32.493	1477.409	1256.915
-1.473	32.537	1475.957	1255.926
-0.458	32.495	1474.880	1254.679
0.556	34.474	1465.563	1245.108
1.571	31.779	1439.410	1205.467
2.586	28.223	1376.731	1130.950
3.600	26.289	1293.503	1051.244
4.615	24.144	1246.571	1000.972
5.629	20.260	1188.736	933.594
6.644	11.961	1103.632	825.048
7.659	5.457	1062.846	762.850
8.673	4.597	1056.801	754.274
9.688	4.364	1053.500	750.727
10.702	4.122	1052.354	748.676
11.717	4.438	1050.111	748.534
12.731	7.416	1053.711	765.419
13.746	15.660	1064.893	813.526
14.761	21.437	1072.485	847.329
15.775	21.984	1072.373	849.816
16.790	21.513	1070.191	845.735
17.804	20.329	1068.421	838.544
18.819	19.466	1066.478	832.780
19.834	19.225	1064.989	830.384
20.848	18.912	1064.683	828.565
21.863	18.914	1064.174	828.102
22.877	18.805	1063.228	826.769
23.892	18.543	1062.588	824.937
24.907	18.410	1061.833	823.640
25.921	18.571	1060.640	823.414
26.936	18.481	1059.852	822.296
27.950	18.520	1058.730	821.540
28.965	18.479	1057.976	820.687
29.980	18.561	1056.633	819.967
30.994	18.697	1055.979	820.034
32.009	18.833	1055.197	820.002
33.023	18.803	1054.671	819.378
34.038	18.864	1053.623	818.784
35.053	18.824	1052.481	817.635
36.067	18.652	1051.389	815.896
37.082	18.609	1050.457	814.894
38.096	18.536	1050.096	814.198
39.111	18.679	1049.578	814.403
40.126	18.790	1048.722	814.190
41.140	18.780	1047.411	813.053
42.155	18.443	1046.226	810.468
43.169	18.305	1045.059	808.840
44.184	18.222	1043.507	807.177
45.199	18.100	1042.892	806.052
46.213	18.021	1042.227	805.099
47.228	18.251	1041.281	805.377
48.242	18.496	1040.509	805.861
49.257	18.624	1039.575	805.668
50.271	18.624	1038.404	804.687
51.286	18.642	1037.638	804.109
52.301	18.716	1036.960	803.859
53.315	18.657	1036.149	802.883
54.330	18.434	1035.506	801.273
55.344	18.248	1034.947	799.896
56.359	18.306	1033.536	799.010
57.374	18.386	1032.634	798.614
58.388	18.348	1031.777	797.704
59.403	18.086	1030.762	795.627
60.417	18.149	1029.749	795.066
61.432	18.187	1028.894	794.514
62.447	18.267	1028.013	794.133
63.461	18.065	1027.602	792.811
64.476	17.909	1026.986	791.543
65.490	17.910	1025.777	790.544
66.505	17.839	1024.618	789.254
67.520	18.077	1023.425	789.365
68.534	18.053	1023.227	789.028
69.549	18.045	1022.176	788.113
70.563	17.992	1021.536	787.303
71.578	17.829	1021.345	786.339
72.593	17.803	1020.138	785.218
73.607	17.759	1019.101	784.148
74.622	17.767	1017.810	783.122
75.636	17.827	1017.006	782.711
76.651	17.711	1016.438	781.672
77.666	17.723	1016.271	781.528
78.680	17.723	1015.740	781.050
79.695	17.897	1014.746	781.014
80.709	17.981	1014.127	780.855
81.724	18.162	1013.175	780.877
82.739	18.218	1012.692	780.694
83.753	18.318	1011.834	780.415
84.768	18.501	1011.178	780.674
85.782	18.774	1010.975	781.693
86.797	18.749	1010.765	781.349
87.812	18.859	1009.808	781.038
88.826	18.657	1008.699	779.195
89.841	18.695	1007.623	778.467
90.855	18.761	1007.188	778.359
91.870	18.850	1006.486	778.153
92.884	18.933	1005.718	777.867
93.899	18.759	1005.065	776.505
94.914	18.671	1003.994	775.211
95.928	18.881	1003.427	775.651
96.943	19.012	1002.721	775.631
97.957	18.731	1001.798	773.580
98.972	18.628	1001.034	772.459
99.987	18.671	1000.000	771.784
101.001	18.715	999.618	771.620
102.016	18.652	998.425	770.347
103.030	18.646	997.489	769.532
104.045	18.682	996.488	768.850
105.060	18.688	995.782	768.267
106.074	18.664	994.364	766.995
107.089	18.346	993.505	764.848
108.103	18.200	992.589	763.421
109.118	18.168	991.248	762.179
110.133	18.054	990.757	761.226
111.147	18.158	989.366	760.554
112.162	18.013	988.645	759.289
113.176	18.037	987.834	758.702
114.191	18.167	987.381	758.867
115.206	18.164	986.380	758.015
116.220	18.245	985.609	757.715
117.235	18.258	984.614	756.942
118.249	18.052	984.312	755.731
119.264	18.138	983.065	755.088
120.279	18.136	981.854	754.082
121.293	17.991	981.495	753.098
122.308	18.078	980.651	752.768
123.322	17.907	979.855	751.338
124.337	17.884	978.917	750.451
125.352	17.757	977.509	748.750
126.366	17.846	976.288	748.136
127.381	17.737	975.693	747.136
128.395	17.835	974.289	746.425
129.410	17.873	973.662	746.045
130.424	17.839	973.101	745.399
131.439	17.976	971.911	745.020
132.454	18.088	971.505	745.131
133.468	18.286	970.863	745.436
134.483	18.084	970.845	744.474
135.497	18.283	969.349	744.130
136.512	18.130	968.765	742.949
137.527	18.270	967.885	742.817
138.541	18.268	967.375	742.351
139.556	18.383	966.523	742.128
140.570	18.340	965.693	741.238
141.585	18.296	965.771	741.045
142.600	18.601	964.573	741.377
143.614	18.603	964.395	741.184
144.629	18.672	963.470	740.703
145.643	18.686	962.859	740.232
146.658	18.805	962.086	740.082
147.673	18.696	960.199	738.097
148.687	18.421	959.398	736.237
149.702	18.267	958.956	735.167
150.716	18.291	957.690	734.238
151.731	18.257	956.775	733.324
152.746	18.298	955.936	732.791
153.760	18.331	955.317	732.394
154.775	18.345	954.686	731.905
155.789	18.322	954.181	731.355
156.804	18.572	953.215	731.615
157.819	18.504	952.434	730.662
158.833	18.518	952.216	730.490
159.848	18.662	951.158	730.225
160.862	18.852	950.535	730.490
161.877	18.739	950.097	729.612
162.892	18.397	948.970	727.229
163.906	18.216	947.802	725.502
164.921	18.046	947.109	724.189
165.935	18.215	946.016	724.001
166.950	18.363	944.893	723.704
167.964	18.481	943.943	723.411
168.979	18.470	942.963	722.550
169.994	18.432	941.498	721.202
171.008	18.199	941.390	720.074
172.023	18.436	940.135	720.050
173.037	18.562	939.854	720.300
174.052	18.862	939.187	720.983
175.067	18.637	938.967	719.804
176.081	18.446	937.472	717.794
177.096	18.086	936.223	715.269
178.110	18.257	935.625	715.467
179.125	18.253	935.334	715.162
180.140	18.384	934.379	714.917
181.154	18.436	933.425	714.341
182.169	18.572	932.715	714.298
183.183	18.573	932.976	714.442
184.198	18.662	932.461	714.354
185.213	18.758	931.338	713.830
186.227	18.709	930.990	713.294
187.242	18.749	930.265	712.844
188.256	18.933	929.277	712.785
189.271	19.069	928.755	712.884
190.286	18.974	928.029	711.871
191.300	18.723	927.534	710.390
192.315	18.303	926.181	707.555
193.329	18.101	924.818	705.617
194.344	18.217	924.233	705.586
195.359	18.296	924.469	706.030
196.373	18.508	923.708	706.260
197.388	18.617	923.531	706.512
198.402	18.633	923.158	706.230
199.417	18.853	922.925	706.893
200.432	19.073	922.270	707.234
201.446	19.167	921.918	707.289
202.461	19.338	921.380	707.514
203.475	19.237	921.301	706.978
204.490	19.194	920.503	706.128
205.504	19.077	919.363	704.710
206.519	18.810	918.508	702.901
207.534	18.817	917.861	702.370
208.548	18.930	916.780	701.943
209.563	18.915	916.131	701.325
210.577	18.966	915.441	700.941
211.592	18.815	915.160	700.049
212.607	19.092	914.752	700.804
213.621	19.301	914.230	701.191
214.636	19.220	913.380	700.146
215.650	19.222	912.362	699.314
216.665	19.148	912.399	698.981
217.680	19.165	911.905	698.609
218.694	19.301	911.219	698.573
219.709	19.442	911.155	699.031
220.723	19.445	909.916	698.034
221.738	19.288	909.047	696.668
222.753	19.201	908.411	695.767
223.767	19.186	907.688	695.095
224.782	19.448	906.843	695.439
225.796	19.306	906.909	694.859
226.811	19.569	905.805	695.007
227.826	19.406	905.292	693.897
228.840	19.224	904.193	692.264
229.855	19.260	903.380	691.725
230.869	19.223	902.897	691.144
231.884	19.115	902.525	690.364
232.899	19.143	901.581	689.696
233.913	19.106	900.869	688.942
234.928	19.076	899.992	688.091
235.942	18.928	899.442	687.017
236.957	18.879	898.728	686.215
237.972	18.886	898.097	685.698
238.986	18.931	897.356	685.252
240.001	19.000	896.788	685.032
241.015	19.054	895.863	684.480
242.030	18.910	895.456	683.536
243.045	19.043	894.954	683.621
244.059	19.060	894.731	683.460
245.074	19.236	893.770	683.363
246.088	19.206	893.287	682.813
247.103	19.434	892.549	683.091
248.117	19.620	891.829	683.215
249.132	19.485	891.814	682.610
250.147	19.798	891.348	683.431
251.161	19.980	891.264	684.024
252.176	20.096	890.615	683.922
253.190	20.195	889.271	683.220
254.205	20.269	888.626	682.955
255.220	20.272	888.476	682.792
256.234	20.170	887.278	681.409
257.249	20.064	886.995	680.717
258.263	20.138	886.422	680.507
259.278	20.142	885.776	679.964
260.293	20.151	885.332	679.601
261.307	20.049	885.246	679.073
262.322	20.260	884.360	679.161
263.336	20.317	884.004	679.052
264.351	20.351	883.543	678.769
265.366	20.286	882.700	677.807
266.380	20.237	882.125	677.114
267.395	20.336	881.354	676.848
268.409	20.240	880.446	675.718
269.424	20.238	879.410	674.856
270.439	20.217	878.778	674.227
271.453	20.091	878.040	673.114
272.468	20.038	877.554	672.477
273.482	19.887	876.934	671.356
274.497	19.921	876.230	670.890
275.512	20.005	875.439	670.550
276.526	19.792	875.197	669.481
277.541	19.984	874.501	669.632
278.555	19.894	873.815	668.698
279.570	20.141	873.226	669.141
280.585	20.483	872.818	670.091
281.599	20.479	872.571	669.823
282.614	20.388	871.581	668.654
283.628	20.158	870.408	666.814
284.643	20.148	870.336	666.657
285.657	20.133	869.689	666.048
286.672	20.039	869.020	665.114
287.687	20.068	868.901	665.078
288.701	20.222	868.089	664.985
289.716	20.138	867.935	664.487
290.730	20.132	866.960	663.659
291.745	20.116	866.571	663.242
292.760	20.204	866.110	663.166
293.774	20.299	865.288	662.842
294.789	20.576	864.862	663.511
295.803	20.662	864.000	663.121
296.818	20.382	863.369	661.511
297.833	20.078	862.921	659.955
298.847	20.211	862.020	659.713
299.862	20.337	861.439	659.687
300.876	20.328	860.719	659.045
301.891	20.463	860.209	659.106
302.906	20.667	859.288	659.115
303.920	20.730	859.232	659.252
304.935	20.814	858.797	659.178
305.949	20.994	858.061	659.238
306.964	20.782	857.448	657.905
307.979	20.663	856.599	656.748
308.993	20.570	856.094	655.950
310.008	20.735	855.746	656.247
311.022	20.830	854.943	655.930
312.037	20.747	854.939	655.559
313.052	20.491	854.150	653.934
314.066	20.550	852.870	653.117
315.081	20.311	852.439	651.829
316.095	20.237	851.924	651.102
317.110	20.297	851.562	650.993
318.125	20.299	851.122	650.607
319.139	20.145	850.659	649.618
320.154	20.287	849.780	649.421
321.168	20.207	849.922	649.171
322.183	20.442	848.773	649.113
323.197	20.452	848.258	648.701
324.212	20.373	847.841	648.030
325.227	20.488	847.351	648.027
326.241	20.348	846.548	646.833
327.256	20.315	846.502	646.619
328.270	20.461	845.461	646.311
329.285	20.527	845.025	646.163
330.300	20.396	844.257	645.033
331.314	20.453	844.189	645.135
332.329	20.509	842.972	644.357
333.343	20.586	842.816	644.464
334.358	20.716	842.275	644.475
335.373	20.841	841.742	644.475
336.387	20.716	841.370	643.670
337.402	20.578	841.200	642.971
338.416	20.775	840.516	643.122
339.431	21.001	839.965	643.477
340.446	21.216	839.276	643.685
341.460	21.323	838.755	643.621
342.475	21.221	838.452	642.957
343.489	21.307	837.794	642.711
344.504	21.188	837.377	641.896
345.519	21.380	837.035	642.285
346.533	21.347	836.692	641.842
347.548	21.445	836.001	641.616
348.562	21.212	834.867	639.833
349.577	21.064	834.250	638.762
350.592	20.903	833.863	637.819
351.606	20.714	833.401	636.718
352.621	20.748	832.700	636.252
353.635	20.836	832.274	636.191
354.650	20.871	832.077	636.114
355.665	21.010	831.890	636.422
356.679	21.022	831.211	635.890
357.694	21.019	830.717	635.444
358.708	21.112	830.276	635.388
359.723	21.260	829.407	635.204
360.738	21.016	829.207	634.110
361.752	21.145	828.359	633.873
362.767	21.173	827.888	633.560
363.781	21.128	828.100	633.501
364.796	21.406	827.864	634.272
365.810	21.549	827.271	634.282
366.825	21.613	826.806	634.099
367.840	21.681	826.538	634.086
368.854	21.641	826.005	633.474
369.869	21.755	825.167	633.187
370.883	21.280	824.937	631.238
371.898	21.439	824.073	631.095
372.913	21.506	823.291	630.683
373.927	21.707	822.966	631.103
374.942	21.587	822.378	630.165
375.956	21.413	822.049	629.231
376.971	21.623	821.420	629.446
377.986	21.683	820.918	629.224
379.000	21.832	820.448	629.342
380.015	21.822	819.927	628.850
381.029	21.931	818.951	628.436
382.044	21.800	818.618	627.657
383.059	21.736	818.236	627.079
384.073	21.909	817.545	627.113
385.088	21.808	817.140	626.387
386.102	21.629	816.281	625.033
387.117	21.533	815.263	623.856
388.132	21.485	814.832	623.298
389.146	21.342	814.833	622.735
390.161	21.388	814.838	622.849
391.175	21.754	814.222	623.624
392.190	21.949	813.406	623.636
393.205	21.677	813.219	622.472
394.219	21.561	812.292	621.297
395.234	21.687	811.843	621.347
396.248	21.487	811.690	620.462
397.263	21.336	810.803	619.196
398.278	21.293	810.145	618.485
399.292	21.264	809.979	618.204
400.307	21.246	809.576	617.775
401.321	21.468	809.041	618.097
402.336	21.504	808.366	617.655
403.350	21.536	808.174	617.567
404.365	21.637	808.240	617.918
405.380	21.742	807.616	617.757
406.394	21.853	807.575	618.063
407.409	21.829	807.256	617.680
408.423	22.057	806.559	617.893
409.438	22.001	806.069	617.264
410.453	22.205	805.754	617.686
411.467	22.098	805.228	616.852
412.482	22.260	804.716	616.973
413.496	22.311	804.008	616.556
414.511	22.413	804.092	616.925
415.526	22.344	803.514	616.183
416.540	22.159	803.461	615.442
417.555	22.190	802.654	614.877
418.569	22.084	802.062	613.999
419.584	22.263	801.195	613.907
420.599	22.210	801.137	613.623
421.613	161.018	1368.379	1793.220
422.628	139.881	1451.029	1793.341
