DTS Sentinel unit serial number:	SN413079Multiplexer serial number:	ORYXHardware model number:	OX4-SRSoftware version number:	ORYX F/W v4.00 Oryx Data Collector v3.7.2.0data status	okinstallation	princeton_trtdifferential loss correction	single-endedforward channel	channel 3reverse channel	N/Adate	2019/09/16time	05:32:35forward acquisition time	60.00reverse acquisition time	0.00gamma	496.2192k internal	0.2335k external	0.2335temperature offset calibration	0.9956default loss term (dB/km)	0.3790temperature slope calibration	1.0000multiplexer offset coefficient	1.0000multiplexer slope coefficient	1.0000fibre end	0.00T internal ref (°C)	27.30T ext. ref 1 (°C)	11.13T ext. ref 2 (°C)	22.10length (m)	temperature (°C)	Stokes	anti-Stokes-747.200	414.047	0.048	0.104
-746.185	-90.557	0.357	0.104
-745.171	433.008	0.192	-0.418
-744.156	67.157	0.175	0.179
-743.142	-29.282	-0.071	-0.041
-742.127	800.000	0.018	0.073
-741.112	-33.238	-0.102	0.057
-740.098	152.941	-0.244	0.335
-739.083	35.250	0.199	-0.175
-738.069	-200.000	-0.009	0.257
-737.054	276.427	-0.116	-0.207
-736.039	-105.180	0.226	0.052
-735.025	-33.693	0.062	0.035
-734.010	64.464	-0.203	-0.205
-732.996	-18.716	-0.087	-0.054
-731.981	-87.558	-0.238	-0.072
-730.966	638.392	-0.010	0.026
-729.952	333.317	-0.102	-0.197
-728.937	-100.157	-0.259	0.065
-727.923	-200.000	-0.002	0.206
-726.908	240.587	-0.083	-0.139
-725.894	48.058	-0.250	-0.234
-724.879	-200.000	0.017	-0.221
-723.864	671.016	-0.127	-0.331
-722.850	-87.850	-0.227	-0.068
-721.835	21.277	-0.246	0.200
-720.821	3.591	-0.246	0.180
-719.806	-200.000	0.021	0.125
-718.791	27.620	0.198	0.168
-717.777	31.332	0.294	-0.254
-716.762	-73.317	0.061	0.022
-715.748	-200.000	-0.011	0.378
-714.733	800.000	-0.012	0.048
-713.718	121.996	-0.148	-0.186
-712.704	131.903	0.080	-0.103
-711.689	246.358	-0.058	0.099
-710.675	69.834	-0.209	-0.216
-709.660	800.000	0.069	-0.226
-708.645	-200.000	-0.030	-0.233
-707.631	-59.333	-0.257	0.111
-706.616	10.159	0.190	0.145
-705.602	66.957	-0.139	-0.142
-704.587	98.701	-0.220	-0.255
-703.572	325.171	0.091	0.175
-702.558	-98.911	0.258	-0.066
-701.543	-43.114	-0.425	-0.216
-700.529	235.928	0.070	0.116
-699.514	-200.000	0.060	0.347
-698.499	-200.000	0.009	0.106
-697.485	-77.707	-0.260	-0.090
-696.470	-6.123	-0.083	-0.057
-695.456	208.603	-0.052	-0.082
-694.441	-16.245	0.272	-0.173
-693.426	-146.341	0.189	0.017
-692.412	-48.993	-0.167	0.080
-691.397	-86.248	-0.350	-0.108
-690.383	622.571	0.093	0.235
-689.368	133.495	-0.077	-0.100
-688.354	-140.603	-0.306	-0.032
-687.339	-15.205	0.137	-0.088
-686.324	-200.000	-0.270	-0.001
-685.310	-32.388	-0.177	-0.099
-684.295	-55.768	-0.314	-0.141
-683.281	-5.231	-0.204	0.141
-682.266	14.952	0.187	0.147
-681.251	202.976	-0.135	0.209
-680.237	-200.000	0.007	0.094
-679.222	270.237	-0.080	-0.141
-678.208	-94.860	0.038	-0.010
-677.193	64.051	0.183	-0.184
-676.178	-36.446	-0.301	-0.162
-675.164	-12.567	-0.178	-0.116
-674.149	-86.118	-0.303	-0.094
-673.135	-200.000	-0.016	0.200
-672.120	-200.000	-0.067	0.409
-671.105	218.355	-0.192	0.306
-670.091	-9.674	-0.092	0.062
-669.076	99.872	0.104	-0.121
-668.062	-132.767	0.369	0.047
-667.047	88.762	-0.060	0.067
-666.032	-200.000	0.016	-0.162
-665.018	252.637	-0.167	-0.285
-664.003	-25.004	-0.140	0.083
-662.989	-171.293	0.136	0.005
-661.974	-47.324	-0.104	-0.051
-660.959	-200.000	-0.055	-0.284
-659.945	192.744	0.064	-0.096
-658.930	-127.413	-0.348	0.051
-657.916	-200.000	0.034	-0.217
-656.901	800.000	0.063	-0.181
-655.886	-41.965	-0.205	0.105
-654.872	-35.220	-0.189	-0.103
-653.857	-200.000	-0.036	0.246
-652.843	155.911	0.084	-0.116
-651.828	800.000	-0.008	0.035
-650.814	800.000	-0.022	-0.067
-649.799	114.478	0.121	0.147
-648.784	-35.933	0.384	0.208
-647.770	800.000	-0.027	-0.094
-646.755	-200.000	0.004	-0.243
-645.741	378.413	-0.088	0.180
-644.726	-177.885	0.198	-0.005
-643.711	800.000	-0.101	0.320
-642.697	305.517	0.061	-0.113
-641.682	35.874	-0.119	-0.105
-640.668	-200.000	0.014	-0.071
-639.653	800.000	0.045	0.173
-638.638	121.855	0.060	0.074
-637.624	-115.310	-0.489	-0.093
-636.609	58.001	-0.041	-0.040
-635.595	-94.866	-0.301	-0.082
-634.580	73.040	-0.070	-0.073
-633.565	29.421	0.068	0.058
-632.551	-200.000	0.013	-0.098
-631.536	164.511	-0.204	-0.288
-630.522	168.786	0.156	0.223
-629.507	-200.000	-0.018	-0.195
-628.492	-85.798	0.206	-0.064
-627.478	66.870	-0.083	0.084
-626.463	56.269	-0.124	0.120
-625.449	188.130	0.149	-0.223
-624.434	-13.293	0.080	-0.052
-623.419	147.068	0.140	-0.188
-622.405	105.200	-0.105	0.124
-621.390	800.000	0.055	0.199
-620.376	-119.328	-0.199	0.035
-619.361	-52.616	-0.146	-0.067
-618.346	-200.000	0.011	-0.136
-617.332	78.426	-0.070	0.075
-616.317	183.288	-0.157	-0.232
-615.303	63.991	0.165	-0.166
-614.288	553.091	-0.096	0.231
-613.273	279.450	-0.055	0.098
-612.259	-169.300	-0.366	0.013
-611.244	-200.000	0.038	-0.353
-610.230	360.973	0.154	-0.308
-609.215	-172.220	0.103	0.003
-608.201	-60.218	-0.263	-0.112
-607.186	49.343	-0.065	-0.061
-606.171	800.000	0.084	0.235
-605.157	17.885	0.261	0.208
-604.142	109.173	0.364	0.436
-603.128	224.165	-0.147	-0.237
-602.113	38.047	-0.314	0.279
-601.098	-5.566	0.087	0.060
-600.084	-200.000	0.001	0.207
-599.069	41.628	-0.148	-0.134
-598.055	-166.849	0.108	0.004
-597.040	86.754	-0.180	-0.199
-596.025	-91.722	0.237	-0.067
-595.011	-200.000	-0.013	0.089
-593.996	30.386	0.186	0.159
-592.982	-54.418	-0.117	-0.053
-591.967	-115.230	0.287	0.054
-590.952	-56.646	-0.151	0.067
-589.938	-200.000	0.044	-0.321
-588.923	147.504	0.023	-0.031
-587.909	63.229	0.140	-0.140
-586.894	-200.000	-0.007	0.127
-585.879	38.081	-0.240	0.213
-584.865	336.627	0.122	-0.236
-583.850	-200.000	-0.021	0.312
-582.836	-200.000	0.012	0.113
-581.821	-103.557	0.398	-0.093
-580.806	98.668	0.073	0.084
-579.792	-200.000	-0.003	0.196
-578.777	180.810	0.097	-0.142
-577.763	800.000	0.061	-0.229
-576.748	-148.310	0.350	-0.029
-575.733	105.140	-0.289	0.341
-574.719	-200.000	0.053	-0.262
-573.704	4.468	0.135	-0.099
-572.690	24.464	-0.117	0.097
-571.675	618.339	-0.045	-0.114
-570.661	-38.136	0.087	0.046
-569.646	-167.003	-0.211	0.009
-568.631	-135.968	-0.112	-0.013
-567.617	-200.000	0.020	-0.110
-566.602	164.204	0.132	0.185
-565.588	-187.147	0.108	0.001
-564.573	-154.332	-0.207	-0.014
-563.558	800.000	0.040	-0.113
-562.544	18.794	-0.123	-0.098
-561.529	362.494	0.028	-0.056
-560.515	-72.726	0.300	-0.110
-559.500	401.644	0.130	-0.273
-558.485	44.625	-0.181	-0.166
-557.471	772.185	0.013	0.034
-556.456	-200.000	0.017	-0.461
-555.442	-55.243	0.089	-0.040
-554.427	-39.944	0.158	-0.082
-553.412	-107.491	-0.214	0.047
-552.398	-134.752	-0.150	0.018
-551.383	-68.664	-0.135	-0.052
-550.369	-200.000	0.023	0.186
-549.354	-124.493	-0.210	-0.033
-548.339	94.762	-0.217	0.246
-547.325	-38.369	0.239	0.126
-546.310	-37.242	0.232	-0.124
-545.296	249.920	-0.146	0.247
-544.281	-149.365	-0.191	0.015
-543.266	-77.756	-0.360	0.124
-542.252	-160.280	0.090	-0.005
-541.237	165.186	-0.026	0.036
-540.223	800.000	-0.106	0.319
-539.208	8.053	0.193	0.144
-538.193	-95.367	-0.234	0.063
-537.179	-179.741	-0.365	0.008
-536.164	800.000	0.082	-0.227
-535.150	99.335	0.126	0.145
-534.135	-163.230	0.415	-0.020
-533.121	-200.000	-0.008	-0.201
-532.106	515.207	-0.083	0.194
-531.091	-37.823	0.090	0.048
-530.077	269.211	-0.131	-0.229
-529.062	29.072	0.084	0.071
-528.048	-191.179	-0.286	-0.003
-527.033	-200.000	0.077	-0.454
-526.018	155.827	-0.050	-0.069
-525.004	-200.000	-0.027	-0.325
-523.989	4.603	-0.235	-0.172
-522.975	-200.000	-0.028	0.182
-521.960	32.929	-0.055	-0.048
-520.945	-200.000	-0.014	-0.166
-519.931	-119.884	-0.210	0.036
-518.916	771.657	0.059	0.160
-517.902	-164.131	0.292	-0.013
-516.887	-55.851	-0.115	0.051
-515.872	372.304	-0.077	-0.156
-514.858	-200.000	-0.015	-0.135
-513.843	-200.000	0.061	-0.000
-512.829	132.695	-0.079	0.101
-511.814	92.041	-0.223	0.250
-510.799	-94.593	0.234	-0.063
-509.785	-59.002	-0.119	-0.051
-508.770	-109.183	-0.222	0.047
-507.756	-72.477	-0.219	-0.081
-506.741	-200.000	0.025	0.311
-505.726	51.727	-0.144	0.137
-504.712	-200.000	-0.122	-0.001
-503.697	-200.000	0.017	0.110
-502.683	33.365	-0.057	-0.050
-501.668	-195.798	0.192	0.001
-500.653	-58.401	0.073	0.032
-499.639	-130.226	-0.272	0.037
-498.624	9.785	-0.200	0.151
-497.610	520.044	0.097	0.226
-496.595	-186.319	0.195	0.003
-495.581	490.248	-0.120	-0.274
-494.566	5.571	-0.142	-0.104
-493.551	-42.479	-0.150	-0.076
-492.537	-159.156	0.547	0.031
-491.522	-36.784	-0.082	-0.044
-490.508	-99.782	-0.234	0.058
-489.493	31.851	0.088	-0.075
-488.478	154.498	0.181	-0.247
-487.464	-116.121	-0.265	-0.049
-486.449	78.457	0.260	0.276
-485.435	-125.690	0.193	-0.029
-484.420	-98.507	-0.488	0.124
-483.405	-14.466	-0.144	-0.092
-482.391	31.924	-0.113	0.096
-481.376	800.000	-0.050	0.153
-480.362	-22.067	0.254	-0.153
-479.347	-55.728	-0.184	-0.082
-478.332	-23.242	-0.389	0.233
-477.318	-200.000	-0.025	0.132
-476.303	800.000	-0.056	-0.223
-475.289	345.418	0.089	-0.173
-474.274	397.089	-0.168	-0.349
-473.259	-90.973	-0.094	0.027
-472.245	800.000	0.065	-0.240
-471.230	123.958	0.111	0.138
-470.216	413.490	0.151	-0.320
-469.201	25.843	0.181	0.150
-468.186	-57.315	0.330	-0.144
-467.172	-52.660	-0.233	-0.107
-466.157	12.661	-0.108	-0.083
-465.143	800.000	0.046	0.178
-464.128	420.504	0.101	0.216
-463.113	-17.598	-0.240	0.150
-462.099	83.701	-0.059	0.064
-461.084	-200.000	-0.011	-0.132
-460.070	202.181	-0.133	0.204
-459.055	-143.719	0.240	0.023
-458.040	-33.098	0.120	0.066
-457.026	800.000	-0.053	0.222
-456.011	-120.993	-0.102	0.017
-454.997	-29.691	0.006	0.003
-453.982	-200.000	0.008	-0.245
-452.968	-197.639	0.273	0.002
-451.953	800.000	-0.063	-0.247
-450.938	-137.278	-0.402	0.045
-449.924	-22.253	-0.049	0.030
-448.909	-149.867	0.113	0.009
-447.895	448.369	0.061	0.134
-446.880	113.988	-0.189	0.229
-445.865	-76.013	-0.038	-0.013
-444.851	39.723	-0.343	0.306
-443.836	61.826	0.085	-0.084
-442.822	269.979	0.019	-0.034
-441.807	241.397	-0.061	-0.102
-440.792	-35.893	-0.041	0.022
-439.778	-125.575	0.127	-0.019
-438.763	-11.837	0.294	-0.192
-437.749	255.006	0.099	-0.168
-436.734	-94.962	-0.218	0.058
-435.719	267.958	-0.088	-0.153
-434.705	-200.000	-0.019	-0.224
-433.690	178.094	0.146	-0.211
-432.676	-48.116	0.084	-0.040
-431.661	-110.970	-0.140	-0.028
-430.646	257.815	0.017	0.028
-429.632	-92.664	0.121	-0.034
-428.617	89.371	-0.179	0.198
-427.603	383.841	0.056	0.115
-426.588	-34.156	0.167	-0.091
-425.573	-180.719	-0.102	0.002
-424.559	469.993	0.041	-0.092
-423.544	-200.000	-0.003	0.356
-422.530	-200.000	-0.003	-0.144
-421.515	-116.053	0.193	0.036
-420.500	48.136	-0.187	-0.174
-419.486	584.068	0.068	-0.166
-418.471	-11.626	-0.122	-0.079
-417.457	-91.022	-0.322	0.092
-416.442	256.385	0.145	0.248
-415.428	800.000	-0.078	0.238
-414.413	800.000	-0.027	0.107
-413.398	183.570	0.201	-0.295
-412.384	-200.000	0.055	0.298
-411.369	117.945	-0.070	0.086
-410.355	109.940	0.189	0.225
-409.340	-200.000	-0.065	0.338
-408.325	-105.817	0.138	0.031
-407.311	-23.073	-0.102	0.061
-406.296	-200.000	0.030	-0.270
-405.282	-78.239	-0.110	0.037
-404.267	800.000	-0.089	-0.253
-403.252	-71.355	-0.187	0.069
-402.238	-47.858	-0.203	-0.097
-401.223	378.901	-0.054	0.109
-400.209	-108.051	0.103	0.022
-399.194	800.000	0.142	0.421
-398.179	-168.898	0.190	-0.007
-397.165	353.793	0.031	0.061
-396.150	-200.000	-0.004	0.080
-395.136	800.000	0.029	0.106
-394.121	-143.923	0.070	-0.006
-393.106	-200.000	-0.001	0.072
-392.092	-80.266	0.268	0.089
-391.077	-127.094	-0.156	-0.023
-390.063	-91.464	-0.173	-0.049
-389.048	-21.258	0.127	-0.077
-388.033	11.380	-0.215	0.163
-387.019	800.000	-0.114	-0.383
-386.004	399.457	-0.038	0.078
-384.990	89.134	0.139	-0.153
-383.975	36.928	0.146	-0.128
-382.960	-200.000	-0.024	-0.113
-381.946	-88.668	0.361	0.106
-380.931	-102.582	0.157	0.037
-379.917	-200.000	-0.018	0.109
-378.902	800.000	0.043	0.167
-377.888	18.794	-0.305	-0.242
-376.873	19.014	0.136	0.108
-375.858	800.000	-0.038	-0.135
-374.844	282.948	0.112	0.199
-373.829	-200.000	0.024	-0.140
-372.815	416.752	0.032	0.067
-371.800	-200.000	-0.032	-0.212
-370.785	98.160	-0.105	0.120
-369.771	800.000	0.068	-0.293
-368.756	-79.418	0.175	0.059
-367.742	41.331	-0.066	-0.059
-366.727	-200.000	0.043	-0.307
-365.712	800.000	0.045	0.129
-364.698	-42.763	-0.214	-0.108
-363.683	-103.639	0.168	-0.039
-362.669	517.191	-0.119	-0.275
-361.654	800.000	-0.036	0.104
-360.639	-200.000	-0.024	0.156
-359.625	201.697	-0.226	0.345
-358.610	-99.825	0.310	-0.077
-357.596	142.263	-0.070	0.092
-356.581	570.379	-0.008	-0.020
-355.566	160.206	0.269	0.371
-354.552	625.872	-0.133	-0.331
-353.537	-104.962	0.222	0.050
-352.523	-200.000	0.057	0.340
-351.508	70.518	-0.245	0.251
-350.493	-183.816	-0.450	0.008
-349.479	-32.279	0.560	0.309
-348.464	-200.000	0.016	0.127
-347.450	-24.472	0.439	0.259
-346.435	522.666	0.041	0.096
-345.420	-200.000	0.048	0.358
-344.406	344.263	-0.068	-0.131
-343.391	157.789	0.114	0.156
-342.377	-100.177	-0.301	-0.074
-341.362	-0.679	-0.099	-0.069
-340.348	800.000	-0.058	-0.170
-339.333	-4.559	0.116	-0.079
-338.318	28.940	0.024	-0.020
-337.304	-176.037	-0.067	-0.002
-336.289	15.993	0.223	-0.174
-335.275	-200.000	0.058	-0.399
-334.260	408.175	-0.029	0.060
-333.245	-118.565	-0.460	-0.080
-332.231	360.582	0.085	-0.167
-331.216	-66.472	0.199	0.078
-330.202	474.611	0.026	-0.058
-329.187	-84.636	-0.204	0.064
-328.172	-105.189	0.052	-0.012
-327.158	326.904	0.048	-0.091
-326.143	287.075	-0.031	-0.056
-325.129	190.870	-0.031	0.045
-324.114	-200.000	-0.046	-0.260
-323.099	-200.000	0.016	0.163
-322.085	347.585	0.107	-0.209
-321.070	14.695	0.038	0.030
-320.056	45.786	-0.131	-0.120
-319.041	-55.042	0.207	-0.092
-318.026	-53.277	0.138	-0.063
-317.012	-174.938	-0.157	0.004
-315.997	-83.685	0.145	0.046
-314.983	53.451	-0.060	-0.057
-313.968	-74.584	-0.147	-0.052
-312.953	-119.947	-0.272	0.046
-311.939	-107.745	-0.220	-0.047
-310.924	-200.000	0.003	-0.277
-309.910	568.291	0.057	-0.137
-308.895	-200.000	0.006	0.407
-307.880	-50.691	-0.213	-0.099
-306.866	419.331	0.077	-0.162
-305.851	-120.437	-0.135	-0.023
-304.837	-63.095	0.067	0.027
-303.822	-73.702	0.288	0.104
-302.807	-200.000	0.005	-0.427
-301.793	372.480	0.153	0.307
-300.778	-200.000	0.061	0.477
-299.764	-76.203	0.264	0.092
-298.749	-58.073	-0.106	-0.046
-297.735	-88.981	0.277	0.081
-296.720	-41.777	0.311	-0.158
-295.705	18.143	0.034	0.027
-294.691	-200.000	0.008	0.163
-293.676	8.087	0.252	0.187
-292.662	97.900	0.095	0.108
-291.647	800.000	0.101	0.362
-290.632	-106.219	-0.142	0.031
-289.618	-166.225	-0.181	-0.008
-288.603	-184.780	-0.083	-0.001
-287.589	-24.199	-0.360	0.212
-286.574	556.094	0.054	0.129
-285.559	-75.161	0.244	0.086
-284.545	-37.278	0.074	-0.039
-283.530	-141.591	-0.230	-0.023
-282.516	-185.021	0.337	0.005
-281.501	120.964	-0.057	0.070
-280.486	-200.000	0.055	-0.397
-279.472	-48.680	0.148	-0.070
-278.457	24.384	-0.116	-0.095
-277.443	-148.692	-0.512	-0.041
-276.428	-195.087	0.193	-0.001
-275.413	39.139	-0.162	-0.143
-274.399	70.691	-0.130	0.133
-273.384	-200.000	-0.005	0.251
-272.370	-16.750	-0.388	0.242
-271.355	261.716	0.142	-0.243
-270.340	-70.879	-0.140	-0.052
-269.326	800.000	0.043	0.120
-268.311	-35.929	0.196	-0.105
-267.297	800.000	-0.064	0.198
-266.282	-77.816	-0.077	-0.026
-265.267	-96.289	0.209	0.055
-264.253	47.099	-0.144	-0.132
-263.238	-7.816	0.146	0.097
-262.224	800.000	-0.044	0.178
-261.209	-59.798	0.209	-0.088
-260.195	-147.674	0.442	-0.037
-259.180	-200.000	-0.067	-0.466
-258.165	167.808	0.139	0.195
-257.151	800.000	0.070	-0.238
-256.136	123.345	0.079	-0.097
-255.122	53.695	-0.259	0.245
-254.107	-200.000	-0.017	0.125
-253.092	-200.000	0.001	-0.230
-252.078	-200.000	0.070	-0.341
-251.063	-148.724	0.278	0.022
-250.049	13.305	-0.057	-0.043
-249.034	313.365	0.128	0.236
-248.019	-200.000	-0.001	0.245
-247.005	335.289	0.129	-0.247
-245.990	-87.604	-0.196	0.058
-244.976	105.961	0.068	0.079
-243.961	-70.241	0.250	0.094
-242.946	114.961	-0.189	-0.227
-241.932	-72.073	0.354	-0.130
-240.917	-100.737	0.126	0.031
-239.903	247.775	0.100	-0.166
-238.888	-136.422	-0.158	0.018
-237.873	151.127	-0.070	0.094
-236.859	-122.653	0.076	0.012
-235.844	183.351	0.264	0.385
-234.830	-51.323	0.229	-0.106
-233.815	315.803	-0.086	-0.160
-232.800	-200.000	0.029	-0.208
-231.786	-115.747	0.137	-0.025
-230.771	-37.133	0.238	-0.125
-229.757	-100.311	0.091	-0.022
-228.742	-43.308	-0.250	-0.124
-227.727	-35.078	0.198	-0.106
-226.713	-97.884	-0.170	-0.043
-225.698	-143.406	-0.110	-0.010
-224.684	-139.590	0.143	-0.015
-223.669	-117.905	0.039	0.007
-222.655	-82.793	0.173	-0.055
-221.640	-200.000	0.030	0.403
-220.625	-125.989	-0.114	0.017
-219.611	800.000	0.064	0.192
-218.596	-200.000	0.001	0.081
-217.582	-200.000	0.030	0.147
-216.567	-89.636	0.151	0.044
-215.552	23.784	-0.113	0.091
-214.538	40.021	0.031	-0.027
-213.523	-85.006	0.135	-0.041
-212.509	800.000	0.080	-0.281
-211.494	536.683	-0.037	-0.086
-210.479	-200.000	0.015	0.073
-209.465	-200.000	-0.005	0.024
-208.450	-22.600	-0.062	-0.037
-207.436	-44.882	-0.188	0.092
-206.421	-29.120	-0.293	-0.165
-205.406	-74.949	0.234	0.082
-204.392	38.262	0.230	-0.201
-203.377	119.148	-0.097	0.118
-202.363	-83.347	-0.158	0.050
-201.348	61.621	0.071	-0.070
-200.333	-200.000	0.022	0.282
-199.319	800.000	-0.013	0.048
-198.304	-91.394	0.216	0.061
-197.290	-147.674	0.299	0.025
-196.275	374.547	-0.146	-0.293
-195.260	-68.717	0.288	0.109
-194.246	-200.000	-0.053	0.248
-193.231	-200.000	0.023	0.164
-192.217	548.007	0.095	-0.223
-191.202	31.166	-0.253	-0.214
-190.187	15.487	0.136	0.105
-189.173	-102.301	-0.182	-0.043
-188.158	465.888	-0.026	-0.056
-187.144	339.745	0.100	-0.192
-186.129	24.164	0.113	-0.092
-185.114	-55.010	0.090	0.040
-184.100	-117.390	-0.297	-0.053
-183.085	-200.000	-0.029	0.165
-182.071	126.284	-0.120	0.149
-181.056	-145.939	-0.168	-0.015
-180.042	-114.109	0.317	0.060
-179.027	-200.000	0.027	-0.283
-178.012	-119.902	-0.236	0.040
-176.998	220.595	0.186	0.293
-175.983	-92.936	-0.396	0.109
-174.969	-139.562	-0.167	0.018
-173.954	-98.617	-0.154	0.039
-172.939	11.317	0.085	-0.064
-171.925	263.212	-0.035	0.060
-170.910	-65.747	-0.059	-0.023
-169.896	370.302	0.105	0.210
-168.881	510.304	-0.098	-0.225
-167.866	270.873	-0.079	-0.137
-166.852	-56.118	0.136	-0.059
-165.837	-37.998	0.170	0.089
-164.823	-2.858	-0.082	0.056
-163.808	800.000	-0.138	0.483
-162.793	-151.536	0.278	0.020
-161.779	800.000	0.023	0.090
-160.764	800.000	-0.025	-0.094
-159.750	-46.894	-0.318	0.153
-158.735	800.000	0.196	-0.592
-157.720	-74.100	-0.068	-0.024
-156.706	293.418	-0.126	-0.225
-155.691	-110.685	-0.208	0.042
-154.677	-200.000	0.036	-0.155
-153.662	-53.167	0.120	0.054
-152.647	-6.317	-0.160	-0.107
-151.633	-115.029	-0.158	0.030
-150.618	176.810	0.120	0.172
-149.604	-200.000	-0.044	0.249
-148.589	39.609	-0.181	-0.159
-147.574	-22.403	0.146	-0.087
-146.560	-200.000	-0.051	0.383
-145.545	-53.027	-0.146	0.066
-144.531	133.269	-0.115	0.146
-143.516	-120.860	0.073	-0.012
-142.502	-111.388	-0.314	-0.063
-141.487	46.050	-0.341	0.310
-140.472	-200.000	0.023	-0.326
-139.458	-200.000	0.042	-0.412
-138.443	-137.139	-0.224	-0.025
-137.429	524.068	-0.095	-0.218
-136.414	-129.051	0.090	-0.012
-135.399	7.717	0.141	-0.104
-134.385	155.617	0.058	0.078
-133.370	182.656	-0.188	0.272
-132.356	-96.034	-0.122	0.032
-131.341	800.000	-0.017	-0.067
-130.326	800.000	0.060	0.227
-129.312	112.789	-0.164	0.195
-128.297	388.348	-0.106	0.215
-127.283	364.513	-0.092	0.181
-126.268	-200.000	0.005	0.092
-125.253	128.136	0.133	-0.166
-124.239	-200.000	0.024	-0.273
-123.224	555.908	-0.069	0.162
-122.210	-200.000	-0.000	0.191
-121.195	-200.000	-0.002	-0.159
-120.180	-78.739	0.489	0.164
-119.166	-200.000	0.022	-0.112
-118.151	-69.842	0.215	0.081
-117.137	-170.910	0.132	0.004
-116.122	46.754	-0.144	0.131
-115.107	-20.466	-0.080	-0.048
-114.093	-90.898	0.294	0.083
-113.078	-159.091	-0.152	0.008
-112.064	800.000	-0.050	-0.182
-111.049	509.265	0.027	-0.063
-110.034	154.276	-0.024	0.032
-109.020	-200.000	0.065	-0.348
-108.005	-77.756	0.442	0.150
-106.991	-115.725	-0.293	0.054
-105.976	-200.000	0.019	-0.262
-104.962	-48.741	-0.170	0.080
-103.947	242.892	-0.213	-0.350
-102.932	-49.713	0.064	0.030
-101.918	-200.000	0.009	0.277
-100.903	-58.583	-0.239	-0.101
-99.889	409.286	-0.110	0.228
-98.874	760.116	0.043	0.113
-97.859	-132.390	-0.258	-0.033
-96.845	-38.014	-0.270	-0.140
-95.830	-11.721	0.192	-0.124
-94.816	11.900	-0.142	-0.107
-93.801	-200.000	-0.022	0.287
-92.786	207.355	0.070	-0.106
-91.772	387.015	-0.101	0.205
-90.757	36.658	-0.174	0.151
-89.743	383.701	0.045	-0.091
-88.728	-16.257	0.357	0.222
-87.713	110.011	-0.086	0.101
-86.699	-75.137	0.291	0.102
-85.684	119.455	-0.166	0.201
-84.670	4.532	0.005	0.004
-83.655	-171.077	0.330	-0.011
-82.640	-73.523	0.188	0.067
-81.626	-200.000	-0.005	0.207
-80.611	510.128	-0.017	-0.039
-79.597	-40.146	-0.214	-0.109
-78.582	672.841	0.144	0.365
-77.567	577.811	0.050	0.119
-76.553	106.019	0.086	-0.099
-75.538	-9.718	-0.087	-0.056
-74.524	248.714	0.135	-0.224
-73.509	-54.967	-0.178	-0.079
-72.494	-200.000	-0.004	0.263
-71.480	-31.419	0.193	-0.106
-70.465	83.518	-0.103	-0.110
-69.451	125.908	-0.106	-0.132
-68.436	800.000	-0.076	-0.253
-67.422	56.516	-0.004	-0.004
-66.407	800.000	0.011	0.045
-65.392	-135.172	-0.089	-0.010
-64.378	-45.448	-0.268	-0.130
-63.363	-164.986	-0.099	0.004
-62.349	76.936	0.164	-0.170
-61.334	45.119	-1.331	-1.199
-60.319	136.491	0.584	0.745
-59.305	470.961	-0.523	-1.152
-58.290	309.944	0.750	1.373
-57.276	800.000	0.527	1.636
-56.261	-200.000	114.555	643.631
-55.246	464.189	1512.256	3305.996
-54.232	147.059	2678.200	3523.094
-53.217	102.394	2176.234	2487.560
-52.203	37.734	1703.400	1479.157
-51.188	30.514	1520.021	1270.717
-50.173	28.164	1496.054	1234.792
-49.159	52.195	1553.900	1448.375
-48.144	50.851	1568.825	1453.009
-47.130	30.623	1525.857	1276.141
-46.115	27.540	1510.912	1242.607
-45.100	27.379	1507.112	1238.332
-44.086	27.245	1505.698	1236.214
-43.071	27.307	1503.141	1234.485
-42.057	27.284	1501.697	1233.093
-41.042	27.320	1500.258	1232.107
-40.027	27.351	1498.563	1230.877
-39.013	27.280	1497.064	1229.118
-37.998	27.231	1496.295	1228.104
-36.984	27.289	1494.679	1227.124
-35.969	27.341	1493.237	1226.239
-34.954	27.261	1492.103	1224.718
-33.940	27.272	1490.673	1223.569
-32.925	27.352	1489.167	1222.824
-31.911	27.275	1487.862	1221.190
-30.896	27.335	1486.824	1220.689
-29.881	27.339	1485.658	1219.709
-28.867	27.330	1484.034	1218.269
-27.852	27.317	1482.921	1217.224
-26.838	27.350	1481.587	1216.295
-25.823	27.305	1480.116	1214.739
-24.809	27.240	1478.627	1213.038
-23.794	27.306	1476.999	1212.095
-22.779	27.320	1476.176	1211.463
-21.765	27.358	1474.650	1210.418
-20.750	27.421	1473.550	1209.885
-19.736	27.264	1473.080	1208.407
-18.721	27.374	1471.369	1207.684
-17.706	27.315	1470.565	1206.586
-16.692	27.274	1469.439	1205.343
-15.677	27.294	1468.356	1204.541
-14.663	27.181	1467.703	1203.209
-13.648	27.350	1466.617	1203.391
-12.633	27.301	1465.998	1202.508
-11.619	27.272	1465.159	1201.580
-10.604	27.323	1464.372	1201.222
-9.590	27.278	1463.144	1199.872
-8.575	27.251	1462.116	1198.806
-7.560	27.285	1461.382	1198.377
-6.546	27.289	1460.249	1197.431
-5.531	27.347	1459.253	1196.946
-4.517	27.291	1458.764	1196.126
-3.502	27.417	1457.508	1195.877
-2.487	27.291	1456.703	1194.340
-1.473	27.225	1455.508	1192.882
-0.458	27.343	1454.233	1192.565
0.556	25.788	1444.460	1181.437
1.571	22.953	1420.551	1143.462
2.586	19.664	1361.550	1075.432
3.600	18.339	1279.095	1002.465
4.615	17.260	1234.643	961.439
5.629	16.829	1181.260	917.457
6.644	14.058	1105.503	844.482
7.659	11.530	1071.431	805.925
8.673	11.204	1066.166	800.290
9.688	11.141	1063.067	797.586
10.702	11.122	1061.549	796.282
11.717	11.053	1059.775	794.545
12.731	12.111	1058.946	799.011
13.746	14.854	1062.819	815.256
14.761	17.282	1065.281	828.929
15.775	17.859	1064.830	831.317
16.790	17.008	1063.299	825.906
17.804	16.001	1060.771	818.977
18.819	15.089	1058.780	812.940
19.834	14.576	1057.294	809.239
20.848	14.309	1056.275	807.096
21.863	13.965	1055.849	805.031
22.877	13.718	1054.870	803.018
23.892	13.478	1054.291	801.343
24.907	13.504	1053.341	800.676
25.921	13.524	1052.563	800.110
26.936	13.547	1052.202	799.879
27.950	13.576	1050.471	798.628
28.965	13.494	1049.943	797.765
29.980	13.745	1048.509	797.809
30.994	13.672	1047.565	796.670
32.009	13.690	1046.634	795.980
33.023	13.888	1045.808	796.228
34.038	13.817	1045.243	795.391
35.053	13.695	1044.383	794.079
36.067	13.643	1043.250	792.900
37.082	13.627	1042.172	791.933
38.096	13.732	1041.349	791.739
39.111	13.848	1040.361	791.471
40.126	13.877	1039.592	790.954
41.140	13.682	1038.718	789.290
42.155	13.621	1037.633	788.109
43.169	13.462	1036.790	786.640
44.184	13.488	1035.323	785.581
45.199	13.566	1033.918	784.817
46.213	13.594	1033.189	784.324
47.228	13.478	1032.597	783.260
48.242	13.588	1031.095	782.570
49.257	13.559	1030.886	782.205
50.271	13.562	1029.744	781.283
51.286	13.696	1028.583	780.962
52.301	13.684	1027.986	780.383
53.315	13.666	1027.237	779.663
54.330	13.572	1026.416	778.529
55.344	13.606	1025.550	777.963
56.359	13.571	1024.700	777.087
57.374	13.505	1023.690	775.940
58.388	13.428	1022.807	774.843
59.403	13.528	1021.956	774.598
60.417	13.523	1020.636	773.507
61.432	13.500	1020.519	773.240
62.447	13.435	1019.955	772.442
63.461	13.335	1018.563	770.855
64.476	13.463	1017.825	770.824
65.490	13.318	1017.055	769.494
66.505	13.235	1016.434	768.575
67.520	13.505	1015.356	768.945
68.534	13.428	1014.475	767.853
69.549	13.465	1013.796	767.438
70.563	13.418	1013.410	766.864
71.578	13.349	1012.847	766.050
72.593	13.394	1011.505	765.174
73.607	13.347	1010.372	764.032
74.622	13.319	1009.869	763.456
75.636	13.182	1008.757	761.914
76.651	13.320	1007.650	761.647
77.666	13.479	1006.619	761.531
78.680	13.515	1006.333	761.414
79.695	13.350	1005.976	760.317
80.709	13.424	1005.347	760.117
81.724	13.497	1003.725	759.156
82.739	13.461	1003.525	758.775
83.753	13.483	1003.326	758.657
84.768	13.695	1002.091	758.627
85.782	13.677	1001.351	757.917
86.797	13.888	1000.324	758.034
87.812	13.753	999.733	756.905
88.826	13.664	999.264	756.077
89.841	13.621	998.038	754.884
90.855	13.661	996.937	754.166
91.870	13.624	996.424	753.543
92.884	13.704	995.684	753.282
93.899	13.806	994.840	753.041
94.914	13.881	994.431	753.003
95.928	13.860	994.150	752.628
96.943	13.862	992.687	751.465
97.957	13.888	991.881	750.904
98.972	13.856	990.758	749.844
99.987	13.827	990.351	749.337
101.001	13.796	989.567	748.539
102.016	13.742	988.811	747.658
103.030	13.706	987.830	746.687
104.045	13.713	987.108	746.107
105.060	13.808	986.191	745.774
106.074	13.724	985.175	744.566
107.089	13.698	984.131	743.593
108.103	13.461	983.719	742.151
109.118	13.519	982.555	741.470
110.133	13.555	981.649	740.882
111.147	13.549	981.004	740.300
112.162	13.498	980.016	739.262
113.176	13.589	979.248	739.026
114.191	13.582	978.541	738.393
115.206	13.653	977.299	737.707
116.220	13.589	976.693	736.900
117.235	13.553	975.663	735.897
118.249	13.583	974.783	735.303
119.264	13.570	974.085	734.652
120.279	13.640	972.924	734.023
121.293	13.577	972.600	733.436
122.308	13.537	972.029	732.763
123.322	13.472	971.131	731.732
124.337	13.563	969.763	731.038
125.352	13.571	968.671	730.187
126.366	13.492	967.501	728.890
127.381	13.593	966.562	728.564
128.395	13.645	965.449	727.890
129.410	13.571	964.344	726.665
130.424	13.569	963.935	726.287
131.439	13.505	963.019	725.249
132.454	13.656	961.776	724.910
133.468	13.590	961.210	724.134
134.483	13.542	961.164	723.822
135.497	13.590	960.477	723.450
136.512	13.476	959.682	722.290
137.527	13.625	958.514	721.999
138.541	13.523	957.793	720.946
139.556	13.587	957.516	720.954
140.570	13.714	956.373	720.579
141.585	13.801	955.545	720.270
142.600	13.623	955.559	719.445
143.614	13.682	954.685	718.978
144.629	13.798	953.359	718.420
145.643	13.952	952.844	718.632
146.658	13.881	951.862	717.523
147.673	13.837	951.329	716.869
148.687	13.636	950.043	714.967
149.702	13.699	949.278	714.599
150.716	13.568	948.391	713.307
151.731	13.669	947.336	712.882
152.746	13.787	946.660	712.818
153.760	13.688	946.163	711.954
154.775	13.697	945.298	711.279
155.789	13.816	944.505	711.131
156.804	14.003	943.692	711.257
157.819	13.864	943.038	710.106
158.833	13.802	942.622	709.464
159.848	13.876	941.886	709.166
160.862	13.908	941.107	708.650
161.877	13.879	940.409	707.941
162.892	13.805	939.437	706.829
163.906	13.769	938.907	706.215
164.921	13.842	938.331	706.030
165.935	13.950	936.529	705.073
166.950	13.902	935.743	704.213
167.964	13.922	935.341	703.933
168.979	13.732	934.527	702.453
169.994	13.917	932.880	701.934
171.008	13.873	932.243	701.207
172.023	13.982	931.672	701.178
173.037	14.067	930.504	700.593
174.052	13.979	930.360	700.054
175.067	14.094	929.514	699.837
176.081	13.890	928.857	698.422
177.096	13.894	927.687	697.499
178.110	13.773	927.212	696.571
179.125	14.006	926.265	696.776
180.140	14.016	925.591	696.251
181.154	14.015	924.793	695.585
182.169	13.960	924.171	694.823
183.183	14.166	923.245	694.926
184.198	14.140	923.042	694.605
185.213	14.199	922.044	694.037
186.227	14.162	921.507	693.415
187.242	14.165	921.073	693.040
188.256	14.108	920.405	692.239
189.271	14.200	919.581	691.943
190.286	14.261	918.956	691.663
191.300	14.208	917.692	690.431
192.315	14.015	917.017	689.062
193.329	13.953	916.534	688.383
194.344	14.040	915.689	688.048
195.359	14.031	915.189	687.573
196.373	14.090	914.992	687.608
197.388	14.073	914.262	686.928
198.402	14.309	913.771	687.471
199.417	14.353	913.128	687.108
200.432	14.460	912.208	686.800
201.446	14.450	912.219	686.704
202.461	14.454	912.045	686.529
203.475	14.489	911.499	686.202
204.490	14.466	910.488	685.286
205.504	14.417	910.053	684.694
206.519	14.269	909.270	683.438
207.534	14.393	908.246	683.116
208.548	14.407	907.655	682.670
209.563	14.433	906.956	682.188
210.577	14.442	906.101	681.524
211.592	14.319	905.665	680.631
212.607	14.480	905.282	680.942
213.621	14.596	904.523	680.782
214.636	14.511	904.120	680.071
215.650	14.509	903.252	679.353
216.665	14.562	902.698	679.090
217.680	14.507	902.344	678.539
218.694	14.668	901.665	678.623
219.709	14.643	901.332	678.210
220.723	14.476	900.836	677.100
221.738	14.580	899.704	676.613
222.753	14.619	899.004	676.184
223.767	14.560	898.444	675.463
224.782	14.698	897.367	675.152
225.796	14.741	896.699	674.763
226.811	14.817	896.308	674.716
227.826	14.822	895.663	674.191
228.840	14.802	894.343	673.056
229.855	14.639	894.374	672.365
230.869	14.792	893.452	672.229
231.884	14.708	893.046	671.525
232.899	14.765	892.219	671.074
233.913	14.732	891.419	670.281
234.928	14.714	890.572	669.509
235.942	14.700	890.372	669.246
236.957	14.766	889.005	668.421
237.972	14.647	889.006	667.887
238.986	14.661	888.078	667.186
240.001	14.794	887.446	667.185
241.015	14.706	886.787	666.280
242.030	14.662	886.584	665.892
243.045	14.736	885.557	665.358
244.059	14.887	884.698	665.255
245.074	14.863	883.812	664.435
246.088	14.885	883.349	664.113
247.103	14.876	883.351	664.021
248.117	14.856	882.635	663.343
249.132	15.019	882.151	663.569
250.147	15.091	881.661	663.427
251.161	15.190	880.300	662.734
252.176	15.195	880.335	662.722
253.190	15.194	879.370	661.933
254.205	15.235	878.676	661.514
255.220	15.128	878.574	660.956
256.234	15.289	877.861	660.995
257.249	15.364	877.035	660.613
258.263	15.370	876.815	660.410
259.278	15.374	875.690	659.521
260.293	15.344	875.471	659.180
261.307	15.277	875.125	658.597
262.322	15.436	874.037	658.346
263.336	15.430	873.707	658.014
264.351	15.458	873.101	657.611
265.366	15.384	872.383	656.721
266.380	15.447	871.640	656.348
267.395	15.474	871.251	656.102
268.409	15.499	870.131	655.300
269.424	15.445	869.475	654.539
270.439	15.476	868.783	654.079
271.453	15.598	867.917	653.846
272.468	15.443	867.301	652.720
273.482	15.458	866.779	652.328
274.497	15.302	866.355	651.345
275.512	15.541	865.451	651.536
276.526	15.574	864.542	650.919
277.541	15.564	863.869	650.319
278.555	15.550	863.707	650.084
279.570	15.576	863.223	649.763
280.585	15.534	862.651	649.113
281.599	15.697	861.799	649.043
282.614	15.656	861.354	648.491
283.628	15.692	860.925	648.249
284.643	15.589	860.221	647.266
285.657	15.500	860.156	646.816
286.672	15.642	859.113	646.524
287.687	15.707	858.762	646.452
288.701	15.735	858.320	646.169
289.716	15.770	857.340	645.509
290.730	15.751	856.765	644.945
291.745	15.707	856.281	644.353
292.760	15.764	855.365	643.828
293.774	15.733	855.285	643.591
294.789	15.711	855.004	643.239
295.803	15.924	853.736	643.042
296.818	15.900	853.034	642.364
297.833	15.937	852.298	641.894
298.847	15.864	851.826	641.204
299.862	15.755	851.512	640.496
300.876	15.891	850.441	640.148
301.891	15.908	849.957	639.793
302.906	15.892	849.365	639.229
303.920	15.863	849.174	638.918
304.935	16.025	848.266	638.794
305.949	16.036	847.581	638.263
306.964	16.088	846.677	637.725
307.979	15.909	846.658	636.975
308.993	16.074	845.824	636.915
310.008	16.226	845.211	636.971
311.022	16.041	845.071	636.111
312.037	16.106	844.432	635.818
313.052	16.101	843.607	635.122
314.066	15.950	843.324	634.286
315.081	15.982	842.217	633.517
316.095	16.166	841.665	633.737
317.110	16.031	841.631	633.147
318.125	16.066	840.970	632.728
319.139	16.110	840.488	632.472
320.154	16.225	839.568	632.154
321.168	16.085	839.012	631.158
322.183	16.016	839.229	631.006
323.197	16.151	838.255	630.722
324.212	16.214	837.509	630.339
325.227	16.101	837.221	629.646
326.241	16.166	836.509	629.297
327.256	16.363	835.864	629.492
328.270	16.216	835.581	628.676
329.285	16.286	834.819	628.307
330.300	16.238	834.463	627.804
331.314	16.186	834.018	627.219
332.329	16.238	833.146	626.703
333.343	16.270	832.565	626.328
334.358	16.314	831.989	626.001
335.373	16.334	831.437	625.605
336.387	16.374	830.828	625.239
337.402	16.437	830.424	625.115
338.416	16.451	829.952	624.756
339.431	16.445	829.762	624.533
340.446	16.386	829.225	623.858
341.460	16.751	828.095	624.297
342.475	16.619	827.816	623.546
343.489	16.479	827.791	622.956
344.504	16.650	826.745	622.744
345.519	16.726	826.030	622.427
346.533	16.805	825.630	622.361
347.548	16.712	825.213	621.651
348.562	16.798	824.625	621.468
349.577	16.700	824.562	621.007
350.592	16.544	823.524	619.597
351.606	16.611	823.218	619.559
352.621	16.566	822.890	619.094
353.635	16.512	822.493	618.543
354.650	16.634	821.857	618.456
355.665	16.645	821.529	618.192
356.679	16.704	821.140	618.061
357.694	16.748	820.475	617.666
358.708	16.549	819.988	616.520
359.723	16.715	818.899	616.250
360.738	16.776	818.988	616.484
361.752	16.691	818.372	615.658
362.767	16.693	818.182	615.468
363.781	16.761	817.694	615.294
364.796	16.987	816.911	615.469
365.810	16.971	816.490	615.041
366.825	17.029	816.198	614.976
367.840	16.876	815.963	614.191
368.854	17.121	815.226	614.468
369.869	17.008	815.000	613.834
370.883	16.853	814.602	612.919
371.898	16.999	813.892	612.857
372.913	16.999	813.071	612.185
373.927	17.020	812.810	612.010
374.942	17.037	812.110	611.491
375.956	16.991	811.495	610.810
376.971	17.166	810.321	610.498
377.986	17.153	810.343	610.414
379.000	17.254	809.763	610.286
380.015	17.268	809.318	609.948
381.029	17.271	808.730	609.462
382.044	17.327	808.180	609.195
383.059	17.187	807.626	608.220
384.073	17.309	806.999	608.133
385.088	17.152	806.811	607.373
386.102	17.090	806.029	606.510
387.117	17.168	805.242	606.143
388.132	17.311	804.862	606.314
389.146	17.219	804.530	605.681
390.161	17.088	804.623	605.229
391.175	17.283	803.703	605.181
392.190	17.418	803.451	605.416
393.205	17.172	803.068	604.199
394.219	17.260	802.453	603.998
395.234	17.404	802.009	604.120
396.248	17.258	801.671	603.292
397.263	17.276	800.821	602.666
398.278	17.115	800.453	601.764
399.292	17.240	799.935	601.763
400.307	17.359	799.573	601.859
401.321	17.208	799.561	601.265
402.336	17.226	798.993	600.845
403.350	17.217	798.806	600.621
404.365	17.359	798.071	600.517
405.380	17.442	797.333	600.201
406.394	17.404	797.330	600.010
407.409	17.477	796.746	599.776
408.423	17.563	796.327	599.712
409.438	17.583	795.905	599.408
410.453	17.637	795.273	599.070
411.467	17.730	795.289	599.356
412.482	17.684	794.766	598.749
413.496	17.600	794.117	597.912
414.511	17.756	793.408	597.871
415.526	17.794	793.166	597.770
416.540	17.633	793.170	597.154
417.555	17.739	792.382	596.878
418.569	17.693	791.962	596.348
419.584	17.746	791.368	596.035
420.599	17.845	791.030	596.072
421.613	111.376	1293.308	1475.389
422.628	95.694	1366.470	1475.497
