DTS Sentinel unit serial number:	SN413079Multiplexer serial number:	ORYXHardware model number:	OX4-SRSoftware version number:	ORYX F/W v4.00 Oryx Data Collector v3.7.2.0data status	okinstallation	princeton_trtdifferential loss correction	single-endedforward channel	channel 3reverse channel	N/Adate	2019/09/19time	12:36:34forward acquisition time	60.00reverse acquisition time	0.00gamma	496.2192k internal	0.2334k external	0.2334temperature offset calibration	0.9993default loss term (dB/km)	0.3790temperature slope calibration	1.0000multiplexer offset coefficient	1.0000multiplexer slope coefficient	1.0000fibre end	0.00T internal ref (°C)	27.34T ext. ref 1 (°C)	0.88T ext. ref 2 (°C)	25.12length (m)	temperature (°C)	Stokes	anti-Stokes-747.200	77.882	-0.109	-0.117
-746.185	-200.000	-0.023	0.396
-745.171	101.937	-0.094	-0.110
-744.156	800.000	-0.099	0.305
-743.142	483.668	-0.134	-0.306
-742.127	-200.000	-0.004	-0.044
-741.112	-165.403	0.210	-0.009
-740.098	-200.000	0.012	0.228
-739.083	-57.429	-0.453	-0.200
-738.069	800.000	-0.151	0.447
-737.054	207.616	0.201	0.316
-736.039	35.087	-0.197	-0.174
-735.025	800.000	0.045	-0.126
-734.010	-40.694	0.179	-0.093
-732.996	365.607	0.113	-0.228
-731.981	-19.483	-0.280	0.175
-730.966	62.048	-0.258	0.258
-729.952	693.539	0.059	-0.156
-728.937	-123.456	-0.206	0.033
-727.923	-110.970	-0.240	-0.049
-726.908	-109.269	-0.053	0.011
-725.894	1.315	0.222	-0.160
-724.879	98.962	-0.294	-0.341
-723.864	58.453	-0.197	-0.194
-722.850	145.004	-0.043	-0.057
-721.835	800.000	0.048	0.171
-720.821	63.605	-0.049	-0.050
-719.806	-200.000	0.006	-0.398
-718.791	532.964	0.161	-0.382
-717.777	-76.339	-0.071	-0.025
-716.762	687.888	0.018	0.047
-715.748	-137.804	-0.160	-0.018
-714.733	587.317	0.050	-0.123
-713.718	-167.411	0.234	-0.009
-712.704	-182.845	0.055	0.001
-711.689	300.880	0.153	-0.284
-710.675	-200.000	-0.002	0.149
-709.660	71.725	0.299	0.312
-708.645	-18.060	-0.089	0.056
-707.631	-183.802	0.256	0.004
-706.616	-6.887	-0.226	-0.154
-705.602	800.000	-0.106	-0.437
-704.587	414.467	-0.084	0.179
-703.572	535.322	-0.165	0.393
-702.558	82.008	-0.149	0.162
-701.543	139.587	-0.173	-0.228
-700.529	-104.394	0.244	-0.057
-699.514	68.209	0.454	-0.467
-698.499	23.299	0.199	-0.164
-697.485	-92.818	-0.123	0.035
-696.470	-200.000	-0.016	-0.101
-695.456	-141.829	0.154	-0.016
-694.441	-100.819	-0.324	0.080
-693.426	800.000	0.057	0.201
-692.412	-48.105	0.097	0.047
-691.397	43.399	-0.170	-0.155
-690.383	-200.000	0.029	0.280
-689.368	-185.329	-0.131	-0.002
-688.354	800.000	0.051	0.182
-687.339	-194.933	0.161	0.001
-686.324	-85.307	-0.387	0.121
-685.310	-67.377	-0.164	-0.065
-684.295	210.306	-0.033	-0.052
-683.281	-122.143	0.325	-0.053
-682.266	19.637	-0.053	-0.043
-681.251	-200.000	0.030	-0.153
-680.237	-200.000	0.045	0.324
-679.222	723.112	0.058	-0.155
-678.208	800.000	-0.036	-0.108
-677.193	-123.035	0.289	0.046
-676.178	130.824	0.065	-0.084
-675.164	-200.000	0.030	-0.309
-674.149	95.733	-0.103	0.118
-673.135	-146.149	-0.140	0.012
-672.120	-62.797	0.196	-0.082
-671.105	-141.652	-0.305	-0.031
-670.091	-200.000	0.053	0.415
-669.076	395.720	-0.146	0.305
-668.062	-200.000	-0.033	0.144
-667.047	22.055	0.197	0.161
-666.032	-77.387	-0.513	0.179
-665.018	-116.038	-0.194	0.036
-664.003	-200.000	-0.009	0.155
-662.989	316.838	-0.080	-0.151
-661.974	137.992	0.104	-0.137
-660.959	-185.453	0.130	0.002
-659.945	-200.000	0.008	0.112
-658.930	117.453	0.181	-0.223
-657.916	-170.461	-0.184	-0.006
-656.901	-10.911	-0.137	-0.091
-655.886	-153.963	0.172	-0.012
-654.872	193.911	-0.213	-0.323
-653.857	-146.863	-0.261	0.022
-652.843	12.886	0.041	-0.032
-651.828	216.368	0.163	-0.260
-650.814	-57.311	0.152	-0.067
-649.799	-35.368	-0.039	-0.021
-648.784	510.767	-0.042	0.098
-647.770	-53.999	0.217	-0.099
-646.755	-200.000	-0.031	0.149
-645.741	-77.993	0.250	0.086
-644.726	339.871	-0.057	-0.111
-643.711	170.570	0.095	0.136
-642.697	-17.281	0.309	0.195
-641.682	-135.522	-0.134	-0.016
-640.668	-48.564	0.288	-0.139
-639.653	-174.997	-0.099	0.003
-638.638	-200.000	0.040	-0.203
-637.624	-200.000	-0.026	0.266
-636.609	-78.570	-0.084	0.029
-635.595	742.035	0.042	-0.114
-634.580	68.295	0.126	-0.129
-633.565	-89.540	0.236	0.069
-632.551	238.683	-0.208	-0.347
-631.536	-89.718	-0.296	-0.087
-630.522	8.072	-0.148	0.111
-629.507	-116.689	-0.336	0.062
-628.492	244.096	0.140	0.235
-627.478	156.218	-0.169	-0.233
-626.463	-48.668	0.078	0.038
-625.449	-200.000	0.063	0.320
-624.434	-84.048	-0.205	-0.065
-623.419	99.626	-0.047	-0.054
-622.405	257.561	-0.021	0.036
-621.390	428.777	0.146	-0.317
-620.376	-200.000	-0.030	-0.241
-619.361	-78.485	-0.098	0.034
-618.346	-73.721	0.336	-0.122
-617.332	475.706	-0.104	-0.234
-616.317	-200.000	0.007	-0.141
-615.303	367.257	-0.118	0.239
-614.288	544.781	-0.138	0.330
-613.273	-146.460	0.111	-0.010
-612.259	7.187	0.249	0.186
-611.244	233.389	0.069	0.113
-610.230	223.073	-0.175	-0.283
-609.215	-200.000	0.006	-0.208
-608.201	282.999	-0.095	0.171
-607.186	-200.000	0.018	0.251
-606.171	5.018	-0.284	0.209
-605.157	-55.780	0.223	-0.099
-604.142	-200.000	-0.000	-0.015
-603.128	-64.391	-0.133	-0.054
-602.113	-83.108	0.219	-0.070
-601.098	-146.886	0.161	0.014
-600.084	-98.633	0.136	0.035
-599.069	-70.463	0.237	0.090
-598.055	116.369	-0.076	-0.093
-597.040	-34.168	-0.105	0.058
-596.025	-191.518	0.050	0.001
-595.011	-135.748	0.084	0.010
-593.996	-93.753	-0.157	0.043
-592.982	214.018	-0.076	-0.120
-591.967	-10.432	-0.196	0.130
-590.952	800.000	-0.018	-0.057
-589.938	-41.938	0.311	-0.159
-588.923	-65.734	0.177	-0.071
-587.909	-149.042	0.108	0.009
-586.894	-200.000	0.020	0.102
-585.879	-140.548	-0.080	-0.008
-584.865	77.125	0.157	0.167
-583.850	-75.319	-0.085	0.030
-582.836	-118.751	-0.196	-0.034
-581.821	144.255	-0.102	-0.136
-580.806	-71.503	0.029	-0.011
-579.792	-188.912	-0.324	0.004
-578.777	-124.805	-0.052	0.008
-577.763	-200.000	-0.011	-0.252
-576.748	-200.000	-0.042	0.200
-575.733	800.000	0.111	0.328
-574.719	-45.322	0.202	0.100
-573.704	-14.639	-0.192	-0.123
-572.690	590.029	-0.103	-0.253
-571.675	630.617	-0.070	-0.176
-570.661	441.038	0.079	-0.172
-569.646	-200.000	-0.011	-0.076
-568.631	-200.000	-0.018	-0.176
-567.617	-200.000	-0.030	-0.378
-566.602	-200.000	-0.085	-0.464
-565.588	98.275	0.232	0.267
-564.573	176.038	-0.171	0.248
-563.558	-94.697	0.085	0.023
-562.544	-105.482	0.231	0.052
-561.529	800.000	-0.008	-0.030
-560.515	-33.600	-0.475	0.262
-559.500	800.000	-0.042	0.135
-558.485	-200.000	0.008	0.129
-557.471	51.913	-0.079	0.075
-556.456	-57.912	-0.305	0.133
-555.442	800.000	-0.008	-0.033
-554.427	-52.012	0.023	0.010
-553.412	111.792	-0.143	-0.173
-552.398	42.118	0.255	-0.231
-551.383	-88.961	0.363	-0.107
-550.369	538.647	-0.070	0.165
-549.354	-118.836	-0.285	0.050
-548.339	539.292	-0.143	0.338
-547.325	272.458	-0.059	-0.105
-546.310	-159.931	-0.316	-0.017
-545.296	-76.195	0.170	-0.060
-544.281	223.074	-0.024	0.038
-543.266	101.824	0.206	0.240
-542.252	-200.000	-0.029	-0.341
-541.237	96.735	0.090	-0.103
-540.223	800.000	0.053	-0.160
-539.208	395.376	-0.163	0.338
-538.193	479.850	-0.113	0.255
-537.179	-51.752	-0.444	-0.206
-536.164	-200.000	0.003	0.109
-535.150	800.000	0.008	0.028
-534.135	298.794	0.137	0.252
-533.121	800.000	0.042	-0.153
-532.106	-104.908	-0.295	-0.068
-531.091	-109.668	0.529	-0.111
-530.077	95.907	0.070	0.080
-529.062	-122.103	0.208	0.034
-528.048	-200.000	-0.053	-0.255
-527.033	43.171	-0.101	0.092
-526.018	185.937	0.080	0.119
-525.004	-200.000	-0.001	-0.052
-523.989	43.098	0.146	-0.132
-522.975	-200.000	0.054	0.273
-521.960	-200.000	-0.003	0.132
-520.945	-34.718	-0.376	-0.205
-519.931	800.000	0.044	-0.184
-518.916	211.046	-0.082	-0.128
-517.902	420.797	-0.152	-0.325
-516.887	-200.000	0.026	-0.264
-515.872	800.000	0.070	-0.213
-514.858	80.952	-0.151	0.163
-513.843	416.847	-0.018	0.038
-512.829	-56.624	-0.056	0.025
-511.814	-88.364	0.129	-0.038
-510.799	-22.653	0.126	0.076
-509.785	-87.849	-0.233	-0.070
-508.770	13.158	-0.228	-0.176
-507.756	-200.000	0.015	-0.210
-506.741	-20.028	-0.079	0.049
-505.726	-119.484	0.071	0.012
-504.712	50.934	-0.164	-0.155
-503.697	260.582	0.038	0.066
-502.683	-104.267	-0.143	0.033
-501.668	168.913	-0.177	0.251
-500.653	387.085	-0.087	-0.180
-499.639	68.096	-0.114	-0.117
-498.624	-200.000	-0.013	0.153
-497.610	293.697	-0.127	0.230
-496.595	-65.919	0.186	0.074
-495.581	-200.000	0.037	-0.250
-494.566	-200.000	0.091	-0.460
-493.551	127.059	-0.273	0.345
-492.537	-70.427	0.244	0.092
-491.522	80.636	0.394	-0.423
-490.508	81.066	0.146	0.157
-489.493	176.890	-0.224	0.324
-488.478	-138.124	0.138	-0.015
-487.464	-150.896	-0.196	-0.015
-486.449	16.444	-0.272	-0.214
-485.435	-100.626	0.222	-0.055
-484.420	-56.925	0.179	-0.078
-483.405	-165.700	0.205	-0.009
-482.391	-200.000	-0.005	0.026
-481.376	10.211	0.175	0.133
-480.362	-95.624	0.083	0.022
-479.347	-117.361	0.416	-0.075
-478.332	-98.507	-0.186	0.047
-477.318	180.461	-0.055	0.080
-476.303	34.904	-0.162	-0.141
-475.289	-117.599	-0.363	0.065
-474.274	800.000	0.109	0.367
-473.259	636.790	-0.046	0.116
-472.245	-200.000	-0.041	-0.237
-471.230	-46.653	0.039	-0.019
-470.216	-69.257	0.070	-0.027
-469.201	254.547	-0.118	-0.200
-468.186	-36.275	-0.150	-0.080
-467.172	-200.000	-0.031	-0.189
-466.157	-113.179	0.312	-0.061
-465.143	-57.532	0.179	0.078
-464.128	30.484	0.135	0.115
-463.113	99.594	0.185	0.213
-462.099	-142.078	0.130	-0.013
-461.084	20.488	-0.144	0.116
-460.070	-11.452	0.227	0.148
-459.055	-10.806	0.199	0.131
-458.040	-110.533	0.119	-0.024
-457.026	86.487	-0.103	-0.113
-456.011	58.142	-0.144	0.141
-454.997	-165.666	-0.150	0.006
-453.982	2.053	-0.249	-0.178
-452.968	-96.508	0.090	-0.024
-451.953	-173.144	-0.240	0.007
-450.938	-200.000	-0.009	0.190
-449.924	-200.000	0.023	0.127
-448.909	-79.849	0.269	-0.090
-447.895	-200.000	0.025	-0.253
-446.880	-200.000	-0.348	0.001
-445.865	-177.272	0.269	-0.007
-444.851	93.909	-0.059	0.066
-443.836	73.559	0.155	0.161
-442.822	357.468	0.133	-0.263
-441.807	202.433	0.168	0.258
-440.792	-103.349	0.124	0.029
-439.778	22.156	0.468	0.380
-438.763	-200.000	0.015	-0.084
-437.749	-175.999	0.161	-0.004
-436.734	569.801	0.146	-0.352
-435.719	-49.789	-0.316	-0.149
-434.705	473.294	0.060	0.134
-433.690	-81.382	-0.073	-0.024
-432.676	-68.613	-0.114	-0.044
-431.661	-51.954	0.420	-0.194
-430.646	-200.000	0.009	0.162
-429.632	90.359	0.091	0.101
-428.617	57.003	-0.024	-0.023
-427.603	-9.312	-0.101	-0.067
-426.588	178.562	-0.316	-0.458
-425.573	-114.881	-0.189	0.036
-424.559	-99.999	0.393	0.097
-423.544	-36.656	0.075	-0.040
-422.530	188.802	0.173	-0.256
-421.515	487.294	-0.057	-0.129
-420.500	-194.099	-0.206	-0.002
-419.486	-17.956	0.140	0.087
-418.471	800.000	-0.052	-0.208
-417.457	800.000	0.043	-0.131
-416.442	800.000	-0.026	0.082
-415.428	-200.000	-0.022	-0.280
-414.413	234.833	0.131	-0.215
-413.398	-200.000	-0.020	0.416
-412.384	21.993	-0.214	0.173
-411.369	-200.000	0.023	0.166
-410.355	151.612	0.158	-0.214
-409.340	-67.633	-0.464	-0.180
-408.325	335.066	0.202	-0.388
-407.311	84.139	0.041	0.045
-406.296	-63.841	0.288	0.117
-405.282	-124.534	0.065	0.010
-404.267	-200.000	0.028	-0.238
-403.252	4.029	-0.216	-0.157
-402.238	145.147	-0.271	-0.359
-401.223	39.698	-0.077	-0.068
-400.209	800.000	-0.137	-0.446
-399.194	42.635	0.126	0.114
-398.179	477.613	0.105	0.235
-397.165	-20.808	0.343	0.209
-396.150	-129.009	-0.299	-0.042
-395.136	372.153	-0.096	-0.193
-394.121	-33.475	0.115	-0.063
-393.106	8.246	-0.146	-0.109
-392.092	-112.183	0.173	0.034
-391.077	-200.000	0.001	0.434
-390.063	-82.600	-0.352	-0.113
-389.048	800.000	0.056	0.219
-388.033	94.277	-0.142	-0.159
-387.019	-200.000	0.036	-0.179
-386.004	800.000	0.050	-0.198
-384.990	78.521	0.028	0.030
-383.975	393.525	-0.133	0.274
-382.960	800.000	-0.047	-0.167
-381.946	-42.267	0.147	-0.075
-380.931	-127.490	0.168	0.024
-379.917	-200.000	0.022	0.375
-378.902	-79.862	0.167	-0.056
-377.888	288.669	0.037	0.066
-376.873	558.413	-0.120	-0.287
-375.858	13.931	0.026	0.020
-374.844	50.952	0.189	-0.177
-373.829	800.000	-0.150	-0.465
-372.815	4.664	0.069	-0.051
-371.800	-110.825	0.225	-0.046
-370.785	93.697	-0.024	0.027
-369.771	-150.132	-0.063	0.005
-368.756	16.281	-0.321	0.251
-367.742	173.512	0.104	-0.148
-366.727	-200.000	0.002	0.073
-365.712	37.488	0.126	-0.110
-364.698	-100.153	0.100	0.025
-363.683	254.314	-0.065	0.110
-362.669	168.896	-0.136	-0.193
-361.654	-200.000	-0.019	-0.154
-360.639	-111.743	-0.173	0.035
-359.625	800.000	-0.052	0.176
-358.610	800.000	0.073	-0.252
-357.596	97.031	-0.093	-0.105
-356.581	159.799	0.055	0.076
-355.566	-62.685	-0.128	-0.053
-354.552	319.946	-0.114	0.215
-353.537	239.357	0.109	0.180
-352.523	-7.207	0.167	-0.112
-351.508	30.778	-0.078	0.066
-350.493	304.087	0.057	-0.104
-349.479	56.490	-0.123	0.118
-348.464	271.916	-0.077	0.134
-347.450	-100.347	0.304	-0.075
-346.435	800.000	0.082	0.328
-345.420	119.370	-0.243	0.297
-344.406	195.117	-0.034	0.050
-343.391	-200.000	-0.025	-0.108
-342.377	372.238	0.245	0.491
-341.362	-29.202	0.467	-0.265
-340.348	758.308	0.067	-0.179
-339.333	53.880	-0.079	-0.075
-338.318	-56.543	0.212	0.093
-337.304	48.862	0.232	0.215
-336.289	-200.000	0.007	0.133
-335.275	-97.012	-0.146	-0.038
-334.260	-120.207	-0.093	-0.016
-333.245	-6.509	0.130	-0.087
-332.231	-104.556	-0.484	-0.111
-331.216	92.361	-0.072	-0.080
-330.202	-124.528	0.135	0.021
-329.187	-200.000	0.045	0.266
-328.172	-74.955	-0.384	0.136
-327.158	-63.468	0.307	-0.125
-326.143	-134.702	0.135	-0.016
-325.129	-101.143	-0.140	0.034
-324.114	-200.000	0.012	0.242
-323.099	-200.000	0.022	0.342
-322.085	-56.667	-0.123	0.054
-321.070	800.000	-0.086	0.337
-320.056	13.767	-0.199	-0.153
-319.041	800.000	-0.029	0.105
-318.026	174.054	0.071	0.101
-317.012	88.986	-0.028	-0.030
-315.997	3.446	0.105	-0.075
-314.983	-200.000	0.017	-0.215
-313.968	800.000	-0.072	-0.242
-312.953	142.596	0.201	-0.264
-311.939	-126.257	0.409	-0.060
-310.924	800.000	-0.143	0.430
-309.910	-200.000	0.003	0.112
-308.895	31.182	-0.307	0.261
-307.880	-81.162	0.259	-0.085
-306.866	87.806	0.156	-0.171
-305.851	-12.931	0.226	-0.145
-304.837	-138.527	-0.237	0.026
-303.822	-89.369	0.238	0.069
-302.807	-149.839	-0.208	0.016
-301.793	317.046	-0.070	0.130
-300.778	-47.019	-0.220	0.106
-299.764	-200.000	-0.023	-0.136
-298.749	93.360	0.110	0.123
-297.735	-172.702	0.065	-0.002
-296.720	800.000	0.024	0.090
-295.705	800.000	-0.050	-0.212
-294.691	-18.383	0.155	0.095
-293.676	-47.964	-0.263	-0.125
-292.662	-81.410	0.187	0.061
-291.647	500.535	0.090	0.205
-290.632	38.286	-0.053	0.047
-289.618	-98.734	0.225	-0.056
-288.603	-99.476	-0.175	-0.044
-287.589	-23.208	-0.130	-0.077
-286.574	183.955	-0.006	-0.009
-285.559	-41.386	-0.170	-0.086
-284.545	800.000	0.104	0.311
-283.530	-200.000	-0.014	0.326
-282.516	-126.757	-0.133	0.019
-281.501	710.152	-0.120	-0.313
-280.486	-126.492	-0.152	-0.022
-279.472	-200.000	0.014	0.090
-278.457	-121.876	0.144	-0.023
-277.443	59.870	0.191	0.187
-276.428	340.146	-0.183	0.352
-275.413	-200.000	0.013	0.089
-274.399	-200.000	0.006	0.037
-273.384	-102.237	0.060	-0.014
-272.370	-200.000	0.014	0.237
-271.355	111.953	-0.232	0.277
-270.340	-88.340	-0.042	-0.012
-269.326	-13.957	-0.362	0.231
-268.311	53.273	-0.060	-0.057
-267.297	-200.000	-0.004	-0.064
-266.282	-200.000	0.047	0.281
-265.267	-200.000	-0.005	0.190
-264.253	-190.452	-0.227	-0.002
-263.238	224.245	-0.096	-0.153
-262.224	-131.626	0.148	-0.019
-261.209	-200.000	0.031	-0.357
-260.195	65.883	-0.025	0.025
-259.180	-114.161	0.387	-0.074
-258.165	-200.000	0.029	-0.139
-257.151	-100.572	-0.433	-0.106
-256.136	205.251	0.165	0.253
-255.122	73.823	-0.221	0.229
-254.107	-80.832	0.103	0.034
-253.092	-200.000	0.007	0.060
-252.078	800.000	0.058	0.167
-251.063	-93.980	-0.186	-0.050
-250.049	219.932	-0.092	-0.145
-249.034	188.901	-0.057	-0.084
-248.019	323.100	0.233	0.437
-247.005	-6.755	0.107	-0.071
-245.990	800.000	0.059	0.196
-244.976	-84.067	0.278	0.087
-243.961	13.654	-0.197	0.151
-242.946	-200.000	-0.000	0.316
-241.932	-155.257	-0.128	-0.008
-240.917	13.615	-0.438	-0.335
-239.903	-48.762	-0.254	0.120
-238.888	-29.256	-0.149	-0.084
-237.873	382.874	0.083	0.168
-236.859	18.518	-0.166	0.131
-235.844	-200.000	-0.007	0.058
-234.830	99.670	0.175	0.200
-233.815	-6.896	-0.283	-0.189
-232.800	301.590	-0.125	-0.228
-231.786	-200.000	0.022	-0.114
-230.771	-116.773	0.046	-0.008
-229.757	-65.871	-0.110	-0.044
-228.742	-27.762	-0.075	-0.043
-227.727	-83.481	0.195	0.061
-226.713	8.962	-0.174	-0.129
-225.698	-200.000	-0.002	-0.017
-224.684	800.000	-0.027	-0.097
-223.669	-200.000	0.001	-0.136
-222.655	-8.785	0.240	0.158
-221.640	-200.000	-0.086	-0.448
-220.625	-109.478	-0.139	-0.029
-219.611	12.604	0.150	-0.114
-218.596	-97.527	-0.080	-0.021
-217.582	345.330	-0.013	-0.026
-216.567	-163.064	-0.195	0.009
-215.552	15.415	-0.074	-0.057
-214.538	-113.470	-0.533	0.103
-213.523	-110.490	0.238	-0.049
-212.509	-200.000	0.017	0.134
-211.494	80.609	0.093	-0.098
-210.479	67.226	0.094	-0.094
-209.465	-200.000	-0.009	-0.091
-208.450	103.511	-0.186	0.215
-207.436	800.000	0.037	0.127
-206.421	133.683	-0.024	-0.030
-205.406	701.505	-0.046	-0.118
-204.392	800.000	0.106	-0.321
-203.377	-200.000	0.005	-0.142
-202.363	-97.266	0.191	0.049
-201.348	1.310	0.275	-0.194
-200.333	-139.011	0.229	0.024
-199.319	-133.624	-0.045	-0.006
-198.304	156.536	0.126	-0.171
-197.290	-200.000	0.006	0.055
-196.275	-40.517	-0.071	-0.036
-195.260	-3.805	0.182	-0.124
-194.246	-80.775	0.212	0.069
-193.231	45.318	-0.270	-0.245
-192.217	-200.000	0.040	-0.282
-191.202	136.580	0.022	0.028
-190.187	-58.286	-0.273	0.117
-189.173	20.245	0.212	0.168
-188.158	53.122	0.213	-0.200
-187.144	224.126	0.140	-0.223
-186.129	-59.027	-0.188	-0.080
-185.114	-44.062	-0.237	0.117
-184.100	255.620	-0.126	0.213
-183.085	800.000	-0.041	0.170
-182.071	417.875	0.107	-0.226
-181.056	43.730	-0.086	-0.078
-180.042	-149.649	0.041	0.003
-179.027	800.000	-0.058	-0.178
-178.012	306.865	-0.045	0.083
-176.998	-200.000	0.059	0.282
-175.983	800.000	-0.098	0.299
-174.969	98.382	-0.249	0.282
-173.954	-200.000	-0.021	-0.147
-172.939	-26.011	0.386	0.223
-171.925	-200.000	-0.002	0.385
-170.910	-150.289	0.197	0.015
-169.896	-79.369	0.252	-0.084
-168.881	-200.000	0.004	0.168
-167.866	625.035	0.010	0.025
-166.852	-137.546	-0.207	0.023
-165.837	501.793	-0.093	-0.212
-164.823	800.000	0.100	-0.326
-163.808	422.537	-0.105	-0.222
-162.793	800.000	0.018	-0.074
-161.779	800.000	0.075	0.282
-160.764	37.582	0.114	0.100
-159.750	-180.793	0.285	0.006
-158.735	-117.106	0.407	0.073
-157.720	-200.000	-0.009	0.286
-156.706	157.631	-0.083	0.113
-155.691	800.000	-0.072	0.199
-154.677	-76.705	0.053	-0.018
-153.662	-200.000	-0.001	0.056
-152.647	260.769	-0.081	-0.137
-151.633	-12.168	0.290	0.187
-150.618	217.768	-0.109	0.171
-149.604	-186.151	-0.263	0.004
-148.589	-85.279	0.114	0.035
-147.574	-200.000	0.036	-0.157
-146.560	626.607	-0.104	0.258
-145.545	-200.000	0.001	-0.118
-144.531	89.736	0.248	0.271
-143.516	100.420	0.047	-0.054
-142.502	768.937	0.154	-0.411
-141.487	152.408	-0.100	-0.134
-140.472	-118.452	-0.197	-0.034
-139.458	-109.444	0.301	-0.062
-138.443	22.208	-0.161	0.129
-137.429	-68.038	-0.239	0.091
-136.414	-109.190	0.347	0.072
-135.399	-162.308	0.162	0.008
-134.385	32.689	0.126	0.107
-133.370	-48.085	0.345	-0.164
-132.356	-200.000	-0.018	-0.323
-131.341	-184.898	0.225	-0.004
-130.326	-112.722	0.235	0.046
-129.312	-51.680	0.183	-0.084
-128.297	386.839	-0.078	0.159
-127.283	-135.795	-0.036	0.004
-126.268	-200.000	0.027	-0.171
-125.253	800.000	-0.116	0.322
-124.239	-73.178	-0.239	0.086
-123.224	56.262	-0.137	-0.130
-122.210	-55.733	-0.359	-0.157
-121.195	-41.065	-0.055	0.028
-120.180	-45.427	0.055	0.027
-119.166	-14.752	0.288	-0.182
-118.151	-40.256	-0.097	0.050
-117.137	224.220	0.258	-0.409
-116.122	800.000	0.031	0.107
-115.107	-75.411	0.089	0.031
-114.093	90.849	0.106	0.117
-113.078	-99.804	0.265	0.065
-112.064	327.995	0.092	0.173
-111.049	-83.654	-0.228	0.071
-110.034	41.276	-0.217	0.193
-109.020	-200.000	-0.043	0.370
-108.005	676.254	-0.017	-0.042
-106.991	-124.368	0.436	-0.067
-105.976	77.121	0.099	-0.103
-104.962	366.379	0.115	-0.228
-103.947	800.000	0.031	0.089
-102.932	-30.758	-0.106	0.059
-101.918	-200.000	0.000	0.121
-100.903	800.000	-0.046	-0.179
-99.889	-108.724	0.212	0.045
-98.874	-104.242	0.336	0.076
-97.859	800.000	0.130	0.382
-96.845	-20.823	-0.175	0.105
-95.830	-78.306	-0.134	0.045
-94.816	220.456	-0.113	0.177
-93.801	307.552	0.065	-0.120
-92.786	372.449	0.075	-0.149
-91.772	143.844	-0.030	-0.039
-90.757	-127.598	0.047	-0.007
-89.743	160.801	0.189	-0.259
-88.728	-109.876	-0.184	0.038
-87.713	-200.000	0.018	0.321
-86.699	30.056	-0.069	0.058
-85.684	-200.000	0.012	-0.166
-84.670	-141.953	0.099	0.010
-83.655	3.772	0.236	0.169
-82.640	-74.525	0.196	-0.069
-81.626	262.050	-0.050	0.085
-80.611	-20.633	0.136	-0.082
-79.597	8.012	-0.120	0.088
-78.582	-42.790	-0.226	-0.112
-77.567	-35.504	0.231	0.123
-76.553	384.401	-0.152	-0.306
-75.538	406.753	0.078	-0.161
-74.524	-57.645	0.165	-0.071
-73.509	109.039	-0.240	-0.281
-72.494	-21.438	-0.207	-0.123
-71.480	260.579	0.135	-0.229
-70.465	426.028	-0.031	0.065
-69.451	-120.747	-0.306	-0.051
-68.436	95.308	0.076	-0.085
-67.422	-26.643	-0.107	0.062
-66.407	-200.000	-0.035	-0.261
-65.392	677.339	-0.010	0.026
-64.378	-96.317	0.400	-0.104
-63.363	-53.783	-0.394	-0.176
-62.349	24.653	0.116	0.094
-61.334	161.204	-0.748	-1.023
-60.319	65.583	0.702	0.696
-59.305	800.000	-0.307	-0.992
-58.290	800.000	0.291	0.832
-57.276	800.000	0.459	1.746
-56.261	-200.000	111.179	612.510
-55.246	431.260	1527.833	3238.336
-54.232	141.820	2718.698	3525.328
-53.217	101.743	2216.663	2529.321
-52.203	38.075	1736.465	1511.316
-51.188	30.389	1551.719	1297.037
-50.173	28.150	1527.031	1260.938
-49.159	51.155	1584.505	1470.483
-48.144	50.145	1599.961	1477.684
-47.130	30.628	1556.344	1302.370
-46.115	27.556	1541.065	1268.188
-45.100	27.467	1537.757	1264.801
-44.086	27.383	1535.967	1262.695
-43.071	27.428	1533.326	1260.782
-42.057	27.307	1532.396	1259.135
-41.042	27.337	1530.625	1257.839
-40.027	27.422	1529.099	1257.122
-39.013	27.350	1527.498	1255.257
-37.998	27.316	1526.082	1253.805
-36.984	27.268	1524.912	1252.467
-35.969	27.398	1523.171	1251.883
-34.954	27.320	1522.286	1250.569
-33.940	27.291	1520.787	1249.087
-32.925	27.363	1519.539	1248.507
-31.911	27.403	1517.771	1247.281
-30.896	27.376	1516.593	1246.075
-29.881	27.418	1515.412	1245.344
-28.867	27.382	1514.411	1244.227
-27.852	27.444	1512.680	1243.180
-26.838	27.369	1511.513	1241.659
-25.823	27.406	1509.482	1240.195
-24.809	27.339	1508.685	1239.031
-23.794	27.293	1506.760	1237.092
-22.779	27.321	1506.148	1236.730
-21.765	27.416	1504.327	1235.828
-20.750	27.368	1503.313	1234.617
-19.736	27.397	1502.101	1233.771
-18.721	27.401	1500.796	1232.681
-17.706	27.363	1499.783	1231.541
-16.692	27.351	1498.552	1230.399
-15.677	27.309	1497.863	1229.503
-14.663	27.401	1496.768	1229.177
-13.648	27.374	1496.215	1228.490
-12.633	27.264	1494.820	1226.552
-11.619	27.361	1493.904	1226.404
-10.604	27.274	1493.740	1225.641
-9.590	27.329	1492.293	1224.770
-8.575	27.375	1491.408	1224.304
-7.560	27.369	1490.140	1223.177
-6.546	27.202	1490.241	1222.092
-5.531	27.305	1488.797	1221.545
-4.517	27.334	1487.809	1220.884
-3.502	27.280	1486.516	1219.413
-2.487	27.288	1485.569	1218.639
-1.473	27.197	1485.158	1217.648
-0.458	27.292	1483.592	1216.949
0.556	26.750	1474.372	1208.456
1.571	24.483	1449.575	1173.151
2.586	21.519	1385.655	1102.668
3.600	19.485	1299.201	1021.750
4.615	17.949	1253.227	976.729
5.629	15.406	1196.238	918.333
6.644	7.907	1110.075	813.898
7.659	1.910	1070.488	755.165
8.673	0.979	1064.953	746.607
9.688	0.909	1061.286	743.625
10.702	0.778	1060.804	742.581
11.717	0.874	1058.322	741.248
12.731	3.092	1060.159	753.344
13.746	10.065	1070.002	794.645
14.761	15.886	1076.838	828.372
15.775	17.336	1077.699	836.101
16.790	17.074	1076.292	833.644
17.804	16.070	1074.577	827.321
18.819	15.224	1072.432	821.450
19.834	14.747	1071.210	818.103
20.848	14.356	1070.630	815.675
21.863	14.138	1069.385	813.590
22.877	13.858	1068.990	811.849
23.892	13.783	1067.663	810.400
24.907	13.682	1067.306	809.563
25.921	13.691	1065.992	808.543
26.936	13.632	1065.587	807.876
27.950	13.744	1064.839	807.782
28.965	13.684	1064.331	807.031
29.980	13.815	1063.528	806.987
30.994	14.004	1062.151	806.792
32.009	13.778	1061.973	805.489
33.023	13.861	1060.723	804.867
34.038	14.042	1059.904	805.056
35.053	13.877	1059.414	803.813
36.067	13.932	1058.142	803.043
37.082	13.737	1057.698	801.693
38.096	13.878	1056.909	801.702
39.111	13.858	1056.199	800.996
40.126	13.871	1054.811	799.937
41.140	13.757	1054.210	798.859
42.155	13.701	1053.088	797.670
43.169	13.618	1052.300	796.602
44.184	13.609	1050.979	795.491
45.199	13.638	1050.137	794.923
46.213	13.578	1049.409	794.015
47.228	13.666	1048.381	793.584
48.242	13.682	1047.189	792.691
49.257	13.759	1046.085	792.153
50.271	13.726	1045.032	791.129
51.286	13.706	1044.321	790.423
52.301	13.801	1043.069	789.859
53.315	13.847	1042.343	789.458
54.330	13.744	1041.804	788.488
55.344	13.725	1040.571	787.398
56.359	13.687	1039.663	786.458
57.374	13.681	1039.061	785.908
58.388	13.758	1037.768	785.224
59.403	13.630	1037.338	784.223
60.417	13.725	1036.101	783.666
61.432	13.692	1035.571	783.039
62.447	13.692	1034.989	782.533
63.461	13.594	1034.213	781.416
64.476	13.760	1032.844	781.091
65.490	13.641	1031.983	779.810
66.505	13.642	1031.178	779.141
67.520	13.650	1030.766	778.796
68.534	13.626	1030.048	778.070
69.549	13.590	1029.117	777.131
70.563	13.646	1028.558	776.903
71.578	13.612	1027.891	776.172
72.593	13.664	1026.857	775.567
73.607	13.581	1025.903	774.388
74.622	13.594	1024.729	773.494
75.636	13.480	1023.890	772.261
76.651	13.675	1022.845	772.313
77.666	13.507	1022.301	771.050
78.680	13.583	1021.348	770.616
79.695	13.657	1021.123	770.722
80.709	13.662	1020.054	769.873
81.724	13.713	1019.724	769.790
82.739	13.624	1019.184	768.901
83.753	13.685	1018.232	768.399
84.768	13.753	1017.162	767.840
85.782	13.796	1016.693	767.617
86.797	13.870	1015.836	767.243
87.812	13.902	1014.697	766.464
88.826	13.745	1014.563	765.569
89.841	13.761	1013.405	764.702
90.855	13.846	1012.508	764.350
91.870	13.784	1011.921	763.554
92.884	13.859	1010.746	762.941
93.899	13.893	1010.518	762.857
94.914	13.853	1009.319	761.705
95.928	13.863	1008.612	761.147
96.943	13.971	1008.048	761.150
97.957	13.954	1006.722	760.005
98.972	13.975	1006.288	759.702
99.987	13.861	1005.588	758.589
101.001	13.868	1005.009	758.117
102.016	13.862	1004.177	757.393
103.030	13.802	1003.307	756.397
104.045	13.772	1002.119	755.299
105.060	13.863	1001.157	754.920
106.074	13.830	1000.195	753.977
107.089	13.843	999.132	753.167
108.103	13.780	998.562	752.386
109.118	13.735	997.660	751.438
110.133	13.771	997.136	751.137
111.147	13.772	996.249	750.407
112.162	13.727	995.247	749.384
113.176	13.790	993.908	748.596
114.191	13.848	993.438	748.437
115.206	13.799	992.697	747.589
116.220	13.749	991.723	746.566
117.235	13.802	990.686	745.956
118.249	13.779	989.612	744.980
119.264	13.877	988.835	744.767
120.279	13.778	988.292	743.848
121.293	13.779	987.367	743.091
122.308	13.789	986.279	742.253
123.322	13.690	985.862	741.427
124.337	13.786	984.412	740.700
125.352	13.911	983.150	740.243
126.366	13.634	982.577	738.516
127.381	13.792	981.441	738.298
128.395	13.826	980.422	737.616
129.410	13.782	979.566	736.712
130.424	13.726	978.651	735.709
131.439	13.769	977.488	734.961
132.454	13.872	976.863	734.884
133.468	13.742	976.022	733.607
134.483	13.766	975.614	733.346
135.497	13.851	974.808	733.047
136.512	13.802	973.924	732.105
137.527	13.820	972.862	731.321
138.541	13.727	972.305	730.426
139.556	13.809	971.619	730.205
140.570	13.852	970.747	729.677
141.585	13.835	969.840	728.855
142.600	13.889	969.048	728.434
143.614	13.889	968.048	727.618
144.629	13.933	967.479	727.318
145.643	13.910	966.996	726.788
146.658	14.003	965.774	726.213
147.673	13.934	965.279	725.475
148.687	13.954	963.892	724.454
149.702	13.848	962.898	723.182
150.716	13.876	962.538	722.969
151.731	13.937	961.570	722.444
152.746	13.931	960.408	721.483
153.760	13.836	960.046	720.735
154.775	13.886	959.142	720.207
155.789	13.908	958.678	719.890
156.804	14.033	957.739	719.662
157.819	14.078	956.940	719.194
158.833	14.044	956.324	718.522
159.848	14.008	955.735	717.860
160.862	14.042	954.882	717.300
161.877	14.038	954.339	716.813
162.892	14.004	953.436	715.926
163.906	13.987	952.292	714.929
164.921	14.044	951.320	714.379
165.935	13.999	950.407	713.437
166.950	14.040	949.549	712.908
167.964	14.072	948.465	712.169
168.979	14.044	947.760	711.455
169.994	14.169	946.309	710.839
171.008	14.140	945.902	710.346
172.023	14.165	944.966	709.686
173.037	14.185	944.514	709.369
174.052	14.165	943.769	708.660
175.067	14.162	943.148	708.121
176.081	14.175	942.254	707.442
177.096	14.103	941.320	706.372
178.110	14.123	940.718	705.943
179.125	14.103	939.922	705.196
180.140	14.110	939.114	704.559
181.154	14.335	938.203	704.764
182.169	14.124	937.813	703.517
183.183	14.284	937.109	703.603
184.198	14.301	936.247	702.966
185.213	14.251	935.820	702.373
186.227	14.288	935.272	702.052
187.242	14.215	934.573	701.161
188.256	14.407	933.636	701.203
189.271	14.345	933.132	700.500
190.286	14.486	932.250	700.369
191.300	14.405	931.206	699.181
192.315	14.260	930.908	698.290
193.329	14.203	930.225	697.478
194.344	14.173	929.407	696.677
195.359	14.169	928.922	696.233
196.373	14.392	928.013	696.423
197.388	14.330	927.527	695.740
198.402	14.440	927.084	695.802
199.417	14.341	927.102	695.343
200.432	14.608	925.773	695.395
201.446	14.480	925.740	694.777
202.461	14.555	925.167	694.598
203.475	14.707	924.491	694.661
204.490	14.542	924.522	693.934
205.504	14.510	923.195	692.746
206.519	14.536	922.781	692.481
207.534	14.534	921.850	691.712
208.548	14.601	921.064	691.340
209.563	14.705	920.014	690.924
210.577	14.490	919.994	689.955
211.592	14.753	918.766	690.060
212.607	14.619	918.521	689.263
213.621	14.659	918.080	689.037
214.636	14.574	917.565	688.235
215.650	14.779	916.660	688.344
216.665	14.728	915.859	687.469
217.680	14.646	916.005	687.180
218.694	14.886	914.813	687.213
219.709	14.656	915.083	686.409
220.723	14.857	913.639	686.088
221.738	14.884	912.859	685.553
222.753	14.762	912.522	684.742
223.767	14.804	911.590	684.154
224.782	14.895	910.460	683.614
225.796	14.926	909.733	683.137
226.811	14.854	909.138	682.337
227.826	15.002	908.448	682.361
228.840	14.957	907.587	681.469
229.855	14.880	907.170	680.782
230.869	14.902	906.558	680.351
231.884	14.837	905.534	679.261
232.899	14.852	904.955	678.828
233.913	14.885	904.248	678.371
234.928	14.910	903.626	677.947
235.942	14.886	903.212	677.478
236.957	14.859	902.140	676.506
237.972	14.897	901.527	676.138
238.986	14.990	901.122	676.150
240.001	14.936	900.646	675.515
241.015	14.840	899.672	674.336
242.030	15.110	898.964	674.834
243.045	15.023	898.351	673.965
244.059	14.931	897.926	673.218
245.074	15.073	897.029	673.055
246.088	15.069	896.316	672.446
247.103	14.909	896.191	671.647
248.117	15.192	895.521	672.222
249.132	15.270	894.823	671.953
250.147	15.159	894.433	671.157
251.161	15.259	893.184	670.557
252.176	15.327	892.804	670.486
253.190	15.381	892.085	670.101
254.205	15.302	891.831	669.537
255.220	15.417	891.128	669.409
256.234	15.514	890.185	669.026
257.249	15.406	889.747	668.209
258.263	15.511	889.300	668.230
259.278	15.267	888.836	666.855
260.293	15.359	888.015	666.546
261.307	15.445	887.691	666.582
262.322	15.381	886.995	665.747
263.336	15.599	886.279	666.017
264.351	15.521	885.828	665.310
265.366	15.528	885.181	664.792
266.380	15.660	884.061	664.415
267.395	15.703	883.598	664.178
268.409	15.664	883.084	663.577
269.424	15.746	882.007	663.035
270.439	15.582	881.540	661.977
271.453	15.669	880.672	661.611
272.468	15.546	880.487	660.928
273.482	15.794	879.369	661.003
274.497	15.670	878.842	660.064
275.512	15.590	878.495	659.431
276.526	15.705	876.977	658.681
277.541	15.587	876.711	657.964
278.555	15.663	876.247	657.853
279.570	15.872	875.247	657.860
280.585	15.813	875.168	657.513
281.599	15.891	874.323	657.124
282.614	15.734	873.977	656.196
283.628	15.692	873.351	655.501
284.643	15.802	872.845	655.495
285.657	15.847	872.119	655.066
286.672	15.811	871.523	654.419
287.687	15.978	871.024	654.637
288.701	15.841	870.718	653.816
289.716	15.947	869.747	653.438
290.730	15.687	869.504	652.191
291.745	15.827	868.726	652.091
292.760	15.914	867.961	651.799
293.774	15.992	866.986	651.311
294.789	15.965	867.000	651.159
295.803	16.047	866.505	651.044
296.818	16.163	865.531	650.705
297.833	15.962	864.995	649.469
298.847	15.914	863.979	648.463
299.862	16.045	863.072	648.229
300.876	16.146	862.859	648.398
301.891	16.083	862.082	647.515
302.906	16.086	861.364	646.933
303.920	16.319	860.406	647.046
304.935	16.109	859.957	645.850
305.949	16.226	859.743	646.077
306.964	16.172	858.840	645.136
307.979	16.140	858.261	644.523
308.993	16.150	858.431	644.629
310.008	16.271	857.315	644.198
311.022	16.208	857.307	643.894
312.037	16.446	856.024	643.781
313.052	16.294	855.769	642.951
314.066	16.471	854.657	642.734
315.081	16.359	854.533	642.156
316.095	16.296	853.595	641.156
317.110	16.248	853.484	640.835
318.125	16.214	853.038	640.314
319.139	16.323	852.209	640.048
320.154	16.303	851.830	639.631
321.168	16.279	851.361	639.130
322.183	16.268	850.827	638.632
323.197	16.403	850.449	638.802
324.212	16.349	849.865	638.102
325.227	16.315	849.049	637.304
326.241	16.372	848.478	637.036
327.256	16.351	847.656	636.281
328.270	16.320	847.203	635.769
329.285	16.311	846.811	635.387
330.300	16.503	846.092	635.510
331.314	16.416	845.718	634.849
332.329	16.448	844.789	634.215
333.343	16.407	844.475	633.767
334.358	16.439	843.898	633.398
335.373	16.476	843.339	633.064
336.387	16.639	842.619	633.077
337.402	16.449	842.379	632.127
338.416	16.557	841.498	631.816
339.431	16.635	840.772	631.504
340.446	16.638	840.396	631.176
341.460	16.684	839.887	630.909
342.475	16.660	839.506	630.481
343.489	16.722	838.857	630.168
344.504	16.750	838.218	629.736
345.519	16.822	837.609	629.488
346.533	16.945	836.974	629.415
347.548	16.756	836.960	628.647
348.562	16.830	835.989	628.137
349.577	16.838	835.533	627.767
350.592	16.700	835.468	627.152
351.606	16.767	834.682	626.753
352.621	16.799	834.288	626.518
353.635	16.669	834.118	625.856
354.650	16.780	833.413	625.682
355.665	16.802	832.938	625.352
356.679	16.861	832.268	625.011
357.694	16.940	831.470	624.646
358.708	16.871	831.201	624.137
359.723	16.899	830.590	623.724
360.738	16.947	830.014	623.415
361.752	16.787	829.844	622.643
362.767	16.874	829.161	622.394
363.781	16.827	829.179	622.180
364.796	17.081	828.040	622.203
365.810	17.041	827.943	621.926
366.825	17.005	827.566	621.457
367.840	17.111	827.152	621.479
368.854	16.941	826.918	620.625
369.869	17.112	825.876	620.413
370.883	17.055	825.489	619.860
371.898	17.104	825.065	619.668
372.913	17.199	824.473	619.513
373.927	17.198	823.735	618.900
374.942	17.195	823.302	618.508
375.956	17.239	822.507	618.018
376.971	17.213	821.935	617.438
377.986	17.371	821.304	617.485
379.000	17.327	821.330	617.288
380.015	17.432	820.354	616.881
381.029	17.494	819.880	616.694
382.044	17.487	818.987	615.944
383.059	17.425	818.484	615.288
384.073	17.348	818.379	614.873
385.088	17.350	817.590	614.233
386.102	17.333	817.206	613.830
387.117	17.457	816.389	613.610
388.132	17.338	816.302	613.059
389.146	17.419	815.887	612.986
390.161	17.412	815.633	612.715
391.175	17.477	814.966	612.395
392.190	17.625	814.522	612.538
393.205	17.593	814.006	611.981
394.219	17.559	813.768	611.626
395.234	17.555	813.109	611.063
396.248	17.523	812.512	610.444
397.263	17.471	811.738	609.623
398.278	17.642	811.246	609.812
399.292	17.598	811.074	609.470
400.307	17.583	811.035	609.333
401.321	17.438	810.579	608.420
402.336	17.589	810.090	608.537
403.350	17.519	809.662	607.911
404.365	17.505	809.572	607.741
405.380	17.590	808.810	607.418
406.394	17.624	808.409	607.184
407.409	17.664	807.837	606.842
408.423	17.720	807.454	606.702
409.438	17.660	806.985	606.083
410.453	17.824	806.248	606.058
411.467	17.877	806.016	606.019
412.482	17.859	805.367	605.412
413.496	17.833	804.930	604.938
414.511	17.858	804.536	604.677
415.526	17.886	804.575	604.753
416.540	17.830	804.151	604.181
417.555	17.779	803.609	603.542
418.569	17.932	802.863	603.468
419.584	17.968	802.122	602.983
420.599	18.044	801.665	602.857
421.613	112.515	1294.421	1477.553
422.628	97.023	1366.228	1477.633
