DTS Sentinel unit serial number:	SN413079Multiplexer serial number:	ORYXHardware model number:	OX4-SRSoftware version number:	ORYX F/W v4.00 Oryx Data Collector v3.7.2.0data status	okinstallation	princeton_trtdifferential loss correction	single-endedforward channel	channel 3reverse channel	N/Adate	2019/09/19time	12:16:34forward acquisition time	60.00reverse acquisition time	0.00gamma	496.2192k internal	0.2338k external	0.2338temperature offset calibration	0.9988default loss term (dB/km)	0.3790temperature slope calibration	1.0000multiplexer offset coefficient	1.0000multiplexer slope coefficient	1.0000fibre end	0.00T internal ref (°C)	26.50T ext. ref 1 (°C)	0.85T ext. ref 2 (°C)	23.40length (m)	temperature (°C)	Stokes	anti-Stokes-747.200	146.479	-0.053	-0.071
-746.185	487.189	0.105	0.241
-745.171	587.270	0.124	0.307
-744.156	-200.000	-0.033	0.175
-743.142	-62.405	0.362	-0.151
-742.127	98.406	-0.217	0.251
-741.112	-200.000	0.035	-0.187
-740.098	800.000	0.085	0.278
-739.083	-200.000	0.025	0.357
-738.069	145.072	-0.038	0.051
-737.054	93.737	-0.091	0.104
-736.039	353.284	-0.070	-0.138
-735.025	204.113	-0.147	0.228
-734.010	9.373	-0.107	-0.081
-732.996	-78.051	-0.398	-0.137
-731.981	-200.000	0.023	-0.129
-730.966	202.621	0.116	-0.179
-729.952	69.242	-0.144	-0.148
-728.937	-118.080	0.201	-0.036
-727.923	27.135	-0.249	0.210
-726.908	168.608	0.170	-0.243
-725.894	800.000	0.088	-0.293
-724.879	-200.000	0.052	-0.283
-723.864	-158.118	0.229	0.013
-722.850	0.633	0.106	0.076
-721.835	91.536	0.080	-0.090
-720.821	-200.000	0.023	0.215
-719.806	-52.949	-0.269	-0.124
-718.791	-55.830	-0.173	-0.078
-717.777	800.000	-0.075	-0.232
-716.762	-200.000	0.069	-0.337
-715.748	-200.000	-0.039	-0.241
-714.733	-39.625	0.243	-0.127
-713.718	296.810	-0.078	0.144
-712.704	-85.170	-0.226	-0.071
-711.689	-128.695	-0.228	-0.032
-710.675	-30.704	-0.154	-0.087
-709.660	-200.000	0.036	-0.508
-708.645	51.581	-0.044	-0.042
-707.631	-87.160	0.076	-0.023
-706.616	-200.000	-0.007	0.070
-705.602	-48.112	0.104	0.051
-704.587	728.406	0.125	0.335
-703.572	-200.000	0.009	0.045
-702.558	733.156	0.027	0.073
-701.543	800.000	0.062	-0.175
-700.529	106.237	-0.133	0.157
-699.514	800.000	-0.044	-0.131
-698.499	-143.507	-0.314	-0.030
-697.485	-47.380	0.102	0.050
-696.470	206.337	0.168	-0.262
-695.456	-63.855	-0.096	-0.039
-694.441	-200.000	0.023	-0.250
-693.426	12.793	-0.028	0.022
-692.412	-200.000	0.080	0.361
-691.397	432.715	0.087	-0.189
-690.383	800.000	0.048	0.143
-689.368	84.575	0.151	0.166
-688.354	304.446	-0.045	-0.084
-687.339	-200.000	-0.029	-0.250
-686.324	-84.302	-0.265	-0.084
-685.310	-200.000	0.008	-0.392
-684.295	-200.000	-0.007	-0.140
-683.281	-133.547	-0.352	0.044
-682.266	-100.711	-0.059	-0.015
-681.251	-63.014	-0.155	-0.064
-680.237	124.054	-0.097	-0.122
-679.222	-12.495	-0.309	-0.202
-678.208	-200.000	-0.045	-0.425
-677.193	-73.891	-0.266	-0.097
-676.178	134.457	-0.190	-0.247
-675.164	147.516	-0.176	-0.237
-674.149	-80.347	-0.197	0.066
-673.135	-117.768	-0.096	0.017
-672.120	-132.247	-0.032	0.004
-671.105	-15.108	-0.160	-0.103
-670.091	-83.840	0.186	-0.059
-669.076	55.448	-0.143	-0.138
-668.062	-200.000	0.082	0.369
-667.047	-135.846	-0.120	-0.014
-666.032	-144.469	0.154	0.014
-665.018	-23.573	0.339	0.204
-664.003	684.888	0.062	-0.163
-662.989	-200.000	-0.045	-0.463
-661.974	89.778	0.073	0.081
-660.959	154.625	-0.134	-0.184
-659.945	800.000	-0.055	0.181
-658.930	-184.510	0.158	-0.003
-657.916	-36.563	0.137	-0.074
-656.901	-41.601	0.312	-0.161
-655.886	-79.598	-0.204	-0.069
-654.872	-56.877	0.105	-0.046
-653.857	10.621	-0.207	0.158
-652.843	-154.437	-0.278	0.019
-651.828	-144.081	-0.057	0.005
-650.814	362.896	-0.096	0.192
-649.799	-15.240	0.251	0.160
-648.784	121.390	0.116	-0.145
-647.770	70.294	-0.154	-0.159
-646.755	292.874	-0.095	-0.173
-645.741	53.686	0.244	-0.234
-644.726	231.791	0.183	-0.300
-643.711	84.712	0.107	0.117
-642.697	-25.315	-0.290	0.171
-641.682	-120.959	0.189	-0.032
-640.668	-16.746	0.190	0.120
-639.653	-43.182	0.322	0.163
-638.638	-1.723	-0.169	0.119
-637.624	-58.061	0.282	-0.123
-636.609	-63.604	-0.126	0.052
-635.595	234.604	0.236	-0.388
-634.580	-109.918	0.191	0.040
-633.565	90.658	-0.067	-0.075
-632.551	-200.000	0.014	-0.148
-631.536	182.210	-0.171	-0.251
-630.522	-179.283	-0.169	-0.004
-629.507	414.278	-0.170	-0.361
-628.492	761.348	-0.057	-0.154
-627.478	54.989	-0.244	-0.235
-626.463	-117.889	-0.328	-0.059
-625.449	501.074	-0.065	0.151
-624.434	-63.814	0.253	-0.103
-623.419	-200.000	-0.006	0.083
-622.405	-136.974	0.173	-0.020
-621.390	77.059	0.025	0.026
-620.376	142.124	-0.077	-0.101
-619.361	800.000	-0.058	0.177
-618.346	-78.288	-0.274	0.094
-617.332	11.073	-0.186	0.142
-616.317	115.175	0.122	0.148
-615.303	-200.000	-0.066	0.583
-614.288	318.880	0.137	0.260
-613.273	800.000	0.066	-0.280
-612.259	69.465	0.093	-0.095
-611.244	-200.000	0.033	0.339
-610.230	57.002	-0.266	-0.258
-609.215	303.404	0.095	-0.176
-608.201	-200.000	0.010	0.144
-607.186	-100.427	-0.109	-0.027
-606.171	800.000	-0.040	0.163
-605.157	96.354	0.023	-0.027
-604.142	-200.000	0.017	0.198
-603.128	217.841	0.172	-0.273
-602.113	-84.445	-0.210	-0.066
-601.098	75.935	-0.204	0.215
-600.084	180.504	-0.089	-0.131
-599.069	481.829	0.069	-0.156
-598.055	-30.228	0.038	0.022
-597.040	-200.000	0.019	0.262
-596.025	-85.367	-0.255	0.079
-595.011	-105.909	0.158	-0.035
-593.996	31.136	0.131	0.112
-592.982	8.951	-0.263	0.198
-591.967	82.235	-0.142	-0.154
-590.952	52.713	0.082	0.078
-589.938	-79.778	0.373	0.125
-588.923	-11.259	-0.257	-0.169
-587.909	100.168	0.176	-0.204
-586.894	-145.922	0.297	-0.026
-585.879	-149.795	0.335	0.026
-584.865	-54.621	0.100	-0.045
-583.850	-200.000	0.079	-0.409
-582.836	-67.359	-0.252	-0.099
-581.821	412.396	0.102	-0.216
-580.806	-146.595	-0.094	-0.008
-579.792	-200.000	-0.051	0.402
-578.777	-16.841	0.190	0.120
-577.763	-158.749	-0.324	0.018
-576.748	-123.816	0.211	0.033
-575.733	-167.720	0.145	0.006
-574.719	431.355	0.176	0.381
-573.704	175.242	0.049	0.070
-572.690	498.908	0.113	0.259
-571.675	46.199	-0.167	0.154
-570.661	138.207	-0.070	0.092
-569.646	739.354	-0.036	0.095
-568.631	-78.031	-0.164	0.056
-567.617	-200.000	0.029	-0.189
-566.602	800.000	0.043	-0.127
-565.588	800.000	-0.059	-0.167
-564.573	-200.000	0.015	0.187
-563.558	-48.989	-0.208	-0.099
-562.544	82.058	-0.149	-0.160
-561.529	-142.503	-0.271	0.027
-560.515	-41.465	0.160	-0.082
-559.500	-200.000	-0.001	0.047
-558.485	375.660	0.068	-0.139
-557.471	-200.000	0.008	-0.061
-556.456	464.136	0.024	0.053
-555.442	8.759	0.227	0.170
-554.427	-117.213	0.066	-0.012
-553.412	446.887	-0.172	-0.378
-552.398	745.912	-0.090	0.241
-551.383	800.000	-0.065	0.231
-550.369	-118.984	-0.084	-0.015
-549.354	7.007	-0.188	-0.140
-548.339	-91.893	-0.229	0.065
-547.325	46.639	0.179	0.165
-546.310	-150.931	0.148	-0.011
-545.296	225.542	-0.070	-0.113
-544.281	-200.000	-0.024	0.253
-543.266	89.760	0.284	-0.316
-542.252	67.106	0.094	-0.095
-541.237	-200.000	-0.011	0.164
-540.223	800.000	0.090	-0.272
-539.208	-83.206	0.019	-0.006
-538.193	-200.000	-0.029	-0.246
-537.179	96.805	0.205	-0.234
-536.164	82.804	-0.070	0.076
-535.150	195.553	-0.158	-0.239
-534.135	44.286	0.229	0.209
-533.121	13.533	-0.316	-0.244
-532.106	96.192	-0.130	-0.148
-531.091	-43.775	-0.171	0.086
-530.077	55.138	-0.140	0.134
-529.062	-42.328	-0.251	-0.127
-528.048	-200.000	-0.018	-0.080
-527.033	159.310	-0.077	-0.106
-526.018	110.567	-0.127	0.152
-525.004	800.000	0.055	-0.163
-523.989	-157.122	0.507	-0.031
-522.975	442.472	-0.080	0.173
-521.960	-150.383	0.349	0.027
-520.945	72.089	-0.452	-0.467
-519.931	-200.000	0.059	-0.270
-518.916	30.611	-0.120	0.102
-517.902	131.611	0.129	0.165
-516.887	-153.499	-0.191	0.013
-515.872	-116.300	-0.124	0.023
-514.858	166.447	-0.163	-0.230
-513.843	117.982	-0.183	0.224
-512.829	-24.010	0.423	0.251
-511.814	10.780	0.074	-0.056
-510.799	800.000	-0.056	0.176
-509.785	800.000	-0.051	-0.159
-508.770	301.518	-0.101	0.185
-507.756	-74.811	-0.149	-0.053
-506.741	300.857	-0.076	-0.139
-505.726	-200.000	0.042	0.191
-504.712	71.465	-0.136	-0.141
-503.697	-56.819	-0.144	-0.063
-502.683	266.349	0.006	-0.011
-501.668	205.505	-0.145	0.224
-500.653	800.000	-0.030	-0.115
-499.639	163.103	-0.192	0.269
-498.624	0.034	-0.244	0.173
-497.610	83.766	-0.183	0.198
-496.595	307.757	0.112	-0.207
-495.581	-101.695	-0.471	0.114
-494.566	2.355	0.248	0.178
-493.551	-200.000	-0.029	-0.211
-492.537	-8.712	0.112	-0.074
-491.522	-175.436	0.273	0.007
-490.508	20.952	-0.170	-0.137
-489.493	-200.000	-0.035	0.205
-488.478	-200.000	-0.021	0.211
-487.464	-200.000	-0.032	-0.373
-486.449	265.910	-0.169	0.293
-485.435	217.946	-0.067	-0.106
-484.420	252.267	0.074	-0.126
-483.405	-64.519	0.269	0.109
-482.391	-200.000	0.018	-0.086
-481.376	-3.790	0.131	0.090
-480.362	800.000	0.027	-0.117
-479.347	-120.321	-0.075	-0.013
-478.332	-64.269	0.137	0.055
-477.318	-50.764	-0.213	0.099
-476.303	117.925	-0.104	-0.127
-475.289	-64.374	-0.279	0.113
-474.274	800.000	-0.064	-0.215
-473.259	230.588	-0.083	0.134
-472.245	-200.000	0.031	-0.200
-471.230	184.509	-0.062	-0.092
-470.216	-116.839	0.297	0.054
-469.201	136.627	-0.189	-0.244
-468.186	392.424	-0.058	0.120
-467.172	49.510	0.139	-0.130
-466.157	36.296	0.412	-0.360
-465.143	800.000	-0.031	0.120
-464.128	-192.104	-0.260	0.002
-463.113	-4.692	-0.152	0.104
-462.099	-89.076	0.337	0.099
-461.084	-140.075	-0.097	0.010
-460.070	24.452	0.099	0.081
-459.055	49.896	0.212	-0.198
-458.040	-200.000	0.050	0.306
-457.026	136.072	-0.187	-0.241
-456.011	21.101	-0.250	0.201
-454.997	-69.553	-0.077	-0.029
-453.982	288.091	0.147	0.265
-452.968	-45.192	-0.054	-0.027
-451.953	81.650	-0.199	-0.214
-450.938	123.469	0.130	-0.162
-449.924	429.922	-0.047	-0.101
-448.909	1.190	-0.292	0.208
-447.895	-28.548	-0.185	0.106
-446.880	-80.777	-0.547	-0.180
-445.865	-200.000	-0.012	-0.168
-444.851	98.441	-0.127	0.146
-443.836	-200.000	-0.042	0.268
-442.822	-83.236	0.183	-0.058
-441.807	-66.893	-0.288	0.113
-440.792	-141.284	0.304	0.031
-439.778	35.672	-0.115	-0.100
-438.763	183.404	0.168	-0.247
-437.749	-148.448	-0.155	0.013
-436.734	399.528	-0.241	0.502
-435.719	43.135	-0.077	0.069
-434.705	65.111	0.017	-0.017
-433.690	-120.466	-0.176	0.030
-432.676	-134.177	-0.206	0.025
-431.661	126.132	-0.002	0.003
-430.646	28.559	0.126	-0.106
-429.632	-166.146	-0.084	0.004
-428.617	20.427	-0.184	-0.148
-427.603	94.876	-0.218	0.246
-426.588	147.828	-0.064	0.086
-425.573	189.007	-0.051	-0.076
-424.559	-200.000	-0.019	-0.081
-423.544	-31.478	-0.053	0.029
-422.530	-62.014	-0.439	-0.182
-421.515	-132.540	0.018	-0.002
-420.500	338.269	0.032	-0.062
-419.486	-17.577	-0.190	0.118
-418.471	-200.000	0.021	-0.135
-417.457	800.000	-0.152	-0.458
-416.442	443.517	0.087	-0.188
-415.428	-47.419	0.412	0.198
-414.413	-50.203	0.593	-0.278
-413.398	-69.630	-0.130	-0.049
-412.384	50.968	0.162	0.152
-411.369	-200.000	-0.008	0.225
-410.355	-200.000	0.079	0.371
-409.340	131.194	-0.275	0.350
-408.325	800.000	0.068	-0.243
-407.311	163.764	-0.190	0.265
-406.296	84.911	-0.162	0.176
-405.282	-15.380	-0.207	0.131
-404.267	33.043	-0.128	0.109
-403.252	-141.465	0.090	0.009
-402.238	-56.372	-0.110	-0.048
-401.223	-200.000	-0.035	0.374
-400.209	-129.187	0.183	0.025
-399.194	147.559	-0.123	-0.164
-398.179	-83.533	-0.203	-0.064
-397.165	-98.598	0.219	0.055
-396.150	674.991	-0.050	-0.129
-395.136	524.439	0.138	-0.321
-394.121	55.533	-0.139	0.133
-393.106	79.094	-0.070	-0.074
-392.092	-200.000	-0.028	-0.275
-391.077	-108.487	0.193	-0.041
-390.063	-127.143	-0.538	-0.078
-389.048	192.343	0.274	0.409
-388.033	479.549	-0.197	0.441
-387.019	518.682	-0.116	0.268
-386.004	-200.000	-0.034	0.208
-384.990	174.205	0.225	-0.322
-383.975	366.160	-0.011	-0.021
-382.960	-51.814	-0.226	-0.104
-381.946	504.661	-0.108	-0.247
-380.931	146.037	0.153	-0.203
-379.917	-200.000	0.045	-0.256
-378.902	-6.226	-0.120	-0.081
-377.888	129.041	-0.094	-0.118
-376.873	207.435	-0.127	0.195
-375.858	-48.586	-0.182	-0.087
-374.844	199.929	0.088	0.133
-373.829	421.647	-0.031	-0.066
-372.815	-67.433	0.207	0.080
-371.800	800.000	0.038	-0.113
-370.785	93.982	0.050	0.056
-369.771	-6.746	0.187	0.125
-368.756	-200.000	-0.049	-0.323
-367.742	-25.817	-0.118	0.069
-366.727	229.783	-0.203	0.328
-365.712	75.484	-0.139	-0.145
-364.698	104.993	0.202	0.236
-363.683	160.994	0.136	0.187
-362.669	-165.028	-0.308	-0.014
-361.654	800.000	-0.082	0.271
-360.639	386.472	0.020	0.041
-359.625	268.805	0.075	0.130
-358.610	-200.000	0.036	0.265
-357.596	1.676	-0.118	-0.084
-356.581	47.409	-0.095	-0.087
-355.566	-169.208	0.385	0.014
-354.552	295.460	0.049	0.089
-353.537	-59.138	0.187	0.080
-352.523	34.879	0.131	0.113
-351.508	261.667	-0.102	0.175
-350.493	-45.303	-0.397	0.195
-349.479	-27.046	-0.496	0.286
-348.464	-33.955	0.067	0.036
-347.450	-200.000	0.026	-0.127
-346.435	-68.505	0.195	0.075
-345.420	-200.000	0.039	0.240
-344.406	-133.072	0.045	0.006
-343.391	68.826	-0.166	-0.169
-342.377	455.542	-0.112	-0.245
-341.362	3.969	0.109	-0.079
-340.348	800.000	-0.052	-0.208
-339.333	286.331	0.058	-0.103
-338.318	-94.897	0.338	0.090
-337.304	-133.938	0.065	-0.008
-336.289	-59.250	0.198	0.084
-335.275	219.225	-0.224	0.354
-334.260	-54.475	0.157	0.070
-333.245	223.667	0.216	-0.344
-332.231	60.129	-0.038	0.037
-331.216	368.855	0.128	-0.255
-330.202	-200.000	0.027	0.178
-329.187	800.000	0.045	-0.160
-328.172	-200.000	-0.002	-0.294
-327.158	800.000	-0.084	0.238
-326.143	-12.894	-0.288	0.185
-325.129	-200.000	0.007	-0.253
-324.114	-32.921	-0.089	0.049
-323.099	93.725	-0.270	0.301
-322.085	7.758	0.344	-0.255
-321.070	-200.000	0.031	-0.273
-320.056	87.331	0.157	0.171
-319.041	800.000	0.094	-0.311
-318.026	-200.000	-0.018	-0.364
-317.012	-57.454	0.318	-0.138
-315.997	-66.160	0.047	-0.018
-314.983	22.422	-0.145	0.117
-313.968	-200.000	-0.006	-0.302
-312.953	-74.328	0.076	0.027
-311.939	319.151	0.224	-0.418
-310.924	319.551	0.063	-0.118
-309.910	-137.576	0.061	0.007
-308.895	800.000	0.048	0.136
-307.880	-23.967	0.167	0.098
-306.866	-200.000	0.008	0.048
-305.851	67.044	0.247	-0.248
-304.837	-135.538	0.238	0.028
-303.822	-200.000	0.006	-0.243
-302.807	336.619	-0.058	-0.111
-301.793	406.806	0.304	-0.633
-300.778	-15.512	0.109	0.069
-299.764	-83.976	-0.339	0.106
-298.749	597.072	0.096	-0.234
-297.735	249.041	-0.131	0.219
-296.720	-84.412	0.223	0.069
-295.705	-145.105	0.030	-0.003
-294.691	188.146	0.070	-0.104
-293.676	197.828	0.041	-0.062
-292.662	-200.000	-0.043	0.497
-291.647	100.321	0.173	0.198
-290.632	-118.071	-0.215	-0.038
-289.618	-200.000	0.001	0.218
-288.603	-81.137	-0.258	0.084
-287.589	5.295	-0.074	-0.054
-286.574	244.147	-0.037	-0.061
-285.559	-34.600	0.093	-0.050
-284.545	800.000	0.134	0.418
-283.530	-26.159	-0.182	0.105
-282.516	380.927	-0.147	0.297
-281.501	113.371	-0.042	0.051
-280.486	267.522	-0.091	0.157
-279.472	-121.395	0.199	0.033
-278.457	120.594	-0.120	-0.147
-277.443	800.000	0.042	-0.130
-276.428	-200.000	-0.008	0.124
-275.413	-51.251	-0.280	-0.129
-274.399	-64.793	0.191	-0.076
-273.384	-161.591	0.277	-0.014
-272.370	17.781	0.163	0.128
-271.355	-106.806	-0.046	-0.010
-270.340	-70.585	0.381	0.142
-269.326	-68.735	0.270	-0.103
-268.311	800.000	-0.104	-0.351
-267.297	-156.964	-0.126	-0.008
-266.282	106.966	0.020	-0.024
-265.267	-185.066	0.137	-0.002
-264.253	-139.276	0.297	0.031
-263.238	102.184	0.287	-0.330
-262.224	137.899	-0.248	-0.320
-261.209	234.447	0.014	-0.023
-260.195	-182.163	-0.120	-0.002
-259.180	264.354	-0.059	0.100
-258.165	-200.000	-0.068	-0.296
-257.151	-27.163	0.053	0.030
-256.136	111.827	0.046	0.054
-255.122	29.825	0.185	0.155
-254.107	-148.446	-0.235	0.019
-253.092	-135.841	0.044	-0.005
-252.078	800.000	0.051	0.211
-251.063	800.000	0.085	0.329
-250.049	-117.210	0.115	-0.021
-249.034	-96.319	0.084	-0.022
-248.019	-200.000	-0.057	-0.363
-247.005	-192.409	0.422	-0.004
-245.990	-7.369	0.129	0.086
-244.976	-109.801	-0.371	-0.077
-243.961	93.430	0.333	-0.371
-242.946	-15.292	-0.278	0.175
-241.932	-200.000	0.042	0.264
-240.917	-157.276	0.123	-0.007
-239.903	800.000	-0.060	0.248
-238.888	-156.587	0.157	0.010
-237.873	458.803	-0.074	0.162
-236.859	-101.093	-0.152	0.037
-235.844	-171.402	0.217	0.007
-234.830	-125.694	0.217	0.032
-233.815	-18.420	-0.152	-0.094
-232.800	-200.000	0.010	0.278
-231.786	800.000	0.117	-0.469
-230.771	-200.000	0.018	-0.145
-229.757	58.030	0.039	-0.038
-228.742	767.204	-0.072	0.193
-227.727	28.124	-0.237	0.197
-226.713	-34.020	0.155	-0.084
-225.698	376.727	-0.072	-0.145
-224.684	-91.716	0.138	0.039
-223.669	148.591	0.209	0.278
-222.655	98.908	0.191	-0.217
-221.640	-109.213	0.106	0.022
-220.625	-127.339	-0.302	0.043
-219.611	463.839	0.101	-0.223
-218.596	-200.000	0.005	-0.038
-217.582	129.589	-0.238	-0.300
-216.567	-200.000	-0.028	0.284
-215.552	29.936	0.260	0.218
-214.538	418.324	0.075	-0.158
-213.523	202.980	-0.094	0.142
-212.509	-200.000	0.075	0.335
-211.494	-79.344	-0.170	-0.057
-210.479	-87.940	0.330	0.097
-209.465	40.808	0.141	0.125
-208.450	-95.705	0.256	0.067
-207.436	-104.505	0.169	-0.038
-206.421	-148.730	-0.276	-0.022
-205.406	-156.358	-0.183	-0.011
-204.392	800.000	-0.126	0.408
-203.377	148.635	0.219	-0.291
-202.363	57.037	0.219	-0.210
-201.348	-44.955	0.142	0.070
-200.333	589.627	0.096	0.232
-199.319	-62.771	-0.111	-0.045
-198.304	27.774	-0.197	0.163
-197.290	13.909	-0.327	0.250
-196.275	137.807	0.116	0.149
-195.260	-5.624	-0.177	0.119
-194.246	-200.000	-0.080	0.000
-193.231	-56.548	0.343	0.149
-192.217	800.000	0.119	-0.401
-191.202	-106.303	0.099	0.022
-190.187	141.716	-0.101	0.131
-189.173	-94.478	0.380	-0.102
-188.158	800.000	0.018	-0.073
-187.144	800.000	-0.012	0.046
-186.129	242.462	0.217	0.356
-185.114	-113.182	-0.086	-0.017
-184.100	93.904	0.183	-0.204
-183.085	148.199	-0.206	-0.273
-182.071	365.512	-0.099	0.196
-181.056	-90.209	-0.242	0.069
-180.042	-200.000	-0.005	-0.135
-179.027	-105.247	0.309	0.069
-178.012	541.629	0.127	-0.297
-176.998	-55.109	-0.098	-0.043
-175.983	-40.550	-0.311	-0.158
-174.969	-133.955	-0.073	0.009
-173.954	-54.559	0.285	0.126
-172.939	-125.660	0.103	-0.015
-171.925	443.288	-0.198	-0.425
-170.910	156.688	0.118	0.160
-169.896	265.875	-0.093	0.160
-168.881	-22.792	0.277	0.164
-167.866	108.776	-0.086	-0.100
-166.852	-37.243	0.107	0.056
-165.837	-11.663	-0.064	-0.041
-164.823	-8.246	-0.103	0.068
-163.808	-200.000	-0.018	0.090
-162.793	188.616	0.157	-0.230
-161.779	179.524	0.077	0.111
-160.764	-164.795	0.323	0.014
-159.750	111.012	0.138	0.163
-158.735	379.151	-0.049	-0.099
-157.720	-80.134	-0.091	0.030
-156.706	800.000	-0.042	-0.152
-155.691	-200.000	-0.008	-0.102
-154.677	297.387	0.113	0.204
-153.662	-89.810	0.153	-0.044
-152.647	309.897	-0.114	-0.209
-151.633	-200.000	0.004	0.090
-150.618	411.638	0.096	0.200
-149.604	-200.000	0.015	-0.199
-148.589	18.701	-0.241	-0.189
-147.574	-115.386	0.180	-0.033
-146.560	-200.000	-0.010	-0.184
-145.545	800.000	0.071	-0.226
-144.531	183.157	0.041	-0.060
-143.516	800.000	-0.048	0.145
-142.502	800.000	0.058	0.193
-141.487	-200.000	0.001	-0.048
-140.472	317.851	-0.069	-0.127
-139.458	800.000	0.022	-0.075
-138.443	79.735	-0.122	0.128
-137.429	-178.633	0.347	0.008
-136.414	46.580	-0.128	-0.116
-135.399	201.149	-0.045	-0.068
-134.385	312.876	0.147	-0.270
-133.370	512.384	-0.135	-0.308
-132.356	215.812	-0.035	-0.055
-131.341	-198.846	-0.200	-0.001
-130.326	-200.000	-0.013	-0.415
-129.312	125.919	0.196	0.243
-128.297	48.906	-0.043	0.039
-127.283	-200.000	-0.015	-0.409
-126.268	-200.000	-0.043	0.561
-125.253	-200.000	0.003	0.013
-124.239	-183.877	-0.233	0.004
-123.224	-104.286	0.105	-0.024
-122.210	-26.000	0.197	0.113
-121.195	800.000	0.011	-0.034
-120.180	226.290	0.011	0.018
-119.166	102.601	-0.066	0.076
-118.151	800.000	-0.050	0.184
-117.137	-61.251	0.217	-0.090
-116.122	-200.000	0.044	-0.229
-115.107	711.424	-0.133	-0.344
-114.093	-113.073	-0.159	-0.031
-113.078	105.377	0.014	-0.016
-112.064	-158.386	-0.350	-0.020
-111.049	-31.716	-0.176	0.096
-110.034	380.163	-0.038	0.075
-109.020	-0.643	0.041	0.029
-108.005	68.551	0.049	0.049
-106.991	800.000	0.077	-0.249
-105.976	3.265	-0.098	0.070
-104.962	31.735	-0.187	-0.157
-103.947	454.777	0.081	0.176
-102.932	2.289	0.190	0.134
-101.918	-94.690	0.221	-0.059
-100.903	-99.565	0.393	0.097
-99.889	-200.000	0.008	0.280
-98.874	-72.458	0.035	-0.012
-97.859	-132.966	0.205	0.026
-96.845	96.768	0.240	0.269
-95.830	168.083	0.120	0.168
-94.816	-91.359	0.404	0.113
-93.801	273.587	-0.193	0.334
-92.786	121.866	0.215	0.262
-91.772	347.794	-0.090	-0.174
-90.757	80.340	-0.095	0.100
-89.743	-59.369	0.373	0.157
-88.728	20.514	-0.114	-0.090
-87.713	-71.432	-0.352	0.129
-86.699	-167.741	-0.392	-0.015
-85.684	-200.000	-0.053	-0.310
-84.670	-200.000	-0.017	-0.266
-83.655	-37.965	0.169	-0.088
-82.640	356.295	0.042	-0.081
-81.626	6.616	0.060	-0.044
-80.611	-36.967	-0.171	0.090
-79.597	800.000	0.022	0.077
-78.582	-200.000	0.004	-0.148
-77.567	800.000	-0.064	0.200
-76.553	145.284	-0.218	0.285
-75.538	665.467	0.006	0.015
-74.524	-35.423	0.185	-0.098
-73.509	-23.111	0.340	0.200
-72.494	-183.955	0.024	0.000
-71.480	8.281	0.244	0.179
-70.465	-110.515	0.425	0.086
-69.451	-30.430	0.179	0.099
-68.436	-84.486	-0.277	0.085
-67.422	800.000	-0.085	-0.286
-66.407	190.417	0.073	0.107
-65.392	118.394	0.100	-0.120
-64.378	-200.000	-0.035	-0.207
-63.363	800.000	0.034	-0.092
-62.349	-138.587	0.214	-0.023
-61.334	15.296	-1.353	-1.037
-60.319	26.740	0.504	0.413
-59.305	-200.000	0.000	-0.751
-58.290	183.396	0.864	1.246
-57.276	-200.000	0.190	1.663
-56.261	-200.000	112.716	607.669
-55.246	437.764	1518.644	3233.482
-54.232	143.374	2714.887	3529.373
-53.217	99.925	2210.580	2501.376
-52.203	37.171	1724.529	1491.115
-51.188	29.578	1536.422	1276.196
-50.173	27.316	1511.464	1240.020
-49.159	50.065	1569.681	1446.456
-48.144	48.633	1584.791	1450.379
-47.130	29.791	1540.945	1281.226
-46.115	26.762	1525.785	1247.757
-45.100	26.597	1521.958	1243.441
-44.086	26.511	1520.325	1241.467
-43.071	26.517	1518.403	1239.890
-42.057	26.491	1516.399	1238.027
-41.042	26.488	1515.164	1236.951
-40.027	26.529	1513.520	1235.838
-39.013	26.489	1511.876	1234.178
-37.998	26.415	1511.013	1232.917
-36.984	26.488	1510.277	1232.764
-35.969	26.514	1508.862	1231.736
-34.954	26.473	1507.100	1229.974
-33.940	26.495	1505.739	1228.959
-32.925	26.509	1504.155	1227.712
-31.911	26.493	1503.093	1226.694
-30.896	26.559	1501.776	1226.012
-29.881	26.604	1500.218	1224.996
-28.867	26.520	1499.171	1223.526
-27.852	26.413	1498.308	1222.054
-26.838	26.577	1496.307	1221.479
-25.823	26.522	1494.529	1219.608
-24.809	26.657	1492.735	1219.006
-23.794	26.593	1491.536	1217.548
-22.779	26.522	1490.290	1216.006
-21.765	26.475	1489.503	1214.994
-20.750	26.543	1488.006	1214.185
-19.736	26.514	1487.260	1213.328
-18.721	26.523	1486.215	1212.494
-17.706	26.455	1485.052	1211.037
-16.692	26.555	1483.604	1210.478
-15.677	26.519	1482.128	1208.989
-14.663	26.477	1481.749	1208.350
-13.648	26.516	1480.992	1207.947
-12.633	26.500	1480.161	1207.112
-11.619	26.560	1478.829	1206.375
-10.604	26.428	1478.330	1205.043
-9.590	26.452	1477.113	1204.162
-8.575	26.386	1476.861	1203.473
-7.560	26.510	1475.366	1203.030
-6.546	26.464	1474.520	1201.984
-5.531	26.515	1473.509	1201.452
-4.517	26.466	1472.815	1200.515
-3.502	26.421	1472.225	1199.689
-2.487	26.486	1470.767	1198.880
-1.473	26.426	1469.924	1197.748
-0.458	26.589	1468.244	1197.410
0.556	25.783	1459.061	1187.799
1.571	23.286	1434.792	1151.720
2.586	20.221	1371.233	1081.524
3.600	18.540	1285.990	1004.360
4.615	17.065	1240.349	960.288
5.629	14.662	1183.315	903.067
6.644	7.557	1098.646	802.580
7.659	1.789	1059.798	745.949
8.673	0.979	1054.317	738.076
9.688	0.812	1051.375	735.141
10.702	0.759	1050.179	733.983
11.717	0.850	1047.473	732.467
12.731	3.070	1049.064	744.267
13.746	9.939	1058.307	784.210
14.761	15.649	1065.472	817.288
15.775	17.247	1067.274	826.376
16.790	17.061	1066.027	824.434
17.804	16.140	1063.711	818.103
18.819	15.137	1062.450	812.200
19.834	14.781	1060.821	809.159
20.848	14.536	1059.290	806.734
21.863	14.298	1058.690	805.057
22.877	14.128	1057.600	803.336
23.892	13.809	1056.711	801.048
24.907	13.661	1056.057	799.769
25.921	13.652	1055.594	799.305
26.936	13.700	1055.045	799.047
27.950	13.800	1053.632	798.386
28.965	13.742	1053.595	798.011
29.980	13.919	1052.170	797.710
30.994	13.840	1051.302	796.605
32.009	14.031	1050.237	796.639
33.023	13.998	1049.811	796.087
34.038	13.973	1049.198	795.432
35.053	13.834	1048.633	794.270
36.067	13.859	1047.259	793.280
37.082	13.804	1046.810	792.603
38.096	13.703	1046.402	791.745
39.111	13.804	1045.233	791.269
40.126	13.798	1044.268	790.443
41.140	13.805	1042.836	789.320
42.155	13.678	1042.019	788.032
43.169	13.634	1041.701	787.511
44.184	13.724	1040.378	786.870
45.199	13.668	1039.455	785.836
46.213	13.797	1038.030	785.298
47.228	13.751	1037.278	784.440
48.242	13.734	1036.270	783.529
49.257	13.843	1035.259	783.210
50.271	13.847	1033.924	782.149
51.286	13.759	1033.842	781.606
52.301	13.784	1032.953	780.981
53.315	13.734	1032.224	780.126
54.330	13.817	1031.202	779.674
55.344	13.772	1030.155	778.602
56.359	13.815	1028.773	777.692
57.374	13.674	1028.117	776.467
58.388	13.773	1027.045	776.052
59.403	13.806	1026.839	775.982
60.417	13.729	1025.906	774.845
61.432	13.799	1025.049	774.460
62.447	13.733	1024.565	773.717
63.461	13.745	1023.436	772.852
64.476	13.622	1022.812	771.740
65.490	13.655	1022.062	771.259
66.505	13.610	1021.203	770.331
67.520	13.648	1020.725	770.079
68.534	13.709	1019.825	769.616
69.549	13.749	1018.838	768.990
70.563	13.650	1018.098	767.903
71.578	13.606	1017.799	767.407
72.593	13.664	1016.633	766.727
73.607	13.691	1015.465	765.901
74.622	13.679	1014.782	765.265
75.636	13.634	1013.990	764.393
76.651	13.702	1013.008	763.900
77.666	13.583	1012.324	762.768
78.680	13.664	1011.809	762.684
79.695	13.586	1011.133	761.751
80.709	13.640	1010.538	761.481
81.724	13.687	1009.901	761.151
82.739	13.750	1008.778	760.523
83.753	13.720	1008.036	759.760
84.768	13.789	1007.518	759.617
85.782	13.734	1006.597	758.604
86.797	13.819	1005.674	758.233
87.812	13.957	1004.919	758.223
88.826	13.918	1003.823	757.152
89.841	13.802	1002.769	755.763
90.855	13.822	1002.248	755.395
91.870	13.817	1001.850	755.004
92.884	13.855	1000.931	754.416
93.899	13.833	1000.395	753.849
94.914	13.968	998.894	753.261
95.928	14.128	998.455	753.587
96.943	13.971	997.929	752.413
97.957	13.897	997.130	751.410
98.972	13.871	996.305	750.604
99.987	13.762	995.933	749.767
101.001	13.978	994.755	749.786
102.016	13.937	994.362	749.238
103.030	13.997	992.973	748.397
104.045	13.863	992.070	747.049
105.060	13.891	991.254	746.491
106.074	13.823	990.176	745.312
107.089	13.858	989.664	745.017
108.103	13.637	988.932	743.407
109.118	13.755	987.966	743.142
110.133	13.769	986.987	742.406
111.147	13.682	986.172	741.337
112.162	13.757	985.009	740.733
113.176	13.611	984.795	739.852
114.191	13.963	983.248	740.196
115.206	13.955	982.390	739.446
116.220	13.836	981.900	738.484
117.235	13.796	981.222	737.728
118.249	13.959	979.876	737.379
119.264	13.798	979.345	736.196
120.279	13.827	978.736	735.805
121.293	13.704	977.841	734.521
122.308	13.677	977.135	733.808
123.322	13.778	976.348	733.599
124.337	13.756	975.354	732.688
125.352	13.741	974.363	731.811
126.366	13.853	972.857	731.112
127.381	13.775	971.723	729.848
128.395	13.850	970.735	729.373
129.410	13.823	969.690	728.403
130.424	13.834	968.745	727.678
131.439	13.799	968.035	726.929
132.454	13.821	967.187	726.321
133.468	13.834	966.311	725.658
134.483	13.861	965.882	725.390
135.497	13.859	965.032	724.678
136.512	13.835	964.080	723.793
137.527	13.839	963.301	723.163
138.541	13.923	962.591	722.933
139.556	13.830	962.046	722.052
140.570	13.841	960.795	721.098
141.585	13.871	960.024	720.586
142.600	14.025	959.328	720.668
143.614	14.088	958.360	720.151
144.629	13.939	958.095	719.244
145.643	13.911	957.233	718.410
146.658	14.020	956.194	718.038
147.673	14.042	955.385	717.461
148.687	13.888	954.476	716.050
149.702	13.898	953.909	715.606
150.716	13.987	952.385	714.782
151.731	14.037	951.389	714.187
152.746	13.879	951.377	713.435
153.760	13.879	950.326	712.584
154.775	14.012	949.573	712.525
155.789	14.026	949.116	712.178
156.804	14.052	947.812	711.252
157.819	14.006	947.346	710.641
158.833	14.147	946.839	710.801
159.848	14.221	945.819	710.289
160.862	14.220	945.174	709.738
161.877	14.024	944.924	708.650
162.892	14.168	943.686	708.273
163.906	14.160	942.851	707.547
164.921	14.040	942.088	706.402
165.935	14.113	941.562	706.257
166.950	14.124	939.950	705.031
167.964	14.204	938.898	704.517
168.979	14.076	937.762	703.061
169.994	14.187	937.331	703.148
171.008	14.232	936.663	702.775
172.023	14.064	935.890	701.421
173.037	14.153	935.493	701.437
174.052	14.244	934.659	701.132
175.067	14.168	933.651	699.994
176.081	14.218	933.022	699.674
177.096	14.141	932.142	698.629
178.110	14.116	931.004	697.606
179.125	14.233	930.100	697.357
180.140	14.215	929.288	696.614
181.154	14.134	929.053	696.035
182.169	14.251	928.348	695.936
183.183	14.280	927.770	695.563
184.198	14.360	926.968	695.233
185.213	14.387	925.839	694.437
186.227	14.352	925.722	694.144
187.242	14.288	925.066	693.325
188.256	14.434	924.071	693.125
189.271	14.423	923.433	692.538
190.286	14.439	923.034	692.242
191.300	14.363	922.025	691.109
192.315	14.277	921.578	690.356
193.329	14.218	920.813	689.480
194.344	14.285	920.132	689.184
195.359	14.390	919.193	688.854
196.373	14.431	918.846	688.702
197.388	14.433	918.511	688.399
198.402	14.495	918.025	688.229
199.417	14.478	917.807	687.936
200.432	14.544	917.329	687.788
201.446	14.691	916.326	687.581
202.461	14.736	916.017	687.473
203.475	14.559	915.633	686.395
204.490	14.642	914.877	686.112
205.504	14.730	914.091	685.823
206.519	14.649	913.189	684.752
207.534	14.643	912.302	684.000
208.548	14.653	911.685	683.519
209.563	14.527	911.175	682.560
210.577	14.625	910.107	682.101
211.592	14.481	909.760	681.193
212.607	14.650	909.132	681.352
213.621	14.807	908.385	681.370
214.636	14.717	907.924	680.599
215.650	14.748	906.857	679.865
216.665	14.676	906.703	679.397
217.680	14.902	906.405	680.031
218.694	14.825	905.732	679.155
219.709	14.871	904.832	678.607
220.723	14.751	904.569	677.860
221.738	14.820	903.851	677.545
222.753	15.004	902.545	677.248
223.767	14.949	901.990	676.551
224.782	14.886	901.359	675.764
225.796	14.990	900.604	675.557
226.811	14.999	899.794	674.925
227.826	14.978	898.896	674.109
228.840	14.951	898.676	673.773
229.855	14.905	898.159	673.143
230.869	15.114	897.285	673.267
231.884	15.078	896.504	672.478
232.899	15.048	895.866	671.818
233.913	15.048	894.967	671.086
234.928	14.910	894.560	670.168
235.942	14.998	893.784	669.879
236.957	14.858	893.373	668.954
237.972	14.878	892.708	668.476
238.986	15.001	891.774	668.206
240.001	15.070	891.357	668.113
241.015	15.074	890.520	667.439
242.030	14.955	890.040	666.546
243.045	14.947	889.685	666.192
244.059	15.064	888.779	665.919
245.074	15.233	887.756	665.767
246.088	15.198	887.116	665.087
247.103	15.161	886.842	664.677
248.117	15.217	886.541	664.614
249.132	15.210	885.815	663.982
250.147	15.246	885.054	663.496
251.161	15.376	884.191	663.304
252.176	15.385	883.598	662.837
253.190	15.448	882.468	662.179
254.205	15.467	882.129	661.942
255.220	15.362	881.971	661.350
256.234	15.332	880.953	660.409
257.249	15.400	880.546	660.314
258.263	15.347	880.221	659.805
259.278	15.432	879.508	659.546
260.293	15.400	878.926	658.923
261.307	15.498	877.993	658.552
262.322	15.569	877.769	658.605
263.336	15.612	877.371	658.417
264.351	15.698	876.260	657.860
265.366	15.595	875.923	657.145
266.380	15.655	875.068	656.679
267.395	15.745	874.137	656.275
268.409	15.627	873.668	655.403
269.424	15.659	872.984	654.958
270.439	15.760	872.355	654.823
271.453	15.682	871.893	654.114
272.468	15.568	871.170	653.068
273.482	15.730	870.209	652.921
274.497	15.635	869.609	652.046
275.512	15.680	869.016	651.717
276.526	15.634	868.495	651.087
277.541	15.632	867.554	650.321
278.555	15.658	867.407	650.252
279.570	15.793	866.220	649.825
280.585	15.846	866.146	649.919
281.599	15.716	865.783	649.085
282.614	15.913	864.869	649.104
283.628	15.825	864.207	648.208
284.643	15.704	864.021	647.547
285.657	16.116	862.934	648.258
286.672	15.859	863.141	647.370
287.687	16.012	862.017	647.054
288.701	16.050	861.268	646.583
289.716	16.010	860.758	645.988
290.730	16.079	860.350	645.891
291.745	15.993	859.589	644.933
292.760	15.991	858.678	644.182
293.774	16.142	858.193	644.340
294.789	16.045	857.530	643.415
295.803	16.175	856.792	643.301
296.818	16.045	856.344	642.412
297.833	15.972	856.117	641.905
298.847	16.039	855.100	641.341
299.862	16.138	854.396	641.132
300.876	16.057	853.739	640.275
301.891	16.129	853.395	640.233
302.906	16.119	852.727	639.639
303.920	16.214	851.864	639.296
304.935	16.218	851.452	638.942
305.949	16.285	850.687	638.566
306.964	16.215	850.113	637.817
307.979	16.289	849.425	637.523
308.993	16.318	848.855	637.147
310.008	16.384	848.418	637.011
311.022	16.341	847.841	636.360
312.037	16.287	847.686	635.983
313.052	16.421	846.858	635.810
314.066	16.369	846.367	635.192
315.081	16.323	845.540	634.342
316.095	16.382	845.195	634.247
317.110	16.465	844.339	633.859
318.125	16.606	843.604	633.781
319.139	16.342	843.668	632.783
320.154	16.559	843.087	633.104
321.168	16.361	842.311	631.724
322.183	16.457	842.061	631.839
323.197	16.466	841.473	631.375
324.212	16.488	841.231	631.222
325.227	16.411	840.512	630.337
326.241	16.361	839.869	629.615
327.256	16.468	839.197	629.453
328.270	16.380	838.489	628.541
329.285	16.450	838.303	628.605
330.300	16.509	837.646	628.276
331.314	16.281	837.439	627.218
332.329	16.463	836.412	627.069
333.343	16.590	835.604	626.876
334.358	16.661	835.205	626.787
335.373	16.614	834.618	626.117
336.387	16.685	834.345	626.117
337.402	16.734	833.393	625.528
338.416	16.664	833.171	625.048
339.431	16.813	832.248	624.849
340.446	16.877	831.975	624.825
341.460	16.899	831.024	624.137
342.475	16.780	830.705	623.405
343.489	16.836	830.115	623.114
344.504	16.887	829.560	622.830
345.519	16.943	829.322	622.803
346.533	16.950	828.827	622.399
347.548	17.142	827.792	622.272
348.562	16.915	827.578	621.224
349.577	16.854	827.190	620.653
350.592	16.987	826.481	620.554
351.606	16.826	826.069	619.600
352.621	16.867	825.283	619.104
353.635	16.939	825.232	619.277
354.650	16.963	824.812	618.992
355.665	16.944	824.214	618.420
356.679	17.076	823.588	618.375
357.694	17.029	823.165	617.832
358.708	17.136	822.315	617.532
359.723	17.015	822.002	616.800
360.738	17.022	821.925	616.713
361.752	17.098	821.026	616.260
362.767	16.980	820.835	615.635
363.781	17.174	820.287	615.874
364.796	17.220	819.643	615.502
365.810	17.276	819.128	615.263
366.825	17.290	818.713	614.946
367.840	17.219	818.780	614.685
368.854	17.174	818.432	614.207
369.869	17.225	817.376	613.545
370.883	17.174	817.171	613.155
371.898	17.181	816.307	612.474
372.913	17.250	816.169	612.568
373.927	17.251	815.520	612.030
374.942	17.344	814.777	611.751
375.956	17.267	814.258	611.032
376.971	17.329	813.464	610.602
377.986	17.374	813.171	610.489
379.000	17.436	812.504	610.158
380.015	17.487	811.934	609.859
381.029	17.507	811.928	609.873
382.044	17.490	811.119	609.151
383.059	17.496	810.424	608.596
384.073	17.502	809.924	608.186
385.088	17.438	809.367	607.488
386.102	17.604	808.666	607.498
387.117	17.416	808.740	606.829
388.132	17.405	808.305	606.413
389.146	17.514	807.782	606.353
390.161	17.630	807.235	606.300
391.175	17.579	807.100	605.965
392.190	17.498	806.629	605.271
393.205	17.603	805.714	604.904
394.219	17.750	805.188	604.977
395.234	17.740	804.875	604.652
396.248	17.622	804.175	603.655
397.263	17.443	804.337	603.088
398.278	17.590	803.107	602.632
399.292	17.521	803.305	602.484
400.307	17.550	802.806	602.159
401.321	17.600	802.027	601.699
402.336	17.637	802.280	601.964
403.350	17.522	801.780	601.130
404.365	17.740	800.964	601.233
405.380	17.786	800.737	601.174
406.394	17.730	800.003	600.371
407.409	17.895	799.593	600.590
408.423	17.839	799.320	600.135
409.438	17.907	798.468	599.684
410.453	17.769	798.521	599.184
411.467	17.791	798.003	598.820
412.482	17.951	797.370	598.854
413.496	17.972	796.903	598.522
414.511	17.896	796.523	597.919
415.526	17.968	796.247	597.911
416.540	17.905	795.952	597.416
417.555	17.944	795.413	597.095
418.569	18.029	795.092	597.099
419.584	18.120	794.322	596.785
420.599	18.092	794.140	596.498
421.613	113.609	1295.296	1481.791
422.628	97.800	1368.281	1481.862
