DTS Sentinel unit serial number:	SN413079Multiplexer serial number:	ORYXHardware model number:	OX4-SRSoftware version number:	ORYX F/W v4.00 Oryx Data Collector v3.7.2.0data status	okinstallation	princeton_trtdifferential loss correction	single-endedforward channel	channel 3reverse channel	N/Adate	2019/09/19time	00:28:35forward acquisition time	60.00reverse acquisition time	0.00gamma	496.2192k internal	0.2346k external	0.2346temperature offset calibration	0.9991default loss term (dB/km)	0.3790temperature slope calibration	1.0000multiplexer offset coefficient	1.0000multiplexer slope coefficient	1.0000fibre end	0.00T internal ref (°C)	22.50T ext. ref 1 (°C)	0.74T ext. ref 2 (°C)	15.42length (m)	temperature (°C)	Stokes	anti-Stokes-747.200	19.203	-0.247	-0.198
-746.185	-58.477	-0.225	0.098
-745.171	-165.623	0.191	0.008
-744.156	673.572	0.106	0.276
-743.142	-200.000	-0.037	0.198
-742.127	-76.218	-0.252	0.089
-741.112	-63.877	0.043	-0.018
-740.098	800.000	-0.157	-0.440
-739.083	-136.111	0.213	-0.025
-738.069	45.232	0.220	0.202
-737.054	-200.000	-0.009	0.234
-736.039	58.748	-0.222	-0.218
-735.025	145.077	0.077	-0.103
-734.010	-24.991	0.126	0.075
-732.996	-104.644	-0.129	0.030
-731.981	367.685	-0.124	-0.250
-730.966	-92.391	-0.321	-0.090
-729.952	43.732	0.226	-0.207
-728.937	-116.262	0.094	0.017
-727.923	-148.585	-0.276	0.022
-726.908	-54.223	-0.320	0.145
-725.894	147.057	0.220	-0.296
-724.879	-200.000	0.004	-0.121
-723.864	48.348	0.197	0.184
-722.850	-122.271	0.233	-0.038
-721.835	49.197	-0.306	0.287
-720.821	-15.017	0.503	-0.322
-719.806	778.083	-0.092	-0.252
-718.791	800.000	0.067	0.241
-717.777	-200.000	0.018	0.111
-716.762	-36.164	-0.261	-0.141
-715.748	-56.950	0.085	-0.037
-714.733	-43.863	0.291	-0.146
-713.718	-200.000	-0.044	0.205
-712.704	-53.147	0.142	-0.065
-711.689	263.689	0.028	-0.049
-710.675	225.015	-0.234	0.379
-709.660	-121.179	-0.272	0.045
-708.645	756.375	0.129	0.349
-707.631	-76.380	0.192	-0.068
-706.616	800.000	-0.071	-0.285
-705.602	800.000	0.065	0.268
-704.587	-41.259	0.040	-0.021
-703.572	-36.626	0.201	-0.108
-702.558	265.373	0.096	-0.167
-701.543	474.440	0.024	-0.054
-700.529	11.510	-0.129	0.098
-699.514	25.706	-0.212	0.176
-698.499	132.606	0.140	-0.180
-697.485	-200.000	-0.010	-0.388
-696.470	50.089	0.079	0.074
-695.456	7.754	0.121	-0.090
-694.441	18.996	-0.328	-0.262
-693.426	-96.449	0.061	-0.016
-692.412	-200.000	-0.021	-0.183
-691.397	172.476	0.191	0.274
-690.383	800.000	-0.141	0.389
-689.368	-89.269	-0.151	-0.045
-688.354	-22.809	0.261	-0.157
-687.339	-182.501	0.336	-0.006
-686.324	35.592	-0.271	-0.237
-685.310	-101.298	0.421	-0.102
-684.295	92.438	-0.136	-0.153
-683.281	800.000	-0.089	-0.311
-682.266	-3.985	-0.075	-0.052
-681.251	575.705	0.155	-0.378
-680.237	-165.646	-0.063	-0.003
-679.222	213.203	-0.090	0.142
-678.208	-15.540	0.161	0.102
-677.193	-200.000	-0.047	0.297
-676.178	410.375	0.182	-0.385
-675.164	-93.990	-0.351	-0.096
-674.149	29.031	-0.154	-0.130
-673.135	-200.000	-0.042	-0.267
-672.120	-40.207	0.141	0.073
-671.105	-145.268	0.134	0.012
-670.091	-200.000	-0.051	0.240
-669.076	-124.847	-0.464	-0.071
-668.062	-44.324	-0.138	-0.069
-667.047	-200.000	-0.048	0.263
-666.032	-200.000	-0.028	-0.147
-665.018	-124.451	0.127	0.020
-664.003	273.229	-0.042	0.075
-662.989	590.153	-0.081	0.200
-661.974	212.112	0.076	0.119
-660.959	-200.000	-0.016	-0.189
-659.945	-90.866	-0.241	-0.069
-658.930	800.000	-0.051	0.176
-657.916	-200.000	-0.011	0.128
-656.901	-5.241	0.217	0.149
-655.886	-82.926	-0.183	-0.059
-654.872	-17.176	0.024	0.015
-653.857	-10.211	-0.318	-0.210
-652.843	285.144	-0.116	-0.208
-651.828	-117.539	-0.289	-0.052
-650.814	102.803	-0.154	0.179
-649.799	-200.000	0.023	0.111
-648.784	-88.841	-0.166	0.049
-647.770	800.000	0.081	-0.318
-646.755	72.618	0.205	-0.213
-645.741	-200.000	0.175	-0.000
-644.726	-200.000	0.042	0.192
-643.711	-3.304	-0.196	-0.136
-642.697	152.315	0.305	-0.415
-641.682	-200.000	0.037	0.370
-640.668	-7.252	0.221	0.149
-639.653	-200.000	0.038	0.254
-638.638	-112.630	-0.202	-0.040
-637.624	-22.789	-0.404	0.243
-636.609	-59.082	-0.091	-0.039
-635.595	-133.403	0.212	-0.027
-634.580	800.000	-0.073	-0.296
-633.565	359.880	0.040	0.080
-632.551	-158.287	0.078	0.005
-631.536	-200.000	-0.068	-0.353
-630.522	19.167	-0.218	0.174
-629.507	677.564	-0.036	0.092
-628.492	228.728	0.053	0.086
-627.478	307.321	-0.186	-0.345
-626.463	271.245	0.131	-0.230
-625.449	-15.583	0.170	0.108
-624.434	-89.708	-0.238	-0.069
-623.419	-42.073	0.370	-0.189
-622.405	183.301	0.197	-0.290
-621.390	-200.000	0.007	0.129
-620.376	394.218	-0.044	0.091
-619.361	28.082	-0.357	0.300
-618.346	-84.250	-0.131	-0.041
-617.332	-66.016	-0.125	-0.050
-616.317	267.290	-0.150	-0.261
-615.303	387.885	0.092	0.190
-614.288	166.355	-0.147	0.207
-613.273	800.000	-0.106	0.372
-612.259	287.185	-0.087	0.156
-611.244	-72.045	-0.397	0.147
-610.230	259.130	-0.232	-0.398
-609.215	-108.662	0.163	-0.035
-608.201	70.676	-0.184	0.189
-607.186	118.508	-0.268	-0.330
-606.171	-140.116	0.306	-0.032
-605.157	-200.000	0.023	-0.388
-604.142	-69.980	0.175	0.066
-603.128	375.492	0.056	-0.113
-602.113	-200.000	-0.035	-0.291
-601.098	611.273	-0.047	-0.117
-600.084	-99.820	0.108	0.027
-599.069	310.286	-0.079	0.147
-598.055	-200.000	0.002	-0.105
-597.040	26.751	0.153	-0.127
-596.025	-126.656	-0.370	-0.055
-595.011	594.223	-0.016	-0.039
-593.996	-200.000	0.001	0.265
-592.982	374.048	-0.159	0.323
-591.967	-82.379	0.082	0.027
-590.952	184.432	0.345	-0.508
-589.938	59.971	0.383	0.376
-588.923	-34.112	-0.151	0.082
-587.909	34.220	0.104	0.091
-586.894	72.039	-0.064	-0.066
-585.879	179.269	-0.095	-0.139
-584.865	-54.689	0.411	-0.185
-583.850	278.744	0.002	-0.004
-582.836	-200.000	0.011	-0.175
-581.821	800.000	0.048	0.148
-580.806	749.700	-0.043	0.115
-579.792	513.968	-0.116	0.269
-578.777	394.503	-0.104	-0.216
-577.763	294.335	-0.197	-0.358
-576.748	800.000	0.017	-0.064
-575.733	-200.000	0.018	0.094
-574.719	265.929	-0.120	-0.208
-573.704	-19.993	0.101	0.062
-572.690	99.450	-0.243	-0.279
-571.675	59.624	-0.290	-0.284
-570.661	133.416	-0.154	-0.198
-569.646	-103.377	0.161	0.038
-568.631	-127.076	0.352	-0.051
-567.617	56.911	0.214	0.207
-566.602	572.280	0.146	-0.352
-565.588	-58.425	-0.091	-0.039
-564.573	132.202	-0.088	0.112
-563.558	-200.000	-0.040	0.195
-562.544	103.954	0.030	0.036
-561.529	800.000	-0.007	-0.021
-560.515	717.478	0.038	0.099
-559.500	-129.098	0.235	-0.033
-558.485	-143.322	-0.254	0.024
-557.471	-101.689	-0.597	-0.144
-556.456	56.279	0.098	0.095
-555.442	-90.166	-0.169	-0.049
-554.427	800.000	0.071	-0.226
-553.412	-200.000	0.021	-0.219
-552.398	22.682	0.226	-0.183
-551.383	-200.000	-0.021	-0.117
-550.369	800.000	0.082	0.311
-549.354	-200.000	-0.009	0.309
-548.339	479.422	0.128	-0.288
-547.325	63.913	-0.277	-0.276
-546.310	56.060	-0.413	-0.397
-545.296	800.000	0.048	0.187
-544.281	800.000	0.021	0.059
-543.266	47.024	0.119	0.110
-542.252	-200.000	-0.015	0.224
-541.237	-200.000	0.026	-0.175
-540.223	24.114	-0.154	-0.126
-539.208	-59.619	-0.032	-0.014
-538.193	-55.459	-0.059	-0.026
-537.179	-121.377	-0.405	-0.067
-536.164	79.621	0.113	0.121
-535.150	243.298	0.117	0.194
-534.135	-200.000	-0.059	-0.281
-533.121	-87.220	-0.382	-0.115
-532.106	39.899	-0.081	0.072
-531.091	-110.564	-0.172	0.035
-530.077	-39.093	0.114	-0.060
-529.062	-14.495	0.294	0.188
-528.048	374.090	-0.072	0.146
-527.033	-107.540	0.245	0.053
-526.018	-127.242	0.096	0.014
-525.004	4.911	0.102	0.075
-523.989	231.393	-0.096	0.156
-522.975	186.069	-0.024	0.036
-521.960	-22.421	-0.308	-0.185
-520.945	61.112	0.159	0.157
-519.931	589.569	0.038	0.092
-518.916	263.537	0.212	0.365
-517.902	71.605	-0.165	-0.170
-516.887	-200.000	-0.006	0.331
-515.872	-43.699	-0.255	-0.128
-514.858	119.469	-0.291	-0.357
-513.843	-200.000	-0.036	0.339
-512.829	167.895	0.063	-0.089
-511.814	-140.043	0.194	0.020
-510.799	323.636	0.078	-0.147
-509.785	-200.000	-0.006	-0.037
-508.770	73.080	-0.189	-0.195
-507.756	-96.308	-0.293	0.077
-506.741	62.816	0.133	0.131
-505.726	-107.864	-0.157	-0.034
-504.712	-33.473	0.116	0.064
-503.697	-92.602	-0.210	0.058
-502.683	-200.000	-0.024	-0.146
-501.668	659.586	0.091	0.231
-500.653	-101.239	0.068	0.016
-499.639	-200.000	0.015	-0.199
-498.624	-73.839	-0.136	-0.049
-497.610	-200.000	-0.004	0.063
-496.595	-200.000	-0.011	0.115
-495.581	173.435	0.123	0.175
-494.566	211.319	-0.060	0.093
-493.551	-200.000	0.010	-0.150
-492.537	800.000	0.045	0.150
-491.522	-74.370	0.063	0.023
-490.508	-87.116	-0.060	-0.018
-489.493	77.938	0.068	0.071
-488.478	125.903	0.020	-0.025
-487.464	184.794	0.037	-0.054
-486.449	-200.000	-0.007	-0.076
-485.435	-200.000	0.035	-0.224
-484.420	30.402	0.165	-0.140
-483.405	183.088	-0.121	0.177
-482.391	-56.495	-0.259	0.114
-481.376	32.206	-0.116	0.099
-480.362	-156.079	0.034	0.002
-479.347	153.117	0.089	0.120
-478.332	19.804	-0.081	0.065
-477.318	1.790	-0.189	-0.135
-476.303	498.946	0.142	0.324
-475.289	626.442	-0.049	0.122
-474.274	566.018	-0.124	0.297
-473.259	-82.541	0.132	0.042
-472.245	-37.017	-0.268	-0.142
-471.230	387.204	-0.094	-0.193
-470.216	-158.594	-0.350	0.020
-469.201	345.322	0.023	-0.044
-468.186	302.597	0.049	-0.091
-467.172	800.000	0.045	0.161
-466.157	-116.891	0.242	0.044
-465.143	52.528	0.076	0.072
-464.128	-91.628	0.069	-0.019
-463.113	800.000	-0.059	-0.220
-462.099	-101.493	0.259	-0.062
-461.084	-88.033	0.206	-0.061
-460.070	-15.641	-0.255	-0.161
-459.055	-200.000	0.015	-0.236
-458.040	-85.272	0.107	0.033
-457.026	-200.000	-0.001	0.038
-456.011	-200.000	0.053	-0.466
-454.997	-161.868	0.118	0.006
-453.982	-54.185	0.300	0.135
-452.968	5.984	-0.156	0.114
-451.953	81.678	-0.392	0.419
-450.938	119.082	0.236	0.289
-449.924	127.612	-0.066	-0.082
-448.909	458.786	-0.140	0.309
-447.895	800.000	-0.093	0.299
-446.880	43.923	0.322	-0.291
-445.865	-33.223	-0.056	-0.030
-444.851	800.000	-0.026	0.095
-443.836	29.711	-0.254	0.214
-442.822	28.531	0.164	0.137
-441.807	445.433	0.056	-0.122
-440.792	-192.979	-0.147	0.001
-439.778	735.766	0.106	0.281
-438.763	-33.537	-0.172	-0.094
-437.749	32.862	-0.184	-0.158
-436.734	-200.000	0.034	0.215
-435.719	67.547	0.323	-0.326
-434.705	800.000	-0.153	-0.460
-433.690	-108.719	0.147	-0.031
-432.676	-118.573	-0.190	0.033
-431.661	-11.513	-0.053	-0.034
-430.646	320.063	0.123	-0.230
-429.632	-2.723	-0.305	-0.211
-428.617	56.808	0.358	-0.344
-427.603	-200.000	0.048	0.385
-426.588	392.479	-0.025	0.050
-425.573	-113.030	0.170	0.033
-424.559	168.246	-0.149	-0.210
-423.544	-20.041	-0.226	-0.138
-422.530	-133.309	-0.262	-0.033
-421.515	9.026	0.321	-0.240
-420.500	53.872	-0.154	-0.146
-419.486	-139.790	0.121	-0.013
-418.471	238.720	-0.088	0.144
-417.457	59.674	0.261	0.254
-416.442	-145.906	-0.065	-0.006
-415.428	800.000	0.033	0.138
-414.413	105.042	-0.158	-0.183
-413.398	22.253	0.079	0.064
-412.384	78.167	-0.246	0.259
-411.369	-129.793	0.427	-0.058
-410.355	-105.066	0.197	-0.045
-409.340	75.301	0.029	0.030
-408.325	214.331	0.102	0.160
-407.311	-116.075	-0.293	0.054
-406.296	-200.000	-0.011	0.168
-405.282	-200.000	-0.062	0.282
-404.267	-29.557	-0.164	-0.092
-403.252	-89.141	0.197	-0.057
-402.238	-200.000	-0.016	-0.231
-401.223	-5.892	-0.109	-0.074
-400.209	133.487	-0.080	0.102
-399.194	14.211	0.229	0.176
-398.179	94.575	0.003	-0.004
-397.165	-200.000	0.009	-0.121
-396.150	-32.151	0.342	-0.189
-395.136	36.212	-0.014	0.012
-394.121	-200.000	-0.050	0.223
-393.106	-200.000	0.030	0.210
-392.092	174.555	0.221	0.316
-391.077	142.474	0.244	-0.320
-390.063	-32.473	0.170	0.094
-389.048	178.361	-0.253	-0.364
-388.033	-24.960	-0.358	0.210
-387.019	36.624	0.275	0.239
-386.004	-154.878	-0.304	-0.020
-384.990	35.950	-0.209	-0.181
-383.975	-94.394	-0.324	-0.087
-382.960	123.908	0.133	-0.164
-381.946	474.364	0.071	0.159
-380.931	-200.000	-0.064	-0.312
-379.917	192.428	-0.114	-0.170
-378.902	800.000	-0.066	-0.252
-377.888	800.000	0.091	-0.366
-376.873	341.441	0.063	-0.122
-375.858	133.260	-0.101	-0.129
-374.844	-103.469	0.375	0.087
-373.829	-43.190	0.223	0.111
-372.815	-30.177	-0.158	0.089
-371.800	-0.090	-0.241	-0.169
-370.785	5.206	-0.063	0.046
-369.771	-66.384	0.093	0.036
-368.756	-200.000	0.067	0.510
-367.742	220.509	-0.109	-0.172
-366.727	-45.927	-0.162	0.079
-365.712	-123.414	0.337	0.053
-364.698	170.200	0.129	0.182
-363.683	312.705	-0.102	0.189
-362.669	437.170	0.173	-0.371
-361.654	33.695	-0.250	0.214
-360.639	-200.000	0.012	0.060
-359.625	-200.000	-0.034	0.263
-358.610	-200.000	-0.006	0.144
-357.596	382.791	-0.028	0.057
-356.581	800.000	0.045	0.163
-355.566	258.174	0.084	-0.142
-354.552	53.227	0.097	-0.091
-353.537	-45.370	-0.384	0.188
-352.523	-182.196	0.205	-0.004
-351.508	-200.000	-0.014	0.414
-350.493	39.590	-0.167	0.147
-349.479	63.525	0.169	0.167
-348.464	-200.000	0.030	0.254
-347.450	-49.888	0.199	-0.093
-346.435	800.000	-0.062	-0.235
-345.420	190.440	0.266	-0.394
-344.406	-181.824	0.287	-0.005
-343.391	-200.000	-0.035	-0.160
-342.377	-65.157	0.079	-0.032
-341.362	-200.000	-0.031	0.280
-340.348	228.171	0.141	0.225
-339.333	800.000	0.053	-0.165
-338.318	20.837	-0.200	-0.159
-337.304	24.346	0.297	-0.242
-336.289	30.174	0.164	-0.138
-335.275	-36.041	-0.042	-0.022
-334.260	493.660	0.064	-0.145
-333.245	-18.795	0.140	0.086
-332.231	160.007	-0.231	-0.316
-331.216	-81.545	-0.156	0.050
-330.202	-200.000	0.012	0.352
-329.187	27.802	0.270	-0.224
-328.172	-200.000	-0.177	0.001
-327.158	-85.868	-0.334	0.102
-326.143	-89.485	0.295	-0.085
-325.129	40.784	0.073	0.065
-324.114	-78.666	0.242	-0.081
-323.099	-103.036	0.289	-0.067
-322.085	-140.525	0.126	-0.013
-321.070	45.306	-0.144	-0.131
-320.056	-114.816	-0.313	-0.059
-319.041	-200.000	0.017	-0.124
-318.026	91.623	0.207	-0.229
-317.012	-200.000	0.014	0.066
-315.997	-200.000	0.028	0.153
-314.983	-163.897	0.330	-0.015
-313.968	800.000	0.114	-0.316
-312.953	-119.981	-0.128	-0.022
-311.939	216.061	0.061	-0.096
-310.924	-118.143	0.230	-0.040
-309.910	504.392	0.139	0.316
-308.895	-87.013	0.268	-0.080
-307.880	-57.552	0.292	0.126
-306.866	-87.814	0.231	0.068
-305.851	291.155	-0.081	-0.145
-304.837	-23.921	-0.135	-0.079
-303.822	167.206	0.180	0.252
-302.807	-130.527	-0.210	0.028
-301.793	-200.000	0.015	0.147
-300.778	543.427	-0.091	-0.214
-299.764	778.530	0.026	-0.071
-298.749	38.649	-0.094	-0.082
-297.735	280.333	-0.104	-0.183
-296.720	-200.000	-0.029	-0.154
-295.705	-200.000	0.058	-0.283
-294.691	24.230	0.253	-0.205
-293.676	-200.000	0.015	-0.078
-292.662	-93.100	-0.140	0.038
-291.647	30.424	0.258	0.216
-290.632	-75.138	0.224	0.079
-289.618	193.353	0.167	0.248
-288.603	535.317	0.066	0.153
-287.589	210.761	0.040	-0.062
-286.574	-33.713	0.101	-0.055
-285.559	-112.485	0.037	-0.007
-284.545	-124.734	-0.114	0.017
-283.530	-29.759	-0.194	0.109
-282.516	-70.956	0.203	-0.075
-281.501	19.828	-0.190	-0.150
-280.486	331.786	0.212	0.402
-279.472	-98.421	-0.204	0.051
-278.457	207.241	0.159	-0.244
-277.443	47.868	0.086	-0.079
-276.428	-158.428	0.212	-0.012
-275.413	589.254	-0.040	-0.096
-274.399	-12.487	-0.168	0.108
-273.384	800.000	0.093	0.361
-272.370	-200.000	0.026	-0.176
-271.355	-200.000	-0.022	0.175
-270.340	43.985	0.058	-0.052
-269.326	110.979	-0.152	0.180
-268.311	459.106	0.160	0.349
-267.297	-45.045	0.067	0.033
-266.282	-76.986	0.398	0.136
-265.267	800.000	-0.095	-0.378
-264.253	-200.000	-0.007	-0.117
-263.238	-109.348	0.064	0.013
-262.224	21.135	0.295	0.235
-261.209	800.000	-0.033	-0.102
-260.195	-200.000	0.066	0.308
-259.180	800.000	0.073	-0.218
-258.165	-200.000	-0.033	-0.222
-257.151	-180.709	-0.218	-0.004
-256.136	74.970	0.073	0.075
-255.122	24.332	-0.058	-0.047
-254.107	-200.000	-0.026	-0.392
-253.092	-200.000	0.002	-0.053
-252.078	800.000	-0.032	-0.112
-251.063	-113.704	-0.159	0.030
-250.049	107.099	0.066	0.077
-249.034	252.390	-0.065	-0.109
-248.019	323.670	-0.259	0.484
-247.005	-52.108	-0.232	-0.106
-245.990	-28.282	-0.320	-0.181
-244.976	-94.001	-0.348	0.094
-243.961	-104.461	0.208	-0.047
-242.946	-200.000	-0.031	0.176
-241.932	-133.373	-0.186	0.023
-240.917	96.110	-0.065	-0.073
-239.903	-24.195	0.059	-0.035
-238.888	2.621	0.235	-0.167
-237.873	800.000	-0.012	0.051
-236.859	694.517	0.125	0.322
-235.844	53.016	0.212	0.199
-234.830	62.447	-0.239	0.234
-233.815	-101.337	0.022	-0.005
-232.800	746.530	-0.100	-0.265
-231.786	173.213	-0.161	-0.227
-230.771	-200.000	0.003	0.083
-229.757	-200.000	0.040	0.264
-228.742	-200.000	-0.015	0.131
-227.727	80.201	0.305	0.321
-226.713	800.000	0.046	0.158
-225.698	-93.947	-0.272	-0.073
-224.684	218.821	0.063	-0.098
-223.669	377.085	0.157	-0.314
-222.655	138.895	0.303	0.391
-221.640	91.028	-0.451	0.495
-220.625	351.697	0.144	0.280
-219.611	800.000	-0.111	-0.439
-218.596	750.621	0.115	0.304
-217.582	-132.922	0.212	-0.026
-216.567	-54.240	-0.338	-0.150
-215.552	8.551	0.083	-0.061
-214.538	653.374	0.104	0.261
-213.523	800.000	-0.078	0.324
-212.509	12.421	-0.255	0.193
-211.494	-141.345	0.211	-0.021
-210.479	-200.000	-0.002	-0.029
-209.465	3.339	0.076	-0.054
-208.450	-88.625	-0.494	-0.144
-207.436	-200.000	-0.004	0.298
-206.421	19.819	0.199	0.157
-205.406	155.006	-0.162	-0.218
-204.392	16.395	-0.082	-0.064
-203.377	-152.063	0.083	0.006
-202.363	-200.000	-0.015	0.166
-201.348	-200.000	0.055	0.308
-200.333	-25.557	-0.300	-0.173
-199.319	-90.140	-0.177	0.050
-198.304	230.651	-0.118	-0.189
-197.290	41.269	0.077	0.068
-196.275	-50.304	0.314	-0.145
-195.260	670.736	0.037	0.093
-194.246	23.543	0.317	-0.255
-193.231	-200.000	-0.007	0.113
-192.217	-69.516	0.100	0.037
-191.202	-200.000	0.035	-0.345
-190.187	521.936	-0.064	-0.148
-189.173	233.521	0.121	-0.194
-188.158	-22.437	-0.242	0.143
-187.144	800.000	-0.037	0.143
-186.129	78.514	-0.131	-0.137
-185.114	-200.000	-0.029	-0.169
-184.100	146.138	-0.076	0.100
-183.085	719.941	0.077	-0.200
-182.071	-82.917	0.234	-0.074
-181.056	-124.057	-0.534	-0.082
-180.042	-147.735	0.292	-0.024
-179.027	-90.645	0.071	0.020
-178.012	-174.191	-0.315	-0.009
-176.998	424.614	0.104	-0.220
-175.983	-37.833	-0.105	-0.055
-174.969	285.827	0.054	-0.095
-173.954	-27.465	-0.230	-0.131
-172.939	-200.000	-0.009	0.244
-171.925	-1.231	0.235	-0.163
-170.910	-200.000	-0.058	0.291
-169.896	-200.000	0.058	-0.305
-168.881	-200.000	0.031	0.293
-167.866	-98.164	-0.330	-0.083
-166.852	-79.747	-0.074	0.024
-165.837	12.080	-0.167	-0.125
-164.823	75.578	-0.034	0.035
-163.808	244.199	0.060	-0.099
-162.793	68.078	-0.156	0.156
-161.779	-12.248	-0.203	0.130
-160.764	-68.103	0.296	0.113
-159.750	-172.257	-0.244	0.008
-158.735	341.005	0.127	0.242
-157.720	-86.473	0.144	0.043
-156.706	-200.000	-0.037	0.358
-155.691	22.200	0.359	0.287
-154.677	-200.000	-0.019	0.291
-153.662	194.668	0.147	-0.217
-152.647	-88.475	-0.032	-0.009
-151.633	-26.002	0.085	-0.049
-150.618	-118.473	0.275	0.048
-149.604	16.832	0.216	0.167
-148.589	-41.175	0.149	0.075
-147.574	-34.344	0.285	-0.153
-146.560	-200.000	-0.080	0.355
-145.545	-63.979	0.251	-0.100
-144.531	672.736	-0.069	-0.174
-143.516	-64.955	0.204	0.080
-142.502	-8.581	0.275	-0.180
-141.487	800.000	-0.107	-0.409
-140.472	800.000	-0.081	-0.222
-139.458	-64.364	0.147	-0.058
-138.443	401.349	0.073	0.151
-137.429	111.234	-0.135	-0.159
-136.414	245.762	-0.081	0.134
-135.399	484.838	-0.180	0.400
-134.385	122.718	0.244	-0.299
-133.370	179.904	0.100	-0.143
-132.356	-193.098	0.064	0.001
-131.341	-92.563	0.314	-0.086
-130.326	-40.142	0.203	0.103
-129.312	-167.142	0.144	-0.006
-128.297	800.000	0.058	-0.188
-127.283	-76.395	0.305	0.105
-126.268	800.000	-0.041	-0.172
-125.253	714.050	0.036	-0.094
-124.239	800.000	0.122	0.340
-123.224	-1.015	0.170	0.117
-122.210	50.739	-0.141	-0.130
-121.195	46.935	-0.190	-0.172
-120.180	177.585	0.145	0.206
-119.166	-57.216	0.385	-0.165
-118.151	161.623	0.072	0.098
-117.137	455.860	-0.060	0.130
-116.122	296.027	0.037	0.066
-115.107	-36.805	-0.099	-0.052
-114.093	-25.507	-0.257	-0.148
-113.078	562.702	0.031	-0.072
-112.064	111.907	0.249	0.294
-111.049	-14.559	0.363	0.228
-110.034	207.795	0.077	-0.118
-109.020	-200.000	-0.006	0.282
-108.005	64.317	0.279	0.274
-106.991	130.861	0.142	-0.177
-105.976	-52.020	-0.243	-0.110
-104.962	75.842	-0.096	0.099
-103.947	94.400	0.078	0.086
-102.932	-200.000	0.017	0.204
-101.918	-126.798	0.499	-0.072
-100.903	-28.612	-0.267	-0.150
-99.889	160.153	0.187	0.254
-98.874	-108.563	0.218	-0.046
-97.859	-23.940	0.107	0.062
-96.845	50.193	0.224	0.206
-95.830	800.000	0.083	-0.291
-94.816	64.035	-0.264	0.259
-93.801	-200.000	0.065	-0.351
-92.786	-200.000	0.052	-0.414
-91.772	146.925	0.175	0.229
-90.757	-200.000	0.007	0.415
-89.743	561.506	-0.043	-0.102
-88.728	-31.041	0.200	0.110
-87.713	-55.159	-0.022	0.009
-86.699	715.126	0.156	0.404
-85.684	-140.063	0.403	0.041
-84.670	-99.462	-0.167	-0.041
-83.655	113.347	-0.025	-0.030
-82.640	-200.000	-0.010	0.262
-81.626	-80.566	0.224	-0.073
-80.611	-118.453	0.027	-0.005
-79.597	-42.217	-0.337	0.168
-78.582	-16.144	-0.209	-0.129
-77.567	64.591	0.246	0.242
-76.553	76.366	-0.196	0.202
-75.538	-200.000	0.020	-0.182
-74.524	132.054	0.203	-0.255
-73.509	-9.164	0.273	0.178
-72.494	-175.281	0.185	-0.005
-71.480	800.000	0.059	0.199
-70.465	-200.000	0.004	0.216
-69.451	800.000	0.119	0.333
-68.436	268.381	-0.036	0.062
-67.422	-200.000	0.010	0.118
-66.407	105.196	-0.111	-0.128
-65.392	-56.315	0.414	0.179
-64.378	-200.000	0.000	0.318
-63.363	-80.897	-0.228	0.074
-62.349	-60.284	0.203	0.084
-61.334	-6.168	-1.212	-0.806
-60.319	800.000	0.251	0.762
-59.305	582.820	-0.495	-1.182
-58.290	800.000	0.566	1.572
-57.276	427.863	0.782	1.644
-56.261	-200.000	131.725	697.157
-55.246	376.357	1651.073	3279.537
-54.232	135.475	2794.639	3538.032
-53.217	93.282	2185.543	2405.758
-52.203	33.015	1698.243	1431.882
-51.188	25.634	1516.643	1228.526
-50.173	23.774	1493.820	1197.466
-49.159	48.161	1568.282	1427.113
-48.144	44.936	1579.858	1415.256
-47.130	25.742	1527.054	1237.508
-46.115	22.764	1511.077	1204.219
-45.100	22.548	1507.946	1200.204
-44.086	22.528	1505.737	1198.264
-43.071	22.473	1503.942	1196.415
-42.057	22.606	1502.011	1195.732
-41.042	22.408	1500.930	1193.480
-40.027	22.414	1499.140	1192.050
-39.013	22.384	1497.698	1190.656
-37.998	22.426	1496.460	1189.912
-36.984	22.440	1495.632	1189.297
-35.969	22.465	1494.482	1188.502
-34.954	22.455	1492.919	1187.148
-33.940	22.471	1491.373	1185.980
-32.925	22.418	1490.646	1184.995
-31.911	22.488	1489.094	1184.188
-30.896	22.561	1487.570	1183.418
-29.881	22.531	1486.981	1182.704
-28.867	22.590	1485.441	1181.824
-27.852	22.543	1484.248	1180.514
-26.838	22.615	1482.221	1179.335
-25.823	22.553	1480.927	1177.846
-24.809	22.474	1479.741	1176.330
-23.794	22.643	1477.965	1175.999
-22.779	22.531	1476.892	1174.349
-21.765	22.603	1475.797	1173.915
-20.750	22.538	1474.381	1172.307
-19.736	22.530	1473.799	1171.741
-18.721	22.485	1472.386	1170.278
-17.706	22.433	1471.584	1169.243
-16.692	22.446	1470.091	1168.098
-15.677	22.554	1468.868	1167.794
-14.663	22.518	1468.090	1166.895
-13.648	22.496	1467.474	1166.209
-12.633	22.537	1466.633	1165.768
-11.619	22.563	1465.510	1164.999
-10.604	22.466	1465.139	1164.022
-9.590	22.511	1463.705	1163.129
-8.575	22.601	1462.616	1162.811
-7.560	22.453	1462.440	1161.648
-6.546	22.461	1461.325	1160.774
-5.531	22.452	1460.783	1160.237
-4.517	22.586	1459.095	1159.729
-3.502	22.465	1458.631	1158.519
-2.487	22.599	1456.936	1158.011
-1.473	22.541	1456.497	1157.233
-0.458	22.512	1455.165	1155.941
0.556	21.336	1444.898	1142.907
1.571	17.944	1420.563	1101.709
2.586	14.082	1358.300	1029.464
3.600	12.374	1274.790	956.151
4.615	11.484	1231.171	918.347
5.629	10.184	1174.898	869.318
6.644	5.294	1095.113	785.670
7.659	1.294	1060.435	741.217
8.673	0.776	1055.377	735.102
9.688	0.648	1052.426	732.358
10.702	0.754	1050.422	731.416
11.717	0.771	1048.383	730.013
12.731	2.216	1048.886	737.274
13.746	7.772	1056.389	769.421
14.761	14.270	1064.206	806.623
15.775	17.108	1067.722	822.992
16.790	17.028	1066.326	821.456
17.804	16.000	1064.754	815.199
18.819	15.209	1062.654	809.698
19.834	14.696	1061.018	805.905
20.848	14.410	1060.634	804.164
21.863	14.187	1060.133	802.638
22.877	14.006	1058.791	800.677
23.892	13.795	1057.768	798.819
24.907	13.655	1056.928	797.437
25.921	13.640	1056.397	796.896
26.936	13.779	1055.377	796.724
27.950	13.802	1055.010	796.486
28.965	13.870	1054.108	796.059
29.980	13.924	1053.261	795.611
30.994	13.770	1052.590	794.297
32.009	13.895	1051.402	793.927
33.023	14.002	1050.890	793.982
34.038	13.945	1049.734	792.766
35.053	13.926	1049.263	792.247
36.067	13.900	1048.210	791.256
37.082	13.753	1048.045	790.362
38.096	13.789	1046.976	789.657
39.111	13.865	1046.031	789.237
40.126	13.835	1045.510	788.631
41.140	13.927	1043.852	787.749
42.155	13.752	1042.854	786.097
43.169	13.697	1042.332	785.371
44.184	13.799	1041.091	784.852
45.199	13.876	1039.440	783.898
46.213	13.756	1039.103	783.009
47.228	13.731	1037.787	781.830
48.242	13.856	1036.769	781.583
49.257	13.837	1035.783	780.682
50.271	13.887	1034.729	780.052
51.286	13.865	1034.115	779.418
52.301	13.898	1033.008	778.671
53.315	13.864	1032.439	778.010
54.330	13.828	1031.705	777.221
55.344	13.831	1030.509	776.265
56.359	13.853	1029.824	775.787
57.374	13.883	1028.801	775.086
58.388	13.883	1028.017	774.425
59.403	13.724	1027.479	773.213
60.417	13.812	1026.317	772.680
61.432	13.689	1025.902	771.723
62.447	13.882	1025.068	771.925
63.461	13.722	1024.402	770.614
64.476	13.876	1023.315	770.443
65.490	13.710	1022.973	769.345
66.505	13.701	1021.926	768.449
67.520	13.782	1021.096	768.131
68.534	13.799	1020.124	767.410
69.549	13.784	1019.239	766.610
70.563	13.757	1018.652	765.974
71.578	13.879	1017.685	765.744
72.593	13.766	1017.032	764.662
73.607	13.567	1016.442	763.234
74.622	13.680	1014.821	762.471
75.636	13.608	1014.264	761.654
76.651	13.702	1013.302	761.294
77.666	13.637	1013.140	760.807
78.680	13.757	1012.076	760.489
79.695	13.736	1011.534	759.919
80.709	13.724	1010.683	759.158
81.724	13.761	1009.975	758.730
82.739	13.711	1009.556	758.121
83.753	13.754	1009.096	757.903
84.768	13.753	1008.168	757.134
85.782	13.784	1007.164	756.455
86.797	13.932	1006.296	756.410
87.812	13.976	1005.154	755.682
88.826	13.863	1004.838	754.868
89.841	13.876	1003.528	753.873
90.855	13.923	1002.770	753.453
91.870	13.949	1002.272	753.129
92.884	13.999	1001.412	752.643
93.899	13.908	1000.916	751.790
94.914	13.939	1000.046	751.210
95.928	13.865	999.614	750.487
96.943	14.174	998.333	750.851
97.957	13.896	998.108	749.363
98.972	13.965	997.165	748.898
99.987	14.053	995.966	748.327
101.001	14.046	995.287	747.721
102.016	13.942	994.503	746.598
103.030	13.875	993.854	745.742
104.045	13.921	992.899	745.168
105.060	14.112	991.979	745.266
106.074	13.818	991.173	743.278
107.089	13.939	989.942	742.833
108.103	13.891	988.705	741.625
109.118	13.988	987.961	741.434
110.133	13.844	987.652	740.493
111.147	13.785	986.683	739.439
112.162	13.788	986.059	738.918
113.176	13.861	985.144	738.493
114.191	13.876	984.199	737.782
115.206	13.827	983.691	737.119
116.220	13.943	982.375	736.586
117.235	13.919	981.699	735.904
118.249	13.943	980.830	735.295
119.264	13.928	979.966	734.514
120.279	13.926	979.222	733.883
121.293	13.948	978.297	733.225
122.308	13.792	977.840	732.128
123.322	13.938	977.003	732.078
124.337	13.949	975.672	731.068
125.352	13.846	974.489	729.662
126.366	13.790	973.953	728.951
127.381	13.870	972.778	728.359
128.395	13.813	971.812	727.321
129.410	13.849	970.773	726.635
130.424	13.836	970.167	726.061
131.439	13.830	968.981	725.084
132.454	13.753	968.577	724.380
133.468	13.747	967.878	723.767
134.483	13.942	966.763	723.720
135.497	13.978	965.979	723.224
136.512	13.902	965.274	722.302
137.527	13.846	964.374	721.323
138.541	13.855	964.045	721.049
139.556	13.870	962.729	720.069
140.570	13.851	962.231	719.549
141.585	13.986	961.162	719.271
142.600	13.990	960.728	718.901
143.614	14.044	960.054	718.565
144.629	14.140	959.291	718.347
145.643	14.088	958.589	717.530
146.658	14.080	957.722	716.784
147.673	14.096	956.834	716.124
148.687	13.931	956.295	714.947
149.702	14.030	954.972	714.320
150.716	14.089	953.851	713.673
151.731	14.122	952.843	712.999
152.746	14.141	952.644	712.868
153.760	14.051	952.068	711.986
154.775	14.028	951.482	711.390
155.789	14.135	950.201	710.826
156.804	14.136	949.777	710.447
157.819	14.326	948.178	709.998
158.833	14.112	948.637	709.369
159.848	14.233	947.443	708.929
160.862	14.283	946.940	708.701
161.877	14.186	946.002	707.526
162.892	14.094	945.581	706.757
163.906	14.127	944.573	706.079
164.921	14.231	943.529	705.678
165.935	14.069	942.885	704.445
166.950	14.060	941.778	703.522
167.964	14.243	940.820	703.515
168.979	14.240	939.806	702.682
169.994	14.197	938.975	701.818
171.008	14.240	938.070	701.260
172.023	14.172	937.565	700.534
173.037	14.313	936.803	700.498
174.052	14.252	936.145	699.687
175.067	14.334	935.277	699.318
176.081	14.201	934.705	698.273
177.096	14.332	933.506	697.865
178.110	14.217	932.748	696.752
179.125	14.349	931.755	696.501
180.140	14.303	931.150	695.797
181.154	14.287	930.644	695.290
182.169	14.371	929.952	695.061
183.183	14.359	929.073	694.293
184.198	14.495	928.495	694.364
185.213	14.368	927.784	693.245
186.227	14.384	927.295	692.883
187.242	14.436	926.830	692.692
188.256	14.505	925.934	692.247
189.271	14.560	925.321	691.957
190.286	14.650	924.404	691.582
191.300	14.524	923.576	690.378
192.315	14.524	922.966	689.861
193.329	14.432	922.122	688.790
194.344	14.358	921.870	688.237
195.359	14.378	921.448	687.941
196.373	14.549	920.704	688.032
197.388	14.560	919.982	687.474
198.402	14.509	919.637	686.947
199.417	14.480	919.780	686.876
200.432	14.762	918.527	687.038
201.446	14.651	918.146	686.234
202.461	14.771	918.116	686.645
203.475	14.755	917.322	685.924
204.490	14.798	916.471	685.405
205.504	14.824	915.450	684.686
206.519	14.716	915.054	683.888
207.534	14.657	914.367	683.073
208.548	14.791	913.600	682.986
209.563	14.736	912.910	682.187
210.577	14.780	911.980	681.612
211.592	14.829	911.356	681.284
212.607	14.840	910.872	680.906
213.621	14.863	910.216	680.447
214.636	14.817	909.368	679.570
215.650	14.954	908.811	679.649
216.665	14.801	908.048	678.397
217.680	14.810	908.361	678.605
218.694	15.036	907.238	678.622
219.709	15.001	906.958	678.211
220.723	14.937	906.166	677.303
221.738	14.994	905.663	677.098
222.753	14.930	905.160	676.403
223.767	14.902	904.263	675.560
224.782	15.087	902.993	675.294
225.796	14.928	902.613	674.311
226.811	14.978	901.947	673.955
227.826	14.947	901.279	673.270
228.840	15.017	900.718	673.074
229.855	15.036	899.817	672.418
230.869	14.983	899.114	671.619
231.884	15.082	898.498	671.497
232.899	15.075	897.908	670.971
233.913	15.160	896.965	670.547
234.928	15.042	896.786	669.880
235.942	15.130	895.785	669.427
236.957	15.119	895.084	668.798
237.972	15.111	894.697	668.417
238.986	15.238	893.940	668.298
240.001	15.173	893.155	667.393
241.015	15.163	892.463	666.780
242.030	15.096	892.258	666.300
243.045	15.185	891.095	665.726
244.059	15.116	890.917	665.260
245.074	15.180	889.816	664.631
246.088	15.285	888.965	664.354
247.103	15.253	888.870	664.098
248.117	15.305	888.361	663.865
249.132	15.278	887.350	662.944
250.147	15.486	886.730	663.244
251.161	15.460	886.288	662.753
252.176	15.444	885.628	662.136
253.190	15.446	884.741	661.424
254.205	15.549	884.113	661.300
255.220	15.573	883.807	661.106
256.234	15.498	883.091	660.217
257.249	15.647	882.267	660.129
258.263	15.596	881.930	659.620
259.278	15.691	881.278	659.445
260.293	15.641	880.533	658.634
261.307	15.556	880.479	658.200
262.322	15.726	879.750	658.263
263.336	15.613	879.016	657.214
264.351	15.826	878.080	657.287
265.366	15.820	877.336	656.649
266.380	15.915	877.175	656.844
267.395	15.803	876.511	655.850
268.409	15.734	876.020	655.154
269.424	15.763	875.267	654.648
270.439	15.787	874.495	654.104
271.453	15.826	873.479	653.439
272.468	15.721	872.956	652.583
273.482	15.729	872.106	651.922
274.497	15.842	871.694	651.992
275.512	15.941	870.473	651.405
276.526	15.806	870.173	650.602
277.541	15.834	869.669	650.275
278.555	15.989	868.609	650.024
279.570	15.863	868.419	649.338
280.585	15.942	867.845	649.154
281.599	16.107	867.149	649.212
282.614	15.943	867.162	648.532
283.628	16.073	866.119	648.194
284.643	16.013	865.465	647.418
285.657	16.021	864.887	646.961
286.672	15.978	864.688	646.589
287.687	16.062	864.184	646.475
288.701	16.014	863.751	645.913
289.716	16.011	863.225	645.449
290.730	16.216	861.946	645.217
291.745	16.059	861.875	644.509
292.760	16.139	861.080	644.163
293.774	16.177	860.184	643.582
294.789	16.203	860.005	643.491
295.803	16.117	859.337	642.603
296.818	16.296	858.456	642.570
297.833	16.300	857.705	641.967
298.847	16.263	857.184	641.380
299.862	16.229	856.663	640.805
300.876	16.174	856.084	640.106
301.891	16.267	855.125	639.682
302.906	16.316	854.448	639.308
303.920	16.338	853.942	638.954
304.935	16.323	853.722	638.678
305.949	16.339	852.978	638.126
306.964	16.450	852.190	637.896
307.979	16.597	851.531	637.902
308.993	16.587	851.092	637.478
310.008	16.478	850.172	636.321
311.022	16.541	849.669	636.127
312.037	16.436	849.598	635.623
313.052	16.413	849.448	635.368
314.066	16.469	848.567	634.864
315.081	16.555	847.950	634.669
316.095	16.377	847.415	633.544
317.110	16.473	846.810	633.395
318.125	16.538	846.293	633.196
319.139	16.462	845.809	632.494
320.154	16.430	845.140	631.817
321.168	16.498	844.656	631.654
322.183	16.516	844.369	631.450
323.197	16.503	843.620	630.787
324.212	16.670	842.717	630.678
325.227	16.686	842.422	630.458
326.241	16.561	841.890	629.540
327.256	16.629	841.174	629.201
328.270	16.713	840.769	629.157
329.285	16.708	840.327	628.750
330.300	16.592	839.810	627.877
331.314	16.672	839.199	627.660
332.329	16.718	838.161	627.000
333.343	16.717	837.560	626.490
334.358	16.735	837.039	626.112
335.373	16.858	836.636	626.209
336.387	16.698	836.184	625.227
337.402	16.704	835.842	624.937
338.416	16.615	835.363	624.195
339.431	16.779	834.486	624.091
340.446	16.960	833.812	624.197
341.460	16.971	833.457	623.916
342.475	16.866	832.951	623.097
343.489	17.023	832.519	623.295
344.504	16.909	831.758	622.252
345.519	17.061	831.454	622.526
346.533	16.936	831.147	621.782
347.548	17.103	830.131	621.581
348.562	17.021	829.560	620.798
349.577	17.007	829.306	620.502
350.592	17.040	828.669	620.090
351.606	16.898	828.420	619.329
352.621	16.916	827.985	619.017
353.635	17.003	827.674	619.045
354.650	17.051	827.294	618.882
355.665	17.093	826.708	618.541
356.679	17.078	826.200	618.051
357.694	17.095	825.980	617.896
358.708	17.027	825.135	616.962
359.723	17.163	824.262	616.748
360.738	17.014	824.338	616.210
361.752	17.216	823.306	616.116
362.767	17.134	823.422	615.851
363.781	17.125	822.774	615.280
364.796	17.342	822.132	615.528
365.810	17.175	822.128	614.867
366.825	17.282	821.155	614.471
367.840	17.352	821.103	614.630
368.854	17.349	820.612	614.200
369.869	17.422	819.681	613.712
370.883	17.388	819.339	613.280
371.898	17.325	818.796	612.589
372.913	17.345	818.151	612.126
373.927	17.498	817.814	612.369
374.942	17.466	817.288	611.808
375.956	17.599	816.289	611.483
376.971	17.608	815.558	610.911
377.986	17.603	815.298	610.647
379.000	17.538	815.045	610.171
380.015	17.563	814.482	609.784
381.029	17.644	813.774	609.491
382.044	17.723	813.314	609.372
383.059	17.568	812.870	608.433
384.073	17.709	812.187	608.372
385.088	17.653	811.643	607.712
386.102	17.458	811.324	606.721
387.117	17.505	810.617	606.306
388.132	17.534	810.131	605.993
389.146	17.648	809.580	605.931
390.161	17.695	809.512	605.996
391.175	17.696	808.742	605.371
392.190	17.752	808.483	605.321
393.205	17.655	808.238	604.740
394.219	17.651	808.026	604.513
395.234	17.668	807.260	603.946
396.248	17.629	806.512	603.197
397.263	17.668	806.314	603.132
398.278	17.685	805.839	602.782
399.292	17.723	805.449	602.572
400.307	17.740	804.567	601.921
401.321	17.911	803.997	602.044
402.336	17.782	803.684	601.301
403.350	17.796	803.716	601.320
404.365	17.714	803.148	600.552
405.380	17.959	802.674	601.008
406.394	17.898	802.100	600.309
407.409	17.868	801.859	599.972
408.423	17.985	801.144	599.794
409.438	18.062	800.694	599.676
410.453	17.992	800.302	599.083
411.467	17.924	799.944	598.523
412.482	18.195	799.452	599.052
413.496	18.017	799.049	598.073
414.511	18.105	798.815	598.152
415.526	18.115	798.335	597.776
416.540	18.203	798.170	597.906
417.555	18.232	797.511	597.463
418.569	18.171	796.743	596.622
419.584	18.250	796.425	596.605
420.599	18.153	796.051	595.936
421.613	115.921	1298.111	1490.843
422.628	99.939	1371.203	1490.923
