DTS Sentinel unit serial number:	SN413079Multiplexer serial number:	ORYXHardware model number:	OX4-SRSoftware version number:	ORYX F/W v4.00 Oryx Data Collector v3.7.2.0data status	okinstallation	princeton_trtdifferential loss correction	single-endedforward channel	channel 3reverse channel	N/Adate	2019/09/16time	01:40:35forward acquisition time	60.00reverse acquisition time	0.00gamma	496.2192k internal	0.2337k external	0.2337temperature offset calibration	0.9950default loss term (dB/km)	0.3790temperature slope calibration	1.0000multiplexer offset coefficient	1.0000multiplexer slope coefficient	1.0000fibre end	0.00T internal ref (°C)	27.33T ext. ref 1 (°C)	9.97T ext. ref 2 (°C)	22.25length (m)	temperature (°C)	Stokes	anti-Stokes-747.200	-112.468	0.320	0.064
-746.185	-28.580	-0.182	-0.105
-745.171	800.000	0.022	-0.068
-744.156	-115.905	-0.200	0.037
-743.142	-142.829	0.192	0.019
-742.127	-26.293	-0.275	0.162
-741.112	-106.555	-0.199	0.044
-740.098	10.169	0.089	0.068
-739.083	10.046	-0.225	0.172
-738.069	418.691	0.097	0.208
-737.054	-60.193	-0.362	0.155
-736.039	142.517	-0.099	-0.132
-735.025	-2.189	0.129	0.091
-734.010	99.408	-0.074	0.086
-732.996	-200.000	-0.050	0.240
-731.981	228.020	0.142	-0.232
-730.966	800.000	0.031	-0.092
-729.952	-188.878	0.040	0.000
-728.937	-200.000	-0.009	-0.227
-727.923	-21.767	-0.224	-0.137
-726.908	800.000	-0.085	-0.274
-725.894	366.533	-0.060	-0.121
-724.879	800.000	0.109	0.431
-723.864	12.324	0.006	0.004
-722.850	152.895	-0.354	-0.486
-721.835	-41.199	0.032	-0.017
-720.821	1.586	-0.041	0.029
-719.806	-200.000	0.029	0.266
-718.791	800.000	0.047	-0.158
-717.777	-132.093	0.301	-0.039
-716.762	-142.827	-0.203	0.020
-715.748	800.000	0.072	-0.228
-714.733	131.447	-0.145	-0.187
-713.718	800.000	-0.094	-0.378
-712.704	-200.000	0.011	-0.154
-711.689	-61.441	-0.058	0.025
-710.675	118.386	0.050	0.062
-709.660	467.349	-0.073	0.163
-708.645	323.255	-0.098	-0.188
-707.631	-200.000	-0.079	0.375
-706.616	-63.620	0.453	0.186
-705.602	172.244	0.159	-0.229
-704.587	249.703	0.072	0.122
-703.572	-200.000	-0.018	0.116
-702.558	295.470	0.129	0.236
-701.543	-112.891	0.252	-0.050
-700.529	72.729	-0.140	-0.147
-699.514	800.000	-0.027	-0.118
-698.499	-128.330	-0.124	-0.018
-697.485	25.880	0.140	0.117
-696.470	-200.000	-0.042	-0.550
-695.456	-51.327	-0.139	-0.065
-694.441	-200.000	-0.002	0.007
-693.426	-200.000	0.034	-0.194
-692.412	800.000	0.027	0.076
-691.397	800.000	-0.088	0.333
-690.383	800.000	-0.052	0.145
-689.368	800.000	0.073	0.204
-688.354	-91.688	0.060	0.017
-687.339	5.682	0.203	0.150
-686.324	-140.172	0.210	0.022
-685.310	800.000	0.016	0.046
-684.295	5.470	-0.209	-0.155
-683.281	97.467	0.170	0.196
-682.266	-75.909	-0.067	0.024
-681.251	800.000	-0.093	0.360
-680.237	-20.641	-0.204	-0.125
-679.222	361.761	0.035	-0.070
-678.208	148.824	0.101	-0.137
-677.193	30.350	0.120	-0.103
-676.178	35.401	-0.215	0.189
-675.164	-54.706	-0.140	0.063
-674.149	-139.090	-0.380	-0.041
-673.135	208.502	0.047	-0.074
-672.120	-7.438	-0.153	-0.104
-671.105	26.617	0.064	-0.054
-670.091	741.813	-0.126	-0.339
-669.076	35.598	0.163	-0.144
-668.062	548.490	-0.114	-0.272
-667.047	-200.000	-0.003	0.153
-666.032	726.994	0.039	0.105
-665.018	-96.628	0.181	-0.048
-664.003	18.774	-0.191	0.153
-662.989	800.000	-0.085	0.368
-661.974	58.103	-0.094	-0.093
-660.959	-174.867	-0.096	0.003
-659.945	-200.000	-0.102	0.000
-658.930	162.993	0.288	-0.405
-657.916	558.552	-0.027	0.064
-656.901	41.983	-0.082	0.074
-655.886	186.748	-0.197	-0.293
-654.872	-76.171	-0.057	0.020
-653.857	238.451	-0.226	-0.376
-652.843	54.602	0.151	-0.145
-651.828	-125.669	0.256	0.039
-650.814	-118.890	0.138	-0.024
-649.799	-97.908	-0.135	-0.035
-648.784	-11.950	-0.242	-0.158
-647.770	56.388	0.205	-0.199
-646.755	-200.000	-0.020	-0.205
-645.741	163.223	0.081	0.114
-644.726	-200.000	-0.001	0.068
-643.711	-200.000	-0.025	-0.313
-642.697	-114.799	0.144	-0.027
-641.682	-200.000	0.050	0.279
-640.668	-192.749	0.157	-0.001
-639.653	139.954	0.174	0.229
-638.638	-4.835	-0.295	0.204
-637.624	189.715	0.114	0.171
-636.609	58.023	-0.144	-0.141
-635.595	-200.000	0.024	0.326
-634.580	-200.000	0.016	-0.076
-633.565	-96.417	-0.171	-0.045
-632.551	-158.233	-0.229	0.013
-631.536	-110.074	0.054	-0.011
-630.522	-2.630	0.394	0.275
-629.507	800.000	-0.059	0.246
-628.492	-43.199	-0.399	0.202
-627.478	-45.210	0.191	-0.095
-626.463	-71.866	0.257	-0.095
-625.449	42.161	-0.068	-0.062
-624.434	-41.165	0.060	0.031
-623.419	-47.254	0.051	-0.025
-622.405	61.308	-0.122	0.121
-621.390	168.103	0.059	-0.084
-620.376	-94.019	-0.224	-0.062
-619.361	39.357	0.338	-0.303
-618.346	-153.826	-0.338	-0.023
-617.332	368.278	0.128	0.258
-616.317	-49.837	-0.155	0.073
-615.303	-49.017	-0.293	-0.140
-614.288	-17.586	0.280	-0.176
-613.273	-200.000	-0.018	0.179
-612.259	-200.000	0.023	-0.117
-611.244	50.073	-0.206	-0.194
-610.230	55.987	-0.016	-0.016
-609.215	-131.283	-0.258	0.034
-608.201	-44.005	-0.095	-0.048
-607.186	-200.000	-0.086	0.452
-606.171	-131.488	0.108	0.014
-605.157	800.000	-0.150	-0.451
-604.142	-174.259	-0.309	0.009
-603.128	670.510	-0.028	-0.074
-602.113	-68.340	-0.386	0.150
-601.098	43.115	-0.204	-0.186
-600.084	401.692	0.080	-0.167
-599.069	205.025	-0.097	-0.151
-598.055	91.749	0.213	0.239
-597.040	-200.000	-0.019	-0.173
-596.025	79.586	0.298	-0.319
-595.011	36.471	0.115	0.101
-593.996	-98.569	0.447	-0.114
-592.982	-197.385	-0.153	-0.001
-591.967	-33.696	0.104	0.057
-590.952	-63.678	-0.293	0.120
-589.938	-155.425	-0.486	-0.031
-588.923	-39.798	-0.239	-0.124
-587.909	-112.306	-0.211	0.042
-586.894	158.339	-0.117	0.162
-585.879	800.000	0.063	0.220
-584.865	17.844	-0.305	-0.243
-583.850	-200.000	0.024	-0.163
-582.836	-91.613	0.448	0.127
-581.821	18.354	-0.178	0.142
-580.806	-200.000	-0.035	-0.345
-579.792	106.626	0.067	-0.079
-578.777	54.498	0.208	-0.200
-577.763	800.000	-0.022	0.078
-576.748	130.641	-0.227	-0.290
-575.733	81.164	-0.082	-0.088
-574.719	-77.469	0.143	0.049
-573.704	-200.000	-0.027	-0.379
-572.690	3.061	-0.155	0.113
-571.675	-56.935	-0.292	0.129
-570.661	23.628	-0.176	-0.144
-569.646	516.145	-0.093	-0.216
-568.631	79.113	0.193	-0.206
-567.617	205.852	-0.025	-0.039
-566.602	-139.268	0.178	-0.019
-565.588	6.370	0.190	0.140
-564.573	-193.533	0.390	0.003
-563.558	18.320	0.133	0.106
-562.544	-200.000	0.012	0.145
-561.529	239.954	0.169	-0.281
-560.515	76.346	-0.342	0.361
-559.500	-176.001	-0.459	-0.012
-558.485	314.119	-0.135	-0.252
-557.471	180.838	-0.294	-0.430
-556.456	-131.039	-0.057	-0.008
-555.442	800.000	-0.056	-0.208
-554.427	-200.000	0.023	0.281
-553.412	-38.539	0.130	0.068
-552.398	-200.000	0.013	-0.138
-551.383	165.716	0.122	0.172
-550.369	-100.021	-0.126	-0.031
-549.354	-191.822	0.293	0.003
-548.339	-83.789	-0.111	0.035
-547.325	-200.000	0.045	-0.231
-546.310	227.761	0.087	0.140
-545.296	-122.344	0.168	0.027
-544.281	676.490	0.157	-0.407
-543.266	-24.328	-0.346	-0.206
-542.252	52.942	0.193	0.184
-541.237	5.322	-0.213	0.157
-540.223	800.000	0.083	0.354
-539.208	-200.000	0.014	-0.135
-538.193	-200.000	-0.021	0.215
-537.179	457.915	0.098	0.216
-536.164	-23.193	-0.133	0.080
-535.150	-105.875	0.286	-0.064
-534.135	-200.000	0.007	-0.097
-533.121	-25.403	-0.259	-0.152
-532.106	-47.471	-0.295	0.143
-531.091	-200.000	-0.005	0.252
-530.077	134.794	0.207	0.268
-529.062	-200.000	-0.022	0.196
-528.048	113.187	-0.053	-0.064
-527.033	-113.042	0.381	-0.075
-526.018	790.078	-0.050	-0.135
-525.004	124.902	-0.203	-0.254
-523.989	-18.880	-0.116	-0.072
-522.975	800.000	0.172	-0.556
-521.960	-10.494	0.131	-0.087
-520.945	35.381	0.095	0.083
-519.931	-121.972	-0.230	0.038
-518.916	6.107	-0.168	-0.124
-517.902	-50.152	0.153	0.072
-516.887	539.962	-0.045	-0.105
-515.872	63.522	0.141	0.141
-514.858	800.000	-0.096	0.264
-513.843	66.935	-0.095	0.097
-512.829	-163.955	-0.159	-0.007
-511.814	-64.048	0.302	-0.123
-510.799	-200.000	-0.034	-0.269
-509.785	187.777	-0.160	0.238
-508.770	54.007	0.036	0.034
-507.756	-71.479	-0.301	-0.112
-506.741	-200.000	0.033	0.345
-505.726	-51.663	-0.145	0.067
-504.712	-119.196	-0.160	0.028
-503.697	800.000	0.074	-0.206
-502.683	29.517	0.285	0.241
-501.668	60.948	-0.183	0.181
-500.653	-77.481	-0.450	-0.155
-499.639	-34.289	-0.219	-0.119
-498.624	-200.000	-0.009	-0.140
-497.610	408.603	-0.028	-0.058
-496.595	-36.470	0.214	0.114
-495.581	800.000	-0.044	-0.122
-494.566	423.042	0.152	-0.324
-493.551	-200.000	-0.045	-0.238
-492.537	144.936	0.093	0.123
-491.522	-100.480	0.166	0.041
-490.508	586.654	0.087	-0.213
-489.493	92.264	0.054	-0.060
-488.478	-55.555	0.143	-0.064
-487.464	-38.982	-0.167	0.087
-486.449	19.990	-0.166	-0.133
-485.435	88.740	-0.302	-0.334
-484.420	140.936	0.029	-0.038
-483.405	298.136	0.106	0.195
-482.391	121.127	0.201	-0.249
-481.376	12.903	0.155	0.119
-480.362	-109.383	0.171	0.036
-479.347	214.067	-0.085	-0.134
-478.332	-129.306	0.164	0.023
-477.318	-200.000	-0.008	-0.065
-476.303	-200.000	-0.012	0.068
-475.289	-34.582	0.274	-0.149
-474.274	-200.000	-0.014	-0.087
-473.259	718.308	0.033	-0.086
-472.245	309.499	-0.113	0.210
-471.230	81.330	-0.233	-0.251
-470.216	68.608	-0.170	-0.174
-469.201	74.415	-0.154	-0.161
-468.186	-200.000	-0.021	0.188
-467.172	-52.050	0.341	-0.157
-466.157	-10.247	0.178	-0.118
-465.143	-2.035	-0.155	-0.108
-464.128	73.021	-0.237	0.246
-463.113	255.118	0.164	0.279
-462.099	-200.000	-0.023	-0.213
-461.084	-132.625	-0.307	-0.039
-460.070	-23.954	0.117	0.070
-459.055	800.000	-0.113	0.455
-458.040	-200.000	-0.025	0.286
-457.026	713.481	-0.118	0.310
-456.011	-110.609	-0.058	-0.012
-454.997	-200.000	-0.012	0.229
-453.982	-200.000	-0.010	-0.100
-452.968	-12.829	-0.082	0.053
-451.953	-88.126	0.293	-0.087
-450.938	4.301	0.089	-0.065
-449.924	-68.502	-0.535	0.206
-448.909	-200.000	0.115	0.579
-447.895	-101.941	0.043	-0.010
-446.880	-200.000	-0.050	-0.314
-445.865	305.296	0.145	0.267
-444.851	-81.291	-0.384	-0.126
-443.836	-81.309	0.195	0.064
-442.822	-200.000	0.013	0.060
-441.807	-80.800	0.192	0.063
-440.792	-29.873	0.244	-0.138
-439.778	-92.761	0.196	0.054
-438.763	-117.976	0.123	0.022
-437.749	-55.009	0.214	-0.096
-436.734	9.113	-0.343	-0.257
-435.719	137.906	-0.008	-0.010
-434.705	-14.372	0.297	0.190
-433.690	800.000	0.095	-0.344
-432.676	-84.027	0.067	-0.021
-431.661	-136.716	-0.127	0.015
-430.646	-10.579	-0.057	-0.037
-429.632	800.000	-0.090	-0.306
-428.617	281.493	0.129	-0.229
-427.603	800.000	-0.041	-0.135
-426.588	211.317	-0.162	0.253
-425.573	301.672	-0.217	-0.398
-424.559	143.899	0.203	-0.269
-423.544	30.043	0.149	0.126
-422.530	384.562	-0.088	-0.181
-421.515	239.283	-0.056	0.092
-420.500	-200.000	-0.069	0.308
-419.486	298.047	0.179	0.327
-418.471	193.134	-0.095	-0.143
-417.457	-119.248	0.068	0.012
-416.442	4.413	0.289	-0.210
-415.428	-89.133	-0.356	-0.104
-414.413	-200.000	-0.005	0.187
-413.398	-200.000	0.004	0.145
-412.384	304.436	0.028	0.052
-411.369	-92.144	-0.210	-0.059
-410.355	-15.524	-0.137	-0.087
-409.340	-67.407	0.100	0.039
-408.325	434.701	0.044	-0.095
-407.311	150.940	0.027	-0.036
-406.296	63.030	-0.027	0.027
-405.282	-70.339	-0.236	-0.089
-404.267	251.589	0.152	-0.256
-403.252	340.959	0.194	0.376
-402.238	-118.932	0.113	-0.020
-401.223	37.974	0.130	0.115
-400.209	800.000	0.073	0.243
-399.194	-108.698	-0.186	-0.040
-398.179	-134.274	0.234	-0.029
-397.165	153.484	0.176	0.239
-396.150	22.217	0.098	0.079
-395.136	130.782	0.098	0.125
-394.121	-200.000	0.039	0.332
-393.106	-200.000	-0.026	0.150
-392.092	800.000	0.109	-0.402
-391.077	297.036	0.133	-0.242
-390.063	-200.000	-0.037	-0.230
-389.048	-27.238	0.191	0.110
-388.033	162.711	0.062	0.087
-387.019	-167.002	-0.241	-0.010
-386.004	-77.039	0.071	-0.025
-384.990	39.014	-0.136	-0.120
-383.975	112.330	0.173	-0.208
-382.960	800.000	-0.065	0.178
-381.946	133.405	0.094	-0.120
-380.931	-99.697	0.115	0.029
-379.917	107.425	0.142	-0.167
-378.902	-200.000	-0.007	-0.123
-377.888	41.525	0.066	-0.059
-376.873	12.122	0.101	-0.077
-375.858	-157.090	0.058	-0.003
-374.844	512.309	-0.049	0.112
-373.829	-126.938	0.131	0.019
-372.815	-104.168	-0.102	-0.024
-371.800	800.000	-0.107	-0.304
-370.785	219.124	-0.032	0.050
-369.771	-13.650	0.246	-0.158
-368.756	-93.199	-0.070	0.019
-367.742	-78.590	0.027	0.009
-366.727	-84.399	0.362	-0.113
-365.712	800.000	0.044	0.132
-364.698	72.608	-0.217	-0.224
-363.683	-86.915	0.355	0.107
-362.669	26.485	-0.187	-0.154
-361.654	300.843	-0.146	-0.266
-360.639	-113.660	0.282	0.054
-359.625	46.510	-0.062	-0.057
-358.610	800.000	-0.100	-0.293
-357.596	118.991	0.020	-0.025
-356.581	-99.580	-0.121	-0.030
-355.566	364.130	0.085	-0.170
-354.552	7.209	-0.078	-0.058
-353.537	39.554	0.097	0.086
-352.523	-24.490	0.357	0.210
-351.508	-200.000	-0.017	0.083
-350.493	-200.000	-0.014	0.075
-349.479	-81.291	0.114	-0.037
-348.464	-55.958	-0.197	-0.087
-347.450	-199.204	-0.181	-0.001
-346.435	-200.000	-0.015	-0.137
-345.420	-25.216	-0.280	0.164
-344.406	-77.981	0.184	-0.063
-343.391	-103.751	-0.113	0.026
-342.377	361.683	-0.153	0.303
-341.362	-97.973	0.451	-0.115
-340.348	776.209	0.072	-0.194
-339.333	178.250	0.117	-0.169
-338.318	431.491	-0.261	0.559
-337.304	169.939	0.257	0.363
-336.289	390.360	-0.124	0.253
-335.275	-200.000	0.022	-0.279
-334.260	-141.924	-0.198	-0.020
-333.245	92.971	-0.108	-0.120
-332.231	-86.195	0.165	0.050
-331.216	45.158	-0.173	-0.158
-330.202	-58.382	0.137	0.059
-329.187	2.782	-0.288	-0.206
-328.172	-68.807	-0.320	-0.122
-327.158	221.950	-0.108	0.172
-326.143	610.283	0.052	0.130
-325.129	800.000	0.048	0.157
-324.114	255.147	0.141	-0.238
-323.099	800.000	0.048	0.157
-322.085	430.615	-0.063	-0.135
-321.070	-110.467	-0.023	0.005
-320.056	-1.983	0.295	0.204
-319.041	286.035	-0.067	-0.120
-318.026	24.635	0.159	-0.130
-317.012	-200.000	0.019	0.370
-315.997	-47.232	-0.069	-0.033
-314.983	-35.876	0.158	0.084
-313.968	50.990	0.197	-0.184
-312.953	600.558	-0.156	-0.382
-311.939	450.670	0.119	0.259
-310.924	491.824	0.081	0.182
-309.910	-140.086	0.293	0.030
-308.895	544.043	-0.086	0.202
-307.880	800.000	0.039	-0.116
-306.866	228.981	0.139	0.223
-305.851	-180.987	0.271	0.005
-304.837	-133.327	-0.267	0.033
-303.822	-153.902	-0.116	-0.008
-302.807	-42.057	-0.240	0.121
-301.793	-138.355	0.407	-0.044
-300.778	50.739	0.147	0.138
-299.764	-73.824	-0.092	0.033
-298.749	-200.000	0.008	-0.337
-297.735	-165.207	-0.343	-0.015
-296.720	405.969	-0.081	0.169
-295.705	-20.021	0.285	0.174
-294.691	-142.021	-0.313	-0.031
-293.676	-200.000	-0.020	0.313
-292.662	-48.265	-0.071	-0.034
-291.647	93.012	-0.152	-0.170
-290.632	-78.202	-0.198	0.067
-289.618	800.000	-0.090	0.287
-288.603	-144.580	0.077	-0.007
-287.589	24.472	0.158	-0.129
-286.574	-200.000	0.008	-0.230
-285.559	-112.107	-0.238	-0.047
-284.545	361.295	-0.121	0.240
-283.530	316.376	0.268	-0.500
-282.516	220.123	0.143	-0.226
-281.501	-5.112	-0.159	0.108
-280.486	77.343	0.246	0.258
-279.472	-42.568	-0.261	0.131
-278.457	5.822	0.239	-0.174
-277.443	-10.197	-0.335	0.220
-276.428	-191.324	-0.081	-0.001
-275.413	-73.137	0.353	0.128
-274.399	27.204	-0.086	0.071
-273.384	610.555	0.100	-0.247
-272.370	-73.042	-0.035	-0.013
-271.355	-149.119	0.457	-0.036
-270.340	-62.868	0.201	0.082
-269.326	111.900	-0.201	0.239
-268.311	-33.067	-0.113	0.062
-267.297	309.306	0.061	0.113
-266.282	9.370	-0.015	0.011
-265.267	-178.249	-0.133	-0.003
-264.253	236.126	-0.100	0.163
-263.238	-200.000	0.089	0.390
-262.224	-0.798	0.152	-0.106
-261.209	-28.295	0.119	-0.068
-260.195	614.828	-0.094	0.231
-259.180	-104.723	-0.252	0.057
-258.165	115.883	0.068	-0.082
-257.151	-159.575	-0.226	0.012
-256.136	-54.578	0.116	0.052
-255.122	800.000	0.027	-0.096
-254.107	800.000	0.077	-0.259
-253.092	-110.895	-0.126	0.026
-252.078	86.054	-0.171	0.185
-251.063	-31.470	0.182	0.101
-250.049	-108.348	-0.216	0.046
-249.034	-200.000	0.024	-0.115
-248.019	-3.239	0.088	0.060
-247.005	-60.380	0.138	0.058
-245.990	112.374	0.192	0.229
-244.976	-200.000	-0.045	0.263
-243.961	-33.484	0.257	-0.140
-242.946	-128.906	-0.047	-0.006
-241.932	228.744	0.077	-0.124
-240.917	20.485	0.152	0.121
-239.903	-151.340	0.148	-0.011
-238.888	-200.000	-0.037	-0.370
-237.873	-38.650	-0.234	0.122
-236.859	-52.694	-0.041	0.019
-235.844	78.394	-0.129	0.136
-234.830	285.886	-0.173	-0.307
-233.815	74.730	-0.081	-0.084
-232.800	415.140	0.110	-0.231
-231.786	-169.146	0.055	0.002
-230.771	310.749	0.091	-0.167
-229.757	-200.000	0.003	0.186
-228.742	256.889	0.053	0.089
-227.727	108.430	0.113	-0.132
-226.713	-200.000	-0.039	-0.174
-225.698	445.146	-0.028	-0.061
-224.684	-74.267	-0.204	0.073
-223.669	-86.298	-0.162	0.049
-222.655	-200.000	0.021	-0.250
-221.640	47.624	0.283	-0.260
-220.625	182.892	0.039	0.056
-219.611	-166.661	0.180	-0.007
-218.596	-200.000	-0.001	0.402
-217.582	119.784	0.181	0.221
-216.567	-46.515	0.297	0.143
-215.552	-13.885	0.095	-0.060
-214.538	82.995	0.095	0.101
-213.523	48.720	0.159	-0.147
-212.509	1.544	-0.301	0.213
-211.494	49.685	-0.144	0.133
-210.479	-165.233	-0.115	-0.005
-209.465	-95.434	0.145	-0.038
-208.450	38.535	-0.042	0.037
-207.436	-109.677	0.203	0.042
-206.421	94.402	-0.090	-0.100
-205.406	689.988	0.030	0.076
-204.392	-64.901	-0.021	0.008
-203.377	385.653	-0.077	-0.156
-202.363	210.595	0.074	-0.114
-201.348	663.320	0.127	-0.322
-200.333	-47.680	0.103	-0.049
-199.319	87.240	-0.155	0.168
-198.304	-157.707	0.056	0.003
-197.290	141.189	-0.095	0.124
-196.275	-25.568	-0.190	0.110
-195.260	51.962	-0.114	0.107
-194.246	-181.717	-0.382	-0.007
-193.231	-91.594	-0.364	0.102
-192.217	237.363	-0.171	0.278
-191.202	-151.226	0.277	0.020
-190.187	221.795	-0.074	0.117
-189.173	2.175	-0.172	0.122
-188.158	-200.000	-0.019	0.185
-187.144	-10.780	0.238	0.154
-186.129	182.405	-0.061	0.088
-185.114	139.083	0.038	-0.050
-184.100	-69.806	0.245	0.092
-183.085	24.045	-0.225	-0.182
-182.071	800.000	-0.077	-0.313
-181.056	-129.392	-0.087	-0.012
-180.042	800.000	-0.029	0.117
-179.027	-137.422	-0.350	-0.039
-178.012	67.398	0.247	0.247
-176.998	74.733	0.208	0.215
-175.983	-161.349	0.456	0.023
-174.969	-200.000	0.034	0.310
-173.954	121.848	-0.094	0.116
-172.939	17.198	-0.416	0.324
-171.925	205.306	0.027	0.041
-170.910	696.540	0.090	-0.232
-169.896	680.844	0.089	-0.227
-168.881	-43.668	0.130	-0.064
-167.866	-27.493	-0.218	0.124
-166.852	283.807	-0.082	-0.145
-165.837	40.480	-0.206	-0.182
-164.823	435.436	0.110	0.234
-163.808	-90.497	0.164	-0.047
-162.793	60.723	-0.252	0.245
-161.779	166.766	0.110	0.154
-160.764	-10.077	-0.117	-0.076
-159.750	758.463	-0.071	0.188
-158.735	-148.849	0.457	-0.036
-157.720	-160.742	0.031	-0.002
-156.706	800.000	0.069	-0.254
-155.691	-32.980	0.139	-0.076
-154.677	800.000	-0.019	0.079
-153.662	220.431	-0.185	0.290
-152.647	800.000	-0.056	0.196
-151.633	17.551	0.440	-0.343
-150.618	337.178	-0.104	-0.197
-149.604	8.820	-0.300	0.222
-148.589	153.827	-0.020	-0.026
-147.574	-112.644	0.300	-0.059
-146.560	490.107	0.100	-0.225
-145.545	233.982	0.230	-0.372
-144.531	602.346	-0.042	-0.102
-143.516	-130.983	0.250	-0.033
-142.502	-200.000	0.007	-0.120
-141.487	-63.964	0.184	0.074
-140.472	245.704	-0.048	0.080
-139.458	800.000	0.100	-0.280
-138.443	110.634	0.146	-0.172
-137.429	-200.000	0.023	-0.132
-136.414	-169.536	0.388	-0.014
-135.399	-119.682	0.319	-0.054
-134.385	800.000	-0.037	0.147
-133.370	100.790	-0.230	0.262
-132.356	-112.647	0.177	0.034
-131.341	-52.545	-0.130	-0.059
-130.326	188.879	0.068	-0.099
-129.312	357.003	0.084	-0.164
-128.297	-72.671	0.409	0.148
-127.283	92.901	-0.221	0.244
-126.268	-200.000	-0.003	-0.374
-125.253	-200.000	-0.037	-0.228
-124.239	-72.641	0.061	-0.022
-123.224	31.320	0.100	0.084
-122.210	122.854	-0.150	-0.184
-121.195	-200.000	-0.056	0.333
-120.180	266.755	-0.137	0.235
-119.166	-38.726	0.222	-0.115
-118.151	623.629	0.047	-0.115
-117.137	-63.184	-0.298	0.120
-116.122	-107.099	0.158	-0.034
-115.107	-200.000	-0.047	0.310
-114.093	37.280	-0.160	-0.139
-113.078	161.468	-0.107	-0.147
-112.064	-27.159	-0.031	-0.018
-111.049	25.496	0.056	0.046
-110.034	-97.608	0.204	0.052
-109.020	706.005	0.094	0.244
-108.005	46.366	-0.113	0.103
-106.991	55.409	0.180	0.170
-105.976	65.401	0.277	0.274
-104.962	21.119	0.071	-0.056
-103.947	800.000	0.082	-0.292
-102.932	-27.264	-0.089	-0.051
-101.918	-89.525	-0.327	-0.094
-100.903	-71.531	-0.177	-0.065
-99.889	584.802	-0.111	-0.266
-98.874	-65.207	-0.143	0.056
-97.859	-200.000	0.010	0.245
-96.845	800.000	-0.036	0.145
-95.830	72.496	-0.220	-0.225
-94.816	-189.602	-0.358	0.004
-93.801	170.506	-0.156	0.219
-92.786	623.351	-0.116	-0.285
-91.772	502.340	0.092	-0.209
-90.757	-200.000	0.035	0.236
-89.743	-95.238	0.125	-0.033
-88.728	79.161	0.155	0.162
-87.713	69.333	0.210	0.211
-86.699	800.000	-0.072	0.304
-85.684	800.000	-0.021	-0.088
-84.670	-65.772	0.022	-0.009
-83.655	-200.000	0.072	-0.368
-82.640	800.000	-0.061	0.251
-81.626	-104.760	-0.082	-0.018
-80.611	-43.896	0.023	-0.011
-79.597	-200.000	-0.015	0.328
-78.582	-138.302	-0.305	0.033
-77.567	230.880	0.164	-0.263
-76.553	-47.683	0.207	-0.098
-75.538	-123.237	0.183	0.029
-74.524	-200.000	0.017	0.246
-73.509	-200.000	0.028	-0.173
-72.494	-89.816	-0.179	-0.051
-71.480	-77.878	0.221	0.075
-70.465	-200.000	-0.026	0.147
-69.451	-78.730	0.288	-0.096
-68.436	-58.763	0.251	0.106
-67.422	-172.009	0.344	-0.011
-66.407	113.626	0.113	0.135
-65.392	-117.595	-0.405	-0.071
-64.378	-200.000	0.016	0.092
-63.363	-27.977	-0.211	-0.120
-62.349	-125.052	0.221	0.033
-61.334	349.503	-0.777	-1.500
-60.319	342.728	0.317	0.607
-59.305	414.298	-0.486	-1.012
-58.290	345.092	0.505	0.969
-57.276	741.201	0.509	1.337
-56.261	-200.000	114.499	645.401
-55.246	475.069	1503.236	3316.022
-54.232	149.184	2664.558	3523.311
-53.217	102.508	2165.213	2474.043
-52.203	37.624	1695.216	1470.081
-51.188	30.327	1513.171	1262.736
-50.173	28.268	1488.420	1228.241
-49.159	51.928	1545.775	1437.886
-48.144	50.721	1561.890	1444.576
-47.130	30.562	1518.852	1268.879
-46.115	27.576	1503.794	1236.035
-45.100	27.489	1499.438	1231.817
-44.086	27.439	1498.170	1230.391
-43.071	27.384	1496.172	1228.330
-42.057	27.288	1494.880	1226.575
-41.042	27.307	1493.184	1225.258
-40.027	27.251	1491.944	1223.814
-39.013	27.268	1490.293	1222.528
-37.998	27.218	1488.761	1220.888
-36.984	27.362	1487.794	1221.012
-35.969	27.294	1486.548	1219.485
-34.954	27.204	1485.186	1217.717
-33.940	27.244	1483.900	1216.882
-32.925	27.407	1481.867	1216.256
-31.911	27.370	1481.264	1215.465
-30.896	27.382	1479.619	1214.147
-29.881	27.365	1478.614	1213.162
-28.867	27.560	1476.649	1212.798
-27.852	27.380	1475.970	1210.996
-26.838	27.395	1474.612	1209.929
-25.823	27.333	1473.023	1208.166
-24.809	27.367	1471.734	1207.290
-23.794	27.407	1469.954	1206.048
-22.779	27.372	1468.911	1204.909
-21.765	27.337	1468.140	1203.999
-20.750	27.364	1466.368	1202.677
-19.736	27.333	1465.903	1202.043
-18.721	27.455	1464.325	1201.509
-17.706	27.220	1464.195	1199.801
-16.692	27.250	1462.867	1198.861
-15.677	27.399	1461.127	1198.372
-14.663	27.216	1460.725	1196.792
-13.648	27.327	1459.412	1196.393
-12.633	27.252	1459.188	1195.668
-11.619	27.290	1458.106	1194.989
-10.604	27.364	1457.059	1194.568
-9.590	27.278	1456.283	1193.320
-8.575	27.316	1455.117	1192.565
-7.560	27.387	1454.001	1192.071
-6.546	27.405	1453.438	1191.677
-5.531	27.263	1453.066	1190.398
-4.517	27.266	1451.985	1189.486
-3.502	27.333	1450.659	1188.789
-2.487	27.230	1449.964	1187.498
-1.473	27.292	1448.714	1186.830
-0.458	27.216	1447.510	1185.305
0.556	25.604	1437.667	1174.420
1.571	22.866	1413.579	1137.035
2.586	19.683	1354.259	1069.560
3.600	18.299	1271.124	995.768
4.615	17.149	1226.639	954.376
5.629	16.345	1174.045	909.047
6.644	13.236	1097.713	834.199
7.659	10.591	1062.493	794.427
8.673	10.078	1058.000	788.500
9.688	10.011	1054.361	785.393
10.702	9.903	1053.412	784.089
11.717	9.888	1051.370	782.427
12.731	11.129	1051.118	788.180
13.746	14.451	1055.014	807.143
14.761	17.143	1058.664	822.926
15.775	17.795	1058.301	825.729
16.790	17.082	1056.005	820.417
17.804	15.947	1053.957	813.280
18.819	15.019	1052.348	807.487
19.834	14.590	1050.272	803.758
20.848	14.286	1049.585	801.698
21.863	13.959	1048.744	799.413
22.877	13.724	1048.114	797.732
23.892	13.552	1047.366	796.265
24.907	13.480	1046.491	795.181
25.921	13.523	1045.843	794.825
26.936	13.497	1045.236	794.168
27.950	13.539	1043.977	793.341
28.965	13.560	1043.277	792.841
29.980	13.632	1042.097	792.218
30.994	13.601	1041.022	791.181
32.009	13.651	1040.143	790.682
33.023	13.753	1039.267	790.435
34.038	13.750	1038.319	789.629
35.053	13.756	1036.955	788.551
36.067	13.579	1036.432	787.240
37.082	13.555	1035.913	786.664
38.096	13.694	1034.920	786.498
39.111	13.677	1034.338	785.907
40.126	13.742	1033.093	785.197
41.140	13.645	1031.734	783.638
42.155	13.502	1031.084	782.402
43.169	13.498	1030.004	781.491
44.184	13.445	1029.264	780.613
45.199	13.483	1027.678	779.518
46.213	13.412	1027.024	778.618
47.228	13.530	1026.057	778.372
48.242	13.659	1025.185	778.249
49.257	13.550	1024.385	777.059
50.271	13.491	1023.587	776.110
51.286	13.570	1022.414	775.521
52.301	13.554	1021.659	774.805
53.315	13.679	1020.618	774.530
54.330	13.502	1020.306	773.399
55.344	13.520	1019.105	772.504
56.359	13.702	1017.767	772.270
57.374	13.571	1016.887	770.921
58.388	13.481	1016.648	770.257
59.403	13.542	1015.513	769.610
60.417	13.377	1014.820	768.253
61.432	13.479	1014.008	768.041
62.447	13.403	1013.312	767.095
63.461	13.261	1012.937	766.086
64.476	13.399	1011.571	765.621
65.490	13.429	1010.540	764.913
66.505	13.337	1009.997	764.012
67.520	13.435	1009.287	763.857
68.534	13.420	1008.208	762.903
69.549	13.393	1007.738	762.355
70.563	13.389	1007.158	761.834
71.578	13.340	1006.580	761.101
72.593	13.384	1005.404	760.348
73.607	13.412	1003.798	759.195
74.622	13.310	1003.521	758.449
75.636	13.269	1002.329	757.295
76.651	13.286	1001.773	756.885
77.666	13.243	1000.797	755.885
78.680	13.179	1000.648	755.412
79.695	13.408	999.534	755.549
80.709	13.431	999.055	755.225
81.724	13.395	998.217	754.360
82.739	13.407	997.704	753.959
83.753	13.441	996.855	753.410
84.768	13.528	996.051	753.129
85.782	13.719	994.942	753.093
86.797	13.703	994.399	752.539
87.812	13.712	993.603	751.913
88.826	13.613	993.285	751.159
89.841	13.605	991.805	749.933
90.855	13.584	990.930	749.112
91.870	13.645	990.506	748.999
92.884	13.884	989.443	749.209
93.899	13.789	988.740	748.182
94.914	13.669	988.031	747.039
95.928	13.802	987.070	746.845
96.943	13.760	986.993	746.532
97.957	13.571	986.546	745.277
98.972	13.746	985.035	744.855
99.987	13.754	984.475	744.400
101.001	13.748	983.434	743.522
102.016	13.618	982.821	742.412
103.030	13.649	982.026	741.885
104.045	13.870	980.868	741.929
105.060	13.614	980.438	740.398
106.074	13.640	979.204	739.514
107.089	13.638	978.241	738.715
108.103	13.478	977.641	737.480
109.118	13.411	976.376	736.163
110.133	13.547	975.492	736.039
111.147	13.474	974.637	735.004
112.162	13.371	974.000	734.002
113.176	13.530	973.527	734.283
114.191	13.508	972.700	733.498
115.206	13.583	971.556	732.902
116.220	13.491	971.120	732.101
117.235	13.571	969.879	731.454
118.249	13.548	968.853	730.516
119.264	13.529	968.362	729.998
120.279	13.503	967.369	729.068
121.293	13.465	967.015	728.570
122.308	13.499	965.477	727.496
123.322	13.429	965.131	726.865
124.337	13.466	963.909	726.044
125.352	13.543	962.572	725.308
126.366	13.468	961.417	724.047
127.381	13.258	960.839	722.630
128.395	13.378	959.847	722.344
129.410	13.419	958.457	721.412
130.424	13.507	957.789	721.229
131.439	13.477	957.264	720.636
132.454	13.594	956.135	720.231
133.468	13.533	955.248	719.236
134.483	13.477	954.933	718.692
135.497	13.648	954.022	718.683
136.512	13.559	953.356	717.734
137.527	13.579	952.866	717.390
138.541	13.613	951.953	716.783
139.556	13.646	951.508	716.528
140.570	13.548	950.471	715.259
141.585	13.549	949.703	714.624
142.600	13.712	949.422	715.051
143.614	13.581	948.802	713.959
144.629	13.802	947.842	714.123
145.643	13.831	946.954	713.513
146.658	13.812	946.263	712.851
147.673	13.744	944.967	711.519
148.687	13.661	944.371	710.653
149.702	13.547	943.649	709.557
150.716	13.712	942.438	709.290
151.731	13.636	941.581	708.258
152.746	13.576	940.974	707.479
153.760	13.655	940.272	707.226
154.775	13.694	939.687	706.892
155.789	13.686	938.771	706.106
156.804	13.630	938.293	705.444
157.819	13.698	937.315	704.936
158.833	13.737	936.798	704.653
159.848	13.755	936.127	704.159
160.862	13.865	935.449	704.057
161.877	13.949	934.315	703.496
162.892	13.902	933.792	702.842
163.906	13.741	933.248	701.686
164.921	13.625	932.824	700.817
165.935	13.709	931.281	699.951
166.950	13.697	930.555	699.290
167.964	13.851	929.209	698.866
168.979	13.761	928.251	697.706
169.994	13.734	927.716	697.128
171.008	13.712	927.079	696.497
172.023	13.842	926.283	696.380
173.037	13.942	925.078	695.833
174.052	13.974	924.314	695.329
175.067	13.892	923.827	694.560
176.081	13.956	923.092	694.212
177.096	13.832	922.249	692.998
178.110	13.912	921.056	692.375
179.125	13.799	920.437	691.376
180.140	13.970	919.766	691.523
181.154	13.992	919.120	691.071
182.169	13.855	918.469	689.951
183.183	14.017	918.003	690.213
184.198	14.118	917.101	689.892
185.213	14.015	916.746	689.135
186.227	14.067	915.614	688.441
187.242	14.220	914.962	688.520
188.256	14.220	914.539	688.144
189.271	14.156	913.942	687.368
190.286	14.268	912.743	686.867
191.300	14.250	912.009	686.182
192.315	13.889	911.545	684.283
193.329	13.917	910.828	683.798
194.344	13.927	910.043	683.188
195.359	13.877	909.838	682.770
196.373	14.101	908.895	682.921
197.388	14.025	908.568	682.306
198.402	14.203	908.110	682.629
199.417	14.221	907.863	682.458
200.432	14.380	907.499	682.774
201.446	14.454	906.744	682.451
202.461	14.379	906.247	681.709
203.475	14.385	906.044	681.521
204.490	14.507	904.913	681.108
205.504	14.351	904.158	679.844
206.519	14.433	903.005	679.251
207.534	14.312	902.606	678.396
208.548	14.275	902.376	678.012
209.563	14.443	901.659	678.096
210.577	14.335	901.081	677.165
211.592	14.313	900.390	676.496
212.607	14.474	899.449	676.382
213.621	14.556	899.168	676.444
214.636	14.388	898.554	675.240
215.650	14.472	897.904	675.032
216.665	14.445	897.083	674.244
217.680	14.444	896.877	674.027
218.694	14.589	896.535	674.298
219.709	14.630	895.628	673.720
220.723	14.611	894.889	673.029
221.738	14.744	893.879	672.743
222.753	14.604	893.479	671.821
223.767	14.437	893.023	670.745
224.782	14.623	892.013	670.677
225.796	14.689	891.492	670.489
226.811	14.750	890.852	670.193
227.826	14.634	890.217	669.191
228.840	14.675	889.548	668.795
229.855	14.646	888.721	667.997
230.869	14.564	888.297	667.292
231.884	14.682	887.384	667.017
232.899	14.673	886.831	666.506
233.913	14.641	886.354	665.964
234.928	14.627	885.323	665.075
235.942	14.762	884.431	664.882
236.957	14.635	884.205	664.148
237.972	14.550	883.599	663.296
238.986	14.530	883.082	662.771
240.001	14.659	882.049	662.445
241.015	14.622	881.569	661.879
242.030	14.638	881.090	661.526
243.045	14.768	880.196	661.313
244.059	14.707	879.847	660.748
245.074	14.731	879.066	660.199
246.088	14.735	878.431	659.679
247.103	14.884	878.187	660.025
248.117	14.816	877.367	659.085
249.132	14.865	876.888	658.858
250.147	15.149	876.149	659.363
251.161	15.080	875.282	658.381
252.176	15.082	875.125	658.213
253.190	15.218	874.060	657.886
254.205	15.143	873.494	657.108
255.220	15.185	873.029	656.864
256.234	15.335	872.074	656.677
257.249	15.188	871.718	655.774
258.263	15.208	871.483	655.619
259.278	15.372	870.142	655.191
260.293	15.187	870.084	654.369
261.307	15.329	869.232	654.222
262.322	15.361	868.689	653.882
263.336	15.336	868.274	653.413
264.351	15.464	867.711	653.431
265.366	15.467	866.832	652.721
266.380	15.334	866.417	651.834
267.395	15.480	865.963	652.001
268.409	15.438	865.216	651.219
269.424	15.277	864.732	650.172
270.439	15.384	863.529	649.628
271.453	15.396	862.692	648.985
272.468	15.418	862.171	648.621
273.482	15.265	861.838	647.723
274.497	15.634	860.711	648.241
275.512	15.405	860.531	647.165
276.526	15.381	859.838	646.495
277.541	15.463	858.799	645.973
278.555	15.434	858.456	645.546
279.570	15.555	857.536	645.262
280.585	15.622	857.111	645.142
281.599	15.615	856.940	644.928
282.614	15.498	856.436	644.042
283.628	15.569	855.577	643.610
284.643	15.573	855.031	643.161
285.657	15.555	854.788	642.852
286.672	15.642	854.042	642.566
287.687	15.504	853.438	641.529
288.701	15.629	853.338	641.871
289.716	15.671	852.068	641.022
290.730	15.648	851.539	640.480
291.745	15.741	851.062	640.418
292.760	15.750	850.355	639.864
293.774	15.717	849.843	639.297
294.789	15.732	849.487	639.029
295.803	15.868	848.650	638.860
296.818	15.679	848.143	637.705
297.833	15.861	846.782	637.313
298.847	15.810	846.539	636.879
299.862	15.817	845.659	636.190
300.876	15.796	845.435	635.886
301.891	15.733	844.841	635.144
302.906	15.825	843.936	634.752
303.920	15.945	843.424	634.766
304.935	16.046	842.667	634.519
305.949	15.931	842.382	633.816
306.964	16.101	841.561	633.782
307.979	16.117	840.971	633.340
308.993	16.112	840.650	633.024
310.008	16.071	840.026	632.345
311.022	16.092	839.482	631.957
312.037	16.130	839.102	631.758
313.052	16.126	838.540	631.263
314.066	15.966	837.636	629.928
315.081	15.924	837.225	629.407
316.095	15.975	836.843	629.255
317.110	16.025	836.038	628.782
318.125	15.936	835.978	628.349
319.139	16.105	834.822	628.055
320.154	15.965	834.854	627.501
321.168	15.925	834.511	627.038
322.183	15.959	833.946	626.683
323.197	16.007	833.288	626.312
324.212	16.187	832.293	626.178
325.227	15.982	832.095	625.214
326.241	16.110	831.237	624.987
327.256	16.027	830.870	624.347
328.270	15.967	830.388	623.710
329.285	16.175	829.808	623.989
330.300	16.160	829.321	623.510
331.314	16.050	829.004	622.811
332.329	16.131	828.032	622.325
333.343	16.202	827.331	622.004
334.358	16.212	827.007	621.742
335.373	16.057	826.704	620.889
336.387	16.247	825.834	620.880
337.402	16.255	825.526	620.623
338.416	16.498	824.553	620.728
339.431	16.342	824.545	620.094
340.446	16.320	823.914	619.486
341.460	16.363	823.453	619.240
342.475	16.602	822.436	619.295
343.489	16.498	822.271	618.735
344.504	16.659	821.553	618.730
345.519	16.625	821.160	618.255
346.533	16.559	820.983	617.826
347.548	16.700	820.361	617.818
348.562	16.608	819.824	617.025
349.577	16.601	819.041	616.355
350.592	16.574	818.356	615.683
351.606	16.363	818.121	614.685
352.621	16.547	817.165	614.584
353.635	16.483	817.055	614.213
354.650	16.587	816.941	614.449
355.665	16.601	816.806	614.344
356.679	16.515	815.988	613.365
357.694	16.636	815.364	613.279
358.708	16.657	814.520	612.665
359.723	16.496	814.290	611.857
360.738	16.598	813.967	611.928
361.752	16.504	813.215	610.969
362.767	16.679	812.812	611.242
363.781	16.717	812.539	611.122
364.796	16.803	812.076	611.031
365.810	16.831	811.471	610.620
366.825	16.737	811.364	610.147
367.840	16.902	810.663	610.160
368.854	16.945	810.440	610.093
369.869	16.830	810.285	609.509
370.883	17.012	809.131	609.239
371.898	16.781	809.013	608.268
372.913	16.841	808.412	607.977
373.927	16.950	807.620	607.718
374.942	16.926	806.947	607.074
375.956	17.122	806.317	607.247
376.971	17.004	805.754	606.347
377.986	17.105	805.042	606.117
379.000	17.241	804.456	606.110
380.015	17.198	804.297	605.783
381.029	17.142	803.692	605.074
382.044	17.180	803.282	604.846
383.059	17.192	802.641	604.353
384.073	17.232	802.068	604.009
385.088	17.057	801.694	603.053
386.102	17.162	800.907	602.782
387.117	17.124	800.492	602.282
388.132	17.095	800.035	601.779
389.146	17.081	799.984	601.639
390.161	17.147	799.143	601.187
391.175	17.309	798.631	601.321
392.190	17.307	798.446	601.120
393.205	17.199	798.054	600.393
394.219	17.272	797.706	600.333
395.234	17.228	797.150	599.709
396.248	17.162	796.500	598.934
397.263	17.045	796.439	598.422
398.278	17.207	795.453	598.200
399.292	17.253	794.544	597.625
400.307	17.221	794.181	597.185
401.321	17.225	794.203	597.164
402.336	17.354	793.831	597.283
403.350	17.180	793.886	596.660
404.365	17.265	793.372	596.519
405.380	17.270	793.173	596.335
406.394	17.394	792.309	596.067
407.409	17.420	791.963	595.846
408.423	17.532	791.362	595.731
409.438	17.549	790.899	595.390
410.453	17.598	790.606	595.290
411.467	17.620	790.054	594.897
412.482	17.627	789.464	594.424
413.496	17.592	789.216	594.064
414.511	17.824	788.646	594.389
415.526	17.743	788.644	594.053
416.540	17.760	788.036	593.602
417.555	17.688	787.691	593.039
418.569	17.709	786.964	592.511
419.584	17.626	786.882	592.110
420.599	17.503	786.470	591.318
421.613	111.686	1292.463	1475.637
422.628	95.864	1366.160	1475.755
