DTS Sentinel unit serial number:	SN413079Multiplexer serial number:	ORYXHardware model number:	OX4-SRSoftware version number:	ORYX F/W v4.00 Oryx Data Collector v3.7.2.0data status	okinstallation	princeton_trtdifferential loss correction	single-endedforward channel	channel 3reverse channel	N/Adate	2019/09/15time	22:04:34forward acquisition time	60.00reverse acquisition time	0.00gamma	496.2192k internal	0.2330k external	0.2330temperature offset calibration	0.9945default loss term (dB/km)	0.3790temperature slope calibration	1.0000multiplexer offset coefficient	1.0000multiplexer slope coefficient	1.0000fibre end	0.00T internal ref (°C)	29.75T ext. ref 1 (°C)	8.55T ext. ref 2 (°C)	22.98length (m)	temperature (°C)	Stokes	anti-Stokes-747.200	-200.000	-0.029	0.421
-746.185	273.502	-0.129	0.229
-745.171	-124.866	-0.080	-0.012
-744.156	-200.000	-0.009	0.175
-743.142	800.000	0.107	0.409
-742.127	38.917	-0.486	0.437
-741.112	260.257	-0.075	-0.130
-740.098	768.296	0.126	-0.344
-739.083	-73.845	0.192	-0.070
-738.069	23.403	-0.143	0.118
-737.054	-29.425	0.118	-0.068
-736.039	800.000	-0.102	-0.292
-735.025	-97.613	-0.084	-0.022
-734.010	-200.000	-0.019	-0.186
-732.996	-117.704	-0.242	-0.044
-731.981	258.376	-0.164	-0.285
-730.966	43.099	0.121	0.111
-729.952	800.000	-0.027	-0.091
-728.937	-30.604	-0.112	0.064
-727.923	-44.041	-0.299	-0.151
-726.908	800.000	0.056	0.201
-725.894	35.329	-0.263	0.232
-724.879	265.185	0.073	-0.128
-723.864	800.000	0.083	0.276
-722.850	-200.000	0.013	-0.132
-721.835	-105.804	-0.108	-0.025
-720.821	21.809	-0.088	0.072
-719.806	-62.368	0.157	0.066
-718.791	-200.000	0.017	-0.172
-717.777	48.698	-0.140	-0.132
-716.762	800.000	-0.029	-0.123
-715.748	-33.266	-0.103	0.057
-714.733	44.319	-0.105	0.097
-713.718	237.910	-0.112	0.187
-712.704	800.000	0.056	0.168
-711.689	265.116	-0.174	0.304
-710.675	-113.778	0.410	-0.080
-709.660	-106.942	-0.313	0.070
-708.645	84.936	-0.120	0.132
-707.631	-200.000	-0.016	0.106
-706.616	-200.000	-0.057	0.254
-705.602	-28.299	-0.132	0.076
-704.587	-44.274	0.074	-0.037
-703.572	232.682	0.188	-0.311
-702.558	-200.000	0.013	-0.149
-701.543	188.916	-0.184	-0.277
-700.529	7.730	0.037	0.028
-699.514	136.896	-0.127	-0.166
-698.499	-200.000	-0.113	-0.572
-697.485	677.518	-0.096	0.250
-696.470	0.031	-0.174	0.125
-695.456	-127.220	-0.158	0.023
-694.441	230.712	-0.034	0.055
-693.426	-200.000	-0.019	0.317
-692.412	71.279	-0.121	0.126
-691.397	449.915	-0.069	-0.153
-690.383	-159.423	0.417	0.023
-689.368	-120.652	0.039	-0.007
-688.354	-151.290	-0.260	-0.019
-687.339	-20.777	-0.299	-0.184
-686.324	233.291	0.183	-0.303
-685.310	800.000	0.024	-0.087
-684.295	-4.182	-0.208	0.145
-683.281	101.483	0.061	0.071
-682.266	-177.261	-0.314	0.008
-681.251	89.297	-0.072	-0.081
-680.237	-200.000	0.046	0.306
-679.222	800.000	-0.104	-0.411
-678.208	83.261	-0.304	0.332
-677.193	800.000	0.080	-0.303
-676.178	800.000	-0.094	-0.321
-675.164	88.862	0.298	-0.333
-674.149	0.326	0.097	0.070
-673.135	723.109	-0.196	-0.524
-672.120	-143.852	-0.151	-0.014
-671.105	-191.936	-0.216	0.002
-670.091	800.000	-0.058	-0.213
-669.076	-200.000	0.000	0.182
-668.062	-40.239	0.215	-0.112
-667.047	-200.000	-0.074	0.329
-666.032	18.482	-0.061	0.049
-665.018	-200.000	0.087	-0.000
-664.003	24.980	-0.029	0.024
-662.989	-200.000	-0.024	0.191
-661.974	42.053	0.119	-0.108
-660.959	-152.798	-0.279	-0.020
-659.945	13.404	-0.205	-0.159
-658.930	-200.000	0.050	0.370
-657.916	15.665	0.341	-0.269
-656.901	35.736	-0.117	0.103
-655.886	5.704	0.197	-0.146
-654.872	-200.000	-0.009	-0.111
-653.857	-200.000	0.016	0.126
-652.843	-3.696	-0.166	-0.116
-651.828	-111.248	-0.189	0.039
-650.814	52.122	0.184	-0.176
-649.799	800.000	-0.104	-0.291
-648.784	-200.000	-0.063	0.477
-647.770	-157.342	-0.156	0.009
-646.755	-38.306	-0.054	0.029
-645.741	363.564	-0.030	0.061
-644.726	-38.504	-0.201	-0.107
-643.711	800.000	-0.088	0.263
-642.697	-39.601	0.236	-0.124
-641.682	-54.655	0.222	-0.100
-640.668	800.000	0.043	-0.183
-639.653	-0.299	0.263	-0.187
-638.638	-97.571	-0.088	0.023
-637.624	800.000	-0.117	0.335
-636.609	122.252	-0.221	0.277
-635.595	564.550	0.044	0.108
-634.580	62.144	0.242	0.242
-633.565	-200.000	-0.050	-0.257
-632.551	63.094	-0.446	-0.448
-631.536	-200.000	-0.179	0.001
-630.522	-34.565	0.391	0.215
-629.507	84.628	0.283	-0.311
-628.492	85.260	0.170	-0.187
-627.478	-200.000	-0.039	0.191
-626.463	333.985	0.077	0.149
-625.449	-176.704	0.089	-0.002
-624.434	164.002	0.057	-0.081
-623.419	-157.389	0.131	-0.008
-622.405	-12.499	0.239	-0.156
-621.390	-171.188	0.025	0.001
-620.376	-200.000	0.045	0.284
-619.361	-143.445	-0.312	-0.030
-618.346	-142.652	-0.333	-0.033
-617.332	800.000	-0.069	-0.238
-616.317	267.493	-0.141	0.247
-615.303	-67.007	0.222	0.088
-614.288	-200.000	-0.033	0.282
-613.273	800.000	0.064	-0.188
-612.259	7.339	-0.183	0.137
-611.244	-143.753	0.054	-0.005
-610.230	800.000	0.135	0.407
-609.215	-16.179	0.121	-0.077
-608.201	186.597	-0.071	0.105
-607.186	11.999	-0.207	-0.159
-606.171	652.772	-0.102	0.261
-605.157	-90.395	0.283	-0.082
-604.142	-121.710	-0.102	0.017
-603.128	800.000	-0.104	0.368
-602.113	35.815	-0.298	-0.263
-601.098	800.000	-0.018	-0.072
-600.084	133.264	0.043	-0.055
-599.069	-15.186	0.155	0.099
-598.055	220.756	0.051	0.081
-597.040	-116.773	-0.507	0.093
-596.025	-26.556	-0.155	0.091
-595.011	-177.484	-0.298	-0.007
-593.996	147.788	-0.148	0.199
-592.982	349.604	0.171	0.337
-591.967	443.297	-0.070	0.154
-590.952	-94.095	-0.374	-0.103
-589.938	-32.165	-0.343	0.192
-588.923	-4.108	0.283	0.196
-587.909	126.488	0.128	-0.162
-586.894	242.989	0.124	-0.208
-585.879	3.410	-0.209	0.152
-584.865	-153.367	0.023	0.002
-583.850	450.173	-0.130	-0.286
-582.836	800.000	0.042	-0.174
-581.821	175.685	-0.135	-0.196
-580.806	-13.524	0.216	-0.140
-579.792	-0.902	-0.439	-0.311
-578.777	132.249	-0.076	-0.097
-577.763	-139.464	0.402	0.043
-576.748	154.930	-0.135	0.186
-575.733	-9.131	-0.168	-0.112
-574.719	-123.479	-0.222	-0.035
-573.704	-117.717	0.139	0.025
-572.690	800.000	0.059	0.196
-571.675	511.768	-0.069	0.162
-570.661	-200.000	-0.005	-0.125
-569.646	126.427	0.180	-0.228
-568.631	800.000	-0.089	-0.255
-567.617	-19.139	0.284	0.177
-566.602	-200.000	-0.047	0.288
-565.588	800.000	0.046	0.191
-564.573	-131.613	-0.232	-0.030
-563.558	72.670	-0.176	-0.184
-562.544	22.608	0.117	-0.096
-561.529	-50.879	-0.263	0.124
-560.515	47.258	0.089	-0.083
-559.500	31.638	0.158	-0.136
-558.485	800.000	-0.064	-0.238
-557.471	-27.051	-0.077	0.045
-556.456	-142.133	0.106	0.010
-555.442	800.000	0.078	0.331
-554.427	211.052	0.052	0.082
-553.412	161.740	0.044	-0.061
-552.398	-200.000	-0.062	0.456
-551.383	-164.091	0.264	0.012
-550.369	-22.367	-0.320	-0.194
-549.354	255.844	-0.077	0.131
-548.339	-136.029	0.210	-0.025
-547.325	190.585	0.125	0.187
-546.310	-200.000	-0.018	0.106
-545.296	607.395	0.098	0.243
-544.281	11.691	0.124	0.095
-543.266	-200.000	-0.001	-0.047
-542.252	-200.000	-0.042	0.240
-541.237	-66.809	0.307	-0.121
-540.223	800.000	0.054	-0.176
-539.208	600.600	-0.073	0.181
-538.193	-74.294	0.329	-0.119
-537.179	20.009	-0.160	-0.129
-536.164	-110.618	-0.181	-0.037
-535.150	-38.096	-0.114	0.060
-534.135	-200.000	0.016	0.146
-533.121	-181.623	-0.216	0.004
-532.106	-43.964	-0.159	0.080
-531.091	800.000	-0.058	-0.170
-530.077	111.675	0.099	0.119
-529.062	266.891	-0.026	-0.046
-528.048	-79.962	0.133	-0.045
-527.033	-89.878	0.431	-0.126
-526.018	-200.000	0.037	-0.222
-525.004	110.031	-0.039	0.046
-523.989	-200.000	-0.013	-0.140
-522.975	-110.800	0.249	-0.051
-521.960	800.000	0.100	-0.333
-520.945	800.000	-0.061	0.198
-519.931	-200.000	-0.050	0.230
-518.916	544.087	-0.103	0.245
-517.902	-200.000	0.066	0.376
-516.887	635.854	-0.048	0.121
-515.872	241.168	-0.101	-0.168
-514.858	-5.087	0.125	-0.086
-513.843	-37.378	-0.174	0.093
-512.829	-200.000	-0.055	-0.265
-511.814	17.680	-0.114	0.090
-510.799	-70.362	-0.066	0.025
-509.785	-39.727	0.181	0.094
-508.770	-44.053	-0.197	0.099
-507.756	-200.000	-0.016	-0.272
-506.741	800.000	0.095	-0.310
-505.726	703.527	-0.030	0.080
-504.712	-144.124	0.247	0.023
-503.697	-119.694	-0.319	0.055
-502.683	-200.000	0.017	0.150
-501.668	-59.877	0.096	-0.041
-500.653	-169.483	-0.282	0.010
-499.639	494.696	-0.116	0.265
-498.624	-117.319	0.195	-0.035
-497.610	227.961	-0.092	-0.150
-496.595	-139.830	-0.244	-0.026
-495.581	407.569	0.136	-0.287
-494.566	-1.402	-0.301	0.212
-493.551	66.101	0.176	0.179
-492.537	-200.000	0.012	0.333
-491.522	-14.328	0.235	0.151
-490.508	16.512	-0.253	0.199
-489.493	-76.108	0.133	0.047
-488.478	-75.227	0.177	-0.063
-487.464	51.292	-0.201	-0.190
-486.449	313.396	0.059	-0.110
-485.435	582.600	-0.032	0.079
-484.420	-26.924	0.094	-0.055
-483.405	201.611	-0.136	0.208
-482.391	800.000	-0.046	0.172
-481.376	800.000	0.025	-0.103
-480.362	68.729	-0.191	-0.195
-479.347	-49.249	-0.428	0.204
-478.332	348.069	-0.087	0.170
-477.318	641.245	0.050	-0.126
-476.303	5.380	-0.187	-0.138
-475.289	66.363	0.195	0.197
-474.274	-136.769	-0.092	0.011
-473.259	97.739	0.237	0.271
-472.245	-82.226	-0.354	-0.115
-471.230	80.420	0.045	0.048
-470.216	38.675	-0.188	-0.167
-469.201	-116.446	-0.225	0.041
-468.186	800.000	0.063	-0.270
-467.172	746.178	-0.068	-0.182
-466.157	-200.000	0.035	0.307
-465.143	-99.388	-0.075	-0.019
-464.128	-52.107	0.147	-0.068
-463.113	-200.000	0.011	0.191
-462.099	-99.098	-0.113	-0.028
-461.084	28.492	0.237	-0.200
-460.070	220.821	-0.102	-0.162
-459.055	800.000	0.068	0.189
-458.040	164.612	0.146	-0.205
-457.026	-68.848	-0.246	-0.095
-456.011	-21.595	-0.301	-0.183
-454.997	-200.000	0.032	-0.151
-453.982	-174.758	-0.244	0.007
-452.968	-96.974	0.149	-0.039
-451.953	-43.635	-0.035	-0.017
-450.938	800.000	0.049	0.148
-449.924	-91.446	0.260	-0.074
-448.909	369.699	0.155	-0.312
-447.895	-34.566	0.295	0.160
-446.880	60.108	0.173	0.170
-445.865	-142.872	0.194	-0.019
-444.851	-9.169	0.226	-0.150
-443.836	-149.409	0.213	-0.017
-442.822	-200.000	-0.007	-0.050
-441.807	-178.856	-0.268	-0.006
-440.792	-70.967	0.191	0.072
-439.778	-19.101	-0.250	-0.154
-438.763	-88.971	-0.196	0.058
-437.749	-0.034	0.095	0.067
-436.734	-100.681	-0.068	0.017
-435.719	-200.000	0.065	-0.474
-434.705	60.719	0.126	0.125
-433.690	-10.344	-0.269	0.178
-432.676	-91.091	0.394	0.113
-431.661	-32.420	0.128	-0.071
-430.646	-47.535	0.102	0.049
-429.632	159.491	-0.102	-0.142
-428.617	375.764	0.152	-0.308
-427.603	-64.357	-0.031	0.013
-426.588	85.810	-0.204	0.223
-425.573	211.226	0.301	-0.470
-424.559	193.719	0.151	0.228
-423.544	-40.358	0.133	-0.069
-422.530	-51.478	0.343	0.159
-421.515	211.447	-0.190	0.298
-420.500	-200.000	0.023	0.287
-419.486	-200.000	-0.041	-0.264
-418.471	-61.592	0.394	-0.165
-417.457	-50.760	0.257	0.120
-416.442	-163.258	-0.403	-0.019
-415.428	-125.789	-0.363	0.054
-414.413	57.471	0.048	-0.047
-413.398	242.302	-0.089	-0.148
-412.384	-93.042	-0.134	0.037
-411.369	-200.000	0.007	-0.056
-410.355	371.424	0.053	-0.107
-409.340	-123.767	0.276	-0.043
-408.325	-136.522	-0.333	0.038
-407.311	-61.407	-0.041	-0.017
-406.296	-200.000	-0.011	0.064
-405.282	-78.854	0.292	-0.099
-404.267	-89.203	-0.092	-0.027
-403.252	800.000	-0.036	-0.116
-402.238	-87.718	0.086	0.026
-401.223	97.609	-0.137	-0.157
-400.209	-200.000	-0.007	0.222
-399.194	-200.000	0.028	0.136
-398.179	-5.551	0.457	-0.311
-397.165	12.723	-0.194	-0.149
-396.150	68.153	-0.269	0.274
-395.136	-19.244	0.190	0.117
-394.121	108.604	-0.153	-0.182
-393.106	800.000	-0.020	0.084
-392.092	-75.439	0.105	-0.037
-391.077	35.158	-0.387	-0.337
-390.063	-128.536	0.245	0.035
-389.048	-104.375	-0.055	-0.013
-388.033	-200.000	0.059	0.448
-387.019	-200.000	-0.010	0.139
-386.004	-200.000	-0.055	0.403
-384.990	-87.937	0.421	-0.126
-383.975	-200.000	-0.026	0.218
-382.960	240.200	-0.112	-0.185
-381.946	-53.915	0.102	0.046
-380.931	-111.333	-0.175	-0.035
-379.917	-96.197	0.298	0.078
-378.902	-3.377	-0.126	-0.087
-377.888	-42.441	0.117	0.059
-376.873	800.000	-0.062	0.179
-375.858	800.000	0.018	0.056
-374.844	800.000	-0.057	-0.208
-373.829	129.107	-0.033	0.042
-372.815	800.000	0.039	0.163
-371.800	-14.438	0.057	0.036
-370.785	-109.748	0.277	-0.058
-369.771	-99.330	-0.081	0.020
-368.756	-200.000	-0.032	0.341
-367.742	207.864	-0.143	-0.221
-366.727	-200.000	-0.013	0.135
-365.712	515.812	-0.110	0.255
-364.698	-114.115	0.052	0.010
-363.683	27.499	-0.161	0.134
-362.669	338.043	0.225	-0.435
-361.654	-200.000	-0.007	-0.173
-360.639	-200.000	-0.000	0.101
-359.625	206.711	0.099	-0.154
-358.610	800.000	-0.016	0.048
-357.596	-39.720	-0.133	-0.069
-356.581	-19.886	-0.210	-0.128
-355.566	-200.000	-0.004	-0.096
-354.552	-39.037	0.257	-0.134
-353.537	-200.000	-0.039	0.510
-352.523	83.204	0.048	-0.051
-351.508	-200.000	-0.003	-0.376
-350.493	351.804	0.079	0.156
-349.479	-200.000	0.036	-0.210
-348.464	-200.000	-0.016	0.333
-347.450	212.404	0.057	0.088
-346.435	61.121	-0.183	0.180
-345.420	563.803	0.097	-0.233
-344.406	-17.597	0.294	0.183
-343.391	-200.000	0.043	-0.215
-342.377	-52.684	-0.103	0.047
-341.362	800.000	-0.021	-0.083
-340.348	-40.791	0.204	-0.105
-339.333	462.372	0.132	-0.293
-338.318	-122.725	0.069	-0.011
-337.304	-42.997	0.162	-0.081
-336.289	-200.000	-0.024	-0.124
-335.275	-200.000	-0.017	-0.087
-334.260	-92.215	-0.121	-0.034
-333.245	23.277	0.074	-0.060
-332.231	144.940	0.138	-0.182
-331.216	163.991	-0.136	0.190
-330.202	-200.000	0.021	-0.130
-329.187	-200.000	-0.001	-0.067
-328.172	100.526	-0.137	0.157
-327.158	-35.344	-0.103	-0.055
-326.143	225.005	0.066	-0.106
-325.129	481.594	0.152	0.342
-324.114	-191.476	-0.212	0.002
-323.099	-153.251	-0.142	-0.010
-322.085	-104.899	-0.211	-0.048
-321.070	-6.905	-0.346	0.233
-320.056	-94.379	0.271	-0.073
-319.041	41.206	0.028	0.025
-318.026	-69.618	-0.159	-0.060
-317.012	250.162	-0.073	-0.122
-315.997	433.017	0.077	-0.165
-314.983	366.661	0.065	-0.130
-313.968	362.949	0.207	0.412
-312.953	39.513	-0.127	0.113
-311.939	176.800	0.288	0.415
-310.924	-101.573	0.168	0.040
-309.910	-116.515	-0.193	-0.035
-308.895	347.330	0.017	0.033
-307.880	-171.458	-0.352	0.012
-306.866	-200.000	-0.039	-0.454
-305.851	-200.000	-0.022	-0.125
-304.837	-153.234	-0.269	-0.019
-303.822	24.618	0.294	0.241
-302.807	-200.000	-0.016	0.158
-301.793	-200.000	0.020	0.269
-300.778	18.065	-0.223	-0.176
-299.764	-89.514	-0.201	0.058
-298.749	800.000	0.071	-0.198
-297.735	21.454	0.185	-0.149
-296.720	27.604	-0.236	-0.196
-295.705	299.427	-0.148	0.270
-294.691	143.284	-0.120	0.158
-293.676	-56.243	0.158	0.069
-292.662	-92.782	0.240	0.066
-291.647	800.000	-0.029	-0.095
-290.632	-116.116	-0.268	-0.049
-289.618	405.576	-0.120	-0.250
-288.603	-200.000	-0.001	0.220
-287.589	-21.454	-0.222	0.134
-286.574	423.699	-0.051	0.108
-285.559	679.880	-0.046	0.119
-284.545	-9.055	0.238	0.158
-283.530	-137.960	-0.116	0.013
-282.516	-200.000	-0.010	0.222
-281.501	-113.113	0.216	0.042
-280.486	800.000	-0.039	-0.130
-279.472	-45.153	-0.243	-0.119
-278.457	40.447	0.091	-0.081
-277.443	800.000	0.028	0.090
-276.428	17.872	-0.331	-0.261
-275.413	-181.170	-0.266	0.005
-274.399	218.271	0.059	0.094
-273.384	-37.020	0.234	0.124
-272.370	348.988	0.114	-0.223
-271.355	-119.093	-0.216	-0.037
-270.340	-200.000	0.013	0.082
-269.326	-65.457	0.283	-0.112
-268.311	475.499	-0.051	0.115
-267.297	-122.385	-0.187	0.030
-266.282	-27.959	-0.289	0.165
-265.267	-7.106	0.246	0.165
-264.253	39.576	-0.162	-0.144
-263.238	-112.421	0.372	0.073
-262.224	200.473	0.111	-0.168
-261.209	339.220	0.107	-0.205
-260.195	121.783	-0.114	-0.141
-259.180	-141.083	-0.157	-0.016
-258.165	-177.058	-0.170	-0.004
-257.151	195.689	-0.145	-0.218
-256.136	47.490	0.040	-0.037
-255.122	271.709	-0.006	0.011
-254.107	42.526	-0.056	-0.050
-253.092	-136.113	0.161	-0.019
-252.078	31.826	-0.119	0.102
-251.063	-38.098	-0.166	0.087
-250.049	-200.000	0.000	0.137
-249.034	-200.000	0.082	-0.363
-248.019	-200.000	0.002	0.066
-247.005	-22.408	-0.286	-0.171
-245.990	3.487	-0.143	-0.103
-244.976	-114.291	0.215	0.041
-243.961	239.210	0.097	0.158
-242.946	59.084	-0.075	0.073
-241.932	-101.610	-0.110	0.026
-240.917	241.239	0.179	0.294
-239.903	-65.974	0.160	0.063
-238.888	-114.284	-0.140	-0.027
-237.873	-93.865	0.119	-0.032
-236.859	800.000	-0.008	0.029
-235.844	-145.249	0.251	-0.022
-234.830	-48.790	0.154	-0.073
-233.815	-66.869	0.147	0.057
-232.800	-200.000	0.027	-0.200
-231.786	-50.132	-0.321	-0.150
-230.771	800.000	-0.072	0.288
-229.757	18.042	0.045	0.036
-228.742	-78.362	-0.283	0.096
-227.727	89.485	0.243	-0.268
-226.713	50.846	0.210	-0.196
-225.698	-93.284	-0.125	0.034
-224.684	267.461	-0.152	-0.262
-223.669	-200.000	0.031	0.160
-222.655	-200.000	-0.012	0.183
-221.640	-200.000	-0.023	0.132
-220.625	738.796	0.093	-0.246
-219.611	-63.356	0.216	-0.088
-218.596	-89.744	0.259	0.075
-217.582	94.432	0.230	-0.258
-216.567	800.000	-0.020	0.062
-215.552	116.208	-0.081	0.098
-214.538	-200.000	-0.009	0.091
-213.523	-102.581	0.233	0.055
-212.509	-164.840	0.485	-0.021
-211.494	-200.000	-0.040	-0.261
-210.479	17.202	0.120	0.094
-209.465	290.664	-0.155	0.278
-208.450	156.354	0.163	-0.222
-207.436	25.678	-0.133	0.109
-206.421	38.006	0.138	0.121
-205.406	-116.203	-0.118	-0.022
-204.392	-200.000	0.019	-0.523
-203.377	-115.427	-0.143	0.027
-202.363	-158.268	-0.302	0.017
-201.348	-160.967	0.397	0.021
-200.333	-14.981	0.481	0.304
-199.319	277.319	-0.275	0.482
-198.304	182.937	0.148	-0.216
-197.290	-123.768	-0.256	-0.040
-196.275	-200.000	-0.006	0.374
-195.260	9.366	-0.098	0.073
-194.246	103.581	0.240	0.278
-193.231	-105.122	0.130	0.029
-192.217	800.000	-0.099	-0.302
-191.202	800.000	0.065	-0.193
-190.187	-200.000	-0.067	-0.297
-189.173	155.680	-0.088	0.119
-188.158	217.367	-0.072	0.113
-187.144	-114.271	0.143	0.027
-186.129	295.876	0.097	-0.175
-185.114	800.000	0.080	0.337
-184.100	-200.000	0.032	-0.302
-183.085	-11.100	0.212	0.138
-182.071	404.637	0.069	-0.144
-181.056	11.006	-0.203	-0.152
-180.042	152.975	0.169	0.227
-179.027	12.010	-0.146	-0.111
-178.012	305.364	0.081	-0.148
-176.998	33.509	-0.212	-0.182
-175.983	-105.419	0.100	-0.022
-174.969	-200.000	0.053	-0.279
-173.954	-73.275	-0.069	-0.025
-172.939	63.437	0.252	0.249
-171.925	-34.590	-0.099	0.053
-170.910	800.000	-0.032	-0.098
-169.896	-137.095	-0.219	0.025
-168.881	-200.000	0.103	-0.510
-167.866	-11.528	0.180	0.117
-166.852	44.977	0.107	-0.097
-165.837	-154.827	-0.255	-0.017
-164.823	-131.645	-0.330	0.043
-163.808	120.489	0.076	-0.093
-162.793	-200.000	0.079	-0.381
-161.779	-113.654	0.096	-0.018
-160.764	280.997	-0.099	-0.175
-159.750	160.948	-0.044	-0.060
-158.735	197.143	-0.124	0.186
-157.720	-84.122	0.124	0.039
-156.706	-142.114	0.283	0.028
-155.691	-61.144	0.093	-0.039
-154.677	581.193	0.220	-0.530
-153.662	31.036	0.160	0.135
-152.647	-67.366	-0.348	-0.134
-151.633	-151.130	0.168	-0.012
-150.618	143.528	0.121	0.158
-149.604	-200.000	0.035	-0.184
-148.589	-200.000	0.027	-0.119
-147.574	-178.061	-0.090	0.002
-146.560	-200.000	0.005	-0.166
-145.545	-200.000	0.360	-0.001
-144.531	800.000	-0.046	-0.197
-143.516	161.881	-0.132	-0.181
-142.502	-135.376	0.323	-0.038
-141.487	369.255	0.155	0.309
-140.472	45.691	0.285	-0.259
-139.458	-140.291	-0.099	-0.010
-138.443	331.954	-0.010	0.019
-137.429	39.092	-0.261	0.229
-136.414	275.195	0.098	0.172
-135.399	800.000	0.129	-0.466
-134.385	-192.032	-0.120	0.001
-133.370	-200.000	0.004	0.029
-132.356	25.206	0.039	-0.032
-131.341	173.292	-0.149	-0.211
-130.326	-200.000	-0.003	0.071
-129.312	-30.571	0.275	0.153
-128.297	420.799	0.026	-0.055
-127.283	322.925	-0.013	-0.025
-126.268	34.467	0.039	-0.034
-125.253	800.000	0.232	0.641
-124.239	800.000	-0.001	0.002
-123.224	-200.000	-0.019	-0.147
-122.210	800.000	0.052	0.178
-121.195	43.071	-0.126	-0.113
-120.180	-34.630	0.278	-0.149
-119.166	-27.938	-0.146	0.083
-118.151	-200.000	-0.050	0.216
-117.137	-22.777	0.148	-0.088
-116.122	-200.000	0.004	0.084
-115.107	-200.000	-0.068	0.318
-114.093	637.447	0.122	-0.305
-113.078	-200.000	-0.042	-0.309
-112.064	-121.301	-0.422	0.069
-111.049	235.939	0.146	0.237
-110.034	-200.000	0.017	-0.238
-109.020	-90.294	0.193	-0.055
-108.005	-34.587	0.114	-0.061
-106.991	800.000	-0.068	-0.239
-105.976	800.000	0.081	0.237
-104.962	-200.000	-0.001	0.263
-103.947	-95.758	-0.229	-0.060
-102.932	6.886	-0.262	0.191
-101.918	194.171	-0.182	0.271
-100.903	-71.312	0.302	0.111
-99.889	-200.000	-0.001	-0.069
-98.874	800.000	0.017	-0.050
-97.859	117.446	0.326	-0.393
-96.845	800.000	-0.013	-0.053
-95.830	800.000	0.045	0.143
-94.816	-109.924	-0.258	0.053
-93.801	-200.000	0.007	-0.482
-92.786	463.774	0.072	0.158
-91.772	-67.133	-0.105	-0.041
-90.757	-116.550	0.197	0.036
-89.743	790.257	-0.078	-0.210
-88.728	-67.054	0.132	-0.051
-87.713	-146.226	0.142	-0.012
-86.699	-200.000	0.016	-0.169
-85.684	57.335	-0.140	-0.135
-84.670	-85.695	-0.179	0.054
-83.655	478.486	0.049	0.109
-82.640	-56.688	-0.416	-0.181
-81.626	329.102	-0.036	0.068
-80.611	35.370	0.071	0.061
-79.597	-106.598	0.148	-0.032
-78.582	-164.741	-0.249	0.011
-77.567	-132.759	0.181	-0.023
-76.553	261.571	-0.179	-0.304
-75.538	800.000	-0.030	-0.090
-74.524	-170.145	0.114	-0.004
-73.509	5.908	-0.297	0.216
-72.494	46.312	-0.116	0.106
-71.480	800.000	0.050	0.138
-70.465	-160.294	-0.186	0.010
-69.451	442.244	0.054	0.115
-68.436	-65.652	0.127	0.050
-67.422	48.562	-0.058	-0.054
-66.407	-77.114	0.184	0.063
-65.392	-88.991	0.258	-0.075
-64.378	107.973	-0.283	0.331
-63.363	-29.083	0.161	0.091
-62.349	800.000	0.032	0.109
-61.334	108.897	-0.914	-1.071
-60.319	276.378	0.528	0.919
-59.305	800.000	-0.381	-1.089
-58.290	132.277	0.592	0.747
-57.276	376.654	0.799	1.598
-56.261	-200.000	108.135	605.701
-55.246	458.539	1483.759	3233.586
-54.232	148.758	2657.350	3519.628
-53.217	106.254	2162.612	2510.653
-52.203	39.831	1698.641	1493.978
-51.188	32.912	1515.459	1285.891
-50.173	30.617	1489.619	1248.531
-49.159	52.306	1545.681	1444.455
-48.144	52.585	1562.530	1462.054
-47.130	33.172	1518.404	1289.962
-46.115	30.024	1503.829	1256.216
-45.100	29.825	1500.487	1252.033
-44.086	29.815	1498.228	1250.030
-43.071	29.700	1496.233	1247.535
-42.057	29.748	1494.165	1246.084
-41.042	29.710	1493.172	1244.955
-40.027	29.705	1491.737	1243.673
-39.013	29.738	1490.069	1242.459
-37.998	29.728	1489.326	1241.719
-36.984	29.721	1487.925	1240.458
-35.969	29.739	1486.193	1239.083
-34.954	29.703	1485.377	1238.115
-33.940	29.658	1484.106	1236.706
-32.925	29.781	1482.505	1236.141
-31.911	29.729	1481.453	1234.868
-30.896	29.810	1479.767	1233.954
-29.881	29.860	1478.457	1233.146
-28.867	29.790	1477.206	1231.588
-27.852	29.907	1475.895	1231.224
-26.838	29.861	1474.340	1229.573
-25.823	29.700	1473.857	1228.053
-24.809	29.777	1471.954	1226.927
-23.794	29.806	1470.294	1225.685
-22.779	29.774	1469.105	1224.435
-21.765	29.838	1468.256	1224.103
-20.750	29.785	1467.036	1222.689
-19.736	29.817	1466.022	1222.006
-18.721	29.749	1464.870	1220.547
-17.706	29.636	1464.241	1219.230
-16.692	29.803	1462.152	1218.544
-15.677	29.762	1461.581	1217.749
-14.663	29.759	1460.376	1216.678
-13.648	29.851	1459.303	1216.339
-12.633	29.724	1458.821	1215.052
-11.619	29.861	1457.423	1214.741
-10.604	29.740	1457.118	1213.645
-9.590	29.602	1456.503	1212.180
-8.575	29.661	1455.523	1211.703
-7.560	29.669	1454.461	1210.824
-6.546	29.755	1453.346	1210.408
-5.531	29.645	1452.911	1209.280
-4.517	29.678	1451.730	1208.462
-3.502	29.701	1450.149	1207.250
-2.487	29.734	1449.565	1206.928
-1.473	29.680	1448.878	1205.959
-0.458	29.766	1447.195	1205.068
0.556	27.811	1437.059	1192.340
1.571	24.403	1411.529	1149.152
2.586	20.612	1349.979	1075.547
3.600	18.749	1267.312	998.769
4.615	17.517	1222.419	956.386
5.629	16.269	1169.578	908.254
6.644	12.489	1093.078	829.728
7.659	9.226	1057.717	786.860
8.673	8.773	1052.274	780.535
9.688	8.529	1048.645	776.591
10.702	8.500	1047.286	775.376
11.717	8.388	1045.588	773.508
12.731	9.975	1045.831	781.297
13.746	13.923	1050.457	803.829
14.761	16.957	1054.311	821.420
15.775	17.687	1054.145	824.752
16.790	16.895	1052.489	819.557
17.804	15.702	1050.558	812.223
18.819	14.961	1048.105	806.682
19.834	14.236	1047.167	802.397
20.848	14.004	1046.052	800.351
21.863	13.781	1045.089	798.473
22.877	13.621	1044.359	797.074
23.892	13.349	1043.631	795.141
24.907	13.297	1042.758	794.153
25.921	13.357	1041.876	793.703
26.936	13.368	1041.424	793.338
27.950	13.403	1040.264	792.554
28.965	13.313	1039.433	791.416
29.980	13.485	1037.910	791.012
30.994	13.509	1036.860	790.257
32.009	13.738	1035.566	790.292
33.023	13.564	1035.383	789.253
34.038	13.620	1034.672	788.908
35.053	13.687	1033.386	788.173
36.067	13.579	1032.140	786.643
37.082	13.531	1031.745	786.042
38.096	13.481	1031.045	785.204
39.111	13.547	1030.458	784.999
40.126	13.578	1029.494	784.344
41.140	13.419	1028.245	782.573
42.155	13.349	1026.961	781.193
43.169	13.367	1025.869	780.378
44.184	13.469	1024.847	780.014
45.199	13.219	1024.401	778.427
46.213	13.313	1023.123	777.829
47.228	13.316	1022.380	777.210
48.242	13.337	1021.390	776.489
49.257	13.451	1020.579	776.333
50.271	13.466	1019.190	775.282
51.286	13.497	1018.392	774.750
52.301	13.514	1017.867	774.363
53.315	13.440	1017.243	773.473
54.330	13.432	1016.197	772.570
55.344	13.438	1015.141	771.731
56.359	13.418	1013.778	770.532
57.374	13.436	1013.081	770.016
58.388	13.309	1012.738	769.095
59.403	13.388	1011.612	768.542
60.417	13.383	1010.806	767.836
61.432	13.297	1010.240	766.942
62.447	13.211	1009.264	765.734
63.461	13.196	1008.791	765.239
64.476	13.150	1007.481	763.963
65.490	13.303	1006.514	763.869
66.505	13.240	1005.640	762.850
67.520	13.265	1005.310	762.647
68.534	13.260	1004.150	761.673
69.549	13.227	1003.524	760.981
70.563	13.359	1002.699	760.894
71.578	13.083	1002.732	759.584
72.593	13.231	1000.995	758.881
73.607	13.033	1000.534	757.555
74.622	13.139	999.384	757.103
75.636	13.210	998.402	756.617
76.651	13.174	997.528	755.721
77.666	13.142	997.046	755.144
78.680	13.086	996.184	754.167
79.695	13.077	995.839	753.802
80.709	13.142	995.158	753.513
81.724	13.213	994.511	753.283
82.739	13.178	994.061	752.716
83.753	13.374	992.828	752.605
84.768	13.427	991.920	752.094
85.782	13.530	991.607	752.254
86.797	13.441	991.619	751.796
87.812	13.548	989.963	750.958
88.826	13.576	989.179	750.423
89.841	13.397	988.589	749.100
90.855	13.508	987.490	748.701
91.870	13.511	986.941	748.233
92.884	13.503	986.263	747.615
93.899	13.644	985.013	747.237
94.914	13.580	984.653	746.611
95.928	13.748	983.742	746.611
96.943	13.603	983.499	745.707
97.957	13.550	982.796	744.871
98.972	13.496	981.837	743.835
99.987	13.430	981.170	742.965
101.001	13.590	979.865	742.630
102.016	13.520	979.748	742.161
103.030	13.422	978.885	741.002
104.045	13.565	977.754	740.720
105.060	13.611	976.248	739.721
106.074	13.538	975.454	738.726
107.089	13.449	974.593	737.616
108.103	13.376	973.868	736.675
109.118	13.248	972.842	735.263
110.133	13.364	972.024	735.096
111.147	13.250	971.422	734.072
112.162	13.342	970.294	733.559
113.176	13.285	969.860	732.916
114.191	13.502	968.988	733.151
115.206	13.340	968.472	731.980
116.220	13.393	967.108	731.118
117.235	13.290	966.738	730.319
118.249	13.262	965.768	729.399
119.264	13.417	964.724	729.230
120.279	13.410	963.994	728.582
121.293	13.389	963.198	727.822
122.308	13.202	962.930	726.733
123.322	13.320	961.359	726.003
124.337	13.419	960.231	725.518
125.352	13.333	959.476	724.510
126.366	13.172	958.637	723.107
127.381	13.257	957.559	722.599
128.395	13.266	956.512	721.788
129.410	13.159	955.895	720.789
130.424	13.360	954.674	720.680
131.439	13.337	954.133	720.108
132.454	13.368	953.161	719.445
133.468	13.486	952.152	719.132
134.483	13.356	952.103	718.467
135.497	13.497	950.888	718.099
136.512	13.374	949.855	716.724
137.527	13.354	949.662	716.426
138.541	13.442	948.518	715.883
139.556	13.400	947.911	715.180
140.570	13.342	947.282	714.392
141.585	13.390	946.629	714.041
142.600	13.472	946.079	713.915
143.614	13.651	945.267	714.014
144.629	13.525	944.572	712.881
145.643	13.587	943.984	712.641
146.658	13.662	942.908	712.090
147.673	13.602	941.962	711.054
148.687	13.563	940.966	710.072
149.702	13.514	940.346	709.331
150.716	13.644	938.606	708.512
151.731	13.481	938.168	707.421
152.746	13.485	937.286	706.712
153.760	13.454	936.869	706.201
154.775	13.505	935.671	705.453
155.789	13.556	935.229	705.273
156.804	13.582	934.600	704.850
157.819	13.609	933.991	704.441
158.833	13.619	933.582	704.113
159.848	13.739	932.832	703.994
160.862	13.785	932.098	703.574
161.877	13.856	931.320	703.227
162.892	13.588	930.272	701.238
163.906	13.670	929.167	700.689
164.921	13.584	928.659	699.881
165.935	13.519	927.287	698.511
166.950	13.561	926.924	698.352
167.964	13.565	925.664	697.361
168.979	13.615	924.612	696.717
169.994	13.713	923.275	696.057
171.008	13.548	923.171	695.224
172.023	13.636	922.469	695.004
173.037	13.761	921.517	694.747
174.052	13.883	920.410	694.362
175.067	13.670	920.253	693.290
176.081	13.649	919.399	692.498
177.096	13.648	918.665	691.883
178.110	13.575	917.646	690.747
179.125	13.667	917.277	690.793
180.140	13.681	915.874	689.732
181.154	13.784	915.177	689.577
182.169	13.873	914.757	689.569
183.183	13.817	914.303	688.933
184.198	13.925	913.495	688.709
185.213	13.767	913.391	687.916
186.227	13.937	912.195	687.656
187.242	13.926	912.090	687.471
188.256	13.865	911.116	686.426
189.271	13.927	910.746	686.344
190.286	13.985	909.776	685.790
191.300	13.909	908.799	684.680
192.315	13.776	907.914	683.402
193.329	13.617	907.362	682.274
194.344	13.785	906.531	682.277
195.359	13.754	906.251	681.880
196.373	13.904	905.334	681.746
197.388	13.943	905.429	681.917
198.402	14.031	904.831	681.768
199.417	14.108	904.380	681.684
200.432	14.156	903.961	681.504
201.446	14.222	903.661	681.488
202.461	14.257	903.106	681.152
203.475	14.295	902.506	680.795
204.490	14.331	901.933	680.450
205.504	14.227	901.040	679.292
206.519	14.091	900.289	678.109
207.534	14.160	899.507	677.743
208.548	14.066	899.234	677.094
209.563	14.115	897.933	676.254
210.577	14.164	897.324	675.933
211.592	14.278	896.893	676.012
212.607	14.166	896.990	675.570
213.621	14.256	895.866	675.029
214.636	14.359	895.145	674.842
215.650	14.135	894.840	673.647
216.665	14.228	894.214	673.491
217.680	14.129	893.526	672.512
218.694	14.557	892.486	673.399
219.709	14.622	892.447	673.574
220.723	14.375	891.865	672.078
221.738	14.382	890.793	671.240
222.753	14.271	890.325	670.378
223.767	14.398	889.371	670.113
224.782	14.558	888.738	670.221
225.796	14.396	887.891	668.871
226.811	14.596	887.203	669.098
227.826	14.487	886.515	668.083
228.840	14.480	886.158	667.727
229.855	14.274	885.748	666.534
230.869	14.508	884.642	666.577
231.884	14.503	883.766	665.836
232.899	14.463	883.108	665.122
233.913	14.406	882.947	664.718
234.928	14.418	882.506	664.375
235.942	14.490	881.152	663.581
236.957	14.543	880.350	663.128
237.972	14.391	880.255	662.395
238.986	14.363	879.518	661.672
240.001	14.369	878.862	661.141
241.015	14.554	878.085	661.234
242.030	14.481	877.618	660.535
243.045	14.507	876.816	659.973
244.059	14.669	875.914	659.879
245.074	14.619	875.381	659.220
246.088	14.618	874.870	658.773
247.103	14.498	874.617	658.052
248.117	14.642	873.729	657.894
249.132	14.868	873.132	658.275
250.147	14.931	872.609	658.068
251.161	14.835	872.545	657.587
252.176	15.035	871.342	657.408
253.190	14.925	870.634	656.383
254.205	15.009	869.987	656.167
255.220	15.082	869.455	655.993
256.234	15.128	868.637	655.496
257.249	15.055	867.932	654.623
258.263	14.987	867.896	654.272
259.278	15.168	866.882	654.154
260.293	15.072	866.476	653.418
261.307	14.986	865.763	652.486
262.322	15.233	865.194	652.962
263.336	15.111	864.919	652.220
264.351	15.073	864.614	651.784
265.366	15.179	863.615	651.386
266.380	15.310	862.871	651.277
267.395	15.368	861.898	650.708
268.409	15.252	861.419	649.840
269.424	15.162	860.546	648.778
270.439	15.280	860.357	649.032
271.453	15.246	859.360	648.092
272.468	15.121	858.650	647.015
273.482	15.061	858.599	646.688
274.497	15.127	857.539	646.089
275.512	15.269	857.053	646.213
276.526	15.249	856.535	645.689
277.541	15.132	855.875	644.682
278.555	15.126	855.221	644.111
279.570	15.305	854.661	644.320
280.585	15.415	854.225	644.354
281.599	15.430	853.625	643.905
282.614	15.459	852.605	643.189
283.628	15.385	852.238	642.572
284.643	15.340	851.598	641.859
285.657	15.238	851.058	641.004
286.672	15.435	850.421	641.221
287.687	15.503	849.714	640.891
288.701	15.354	849.931	640.429
289.716	15.419	849.281	640.132
290.730	15.414	848.603	639.545
291.745	15.524	847.880	639.360
292.760	15.548	846.898	638.655
293.774	15.476	846.654	638.143
294.789	15.585	846.350	638.271
295.803	15.629	845.752	637.931
296.818	15.593	844.617	636.880
297.833	15.553	844.170	636.335
298.847	15.429	843.626	635.400
299.862	15.385	843.155	634.823
300.876	15.597	841.931	634.646
301.891	15.668	841.443	634.491
302.906	15.614	840.871	633.798
303.920	15.601	840.265	633.238
304.935	15.843	839.237	633.316
305.949	15.792	839.058	632.934
306.964	15.777	838.921	632.720
307.979	15.675	837.982	631.572
308.993	15.890	837.093	631.652
310.008	15.837	836.857	631.218
311.022	15.920	836.034	630.853
312.037	15.939	835.692	630.612
313.052	15.823	835.218	629.762
314.066	15.789	834.636	629.143
315.081	15.768	834.110	628.611
316.095	15.780	833.415	628.076
317.110	15.685	832.766	627.178
318.125	15.688	832.412	626.867
319.139	15.717	831.899	626.534
320.154	15.812	831.343	626.411
321.168	15.853	830.806	626.104
322.183	15.872	830.305	625.741
323.197	15.793	829.720	624.953
324.212	15.794	829.056	624.401
325.227	15.939	828.627	624.560
326.241	15.901	828.011	623.898
327.256	15.891	827.569	623.475
328.270	15.840	827.112	622.885
329.285	15.764	826.579	622.147
330.300	15.834	826.126	622.011
331.314	15.749	825.381	621.080
332.329	15.967	824.567	621.218
333.343	16.044	823.903	620.948
334.358	16.044	823.626	620.683
335.373	16.116	822.805	620.273
336.387	16.109	822.632	620.063
337.402	16.055	822.082	619.394
338.416	15.990	821.442	618.621
339.431	16.191	820.758	618.787
340.446	16.357	820.125	618.862
341.460	16.252	819.650	618.066
342.475	16.342	819.173	617.979
343.489	16.292	818.919	617.551
344.504	16.279	818.329	617.005
345.519	16.213	818.136	616.564
346.533	16.400	817.127	616.432
347.548	16.294	816.961	615.864
348.562	16.466	815.857	615.602
349.577	16.318	815.323	614.608
350.592	16.244	814.926	613.986
351.606	16.337	814.200	613.720
352.621	16.298	813.888	613.290
353.635	16.380	813.631	613.341
354.650	16.280	813.485	612.812
355.665	16.365	812.725	612.495
356.679	16.281	812.684	612.103
357.694	16.418	812.004	612.035
358.708	16.480	811.378	611.732
359.723	16.342	810.886	610.808
360.738	16.493	810.227	610.805
361.752	16.393	810.013	610.227
362.767	16.528	809.183	610.036
363.781	16.581	809.140	610.140
364.796	16.686	808.406	609.912
365.810	16.629	807.942	609.301
366.825	16.882	807.549	609.862
367.840	16.742	807.624	609.362
368.854	16.823	806.747	608.935
369.869	16.775	806.296	608.370
370.883	16.637	806.052	607.637
371.898	16.600	805.502	607.033
372.913	16.713	804.716	606.794
373.927	16.787	804.016	606.477
374.942	16.813	803.730	606.300
375.956	16.705	802.877	605.216
376.971	16.753	802.264	604.872
377.986	16.858	801.803	604.847
379.000	16.946	801.438	604.831
380.015	16.807	801.285	604.167
381.029	16.929	800.108	603.659
382.044	16.969	800.049	603.706
383.059	17.011	799.162	603.133
384.073	17.136	798.595	603.095
385.088	17.047	798.099	602.349
386.102	16.855	798.021	601.555
387.117	16.819	797.477	600.967
388.132	17.012	796.580	600.922
389.146	16.944	796.050	600.226
390.161	16.876	796.293	600.118
391.175	16.972	795.602	599.881
392.190	16.931	795.457	599.574
393.205	16.985	794.980	599.352
394.219	17.030	794.369	598.999
395.234	16.918	793.942	598.228
396.248	17.083	793.012	598.056
397.263	16.992	792.628	597.391
398.278	16.825	792.460	596.624
399.292	16.928	791.551	596.250
400.307	16.911	791.499	596.099
401.321	16.909	791.095	595.735
402.336	17.040	790.809	595.927
403.350	16.956	790.392	595.264
404.365	16.933	789.897	594.759
405.380	17.081	789.437	594.877
406.394	17.182	789.043	594.883
407.409	17.277	788.618	594.841
408.423	17.298	787.843	594.279
409.438	17.283	787.673	594.045
410.453	17.312	787.256	593.778
411.467	17.492	786.848	594.046
412.482	17.414	786.145	593.191
413.496	17.433	785.827	592.966
414.511	17.343	785.434	592.303
415.526	17.408	784.925	592.093
416.540	17.586	784.713	592.500
417.555	17.451	784.276	591.649
418.569	17.501	783.826	591.430
419.584	17.656	783.316	591.530
420.599	17.665	782.880	591.180
421.613	110.135	1291.404	1471.733
422.628	94.354	1365.467	1471.855
