DTS Sentinel unit serial number:	SN413079Multiplexer serial number:	ORYXHardware model number:	OX4-SRSoftware version number:	ORYX F/W v4.00 Oryx Data Collector v3.7.2.0data status	okinstallation	princeton_trtdifferential loss correction	single-endedforward channel	channel 3reverse channel	N/Adate	2019/09/11time	07:30:11forward acquisition time	60.00reverse acquisition time	0.00gamma	496.2192k internal	0.2325k external	0.2325temperature offset calibration	0.9892default loss term (dB/km)	0.3790temperature slope calibration	1.0000multiplexer offset coefficient	1.0000multiplexer slope coefficient	1.0000fibre end	0.00T internal ref (°C)	31.06T ext. ref 1 (°C)	-0.09T ext. ref 2 (°C)	27.51length (m)	temperature (°C)	Stokes	anti-Stokes-747.200	37.639	0.177	-0.158
-746.185	268.148	-0.117	0.206
-745.171	-177.852	-0.224	0.005
-744.156	-1.451	0.179	-0.128
-743.142	103.182	-0.167	0.198
-742.127	800.000	0.098	0.282
-741.112	159.301	-0.145	-0.203
-740.098	-49.914	-0.225	0.108
-739.083	-85.354	0.258	-0.081
-738.069	-60.922	0.313	0.134
-737.054	542.613	0.023	0.055
-736.039	-98.221	-0.440	0.114
-735.025	-200.000	-0.011	0.378
-734.010	-34.038	-0.048	-0.027
-732.996	16.066	0.242	0.192
-731.981	191.274	0.081	-0.123
-730.966	-160.341	-0.329	-0.018
-729.952	800.000	0.161	0.455
-728.937	-28.974	-0.064	0.037
-727.923	-200.000	-0.013	0.111
-726.908	-8.037	-0.215	-0.146
-725.894	81.013	0.068	-0.074
-724.879	-84.195	-0.198	0.063
-723.864	-29.171	0.333	-0.193
-722.850	184.455	-0.274	0.409
-721.835	-200.000	-0.012	-0.251
-720.821	-200.000	-0.020	0.149
-719.806	-159.747	-0.305	-0.017
-718.791	611.894	-0.056	0.142
-717.777	164.859	0.204	-0.291
-716.762	-200.000	-0.024	-0.190
-715.748	126.881	0.111	-0.142
-714.733	800.000	-0.143	-0.473
-713.718	177.378	0.144	-0.211
-712.704	-121.593	0.060	-0.010
-711.689	800.000	-0.084	-0.254
-710.675	200.596	-0.120	-0.186
-709.660	312.933	-0.083	0.157
-708.645	800.000	0.070	-0.264
-707.631	-144.184	-0.121	0.011
-706.616	177.873	0.122	-0.179
-705.602	-200.000	0.002	0.149
-704.587	72.112	0.148	0.155
-703.572	-95.602	-0.374	-0.101
-702.558	-200.000	0.017	-0.214
-701.543	442.531	0.118	0.260
-700.529	-200.000	0.044	-0.206
-699.514	-185.583	0.585	-0.009
-698.499	-134.610	-0.230	-0.028
-697.485	-43.832	-0.312	0.158
-696.470	200.512	0.103	-0.159
-695.456	-200.000	0.074	0.371
-694.441	291.559	-0.068	-0.125
-693.426	445.378	0.108	-0.239
-692.412	102.232	0.245	-0.288
-691.397	-200.000	-0.012	-0.190
-690.383	-96.323	-0.287	-0.077
-689.368	800.000	0.105	0.291
-688.354	1.065	0.168	0.121
-687.339	-200.000	-0.009	0.162
-686.324	800.000	0.088	-0.286
-685.310	50.832	-0.142	0.135
-684.295	-176.721	0.159	0.004
-683.281	-6.848	-0.132	0.090
-682.266	358.291	0.056	-0.113
-681.251	-11.592	-0.284	-0.188
-680.237	-200.000	-0.066	-0.578
-679.222	-134.473	0.059	0.007
-678.208	-71.534	0.234	0.088
-677.193	56.472	-0.106	0.104
-676.178	182.970	-0.277	-0.411
-675.164	538.211	-0.102	0.245
-674.149	165.539	0.169	-0.241
-673.135	-62.718	-0.300	-0.125
-672.120	-200.000	-0.014	0.136
-671.105	800.000	0.026	-0.083
-670.091	800.000	-0.049	-0.187
-669.076	-165.195	-0.284	-0.013
-668.062	-85.132	-0.213	0.067
-667.047	22.678	0.369	-0.304
-666.032	800.000	-0.124	-0.409
-665.018	-127.985	-0.232	0.033
-664.003	-26.654	0.250	-0.147
-662.989	91.075	-0.128	-0.145
-661.974	77.862	-0.174	0.186
-660.959	-19.350	0.217	0.136
-659.945	-51.950	0.382	-0.178
-658.930	-158.367	-0.027	0.002
-657.916	-200.000	0.014	-0.203
-656.901	-200.000	0.033	0.241
-655.886	-200.000	-0.001	0.094
-654.872	49.513	-0.152	-0.144
-653.857	-162.391	-0.120	-0.006
-652.843	145.006	-0.171	-0.230
-651.828	-200.000	0.012	-0.179
-650.814	800.000	0.080	0.311
-649.799	-124.112	0.105	0.017
-648.784	-200.000	-0.045	0.255
-647.770	84.288	-0.146	-0.160
-646.755	89.596	0.165	-0.185
-645.741	800.000	0.037	0.104
-644.726	-200.000	-0.032	-0.234
-643.711	800.000	0.085	-0.265
-642.697	-4.601	-0.252	0.175
-641.682	154.575	-0.120	-0.165
-640.668	142.190	-0.204	0.272
-639.653	5.306	0.441	-0.327
-638.638	-165.777	-0.191	0.008
-637.624	-157.549	0.036	-0.002
-636.609	800.000	0.087	0.246
-635.595	-82.627	-0.232	-0.076
-634.580	4.934	0.159	0.118
-633.565	-200.000	0.174	0.000
-632.551	-110.806	-0.180	-0.037
-631.536	356.333	0.105	0.209
-630.522	146.479	0.116	-0.157
-629.507	-32.093	-0.349	0.196
-628.492	-6.951	0.014	0.010
-627.478	-20.113	-0.360	-0.223
-626.463	-200.000	-0.018	-0.215
-625.449	16.821	0.134	0.107
-624.434	-124.893	0.091	0.014
-623.419	-132.142	0.297	0.039
-622.405	-44.016	-0.408	-0.206
-621.390	-200.000	0.085	-0.505
-620.376	800.000	-0.094	-0.275
-619.361	-92.451	0.317	-0.090
-618.346	-8.656	0.108	-0.073
-617.332	5.846	-0.087	-0.065
-616.317	-119.243	0.256	0.045
-615.303	-98.634	-0.276	-0.071
-614.288	-200.000	-0.366	-0.002
-613.273	55.532	-0.152	0.147
-612.259	-64.083	-0.285	0.117
-611.244	48.308	0.197	-0.185
-610.230	27.100	-0.174	0.147
-609.215	-96.932	-0.367	0.097
-608.201	-38.091	0.163	-0.087
-607.186	438.485	-0.047	0.103
-606.171	50.198	-0.204	-0.194
-605.157	14.368	-0.155	0.122
-604.142	-182.382	0.210	-0.004
-603.128	121.254	0.175	-0.219
-602.113	-117.528	0.186	0.034
-601.098	-15.476	-0.136	0.087
-600.084	-200.000	-0.024	-0.254
-599.069	-84.839	-0.141	-0.045
-598.055	800.000	0.112	-0.325
-597.040	-57.639	0.460	0.202
-596.025	-87.696	-0.222	0.067
-595.011	501.955	0.106	-0.246
-593.996	650.338	0.050	-0.128
-592.982	-28.197	-0.038	-0.022
-591.967	-200.000	-0.008	0.245
-590.952	-86.911	0.138	0.042
-589.938	-112.780	-0.302	-0.060
-588.923	86.356	0.236	0.261
-587.909	-48.260	0.618	-0.299
-586.894	-45.272	-0.222	-0.110
-585.879	-200.000	-0.056	-0.402
-584.865	364.429	0.175	-0.354
-583.850	215.368	-0.229	0.364
-582.836	-101.713	-0.205	-0.050
-581.821	656.847	-0.058	0.149
-580.806	-134.599	0.149	0.018
-579.792	593.779	-0.120	-0.298
-578.777	-62.791	-0.347	0.144
-577.763	800.000	-0.049	0.183
-576.748	-161.768	0.330	-0.017
-575.733	330.905	-0.062	0.119
-574.719	53.379	0.119	-0.114
-573.704	-78.088	0.255	0.088
-572.690	353.182	-0.050	0.099
-571.675	345.709	-0.171	-0.337
-570.661	-47.347	0.259	0.127
-569.646	-200.000	-0.038	0.270
-568.631	-7.088	0.066	0.045
-567.617	-80.581	0.323	-0.108
-566.602	41.773	-0.305	-0.277
-565.588	-200.000	0.031	-0.186
-564.573	-32.140	-0.377	-0.211
-563.558	199.701	0.069	-0.107
-562.544	-200.000	-0.009	0.119
-561.529	100.771	0.086	-0.100
-560.515	-3.759	-0.186	0.129
-559.500	522.431	0.108	0.254
-558.485	800.000	-0.033	0.126
-557.471	345.160	-0.137	0.270
-556.456	7.701	-0.365	-0.274
-555.442	-160.583	0.332	0.018
-554.427	-200.000	0.010	-0.188
-553.412	-50.207	-0.379	-0.180
-552.398	176.890	0.211	-0.307
-551.383	-106.699	0.139	-0.031
-550.369	31.087	-0.169	-0.145
-549.354	144.435	-0.077	0.103
-548.339	224.209	0.146	0.237
-547.325	-200.000	-0.049	0.372
-546.310	204.635	-0.226	0.352
-545.296	276.547	0.087	0.155
-544.281	-200.000	-0.061	-0.291
-543.266	558.232	-0.053	-0.129
-542.252	-35.200	0.328	-0.179
-541.237	70.258	0.217	0.224
-540.223	27.393	0.167	0.140
-539.208	146.044	-0.205	0.276
-538.193	-124.743	-0.138	0.021
-537.179	-121.137	0.066	-0.011
-536.164	-133.919	-0.241	0.030
-535.150	-163.407	-0.236	0.011
-534.135	72.500	-0.069	-0.072
-533.121	-1.332	-0.172	-0.121
-532.106	-200.000	0.008	0.050
-531.091	-133.947	0.080	0.010
-530.077	-163.097	-0.315	-0.015
-529.062	16.407	-0.127	0.100
-528.048	44.337	0.084	-0.077
-527.033	-60.207	0.264	-0.113
-526.018	-170.523	0.070	0.002
-525.004	-200.000	0.016	0.120
-523.989	800.000	0.102	-0.317
-522.975	800.000	-0.080	0.237
-521.960	45.253	-0.171	0.158
-520.945	-86.470	0.058	0.018
-519.931	283.161	0.181	-0.324
-518.916	-77.939	0.116	0.040
-517.902	17.789	0.053	-0.042
-516.887	-35.954	0.137	0.074
-515.872	73.820	0.317	0.332
-514.858	-109.004	0.213	0.045
-513.843	-154.771	-0.321	0.021
-512.829	-200.000	-0.064	-0.331
-511.814	-10.564	0.173	0.115
-510.799	-29.709	-0.251	-0.143
-509.785	-32.373	0.303	0.169
-508.770	88.474	0.233	0.259
-507.756	-200.000	-0.036	0.302
-506.741	-163.217	0.174	-0.008
-505.726	57.521	-0.062	0.060
-504.712	122.207	-0.088	-0.110
-503.697	-67.248	-0.278	-0.109
-502.683	145.704	-0.123	-0.165
-501.668	-200.000	-0.042	-0.402
-500.653	172.284	-0.129	0.185
-499.639	-146.392	-0.366	0.032
-498.624	-42.312	0.163	0.083
-497.610	800.000	-0.102	-0.296
-496.595	-90.581	0.415	-0.120
-495.581	10.658	-0.214	-0.163
-494.566	709.041	0.065	0.173
-493.551	-100.040	0.077	-0.019
-492.537	-200.000	-0.013	0.146
-491.522	107.571	-0.281	0.334
-490.508	-182.649	0.300	0.005
-489.493	-85.783	0.154	-0.048
-488.478	108.451	-0.085	-0.101
-487.464	800.000	0.058	-0.162
-486.449	242.626	0.036	-0.061
-485.435	63.740	-0.103	0.103
-484.420	-105.130	0.253	-0.058
-483.405	-200.000	-0.012	-0.097
-482.391	267.230	0.215	0.376
-481.376	-77.581	0.251	0.087
-480.362	-200.000	0.005	0.133
-479.347	-125.266	-0.341	0.052
-478.332	-3.364	-0.232	0.162
-477.318	204.669	-0.043	0.067
-476.303	-94.357	-0.209	-0.057
-475.289	800.000	-0.092	-0.267
-474.274	-112.595	0.270	-0.054
-473.259	107.234	-0.044	0.052
-472.245	-19.698	-0.048	0.030
-471.230	274.629	0.105	-0.186
-470.216	-200.000	0.006	0.120
-469.201	-83.077	-0.239	0.077
-468.186	-82.560	0.278	-0.090
-467.172	-87.682	0.358	0.108
-466.157	-112.423	-0.273	0.054
-465.143	657.899	0.119	-0.306
-464.128	540.229	0.055	-0.131
-463.113	90.128	-0.340	0.379
-462.099	201.604	-0.127	0.195
-461.084	-200.000	0.039	0.194
-460.070	-32.754	0.036	-0.020
-459.055	-200.000	0.005	-0.182
-458.040	-25.069	-0.208	-0.123
-457.026	452.862	0.088	-0.194
-456.011	-200.000	-0.019	-0.115
-454.997	767.597	-0.063	-0.172
-453.982	800.000	-0.041	-0.132
-452.968	-200.000	0.033	-0.224
-451.953	-15.402	-0.357	-0.227
-450.938	-112.758	-0.360	-0.071
-449.924	-200.000	-0.014	-0.079
-448.909	9.060	0.122	-0.092
-447.895	32.787	-0.185	0.159
-446.880	-112.836	-0.103	0.020
-445.865	-182.179	-0.093	0.002
-444.851	286.773	0.138	-0.249
-443.836	-138.247	-0.090	-0.010
-442.822	-84.277	0.156	-0.049
-441.807	-200.000	-0.043	0.387
-440.792	84.379	0.052	0.057
-439.778	632.706	-0.057	0.143
-438.763	505.093	-0.148	0.342
-437.749	18.982	-0.188	-0.150
-436.734	-50.234	-0.105	-0.049
-435.719	-71.702	-0.168	0.062
-434.705	-200.000	0.024	0.279
-433.690	692.953	-0.059	-0.155
-432.676	158.199	0.156	-0.216
-431.661	-40.724	-0.285	-0.147
-430.646	-200.000	0.020	-0.228
-429.632	-200.000	-0.007	-0.166
-428.617	169.335	0.144	-0.204
-427.603	734.879	0.050	-0.132
-426.588	101.303	0.039	-0.046
-425.573	800.000	0.122	-0.360
-424.559	-200.000	-0.036	-0.159
-423.544	709.777	-0.106	-0.280
-422.530	-200.000	-0.118	0.000
-421.515	-41.021	0.063	-0.032
-420.500	-200.000	-0.026	0.143
-419.486	11.032	-0.188	-0.143
-418.471	36.324	0.280	0.246
-417.457	-120.560	-0.267	-0.045
-416.442	72.376	0.166	-0.172
-415.428	10.730	-0.077	-0.058
-414.413	800.000	-0.023	-0.080
-413.398	-5.636	0.254	0.174
-412.384	-200.000	0.013	0.221
-411.369	-93.848	0.218	-0.060
-410.355	-109.824	-0.329	-0.069
-409.340	14.051	0.191	-0.148
-408.325	232.455	-0.191	0.313
-407.311	28.310	0.381	0.321
-406.296	800.000	0.127	0.374
-405.282	256.299	-0.144	-0.246
-404.267	266.541	0.175	0.304
-403.252	501.280	-0.044	-0.102
-402.238	-200.000	-0.027	-0.329
-401.223	-104.256	0.321	-0.074
-400.209	-200.000	0.040	-0.342
-399.194	188.378	-0.160	0.238
-398.179	211.582	-0.181	-0.283
-397.165	52.272	-0.054	0.051
-396.150	191.288	0.070	-0.105
-395.136	800.000	-0.084	-0.294
-394.121	-73.503	0.284	0.103
-393.106	265.966	-0.074	-0.129
-392.092	800.000	0.061	-0.181
-391.077	614.730	-0.012	0.029
-390.063	-200.000	0.022	0.250
-389.048	-63.304	0.062	-0.025
-388.033	-102.240	0.214	-0.051
-387.019	800.000	-0.097	0.301
-386.004	-200.000	-0.012	0.304
-384.990	800.000	0.070	0.193
-383.975	381.757	-0.100	-0.203
-382.960	-200.000	-0.027	-0.298
-381.946	-71.995	-0.147	-0.054
-380.931	-111.477	0.444	-0.090
-379.917	-104.871	0.290	0.066
-378.902	-87.833	0.167	-0.050
-377.888	4.332	0.113	0.083
-376.873	-200.000	0.019	0.200
-375.858	131.279	-0.190	-0.243
-374.844	91.836	-0.151	-0.169
-373.829	-43.673	-0.211	0.106
-372.815	-24.852	-0.226	0.134
-371.800	-135.497	0.187	0.022
-370.785	23.394	0.346	0.283
-369.771	-38.829	-0.012	-0.006
-368.756	-173.881	0.044	0.001
-367.742	102.864	0.148	0.172
-366.727	-174.188	-0.109	-0.003
-365.712	-200.000	-0.034	0.267
-364.698	34.725	0.043	-0.037
-363.683	43.690	0.086	-0.078
-362.669	-200.000	0.065	-0.346
-361.654	577.827	-0.106	0.259
-360.639	120.928	-0.127	0.157
-359.625	-138.528	0.149	0.016
-358.610	-165.897	0.163	0.007
-357.596	60.157	-0.203	0.199
-356.581	372.552	0.034	-0.069
-355.566	53.528	0.112	-0.107
-354.552	220.028	-0.131	0.208
-353.537	-109.144	0.343	-0.072
-352.523	-200.000	-0.038	0.284
-351.508	-200.000	0.019	0.232
-350.493	-143.598	-0.211	0.020
-349.479	-65.555	-0.338	-0.135
-348.464	-67.311	-0.169	-0.066
-347.450	21.631	0.090	0.073
-346.435	-200.000	0.021	-0.219
-345.420	-105.108	0.073	-0.017
-344.406	-200.000	-0.023	-0.209
-343.391	800.000	0.048	-0.174
-342.377	-200.000	0.017	0.214
-341.362	-61.001	-0.171	0.072
-340.348	-200.000	0.009	0.044
-339.333	21.939	0.367	-0.298
-338.318	702.289	-0.085	0.223
-337.304	-47.707	-0.089	0.043
-336.289	95.592	-0.205	0.232
-335.275	-26.320	0.360	-0.210
-334.260	-200.000	0.030	0.181
-333.245	-73.354	-0.049	-0.018
-332.231	137.422	-0.033	-0.043
-331.216	-200.000	-0.023	-0.149
-330.202	64.611	0.117	0.117
-329.187	147.739	-0.187	0.250
-328.172	539.670	0.117	0.277
-327.158	71.868	0.095	-0.098
-326.143	94.351	0.097	0.109
-325.129	-35.580	-0.080	-0.043
-324.114	-180.733	0.236	-0.005
-323.099	-117.028	0.045	-0.008
-322.085	-126.951	-0.396	-0.058
-321.070	-111.668	-0.424	0.085
-320.056	701.096	-0.056	0.146
-319.041	-200.000	0.039	-0.216
-318.026	-73.592	0.187	0.068
-317.012	382.119	0.087	0.177
-315.997	800.000	-0.087	-0.264
-314.983	4.739	0.128	-0.093
-313.968	-26.504	0.113	-0.065
-312.953	8.088	0.177	-0.132
-311.939	-1.474	-0.086	-0.060
-310.924	800.000	0.027	0.105
-309.910	2.426	0.393	0.282
-308.895	-200.000	0.018	-0.131
-307.880	13.297	-0.154	0.118
-306.866	237.790	-0.100	-0.164
-305.851	-38.135	-0.183	0.096
-304.837	-109.447	0.155	-0.032
-303.822	-200.000	0.020	-0.113
-302.807	103.867	0.089	0.103
-301.793	405.732	-0.135	-0.283
-300.778	-19.026	-0.165	-0.102
-299.764	800.000	0.040	0.118
-298.749	111.219	-0.083	-0.099
-297.735	-10.932	-0.191	0.125
-296.720	24.829	-0.057	-0.047
-295.705	-108.120	-0.223	0.048
-294.691	551.237	-0.218	-0.520
-293.676	-123.002	-0.187	0.030
-292.662	147.202	-0.301	0.402
-291.647	552.825	0.021	-0.049
-290.632	-200.000	-0.077	0.403
-289.618	-81.501	0.120	0.039
-288.603	94.944	0.243	0.274
-287.589	800.000	-0.032	0.089
-286.574	27.215	0.104	-0.086
-285.559	32.926	0.163	-0.140
-284.545	3.821	0.080	-0.058
-283.530	-114.778	-0.171	0.032
-282.516	627.109	0.128	0.321
-281.501	-128.771	0.120	-0.017
-280.486	-130.535	0.156	0.021
-279.472	-200.000	0.038	0.319
-278.457	352.637	0.080	-0.158
-277.443	125.082	0.217	-0.271
-276.428	-107.156	-0.348	-0.076
-275.413	69.589	-0.139	-0.141
-274.399	-200.000	0.001	-0.108
-273.384	-157.461	-0.244	0.014
-272.370	-126.164	0.221	0.033
-271.355	-200.000	0.004	0.046
-270.340	6.742	0.275	0.203
-269.326	184.101	-0.183	0.269
-268.311	3.303	-0.107	0.077
-267.297	-59.836	0.058	-0.025
-266.282	-103.419	0.276	-0.064
-265.267	-79.947	0.188	0.063
-264.253	-56.530	0.325	0.143
-263.238	-150.263	-0.107	-0.008
-262.224	-88.265	-0.054	-0.016
-261.209	-0.215	0.022	0.015
-260.195	399.160	0.034	0.070
-259.180	-27.295	-0.198	0.114
-258.165	11.509	0.188	-0.143
-257.151	158.977	-0.063	-0.087
-256.136	-37.726	-0.104	0.055
-255.122	489.436	-0.035	-0.079
-254.107	-105.636	0.250	-0.056
-253.092	53.453	-0.067	-0.063
-252.078	246.909	-0.226	0.377
-251.063	-100.586	-0.075	-0.018
-250.049	-200.000	-0.030	0.211
-249.034	-200.000	0.025	0.159
-248.019	-107.191	-0.114	0.025
-247.005	117.822	0.111	-0.135
-245.990	-130.423	-0.160	-0.021
-244.976	-118.587	0.215	0.038
-243.961	69.627	-0.110	0.112
-242.946	-200.000	0.001	0.016
-241.932	-200.000	-0.010	-0.322
-240.917	-170.161	-0.158	-0.006
-239.903	51.384	-0.127	-0.119
-238.888	-34.476	-0.242	0.131
-237.873	-44.404	0.029	0.014
-236.859	66.838	-0.139	0.140
-235.844	17.051	0.185	-0.145
-234.830	194.106	-0.095	-0.142
-233.815	-90.010	0.181	0.052
-232.800	800.000	-0.072	0.305
-231.786	-51.454	-0.280	0.130
-230.771	123.536	0.210	0.261
-229.757	-35.526	-0.114	-0.061
-228.742	576.195	0.100	-0.242
-227.727	-60.802	-0.049	-0.021
-226.713	141.707	-0.065	-0.085
-225.698	-200.000	0.056	-0.246
-224.684	340.019	-0.066	-0.128
-223.669	71.939	0.196	0.201
-222.655	417.842	-0.010	0.021
-221.640	-54.510	0.122	0.054
-220.625	393.720	0.081	0.168
-219.611	67.790	-0.104	0.105
-218.596	-124.317	-0.033	0.005
-217.582	-45.954	0.274	0.134
-216.567	-6.289	0.103	0.070
-215.552	69.371	0.299	-0.305
-214.538	-65.049	0.313	-0.125
-213.523	80.971	-0.068	0.072
-212.509	-87.510	-0.069	0.021
-211.494	-113.566	-0.358	-0.069
-210.479	-83.883	0.297	-0.093
-209.465	430.906	0.049	0.104
-208.450	-200.000	0.024	-0.241
-207.436	345.471	0.179	0.348
-206.421	-68.099	0.086	-0.033
-205.406	-200.000	-0.001	0.027
-204.392	135.146	0.127	-0.163
-203.377	214.637	0.161	0.252
-202.363	46.611	0.035	-0.032
-201.348	-60.214	0.220	0.093
-200.333	-126.196	0.279	-0.041
-199.319	-127.738	0.031	0.004
-198.304	800.000	0.048	0.176
-197.290	-147.745	-0.153	-0.013
-196.275	800.000	-0.070	-0.233
-195.260	111.014	0.111	0.132
-194.246	6.736	0.156	-0.115
-193.231	95.173	0.064	-0.072
-192.217	-71.080	-0.125	0.047
-191.202	154.584	-0.190	0.258
-190.187	63.500	-0.094	-0.094
-189.173	-194.059	0.318	0.003
-188.158	-108.812	-0.200	0.042
-187.144	-79.969	-0.292	0.097
-186.129	195.953	-0.081	-0.122
-185.114	17.919	-0.166	-0.131
-184.100	230.675	0.056	-0.090
-183.085	-7.353	-0.322	0.215
-182.071	181.206	0.105	0.152
-181.056	-4.073	-0.242	-0.166
-180.042	185.138	0.151	0.222
-179.027	-147.188	0.184	0.015
-178.012	-54.633	0.324	0.145
-176.998	-125.825	-0.192	0.029
-175.983	-200.000	0.003	-0.143
-174.969	-4.328	0.067	0.046
-173.954	800.000	0.057	0.171
-172.939	703.125	0.104	0.270
-171.925	235.762	0.027	-0.044
-170.910	225.676	-0.091	-0.146
-169.896	-155.207	0.455	-0.029
-168.881	-200.000	-0.012	-0.241
-167.866	87.005	0.283	-0.308
-166.852	-200.000	0.012	0.150
-165.837	-200.000	-0.000	-0.044
-164.823	-200.000	0.032	0.275
-163.808	34.091	-0.068	0.058
-162.793	800.000	-0.087	0.297
-161.779	-35.161	-0.112	-0.060
-160.764	142.403	-0.177	0.232
-159.750	583.912	0.095	-0.230
-158.735	-200.000	-0.007	0.152
-157.720	-200.000	-0.024	-0.242
-156.706	450.517	-0.057	0.125
-155.691	169.858	-0.186	0.262
-154.677	-164.857	0.173	-0.008
-153.662	186.656	0.118	-0.173
-152.647	124.254	-0.174	0.216
-151.633	-56.776	-0.198	-0.086
-150.618	-56.728	-0.275	0.120
-149.604	144.740	0.162	-0.213
-148.589	147.506	-0.090	-0.120
-147.574	607.945	0.073	0.179
-146.560	-150.786	0.118	-0.009
-145.545	-55.610	-0.425	-0.188
-144.531	800.000	0.047	0.202
-143.516	-143.482	0.278	-0.026
-142.502	-38.708	-0.324	-0.168
-141.487	-112.807	0.138	-0.027
-140.472	-200.000	-0.018	0.242
-139.458	420.992	0.020	0.042
-138.443	75.089	0.056	0.059
-137.429	258.849	-0.181	0.307
-136.414	-37.610	0.006	-0.003
-135.399	795.702	-0.074	0.200
-134.385	20.882	0.248	-0.198
-133.370	343.210	0.067	-0.129
-132.356	-38.145	-0.164	0.086
-131.341	-120.654	0.372	-0.062
-130.326	-56.641	0.239	0.104
-129.312	-33.828	0.230	-0.125
-128.297	800.000	0.029	-0.119
-127.283	-164.688	0.308	-0.014
-126.268	-37.260	-0.175	0.092
-125.253	-200.000	0.104	0.498
-124.239	124.702	-0.043	-0.053
-123.224	-200.000	-0.034	-0.173
-122.210	800.000	0.063	0.213
-121.195	800.000	0.082	0.297
-120.180	-154.068	0.374	-0.025
-119.166	-98.218	0.141	0.036
-118.151	2.818	-0.262	-0.187
-117.137	77.572	-0.291	0.305
-116.122	48.865	0.073	-0.067
-115.107	-49.152	-0.268	-0.126
-114.093	128.128	-0.061	-0.076
-113.078	-41.431	0.128	0.065
-112.064	69.685	0.151	-0.153
-111.049	-100.508	0.182	-0.044
-110.034	84.136	-0.219	-0.235
-109.020	-72.846	-0.440	0.159
-108.005	-200.000	-0.006	-0.310
-106.991	210.735	-0.109	0.168
-105.976	10.299	-0.049	-0.037
-104.962	204.970	-0.019	-0.030
-103.947	210.773	0.097	-0.149
-102.932	384.745	0.045	-0.090
-101.918	-136.653	-0.224	-0.025
-100.903	80.295	0.164	-0.174
-99.889	363.553	0.213	-0.420
-98.874	500.413	-0.116	-0.263
-97.859	314.439	-0.113	-0.209
-96.845	71.729	-0.304	-0.311
-95.830	-165.271	0.149	0.006
-94.816	-200.000	0.032	0.175
-93.801	108.934	0.034	0.040
-92.786	-140.883	0.181	-0.018
-91.772	15.119	-0.164	0.126
-90.757	-22.695	-0.029	0.017
-89.743	-200.000	-0.064	-0.448
-88.728	111.215	-0.098	-0.116
-87.713	800.000	0.162	-0.608
-86.699	139.680	0.110	-0.143
-85.684	472.051	0.028	0.063
-84.670	56.678	-0.160	0.153
-83.655	-115.208	0.086	-0.016
-82.640	-112.863	0.068	-0.013
-81.626	-200.000	-0.011	-0.357
-80.611	83.788	-0.181	0.194
-79.597	-38.084	0.113	-0.059
-78.582	11.181	0.179	0.135
-77.567	84.822	-0.043	-0.046
-76.553	67.824	-0.122	-0.123
-75.538	315.610	0.103	0.191
-74.524	156.371	0.097	0.132
-73.509	240.708	0.058	-0.095
-72.494	-117.385	-0.178	-0.032
-71.480	-63.625	-0.166	-0.067
-70.465	93.186	0.202	-0.224
-69.451	-51.628	-0.121	0.056
-68.436	144.524	0.116	-0.152
-67.422	-42.669	0.206	0.103
-66.407	92.370	-0.094	0.105
-65.392	800.000	-0.085	0.290
-64.378	-30.791	0.127	-0.071
-63.363	263.535	0.093	-0.159
-62.349	482.703	-0.135	0.302
-61.334	38.686	-0.959	-0.841
-60.319	2.678	0.446	0.318
-59.305	652.319	-0.521	-1.311
-58.290	382.767	0.654	1.322
-57.276	383.548	0.649	1.312
-56.261	-200.000	97.937	607.450
-55.246	604.430	1422.714	3478.492
-54.232	187.233	2623.455	3842.355
-53.217	115.626	2186.344	2625.475
-52.203	42.018	1717.174	1530.465
-51.188	34.303	1529.175	1310.064
-50.173	31.951	1502.636	1271.357
-49.159	51.565	1553.888	1450.381
-48.144	52.980	1571.048	1476.094
-47.130	34.447	1529.665	1311.266
-46.115	31.366	1515.289	1277.859
-45.100	31.240	1511.259	1273.550
-44.086	31.209	1509.883	1272.133
-43.071	31.102	1507.343	1269.209
-42.057	31.081	1505.825	1267.738
-41.042	31.034	1504.526	1266.281
-40.027	31.133	1502.737	1265.391
-39.013	31.080	1501.493	1263.940
-37.998	30.990	1500.641	1262.560
-36.984	31.121	1498.723	1261.779
-35.969	31.100	1497.694	1260.720
-34.954	31.227	1495.629	1259.789
-33.940	31.008	1494.585	1257.389
-32.925	31.049	1493.618	1256.797
-31.911	31.190	1491.857	1256.213
-30.896	31.152	1490.882	1255.091
-29.881	31.147	1489.869	1254.154
-28.867	31.044	1488.147	1251.963
-27.852	31.134	1487.004	1251.558
-26.838	31.160	1485.127	1250.100
-25.823	31.136	1484.014	1248.954
-24.809	31.101	1481.791	1246.796
-23.794	31.087	1480.887	1245.893
-22.779	31.147	1479.037	1244.687
-21.765	31.109	1478.347	1243.807
-20.750	31.147	1477.149	1243.000
-19.736	31.044	1476.121	1241.400
-18.721	31.073	1474.938	1240.548
-17.706	31.070	1474.067	1239.747
-16.692	31.058	1472.655	1238.431
-15.677	31.060	1471.791	1237.670
-14.663	31.037	1470.840	1236.665
-13.648	30.999	1470.050	1235.706
-12.633	30.978	1469.001	1234.631
-11.619	30.974	1468.718	1234.321
-10.604	30.995	1467.529	1233.414
-9.590	31.052	1466.570	1232.930
-8.575	30.968	1466.040	1231.884
-7.560	31.002	1464.713	1230.941
-6.546	30.915	1463.940	1229.674
-5.531	30.994	1462.866	1229.244
-4.517	30.890	1461.713	1227.537
-3.502	31.010	1460.950	1227.639
-2.487	31.012	1459.913	1226.734
-1.473	30.928	1459.006	1225.367
-0.458	31.016	1457.527	1224.655
0.556	28.422	1448.786	1215.227
1.571	26.076	1423.287	1178.431
2.586	23.315	1364.211	1112.110
3.600	21.817	1284.474	1038.156
4.615	20.536	1238.898	993.908
5.629	17.847	1183.421	934.610
6.644	9.177	1097.365	822.363
7.659	1.384	1055.486	752.415
8.673	-0.003	1049.543	741.279
9.688	-0.074	1045.726	738.166
10.702	-0.145	1044.147	736.639
11.717	-0.148	1042.803	735.611
12.731	3.333	1046.686	755.375
13.746	12.279	1059.610	808.881
14.761	18.977	1068.284	848.588
15.775	20.737	1069.705	858.330
16.790	20.879	1069.787	859.020
17.804	20.799	1068.494	857.511
18.819	20.663	1067.437	855.916
19.834	20.678	1067.140	855.678
20.848	20.787	1066.669	855.762
21.863	20.850	1066.291	855.693
22.877	20.839	1066.170	855.462
23.892	20.780	1065.613	854.651
24.907	20.720	1064.677	853.533
25.921	20.916	1063.608	853.562
26.936	20.741	1063.032	852.164
27.950	20.826	1061.475	851.257
28.965	20.760	1060.224	849.857
29.980	20.617	1058.854	847.987
30.994	20.648	1057.349	846.854
32.009	20.764	1056.542	846.700
33.023	20.799	1056.258	846.567
34.038	20.654	1054.753	844.582
35.053	20.681	1053.915	843.967
36.067	20.869	1053.441	844.426
37.082	20.736	1052.751	843.153
38.096	20.916	1051.665	843.081
39.111	20.969	1051.223	842.905
40.126	21.154	1050.169	842.878
41.140	20.902	1048.951	840.613
42.155	20.824	1047.200	838.757
43.169	20.428	1046.086	835.886
44.184	20.481	1045.166	835.331
45.199	20.575	1043.918	834.715
46.213	20.434	1043.028	833.251
47.228	20.359	1042.415	832.328
48.242	20.569	1041.919	832.865
49.257	20.691	1041.118	832.734
50.271	20.685	1039.988	831.731
51.286	20.954	1039.306	832.395
52.301	20.840	1038.527	831.153
53.315	20.910	1037.740	830.781
54.330	20.907	1037.293	830.336
55.344	20.712	1036.593	828.774
56.359	20.806	1035.316	828.126
57.374	20.946	1034.575	828.128
58.388	20.672	1033.481	825.877
59.403	20.573	1033.148	825.070
60.417	20.646	1032.084	824.491
61.432	20.384	1031.498	822.709
62.447	20.483	1030.701	822.470
63.461	20.615	1029.865	822.356
64.476	20.670	1029.158	821.975
65.490	20.628	1028.353	821.063
66.505	20.371	1026.979	818.681
67.520	20.598	1026.445	819.254
68.534	20.667	1025.786	818.978
69.549	20.447	1024.819	817.099
70.563	20.201	1023.339	814.692
71.578	20.091	1023.176	813.973
72.593	20.108	1022.250	813.247
73.607	20.084	1020.736	811.855
74.622	20.124	1019.522	811.005
75.636	20.342	1019.559	811.985
76.651	20.450	1018.833	811.840
77.666	20.325	1017.853	810.401
78.680	20.246	1017.019	809.298
79.695	20.227	1016.802	808.964
80.709	20.317	1016.115	808.767
81.724	20.568	1015.084	809.041
82.739	20.413	1014.199	807.544
83.753	20.431	1013.356	806.885
84.768	20.729	1012.795	807.748
85.782	21.005	1012.102	808.407
86.797	21.179	1011.569	808.713
87.812	20.985	1011.198	807.447
88.826	20.949	1010.063	806.302
89.841	20.843	1009.354	805.178
90.855	21.045	1008.011	804.965
91.870	21.086	1007.715	804.850
92.884	21.119	1006.329	803.822
93.899	20.966	1005.804	802.626
94.914	20.859	1004.517	801.037
95.928	20.918	1004.084	800.891
96.943	20.824	1003.457	799.890
97.957	20.756	1002.080	798.410
98.972	20.485	1000.748	796.035
99.987	20.381	999.445	794.454
101.001	20.429	999.123	794.347
102.016	20.733	998.706	795.333
103.030	20.872	997.547	794.974
104.045	20.674	996.390	793.080
105.060	20.543	995.397	791.623
106.074	20.436	993.896	789.875
107.089	20.454	993.543	789.606
108.103	20.777	992.987	790.557
109.118	20.951	992.421	790.828
110.133	20.514	991.349	787.922
111.147	20.395	990.611	786.727
112.162	20.504	988.688	785.622
113.176	20.206	987.745	783.459
114.191	20.431	987.248	784.010
115.206	20.490	986.066	783.268
116.220	20.281	984.743	781.207
117.235	20.054	984.029	779.550
118.249	20.402	982.883	780.139
119.264	20.412	982.099	779.492
120.279	20.164	981.553	777.877
121.293	20.198	980.725	777.305
122.308	20.191	980.360	776.915
123.322	20.243	979.672	776.532
124.337	20.463	977.970	776.100
125.352	20.264	976.812	774.222
126.366	19.843	974.986	770.830
127.381	19.498	973.833	768.315
128.395	20.058	973.830	770.738
129.410	20.578	973.576	772.780
130.424	20.671	972.923	772.606
131.439	20.771	971.539	771.881
132.454	20.510	970.924	770.168
133.468	20.730	970.005	770.344
134.483	20.708	969.037	769.413
135.497	20.704	968.242	768.695
136.512	20.972	967.207	768.989
137.527	21.003	966.736	768.681
138.541	20.959	965.751	767.638
139.556	20.949	965.122	767.024
140.570	20.945	964.467	766.421
141.585	21.030	963.286	765.788
142.600	21.071	962.829	765.536
143.614	20.867	961.747	763.715
144.629	21.023	961.317	763.988
145.643	21.275	960.308	764.221
146.658	21.121	959.329	762.699
147.673	20.963	958.463	761.254
148.687	20.992	956.967	760.124
149.702	20.761	956.273	758.501
150.716	20.614	955.103	756.868
151.731	20.796	954.105	756.800
152.746	20.753	953.560	756.112
153.760	21.068	953.046	757.008
154.775	21.192	952.169	756.782
155.789	21.097	951.285	755.599
156.804	21.110	950.094	754.643
157.819	21.004	949.189	753.401
158.833	20.984	948.863	752.987
159.848	21.139	947.590	752.580
160.862	21.070	947.397	752.061
161.877	21.034	946.155	750.854
162.892	21.013	945.177	749.922
163.906	21.165	943.789	749.406
164.921	21.170	943.372	749.031
165.935	21.090	942.287	747.757
166.950	21.030	941.517	746.826
167.964	21.219	940.145	746.477
168.979	21.180	939.046	745.376
169.994	20.907	938.312	743.560
171.008	20.816	937.017	742.081
172.023	21.139	936.568	743.035
173.037	21.171	935.487	742.250
174.052	20.992	934.764	740.847
175.067	20.741	933.986	739.102
176.081	20.732	933.054	738.261
177.096	20.919	931.992	738.145
178.110	20.847	930.962	736.958
179.125	20.738	929.995	735.669
180.140	20.577	928.723	733.916
181.154	20.488	927.968	732.882
182.169	20.640	928.035	733.509
183.183	20.752	927.589	733.566
184.198	21.010	927.199	734.278
185.213	21.084	926.015	733.588
186.227	21.023	925.787	733.085
187.242	21.126	925.555	733.267
188.256	21.215	924.316	732.595
189.271	21.083	923.651	731.452
190.286	21.231	922.771	731.309
191.300	21.146	922.096	730.354
192.315	20.639	920.738	727.095
193.329	19.931	919.187	722.850
194.344	19.403	918.102	719.730
195.359	20.012	918.661	722.648
196.373	20.845	918.574	725.989
197.388	21.060	918.507	726.766
198.402	21.002	917.602	725.742
199.417	20.960	917.026	725.050
200.432	20.849	916.569	724.162
201.446	20.913	915.749	723.718
202.461	20.513	915.227	721.581
203.475	20.466	914.934	721.090
204.490	20.163	913.421	718.578
205.504	18.940	911.504	711.945
206.519	19.571	911.043	714.135
207.534	20.445	911.380	717.946
208.548	20.624	910.625	718.029
209.563	20.936	910.452	719.117
210.577	20.928	909.845	718.539
211.592	20.701	908.794	716.712
212.607	21.104	908.516	718.086
213.621	21.144	908.666	718.306
214.636	21.044	907.666	717.041
215.650	21.196	907.294	717.308
216.665	21.056	906.183	715.793
217.680	21.074	905.861	715.548
218.694	21.092	905.313	715.128
219.709	20.925	904.342	713.612
220.723	20.582	903.311	711.334
221.738	20.804	902.771	711.752
222.753	21.042	902.186	712.199
223.767	20.816	902.074	711.125
224.782	20.940	900.731	710.511
225.796	21.100	900.580	710.982
226.811	21.044	900.052	710.272
227.826	20.918	898.494	708.466
228.840	20.020	896.763	703.397
229.855	19.912	896.888	702.992
230.869	20.347	896.221	704.171
231.884	20.010	894.804	701.631
232.899	20.142	894.212	701.641
233.913	20.786	895.251	705.000
234.928	20.850	894.393	704.521
235.942	20.863	893.585	703.876
236.957	21.011	892.815	703.806
237.972	20.681	891.863	701.662
238.986	20.492	891.169	700.291
240.001	20.674	890.659	700.563
241.015	20.676	889.939	699.940
242.030	20.730	889.310	699.604
243.045	20.912	888.622	699.730
244.059	20.870	888.607	699.487
245.074	21.094	888.090	699.917
246.088	21.064	886.974	698.856
247.103	20.653	886.041	696.413
248.117	20.709	885.303	695.996
249.132	21.321	885.232	698.325
250.147	21.569	885.365	699.358
251.161	21.704	884.673	699.290
252.176	21.763	884.073	698.990
253.190	21.807	883.458	698.617
254.205	21.811	883.302	698.445
255.220	22.116	882.217	698.741
256.234	22.028	881.833	698.024
257.249	21.922	881.088	696.951
258.263	21.786	880.622	695.981
259.278	21.692	880.127	695.155
260.293	21.696	879.902	694.931
261.307	21.808	879.372	694.897
262.322	21.832	878.475	694.220
263.336	21.773	877.338	693.029
264.351	21.144	876.169	689.558
265.366	20.104	874.255	683.889
266.380	19.533	873.573	681.043
267.395	20.544	873.781	685.132
268.409	21.362	873.757	688.276
269.424	21.249	873.447	687.526
270.439	21.563	872.416	687.887
271.453	21.722	871.746	687.924
272.468	21.639	871.438	687.292
273.482	21.850	871.083	687.778
274.497	21.937	870.652	687.719
275.512	21.548	869.938	685.569
276.526	21.094	868.311	682.453
277.541	21.374	868.109	683.327
278.555	21.742	867.657	684.351
279.570	21.406	867.084	682.525
280.585	21.344	865.808	681.219
281.599	21.374	865.135	680.746
282.614	21.500	865.357	681.350
283.628	20.843	864.326	677.925
284.643	20.790	863.039	676.649
285.657	21.220	862.840	678.103
286.672	21.140	862.119	677.166
287.687	20.668	861.255	674.598
288.701	20.821	861.305	675.171
289.716	21.414	860.886	677.080
290.730	21.054	859.949	674.887
291.745	20.852	859.529	673.718
292.760	20.758	858.041	672.131
293.774	20.654	857.641	671.355
294.789	21.552	858.538	675.466
295.803	22.167	858.090	677.424
296.818	22.230	857.637	677.251
297.833	22.129	857.555	676.736
298.847	21.913	856.325	674.877
299.862	21.666	855.173	672.959
300.876	21.872	854.491	673.153
301.891	22.123	854.424	674.005
302.906	22.147	853.764	673.514
303.920	21.785	852.613	671.161
304.935	21.636	852.410	670.373
305.949	21.899	851.974	670.975
306.964	22.194	851.238	671.465
307.979	21.934	850.545	669.867
308.993	21.760	850.400	669.027
310.008	22.120	849.994	670.023
311.022	22.478	849.464	670.911
312.037	22.264	848.745	669.467
313.052	21.883	848.245	667.563
314.066	21.848	847.396	666.705
315.081	21.287	845.965	663.391
316.095	20.425	844.456	658.879
317.110	20.986	844.974	661.353
318.125	21.828	845.223	664.684
319.139	21.431	844.294	662.391
320.154	20.399	842.376	656.927
321.168	20.057	841.204	654.663
322.183	20.595	841.608	656.951
323.197	21.556	841.935	660.778
324.212	21.765	841.606	661.248
325.227	21.930	840.895	661.256
326.241	22.155	840.415	661.667
327.256	21.861	840.405	660.492
328.270	21.814	839.448	659.506
329.285	21.807	838.713	658.842
330.300	21.759	838.199	658.200
331.314	21.519	837.164	656.430
332.329	21.446	836.843	655.847
333.343	21.930	836.356	657.218
334.358	22.102	836.124	657.621
335.373	22.069	835.500	656.952
336.387	22.009	834.921	656.214
337.402	22.290	834.674	657.010
338.416	22.498	834.061	657.245
339.431	22.485	833.650	656.815
340.446	22.398	833.112	656.009
341.460	22.679	832.644	656.628
342.475	22.645	832.056	655.982
343.489	22.394	830.984	654.146
344.504	22.496	830.698	654.242
345.519	22.575	830.362	654.210
346.533	22.951	829.793	655.099
347.548	22.871	829.704	654.675
348.562	23.008	829.223	654.743
349.577	22.828	829.179	653.986
350.592	22.887	827.682	652.964
351.606	22.712	827.537	652.145
352.621	22.844	827.038	652.181
353.635	22.722	826.772	651.466
354.650	22.658	826.277	650.779
355.665	22.176	825.347	648.214
356.679	21.239	823.774	643.471
357.694	21.116	823.330	642.616
358.708	21.802	822.756	644.632
359.723	21.722	822.139	643.796
360.738	21.869	822.142	644.282
361.752	22.406	821.979	646.070
362.767	22.552	821.501	646.173
363.781	22.863	821.506	647.259
364.796	22.983	821.439	647.588
365.810	23.194	820.676	647.703
366.825	23.209	820.582	647.627
367.840	23.227	820.110	647.261
368.854	22.951	819.369	645.612
369.869	22.592	818.772	643.771
370.883	22.474	817.934	642.625
371.898	22.589	817.580	642.710
372.913	22.437	816.946	641.601
373.927	22.502	815.950	641.001
374.942	22.494	815.675	640.697
375.956	22.862	814.863	641.338
376.971	22.924	814.278	641.049
377.986	22.939	813.760	640.636
379.000	23.146	813.426	641.067
380.015	23.097	813.072	640.555
381.029	22.919	812.461	639.374
382.044	22.817	811.874	638.483
383.059	23.023	811.237	638.671
384.073	22.951	811.074	638.226
385.088	23.128	810.712	638.525
386.102	22.986	809.902	637.319
387.117	23.005	808.922	636.560
388.132	22.913	808.571	635.894
389.146	22.670	808.005	634.519
390.161	22.236	807.067	632.166
391.175	22.281	806.499	631.828
392.190	22.783	806.280	633.401
393.205	22.822	805.849	633.149
394.219	21.936	804.459	628.825
395.234	20.331	802.279	621.325
396.248	19.613	801.397	618.019
397.263	20.592	801.993	621.929
398.278	22.418	803.443	629.534
399.292	22.852	803.355	630.960
400.307	22.520	802.547	629.083
401.321	22.357	802.502	628.411
402.336	22.358	802.062	628.016
403.350	22.785	801.723	629.218
404.365	23.207	801.710	630.655
405.380	23.583	801.104	631.459
406.394	23.771	801.154	632.115
407.409	23.961	800.523	632.235
408.423	23.752	800.388	631.330
409.438	23.690	799.651	630.471
410.453	23.634	799.326	629.962
411.467	24.007	798.695	630.729
412.482	23.764	797.996	629.263
413.496	23.743	797.374	628.642
414.511	23.796	797.537	628.901
415.526	23.785	797.230	628.566
416.540	23.731	797.022	628.153
417.555	23.907	796.031	627.939
418.569	23.546	795.420	626.130
419.584	23.351	794.955	625.019
420.599	23.493	794.505	625.109
421.613	154.828	1365.966	1795.555
422.628	134.099	1449.243	1795.688
