DTS Sentinel unit serial number:	SN413079Multiplexer serial number:	ORYXHardware model number:	OX4-SRSoftware version number:	ORYX F/W v4.00 Oryx Data Collector v3.7.2.0data status	okinstallation	princeton_trtdifferential loss correction	single-endedforward channel	channel 3reverse channel	N/Adate	2019/09/12time	04:58:11forward acquisition time	60.00reverse acquisition time	0.00gamma	496.2192k internal	0.2322k external	0.2322temperature offset calibration	1.0050default loss term (dB/km)	0.3790temperature slope calibration	1.0000multiplexer offset coefficient	1.0000multiplexer slope coefficient	1.0000fibre end	0.00T internal ref (°C)	31.69T ext. ref 1 (°C)	1.78T ext. ref 2 (°C)	27.04length (m)	temperature (°C)	Stokes	anti-Stokes-747.200	218.128	0.159	-0.256
-746.185	-200.000	-0.040	0.195
-745.171	272.828	0.059	0.106
-744.156	-200.000	0.085	0.503
-743.142	800.000	0.056	-0.166
-742.127	-128.500	-0.254	-0.036
-741.112	103.327	-0.109	0.130
-740.098	-200.000	-0.024	-0.105
-739.083	-48.768	0.175	0.085
-738.069	91.037	0.221	-0.250
-737.054	150.298	0.223	-0.305
-736.039	194.638	-0.200	0.306
-735.025	-16.374	0.286	0.183
-734.010	-14.582	-0.275	-0.178
-732.996	250.147	-0.239	-0.410
-731.981	-98.902	0.198	-0.051
-730.966	294.812	0.157	-0.290
-729.952	-121.161	-0.080	0.014
-728.937	510.009	-0.087	0.204
-727.923	-147.384	-0.141	0.012
-726.908	500.042	-0.026	-0.060
-725.894	189.928	-0.142	-0.215
-724.879	115.547	-0.143	0.177
-723.864	-78.141	0.201	0.070
-722.850	138.797	-0.286	-0.380
-721.835	-95.041	-0.245	0.067
-720.821	17.631	-0.121	-0.098
-719.806	-40.396	-0.264	0.138
-718.791	-200.000	-0.035	-0.236
-717.777	-67.483	-0.172	-0.068
-716.762	-13.523	-0.112	-0.073
-715.748	-88.978	-0.198	-0.059
-714.733	-200.000	0.331	-0.001
-713.718	269.053	-0.357	-0.632
-712.704	-200.000	0.012	-0.419
-711.689	-48.608	-0.313	-0.152
-710.675	800.000	-0.024	0.100
-709.660	11.993	0.138	0.107
-708.645	-88.738	-0.149	0.045
-707.631	413.980	0.095	0.204
-706.616	5.668	0.014	0.010
-705.602	41.122	-0.245	-0.223
-704.587	-28.381	-0.160	-0.093
-703.572	-75.531	-0.158	-0.057
-702.558	-200.000	0.035	0.368
-701.543	67.684	-0.034	0.035
-700.529	75.564	0.024	-0.026
-699.514	-117.231	0.068	0.012
-698.499	-163.351	-0.383	0.018
-697.485	269.674	0.144	0.254
-696.470	-7.455	-0.227	0.155
-695.456	-109.952	-0.096	-0.020
-694.441	51.725	0.132	-0.126
-693.426	-200.000	0.001	0.023
-692.412	247.292	0.148	0.251
-691.397	-95.965	0.138	0.037
-690.383	38.270	-0.236	-0.212
-689.368	-188.408	0.386	-0.005
-688.354	-200.000	0.011	-0.354
-687.339	143.536	0.042	0.056
-686.324	-200.000	0.062	-0.503
-685.310	357.503	0.181	-0.364
-684.295	-57.166	-0.159	0.071
-683.281	-109.638	-0.169	-0.036
-682.266	-24.508	-0.134	0.080
-681.251	293.839	-0.075	-0.137
-680.237	-69.928	-0.207	-0.080
-679.222	120.370	-0.185	0.231
-678.208	800.000	-0.086	-0.278
-677.193	46.241	0.241	0.225
-676.178	30.963	0.263	0.227
-675.164	12.543	-0.181	-0.141
-674.149	228.989	0.233	-0.383
-673.135	-200.000	0.091	-0.427
-672.120	50.472	-0.096	0.092
-671.105	-123.694	-0.201	-0.032
-670.091	-200.000	0.005	0.061
-669.076	800.000	-0.108	0.437
-668.062	52.188	-0.062	-0.060
-667.047	-48.437	-0.202	0.098
-666.032	-121.782	0.359	-0.060
-665.018	-200.000	-0.008	-0.128
-664.003	800.000	0.117	-0.399
-662.989	-164.337	0.083	-0.004
-661.974	-200.000	0.016	0.370
-660.959	111.081	-0.125	0.152
-659.945	81.689	-0.197	0.215
-658.930	285.383	0.190	0.345
-657.916	-200.000	0.005	0.137
-656.901	-176.042	-0.290	0.008
-655.886	98.619	0.187	-0.217
-654.872	-200.000	-0.057	-0.339
-653.857	106.807	-0.104	0.124
-652.843	-200.000	0.090	0.449
-651.828	-157.251	0.352	-0.021
-650.814	524.655	0.203	0.481
-649.799	-118.162	0.010	-0.002
-648.784	-200.000	0.065	-0.330
-647.770	658.446	0.040	-0.104
-646.755	238.847	-0.126	-0.211
-645.741	509.914	-0.116	0.271
-644.726	800.000	-0.021	-0.064
-643.711	-46.156	0.079	0.039
-642.697	-200.000	-0.036	0.213
-641.682	16.389	0.116	0.092
-640.668	-71.066	-0.264	0.100
-639.653	-151.699	-0.045	0.003
-638.638	-125.827	0.221	0.034
-637.624	-109.248	-0.407	0.087
-636.609	800.000	0.150	0.445
-635.595	7.284	0.199	0.149
-634.580	800.000	-0.090	-0.357
-633.565	-0.444	-0.374	-0.267
-632.551	-20.747	-0.231	0.143
-631.536	800.000	-0.070	-0.293
-630.522	452.722	0.133	-0.297
-629.507	697.771	0.121	-0.320
-628.492	41.054	0.039	-0.035
-627.478	64.161	-0.140	-0.142
-626.463	-118.227	0.216	-0.039
-625.449	-153.316	0.249	0.017
-624.434	-56.261	-0.183	0.082
-623.419	-164.584	-0.070	-0.003
-622.405	101.216	-0.129	-0.152
-621.390	-200.000	-0.019	-0.132
-620.376	-75.033	0.486	0.175
-619.361	283.609	-0.148	-0.267
-618.346	-200.000	0.006	-0.414
-617.332	-200.000	-0.041	-0.331
-616.317	-200.000	0.024	0.655
-615.303	90.913	-0.167	0.189
-614.288	-87.782	-0.178	-0.054
-613.273	45.003	-0.151	-0.140
-612.259	36.061	-0.289	-0.255
-611.244	236.180	-0.136	-0.227
-610.230	185.820	0.151	-0.226
-609.215	-7.494	-0.159	0.108
-608.201	-125.204	-0.457	-0.070
-607.186	800.000	-0.048	-0.143
-606.171	-200.000	0.025	0.377
-605.157	-107.381	-0.224	-0.049
-604.142	800.000	0.028	-0.096
-603.128	-200.000	-0.009	0.553
-602.113	-117.746	0.208	0.038
-601.098	-48.101	-0.183	0.089
-600.084	119.116	0.154	-0.192
-599.069	-200.000	-0.018	0.158
-598.055	-136.774	-0.333	0.039
-597.040	-200.000	0.015	-0.226
-596.025	-49.345	0.148	-0.071
-595.011	-166.724	0.166	-0.007
-593.996	800.000	0.079	-0.309
-592.982	-96.982	0.282	0.074
-591.967	241.157	-0.211	0.354
-590.952	106.501	-0.126	-0.150
-589.938	626.624	0.112	-0.283
-588.923	-30.726	0.149	0.085
-587.909	-200.000	-0.014	0.400
-586.894	254.295	-0.053	0.092
-585.879	99.338	0.208	-0.242
-584.865	133.932	-0.097	0.126
-583.850	-103.373	0.137	0.032
-582.836	800.000	-0.104	-0.368
-581.821	800.000	0.031	-0.117
-580.806	324.679	0.134	0.257
-579.792	-83.219	0.232	0.075
-578.777	362.824	0.036	0.073
-577.763	-200.000	-0.037	0.244
-576.748	-38.134	-0.375	-0.200
-575.733	179.602	0.154	-0.226
-574.719	-75.813	0.072	0.026
-573.704	-31.344	-0.134	0.076
-572.690	24.515	0.089	0.073
-571.675	-125.640	-0.163	-0.025
-570.661	-200.000	0.007	0.107
-569.646	253.366	-0.136	0.233
-568.631	291.393	-0.061	-0.111
-567.617	-12.501	0.070	0.046
-566.602	-96.602	0.105	0.028
-565.588	427.291	0.074	-0.160
-564.573	24.263	-0.092	0.076
-563.558	63.532	0.093	0.093
-562.544	-110.610	0.404	-0.084
-561.529	-0.957	0.245	-0.174
-560.515	74.216	-0.018	0.018
-559.500	21.948	-0.194	0.158
-558.485	7.541	-0.165	-0.124
-557.471	800.000	0.076	-0.227
-556.456	-94.281	0.107	0.029
-555.442	-200.000	-0.013	0.494
-554.427	-200.000	-0.004	0.024
-553.412	44.097	0.199	-0.183
-552.398	-200.000	0.012	-0.063
-551.383	-141.327	-0.230	-0.023
-550.369	-200.000	0.107	-0.501
-549.354	-52.521	-0.211	-0.098
-548.339	427.187	-0.028	0.061
-547.325	-200.000	0.003	0.077
-546.310	23.333	0.044	-0.036
-545.296	-200.000	-0.031	0.252
-544.281	-11.917	-0.125	0.082
-543.266	63.197	0.266	-0.267
-542.252	-133.983	0.082	-0.010
-541.237	301.867	0.037	-0.069
-540.223	38.386	0.171	0.153
-539.208	251.811	-0.217	0.370
-538.193	800.000	-0.049	-0.154
-537.179	-28.286	-0.057	0.033
-536.164	-0.085	0.243	-0.174
-535.150	-53.193	0.066	0.030
-534.135	1.713	0.228	-0.165
-533.121	-16.609	0.131	0.083
-532.106	-144.366	-0.205	-0.019
-531.091	134.810	0.246	0.320
-530.077	-8.148	0.162	0.109
-529.062	79.955	-0.195	0.210
-528.048	-2.786	0.132	0.092
-527.033	800.000	-0.024	0.086
-526.018	-42.529	-0.313	-0.160
-525.004	-200.000	-0.034	-0.226
-523.989	-123.712	0.216	-0.034
-522.975	65.259	-0.417	-0.423
-521.960	-78.843	-0.248	0.085
-520.945	-200.000	0.040	0.223
-519.931	83.127	0.140	0.152
-518.916	115.956	-0.056	-0.069
-517.902	-200.000	0.024	-0.206
-516.887	134.796	-0.160	-0.207
-515.872	13.862	-0.059	0.046
-514.858	-141.053	-0.182	-0.019
-513.843	-127.807	0.169	-0.024
-512.829	-169.857	0.107	-0.004
-511.814	27.642	0.109	-0.092
-510.799	293.910	-0.150	0.275
-509.785	37.692	0.056	0.050
-508.770	-34.075	-0.157	-0.086
-507.756	800.000	0.040	0.163
-506.741	-141.943	-0.135	0.014
-505.726	27.618	0.151	-0.127
-504.712	505.220	0.045	0.105
-503.697	-142.675	-0.227	-0.022
-502.683	-58.725	-0.265	-0.115
-501.668	2.030	0.222	-0.161
-500.653	800.000	0.067	-0.193
-499.639	53.688	0.152	-0.146
-498.624	-200.000	0.038	-0.328
-497.610	252.356	-0.107	0.183
-496.595	-160.094	0.316	-0.017
-495.581	-85.807	-0.176	-0.055
-494.566	-93.418	0.404	-0.112
-493.551	800.000	0.147	-0.417
-492.537	800.000	-0.044	-0.172
-491.522	609.222	-0.153	-0.382
-490.508	-200.000	-0.035	0.323
-489.493	800.000	0.057	-0.207
-488.478	800.000	0.049	-0.184
-487.464	3.630	0.053	-0.039
-486.449	-200.000	0.028	0.197
-485.435	-36.701	0.260	0.140
-484.420	-7.500	0.294	-0.199
-483.405	-200.000	0.020	-0.100
-482.391	2.234	-0.205	-0.148
-481.376	800.000	0.106	-0.341
-480.362	800.000	-0.090	0.318
-479.347	-78.687	0.538	0.184
-478.332	-200.000	0.027	0.179
-477.318	13.807	-0.207	-0.161
-476.303	717.518	0.116	-0.307
-475.289	800.000	-0.046	0.141
-474.274	-65.800	0.280	0.112
-473.259	82.549	-0.054	-0.059
-472.245	-0.860	0.078	-0.055
-471.230	-112.652	0.199	-0.040
-470.216	547.391	0.065	-0.156
-469.201	363.266	-0.095	0.190
-468.186	-69.976	0.113	-0.043
-467.172	428.219	0.028	-0.060
-466.157	-189.395	-0.154	0.002
-465.143	574.739	0.072	0.175
-464.128	2.080	-0.151	0.109
-463.113	-11.769	0.142	-0.093
-462.099	635.227	0.070	-0.177
-461.084	-81.532	-0.119	-0.039
-460.070	-200.000	-0.016	-0.151
-459.055	-117.507	-0.396	0.072
-458.040	-87.089	0.038	0.012
-457.026	93.005	0.055	0.062
-456.011	368.891	0.081	0.163
-454.997	-200.000	0.000	-0.045
-453.982	92.852	0.097	-0.110
-452.968	-11.655	0.310	-0.203
-451.953	-48.399	-0.335	-0.161
-450.938	-41.358	-0.066	-0.034
-449.924	51.387	-0.320	-0.304
-448.909	229.864	0.036	0.059
-447.895	-5.152	0.065	0.045
-446.880	-108.628	-0.486	0.104
-445.865	-56.888	0.159	-0.070
-444.851	-39.897	0.265	0.138
-443.836	-143.813	0.144	-0.014
-442.822	242.443	0.086	-0.143
-441.807	-120.866	-0.085	-0.014
-440.792	92.273	-0.106	0.119
-439.778	151.843	-0.199	0.271
-438.763	-67.998	0.123	-0.048
-437.749	-97.444	0.071	0.019
-436.734	19.206	-0.121	0.097
-435.719	9.240	-0.173	0.131
-434.705	800.000	0.068	-0.203
-433.690	182.484	0.205	0.302
-432.676	173.226	0.160	0.231
-431.661	40.510	-0.086	0.078
-430.646	489.641	-0.164	-0.375
-429.632	-200.000	-0.023	-0.163
-428.617	-200.000	-0.002	-0.245
-427.603	-43.659	-0.331	-0.166
-426.588	800.000	0.017	-0.056
-425.573	800.000	0.103	0.316
-424.559	46.731	0.086	-0.079
-423.544	161.105	-0.157	-0.219
-422.530	800.000	-0.084	-0.300
-421.515	203.795	-0.110	0.170
-420.500	220.722	0.067	0.107
-419.486	9.630	0.024	0.018
-418.471	-200.000	-0.011	0.059
-417.457	800.000	-0.043	0.182
-416.442	-88.386	-0.202	-0.060
-415.428	-200.000	0.035	0.222
-414.413	-200.000	-0.016	-0.194
-413.398	611.937	-0.101	-0.252
-412.384	38.138	0.165	-0.146
-411.369	200.972	-0.168	-0.258
-410.355	800.000	-0.061	0.243
-409.340	-69.479	0.398	0.152
-408.325	83.386	-0.160	0.174
-407.311	-104.843	-0.282	0.065
-406.296	89.117	0.145	0.161
-405.282	-200.000	-0.054	0.242
-404.267	-200.000	-0.015	0.266
-403.252	299.781	-0.055	-0.101
-402.238	433.291	-0.020	0.043
-401.223	55.480	-0.152	0.147
-400.209	-1.703	0.148	-0.104
-399.194	358.443	-0.226	-0.451
-398.179	-43.733	0.142	0.072
-397.165	462.730	-0.074	0.166
-396.150	380.366	-0.143	0.293
-395.136	5.177	-0.374	0.275
-394.121	-21.218	0.169	0.103
-393.106	800.000	-0.113	-0.347
-392.092	-67.956	-0.390	0.152
-391.077	9.571	-0.142	-0.107
-390.063	8.067	0.473	0.353
-389.048	180.710	0.262	0.384
-388.033	-200.000	-0.023	0.321
-387.019	-13.396	-0.146	-0.094
-386.004	-31.214	-0.263	0.148
-384.990	163.503	-0.213	-0.298
-383.975	-93.644	0.231	0.064
-382.960	800.000	-0.014	0.041
-381.946	669.936	0.051	0.131
-380.931	800.000	-0.075	-0.274
-379.917	80.645	0.153	-0.164
-378.902	-52.009	-0.283	-0.131
-377.888	-39.264	0.360	-0.188
-376.873	800.000	0.060	-0.198
-375.858	-200.000	-0.143	0.001
-374.844	-30.516	0.153	0.087
-373.829	-52.521	-0.194	0.089
-372.815	-83.631	-0.037	-0.012
-371.800	-65.687	-0.326	0.130
-370.785	180.132	-0.131	0.191
-369.771	20.538	-0.146	0.118
-368.756	-67.508	0.250	-0.098
-367.742	-54.094	-0.440	-0.199
-366.727	752.850	0.157	0.421
-365.712	568.716	-0.086	0.208
-364.698	-121.033	0.268	-0.045
-363.683	209.534	0.090	-0.140
-362.669	3.739	-0.113	-0.082
-361.654	218.071	-0.130	-0.207
-360.639	800.000	-0.048	0.198
-359.625	-53.275	-0.205	-0.093
-358.610	-200.000	0.031	0.166
-357.596	-200.000	-0.001	0.188
-356.581	-200.000	0.059	0.320
-355.566	-153.902	-0.106	0.007
-354.552	-46.943	0.057	0.028
-353.537	719.588	-0.104	-0.276
-352.523	-200.000	0.005	-0.084
-351.508	-56.550	-0.299	0.132
-350.493	-173.749	0.091	0.003
-349.479	-143.237	0.342	0.033
-348.464	-61.677	-0.219	-0.091
-347.450	-200.000	0.005	0.032
-346.435	800.000	0.096	-0.282
-345.420	-200.000	0.032	0.204
-344.406	-103.988	-0.143	0.033
-343.391	16.133	0.184	-0.144
-342.377	21.249	-0.319	0.258
-341.362	-173.839	0.380	0.011
-340.348	-200.000	-0.051	-0.321
-339.333	11.219	-0.178	-0.136
-338.318	-127.269	0.410	0.059
-337.304	283.851	0.075	-0.135
-336.289	-200.000	-0.074	-0.335
-335.275	22.113	-0.260	-0.211
-334.260	467.373	-0.120	0.267
-333.245	157.827	-0.094	0.130
-332.231	39.900	0.176	0.158
-331.216	162.772	0.211	-0.294
-330.202	14.855	-0.155	0.120
-329.187	-79.255	-0.304	0.103
-328.172	-106.260	0.292	0.065
-327.158	294.578	-0.045	-0.082
-326.143	-91.959	0.401	-0.113
-325.129	-82.698	-0.146	-0.047
-324.114	58.410	0.242	-0.236
-323.099	131.391	-0.184	-0.235
-322.085	-72.073	-0.245	-0.091
-321.070	-162.929	-0.355	0.017
-320.056	-200.000	-0.022	0.268
-319.041	532.297	-0.087	0.204
-318.026	-125.132	-0.190	-0.029
-317.012	-43.430	0.196	-0.099
-315.997	-135.169	0.313	-0.037
-314.983	-53.996	-0.261	0.118
-313.968	515.409	0.061	-0.142
-312.953	-200.000	-0.021	-0.302
-311.939	-14.892	0.230	0.147
-310.924	641.517	0.091	0.231
-309.910	-90.519	-0.339	-0.098
-308.895	-200.000	0.061	-0.374
-307.880	-200.000	0.015	-0.390
-306.866	800.000	0.098	-0.345
-305.851	-200.000	0.033	-0.193
-304.837	24.120	-0.158	0.129
-303.822	-96.358	-0.181	-0.048
-302.807	-200.000	0.037	0.213
-301.793	-200.000	-0.001	0.125
-300.778	-22.637	0.327	0.196
-299.764	-139.064	-0.127	0.014
-298.749	9.236	-0.107	0.080
-297.735	-156.002	0.391	-0.025
-296.720	-113.423	-0.254	0.049
-295.705	-200.000	0.009	-0.151
-294.691	800.000	-0.044	0.162
-293.676	17.041	0.271	0.213
-292.662	800.000	-0.051	-0.199
-291.647	77.168	0.284	-0.299
-290.632	-200.000	0.041	0.236
-289.618	-138.656	0.400	-0.043
-288.603	-40.629	0.214	-0.110
-287.589	-94.241	0.250	-0.068
-286.574	-86.724	0.268	0.081
-285.559	-200.000	-0.029	-0.157
-284.545	41.796	0.051	0.046
-283.530	3.716	-0.261	0.189
-282.516	-143.720	0.114	0.011
-281.501	219.618	0.118	0.188
-280.486	444.324	0.038	-0.082
-279.472	95.214	-0.040	0.045
-278.457	-18.727	-0.068	0.042
-277.443	136.311	0.110	-0.142
-276.428	-192.070	0.241	-0.002
-275.413	-86.775	-0.423	-0.128
-274.399	256.748	0.166	-0.283
-273.384	175.841	0.076	0.109
-272.370	232.168	-0.183	0.298
-271.355	50.225	0.044	0.041
-270.340	-164.242	0.096	0.004
-269.326	136.918	-0.054	0.070
-268.311	254.884	-0.052	0.088
-267.297	-145.822	0.170	-0.015
-266.282	-103.520	0.324	-0.075
-265.267	131.204	0.163	-0.208
-264.253	287.369	0.069	-0.124
-263.238	-200.000	-0.001	-0.083
-262.224	-55.078	-0.401	0.179
-261.209	800.000	-0.056	0.171
-260.195	534.549	0.041	-0.098
-259.180	-200.000	-0.038	0.195
-258.165	64.535	0.050	-0.050
-257.151	-24.165	0.235	-0.139
-256.136	-132.220	0.269	-0.034
-255.122	169.729	0.099	0.140
-254.107	-87.000	0.307	-0.093
-253.092	-22.301	-0.060	0.036
-252.078	-20.977	0.185	0.112
-251.063	-159.997	0.253	0.014
-250.049	29.118	-0.181	0.153
-249.034	-82.061	0.122	-0.039
-248.019	-152.353	-0.146	0.010
-247.005	545.680	0.028	0.067
-245.990	250.654	-0.168	0.282
-244.976	-114.053	0.272	-0.052
-243.961	237.658	0.171	-0.281
-242.946	221.967	0.144	0.229
-241.932	-94.178	-0.355	0.096
-240.917	-145.815	0.214	-0.019
-239.903	-200.000	0.011	0.050
-238.888	150.420	0.086	-0.115
-237.873	770.086	-0.020	0.053
-236.859	279.908	0.232	0.410
-235.844	73.400	0.109	-0.112
-234.830	29.547	-0.075	0.063
-233.815	-108.650	0.059	-0.013
-232.800	-200.000	0.072	0.470
-231.786	-25.251	-0.240	-0.141
-230.771	-0.687	-0.358	-0.251
-229.757	-33.630	0.158	0.086
-228.742	-200.000	0.008	0.182
-227.727	552.251	-0.096	-0.228
-226.713	-111.130	0.204	-0.041
-225.698	-84.714	-0.220	-0.068
-224.684	66.016	-0.176	0.176
-223.669	-68.724	0.342	-0.131
-222.655	-200.000	0.026	-0.243
-221.640	34.596	-0.160	-0.138
-220.625	-82.937	-0.319	-0.102
-219.611	-47.329	0.288	-0.139
-218.596	-200.000	-0.025	0.218
-217.582	-96.248	-0.146	0.038
-216.567	-155.485	0.264	-0.017
-215.552	12.805	0.085	0.065
-214.538	-108.691	-0.264	-0.056
-213.523	465.131	0.279	0.618
-212.509	-45.931	0.092	0.045
-211.494	-11.993	-0.310	-0.201
-210.479	-140.104	-0.073	-0.008
-209.465	-198.246	-0.476	0.003
-208.450	105.730	0.108	0.127
-207.436	428.584	0.079	0.168
-206.421	-99.096	-0.190	-0.048
-205.406	-200.000	0.057	0.305
-204.392	800.000	-0.086	0.251
-203.377	-200.000	0.089	0.412
-202.363	800.000	0.094	-0.318
-201.348	-141.221	0.086	-0.009
-200.333	-78.017	-0.224	-0.076
-199.319	338.210	0.094	-0.182
-198.304	-91.027	0.027	0.008
-197.290	-100.176	0.175	0.043
-196.275	-106.243	-0.193	-0.043
-195.260	201.639	0.210	0.320
-194.246	-63.469	0.291	-0.118
-193.231	72.783	-0.214	0.221
-192.217	159.301	0.145	-0.200
-191.202	-96.794	-0.475	0.123
-190.187	124.231	-0.205	-0.255
-189.173	800.000	0.051	0.189
-188.158	393.117	-0.154	0.317
-187.144	402.288	-0.195	0.406
-186.129	-46.099	-0.302	-0.147
-185.114	-36.155	0.347	-0.185
-184.100	-200.000	0.040	0.215
-183.085	-44.688	-0.116	0.057
-182.071	-80.598	-0.249	-0.082
-181.056	348.219	0.222	0.432
-180.042	-135.983	-0.231	0.027
-179.027	-67.478	0.166	-0.064
-178.012	-35.110	-0.035	0.019
-176.998	-200.000	-0.059	0.434
-175.983	-185.896	-0.092	0.001
-174.969	-7.470	0.167	-0.112
-173.954	800.000	-0.035	-0.099
-172.939	-147.538	-0.469	-0.039
-171.925	48.075	0.091	0.084
-170.910	420.485	0.055	-0.115
-169.896	18.127	0.161	-0.127
-168.881	27.782	0.214	-0.178
-167.866	107.699	0.196	0.231
-166.852	81.599	-0.144	0.153
-165.837	800.000	-0.032	0.118
-164.823	-125.430	0.226	-0.034
-163.808	-200.000	-0.012	0.096
-162.793	-25.153	0.270	-0.158
-161.779	-138.402	0.189	-0.021
-160.764	252.965	0.050	0.084
-159.750	73.605	-0.181	-0.187
-158.735	800.000	0.064	0.222
-157.720	800.000	-0.080	-0.225
-156.706	-49.671	-0.249	-0.117
-155.691	-103.064	0.371	-0.087
-154.677	496.379	-0.066	0.150
-153.662	115.609	-0.239	0.289
-152.647	-32.420	0.003	0.002
-151.633	-200.000	0.018	0.345
-150.618	-200.000	0.001	0.115
-149.604	-49.057	0.047	0.022
-148.589	-200.000	0.053	-0.312
-147.574	-200.000	-0.010	0.072
-146.560	-200.000	-0.248	0.000
-145.545	201.035	0.056	-0.086
-144.531	128.994	-0.231	-0.291
-143.516	-94.270	0.502	0.135
-142.502	800.000	0.059	0.221
-141.487	-168.793	0.311	0.012
-140.472	604.813	0.074	-0.181
-139.458	-200.000	0.007	-0.031
-138.443	163.414	0.058	-0.081
-137.429	-81.101	-0.340	-0.111
-136.414	74.299	-0.018	-0.018
-135.399	-200.000	-0.054	-0.253
-134.385	-97.870	-0.191	0.049
-133.370	204.595	-0.232	0.355
-132.356	-19.957	0.148	-0.090
-131.341	-144.896	0.241	-0.022
-130.326	4.486	-0.069	-0.050
-129.312	-126.464	0.368	0.054
-128.297	-128.700	-0.067	-0.009
-127.283	622.739	0.145	-0.361
-126.268	-80.619	0.024	0.008
-125.253	-200.000	-0.027	0.499
-124.239	28.198	0.161	0.134
-123.224	6.664	0.128	0.094
-122.210	83.952	0.044	-0.047
-121.195	73.715	-0.080	-0.082
-120.180	-56.761	-0.364	0.159
-119.166	363.520	-0.066	-0.130
-118.151	278.354	0.149	-0.261
-117.137	-86.347	0.301	0.091
-116.122	14.296	-0.093	0.071
-115.107	111.580	-0.243	-0.289
-114.093	-87.448	0.068	-0.020
-113.078	-106.035	0.184	0.041
-112.064	713.440	0.056	0.146
-111.049	-43.577	0.166	-0.082
-110.034	56.248	-0.117	0.112
-109.020	-105.475	-0.077	-0.017
-108.005	-200.000	-0.002	0.199
-106.991	-32.552	-0.215	0.118
-105.976	-120.749	0.372	0.062
-104.962	-200.000	0.077	-0.370
-103.947	75.941	-0.118	-0.123
-102.932	167.779	-0.062	0.087
-101.918	800.000	0.041	0.146
-100.903	800.000	0.030	-0.121
-99.889	-200.000	0.005	-0.047
-98.874	-200.000	0.002	-0.223
-97.859	800.000	-0.088	0.267
-96.845	-195.956	0.104	-0.001
-95.830	-200.000	0.013	-0.206
-94.816	751.944	-0.078	0.209
-93.801	-0.028	-0.054	-0.038
-92.786	-200.000	0.000	0.117
-91.772	-93.570	-0.230	-0.063
-90.757	-200.000	0.035	-0.158
-89.743	-200.000	0.009	-0.205
-88.728	30.083	0.140	0.117
-87.713	77.201	0.167	0.175
-86.699	-130.370	-0.243	0.032
-85.684	267.215	-0.123	0.211
-84.670	64.670	0.143	0.142
-83.655	-200.000	-0.024	-0.166
-82.640	-180.118	0.220	-0.005
-81.626	174.815	0.025	-0.036
-80.611	-13.053	-0.199	0.127
-79.597	-13.888	0.223	-0.142
-78.582	163.188	-0.236	-0.326
-77.567	-113.690	-0.176	-0.034
-76.553	-200.000	-0.011	0.193
-75.538	724.925	-0.125	-0.328
-74.524	-137.034	0.227	0.026
-73.509	308.399	0.080	0.147
-72.494	-62.226	-0.127	0.052
-71.480	-122.045	-0.088	-0.014
-70.465	-120.556	0.102	0.017
-69.451	56.441	-0.231	-0.221
-68.436	-200.000	-0.000	-0.031
-67.422	36.321	-0.185	0.161
-66.407	223.032	0.111	0.176
-65.392	588.695	0.110	-0.266
-64.378	-121.439	0.118	0.019
-63.363	-200.000	0.025	0.165
-62.349	642.734	0.111	0.279
-61.334	44.456	-0.660	-0.597
-60.319	108.709	0.408	0.479
-59.305	124.419	-0.749	-0.926
-58.290	93.690	0.858	0.956
-57.276	619.711	0.599	1.480
-56.261	-200.000	96.042	594.968
-55.246	557.620	1367.642	3242.815
-54.232	162.251	2545.732	3509.064
-53.217	112.098	2155.491	2561.367
-52.203	42.336	1700.425	1519.744
-51.188	34.818	1513.267	1301.472
-50.173	32.471	1486.365	1262.564
-49.159	51.924	1535.262	1437.110
-48.144	53.588	1553.273	1465.262
-47.130	35.055	1513.757	1303.301
-46.115	31.984	1498.654	1269.509
-45.100	31.819	1494.873	1265.139
-44.086	31.762	1493.353	1263.418
-43.071	31.768	1491.498	1261.840
-42.057	31.810	1489.392	1260.295
-41.042	31.724	1488.220	1258.670
-40.027	31.709	1487.127	1257.596
-39.013	31.698	1485.068	1255.736
-37.998	31.614	1484.398	1254.551
-36.984	31.670	1482.973	1253.678
-35.969	31.756	1481.131	1252.642
-34.954	31.690	1480.313	1251.458
-33.940	31.673	1479.246	1250.396
-32.925	31.664	1477.549	1248.849
-31.911	31.686	1476.130	1247.746
-30.896	31.775	1474.373	1246.802
-29.881	31.837	1473.269	1246.234
-28.867	31.780	1472.055	1244.781
-27.852	31.800	1470.518	1243.562
-26.838	31.778	1469.205	1242.258
-25.823	31.772	1467.617	1240.826
-24.809	31.665	1466.012	1238.710
-23.794	31.803	1464.472	1238.276
-22.779	31.659	1463.843	1236.742
-21.765	31.804	1462.070	1236.153
-20.750	31.721	1461.599	1235.153
-19.736	31.649	1460.140	1233.402
-18.721	31.664	1459.125	1232.594
-17.706	31.685	1458.026	1231.753
-16.692	31.595	1456.858	1230.128
-15.677	31.662	1455.481	1229.352
-14.663	31.696	1454.781	1228.938
-13.648	31.587	1454.413	1227.863
-12.633	31.674	1452.911	1227.116
-11.619	31.702	1452.272	1226.711
-10.604	31.697	1450.942	1225.509
-9.590	31.603	1450.337	1224.334
-8.575	31.599	1449.923	1223.906
-7.560	31.669	1448.791	1223.358
-6.546	31.639	1448.377	1222.766
-5.531	31.636	1447.065	1221.589
-4.517	31.647	1445.776	1220.525
-3.502	31.544	1444.632	1218.841
-2.487	31.685	1443.793	1219.004
-1.473	31.585	1443.021	1217.652
-0.458	31.558	1441.592	1216.220
0.556	31.982	1431.987	1206.669
1.571	29.226	1407.568	1168.539
2.586	26.218	1350.881	1103.040
3.600	24.815	1272.692	1031.028
4.615	23.579	1226.226	986.428
5.629	19.982	1168.479	920.804
6.644	10.261	1082.060	804.530
7.659	2.977	1040.602	738.716
8.673	1.940	1035.256	729.896
9.688	1.796	1031.865	726.754
10.702	1.732	1030.536	725.448
11.717	1.671	1028.513	723.670
12.731	4.765	1031.955	740.770
13.746	14.309	1045.481	796.240
14.761	22.587	1056.221	844.169
15.775	24.811	1058.987	856.970
16.790	25.175	1058.373	858.140
17.804	24.942	1057.542	856.275
18.819	24.718	1056.869	854.588
19.834	24.920	1055.882	854.675
20.848	25.079	1055.836	855.321
21.863	25.349	1055.264	856.073
22.877	25.233	1054.660	854.952
23.892	25.124	1054.341	854.101
24.907	25.003	1053.354	852.650
25.921	25.061	1052.829	852.422
26.936	25.040	1052.338	851.849
27.950	25.181	1050.878	851.263
28.965	24.983	1050.081	849.601
29.980	24.891	1048.758	848.021
30.994	24.944	1047.156	846.903
32.009	25.186	1046.198	847.195
33.023	25.307	1045.500	847.126
34.038	25.034	1044.401	844.873
35.053	25.050	1043.763	844.359
36.067	25.138	1043.064	844.133
37.082	25.154	1042.448	843.633
38.096	25.253	1041.713	843.429
39.111	25.185	1041.040	842.492
40.126	25.497	1040.262	843.249
41.140	25.329	1039.200	841.527
42.155	25.175	1037.294	839.188
43.169	24.770	1036.411	836.507
44.184	24.636	1035.338	834.941
45.199	24.743	1034.576	834.754
46.213	24.820	1033.393	834.084
47.228	24.637	1032.621	832.536
48.242	24.981	1031.701	833.321
49.257	24.920	1031.830	833.064
50.271	25.020	1030.645	832.501
51.286	25.173	1030.085	832.682
52.301	25.107	1029.499	831.829
53.315	25.213	1028.875	831.743
54.330	25.169	1027.524	830.377
55.344	25.035	1026.792	829.089
56.359	25.134	1025.780	828.659
57.374	25.217	1024.747	828.133
58.388	24.921	1024.011	826.097
59.403	24.827	1023.243	824.970
60.417	24.920	1022.887	825.041
61.432	24.664	1021.891	822.988
62.447	24.757	1021.124	822.724
63.461	24.859	1020.762	822.828
64.476	24.958	1019.991	822.589
65.490	25.096	1018.608	822.034
66.505	24.814	1017.980	820.161
67.520	24.874	1017.214	819.748
68.534	25.032	1016.387	819.732
69.549	24.824	1015.635	818.102
70.563	24.416	1014.385	815.160
71.578	24.514	1013.427	814.762
72.593	24.408	1012.966	813.837
73.607	24.298	1011.705	812.249
74.622	24.257	1010.563	811.078
75.636	24.459	1010.412	811.800
76.651	24.661	1009.613	812.005
77.666	24.568	1008.526	810.637
78.680	24.484	1007.975	809.740
79.695	24.473	1007.497	809.235
80.709	24.622	1006.828	809.303
81.724	24.716	1005.977	808.970
82.739	24.808	1004.815	808.380
83.753	24.601	1004.786	807.351
84.768	25.110	1003.456	808.506
85.782	25.241	1003.244	808.855
86.797	25.496	1002.258	809.139
87.812	25.598	1001.124	808.609
88.826	25.230	1000.782	806.608
89.841	25.093	1000.427	805.635
90.855	25.297	999.473	805.710
91.870	25.444	998.234	805.297
92.884	25.434	997.242	804.381
93.899	25.182	996.363	802.476
94.914	25.162	995.451	801.580
95.928	25.363	994.832	801.910
96.943	25.279	994.005	800.796
97.957	25.136	992.597	798.956
98.972	24.737	991.915	796.559
99.987	24.506	991.202	794.887
101.001	24.793	990.229	795.310
102.016	25.052	989.731	795.992
103.030	25.089	988.690	795.250
104.045	24.978	988.033	794.157
105.060	24.836	986.662	792.356
106.074	24.676	985.637	790.757
107.089	24.962	984.628	791.139
108.103	25.102	984.666	791.718
109.118	25.038	983.896	790.745
110.133	24.910	982.440	788.941
111.147	24.737	981.649	787.478
112.162	24.791	980.005	786.326
113.176	24.607	979.015	784.655
114.191	24.681	978.777	784.720
115.206	24.822	977.631	784.350
116.220	24.375	976.573	781.472
117.235	24.302	975.667	780.359
118.249	24.502	975.007	780.638
119.264	24.466	974.567	780.056
120.279	24.326	973.752	778.725
121.293	24.384	972.815	778.158
122.308	24.580	972.014	778.305
123.322	24.468	971.428	777.280
124.337	24.426	970.754	776.488
125.352	24.309	969.086	774.575
126.366	23.957	967.556	771.758
127.381	23.772	965.913	769.577
128.395	24.209	966.352	771.754
129.410	24.739	966.229	773.880
130.424	25.005	964.986	773.967
131.439	24.975	964.198	773.137
132.454	24.965	963.092	772.138
133.468	24.988	962.397	771.612
134.483	24.896	961.541	770.463
135.497	25.040	960.695	770.335
136.512	25.266	960.252	770.880
137.527	25.270	959.584	770.293
138.541	25.265	958.754	769.539
139.556	25.322	957.925	769.049
140.570	25.120	957.356	767.658
141.585	25.199	956.668	767.376
142.600	25.329	956.032	767.355
143.614	25.267	955.155	766.318
144.629	25.371	954.647	766.289
145.643	25.538	953.784	766.238
146.658	25.386	952.595	764.567
147.673	25.241	951.369	762.901
148.687	25.194	950.524	761.956
149.702	25.076	949.149	760.285
150.716	24.879	948.380	758.768
151.731	25.001	947.125	758.214
152.746	25.069	946.650	758.052
153.760	25.262	946.151	758.400
154.775	25.424	945.387	758.405
155.789	25.414	944.836	757.855
156.804	25.434	943.736	756.991
157.819	25.247	942.720	755.323
158.833	25.203	942.475	754.871
159.848	25.319	941.465	754.486
160.862	25.547	940.887	754.912
161.877	25.492	939.409	753.428
162.892	25.366	938.428	752.047
163.906	25.533	937.544	751.971
164.921	25.331	937.170	750.762
165.935	25.261	936.459	749.833
166.950	25.371	935.438	749.408
167.964	25.415	934.234	748.558
168.979	25.225	933.317	746.967
169.994	25.352	932.267	746.588
171.008	25.146	931.016	744.666
172.023	25.304	930.442	744.796
173.037	25.493	930.340	745.432
174.052	25.354	928.988	743.710
175.067	25.179	927.846	742.004
176.081	25.085	927.133	740.980
177.096	25.269	926.100	740.848
178.110	25.242	925.321	740.047
179.125	25.007	924.513	738.366
180.140	24.789	923.469	736.571
181.154	24.608	923.194	735.543
182.169	24.815	922.485	735.765
183.183	25.050	922.356	736.559
184.198	25.325	921.994	737.339
185.213	25.435	920.946	736.885
186.227	25.199	920.451	735.457
187.242	25.532	920.058	736.439
188.256	25.359	919.514	735.232
189.271	25.391	918.687	734.637
190.286	25.401	918.413	734.393
191.300	25.333	917.106	733.007
192.315	24.765	915.711	729.509
193.329	24.115	914.098	725.512
194.344	23.578	913.079	722.456
195.359	24.303	913.406	725.600
196.373	25.060	913.639	728.801
197.388	25.364	913.032	729.486
198.402	25.195	912.901	728.632
199.417	25.112	912.131	727.614
200.432	25.193	911.833	727.645
201.446	25.183	911.162	727.002
202.461	24.817	910.661	725.055
203.475	24.932	909.797	724.771
204.490	24.572	907.956	721.784
205.504	23.347	906.273	715.439
206.519	23.810	906.230	717.210
207.534	24.772	906.812	721.491
208.548	24.934	905.865	721.326
209.563	25.305	905.805	722.710
210.577	25.279	905.376	722.197
211.592	24.965	904.310	720.019
212.607	25.289	904.339	721.283
213.621	25.603	903.455	721.772
214.636	25.494	902.929	720.854
215.650	25.471	902.494	720.349
216.665	25.325	902.067	719.360
217.680	25.449	901.717	719.516
218.694	25.650	900.932	719.628
219.709	25.237	899.823	717.026
220.723	24.778	899.446	714.833
221.738	25.070	898.523	715.198
222.753	25.272	898.264	715.736
223.767	25.321	897.427	715.199
224.782	25.261	896.625	714.259
225.796	25.622	895.990	715.126
226.811	25.610	895.641	714.734
227.826	25.164	894.342	711.866
228.840	24.455	892.863	707.814
229.855	24.299	892.510	706.854
230.869	24.682	891.934	707.853
231.884	24.313	890.859	705.478
232.899	24.180	890.686	704.752
233.913	24.952	891.147	708.108
234.928	25.341	890.234	708.856
235.942	25.193	889.581	707.688
236.957	25.246	889.065	707.425
237.972	24.965	887.587	705.079
238.986	24.683	887.354	703.724
240.001	24.813	887.250	704.088
241.015	24.976	886.365	703.967
242.030	24.982	885.492	703.235
243.045	25.033	885.259	703.188
244.059	25.052	885.040	703.027
245.074	25.202	884.621	703.217
246.088	25.490	883.294	703.229
247.103	24.877	882.845	700.413
248.117	24.934	882.454	700.260
249.132	25.650	882.009	702.644
250.147	25.887	881.791	703.333
251.161	25.981	881.263	703.215
252.176	26.250	880.821	703.850
253.190	26.289	880.093	703.357
254.205	26.301	879.518	702.883
255.220	26.269	879.723	702.860
256.234	26.384	878.740	702.459
257.249	26.354	877.949	701.648
258.263	25.984	877.420	699.729
259.278	26.175	876.808	699.917
260.293	26.112	876.455	699.331
261.307	26.251	875.875	699.342
262.322	26.169	875.346	698.541
263.336	26.094	874.804	697.759
264.351	25.636	873.176	694.631
265.366	24.428	871.442	688.530
266.380	24.045	870.774	686.465
267.395	25.004	870.677	690.025
268.409	25.744	870.784	692.898
269.424	25.572	870.574	692.005
270.439	25.960	869.829	692.843
271.453	26.143	868.775	692.648
272.468	25.944	868.428	691.544
273.482	26.070	868.066	691.680
274.497	26.204	867.965	692.052
275.512	25.989	866.496	689.995
276.526	25.535	865.171	687.145
277.541	25.604	865.040	687.243
278.555	26.092	864.801	688.854
279.570	25.888	864.470	687.753
280.585	25.731	863.330	686.186
281.599	25.666	862.995	685.613
282.614	25.994	862.337	686.278
283.628	25.552	860.976	683.452
284.643	25.130	860.300	681.254
285.657	25.466	860.465	682.599
286.672	25.387	859.528	681.495
287.687	25.032	858.535	679.305
288.701	25.299	858.842	680.499
289.716	25.686	858.814	681.882
290.730	25.260	857.869	679.462
291.745	25.279	856.833	678.651
292.760	25.049	855.810	676.913
293.774	24.937	855.277	676.009
294.789	25.751	856.530	680.015
295.803	26.285	856.482	681.931
296.818	26.428	855.421	681.566
297.833	26.558	855.014	681.672
298.847	26.291	854.075	679.859
299.862	25.931	853.009	677.597
300.876	26.096	852.817	678.001
301.891	26.419	852.180	678.650
302.906	26.608	851.786	678.983
303.920	26.014	850.678	675.817
304.935	26.007	850.256	675.396
305.949	26.349	850.096	676.487
306.964	26.583	849.645	676.945
307.979	26.263	848.902	675.098
308.993	26.146	848.508	674.288
310.008	26.415	848.194	674.983
311.022	26.738	847.701	675.735
312.037	26.460	846.967	674.052
313.052	26.348	846.032	672.835
314.066	26.084	845.199	671.130
315.081	25.377	844.083	667.556
316.095	24.676	843.102	664.120
317.110	25.157	842.811	665.616
318.125	26.059	843.221	669.229
319.139	25.646	842.182	666.813
320.154	24.582	840.391	661.401
321.168	24.214	839.420	659.218
322.183	24.858	839.693	661.755
323.197	25.588	840.436	664.983
324.212	25.997	839.942	666.045
325.227	26.046	839.720	665.989
326.241	26.266	839.127	666.271
327.256	26.024	838.600	664.900
328.270	26.000	837.670	664.018
329.285	25.861	837.412	663.241
330.300	25.795	836.472	662.195
331.314	25.620	835.438	660.679
332.329	25.692	835.123	660.634
333.343	26.091	834.822	661.800
334.358	26.336	834.314	662.237
335.373	26.301	834.083	661.866
336.387	26.343	833.630	661.603
337.402	26.555	833.210	661.986
338.416	26.826	832.650	662.472
339.431	26.995	831.822	662.372
340.446	26.687	831.765	661.144
341.460	27.010	831.346	661.932
342.475	27.001	830.250	660.966
343.489	26.760	829.860	659.721
344.504	26.682	829.513	659.102
345.519	26.955	828.956	659.595
346.533	27.203	828.672	660.210
347.548	27.275	828.396	660.193
348.562	27.322	827.727	659.771
349.577	27.189	827.167	658.787
350.592	27.149	826.621	658.148
351.606	27.087	826.099	657.451
352.621	27.000	825.880	656.904
353.635	27.008	825.454	656.536
354.650	26.937	824.594	655.535
355.665	26.717	823.402	653.737
356.679	25.424	821.954	647.871
357.694	25.294	821.515	646.998
358.708	26.138	821.429	649.914
359.723	26.187	820.689	649.448
360.738	26.247	820.777	649.672
361.752	26.711	820.758	651.270
362.767	26.678	820.740	651.080
363.781	27.127	820.026	652.068
364.796	27.413	819.796	652.853
365.810	27.462	819.703	652.895
366.825	27.468	819.304	652.540
367.840	27.641	818.979	652.845
368.854	27.417	817.962	651.174
369.869	27.008	817.169	649.027
370.883	26.864	816.596	647.997
371.898	26.957	815.888	647.712
372.913	26.859	815.054	646.642
373.927	27.009	814.432	646.627
374.942	26.906	814.353	646.140
375.956	27.101	813.834	646.362
376.971	27.165	813.178	646.014
377.986	27.363	812.410	646.047
379.000	27.517	812.597	646.686
380.015	27.432	812.024	645.871
381.029	27.359	810.924	644.680
382.044	27.271	810.627	644.078
383.059	27.373	810.178	644.023
384.073	27.603	809.561	644.290
385.088	27.518	809.292	643.719
386.102	27.584	808.513	643.274
387.117	27.214	807.975	641.484
388.132	27.154	807.453	640.803
389.146	27.014	806.709	639.660
390.161	26.433	806.083	637.061
391.175	26.534	805.423	636.839
392.190	27.048	805.594	638.726
393.205	27.208	804.764	638.573
394.219	26.265	802.824	633.672
395.234	24.539	801.081	626.196
396.248	23.834	799.859	622.714
397.263	24.732	801.239	626.884
398.278	26.636	802.287	634.325
399.292	26.992	802.022	635.304
400.307	26.565	801.756	633.542
401.321	26.670	801.095	633.334
402.336	26.798	800.719	633.426
403.350	27.099	800.284	634.076
404.365	27.461	800.708	635.623
405.380	27.754	800.356	636.307
406.394	28.176	799.998	637.435
407.409	28.328	799.817	637.764
408.423	28.207	799.216	636.809
409.438	28.081	798.609	635.831
410.453	28.091	798.193	635.478
411.467	28.216	797.954	635.666
412.482	28.211	797.225	635.011
413.496	28.075	796.606	633.991
414.511	28.208	796.346	634.188
415.526	28.268	796.228	634.246
416.540	28.317	795.686	633.928
417.555	28.175	794.923	632.772
418.569	28.043	794.005	631.532
419.584	27.926	793.717	630.839
420.599	27.945	793.349	630.560
421.613	111.191	1286.530	1461.057
422.628	95.718	1358.380	1461.198
