DTS Sentinel unit serial number:	SN413079Multiplexer serial number:	ORYXHardware model number:	OX4-SRSoftware version number:	ORYX F/W v4.00 Oryx Data Collector v3.7.2.0data status	okinstallation	princeton_trtdifferential loss correction	single-endedforward channel	channel 3reverse channel	N/Adate	2019/09/14time	21:08:35forward acquisition time	60.00reverse acquisition time	0.00gamma	496.2192k internal	0.2317k external	0.2317temperature offset calibration	0.9999default loss term (dB/km)	0.3790temperature slope calibration	1.0000multiplexer offset coefficient	1.0000multiplexer slope coefficient	1.0000fibre end	0.00T internal ref (°C)	33.06T ext. ref 1 (°C)	4.74T ext. ref 2 (°C)	27.79length (m)	temperature (°C)	Stokes	anti-Stokes-747.200	-177.750	0.276	-0.007
-746.185	-147.754	-0.319	0.027
-745.171	-200.000	-0.002	-0.381
-744.156	800.000	0.118	0.479
-743.142	66.383	-0.101	0.104
-742.127	800.000	-0.035	0.107
-741.112	536.218	-0.090	-0.216
-740.098	5.992	-0.225	0.169
-739.083	-35.526	0.082	0.045
-738.069	-200.000	-0.011	0.145
-737.054	594.493	0.036	-0.091
-736.039	-51.659	-0.219	0.103
-735.025	-200.000	-0.010	0.373
-734.010	407.301	-0.019	0.042
-732.996	800.000	-0.080	-0.355
-731.981	-133.513	-0.128	0.016
-730.966	-126.061	-0.190	-0.029
-729.952	694.016	-0.148	-0.394
-728.937	34.747	-0.271	-0.240
-727.923	-92.149	0.155	0.044
-726.908	448.886	-0.044	0.097
-725.894	-200.000	-0.015	-0.074
-724.879	-31.379	-0.420	-0.239
-723.864	-96.575	-0.209	-0.056
-722.850	-200.000	0.011	-0.064
-721.835	152.675	-0.127	0.176
-720.821	-154.059	0.416	-0.029
-719.806	-142.325	0.081	-0.008
-718.791	800.000	-0.011	-0.047
-717.777	-200.000	-0.081	-0.467
-716.762	102.916	0.279	0.331
-715.748	-74.749	-0.395	-0.144
-714.733	220.822	-0.216	-0.351
-713.718	-43.322	0.138	-0.071
-712.704	-118.210	-0.277	0.050
-711.689	-65.272	0.311	-0.127
-710.675	-10.365	-0.097	-0.065
-709.660	130.205	-0.158	0.205
-708.645	525.345	-0.081	-0.194
-707.631	800.000	0.089	-0.329
-706.616	85.752	0.121	-0.135
-705.602	-155.995	-0.285	0.018
-704.587	251.417	-0.073	0.125
-703.572	136.186	-0.142	0.188
-702.558	-103.254	0.319	0.076
-701.543	-66.061	0.394	-0.159
-700.529	320.714	0.031	-0.060
-699.514	-42.815	0.161	0.083
-698.499	62.239	-0.129	-0.131
-697.485	173.970	-0.145	-0.212
-696.470	61.020	0.165	0.165
-695.456	255.003	-0.159	0.275
-694.441	-200.000	0.023	0.319
-693.426	-52.552	-0.309	-0.144
-692.412	72.120	-0.147	-0.155
-691.397	-63.561	0.210	-0.087
-690.383	-139.681	-0.108	-0.012
-689.368	-200.000	-0.005	0.084
-688.354	-146.938	-0.269	-0.023
-687.339	-134.743	0.080	0.010
-686.324	140.998	-0.034	-0.045
-685.310	-52.017	-0.130	-0.061
-684.295	110.040	0.134	-0.163
-683.281	-122.593	-0.246	0.040
-682.266	-200.000	0.073	-0.420
-681.251	36.610	-0.158	-0.141
-680.237	29.764	-0.099	-0.085
-679.222	265.849	-0.132	-0.233
-678.208	-113.527	-0.230	0.045
-677.193	390.233	-0.095	-0.199
-676.178	61.974	0.100	-0.101
-675.164	45.489	-0.157	0.147
-674.149	-200.000	-0.019	-0.427
-673.135	123.192	-0.238	-0.301
-672.120	-200.000	-0.022	-0.198
-671.105	-80.081	-0.134	-0.045
-670.091	56.091	-0.204	0.200
-669.076	-45.902	-0.112	-0.056
-668.062	-92.400	0.284	0.081
-667.047	-67.911	-0.279	-0.110
-666.032	-200.000	-0.046	-0.495
-665.018	15.477	0.085	-0.068
-664.003	-175.089	-0.024	-0.001
-662.989	108.966	-0.149	0.180
-661.974	74.899	0.279	0.297
-660.959	-24.025	-0.090	0.054
-659.945	-109.637	-0.473	-0.100
-658.930	384.476	-0.044	-0.092
-657.916	244.649	-0.091	0.154
-656.901	-156.147	-0.257	0.016
-655.886	68.722	-0.240	-0.248
-654.872	-42.685	-0.262	-0.135
-653.857	-50.301	0.306	0.146
-652.843	329.369	0.091	0.176
-651.828	521.231	0.100	-0.237
-650.814	800.000	0.041	0.174
-649.799	-69.393	-0.355	-0.137
-648.784	53.628	-0.148	0.143
-647.770	-41.013	-0.045	-0.024
-646.755	42.295	-0.334	0.307
-645.741	132.209	0.138	0.179
-644.726	197.656	0.027	0.042
-643.711	-200.000	0.039	-0.338
-642.697	53.274	-0.076	-0.074
-641.682	27.707	-0.094	0.080
-640.668	-32.257	-0.264	-0.149
-639.653	311.271	0.100	-0.188
-638.638	-45.758	-0.112	0.056
-637.624	800.000	0.126	0.372
-636.609	135.160	-0.173	-0.227
-635.595	-113.079	-0.138	-0.027
-634.580	191.160	0.098	0.148
-633.565	296.545	-0.036	-0.066
-632.551	-149.567	-0.185	0.015
-631.536	-8.137	0.370	-0.251
-630.522	220.815	-0.031	0.049
-629.507	800.000	0.064	-0.200
-628.492	148.197	-0.119	0.161
-627.478	-178.487	-0.486	-0.011
-626.463	128.194	-0.202	0.259
-625.449	3.155	-0.298	0.218
-624.434	-74.736	-0.148	-0.054
-623.419	265.238	-0.100	0.175
-622.405	-33.127	0.063	0.035
-621.390	-144.120	0.240	-0.023
-620.376	-93.961	-0.259	-0.072
-619.361	21.747	-0.066	0.054
-618.346	6.157	0.277	-0.207
-617.332	800.000	-0.043	-0.187
-616.317	-137.251	0.288	0.033
-615.303	-50.931	-0.377	-0.178
-614.288	-105.909	0.069	0.016
-613.273	155.321	-0.224	-0.311
-612.259	800.000	-0.045	-0.151
-611.244	-200.000	-0.042	0.321
-610.230	-15.822	0.130	-0.083
-609.215	-200.000	-0.027	0.118
-608.201	-76.914	0.055	0.019
-607.186	-107.954	0.313	-0.069
-606.171	140.549	0.112	0.149
-605.157	-182.062	-0.004	0.000
-604.142	530.929	0.119	0.282
-603.128	583.776	-0.092	0.227
-602.113	-45.514	0.095	-0.047
-601.098	800.000	-0.068	-0.230
-600.084	555.802	0.028	-0.068
-599.069	-200.000	-0.043	-0.242
-598.055	156.801	-0.129	0.180
-597.040	-72.745	-0.138	0.051
-596.025	-157.346	-0.157	0.010
-595.011	-39.388	-0.241	-0.127
-593.996	373.476	-0.085	0.174
-592.982	-148.194	-0.119	0.010
-591.967	201.296	0.183	-0.283
-590.952	-62.719	-0.256	-0.107
-589.938	11.198	0.101	-0.078
-588.923	-13.166	-0.187	-0.123
-587.909	-84.725	0.364	0.115
-586.894	42.719	0.093	0.086
-585.879	55.405	0.092	-0.089
-584.865	-47.216	0.108	0.053
-583.850	800.000	-0.096	0.397
-582.836	187.557	0.134	-0.200
-581.821	-26.631	0.176	0.104
-580.806	89.509	0.094	-0.106
-579.792	-147.971	-0.357	0.030
-578.777	-76.730	-0.245	0.086
-577.763	-14.612	0.163	-0.105
-576.748	116.731	-0.028	-0.035
-575.733	-17.943	-0.050	0.031
-574.719	-63.680	-0.328	-0.135
-573.704	800.000	0.056	0.242
-572.690	-133.213	0.124	0.016
-571.675	-200.000	-0.018	0.092
-570.661	666.633	-0.137	0.357
-569.646	-200.000	0.089	0.430
-568.631	759.893	0.171	-0.467
-567.617	607.290	0.044	-0.111
-566.602	-25.983	0.189	0.112
-565.588	-41.302	-0.356	-0.184
-564.573	-50.142	-0.372	-0.177
-563.558	19.498	-0.094	-0.076
-562.544	419.598	0.151	0.326
-561.529	187.269	-0.061	0.092
-560.515	-200.000	-0.013	-0.474
-559.500	-200.000	-0.005	-0.189
-558.485	-200.000	0.034	0.185
-557.471	-51.425	0.193	0.091
-556.456	-200.000	-0.006	-0.079
-555.442	358.622	-0.041	0.083
-554.427	-95.158	-0.239	-0.065
-553.412	-62.439	-0.153	0.064
-552.398	-196.499	0.054	-0.000
-551.383	-200.000	0.048	-0.312
-550.369	-44.546	0.121	-0.061
-549.354	86.483	-0.306	-0.339
-548.339	566.610	0.073	-0.177
-547.325	-200.000	0.033	0.319
-546.310	-151.698	-0.151	-0.011
-545.296	129.575	-0.350	-0.449
-544.281	-63.233	-0.056	-0.023
-543.266	-141.886	-0.038	-0.004
-542.252	-138.844	0.142	-0.015
-541.237	151.389	-0.008	0.011
-540.223	68.674	0.311	0.321
-539.208	800.000	-0.067	-0.281
-538.193	-28.244	0.397	-0.231
-537.179	800.000	0.026	-0.102
-536.164	800.000	0.023	-0.093
-535.150	-119.028	-0.243	0.043
-534.135	-114.394	0.453	-0.087
-533.121	-200.000	0.030	-0.139
-532.106	216.465	0.138	-0.220
-531.091	-132.401	0.213	-0.028
-530.077	382.990	-0.038	-0.078
-529.062	-103.564	0.021	-0.005
-528.048	-200.000	0.002	0.122
-527.033	800.000	-0.075	-0.279
-526.018	-155.347	-0.135	-0.009
-525.004	11.091	0.282	-0.216
-523.989	-180.541	0.168	0.003
-522.975	58.263	0.025	0.025
-521.960	-10.834	-0.200	-0.133
-520.945	-200.000	-0.033	-0.352
-519.931	-15.515	-0.200	0.128
-518.916	-182.269	0.291	-0.005
-517.902	605.558	-0.140	0.351
-516.887	-45.773	0.228	-0.113
-515.872	112.292	-0.021	-0.026
-514.858	-51.320	-0.038	0.018
-513.843	4.651	0.026	0.019
-512.829	-200.000	-0.011	0.125
-511.814	98.201	0.047	0.055
-510.799	-76.308	0.193	-0.068
-509.785	-200.000	-0.063	-0.350
-508.770	800.000	-0.035	-0.113
-507.756	50.405	0.217	-0.206
-506.741	-169.521	-0.396	-0.014
-505.726	-200.000	0.011	-0.104
-504.712	10.035	-0.108	0.082
-503.697	-115.882	0.339	-0.064
-502.683	90.011	0.271	-0.304
-501.668	-78.874	-0.239	-0.082
-500.653	800.000	-0.070	-0.227
-499.639	-113.355	-0.292	0.057
-498.624	250.948	0.118	-0.202
-497.610	93.501	-0.026	-0.029
-496.595	141.208	-0.148	-0.197
-495.581	-200.000	-0.011	0.337
-494.566	108.044	-0.168	-0.201
-493.551	800.000	-0.022	0.077
-492.537	43.005	-0.159	0.145
-491.522	330.362	0.046	-0.089
-490.508	296.529	-0.148	-0.272
-489.493	-200.000	-0.000	0.178
-488.478	-200.000	-0.031	-0.268
-487.464	800.000	-0.010	0.032
-486.449	-58.066	0.259	-0.113
-485.435	-67.494	0.140	0.055
-484.420	-142.212	-0.286	0.028
-483.405	-50.501	-0.243	-0.115
-482.391	69.696	-0.109	0.113
-481.376	5.526	-0.388	-0.287
-480.362	-200.000	-0.020	0.133
-479.347	65.274	-0.139	0.141
-478.332	-200.000	-0.051	-0.270
-477.318	-126.345	0.328	-0.049
-476.303	-162.681	0.306	0.015
-475.289	-189.643	0.019	-0.000
-474.274	800.000	0.028	0.116
-473.259	61.817	-0.174	0.173
-472.245	-4.176	-0.087	0.060
-471.230	-120.580	0.040	0.007
-470.216	15.374	-0.392	0.308
-469.201	-104.244	0.261	0.061
-468.186	252.378	0.131	-0.223
-467.172	800.000	-0.029	0.110
-466.157	-200.000	-0.004	-0.183
-465.143	-40.783	-0.056	0.029
-464.128	-49.947	-0.302	0.144
-463.113	24.827	0.134	-0.111
-462.099	-161.922	0.185	0.009
-461.084	-200.000	0.012	-0.198
-460.070	-154.836	-0.036	0.002
-459.055	-90.743	0.241	-0.070
-458.040	323.496	0.153	-0.293
-457.026	159.830	-0.133	0.185
-456.011	-200.000	0.096	0.442
-454.997	-122.137	-0.221	-0.036
-453.982	800.000	-0.064	0.232
-452.968	-200.000	0.058	0.364
-451.953	-200.000	0.016	0.134
-450.938	57.058	0.158	0.154
-449.924	92.977	0.105	0.118
-448.909	4.811	0.143	0.106
-447.895	372.668	-0.186	-0.379
-446.880	-22.985	0.084	0.051
-445.865	152.808	0.314	-0.429
-444.851	800.000	0.131	-0.426
-443.836	152.900	0.267	-0.366
-442.822	103.889	-0.186	0.219
-441.807	-58.775	0.144	-0.062
-440.792	201.073	-0.078	-0.121
-439.778	-200.000	0.037	-0.337
-438.763	-17.866	0.155	0.097
-437.749	-200.000	0.070	-0.369
-436.734	-72.847	-0.385	0.142
-435.719	-200.000	-0.026	0.318
-434.705	-56.911	-0.083	-0.037
-433.690	800.000	-0.037	0.137
-432.676	800.000	-0.062	-0.196
-431.661	94.253	-0.096	-0.109
-430.646	-141.389	0.165	-0.017
-429.632	68.824	-0.360	0.369
-428.617	-134.234	-0.296	0.036
-427.603	-27.556	-0.245	-0.142
-426.588	-83.302	-0.154	0.049
-425.573	-24.691	-0.188	0.112
-424.559	23.047	0.096	0.079
-423.544	-71.837	-0.210	-0.078
-422.530	-200.000	-0.016	-0.122
-421.515	-65.709	-0.067	0.027
-420.500	800.000	0.044	0.141
-419.486	800.000	-0.094	-0.267
-418.471	70.357	-0.155	0.160
-417.457	-41.184	-0.082	0.042
-416.442	36.038	0.143	-0.126
-415.428	-166.888	-0.162	-0.007
-414.413	-195.676	0.072	0.001
-413.398	-108.993	0.429	-0.091
-412.384	68.680	-0.171	-0.176
-411.369	733.478	-0.140	0.375
-410.355	-82.503	0.141	-0.046
-409.340	-151.815	0.442	0.032
-408.325	-113.817	0.244	-0.047
-407.311	800.000	0.078	0.321
-406.296	372.650	-0.105	0.213
-405.282	-200.000	-0.013	0.146
-404.267	-62.001	-0.184	0.077
-403.252	-99.222	-0.162	-0.041
-402.238	800.000	-0.064	-0.207
-401.223	-200.000	-0.001	0.225
-400.209	-88.972	0.336	-0.099
-399.194	-200.000	-0.024	-0.121
-398.179	78.964	-0.108	-0.115
-397.165	-35.448	-0.114	-0.062
-396.150	800.000	-0.130	0.384
-395.136	267.404	0.166	0.290
-394.121	40.969	0.093	-0.084
-393.106	-76.338	0.108	0.038
-392.092	800.000	0.110	-0.309
-391.077	182.405	0.030	0.045
-390.063	-129.802	0.116	0.016
-389.048	-12.526	-0.200	-0.130
-388.033	-128.295	-0.101	-0.014
-387.019	-23.591	-0.266	0.159
-386.004	124.081	0.115	0.144
-384.990	-122.654	-0.299	-0.048
-383.975	39.983	-0.111	-0.100
-382.960	59.607	-0.143	0.141
-381.946	5.836	-0.143	0.106
-380.931	-200.000	-0.017	0.383
-379.917	101.344	-0.112	0.130
-378.902	-115.913	-0.060	0.011
-377.888	88.044	0.143	0.159
-376.873	-103.082	0.166	0.039
-375.858	-122.725	-0.268	-0.043
-374.844	-61.839	-0.294	0.123
-373.829	-200.000	0.012	0.055
-372.815	-200.000	0.017	-0.084
-371.800	14.353	0.316	0.246
-370.785	671.351	0.061	0.159
-369.771	-188.030	-0.064	0.001
-368.756	126.322	0.099	-0.125
-367.742	800.000	-0.065	-0.202
-366.727	-101.524	-0.329	-0.080
-365.712	-21.012	0.297	0.181
-364.698	-169.652	-0.323	-0.012
-363.683	119.460	0.159	0.197
-362.669	-43.637	0.234	0.118
-361.654	-73.852	-0.152	-0.055
-360.639	-85.703	0.198	0.061
-359.625	800.000	0.013	-0.042
-358.610	800.000	-0.048	-0.178
-357.596	-157.306	0.097	-0.006
-356.581	-200.000	0.001	-0.145
-355.566	-200.000	0.016	-0.196
-354.552	-16.552	-0.205	0.129
-353.537	-18.049	0.218	0.136
-352.523	-64.919	-0.127	-0.051
-351.508	46.821	0.286	0.265
-350.493	-163.929	-0.192	0.009
-349.479	327.993	0.085	0.163
-348.464	-99.664	0.311	-0.078
-347.450	-8.945	-0.068	-0.045
-346.435	605.035	0.069	0.171
-345.420	-22.070	-0.177	-0.107
-344.406	463.150	0.176	-0.392
-343.391	-45.006	-0.155	-0.077
-342.377	-55.912	-0.388	0.173
-341.362	89.134	0.131	-0.146
-340.348	-17.974	0.030	0.018
-339.333	800.000	0.092	0.300
-338.318	800.000	0.083	-0.232
-337.304	-29.750	-0.163	-0.093
-336.289	-200.000	0.027	-0.121
-335.275	-57.637	-0.143	-0.062
-334.260	-63.531	-0.123	-0.050
-333.245	89.304	0.128	-0.142
-332.231	-14.402	-0.218	0.140
-331.216	-92.463	-0.229	-0.064
-330.202	56.693	-0.190	0.184
-329.187	-104.305	-0.481	0.111
-328.172	-61.164	-0.118	0.050
-327.158	-99.827	-0.140	0.035
-326.143	-200.000	0.044	-0.217
-325.129	200.949	-0.105	-0.162
-324.114	351.892	0.045	-0.089
-323.099	800.000	0.088	0.295
-322.085	169.192	-0.039	-0.056
-321.070	-136.741	0.237	-0.027
-320.056	800.000	0.124	0.342
-319.041	800.000	0.035	0.150
-318.026	-172.517	0.317	0.010
-317.012	-200.000	-0.021	0.111
-315.997	13.729	-0.052	0.040
-314.983	-47.414	0.340	0.164
-313.968	48.088	0.265	0.247
-312.953	74.159	0.178	0.187
-311.939	164.118	0.160	-0.224
-310.924	-166.874	-0.150	-0.006
-309.910	-96.994	0.282	0.074
-308.895	8.725	-0.067	0.051
-307.880	-54.201	-0.072	-0.033
-306.866	-81.031	-0.201	0.066
-305.851	218.918	0.082	-0.130
-304.837	-51.770	0.236	0.110
-303.822	-200.000	0.025	-0.125
-302.807	-25.595	-0.101	-0.059
-301.793	-68.448	0.078	-0.030
-300.778	-161.957	0.111	0.006
-299.764	68.407	-0.102	-0.104
-298.749	-21.404	0.070	-0.042
-297.735	-89.053	-0.184	-0.054
-296.720	-35.257	0.202	-0.109
-295.705	-22.201	0.370	0.223
-294.691	-158.142	-0.477	0.028
-293.676	-114.404	0.049	-0.009
-292.662	271.410	0.193	0.339
-291.647	-200.000	0.026	-0.124
-290.632	31.859	0.071	0.061
-289.618	-90.694	0.242	-0.070
-288.603	-200.000	0.007	0.125
-287.589	-29.878	-0.198	0.112
-286.574	-40.540	0.082	0.043
-285.559	-70.376	-0.115	0.043
-284.545	639.308	0.119	0.302
-283.530	65.327	0.185	0.187
-282.516	105.235	-0.247	0.290
-281.501	-10.180	0.315	0.208
-280.486	-200.000	-0.032	0.178
-279.472	-200.000	0.035	0.184
-278.457	-161.908	0.093	0.005
-277.443	800.000	-0.059	0.204
-276.428	-200.000	-0.031	-0.142
-275.413	-200.000	-0.022	0.204
-274.399	51.797	0.361	0.342
-273.384	19.757	-0.018	0.014
-272.370	128.409	-0.427	-0.541
-271.355	-110.168	-0.123	-0.025
-270.340	150.276	-0.312	-0.421
-269.326	-200.000	-0.007	-0.291
-268.311	-159.956	-0.465	0.025
-267.297	541.332	0.051	-0.120
-266.282	450.251	0.131	-0.287
-265.267	-200.000	0.015	-0.095
-264.253	800.000	0.065	0.233
-263.238	15.415	0.249	0.194
-262.224	63.632	0.286	-0.285
-261.209	363.426	0.144	-0.287
-260.195	-118.010	0.235	0.042
-259.180	-93.597	0.189	0.052
-258.165	17.577	0.186	-0.147
-257.151	-50.078	-0.062	0.029
-256.136	793.386	0.066	-0.180
-255.122	-33.485	-0.125	-0.068
-254.107	36.125	0.131	0.115
-253.092	-200.000	-0.022	-0.187
-252.078	-130.127	0.076	0.010
-251.063	-132.996	0.253	0.032
-250.049	-76.445	0.198	0.069
-249.034	-16.916	0.131	0.082
-248.019	417.368	-0.093	0.197
-247.005	800.000	0.050	-0.153
-245.990	35.032	0.097	-0.085
-244.976	83.276	-0.123	0.133
-243.961	-200.000	0.007	0.219
-242.946	-200.000	-0.008	0.416
-241.932	-120.267	0.370	-0.063
-240.917	800.000	-0.009	-0.035
-239.903	-91.791	-0.122	-0.034
-238.888	-200.000	0.121	-0.553
-237.873	31.644	0.194	-0.166
-236.859	-71.105	0.361	-0.135
-235.844	-75.749	0.125	0.044
-234.830	-7.720	-0.084	0.056
-233.815	-15.364	0.174	0.111
-232.800	800.000	0.009	-0.034
-231.786	-85.120	-0.116	0.036
-230.771	92.206	-0.170	0.190
-229.757	48.484	0.224	-0.209
-228.742	-136.281	0.089	-0.010
-227.727	-200.000	0.001	0.027
-226.713	-105.702	-0.045	-0.010
-225.698	-25.618	0.105	-0.061
-224.684	-64.794	0.202	-0.081
-223.669	56.576	0.024	0.023
-222.655	215.536	-0.144	0.227
-221.640	11.656	-0.123	-0.093
-220.625	-83.288	-0.096	-0.031
-219.611	424.760	-0.005	-0.011
-218.596	428.825	0.116	0.249
-217.582	-79.863	0.096	-0.032
-216.567	-200.000	0.009	0.091
-215.552	-54.401	-0.147	0.066
-214.538	800.000	-0.011	0.044
-213.523	138.245	-0.105	-0.137
-212.509	-56.252	0.145	0.064
-211.494	800.000	-0.015	0.058
-210.479	-186.030	0.216	0.003
-209.465	630.248	0.041	-0.103
-208.450	-31.703	-0.141	0.079
-207.436	-66.668	-0.226	-0.089
-206.421	-30.303	0.276	-0.155
-205.406	-106.043	-0.118	-0.026
-204.392	-10.514	0.384	-0.252
-203.377	66.139	-0.275	0.276
-202.363	-186.258	-0.251	0.004
-201.348	228.965	0.015	0.024
-200.333	-200.000	-0.005	0.182
-199.319	83.959	-0.189	-0.204
-198.304	-120.525	-0.125	0.021
-197.290	-128.805	-0.369	0.052
-196.275	493.617	-0.072	0.164
-195.260	-200.000	-0.036	-0.262
-194.246	11.990	-0.223	-0.170
-193.231	209.829	-0.023	-0.036
-192.217	565.375	0.081	0.194
-191.202	111.318	0.151	-0.181
-190.187	-106.704	0.370	-0.082
-189.173	145.962	0.114	0.151
-188.158	-5.161	0.171	-0.117
-187.144	477.633	0.081	0.181
-186.129	-108.075	0.201	0.043
-185.114	305.378	-0.089	0.164
-184.100	-186.440	0.358	0.005
-183.085	-200.000	0.026	-0.242
-182.071	-62.022	-0.444	-0.184
-181.056	-59.276	0.446	-0.190
-180.042	-100.280	-0.200	0.049
-179.027	-80.005	0.085	-0.028
-178.012	24.953	0.152	0.125
-176.998	12.291	0.046	0.035
-175.983	-109.243	0.395	-0.083
-174.969	12.580	0.034	-0.026
-173.954	-150.987	-0.188	-0.014
-172.939	-110.319	0.309	0.064
-171.925	-64.180	-0.179	0.072
-170.910	-35.647	-0.098	0.053
-169.896	-51.915	-0.106	-0.049
-168.881	800.000	-0.015	0.052
-167.866	-200.000	-0.027	-0.322
-166.852	-39.770	-0.294	-0.152
-165.837	-200.000	0.071	0.448
-164.823	-200.000	0.004	0.040
-163.808	85.134	-0.236	0.256
-162.793	-91.644	-0.195	-0.055
-161.779	-87.213	0.133	-0.040
-160.764	-98.732	0.264	0.067
-159.750	-112.021	0.205	-0.041
-158.735	-115.175	0.326	0.061
-157.720	394.235	0.129	0.265
-156.706	-200.000	-0.074	0.330
-155.691	-143.114	-0.229	0.022
-154.677	152.040	-0.234	0.315
-153.662	800.000	-0.055	0.204
-152.647	-157.434	0.393	-0.023
-151.633	14.361	0.243	0.188
-150.618	59.415	-0.221	-0.216
-149.604	15.408	-0.199	-0.154
-148.589	-98.582	0.213	-0.054
-147.574	800.000	-0.104	-0.303
-146.560	-13.714	-0.330	0.211
-145.545	132.293	0.033	-0.043
-144.531	88.296	-0.158	0.174
-143.516	156.145	-0.069	0.093
-142.502	-200.000	0.023	0.252
-141.487	800.000	0.071	-0.237
-140.472	-200.000	0.038	0.179
-139.458	-139.743	-0.235	-0.025
-138.443	-80.989	-0.295	-0.097
-137.429	103.049	-0.148	-0.172
-136.414	-200.000	0.019	0.153
-135.399	-200.000	-0.047	-0.332
-134.385	-22.265	-0.015	0.009
-133.370	-61.072	0.138	-0.058
-132.356	800.000	-0.130	-0.395
-131.341	-98.766	-0.445	0.112
-130.326	-57.354	0.220	-0.095
-129.312	140.539	-0.139	-0.181
-128.297	800.000	-0.066	0.271
-127.283	169.024	-0.039	0.055
-126.268	301.653	-0.115	0.210
-125.253	-65.030	0.011	-0.004
-124.239	739.791	0.069	0.183
-123.224	181.209	-0.073	0.106
-122.210	255.644	0.134	-0.226
-121.195	800.000	0.035	-0.144
-120.180	-11.056	-0.072	0.047
-119.166	-59.411	-0.163	0.069
-118.151	151.586	0.146	-0.196
-117.137	396.965	0.127	0.263
-116.122	-116.160	0.060	0.011
-115.107	-44.851	-0.539	0.265
-114.093	-200.000	-0.015	0.082
-113.078	-84.590	0.221	-0.069
-112.064	-200.000	-0.050	0.229
-111.049	-13.747	-0.176	0.112
-110.034	-29.324	0.196	-0.111
-109.020	-126.274	0.158	-0.023
-108.005	351.886	0.043	-0.084
-106.991	-79.825	-0.149	0.050
-105.976	-49.287	-0.339	0.160
-104.962	-43.656	0.125	-0.062
-103.947	-200.000	-0.036	-0.204
-102.932	48.723	0.094	0.087
-101.918	519.518	0.107	0.247
-100.903	-155.290	-0.110	-0.007
-99.889	171.027	0.243	0.343
-98.874	-107.789	-0.206	0.044
-97.859	-4.392	-0.249	0.170
-96.845	-110.398	-0.278	-0.057
-95.830	800.000	-0.042	-0.142
-94.816	-200.000	0.001	-0.294
-93.801	-56.517	-0.490	0.214
-92.786	-128.541	0.447	0.062
-91.772	-200.000	0.032	-0.202
-90.757	-40.103	-0.350	0.180
-89.743	-200.000	0.002	0.253
-88.728	-200.000	0.005	-0.031
-87.713	403.337	-0.117	0.244
-86.699	511.040	-0.210	0.483
-85.684	-114.037	0.201	-0.038
-84.670	-76.424	0.318	-0.110
-83.655	203.134	0.090	0.138
-82.640	35.058	-0.301	0.260
-81.626	-200.000	-0.004	0.054
-80.611	210.749	-0.020	-0.030
-79.597	-200.000	0.007	0.047
-78.582	-200.000	-0.053	-0.241
-77.567	-66.388	-0.383	-0.150
-76.553	297.272	0.037	0.068
-75.538	-200.000	0.061	-0.365
-74.524	-38.954	-0.170	-0.088
-73.509	-57.684	-0.122	0.053
-72.494	443.241	-0.086	0.187
-71.480	-23.510	0.305	0.180
-70.465	-64.750	-0.208	-0.083
-69.451	-150.774	0.298	0.022
-68.436	263.954	-0.136	-0.234
-67.422	-85.347	-0.113	-0.035
-66.407	-64.094	0.373	0.150
-65.392	-0.072	0.072	0.051
-64.378	117.978	-0.081	-0.098
-63.363	5.510	-0.126	-0.092
-62.349	-200.000	0.016	-0.119
-61.334	-14.661	-1.120	-0.710
-60.319	-200.000	-0.001	0.396
-59.305	800.000	-0.260	-0.742
-58.290	800.000	0.377	1.274
-57.276	800.000	0.588	1.670
-56.261	-200.000	95.457	567.585
-55.246	640.406	1377.895	3456.758
-54.232	197.053	2554.289	3839.533
-53.217	118.140	2166.624	2632.346
-52.203	43.361	1710.926	1540.468
-51.188	36.234	1523.017	1322.584
-50.173	33.857	1495.876	1282.933
-49.159	53.018	1543.978	1456.027
-48.144	54.885	1562.126	1485.888
-47.130	36.460	1522.004	1323.040
-46.115	33.268	1507.536	1288.715
-45.100	33.183	1503.932	1285.009
-44.086	33.136	1501.863	1282.868
-43.071	33.195	1500.136	1281.747
-42.057	33.075	1498.403	1279.401
-41.042	33.168	1496.987	1278.772
-40.027	33.053	1495.848	1276.968
-39.013	33.021	1494.342	1275.412
-37.998	32.979	1492.970	1273.908
-36.984	33.051	1492.330	1273.798
-35.969	33.097	1490.820	1272.773
-34.954	33.075	1489.043	1271.055
-33.940	33.110	1487.866	1270.232
-32.925	33.091	1486.380	1268.786
-31.911	33.046	1485.115	1267.357
-30.896	33.174	1483.708	1266.960
-29.881	33.206	1482.263	1265.893
-28.867	33.157	1480.934	1264.379
-27.852	33.131	1479.622	1263.037
-26.838	33.137	1478.150	1261.769
-25.823	33.081	1476.946	1260.316
-24.809	33.040	1475.133	1258.447
-23.794	33.126	1473.202	1257.325
-22.779	33.099	1472.033	1256.095
-21.765	33.055	1471.095	1254.956
-20.750	33.159	1470.087	1254.733
-19.736	33.007	1469.117	1252.849
-18.721	33.104	1467.717	1252.245
-17.706	33.008	1467.369	1251.265
-16.692	33.117	1465.298	1250.170
-15.677	33.111	1464.724	1249.591
-14.663	33.133	1463.895	1248.981
-13.648	32.940	1463.041	1246.926
-12.633	32.986	1461.849	1246.162
-11.619	33.051	1461.060	1245.869
-10.604	33.035	1460.479	1245.221
-9.590	33.001	1459.749	1244.326
-8.575	33.030	1458.439	1243.349
-7.560	33.036	1457.794	1242.792
-6.546	33.046	1457.004	1242.132
-5.531	32.914	1456.258	1240.580
-4.517	32.918	1455.355	1239.787
-3.502	33.044	1453.618	1239.088
-2.487	33.005	1453.058	1238.303
-1.473	33.067	1451.756	1237.549
-0.458	33.028	1450.812	1236.442
0.556	32.158	1441.186	1224.586
1.571	29.244	1415.701	1184.132
2.586	25.586	1354.863	1110.605
3.600	23.796	1273.278	1033.238
4.615	22.396	1227.208	987.915
5.629	19.314	1171.533	926.471
6.644	11.529	1087.405	820.882
7.659	5.607	1047.118	761.664
8.673	4.720	1042.058	753.620
9.688	4.861	1038.963	752.001
10.702	4.788	1037.192	750.297
11.717	4.582	1035.979	748.361
12.731	6.879	1037.293	760.306
13.746	14.010	1047.186	802.017
14.761	19.133	1053.546	831.627
15.775	18.897	1052.360	829.477
16.790	18.009	1050.182	823.411
17.804	16.709	1048.471	815.739
18.819	15.965	1046.247	810.360
19.834	15.376	1045.152	806.606
20.848	15.218	1043.899	804.808
21.863	15.016	1043.282	803.292
22.877	14.702	1042.727	801.288
23.892	14.505	1042.104	799.796
24.907	14.679	1040.647	799.439
25.921	14.589	1039.858	798.331
26.936	14.513	1039.304	797.472
27.950	14.596	1038.057	796.840
28.965	14.672	1037.423	796.645
29.980	14.803	1036.188	796.251
30.994	14.859	1034.537	795.178
32.009	14.956	1034.359	795.432
33.023	14.870	1033.495	794.289
34.038	14.825	1033.047	793.663
35.053	14.799	1031.739	792.464
36.067	14.661	1030.808	791.024
37.082	14.682	1029.806	790.286
38.096	14.607	1029.231	789.419
39.111	14.742	1028.407	789.354
40.126	14.834	1027.341	788.898
41.140	14.664	1026.497	787.379
42.155	14.660	1025.364	786.423
43.169	14.429	1024.503	784.608
44.184	14.393	1023.370	783.502
45.199	14.445	1022.081	782.689
46.213	14.547	1021.138	782.375
47.228	14.566	1020.148	781.637
48.242	14.631	1019.415	781.309
49.257	14.804	1018.298	781.194
50.271	14.595	1017.652	779.653
51.286	14.715	1016.318	779.119
52.301	14.719	1016.150	778.943
53.315	14.752	1014.956	778.110
54.330	14.674	1014.501	777.329
55.344	14.569	1013.750	776.197
56.359	14.527	1012.057	774.637
57.374	14.540	1011.688	774.347
58.388	14.561	1010.808	773.704
59.403	14.407	1010.317	772.543
60.417	14.343	1009.683	771.695
61.432	14.465	1008.637	771.391
62.447	14.460	1008.028	770.833
63.461	14.371	1007.147	769.681
64.476	14.379	1005.870	768.676
65.490	14.347	1005.332	768.049
66.505	14.387	1004.422	767.470
67.520	14.400	1003.846	767.021
68.534	14.289	1003.250	765.985
69.549	14.283	1002.628	765.415
70.563	14.383	1001.349	764.832
71.578	14.367	1000.682	764.180
72.593	14.256	999.666	762.829
73.607	14.344	998.738	762.458
74.622	14.313	997.649	761.414
75.636	14.301	997.159	760.922
76.651	14.257	996.740	760.330
77.666	14.297	995.713	759.665
78.680	14.283	994.929	758.932
79.695	14.382	994.164	758.735
80.709	14.150	994.049	757.521
81.724	14.304	993.397	757.659
82.739	14.511	991.982	757.455
83.753	14.595	991.310	757.254
84.768	14.600	990.943	756.932
85.782	14.787	990.005	756.992
86.797	14.785	989.580	756.592
87.812	14.813	988.309	755.683
88.826	14.592	987.795	754.221
89.841	14.709	987.179	754.214
90.855	14.754	986.225	753.620
91.870	14.844	985.422	753.349
92.884	14.804	984.717	752.561
93.899	14.777	984.541	752.236
94.914	14.816	983.485	751.539
95.928	14.929	982.542	751.262
96.943	14.880	982.252	750.752
97.957	14.868	981.099	749.752
98.972	14.798	980.371	748.816
99.987	14.750	979.889	748.165
101.001	14.817	978.924	747.662
102.016	14.828	978.108	747.023
103.030	14.747	977.215	745.913
104.045	14.886	975.820	745.399
105.060	14.819	975.023	744.428
106.074	14.799	974.326	743.741
107.089	14.489	973.803	741.895
108.103	14.514	972.793	741.171
109.118	14.410	972.333	740.296
110.133	14.413	971.246	739.413
111.147	14.551	969.859	738.904
112.162	14.525	969.065	738.120
113.176	14.474	968.523	737.415
114.191	14.369	968.146	736.598
115.206	14.551	967.142	736.573
116.220	14.572	966.190	735.876
117.235	14.615	965.170	735.225
118.249	14.670	964.414	734.825
119.264	14.493	963.720	733.453
120.279	14.404	963.399	732.753
121.293	14.300	962.513	731.558
122.308	14.426	961.356	731.166
123.322	14.392	960.696	730.450
124.337	14.361	959.544	729.375
125.352	14.472	958.416	728.936
126.366	14.479	956.915	727.761
127.381	14.466	956.025	726.965
128.395	14.378	955.429	726.062
129.410	14.371	954.703	725.416
130.424	14.426	953.890	724.973
131.439	14.376	953.252	724.209
132.454	14.585	952.388	724.392
133.468	14.501	951.660	723.411
134.483	14.553	951.196	723.221
135.497	14.630	950.121	722.672
136.512	14.554	949.681	721.944
137.527	14.708	948.322	721.514
138.541	14.655	947.507	720.600
139.556	14.600	947.219	720.081
140.570	14.598	946.499	719.462
141.585	14.806	945.470	719.511
142.600	14.719	945.362	718.992
143.614	14.904	944.377	718.972
144.629	14.900	943.659	718.345
145.643	14.899	942.921	717.716
146.658	14.751	942.175	716.449
147.673	14.868	940.691	715.759
148.687	14.632	940.126	714.255
149.702	14.670	939.006	713.506
150.716	14.588	938.277	712.538
151.731	14.541	937.551	711.724
152.746	14.710	936.789	711.801
153.760	14.515	936.352	710.576
154.775	14.722	935.207	710.525
155.789	14.721	934.485	709.907
156.804	14.757	933.978	709.612
157.819	14.817	933.468	709.417
158.833	14.821	932.682	708.777
159.848	14.795	932.315	708.323
160.862	14.909	931.536	708.151
161.877	14.945	930.445	707.414
162.892	14.684	929.844	705.789
163.906	14.720	928.802	705.087
164.921	14.667	927.941	704.148
165.935	14.687	926.894	703.378
166.950	14.703	925.833	702.577
167.964	14.820	925.105	702.454
168.979	14.834	924.153	701.726
169.994	14.760	923.211	700.639
171.008	14.788	922.466	700.127
172.023	14.729	921.913	699.401
173.037	14.880	920.962	699.248
174.052	15.014	920.432	699.343
175.067	14.954	919.622	698.418
176.081	14.936	918.734	697.604
177.096	14.738	917.742	695.966
178.110	14.782	917.331	695.775
179.125	14.896	916.553	695.599
180.140	14.800	915.873	694.620
181.154	14.879	914.649	693.960
182.169	14.934	914.805	694.244
183.183	14.940	914.211	693.756
184.198	14.980	913.680	693.459
185.213	15.068	912.581	692.926
186.227	15.098	912.060	692.595
187.242	15.023	911.838	692.057
188.256	15.219	910.713	691.949
189.271	15.328	910.036	691.822
190.286	15.149	909.400	690.542
191.300	15.047	908.604	689.454
192.315	14.750	907.712	687.494
193.329	14.740	906.820	686.716
194.344	14.695	906.671	686.358
195.359	14.789	906.165	686.301
196.373	14.932	905.745	686.509
197.388	15.066	904.850	686.321
198.402	15.102	904.666	686.269
199.417	15.389	904.059	686.920
200.432	15.332	903.732	686.377
201.446	15.426	903.200	686.298
202.461	15.363	902.715	685.611
203.475	15.474	902.377	685.746
204.490	15.433	901.423	684.793
205.504	15.355	900.532	683.740
206.519	15.306	899.731	682.873
207.534	15.331	899.201	682.511
208.548	15.229	898.763	681.703
209.563	15.152	897.985	680.741
210.577	15.357	897.285	680.981
211.592	15.319	896.732	680.346
212.607	15.288	896.403	679.912
213.621	15.482	895.811	680.187
214.636	15.420	894.874	679.165
215.650	15.465	894.021	678.638
216.665	15.573	893.218	678.405
217.680	15.517	893.180	678.092
218.694	15.552	892.426	677.599
219.709	15.436	892.310	676.984
220.723	15.609	891.276	676.837
221.738	15.501	891.126	676.226
222.753	15.565	890.193	675.716
223.767	15.518	889.267	674.765
224.782	15.609	888.698	674.640
225.796	15.622	887.965	674.077
226.811	15.725	887.650	674.190
227.826	15.853	886.176	673.524
228.840	15.565	885.914	672.111
229.855	15.573	885.262	671.590
230.869	15.575	884.854	671.228
231.884	15.693	884.175	671.127
232.899	15.675	883.057	670.144
233.913	15.502	882.232	668.772
234.928	15.435	881.892	668.188
235.942	15.498	881.068	667.753
236.957	15.484	880.472	667.187
237.972	15.586	879.688	666.941
238.986	15.591	879.211	666.538
240.001	15.570	878.334	665.732
241.015	15.508	878.228	665.349
242.030	15.491	877.561	664.717
243.045	15.607	876.913	664.626
244.059	15.787	876.188	664.727
245.074	15.810	875.374	664.142
246.088	15.725	874.840	663.345
247.103	15.843	874.540	663.523
248.117	15.800	873.984	662.873
249.132	15.807	873.347	662.358
250.147	16.036	872.662	662.682
251.161	16.354	871.983	663.356
252.176	16.108	871.545	661.997
253.190	16.188	871.122	661.934
254.205	16.216	870.437	661.464
255.220	16.312	870.026	661.467
256.234	16.282	868.941	660.467
257.249	16.230	868.570	659.922
258.263	16.339	867.972	659.837
259.278	16.207	867.393	658.824
260.293	16.239	866.779	658.422
261.307	16.376	866.277	658.517
262.322	16.426	865.954	658.410
263.336	16.312	865.419	657.501
264.351	16.390	864.582	657.109
265.366	16.514	863.589	656.777
266.380	16.378	863.102	655.821
267.395	16.444	862.585	655.626
268.409	16.409	861.932	654.935
269.424	16.480	860.897	654.366
270.439	16.414	860.430	653.697
271.453	16.189	860.022	652.461
272.468	16.294	859.180	652.170
273.482	16.231	858.553	651.394
274.497	16.351	857.791	651.219
275.512	16.333	857.540	650.902
276.526	16.132	856.940	649.616
277.541	16.372	856.188	649.912
278.555	16.427	855.429	649.489
279.570	16.410	854.697	648.812
280.585	16.682	854.120	649.357
281.599	16.539	854.167	648.788
282.614	16.432	853.529	647.837
283.628	16.489	852.666	647.343
284.643	16.505	851.758	646.656
285.657	16.568	851.280	646.478
286.672	16.638	850.517	646.108
287.687	16.654	850.251	645.911
288.701	16.535	850.040	645.238
289.716	16.423	849.816	644.585
290.730	16.639	848.738	644.530
291.745	16.604	848.296	644.007
292.760	16.718	847.183	643.539
293.774	16.692	846.946	643.202
294.789	16.704	846.720	643.018
295.803	16.812	845.573	642.501
296.818	16.548	845.568	641.438
297.833	16.563	844.628	640.725
298.847	16.762	843.623	640.660
299.862	16.769	842.870	640.057
300.876	16.753	842.666	639.786
301.891	16.862	842.185	639.773
302.906	16.876	841.590	639.319
303.920	16.896	840.655	638.629
304.935	16.861	840.399	638.245
305.949	16.909	839.785	637.902
306.964	16.977	839.245	637.691
307.979	16.913	838.584	636.892
308.993	17.082	837.686	636.788
310.008	16.944	837.539	636.101
311.022	17.157	836.666	636.180
312.037	17.024	836.531	635.524
313.052	16.896	836.025	634.606
314.066	16.996	835.281	634.359
315.081	16.932	834.252	633.281
316.095	16.925	833.916	632.942
317.110	16.936	833.457	632.580
318.125	16.840	833.263	632.018
319.139	16.765	832.750	631.293
320.154	16.854	831.942	630.959
321.168	16.906	831.563	630.807
322.183	16.901	831.628	630.783
323.197	16.845	830.658	629.782
324.212	16.846	829.993	629.227
325.227	16.953	829.108	628.897
326.241	16.914	828.752	628.426
327.256	16.927	828.338	628.104
328.270	16.902	827.911	627.632
329.285	17.003	826.922	627.201
330.300	16.945	826.487	626.601
331.314	16.971	826.258	626.468
332.329	16.898	825.753	625.762
333.343	17.060	824.966	625.705
334.358	17.110	824.340	625.361
335.373	17.103	823.894	624.942
336.387	17.139	823.366	624.617
337.402	17.225	822.858	624.492
338.416	17.207	822.471	624.078
339.431	17.541	821.716	624.675
340.446	17.351	821.195	623.528
341.460	17.558	820.418	623.640
342.475	17.436	820.283	623.035
343.489	17.511	819.739	622.843
344.504	17.564	819.292	622.642
345.519	17.470	818.719	621.808
346.533	17.702	818.026	622.073
347.548	17.619	817.732	621.491
348.562	17.672	816.846	620.955
349.577	17.465	816.387	619.799
350.592	17.299	815.872	618.748
351.606	17.406	815.137	618.526
352.621	17.440	814.717	618.273
353.635	17.385	814.468	617.833
354.650	17.504	814.101	617.931
355.665	17.352	813.758	617.063
356.679	17.551	813.262	617.356
357.694	17.570	812.554	616.832
358.708	17.545	812.444	616.605
359.723	17.461	811.663	615.654
360.738	17.559	811.249	615.638
361.752	17.562	810.848	615.288
362.767	17.697	810.246	615.265
363.781	17.734	809.792	615.000
364.796	17.727	809.420	614.638
365.810	17.750	809.034	614.372
366.825	17.914	808.624	614.597
367.840	17.950	808.096	614.273
368.854	18.032	807.796	614.285
369.869	17.797	807.441	613.117
370.883	17.838	807.135	612.977
371.898	17.970	806.252	612.723
372.913	18.001	805.559	612.256
373.927	18.103	804.944	612.098
374.942	17.972	804.433	611.187
375.956	18.079	803.309	610.662
376.971	18.096	803.070	610.487
377.986	18.077	802.548	609.968
379.000	18.106	802.446	609.942
380.015	18.245	801.847	609.927
381.029	18.267	801.132	609.405
382.044	18.086	800.814	608.466
383.059	18.148	800.206	608.171
384.073	18.088	799.905	607.676
385.088	18.123	799.135	607.161
386.102	18.157	798.534	606.770
387.117	17.914	797.853	605.338
388.132	17.946	797.288	604.970
389.146	18.036	797.263	605.217
390.161	18.181	796.710	605.254
391.175	18.264	796.028	604.976
392.190	18.198	796.241	604.852
393.205	18.115	795.861	604.217
394.219	18.119	794.974	603.503
395.234	18.099	794.517	603.032
396.248	17.965	794.296	602.341
397.263	17.935	793.736	601.756
398.278	17.888	793.207	601.136
399.292	17.957	792.572	600.843
400.307	18.023	792.136	600.692
401.321	17.895	791.664	599.831
402.336	18.060	791.274	600.064
403.350	18.023	791.146	599.783
404.365	18.130	790.482	599.602
405.380	18.331	789.719	599.674
406.394	18.356	789.649	599.653
407.409	18.293	789.333	599.142
408.423	18.409	788.964	599.213
409.438	18.337	788.785	598.775
410.453	18.555	788.299	599.113
411.467	18.379	788.087	598.284
412.482	18.438	787.126	597.708
413.496	18.675	786.570	598.057
414.511	18.618	786.605	597.834
415.526	18.662	786.174	597.608
416.540	18.461	785.648	596.455
417.555	18.595	785.651	596.870
418.569	18.611	784.927	596.323
419.584	18.664	784.062	595.796
420.599	18.641	783.595	595.308
421.613	155.991	1369.321	1792.668
422.628	134.719	1454.643	1792.761
