DTS Sentinel unit serial number:	SN413079Multiplexer serial number:	ORYXHardware model number:	OX4-SRSoftware version number:	ORYX F/W v4.00 Oryx Data Collector v3.7.2.0data status	okinstallation	princeton_trtdifferential loss correction	single-endedforward channel	channel 3reverse channel	N/Adate	2019/09/19time	14:24:35forward acquisition time	60.00reverse acquisition time	0.00gamma	496.2192k internal	0.2321k external	0.2321temperature offset calibration	1.0004default loss term (dB/km)	0.3790temperature slope calibration	1.0000multiplexer offset coefficient	1.0000multiplexer slope coefficient	1.0000fibre end	0.00T internal ref (°C)	32.00T ext. ref 1 (°C)	1.06T ext. ref 2 (°C)	29.23length (m)	temperature (°C)	Stokes	anti-Stokes-747.200	-200.000	0.036	-0.221
-746.185	-200.000	0.051	-0.246
-745.171	369.248	0.098	0.201
-744.156	113.372	0.177	0.217
-743.142	284.654	0.124	0.226
-742.127	177.961	-0.133	0.196
-741.112	-72.660	-0.238	-0.089
-740.098	800.000	-0.046	0.136
-739.083	-200.000	-0.025	-0.236
-738.069	487.580	0.043	0.098
-737.054	241.089	-0.095	0.161
-736.039	-64.419	-0.376	-0.154
-735.025	283.090	-0.056	0.102
-734.010	357.081	-0.049	0.099
-732.996	179.240	-0.200	-0.295
-731.981	309.345	-0.204	-0.385
-730.966	-145.623	0.350	-0.032
-729.952	59.337	-0.112	-0.111
-728.937	260.925	-0.191	-0.333
-727.923	398.946	-0.169	-0.357
-726.908	8.846	-0.169	0.129
-725.894	-25.089	-0.322	-0.193
-724.879	-122.577	0.299	-0.049
-723.864	-125.668	0.402	0.062
-722.850	800.000	0.082	0.316
-721.835	201.660	-0.139	-0.217
-720.821	641.834	-0.132	-0.339
-719.806	-146.750	-0.324	-0.028
-718.791	-47.668	0.243	-0.119
-717.777	-175.483	-0.239	0.007
-716.762	-154.646	0.140	-0.009
-715.748	-147.532	-0.261	-0.022
-714.733	83.788	0.083	0.092
-713.718	-94.434	0.241	0.066
-712.704	-200.000	0.002	-0.206
-711.689	-72.547	0.241	0.090
-710.675	116.396	0.099	0.123
-709.660	-0.015	0.219	0.157
-708.645	8.659	-0.092	0.070
-707.631	-147.972	-0.347	0.029
-706.616	51.619	0.280	0.268
-705.602	440.221	-0.048	-0.107
-704.587	-200.000	0.005	0.108
-703.572	-114.157	0.350	0.068
-702.558	800.000	-0.055	-0.167
-701.543	74.042	0.390	-0.413
-700.529	-33.063	0.055	-0.031
-699.514	-200.000	0.002	0.346
-698.499	-40.271	-0.194	-0.102
-697.485	178.407	0.150	-0.220
-696.470	-41.608	-0.154	-0.080
-695.456	-200.000	0.003	-0.197
-694.441	-200.000	-0.009	-0.352
-693.426	-200.000	0.013	-0.383
-692.412	114.877	-0.097	0.119
-691.397	-200.000	0.032	0.365
-690.383	7.156	0.062	-0.047
-689.368	-81.298	-0.103	0.034
-688.354	61.369	-0.112	-0.112
-687.339	-168.028	-0.431	0.017
-686.324	-107.523	-0.232	-0.051
-685.310	-49.658	0.068	-0.032
-684.295	800.000	-0.108	0.335
-683.281	800.000	-0.103	0.359
-682.266	635.180	0.085	-0.218
-681.251	-145.010	-0.226	-0.021
-680.237	-91.152	0.284	-0.082
-679.222	-117.448	0.104	-0.019
-678.208	-200.000	0.001	-0.121
-677.193	-6.600	0.255	-0.175
-676.178	129.326	-0.141	-0.181
-675.164	-41.860	0.149	0.077
-674.149	179.325	0.080	0.118
-673.135	-126.896	0.140	-0.021
-672.120	-12.577	0.102	0.067
-671.105	800.000	-0.066	-0.251
-670.091	800.000	0.081	-0.227
-669.076	-200.000	0.022	-0.225
-668.062	-115.251	0.158	-0.030
-667.047	186.293	-0.167	0.251
-666.032	51.924	-0.047	0.045
-665.018	-29.362	-0.233	0.134
-664.003	198.399	-0.066	-0.101
-662.989	800.000	-0.068	-0.220
-661.974	800.000	-0.114	-0.372
-660.959	-57.655	-0.290	0.128
-659.945	205.489	0.180	0.281
-658.930	120.558	-0.227	-0.285
-657.916	389.346	0.015	-0.032
-656.901	171.618	-0.195	-0.282
-655.886	519.200	-0.105	-0.247
-654.872	800.000	-0.056	-0.201
-653.857	800.000	0.017	0.066
-652.843	1.867	0.243	0.177
-651.828	-12.318	0.171	-0.112
-650.814	-168.485	0.411	-0.016
-649.799	-89.435	-0.292	0.086
-648.784	-200.000	-0.004	0.077
-647.770	800.000	0.048	-0.183
-646.755	-94.469	-0.150	0.041
-645.741	64.693	-0.284	-0.288
-644.726	-111.329	-0.491	0.101
-643.711	703.184	0.043	0.115
-642.697	-90.599	0.264	-0.077
-641.682	355.448	-0.074	-0.148
-640.668	-120.211	-0.223	-0.038
-639.653	121.656	0.039	0.049
-638.638	14.658	-0.225	-0.177
-637.624	-103.452	-0.284	-0.067
-636.609	421.900	-0.085	0.184
-635.595	46.889	-0.113	-0.106
-634.580	1.074	-0.080	-0.058
-633.565	31.041	-0.308	-0.266
-632.551	-65.669	-0.138	-0.055
-631.536	354.894	-0.086	-0.173
-630.522	1.585	-0.135	-0.098
-629.507	-140.380	0.242	-0.025
-628.492	-200.000	0.002	0.235
-627.478	-52.406	0.232	0.108
-626.463	-34.435	-0.123	0.068
-625.449	800.000	0.015	-0.055
-624.434	343.861	0.087	0.172
-623.419	-200.000	-0.063	-0.352
-622.405	233.843	0.120	-0.199
-621.390	-24.389	0.243	0.145
-620.376	-96.114	-0.152	-0.040
-619.361	9.771	0.163	0.124
-618.346	800.000	-0.083	0.317
-617.332	67.030	-0.096	-0.098
-616.317	800.000	0.053	-0.232
-615.303	-148.666	-0.226	-0.018
-614.288	800.000	-0.016	-0.069
-613.273	-190.357	0.018	-0.000
-612.259	238.813	-0.037	-0.062
-611.244	15.312	0.207	-0.163
-610.230	154.604	-0.135	-0.186
-609.215	-77.021	-0.398	-0.140
-608.201	-82.040	0.237	-0.078
-607.186	367.913	0.076	-0.153
-606.171	272.997	0.097	-0.173
-605.157	164.324	0.148	-0.209
-604.142	41.585	-0.313	-0.285
-603.128	60.969	-0.121	-0.121
-602.113	181.021	0.112	0.165
-601.098	188.743	0.129	0.194
-600.084	-200.000	0.002	-0.374
-599.069	800.000	0.101	0.303
-598.055	-155.360	-0.285	0.019
-597.040	187.689	0.172	-0.258
-596.025	-200.000	-0.016	-0.355
-595.011	3.459	-0.113	-0.082
-593.996	-200.000	0.016	-0.172
-592.982	-52.197	-0.208	0.097
-591.967	-50.733	-0.188	0.089
-590.952	146.336	-0.072	-0.097
-589.938	-55.801	-0.077	-0.035
-588.923	19.285	-0.228	0.184
-587.909	132.016	0.124	0.161
-586.894	-51.990	0.200	-0.093
-585.879	-200.000	-0.009	0.088
-584.865	-125.083	-0.118	0.018
-583.850	-57.416	0.143	-0.063
-582.836	78.136	-0.077	-0.082
-581.821	-185.611	-0.101	0.002
-580.806	-86.474	-0.422	-0.130
-579.792	-30.310	-0.086	0.049
-578.777	32.124	-0.095	-0.083
-577.763	-142.267	0.299	-0.030
-576.748	320.725	-0.101	-0.192
-575.733	-200.000	0.029	0.215
-574.719	-126.985	-0.073	0.011
-573.704	-12.194	-0.198	-0.130
-572.690	-27.091	-0.097	-0.057
-571.675	800.000	0.042	-0.158
-570.661	-174.910	0.151	0.004
-569.646	496.446	0.132	-0.305
-568.631	800.000	0.008	0.030
-567.617	282.947	-0.033	0.060
-566.602	-77.001	-0.355	-0.124
-565.588	800.000	-0.084	-0.245
-564.573	-44.931	0.357	-0.178
-563.558	-115.774	0.253	-0.048
-562.544	57.846	0.240	0.236
-561.529	-200.000	-0.010	0.104
-560.515	-127.506	0.235	-0.034
-559.500	-10.558	-0.149	0.099
-558.485	-49.196	-0.057	-0.027
-557.471	66.001	0.024	-0.025
-556.456	213.554	0.100	-0.158
-555.442	-101.033	0.154	0.038
-554.427	177.766	0.117	0.171
-553.412	-13.198	-0.065	-0.042
-552.398	35.717	-0.221	0.195
-551.383	417.651	0.162	0.346
-550.369	-200.000	-0.004	-0.103
-549.354	800.000	0.107	0.357
-548.339	-200.000	0.019	-0.140
-547.325	452.530	-0.107	0.238
-546.310	277.110	-0.054	0.097
-545.296	30.329	-0.101	0.087
-544.281	141.350	-0.078	-0.104
-543.266	153.857	0.102	0.140
-542.252	-103.161	0.288	-0.068
-541.237	-166.013	0.127	-0.005
-540.223	-200.000	-0.002	-0.096
-539.208	352.502	-0.108	-0.215
-538.193	134.691	0.147	-0.191
-537.179	-52.407	0.180	0.083
-536.164	269.655	0.152	0.268
-535.150	-200.000	-0.003	-0.374
-534.135	62.689	-0.019	0.019
-533.121	-83.588	-0.194	-0.062
-532.106	92.175	-0.175	-0.197
-531.091	-3.890	0.153	0.107
-530.077	90.184	-0.201	0.225
-529.062	-197.774	-0.065	-0.000
-528.048	-79.349	0.061	-0.021
-527.033	-39.307	-0.070	0.037
-526.018	800.000	-0.062	-0.235
-525.004	106.490	-0.176	-0.209
-523.989	-200.000	-0.050	-0.231
-522.975	630.064	0.074	0.189
-521.960	-200.000	-0.011	-0.195
-520.945	297.372	-0.065	-0.119
-519.931	-7.988	-0.116	0.079
-518.916	-98.449	-0.232	0.060
-517.902	45.314	0.187	-0.173
-516.887	800.000	-0.043	-0.132
-515.872	-70.570	-0.141	0.053
-514.858	-200.000	-0.039	-0.221
-513.843	800.000	-0.061	0.214
-512.829	-93.237	-0.087	0.024
-511.814	-161.937	-0.398	0.020
-510.799	86.358	0.044	-0.049
-509.785	-115.505	0.209	-0.039
-508.770	9.063	-0.329	-0.249
-507.756	-118.447	0.340	0.060
-506.741	-154.928	0.299	-0.020
-505.726	63.169	-0.216	-0.216
-504.712	800.000	-0.052	0.223
-503.697	-141.599	0.123	-0.012
-502.683	-200.000	-0.079	-0.468
-501.668	23.619	-0.329	-0.272
-500.653	213.391	-0.092	0.146
-499.639	158.020	0.090	-0.125
-498.624	-7.642	-0.119	0.081
-497.610	48.467	0.127	-0.119
-496.595	31.865	0.137	-0.118
-495.581	-65.527	-0.554	0.223
-494.566	286.721	0.034	0.062
-493.551	-200.000	0.006	-0.188
-492.537	20.944	0.163	0.132
-491.522	195.717	0.083	0.126
-490.508	5.207	0.107	0.079
-489.493	-104.059	-0.127	0.030
-488.478	6.590	0.030	0.023
-487.464	-138.440	-0.259	-0.029
-486.449	-163.040	-0.173	0.008
-485.435	-52.243	-0.194	-0.090
-484.420	-200.000	0.024	-0.250
-483.405	586.862	0.059	0.144
-482.391	-78.306	0.085	-0.029
-481.376	776.507	0.080	-0.218
-480.362	-61.323	-0.082	0.034
-479.347	-200.000	-0.052	0.276
-478.332	-200.000	0.004	-0.342
-477.318	174.003	0.096	-0.139
-476.303	396.203	0.092	0.193
-475.289	-91.608	-0.417	-0.119
-474.274	318.773	0.132	-0.249
-473.259	-38.704	0.112	-0.059
-472.245	533.428	0.025	0.059
-471.230	-129.238	-0.390	-0.054
-470.216	800.000	-0.021	-0.078
-469.201	18.900	0.389	0.312
-468.186	47.103	-0.172	-0.160
-467.172	-89.402	0.220	-0.065
-466.157	538.229	0.106	-0.251
-465.143	-124.857	0.131	-0.020
-464.128	800.000	-0.029	0.121
-463.113	-115.146	0.216	0.041
-462.099	255.703	0.227	-0.389
-461.084	800.000	-0.032	-0.128
-460.070	-72.423	0.279	0.103
-459.055	-142.801	-0.209	0.020
-458.040	442.115	-0.237	0.519
-457.026	52.239	-0.088	0.084
-456.011	166.096	0.093	0.132
-454.997	124.382	0.223	0.280
-453.982	-200.000	0.019	0.096
-452.968	114.467	0.161	-0.196
-451.953	-200.000	-0.005	0.033
-450.938	800.000	0.071	-0.286
-449.924	-200.000	-0.017	0.164
-448.909	-140.138	0.190	-0.020
-447.895	-200.000	-0.055	0.243
-446.880	-200.000	0.037	-0.210
-445.865	420.105	-0.110	0.236
-444.851	-15.822	0.195	-0.124
-443.836	4.226	-0.148	-0.108
-442.822	6.082	-0.233	-0.172
-441.807	800.000	-0.096	0.308
-440.792	-121.492	0.218	0.036
-439.778	-200.000	0.033	0.201
-438.763	-5.304	-0.084	-0.058
-437.749	-123.195	-0.395	-0.063
-436.734	-200.000	0.016	-0.271
-435.719	-115.345	-0.261	0.049
-434.705	-42.870	0.068	0.035
-433.690	524.926	-0.067	-0.158
-432.676	348.588	0.113	-0.222
-431.661	-67.871	0.471	0.184
-430.646	-38.845	-0.302	0.159
-429.632	-200.000	0.053	0.307
-428.617	-200.000	0.001	0.096
-427.603	800.000	0.057	0.162
-426.588	-198.528	0.044	0.000
-425.573	733.181	0.072	-0.193
-424.559	237.346	0.280	0.463
-423.544	365.655	-0.067	-0.134
-422.530	58.259	-0.302	0.296
-421.515	-164.019	0.396	-0.018
-420.500	35.972	0.129	-0.113
-419.486	-16.512	-0.220	-0.139
-418.471	78.938	-0.170	-0.181
-417.457	-131.494	-0.098	-0.013
-416.442	800.000	0.090	0.264
-415.428	-200.000	-0.021	-0.164
-414.413	-107.679	-0.141	-0.031
-413.398	133.082	0.066	0.085
-412.384	-200.000	-0.028	0.303
-411.369	-36.122	-0.077	0.042
-410.355	61.996	-0.155	0.154
-409.340	224.794	0.170	0.274
-408.325	206.073	0.115	0.178
-407.311	-200.000	-0.041	-0.219
-406.296	800.000	-0.057	0.200
-405.282	-15.401	0.314	0.200
-404.267	249.367	-0.142	0.240
-403.252	800.000	-0.055	0.212
-402.238	-61.449	-0.118	0.049
-401.223	-58.673	0.206	-0.089
-400.209	-200.000	-0.020	-0.273
-399.194	99.753	-0.128	-0.148
-398.179	800.000	0.079	0.326
-397.165	-122.956	-0.316	-0.051
-396.150	-19.368	0.106	0.065
-395.136	-111.525	0.256	0.052
-394.121	479.295	-0.127	0.286
-393.106	-103.294	0.271	0.064
-392.092	-135.211	-0.250	-0.030
-391.077	-128.371	0.337	-0.048
-390.063	358.470	-0.034	0.068
-389.048	54.012	-0.161	0.154
-388.033	-68.463	-0.102	0.039
-387.019	113.887	0.086	0.104
-386.004	-127.900	-0.167	0.024
-384.990	800.000	-0.063	-0.261
-383.975	44.182	-0.393	-0.360
-382.960	198.261	0.026	0.040
-381.946	100.761	0.217	0.251
-380.931	-94.398	0.125	-0.034
-379.917	-31.720	-0.260	0.145
-378.902	-59.370	0.189	0.081
-377.888	461.542	-0.155	0.345
-376.873	100.552	0.139	-0.161
-375.858	-9.042	0.309	0.206
-374.844	246.953	-0.079	0.133
-373.829	-166.618	-0.203	0.008
-372.815	748.919	-0.013	0.034
-371.800	-200.000	0.050	-0.298
-370.785	282.691	0.130	-0.232
-369.771	-113.612	-0.275	0.054
-368.756	29.914	0.093	0.079
-367.742	77.671	-0.062	0.066
-366.727	-200.000	0.040	0.205
-365.712	-96.322	0.100	0.026
-364.698	-200.000	0.052	-0.586
-363.683	800.000	-0.082	0.340
-362.669	320.201	0.048	0.090
-361.654	-105.801	0.077	-0.017
-360.639	159.624	-0.120	-0.166
-359.625	-200.000	0.030	-0.185
-358.610	-75.271	0.225	-0.080
-357.596	-13.933	0.297	-0.191
-356.581	-200.000	-0.052	0.255
-355.566	800.000	0.067	0.272
-354.552	89.203	0.100	0.111
-353.537	800.000	0.081	-0.260
-352.523	-200.000	0.029	-0.296
-351.508	580.117	-0.061	0.148
-350.493	217.481	0.083	0.132
-349.479	-200.000	-0.025	0.264
-348.464	-48.174	-0.196	0.094
-347.450	-130.808	0.284	0.038
-346.435	-126.513	-0.373	-0.055
-345.420	604.062	0.161	-0.399
-344.406	82.464	0.194	0.209
-343.391	582.331	0.097	0.237
-342.377	99.633	-0.258	0.298
-341.362	189.055	0.107	-0.160
-340.348	8.520	0.232	-0.174
-339.333	-127.742	-0.235	-0.034
-338.318	-65.599	-0.274	-0.110
-337.304	491.400	0.100	0.227
-336.289	-51.633	0.347	-0.161
-335.275	4.116	0.144	-0.105
-334.260	-83.123	-0.098	-0.031
-333.245	-194.713	0.394	0.003
-332.231	-33.521	-0.165	-0.091
-331.216	-12.580	-0.170	-0.110
-330.202	24.991	0.097	0.080
-329.187	19.083	-0.078	0.062
-328.172	332.603	-0.024	-0.046
-327.158	111.232	0.189	0.226
-326.143	140.021	-0.285	0.373
-325.129	-69.834	-0.173	0.066
-324.114	2.662	-0.150	-0.108
-323.099	800.000	-0.081	-0.248
-322.085	29.825	0.092	0.078
-321.070	-200.000	-0.010	0.199
-320.056	-200.000	0.102	0.562
-319.041	613.343	0.053	0.131
-318.026	135.154	0.157	0.203
-317.012	36.403	-0.359	0.315
-315.997	-17.371	0.242	-0.152
-314.983	-25.984	-0.196	-0.115
-313.968	362.738	-0.041	0.082
-312.953	-71.437	-0.217	-0.081
-311.939	428.629	0.063	0.136
-310.924	87.568	0.342	0.376
-309.910	162.754	-0.178	-0.249
-308.895	-149.500	0.470	-0.037
-307.880	-200.000	0.050	-0.258
-306.866	-12.406	0.199	0.129
-305.851	-122.142	0.231	0.038
-304.837	40.298	0.087	-0.078
-303.822	-200.000	-0.086	0.524
-302.807	131.154	0.265	-0.338
-301.793	800.000	0.077	-0.242
-300.778	149.942	0.084	-0.113
-299.764	800.000	0.055	0.235
-298.749	-200.000	0.025	-0.231
-297.735	-10.287	0.352	-0.232
-296.720	-200.000	0.009	0.108
-295.705	-81.437	-0.159	-0.052
-294.691	-200.000	-0.024	-0.170
-293.676	46.828	-0.187	0.172
-292.662	125.120	-0.120	0.151
-291.647	800.000	-0.059	0.241
-290.632	800.000	0.047	0.155
-289.618	51.152	-0.218	0.205
-288.603	-95.818	0.126	0.033
-287.589	-200.000	0.012	0.279
-286.574	33.001	-0.291	0.250
-285.559	800.000	0.073	0.209
-284.545	23.401	-0.115	0.094
-283.530	449.574	0.086	-0.188
-282.516	320.262	-0.093	0.175
-281.501	-135.992	-0.254	-0.030
-280.486	-20.926	0.191	0.116
-279.472	-200.000	0.004	-0.200
-278.457	34.185	-0.156	0.135
-277.443	-144.340	-0.157	0.014
-276.428	-85.376	0.257	0.080
-275.413	-139.887	0.367	0.039
-274.399	-116.602	-0.163	0.030
-273.384	-118.536	0.059	-0.010
-272.370	800.000	-0.055	0.223
-271.355	9.703	-0.074	0.056
-270.340	-119.615	-0.137	0.024
-269.326	147.790	0.048	0.065
-268.311	210.836	0.068	0.106
-267.297	-200.000	-0.002	-0.059
-266.282	-42.899	0.092	0.046
-265.267	-200.000	-0.015	0.093
-264.253	486.552	0.057	-0.130
-263.238	54.870	0.218	0.209
-262.224	-49.866	0.499	0.235
-261.209	-86.547	-0.097	-0.030
-260.195	260.209	-0.191	0.328
-259.180	-69.913	0.235	0.089
-258.165	-200.000	-0.049	-0.235
-257.151	172.341	0.192	0.273
-256.136	-41.492	0.099	0.051
-255.122	800.000	-0.043	0.182
-254.107	-200.000	0.027	-0.197
-253.092	71.327	-0.021	0.022
-252.078	-200.000	0.035	0.205
-251.063	32.907	0.084	0.073
-250.049	493.184	-0.131	-0.298
-249.034	-108.495	-0.152	-0.032
-248.019	-107.120	0.317	-0.069
-247.005	-200.000	0.030	-0.147
-245.990	702.448	0.058	-0.152
-244.976	-113.693	-0.143	-0.028
-243.961	225.658	0.122	0.196
-242.946	-104.770	-0.330	-0.075
-241.932	2.946	-0.224	-0.161
-240.917	-44.019	0.164	-0.082
-239.903	-200.000	0.021	-0.179
-238.888	93.305	0.062	0.070
-237.873	-121.430	0.095	0.016
-236.859	-110.957	0.112	0.023
-235.844	-138.414	-0.287	-0.031
-234.830	800.000	-0.120	0.514
-233.815	-103.523	0.469	0.109
-232.800	211.632	-0.235	-0.367
-231.786	-200.000	-0.017	0.090
-230.771	800.000	-0.100	-0.289
-229.757	65.660	0.086	0.086
-228.742	800.000	-0.047	0.169
-227.727	-16.461	0.245	0.154
-226.713	-132.213	0.567	-0.073
-225.698	-200.000	-0.012	-0.535
-224.684	-200.000	-0.071	-0.334
-223.669	100.348	0.189	0.217
-222.655	-200.000	0.041	0.299
-221.640	-29.327	0.225	0.127
-220.625	-69.708	-0.115	0.043
-219.611	-135.130	-0.051	0.006
-218.596	800.000	-0.091	0.306
-217.582	-101.514	0.272	0.066
-216.567	-69.981	-0.164	0.062
-215.552	-29.737	-0.309	0.174
-214.538	-48.423	0.266	0.127
-213.523	427.163	0.173	0.370
-212.509	-200.000	0.031	-0.249
-211.494	800.000	-0.041	-0.115
-210.479	658.497	-0.021	0.055
-209.465	134.900	0.072	-0.093
-208.450	-158.739	0.189	0.011
-207.436	-200.000	-0.051	-0.276
-206.421	-31.160	0.327	-0.183
-205.406	-174.844	0.226	-0.006
-204.392	-200.000	0.014	-0.337
-203.377	-200.000	0.021	0.260
-202.363	-200.000	0.019	-0.188
-201.348	25.717	-0.256	-0.211
-200.333	800.000	0.048	-0.170
-199.319	770.466	-0.039	-0.105
-198.304	-94.122	-0.207	-0.056
-197.290	-200.000	0.021	0.161
-196.275	-200.000	-0.066	-0.358
-195.260	-56.199	0.274	-0.121
-194.246	-19.470	-0.251	0.154
-193.231	-125.217	0.206	0.031
-192.217	70.902	0.245	0.251
-191.202	-147.760	0.191	-0.016
-190.187	67.318	-0.235	-0.237
-189.173	2.461	-0.184	-0.131
-188.158	-200.000	-0.055	-0.354
-187.144	411.243	-0.057	0.120
-186.129	-29.919	-0.052	0.029
-185.114	627.360	0.027	0.068
-184.100	-30.391	-0.188	-0.106
-183.085	-88.504	-0.187	0.055
-182.071	-64.094	0.165	-0.067
-181.056	-66.875	-0.137	0.054
-180.042	-5.378	0.118	0.080
-179.027	211.155	0.218	0.339
-178.012	-200.000	-0.005	-0.022
-176.998	-108.781	0.268	-0.057
-175.983	121.988	-0.126	0.156
-174.969	-5.248	-0.328	0.223
-173.954	105.117	0.044	0.052
-172.939	-200.000	0.045	0.204
-171.925	14.745	0.263	0.203
-170.910	161.449	0.081	0.112
-169.896	-200.000	0.042	-0.251
-168.881	-113.785	-0.238	-0.046
-167.866	299.426	-0.192	-0.349
-166.852	-96.280	0.250	0.066
-165.837	-28.004	0.099	-0.056
-164.823	-200.000	-0.036	-0.485
-163.808	-83.122	0.305	0.097
-162.793	-30.669	0.308	-0.172
-161.779	-46.724	-0.178	-0.086
-160.764	800.000	-0.134	-0.476
-159.750	196.234	-0.120	-0.181
-158.735	130.727	-0.102	-0.129
-157.720	800.000	-0.052	0.159
-156.706	415.973	0.077	-0.161
-155.691	439.816	-0.072	0.156
-154.677	-200.000	0.054	0.264
-153.662	125.787	-0.010	-0.012
-152.647	-129.176	-0.395	-0.054
-151.633	-61.602	-0.036	-0.015
-150.618	66.265	0.298	0.299
-149.604	75.229	-0.147	0.153
-148.589	-42.894	0.201	-0.101
-147.574	-24.067	-0.228	-0.135
-146.560	-4.359	0.127	-0.086
-145.545	315.298	0.188	0.350
-144.531	402.237	0.115	-0.238
-143.516	-143.981	-0.231	-0.021
-142.502	-104.318	-0.194	-0.044
-141.487	-56.532	0.293	-0.128
-140.472	800.000	-0.105	0.306
-139.458	-65.202	-0.285	0.114
-138.443	-200.000	-0.030	0.133
-137.429	-110.329	-0.134	-0.028
-136.414	800.000	-0.047	0.139
-135.399	-200.000	0.015	0.143
-134.385	800.000	0.058	0.182
-133.370	-126.814	-0.140	-0.020
-132.356	-31.847	-0.066	-0.037
-131.341	30.196	0.213	-0.179
-130.326	-200.000	-0.011	-0.154
-129.312	19.936	0.329	0.262
-128.297	330.141	0.106	0.201
-127.283	-200.000	0.109	0.478
-126.268	-73.632	-0.251	0.090
-125.253	498.370	-0.128	0.291
-124.239	17.746	0.091	0.071
-123.224	-131.509	-0.249	0.032
-122.210	-147.699	0.082	0.007
-121.195	-200.000	-0.009	0.078
-120.180	-36.530	0.139	0.074
-119.166	-76.762	-0.183	0.063
-118.151	27.652	0.051	-0.042
-117.137	-200.000	0.011	0.212
-116.122	-116.770	-0.388	-0.070
-115.107	12.151	0.072	-0.054
-114.093	599.001	-0.047	-0.115
-113.078	-4.516	-0.400	-0.272
-112.064	-130.194	0.119	0.016
-111.049	6.645	0.384	0.282
-110.034	-95.040	0.313	-0.084
-109.020	-136.605	0.090	0.010
-108.005	160.920	-0.031	-0.043
-106.991	-200.000	-0.018	0.096
-105.976	-105.021	-0.350	-0.079
-104.962	-118.394	0.255	0.045
-103.947	-136.786	0.290	0.033
-102.932	-0.088	-0.197	0.138
-101.918	216.357	0.018	0.028
-100.903	45.877	-0.126	-0.114
-99.889	-107.935	0.223	-0.048
-98.874	81.135	0.163	0.174
-97.859	-200.000	-0.014	0.165
-96.845	-200.000	0.004	0.066
-95.830	-200.000	0.059	0.294
-94.816	-154.038	-0.296	-0.020
-93.801	-200.000	-0.027	-0.186
-92.786	-65.121	0.174	0.069
-91.772	-200.000	-0.026	0.296
-90.757	88.057	0.174	0.190
-89.743	0.631	0.178	0.125
-88.728	-59.812	0.136	0.057
-87.713	477.765	0.035	-0.078
-86.699	-157.989	-0.101	-0.006
-85.684	484.544	-0.061	0.136
-84.670	89.373	0.243	0.267
-83.655	-195.566	0.358	-0.003
-82.640	-51.948	-0.227	0.104
-81.626	341.767	-0.090	0.173
-80.611	632.042	0.106	0.265
-79.597	125.468	0.054	0.068
-78.582	-152.754	-0.214	-0.015
-77.567	484.460	0.105	0.236
-76.553	355.413	-0.161	0.316
-75.538	197.436	-0.015	-0.022
-74.524	-200.000	-0.039	-0.173
-73.509	-200.000	0.042	-0.234
-72.494	467.682	0.134	-0.295
-71.480	447.879	0.061	0.131
-70.465	74.033	-0.190	-0.197
-69.451	-86.574	-0.219	-0.066
-68.436	513.162	-0.094	-0.215
-67.422	-200.000	0.272	0.000
-66.407	131.472	0.109	-0.138
-65.392	130.330	0.041	-0.052
-64.378	-87.478	0.035	0.010
-63.363	-200.000	0.006	0.118
-62.349	233.166	-0.169	0.273
-61.334	13.275	-0.765	-0.584
-60.319	6.701	0.521	0.381
-59.305	800.000	-0.273	-0.866
-58.290	149.641	0.678	0.904
-57.276	800.000	0.648	1.762
-56.261	-200.000	93.377	559.058
-55.246	506.926	1407.300	3211.687
-54.232	152.095	2614.825	3509.574
-53.217	109.753	2221.469	2620.567
-52.203	42.873	1751.007	1570.054
-51.188	35.076	1558.498	1342.971
-50.173	32.747	1531.180	1303.303
-49.159	51.732	1578.717	1477.324
-48.144	53.401	1595.773	1504.926
-47.130	35.436	1556.703	1343.728
-46.115	32.339	1541.679	1309.192
-45.100	32.146	1538.513	1305.111
-44.086	32.029	1536.725	1302.729
-43.071	32.055	1534.988	1301.389
-42.057	32.082	1533.164	1299.974
-41.042	32.050	1531.636	1298.404
-40.027	32.022	1530.077	1296.843
-39.013	32.027	1528.198	1295.228
-37.998	31.905	1527.478	1293.729
-36.984	31.959	1526.225	1292.989
-35.969	32.027	1524.706	1292.116
-34.954	32.102	1523.056	1291.186
-33.940	32.039	1521.882	1289.704
-32.925	32.079	1520.115	1288.429
-31.911	32.019	1519.166	1287.160
-30.896	32.116	1517.419	1286.297
-29.881	32.136	1516.109	1285.269
-28.867	31.968	1515.208	1283.308
-27.852	32.114	1512.818	1282.231
-26.838	32.079	1511.886	1281.149
-25.823	32.020	1510.312	1279.360
-24.809	32.015	1508.750	1277.957
-23.794	32.086	1506.958	1276.870
-22.779	32.046	1505.647	1275.438
-21.765	32.100	1504.533	1274.808
-20.750	32.060	1503.793	1273.862
-19.736	32.042	1502.592	1272.671
-18.721	31.992	1501.966	1271.753
-17.706	32.040	1500.520	1270.802
-16.692	31.993	1499.293	1269.390
-15.677	32.053	1497.883	1268.554
-14.663	31.867	1497.419	1266.854
-13.648	31.840	1496.398	1265.760
-12.633	32.024	1495.080	1265.832
-11.619	31.959	1494.395	1264.767
-10.604	32.002	1493.226	1264.013
-9.590	31.931	1492.679	1263.024
-8.575	31.909	1492.123	1262.355
-7.560	31.927	1491.107	1261.565
-6.546	31.875	1490.483	1260.640
-5.531	31.889	1489.277	1259.662
-4.517	31.881	1488.187	1258.635
-3.502	31.968	1486.761	1257.965
-2.487	31.936	1485.821	1256.906
-1.473	31.934	1484.973	1256.127
-0.458	31.918	1483.621	1254.822
0.556	31.618	1474.015	1246.089
1.571	28.957	1448.457	1206.939
2.586	25.318	1384.801	1130.917
3.600	22.984	1298.370	1046.436
4.615	20.657	1250.897	994.795
5.629	17.272	1192.743	929.974
6.644	9.102	1105.025	819.936
7.659	2.302	1063.539	755.568
8.673	1.185	1058.102	746.146
9.688	1.060	1055.226	743.438
10.702	0.968	1053.706	741.851
11.717	1.018	1051.616	740.558
12.731	3.363	1053.876	753.564
13.746	10.896	1063.708	797.595
14.761	16.609	1070.208	830.519
15.775	17.611	1071.192	836.127
16.790	17.290	1070.012	833.559
17.804	16.301	1067.736	826.872
18.819	15.404	1066.078	821.130
19.834	14.900	1064.451	817.337
20.848	14.575	1063.709	815.110
21.863	14.313	1062.875	813.120
22.877	14.126	1062.254	811.660
23.892	13.832	1061.636	809.682
24.907	13.842	1060.469	808.768
25.921	13.814	1059.494	807.818
26.936	13.852	1058.968	807.527
27.950	13.856	1058.826	807.369
28.965	13.973	1057.376	806.761
29.980	13.921	1056.850	806.037
30.994	14.030	1055.387	805.374
32.009	14.097	1054.670	805.081
33.023	14.137	1054.073	804.749
34.038	14.224	1052.985	804.268
35.053	13.997	1052.296	802.572
36.067	13.944	1051.874	801.924
37.082	13.896	1050.991	800.950
38.096	13.884	1050.357	800.337
39.111	13.924	1049.613	799.894
40.126	13.983	1048.449	799.219
41.140	14.019	1047.179	798.353
42.155	13.867	1046.124	796.747
43.169	13.798	1045.380	795.777
44.184	13.931	1044.010	795.301
45.199	14.013	1042.692	794.620
46.213	13.878	1042.304	793.608
47.228	13.962	1041.534	793.353
48.242	13.929	1039.930	791.907
49.257	14.028	1039.428	791.927
50.271	13.930	1038.815	790.920
51.286	13.926	1037.313	789.690
52.301	14.121	1036.670	790.055
53.315	13.970	1035.745	788.565
54.330	13.977	1035.217	788.127
55.344	13.938	1034.445	787.284
56.359	13.923	1033.032	786.066
57.374	13.889	1032.611	785.517
58.388	13.907	1031.708	784.844
59.403	13.834	1030.765	783.711
60.417	13.859	1030.037	783.207
61.432	13.810	1029.238	782.300
62.447	13.829	1028.384	781.672
63.461	13.874	1027.267	780.963
64.476	13.811	1026.563	780.063
65.490	13.818	1025.682	779.361
66.505	13.849	1024.496	778.537
67.520	13.889	1024.089	778.346
68.534	13.764	1023.720	777.409
69.549	13.853	1022.724	776.998
70.563	13.816	1021.994	776.205
71.578	13.898	1021.554	776.184
72.593	13.873	1020.215	774.981
73.607	13.803	1019.274	773.870
74.622	13.833	1018.207	773.133
75.636	13.671	1017.406	771.702
76.651	13.768	1016.556	771.442
77.666	13.740	1016.066	770.870
78.680	13.769	1015.232	770.304
79.695	13.906	1014.285	770.153
80.709	13.664	1014.393	769.043
81.724	13.666	1013.325	768.176
82.739	13.967	1011.803	768.346
83.753	13.887	1011.507	767.686
84.768	13.825	1010.538	766.596
85.782	14.023	1009.477	766.637
86.797	14.024	1009.016	766.222
87.812	14.040	1008.225	765.625
88.826	13.920	1007.420	764.396
89.841	13.916	1006.654	763.728
90.855	13.876	1006.148	763.092
91.870	13.873	1005.656	762.639
92.884	13.920	1004.799	762.136
93.899	13.999	1003.698	761.594
94.914	14.027	1003.172	761.258
95.928	14.085	1002.169	760.696
96.943	14.001	1001.620	759.828
97.957	13.925	1000.907	758.870
98.972	14.055	999.989	758.700
99.987	14.135	998.691	758.015
101.001	14.138	998.370	757.715
102.016	14.006	997.396	756.309
103.030	13.964	996.714	755.533
104.045	14.063	995.461	754.970
105.060	13.966	994.399	753.657
106.074	14.059	993.516	753.342
107.089	14.038	992.385	752.321
108.103	13.990	992.235	751.925
109.118	13.925	990.904	750.555
110.133	13.971	990.240	750.195
111.147	13.883	989.567	749.219
112.162	13.918	988.122	748.216
113.176	13.882	987.638	747.622
114.191	14.046	986.251	747.247
115.206	14.073	985.260	746.550
116.220	14.003	984.661	745.716
117.235	13.911	984.528	745.137
118.249	14.024	983.555	744.840
119.264	13.999	982.556	743.907
120.279	13.869	981.487	742.448
121.293	13.970	980.581	742.151
122.308	14.074	980.091	742.178
123.322	13.983	978.974	740.861
124.337	13.867	978.115	739.625
125.352	13.905	977.069	738.939
126.366	13.983	975.505	738.036
127.381	13.933	974.849	737.254
128.395	13.906	973.983	736.416
129.410	13.911	972.468	735.226
130.424	13.941	971.864	734.840
131.439	14.039	970.684	734.313
132.454	14.156	969.812	734.104
133.468	13.985	969.201	732.825
134.483	14.086	968.873	732.956
135.497	13.972	967.766	731.554
136.512	14.000	967.302	731.261
137.527	14.061	966.211	730.640
138.541	13.934	965.350	729.366
139.556	14.032	964.529	729.108
140.570	14.060	964.281	728.978
141.585	14.033	963.146	727.939
142.600	14.051	962.612	727.550
143.614	14.053	961.858	726.926
144.629	14.064	961.205	726.417
145.643	14.164	959.985	725.863
146.658	14.179	958.931	725.069
147.673	14.167	958.370	724.527
148.687	14.149	957.220	723.516
149.702	14.121	956.573	722.840
150.716	14.043	956.404	722.310
151.731	14.043	954.860	721.079
152.746	14.139	954.131	720.885
153.760	14.073	953.497	720.057
154.775	14.107	952.636	719.488
155.789	14.061	952.357	719.016
156.804	14.099	951.178	718.225
157.819	14.096	950.395	717.557
158.833	14.263	949.779	717.749
159.848	14.201	949.435	717.160
160.862	14.141	948.526	716.149
161.877	14.291	947.591	716.027
162.892	14.172	946.786	714.842
163.906	14.128	945.946	713.955
164.921	14.137	945.146	713.329
165.935	14.204	944.120	712.778
166.950	14.185	943.078	711.848
167.964	14.436	941.971	712.022
168.979	14.337	941.054	710.840
169.994	14.161	940.105	709.311
171.008	14.294	939.316	709.221
172.023	14.270	938.920	708.755
173.037	14.234	938.135	707.948
174.052	14.246	937.220	707.245
175.067	14.238	936.635	706.706
176.081	14.257	935.956	706.213
177.096	14.277	934.763	705.337
178.110	14.198	934.280	704.576
179.125	14.320	933.488	704.430
180.140	14.334	933.006	704.065
181.154	14.301	932.076	703.160
182.169	14.296	931.447	702.604
183.183	14.414	930.773	702.528
184.198	14.359	930.274	701.858
185.213	14.515	928.996	701.487
186.227	14.430	928.595	700.767
187.242	14.520	928.143	700.740
188.256	14.497	927.501	700.098
189.271	14.448	927.190	699.595
190.286	14.515	926.390	699.211
191.300	14.375	925.629	697.990
192.315	14.402	924.510	697.195
193.329	14.382	923.889	696.583
194.344	14.454	923.452	696.491
195.359	14.442	922.349	695.549
196.373	14.531	922.156	695.713
197.388	14.406	921.776	694.843
198.402	14.611	920.739	694.853
199.417	14.576	920.525	694.484
200.432	14.612	920.191	694.321
201.446	14.678	919.897	694.315
202.461	14.725	919.545	694.183
203.475	14.792	918.315	693.471
204.490	14.737	918.203	693.097
205.504	14.758	917.338	692.467
206.519	14.666	916.400	691.320
207.534	14.532	915.858	690.292
208.548	14.790	914.738	690.453
209.563	14.719	914.411	689.852
210.577	14.725	913.792	689.352
211.592	14.714	912.939	688.601
212.607	14.892	912.239	688.746
213.621	14.765	911.913	687.913
214.636	14.860	911.279	687.766
215.650	14.777	910.922	687.094
216.665	14.931	909.864	686.869
217.680	14.829	909.412	686.049
218.694	15.080	908.733	686.503
219.709	15.002	908.133	685.671
220.723	15.072	907.522	685.435
221.738	15.048	906.740	684.687
222.753	15.076	905.973	684.158
223.767	14.930	905.496	683.144
224.782	15.071	904.617	682.996
225.796	15.052	904.012	682.400
226.811	15.197	903.097	682.239
227.826	15.120	902.399	681.337
228.840	15.079	901.984	680.800
229.855	15.079	901.014	680.004
230.869	15.157	900.666	679.999
231.884	15.068	899.894	678.995
232.899	15.146	898.953	678.541
233.913	15.040	898.505	677.712
234.928	14.997	897.936	677.051
235.942	14.986	897.505	676.621
236.957	15.136	896.372	676.312
237.972	15.100	895.684	675.588
238.986	15.048	895.265	675.005
240.001	14.999	894.750	674.359
241.015	15.138	893.756	674.107
242.030	15.140	893.264	673.687
243.045	15.207	892.653	673.435
244.059	15.333	891.543	673.044
245.074	15.349	891.010	672.647
246.088	15.195	890.691	671.727
247.103	15.235	890.259	671.504
248.117	15.439	889.017	671.322
249.132	15.280	888.770	670.441
250.147	15.322	888.382	670.259
251.161	15.376	887.307	669.604
252.176	15.428	886.575	669.197
253.190	15.494	886.208	669.126
254.205	15.528	885.554	668.708
255.220	15.504	884.830	668.006
256.234	15.567	884.040	667.602
257.249	15.592	883.766	667.437
258.263	15.567	883.184	666.837
259.278	15.486	882.823	666.185
260.293	15.606	881.774	665.808
261.307	15.571	881.321	665.269
262.322	15.648	880.500	664.897
263.336	15.667	879.869	664.435
264.351	15.758	879.326	664.327
265.366	15.729	879.044	663.940
266.380	15.578	878.495	662.870
267.395	15.825	877.280	662.866
268.409	15.922	876.507	662.606
269.424	15.633	876.053	661.069
270.439	15.861	875.368	661.389
271.453	15.698	874.523	660.052
272.468	15.697	874.367	659.873
273.482	15.698	873.593	659.233
274.497	15.804	872.664	658.891
275.512	15.740	872.038	658.106
276.526	15.824	871.131	657.692
277.541	15.786	870.697	657.157
278.555	15.868	869.960	656.865
279.570	15.962	869.429	656.772
280.585	15.852	869.044	655.996
281.599	15.959	868.175	655.699
282.614	15.835	867.918	654.962
283.628	16.093	866.918	655.151
284.643	15.951	866.591	654.298
285.657	15.858	866.404	653.734
286.672	15.918	865.581	653.288
287.687	16.105	865.091	653.587
288.701	16.008	864.885	652.998
289.716	16.042	863.942	652.358
290.730	16.080	863.459	652.084
291.745	16.244	862.636	652.038
292.760	16.164	861.667	650.940
293.774	16.159	861.518	650.750
294.789	16.194	860.518	650.072
295.803	16.131	860.370	649.658
296.818	16.104	859.776	649.050
297.833	16.214	858.835	648.705
298.847	16.200	858.256	648.154
299.862	16.142	858.067	647.734
300.876	16.159	856.783	646.771
301.891	16.160	856.104	646.207
302.906	16.139	855.764	645.813
303.920	16.274	855.079	645.754
304.935	16.362	854.399	645.520
305.949	16.372	853.949	645.162
306.964	16.360	853.455	644.685
307.979	16.307	852.699	643.856
308.993	16.505	851.622	643.738
310.008	16.435	851.637	643.427
311.022	16.472	851.146	643.139
312.037	16.531	850.800	643.046
313.052	16.647	849.896	642.744
314.066	16.526	849.528	641.952
315.081	16.514	848.957	641.418
316.095	16.401	848.432	640.537
317.110	16.480	847.702	640.227
318.125	16.408	847.449	639.708
319.139	16.500	846.748	639.471
320.154	16.418	846.494	638.910
321.168	16.496	845.697	638.549
322.183	16.544	845.147	638.256
323.197	16.485	844.761	637.685
324.212	16.613	844.066	637.586
325.227	16.603	843.368	636.964
326.241	16.538	843.040	636.418
327.256	16.630	842.282	636.134
328.270	16.640	841.913	635.839
329.285	16.582	841.155	634.992
330.300	16.709	840.230	634.711
331.314	16.729	840.061	634.604
332.329	16.683	839.494	633.948
333.343	16.535	838.989	632.956
334.358	16.615	838.529	632.852
335.373	16.641	837.988	632.483
336.387	16.738	837.347	632.306
337.402	16.696	836.840	631.712
338.416	16.744	836.100	631.276
339.431	16.762	835.565	630.884
340.446	16.941	834.467	630.663
341.460	16.916	834.062	630.208
342.475	16.848	833.922	629.793
343.489	17.006	832.689	629.396
344.504	17.093	832.186	629.281
345.519	17.038	831.944	628.838
346.533	16.995	831.472	628.266
347.548	16.973	831.483	628.138
348.562	17.009	830.711	627.633
349.577	17.052	830.418	627.513
350.592	17.054	829.418	626.709
351.606	17.026	829.084	626.299
352.621	17.042	828.767	626.064
353.635	17.113	828.206	625.846
354.650	17.057	827.962	625.400
355.665	17.080	827.599	625.154
356.679	17.002	826.795	624.207
357.694	17.162	826.015	624.148
358.708	17.004	825.963	623.476
359.723	17.159	825.516	623.652
360.738	17.009	824.859	622.550
361.752	17.130	824.468	622.641
362.767	17.232	823.549	622.269
363.781	17.123	823.586	621.840
364.796	17.230	822.871	621.638
365.810	17.356	822.206	621.540
366.825	17.194	822.027	620.757
367.840	17.221	821.737	620.582
368.854	17.323	821.438	620.676
369.869	17.245	820.881	619.913
370.883	17.325	820.377	619.771
371.898	17.354	819.850	619.423
372.913	17.341	819.091	618.748
373.927	17.307	818.200	617.897
374.942	17.418	817.652	617.833
375.956	17.474	816.941	617.441
376.971	17.549	816.370	617.227
377.986	17.396	816.350	616.603
379.000	17.442	815.850	616.338
380.015	17.584	815.360	616.425
381.029	17.662	814.477	615.985
382.044	17.610	813.917	615.321
383.059	17.608	813.539	614.974
384.073	17.710	812.684	614.641
385.088	17.566	812.576	613.984
386.102	17.507	811.983	613.270
387.117	17.559	811.340	612.918
388.132	17.573	810.910	612.588
389.146	17.674	810.326	612.456
390.161	17.563	810.183	611.895
391.175	17.645	809.802	611.848
392.190	17.728	809.197	611.635
393.205	17.725	808.735	611.222
394.219	17.648	808.543	610.746
395.234	17.720	807.341	610.040
396.248	17.584	807.500	609.620
397.263	17.593	807.096	609.294
398.278	17.861	806.225	609.539
399.292	17.720	805.828	608.683
400.307	17.587	805.555	607.949
401.321	17.703	805.239	608.067
402.336	17.886	804.845	608.368
403.350	18.048	804.030	608.275
404.365	17.873	803.921	607.517
405.380	17.592	803.822	606.389
406.394	17.676	802.914	605.949
407.409	18.004	802.138	606.475
408.423	17.870	801.890	605.758
409.438	17.785	801.776	605.316
410.453	17.924	801.103	605.246
411.467	18.001	801.103	605.466
412.482	18.021	800.521	605.045
413.496	17.944	800.078	604.385
414.511	18.091	799.374	604.316
415.526	17.960	799.533	603.920
416.540	18.137	798.950	604.053
417.555	18.139	798.487	603.657
418.569	18.137	797.944	603.187
419.584	18.220	796.992	602.705
420.599	18.170	796.775	602.312
421.613	109.278	1288.663	1461.578
422.628	94.017	1360.288	1461.684
