DTS Sentinel unit serial number:	SN413079Multiplexer serial number:	ORYXHardware model number:	OX4-SRSoftware version number:	ORYX F/W v4.00 Oryx Data Collector v3.7.2.0data status	okinstallation	princeton_trtdifferential loss correction	single-endedforward channel	channel 3reverse channel	N/Adate	2019/09/16time	07:40:34forward acquisition time	60.00reverse acquisition time	0.00gamma	496.2192k internal	0.2332k external	0.2332temperature offset calibration	0.9958default loss term (dB/km)	0.3790temperature slope calibration	1.0000multiplexer offset coefficient	1.0000multiplexer slope coefficient	1.0000fibre end	0.00T internal ref (°C)	27.87T ext. ref 1 (°C)	11.67T ext. ref 2 (°C)	24.62length (m)	temperature (°C)	Stokes	anti-Stokes-747.200	-23.391	0.171	-0.103
-746.185	19.861	-0.067	0.055
-745.171	648.598	0.083	0.213
-744.156	800.000	-0.101	0.299
-743.142	84.751	-0.202	-0.222
-742.127	800.000	0.093	0.316
-741.112	-200.000	0.036	-0.328
-740.098	800.000	0.078	-0.241
-739.083	-17.084	0.075	0.048
-738.069	800.000	-0.060	-0.204
-737.054	800.000	0.056	0.206
-736.039	-53.863	-0.435	0.199
-735.025	-110.166	0.664	-0.139
-734.010	253.934	-0.042	0.073
-732.996	262.028	-0.118	0.206
-731.981	-8.817	-0.118	-0.080
-730.966	-157.754	-0.454	0.027
-729.952	-112.109	0.160	0.032
-728.937	-98.045	0.089	0.023
-727.923	800.000	0.044	-0.132
-726.908	393.667	0.032	-0.067
-725.894	134.797	0.161	-0.210
-724.879	198.034	-0.035	-0.054
-723.864	-136.703	-0.299	-0.035
-722.850	800.000	-0.093	-0.345
-721.835	800.000	0.111	-0.365
-720.821	-18.722	-0.245	-0.154
-719.806	-29.378	-0.256	-0.147
-718.791	37.217	0.263	0.234
-717.777	800.000	0.027	-0.076
-716.762	36.890	0.080	0.071
-715.748	-134.645	0.197	-0.024
-714.733	-66.602	-0.233	0.093
-713.718	-200.000	0.001	-0.064
-712.704	-200.000	0.122	-0.559
-711.689	-200.000	-0.001	-0.138
-710.675	330.506	0.171	0.331
-709.660	-200.000	0.075	0.342
-708.645	-108.108	-0.093	0.020
-707.631	-55.882	0.238	0.107
-706.616	65.683	-0.065	-0.066
-705.602	-8.167	0.400	0.271
-704.587	-113.219	-0.379	0.075
-703.572	800.000	0.083	0.273
-702.558	-85.251	-0.296	0.093
-701.543	375.274	-0.093	0.191
-700.529	-102.388	-0.227	-0.055
-699.514	800.000	0.091	0.341
-698.499	800.000	-0.030	0.087
-697.485	19.728	0.217	0.176
-696.470	-200.000	-0.010	0.124
-695.456	-131.243	-0.391	-0.052
-694.441	-60.842	0.452	0.192
-693.426	-91.500	0.085	-0.024
-692.412	-94.680	-0.264	-0.072
-691.397	-108.482	0.197	0.043
-690.383	150.231	0.135	0.183
-689.368	303.160	-0.163	-0.304
-688.354	-45.797	-0.312	0.155
-687.339	-35.459	0.145	0.079
-686.324	606.944	-0.088	0.221
-685.310	800.000	-0.038	-0.143
-684.295	99.037	-0.068	-0.078
-683.281	-94.599	0.274	-0.075
-682.266	-60.208	-0.140	-0.060
-681.251	-56.799	0.089	0.039
-680.237	-200.000	-0.008	0.085
-679.222	385.196	-0.164	0.339
-678.208	-200.000	-0.001	0.022
-677.193	800.000	-0.039	-0.153
-676.178	-200.000	0.063	-0.285
-675.164	-200.000	0.019	-0.167
-674.149	-200.000	0.052	0.269
-673.135	336.653	0.023	-0.044
-672.120	-95.727	0.264	-0.071
-671.105	-200.000	0.027	-0.210
-670.091	323.428	-0.064	0.122
-669.076	-10.149	0.143	-0.095
-668.062	-200.000	-0.004	-0.136
-667.047	-69.188	-0.128	-0.050
-666.032	163.936	0.254	-0.358
-665.018	-68.726	0.097	-0.038
-664.003	269.672	-0.094	-0.165
-662.989	40.754	-0.154	0.139
-661.974	249.914	0.272	-0.463
-660.959	-200.000	0.032	-0.166
-659.945	161.506	0.170	0.239
-658.930	-99.160	0.278	-0.070
-657.916	1.666	0.315	-0.227
-656.901	-200.000	0.023	-0.485
-655.886	-53.354	0.423	0.194
-654.872	9.525	-0.105	0.080
-653.857	309.753	-0.066	0.123
-652.843	-200.000	-0.002	0.035
-651.828	-180.831	0.365	0.007
-650.814	-80.417	-0.390	-0.131
-649.799	-5.504	-0.082	0.056
-648.784	367.609	-0.017	0.035
-647.770	475.874	-0.063	-0.142
-646.755	237.732	-0.030	-0.049
-645.741	56.601	0.118	0.115
-644.726	-22.119	-0.098	-0.060
-643.711	-200.000	0.000	-0.206
-642.697	-200.000	-0.012	-0.187
-641.682	-128.112	-0.202	0.029
-640.668	395.857	-0.134	-0.280
-639.653	3.426	0.050	0.037
-638.638	800.000	0.010	0.038
-637.624	73.485	0.121	-0.127
-636.609	-6.427	0.222	0.151
-635.595	-9.272	-0.110	-0.073
-634.580	144.126	-0.152	0.203
-633.565	-200.000	0.004	-0.172
-632.551	800.000	0.017	-0.067
-631.536	-200.000	0.041	-0.325
-630.522	-55.111	0.138	0.062
-629.507	-97.659	-0.094	0.024
-628.492	-173.119	-0.247	0.008
-627.478	800.000	-0.035	-0.143
-626.463	-112.335	0.119	-0.024
-625.449	171.095	0.153	-0.220
-624.434	296.721	0.078	-0.144
-623.419	192.580	0.094	-0.142
-622.405	-200.000	-0.016	-0.111
-621.390	-200.000	0.007	0.193
-620.376	-46.181	-0.101	0.050
-619.361	800.000	0.019	0.055
-618.346	800.000	0.054	0.177
-617.332	-45.293	-0.196	0.097
-616.317	191.667	0.167	0.252
-615.303	105.015	-0.230	-0.272
-614.288	-68.849	-0.262	0.101
-613.273	106.295	-0.086	0.102
-612.259	-106.411	0.114	0.026
-611.244	105.707	0.246	-0.292
-610.230	546.952	-0.129	0.309
-609.215	-152.594	0.404	-0.029
-608.201	-85.833	0.392	0.122
-607.186	800.000	-0.068	0.206
-606.171	-118.419	0.283	-0.050
-605.157	145.278	-0.210	0.281
-604.142	49.938	-0.218	-0.205
-603.128	92.469	0.108	0.121
-602.113	180.914	-0.084	0.123
-601.098	-200.000	-0.042	-0.252
-600.084	42.980	-0.249	-0.227
-599.069	-200.000	-0.019	0.222
-598.055	-3.114	0.164	-0.115
-597.040	-48.569	0.183	0.088
-596.025	-125.384	0.219	-0.033
-595.011	800.000	-0.053	0.166
-593.996	60.969	0.153	0.152
-592.982	-46.097	-0.034	-0.017
-591.967	39.782	-0.135	-0.121
-590.952	22.090	0.281	-0.229
-589.938	-89.145	0.208	0.061
-588.923	-177.814	-0.172	-0.004
-587.909	148.518	-0.249	0.337
-586.894	104.589	0.347	-0.408
-585.879	109.372	0.093	0.111
-584.865	-185.743	0.031	0.000
-583.850	-110.442	-0.397	-0.082
-582.836	568.347	-0.093	-0.226
-581.821	-184.255	0.313	-0.005
-580.806	222.308	-0.132	-0.213
-579.792	-173.225	0.038	-0.001
-578.777	-193.614	0.154	-0.001
-577.763	494.449	0.077	0.177
-576.748	-101.542	-0.163	-0.040
-575.733	-119.801	-0.155	0.027
-574.719	-132.533	-0.201	0.026
-573.704	-117.472	0.125	-0.023
-572.690	-200.000	-0.014	-0.122
-571.675	800.000	0.070	0.288
-570.661	330.624	-0.185	-0.355
-569.646	12.866	0.152	0.118
-568.631	164.358	0.194	0.273
-567.617	135.257	-0.068	0.088
-566.602	-87.578	-0.018	-0.005
-565.588	-69.904	-0.157	0.060
-564.573	10.613	0.139	-0.106
-563.558	165.348	0.098	-0.139
-562.544	211.643	0.209	0.329
-561.529	-192.272	0.044	-0.000
-560.515	-64.407	-0.149	0.060
-559.500	49.231	0.204	-0.192
-558.485	45.629	-0.277	0.255
-557.471	-150.915	-0.275	-0.021
-556.456	530.118	0.046	-0.109
-555.442	800.000	-0.096	-0.319
-554.427	440.675	-0.023	0.051
-553.412	-200.000	0.088	-0.464
-552.398	73.386	0.231	0.241
-551.383	3.897	0.062	0.045
-550.369	-149.030	0.160	-0.013
-549.354	339.628	-0.056	0.109
-548.339	-30.541	0.255	-0.145
-547.325	-145.502	-0.045	0.004
-546.310	113.265	0.185	-0.224
-545.296	108.814	-0.079	0.094
-544.281	682.579	-0.076	0.197
-543.266	126.578	0.098	-0.124
-542.252	411.983	0.032	-0.068
-541.237	168.573	-0.121	-0.172
-540.223	100.567	-0.198	0.230
-539.208	-112.524	0.136	0.027
-538.193	292.650	0.149	-0.272
-537.179	-200.000	0.061	0.328
-536.164	800.000	-0.087	-0.272
-535.150	-200.000	-0.047	-0.370
-534.135	229.238	0.185	0.301
-533.121	-91.600	-0.255	-0.072
-532.106	-164.847	-0.268	-0.012
-531.091	55.498	-0.119	-0.115
-530.077	-156.251	-0.253	-0.016
-529.062	583.981	-0.053	-0.129
-528.048	-89.771	-0.360	0.105
-527.033	-78.891	0.241	-0.082
-526.018	455.498	0.120	-0.266
-525.004	216.276	0.192	0.305
-523.989	-140.610	-0.174	0.018
-522.975	58.108	-0.204	-0.199
-521.960	171.294	-0.146	-0.209
-520.945	-36.857	-0.064	-0.034
-519.931	-155.701	0.067	-0.004
-518.916	-108.401	-0.413	0.089
-517.902	-94.957	-0.205	0.055
-516.887	-200.000	0.014	0.161
-515.872	37.638	0.128	-0.113
-514.858	-23.198	-0.130	0.078
-513.843	293.021	-0.029	-0.053
-512.829	-82.581	0.119	0.038
-511.814	-200.000	-0.028	0.182
-510.799	-200.000	-0.021	-0.219
-509.785	165.199	0.151	-0.213
-508.770	-200.000	-0.026	-0.269
-507.756	438.869	0.152	0.331
-506.741	384.078	-0.061	0.126
-505.726	464.193	-0.106	-0.235
-504.712	-200.000	-0.064	0.334
-503.697	800.000	0.052	0.173
-502.683	213.837	-0.076	-0.119
-501.668	124.552	-0.255	0.320
-500.653	-16.722	-0.019	0.012
-499.639	-160.393	0.365	-0.020
-498.624	-200.000	0.013	-0.241
-497.610	-200.000	-0.036	-0.165
-496.595	-200.000	0.018	0.147
-495.581	623.455	0.021	0.052
-494.566	800.000	0.125	-0.428
-493.551	-200.000	-0.030	-0.310
-492.537	-111.132	0.152	-0.031
-491.522	-65.398	-0.268	0.108
-490.508	-87.730	0.149	0.045
-489.493	26.295	0.239	0.199
-488.478	85.657	-0.028	-0.030
-487.464	-63.132	-0.165	-0.068
-486.449	-104.255	-0.278	-0.064
-485.435	176.492	0.104	-0.151
-484.420	-4.807	-0.392	0.269
-483.405	-65.948	0.117	0.046
-482.391	-105.453	-0.441	0.100
-481.376	177.970	0.140	0.203
-480.362	6.038	-0.110	-0.081
-479.347	-63.929	0.131	-0.053
-478.332	242.687	0.027	0.046
-477.318	-200.000	-0.028	0.239
-476.303	24.736	-0.277	0.229
-475.289	9.173	0.172	0.130
-474.274	-200.000	0.007	-0.125
-473.259	174.024	-0.162	0.233
-472.245	1.066	0.145	0.103
-471.230	276.359	-0.063	-0.111
-470.216	54.849	-0.204	0.196
-469.201	-23.666	0.401	-0.239
-468.186	-123.348	-0.153	-0.024
-467.172	800.000	0.064	0.254
-466.157	105.306	0.083	-0.097
-465.143	-93.610	-0.267	0.073
-464.128	-118.642	0.083	0.015
-463.113	-200.000	0.017	-0.130
-462.099	-200.000	0.001	-0.107
-461.084	29.081	0.053	0.045
-460.070	-75.938	0.046	-0.016
-459.055	-8.326	0.083	0.055
-458.040	-16.658	-0.197	-0.124
-457.026	115.592	-0.153	-0.187
-456.011	400.934	-0.106	0.221
-454.997	237.181	-0.151	0.249
-453.982	-23.729	0.282	0.168
-452.968	-200.000	-0.007	0.058
-451.953	-5.632	0.148	0.101
-450.938	2.024	0.217	-0.156
-449.924	12.812	0.160	0.123
-448.909	-103.411	0.476	0.112
-447.895	333.606	-0.062	0.120
-446.880	563.750	-0.104	-0.250
-445.865	250.156	0.161	-0.272
-444.851	560.069	0.133	0.318
-443.836	-200.000	0.035	0.194
-442.822	800.000	0.023	0.074
-441.807	-200.000	0.058	0.413
-440.792	-200.000	-0.005	0.129
-439.778	779.923	0.106	0.290
-438.763	18.186	0.052	0.041
-437.749	-18.909	-0.264	0.164
-436.734	-168.888	-0.178	-0.007
-435.719	-123.089	-0.261	0.042
-434.705	-200.000	0.017	-0.251
-433.690	800.000	-0.046	0.157
-432.676	223.976	0.084	0.135
-431.661	800.000	-0.040	0.123
-430.646	-126.076	-0.207	0.031
-429.632	212.237	0.080	0.125
-428.617	-7.168	0.186	-0.125
-427.603	7.077	-0.168	-0.125
-426.588	-109.439	-0.100	-0.021
-425.573	-114.746	0.128	-0.024
-424.559	-200.000	-0.043	0.211
-423.544	800.000	0.046	0.148
-422.530	63.774	0.144	0.144
-421.515	-200.000	-0.003	0.064
-420.500	653.272	-0.147	-0.375
-419.486	152.479	0.183	0.248
-418.471	639.974	-0.063	0.158
-417.457	-126.679	-0.316	-0.047
-416.442	331.175	-0.093	0.177
-415.428	52.051	-0.099	0.094
-414.413	-200.000	0.007	-0.220
-413.398	171.750	-0.120	0.172
-412.384	-200.000	0.008	-0.209
-411.369	69.254	0.241	-0.246
-410.355	126.841	-0.151	0.191
-409.340	-200.000	-0.060	-0.353
-408.325	-75.134	0.120	0.042
-407.311	131.269	0.086	0.110
-406.296	-200.000	0.022	-0.452
-405.282	-62.168	0.314	0.130
-404.267	-15.295	0.324	0.206
-403.252	-107.958	0.543	-0.117
-402.238	161.138	-0.209	0.290
-401.223	-200.000	0.025	-0.244
-400.209	172.955	-0.061	0.087
-399.194	605.063	-0.043	-0.106
-398.179	762.670	0.030	0.080
-397.165	333.327	0.130	-0.249
-396.150	368.900	0.078	-0.156
-395.136	-200.000	-0.030	-0.132
-394.121	-28.897	-0.244	0.139
-393.106	800.000	-0.104	0.336
-392.092	-65.884	-0.080	0.032
-391.077	800.000	-0.051	-0.198
-390.063	32.812	-0.138	-0.118
-389.048	-73.914	-0.158	-0.057
-388.033	381.151	-0.097	0.197
-387.019	49.625	-0.124	0.116
-386.004	113.054	0.178	-0.215
-384.990	88.230	-0.326	-0.359
-383.975	52.775	-0.308	-0.292
-382.960	-200.000	-0.006	-0.085
-381.946	-6.547	-0.078	-0.053
-380.931	99.532	-0.053	-0.061
-379.917	571.833	0.075	-0.180
-378.902	-200.000	-0.041	0.207
-377.888	-85.427	-0.220	0.068
-376.873	128.248	0.249	-0.315
-375.858	800.000	-0.100	0.424
-374.844	800.000	-0.014	0.059
-373.829	-195.823	0.170	0.001
-372.815	800.000	0.046	-0.187
-371.800	-47.380	0.387	0.187
-370.785	-200.000	0.007	-0.311
-369.771	-37.340	0.197	-0.104
-368.756	385.757	-0.167	-0.341
-367.742	83.826	0.170	-0.184
-366.727	-26.094	0.107	0.062
-365.712	-200.000	0.057	-0.272
-364.698	796.780	-0.079	0.216
-363.683	-88.535	-0.195	-0.058
-362.669	736.092	0.073	0.194
-361.654	183.329	-0.125	-0.183
-360.639	42.470	-0.150	-0.135
-359.625	800.000	0.018	-0.072
-358.610	37.958	-0.272	0.240
-357.596	-179.078	0.506	-0.011
-356.581	-180.320	0.302	0.006
-355.566	637.975	-0.111	-0.281
-354.552	800.000	0.032	-0.138
-353.537	-55.074	-0.219	-0.098
-352.523	24.040	0.180	0.147
-351.508	16.942	-0.054	0.043
-350.493	-85.497	-0.295	0.091
-349.479	-175.444	-0.202	-0.005
-348.464	-60.625	-0.384	-0.161
-347.450	356.366	0.033	-0.065
-346.435	51.589	0.282	0.265
-345.420	136.459	0.275	-0.356
-344.406	134.097	-0.063	0.081
-343.391	722.278	-0.084	-0.221
-342.377	18.171	0.098	0.077
-341.362	-66.254	-0.051	-0.020
-340.348	-200.000	-0.037	-0.411
-339.333	10.668	0.090	-0.068
-338.318	-63.546	0.321	0.130
-337.304	-200.000	0.008	-0.176
-336.289	69.016	0.194	-0.198
-335.275	800.000	-0.029	0.086
-334.260	-79.268	-0.074	0.025
-333.245	-6.268	-0.121	-0.082
-332.231	-90.547	-0.118	-0.034
-331.216	-163.447	0.268	0.013
-330.202	370.338	-0.251	-0.504
-329.187	-200.000	-0.289	-0.000
-328.172	179.327	0.115	-0.167
-327.158	-103.614	0.221	0.051
-326.143	-142.035	-0.182	-0.018
-325.129	-200.000	0.000	0.245
-324.114	800.000	-0.120	-0.329
-323.099	6.387	0.187	0.137
-322.085	2.055	0.301	-0.215
-321.070	-135.501	-0.269	0.032
-320.056	-133.624	0.079	0.010
-319.041	19.188	-0.173	-0.137
-318.026	-28.152	0.064	0.037
-317.012	-137.667	-0.293	0.033
-315.997	256.197	-0.049	0.083
-314.983	-200.000	-0.007	0.059
-313.968	-17.160	-0.111	0.069
-312.953	-200.000	-0.019	0.242
-311.939	-200.000	0.031	-0.267
-310.924	-200.000	-0.023	0.123
-309.910	46.818	-0.281	0.258
-308.895	55.281	0.091	0.088
-307.880	6.906	-0.121	0.089
-306.866	-24.674	0.097	-0.057
-305.851	138.970	0.141	0.183
-304.837	-80.278	-0.315	-0.104
-303.822	-96.125	-0.326	0.086
-302.807	95.213	-0.206	-0.232
-301.793	-64.566	0.339	-0.136
-300.778	40.979	0.111	-0.099
-299.764	-181.089	0.219	0.004
-298.749	753.295	-0.035	-0.095
-297.735	-136.719	-0.191	-0.022
-296.720	-57.306	0.059	0.026
-295.705	-200.000	0.037	-0.282
-294.691	800.000	-0.056	-0.189
-293.676	39.928	0.066	-0.059
-292.662	300.196	0.097	0.176
-291.647	9.794	0.176	0.132
-290.632	-174.966	0.794	0.022
-289.618	-2.320	-0.177	0.123
-288.603	423.768	-0.267	0.567
-287.589	-119.621	-0.173	0.030
-286.574	-12.053	-0.074	0.048
-285.559	-43.173	-0.303	0.152
-284.545	43.249	-0.365	0.329
-283.530	-33.531	0.332	0.181
-282.516	114.517	-0.022	0.026
-281.501	-200.000	-0.002	0.025
-280.486	-200.000	-0.071	0.363
-279.472	373.111	-0.092	-0.185
-278.457	-25.627	-0.126	-0.074
-277.443	-132.185	0.516	-0.066
-276.428	-200.000	-0.039	0.337
-275.413	28.058	0.163	-0.136
-274.399	-200.000	-0.032	0.210
-273.384	-199.160	-0.089	0.000
-272.370	-9.413	-0.257	-0.169
-271.355	-182.962	0.158	-0.003
-270.340	-20.639	0.137	0.083
-269.326	800.000	0.075	-0.204
-268.311	-34.076	-0.320	-0.174
-267.297	106.716	0.166	-0.194
-266.282	233.402	0.110	-0.179
-265.267	-200.000	0.042	-0.279
-264.253	7.865	-0.317	-0.234
-263.238	376.256	0.051	-0.102
-262.224	9.815	-0.116	0.087
-261.209	38.361	-0.034	-0.030
-260.195	-200.000	0.023	0.267
-259.180	75.496	0.124	0.129
-258.165	98.723	0.115	-0.131
-257.151	-200.000	-0.223	-0.001
-256.136	-70.290	-0.327	-0.122
-255.122	-200.000	-0.009	0.097
-254.107	101.208	0.100	0.115
-253.092	-27.305	0.295	-0.169
-252.078	-200.000	0.026	0.158
-251.063	800.000	0.010	-0.035
-250.049	-133.430	0.132	0.016
-249.034	18.573	0.198	0.156
-248.019	-200.000	-0.037	-0.219
-247.005	-200.000	0.031	0.398
-245.990	-200.000	0.038	0.251
-244.976	124.923	0.215	-0.268
-243.961	55.037	0.132	0.126
-242.946	-200.000	-0.018	0.120
-241.932	-200.000	-0.021	0.098
-240.917	-132.609	-0.204	-0.026
-239.903	-113.971	0.228	0.044
-238.888	-200.000	-0.003	0.389
-237.873	-119.425	0.135	-0.023
-236.859	-9.806	-0.118	-0.078
-235.844	800.000	-0.100	0.301
-234.830	-112.833	-0.171	0.033
-233.815	-127.178	-0.098	0.014
-232.800	-200.000	0.035	0.168
-231.786	-200.000	0.005	-0.024
-230.771	-104.658	-0.078	-0.018
-229.757	42.883	0.082	0.073
-228.742	-130.151	-0.170	-0.023
-227.727	-14.760	0.207	-0.131
-226.713	-1.869	0.165	0.114
-225.698	-31.465	0.189	0.105
-224.684	-57.545	-0.094	-0.041
-223.669	-43.469	-0.085	-0.043
-222.655	404.442	0.135	-0.281
-221.640	-47.116	-0.213	0.102
-220.625	-72.350	0.187	-0.068
-219.611	-10.711	-0.086	-0.056
-218.596	17.546	0.114	-0.089
-217.582	-200.000	0.028	0.146
-216.567	180.499	0.181	0.263
-215.552	-82.907	0.247	-0.079
-214.538	89.099	0.172	-0.189
-213.523	800.000	-0.076	-0.264
-212.509	-56.431	-0.098	0.043
-211.494	-102.522	-0.293	-0.069
-210.479	800.000	0.081	-0.296
-209.465	174.241	0.143	-0.204
-208.450	-52.930	0.497	0.225
-207.436	-122.843	-0.325	-0.052
-206.421	11.131	0.150	0.113
-205.406	800.000	0.024	-0.069
-204.392	-31.982	0.203	-0.112
-203.377	800.000	0.106	0.370
-202.363	-72.066	-0.469	0.172
-201.348	-80.406	0.399	-0.131
-200.333	45.247	-0.176	0.160
-199.319	-200.000	-0.023	0.303
-198.304	-51.161	-0.154	0.071
-197.290	235.992	0.115	0.187
-196.275	-86.155	0.380	0.115
-195.260	-26.472	-0.151	0.087
-194.246	-200.000	-0.001	-0.099
-193.231	329.893	-0.164	-0.311
-192.217	454.910	-0.100	-0.219
-191.202	-96.869	0.542	-0.140
-190.187	719.853	-0.114	-0.299
-189.173	-23.154	-0.130	-0.077
-188.158	-125.353	0.369	0.055
-187.144	335.468	0.165	0.315
-186.129	14.722	0.126	0.097
-185.114	-161.927	0.119	-0.006
-184.100	-25.674	0.089	0.051
-183.085	317.182	-0.126	0.234
-182.071	-95.202	-0.308	-0.082
-181.056	29.759	0.023	0.019
-180.042	174.808	-0.137	-0.195
-179.027	-170.611	0.161	0.006
-178.012	-26.663	0.004	0.003
-176.998	121.690	0.066	-0.081
-175.983	-124.962	-0.347	-0.053
-174.969	10.315	-0.092	0.069
-173.954	-160.250	-0.426	-0.023
-172.939	207.515	0.081	0.124
-171.925	289.310	0.140	0.249
-170.910	103.520	0.082	-0.094
-169.896	201.790	-0.099	0.151
-168.881	-156.100	0.129	0.008
-167.866	-106.221	-0.128	-0.028
-166.852	-200.000	-0.009	0.040
-165.837	170.561	-0.082	0.116
-164.823	20.457	-0.173	-0.138
-163.808	-127.302	0.214	0.031
-162.793	-31.911	0.236	0.130
-161.779	800.000	-0.050	0.187
-160.764	-200.000	0.001	-0.174
-159.750	47.419	-0.123	-0.113
-158.735	-34.042	-0.367	0.198
-157.720	407.277	0.105	-0.218
-156.706	200.373	-0.071	-0.107
-155.691	324.370	0.180	0.338
-154.677	232.457	0.068	-0.110
-153.662	-177.939	0.033	0.001
-152.647	-138.685	-0.185	0.020
-151.633	260.456	0.220	0.375
-150.618	-14.884	0.153	0.096
-149.604	376.354	-0.129	-0.258
-148.589	610.987	-0.128	-0.315
-147.574	4.442	0.073	-0.052
-146.560	99.316	0.223	0.253
-145.545	539.459	-0.139	0.325
-144.531	-200.000	-0.012	-0.052
-143.516	-50.193	-0.018	-0.008
-142.502	-7.773	0.104	-0.069
-141.487	-200.000	0.006	-0.044
-140.472	19.676	0.201	-0.159
-139.458	-138.089	0.276	0.030
-138.443	-60.689	-0.390	-0.163
-137.429	26.800	0.270	-0.222
-136.414	4.988	-0.122	-0.088
-135.399	759.509	-0.067	-0.180
-134.385	341.378	0.162	0.311
-133.370	300.511	-0.082	0.149
-132.356	-200.000	0.043	-0.431
-131.341	-2.325	0.111	-0.076
-130.326	800.000	-0.053	-0.142
-129.312	159.084	-0.138	-0.189
-128.297	-70.363	-0.247	-0.092
-127.283	800.000	0.042	-0.115
-126.268	10.396	-0.148	-0.110
-125.253	183.833	0.190	-0.276
-124.239	28.495	0.175	-0.145
-123.224	114.372	-0.139	-0.166
-122.210	19.742	0.085	0.067
-121.195	12.797	0.137	0.104
-120.180	-3.695	0.313	0.214
-119.166	-59.456	0.117	-0.049
-118.151	124.672	0.078	-0.096
-117.137	-200.000	-0.038	-0.231
-116.122	658.645	0.091	-0.230
-115.107	116.557	-0.231	-0.278
-114.093	428.349	0.102	0.215
-113.078	-58.476	-0.091	-0.039
-112.064	24.496	-0.250	-0.203
-111.049	-200.000	-0.006	0.102
-110.034	32.599	-0.128	-0.108
-109.020	-75.068	0.079	0.028
-108.005	-200.000	0.031	0.339
-106.991	406.443	0.071	0.147
-105.976	-66.196	-0.055	-0.022
-104.962	-53.565	0.225	-0.101
-103.947	59.482	-0.145	0.140
-102.932	64.813	0.122	-0.121
-101.918	-200.000	-0.002	0.028
-100.903	6.787	-0.212	-0.155
-99.889	507.390	0.110	0.251
-98.874	283.173	-0.108	0.191
-97.859	515.371	0.072	0.165
-96.845	-97.677	0.344	0.087
-95.830	-50.424	-0.448	0.208
-94.816	-36.158	0.313	-0.166
-93.801	389.204	0.132	0.268
-92.786	459.528	-0.095	-0.208
-91.772	-75.686	-0.118	-0.041
-90.757	-35.441	0.261	-0.139
-89.743	722.023	-0.166	0.434
-88.728	800.000	-0.037	0.134
-87.713	-143.723	-0.391	0.036
-86.699	-146.039	0.397	0.034
-85.684	3.422	0.135	0.097
-84.670	744.411	-0.024	-0.063
-83.655	-200.000	0.004	-0.145
-82.640	-63.017	0.249	0.101
-81.626	-69.040	-0.212	0.080
-80.611	-104.148	0.301	0.069
-79.597	-200.000	-0.003	-0.033
-78.582	800.000	-0.062	-0.187
-77.567	-8.740	0.203	0.133
-76.553	110.103	-0.239	-0.281
-75.538	-128.236	0.148	-0.021
-74.524	302.458	-0.056	-0.102
-73.509	155.351	-0.067	-0.090
-72.494	-190.313	0.154	0.002
-71.480	68.917	0.135	-0.136
-70.465	58.240	0.136	-0.130
-69.451	-45.802	0.203	0.098
-68.436	-97.320	-0.235	-0.060
-67.422	-147.143	-0.204	-0.017
-66.407	72.897	0.203	-0.208
-65.392	-117.508	-0.240	-0.043
-64.378	-163.960	0.172	-0.008
-63.363	-72.969	0.055	0.020
-62.349	-156.313	0.550	-0.034
-61.334	70.468	-0.968	-0.980
-60.319	-50.330	0.603	0.279
-59.305	741.164	-0.420	-1.104
-58.290	321.039	0.665	1.239
-57.276	637.332	0.685	1.705
-56.261	-200.000	110.635	607.793
-55.246	444.640	1511.593	3249.378
-54.232	145.425	2686.866	3523.501
-53.217	102.569	2185.729	2503.689
-52.203	38.108	1713.207	1492.757
-51.188	31.026	1530.557	1284.964
-50.173	28.617	1505.587	1247.599
-49.159	50.623	1562.184	1447.516
-48.144	50.419	1578.908	1461.539
-47.130	31.242	1535.409	1290.330
-46.115	28.210	1520.144	1256.668
-45.100	28.015	1516.642	1252.384
-44.086	27.955	1515.284	1250.807
-43.071	27.869	1513.097	1248.362
-42.057	27.818	1511.598	1246.727
-41.042	27.907	1510.000	1245.964
-40.027	27.841	1509.000	1244.641
-39.013	27.829	1506.945	1242.819
-37.998	27.796	1505.915	1241.691
-36.984	27.812	1504.961	1240.966
-35.969	27.856	1503.224	1239.782
-34.954	27.821	1501.528	1238.100
-33.940	27.809	1500.073	1236.769
-32.925	27.869	1498.810	1236.080
-31.911	27.921	1497.474	1235.281
-30.896	27.872	1496.466	1234.074
-29.881	27.945	1494.900	1233.222
-28.867	27.937	1493.467	1231.944
-27.852	27.902	1492.581	1230.925
-26.838	27.960	1491.220	1230.146
-25.823	27.915	1489.331	1228.233
-24.809	27.884	1487.881	1226.782
-23.794	27.903	1486.329	1225.581
-22.779	27.948	1484.847	1224.612
-21.765	27.889	1484.717	1224.062
-20.750	27.992	1483.037	1223.317
-19.736	27.994	1481.828	1222.282
-18.721	27.916	1481.142	1221.150
-17.706	27.874	1479.693	1219.622
-16.692	27.919	1479.023	1219.323
-15.677	27.939	1477.942	1218.516
-14.663	27.927	1476.573	1217.263
-13.648	27.806	1475.636	1215.638
-12.633	27.822	1474.576	1214.818
-11.619	27.890	1473.920	1214.685
-10.604	27.839	1473.221	1213.719
-9.590	27.862	1472.078	1212.882
-8.575	27.790	1471.791	1212.123
-7.560	27.921	1470.521	1211.893
-6.546	27.833	1469.839	1210.702
-5.531	27.799	1469.064	1209.792
-4.517	27.737	1467.982	1208.440
-3.502	27.835	1466.804	1208.069
-2.487	27.865	1465.894	1207.469
-1.473	27.812	1465.072	1206.397
-0.458	27.822	1463.179	1204.858
0.556	26.513	1454.090	1195.576
1.571	24.264	1429.997	1161.029
2.586	21.312	1370.976	1094.554
3.600	19.897	1287.242	1019.282
4.615	18.927	1241.272	977.283
5.629	18.116	1187.543	930.484
6.644	14.979	1111.088	854.505
7.659	12.152	1076.070	813.498
8.673	11.781	1070.922	807.703
9.688	11.647	1067.684	804.532
10.702	11.587	1066.123	802.988
11.717	11.675	1064.127	801.848
12.731	12.866	1064.448	807.855
13.746	16.082	1067.624	825.976
14.761	18.119	1069.691	837.489
15.775	17.967	1069.086	836.197
16.790	17.171	1066.569	830.269
17.804	16.014	1064.141	822.659
18.819	15.095	1062.692	816.982
19.834	14.575	1061.362	813.354
20.848	14.258	1060.579	811.135
21.863	14.017	1059.595	809.139
22.877	13.740	1058.717	807.051
23.892	13.639	1057.511	805.568
24.907	13.527	1057.075	804.622
25.921	13.591	1056.235	804.224
26.936	13.554	1055.701	803.562
27.950	13.575	1054.400	802.605
28.965	13.668	1052.933	801.867
29.980	13.825	1051.934	801.795
30.994	13.738	1051.168	800.718
32.009	13.862	1049.916	800.292
33.023	13.886	1049.291	799.858
34.038	13.771	1048.792	798.858
35.053	13.757	1047.488	797.727
36.067	13.777	1046.433	796.945
37.082	13.655	1045.431	795.528
38.096	13.747	1044.617	795.279
39.111	13.782	1044.111	794.990
40.126	13.903	1042.614	794.361
41.140	13.698	1042.558	793.264
42.155	13.708	1040.631	791.779
43.169	13.563	1040.178	790.670
44.184	13.490	1038.958	789.327
45.199	13.534	1037.750	788.547
46.213	13.637	1036.623	788.113
47.228	13.600	1035.611	787.098
48.242	13.597	1035.042	786.581
49.257	13.563	1034.254	785.750
50.271	13.629	1033.022	785.060
51.286	13.683	1031.927	784.409
52.301	13.743	1031.440	784.253
53.315	13.623	1030.627	783.002
54.330	13.655	1029.876	782.510
55.344	13.605	1029.010	781.549
56.359	13.587	1027.648	780.359
57.374	13.596	1026.659	779.581
58.388	13.746	1025.742	779.521
59.403	13.491	1025.497	778.070
60.417	13.524	1024.367	777.296
61.432	13.471	1023.842	776.584
62.447	13.466	1023.162	775.977
63.461	13.458	1022.401	775.289
64.476	13.360	1021.421	774.020
65.490	13.321	1021.080	773.514
66.505	13.504	1019.345	772.983
67.520	13.447	1019.123	772.482
68.534	13.500	1018.377	772.093
69.549	13.412	1017.302	770.802
70.563	13.457	1016.963	770.683
71.578	13.612	1015.770	770.432
72.593	13.498	1014.906	769.180
73.607	13.359	1013.959	767.751
74.622	13.473	1012.878	767.392
75.636	13.417	1012.171	766.530
76.651	13.437	1011.246	765.851
77.666	13.371	1010.681	765.053
78.680	13.461	1009.633	764.609
79.695	13.484	1009.470	764.520
80.709	13.508	1008.490	763.823
81.724	13.377	1008.097	762.853
82.739	13.533	1006.835	762.551
83.753	13.464	1006.474	761.891
84.768	13.627	1005.458	761.802
85.782	13.752	1004.801	761.815
86.797	13.822	1004.143	761.566
87.812	13.692	1003.283	760.251
88.826	13.701	1002.287	759.470
89.841	13.618	1001.607	758.509
90.855	13.765	1000.886	758.568
91.870	13.675	999.917	757.355
92.884	13.819	999.384	757.540
93.899	13.604	999.088	756.267
94.914	13.877	997.685	756.382
95.928	13.920	996.518	755.629
96.943	14.017	995.947	755.572
97.957	13.810	995.199	753.996
98.972	13.753	994.800	753.369
99.987	13.681	993.957	752.333
101.001	13.726	993.018	751.760
102.016	13.813	992.009	751.328
103.030	13.701	991.213	750.149
104.045	13.828	990.131	749.836
105.060	13.743	989.372	748.813
106.074	13.754	987.834	747.634
107.089	13.633	987.592	746.836
108.103	13.554	986.625	745.684
109.118	13.566	985.639	744.926
110.133	13.543	984.694	744.045
111.147	13.667	983.848	743.896
112.162	13.466	983.394	742.584
113.176	13.547	982.074	741.885
114.191	13.570	981.092	741.181
115.206	13.712	980.325	741.169
116.220	13.638	979.641	740.256
117.235	13.634	978.731	739.488
118.249	13.619	977.782	738.639
119.264	13.635	976.748	737.861
120.279	13.503	976.785	737.238
121.293	13.540	975.806	736.598
122.308	13.619	974.538	735.924
123.322	13.520	973.674	734.768
124.337	13.433	972.720	733.598
125.352	13.486	971.974	733.208
126.366	13.401	971.119	732.118
127.381	13.495	969.397	731.174
128.395	13.458	968.417	730.203
129.410	13.541	967.435	729.768
130.424	13.521	966.671	729.036
131.439	13.489	966.279	728.535
132.454	13.479	965.539	727.870
133.468	13.623	964.682	727.794
134.483	13.600	963.800	726.959
135.497	13.645	962.862	726.388
136.512	13.651	962.309	725.931
137.527	13.519	961.792	724.898
138.541	13.669	960.607	724.596
139.556	13.574	959.983	723.648
140.570	13.649	959.304	723.402
141.585	13.537	958.836	722.493
142.600	13.687	957.856	722.343
143.614	13.788	957.156	722.193
144.629	13.773	956.337	721.445
145.643	13.835	955.427	720.963
146.658	13.826	954.417	720.098
147.673	13.859	953.372	719.393
148.687	13.799	952.761	718.604
149.702	13.711	952.136	717.690
150.716	13.680	950.781	716.471
151.731	13.819	949.462	716.012
152.746	13.752	949.331	715.565
153.760	13.819	948.859	715.432
154.775	13.785	948.076	714.634
155.789	13.783	947.547	714.162
156.804	13.871	946.566	713.737
157.819	13.878	945.402	712.827
158.833	13.974	945.066	712.922
159.848	13.913	944.582	712.234
160.862	13.954	943.533	711.556
161.877	13.936	942.781	710.849
162.892	13.816	942.399	709.984
163.906	13.686	941.536	708.715
164.921	13.764	940.479	708.187
165.935	13.832	939.554	707.720
166.950	13.825	938.401	706.757
167.964	13.812	937.723	706.132
168.979	13.940	936.254	705.508
169.994	13.904	935.237	704.526
171.008	13.843	934.814	703.884
172.023	13.934	933.681	703.354
173.037	13.754	933.473	702.374
174.052	14.021	932.231	702.507
175.067	13.974	931.726	701.864
176.081	13.964	931.166	701.337
177.096	13.894	930.261	700.300
178.110	13.921	929.098	699.475
179.125	13.863	928.568	698.768
180.140	14.019	927.807	698.793
181.154	13.906	927.410	697.955
182.169	13.816	926.979	697.190
183.183	14.122	925.657	697.418
184.198	14.152	925.268	697.189
185.213	14.008	924.747	696.133
186.227	14.124	923.872	695.899
187.242	14.034	923.669	695.308
188.256	14.238	922.682	695.353
189.271	14.150	922.410	694.719
190.286	14.206	921.438	694.160
191.300	14.105	920.601	693.047
192.315	13.928	919.986	691.787
193.329	13.862	919.313	690.943
194.344	13.995	918.315	690.687
195.359	13.958	917.947	690.194
196.373	14.129	917.256	690.322
197.388	14.131	916.817	689.939
198.402	14.279	916.476	690.236
199.417	14.314	915.966	689.939
200.432	14.418	915.281	689.790
201.446	14.476	914.801	689.607
202.461	14.351	914.703	688.957
203.475	14.547	913.843	689.055
204.490	14.578	913.088	688.555
205.504	14.377	912.443	687.176
206.519	14.324	911.966	686.539
207.534	14.459	910.942	686.265
208.548	14.423	910.622	685.812
209.563	14.233	909.682	684.262
210.577	14.288	908.836	683.794
211.592	14.440	908.067	683.780
212.607	14.485	907.929	683.796
213.621	14.617	907.261	683.777
214.636	14.532	906.190	682.558
215.650	14.440	905.743	681.786
216.665	14.593	905.246	681.976
217.680	14.474	904.910	681.175
218.694	14.602	904.190	681.095
219.709	14.638	903.514	680.677
220.723	14.619	903.182	680.288
221.738	14.496	902.604	679.290
222.753	14.512	901.418	678.403
223.767	14.518	900.888	677.968
224.782	14.679	900.353	678.162
225.796	14.724	899.441	677.594
226.811	14.651	898.914	676.844
227.826	14.649	898.252	676.277
228.840	14.805	897.243	676.086
229.855	14.585	896.971	674.933
230.869	14.788	896.244	675.149
231.884	14.641	895.514	673.945
232.899	14.634	894.750	673.279
233.913	14.723	893.605	672.719
234.928	14.590	893.350	671.929
235.942	14.669	892.527	671.573
236.957	14.687	891.836	671.063
237.972	14.577	891.548	670.345
238.986	14.711	890.466	670.010
240.001	14.749	889.915	669.688
241.015	14.731	889.445	669.203
242.030	14.810	888.594	668.822
243.045	14.778	888.241	668.370
244.059	14.852	887.517	668.057
245.074	14.866	886.594	667.363
246.088	14.800	886.177	666.725
247.103	14.856	885.343	666.261
248.117	14.840	885.020	665.897
249.132	14.862	884.557	665.576
250.147	14.972	883.940	665.492
251.161	15.150	883.143	665.540
252.176	15.070	882.530	664.700
253.190	15.133	882.171	664.624
254.205	15.242	881.121	664.205
255.220	15.295	880.214	663.672
256.234	15.247	879.745	663.070
257.249	15.250	879.280	662.672
258.263	15.304	878.683	662.375
259.278	15.227	878.500	661.877
260.293	15.227	877.802	661.293
261.307	15.323	877.440	661.337
262.322	15.429	876.603	661.068
263.336	15.513	875.820	660.750
264.351	15.319	875.458	659.654
265.366	15.441	874.879	659.637
266.380	15.502	874.263	659.355
267.395	15.504	872.838	658.230
268.409	15.432	872.606	657.716
269.424	15.531	871.702	657.362
270.439	15.428	871.293	656.591
271.453	15.461	870.442	656.024
272.468	15.536	869.236	655.347
273.482	15.421	869.110	654.746
274.497	15.434	868.349	654.168
275.512	15.576	867.519	654.037
276.526	15.369	866.967	652.758
277.541	15.439	866.435	652.571
278.555	15.507	865.613	652.159
279.570	15.502	865.720	652.160
280.585	15.557	865.019	651.790
281.599	15.774	864.217	651.968
282.614	15.571	863.972	650.937
283.628	15.514	863.267	650.130
284.643	15.529	862.816	649.789
285.657	15.545	862.073	649.237
286.672	15.612	861.690	649.148
287.687	15.677	860.757	648.638
288.701	15.562	860.702	648.096
289.716	15.674	859.858	647.834
290.730	15.661	859.368	647.356
291.745	15.737	858.444	646.898
292.760	15.748	858.047	646.584
293.774	15.604	857.503	645.564
294.789	15.819	856.710	645.732
295.803	15.875	856.200	645.508
296.818	15.788	855.730	644.761
297.833	15.817	854.807	644.119
298.847	15.927	854.343	644.134
299.862	15.995	853.314	643.560
300.876	15.847	853.156	642.820
301.891	15.784	852.806	642.259
302.906	15.935	851.743	641.977
303.920	16.004	850.878	641.530
304.935	16.049	850.421	641.300
305.949	16.110	849.884	641.070
306.964	16.056	849.046	640.178
307.979	16.116	848.299	639.785
308.993	16.212	848.200	640.018
310.008	15.965	847.900	638.797
311.022	16.190	847.454	639.261
312.037	16.124	846.808	638.466
313.052	16.045	845.952	637.466
314.066	16.139	845.482	637.409
315.081	16.017	844.905	636.456
316.095	15.978	843.888	635.489
317.110	16.055	843.676	635.560
318.125	16.103	843.159	635.296
319.139	16.045	842.524	634.546
320.154	16.020	842.277	634.209
321.168	15.927	842.087	633.660
322.183	16.111	841.275	633.683
323.197	16.046	840.599	632.875
324.212	16.111	839.978	632.594
325.227	16.188	839.399	632.392
326.241	16.316	838.796	632.362
327.256	16.190	838.205	631.387
328.270	16.132	837.757	630.775
329.285	16.132	837.375	630.432
330.300	16.087	836.990	629.921
331.314	16.096	836.173	629.283
332.329	16.260	835.403	629.260
333.343	16.321	834.834	629.002
334.358	16.307	834.585	628.706
335.373	16.214	833.813	627.723
336.387	16.373	833.034	627.673
337.402	16.300	833.047	627.356
338.416	16.198	832.634	626.610
339.431	16.505	831.721	627.006
340.446	16.588	830.994	626.711
341.460	16.530	830.643	626.176
342.475	16.494	830.111	625.585
343.489	16.643	829.311	625.476
344.504	16.783	828.698	625.477
345.519	16.603	828.495	624.604
346.533	16.730	827.744	624.451
347.548	16.603	827.384	623.654
348.562	16.623	826.730	623.183
349.577	16.578	826.331	622.661
350.592	16.576	825.644	622.081
351.606	16.536	825.104	621.469
352.621	16.494	824.699	620.955
353.635	16.469	824.403	620.587
354.650	16.572	823.829	620.478
355.665	16.602	823.477	620.268
356.679	16.585	822.805	619.646
357.694	16.672	822.367	619.578
358.708	16.638	822.344	619.381
359.723	16.674	821.481	618.807
360.738	16.650	820.754	618.118
361.752	16.699	820.283	617.889
362.767	16.764	820.055	617.898
363.781	16.699	819.704	617.343
364.796	16.687	819.260	616.909
365.810	16.674	818.747	616.423
366.825	16.977	818.181	617.042
367.840	16.884	817.943	616.470
368.854	16.903	817.445	616.108
369.869	16.889	816.956	615.636
370.883	16.912	816.439	615.277
371.898	16.962	815.666	614.818
372.913	17.078	815.050	614.721
373.927	17.005	814.547	614.024
374.942	16.986	813.871	613.390
375.956	17.034	813.449	613.191
376.971	17.144	812.815	613.058
377.986	17.253	812.199	612.930
379.000	17.179	811.736	612.261
380.015	17.279	811.235	612.190
381.029	17.198	810.872	611.567
382.044	17.247	810.209	611.190
383.059	17.188	809.573	610.445
384.073	17.266	809.124	610.331
385.088	17.254	808.655	609.883
386.102	17.083	808.343	608.981
387.117	17.187	807.394	608.582
388.132	17.203	806.827	608.160
389.146	17.257	806.925	608.373
390.161	17.205	806.301	607.662
391.175	17.190	806.011	607.338
392.190	17.112	805.721	606.784
393.205	17.154	805.285	606.552
394.219	17.123	804.643	605.904
395.234	17.239	804.156	605.897
396.248	17.225	803.620	605.393
397.263	17.298	803.027	605.150
398.278	17.137	802.430	604.075
399.292	17.063	802.445	603.770
400.307	17.286	801.756	603.988
401.321	17.293	801.413	603.705
402.336	17.341	800.709	603.289
403.350	17.273	800.527	602.858
404.365	17.161	800.465	602.359
405.380	17.399	799.524	602.441
406.394	17.483	799.036	602.319
407.409	17.475	798.611	601.915
408.423	17.471	798.508	601.773
409.438	17.652	797.432	601.546
410.453	17.670	797.326	601.475
411.467	17.636	797.040	601.086
412.482	17.674	796.454	600.727
413.496	17.693	796.117	600.486
414.511	17.694	795.861	600.242
415.526	17.842	795.169	600.189
416.540	17.788	795.010	599.827
417.555	17.688	794.587	599.103
418.569	17.709	794.260	598.876
419.584	17.756	793.476	598.396
420.599	17.642	793.324	597.831
421.613	111.338	1292.229	1475.793
422.628	95.734	1364.916	1475.857
