DTS Sentinel unit serial number:	SN413079Multiplexer serial number:	ORYXHardware model number:	OX4-SRSoftware version number:	ORYX F/W v4.00 Oryx Data Collector v3.7.2.0data status	okinstallation	princeton_trtdifferential loss correction	single-endedforward channel	channel 3reverse channel	N/Adate	2019/09/13time	10:12:34forward acquisition time	60.00reverse acquisition time	0.00gamma	496.2192k internal	0.2323k external	0.2323temperature offset calibration	1.0137default loss term (dB/km)	0.3790temperature slope calibration	1.0000multiplexer offset coefficient	1.0000multiplexer slope coefficient	1.0000fibre end	0.00T internal ref (°C)	30.61T ext. ref 1 (°C)	4.51T ext. ref 2 (°C)	27.87length (m)	temperature (°C)	Stokes	anti-Stokes-747.200	800.000	0.073	0.242
-746.185	-84.405	0.245	0.078
-745.171	101.122	-0.121	-0.142
-744.156	52.643	0.324	0.313
-743.142	-200.000	-0.002	0.055
-742.127	321.158	-0.207	0.398
-741.112	174.161	0.227	-0.331
-740.098	1.682	-0.260	-0.189
-739.083	-60.772	-0.225	0.096
-738.069	721.853	0.014	0.038
-737.054	-35.248	0.300	0.165
-736.039	554.058	-0.086	-0.209
-735.025	168.098	-0.068	0.098
-734.010	165.330	0.058	0.083
-732.996	249.776	0.061	0.105
-731.981	800.000	-0.032	0.137
-730.966	-163.178	-0.113	0.005
-729.952	-108.807	-0.277	-0.060
-728.937	800.000	0.087	-0.378
-727.923	-46.251	0.339	-0.168
-726.908	261.343	0.146	-0.254
-725.894	-32.782	-0.257	0.144
-724.879	646.917	0.111	0.287
-723.864	187.516	0.234	0.352
-722.850	95.708	0.088	0.101
-721.835	-200.000	-0.050	-0.316
-720.821	-60.610	-0.168	0.072
-719.806	-200.000	-0.022	-0.372
-718.791	-200.000	-0.002	-0.024
-717.777	-200.000	0.011	0.151
-716.762	-113.565	-0.371	-0.073
-715.748	-142.828	-0.202	-0.020
-714.733	-200.000	-0.022	0.208
-713.718	-121.362	-0.183	0.031
-712.704	606.696	0.103	-0.259
-711.689	61.526	-0.124	-0.124
-710.675	-200.000	-0.015	-0.172
-709.660	-97.749	0.112	-0.029
-708.645	-42.919	0.227	-0.116
-707.631	-142.444	0.381	-0.038
-706.616	626.816	-0.088	0.225
-705.602	-93.882	-0.064	-0.018
-704.587	-68.549	0.265	0.104
-703.572	-151.886	0.361	-0.027
-702.558	19.303	0.268	0.217
-701.543	800.000	0.019	-0.063
-700.529	-124.917	-0.125	0.019
-699.514	282.366	0.086	-0.155
-698.499	-124.415	-0.215	-0.034
-697.485	173.902	-0.178	-0.259
-696.470	-33.722	0.198	-0.110
-695.456	270.895	-0.102	0.180
-694.441	287.918	0.046	0.084
-693.426	-1.539	-0.250	0.178
-692.412	-19.788	-0.209	0.130
-691.397	88.494	-0.350	-0.392
-690.383	-95.059	0.250	-0.068
-689.368	400.186	-0.170	-0.359
-688.354	143.200	-0.061	0.082
-687.339	212.613	0.153	0.244
-686.324	-200.000	0.033	0.180
-685.310	800.000	0.070	-0.278
-684.295	-35.561	-0.040	-0.022
-683.281	27.787	0.151	-0.128
-682.266	395.921	0.058	-0.122
-681.251	413.230	0.060	0.128
-680.237	1.816	-0.280	0.203
-679.222	71.264	-0.075	-0.079
-678.208	43.851	0.033	-0.031
-677.193	3.288	0.171	0.125
-676.178	-200.000	-0.035	-0.189
-675.164	424.192	-0.175	-0.380
-674.149	19.832	-0.076	-0.062
-673.135	800.000	-0.053	-0.191
-672.120	-143.279	-0.167	0.016
-671.105	3.437	-0.462	-0.339
-670.091	-12.479	0.188	-0.123
-669.076	73.881	0.098	-0.103
-668.062	-200.000	0.002	-0.087
-667.047	800.000	-0.064	-0.231
-666.032	-31.219	0.186	-0.105
-665.018	101.470	-0.134	-0.158
-664.003	-184.367	-0.260	0.004
-662.989	-129.880	-0.108	-0.015
-661.974	800.000	0.010	0.038
-660.959	800.000	-0.098	0.412
-659.945	203.844	-0.040	-0.062
-658.930	68.327	0.061	-0.063
-657.916	-151.163	-0.314	0.024
-656.901	166.217	-0.195	0.278
-655.886	800.000	-0.036	-0.131
-654.872	69.072	0.069	-0.071
-653.857	-200.000	-0.023	0.259
-652.843	-33.374	0.388	0.216
-651.828	-200.000	-0.058	0.276
-650.814	15.733	-0.290	-0.230
-649.799	56.684	-0.313	-0.307
-648.784	478.082	-0.124	-0.283
-647.770	-200.000	-0.025	-0.125
-646.755	24.345	-0.431	0.359
-645.741	800.000	0.047	0.161
-644.726	-200.000	0.045	0.424
-643.711	577.789	0.097	0.239
-642.697	-200.000	-0.026	0.222
-641.682	-121.463	-0.314	0.052
-640.668	127.335	0.249	-0.317
-639.653	83.028	0.116	0.127
-638.638	26.937	0.305	-0.257
-637.624	-74.399	0.224	-0.081
-636.609	800.000	0.088	-0.315
-635.595	-50.128	0.381	-0.181
-634.580	233.850	0.101	-0.168
-633.565	-65.521	0.204	0.082
-632.551	-188.271	-0.185	-0.002
-631.536	74.863	0.189	-0.200
-630.522	-80.785	-0.108	0.036
-629.507	-93.682	-0.317	-0.088
-628.492	-200.000	0.055	0.242
-627.478	225.085	-0.170	0.277
-626.463	-15.270	0.172	-0.111
-625.449	-200.000	-0.004	-0.022
-624.434	9.712	-0.398	-0.304
-623.419	-142.925	-0.169	0.016
-622.405	44.378	-0.127	0.117
-621.390	-74.665	0.317	0.114
-620.376	-200.000	0.002	0.007
-619.361	-42.048	0.071	-0.036
-618.346	-101.241	0.122	-0.030
-617.332	196.844	-0.175	-0.268
-616.317	-8.204	0.305	-0.206
-615.303	-120.689	0.130	-0.022
-614.288	-200.000	0.025	0.376
-613.273	-45.553	0.279	-0.139
-612.259	-14.849	0.348	-0.224
-611.244	-87.464	-0.178	-0.054
-610.230	-13.851	0.105	0.068
-609.215	-200.000	-0.040	0.296
-608.201	-200.000	0.009	0.286
-607.186	482.350	0.083	0.190
-606.171	-200.000	0.006	0.048
-605.157	-14.796	-0.265	-0.171
-604.142	-62.883	-0.280	-0.117
-603.128	116.595	-0.240	-0.296
-602.113	800.000	0.103	-0.449
-601.098	528.256	-0.081	0.191
-600.084	800.000	0.067	-0.196
-599.069	199.677	0.088	-0.135
-598.055	-200.000	-0.032	-0.376
-597.040	-200.000	-0.031	0.172
-596.025	82.072	0.067	-0.073
-595.011	-200.000	-0.037	-0.245
-593.996	-200.000	-0.054	-0.293
-592.982	61.363	-0.200	0.200
-591.967	115.872	0.104	0.128
-590.952	-200.000	0.027	-0.258
-589.938	-46.606	-0.307	0.151
-588.923	-200.000	-0.052	-0.261
-587.909	-62.177	-0.259	0.109
-586.894	-15.704	0.083	0.053
-585.879	-77.112	-0.306	-0.107
-584.865	-64.991	0.200	0.081
-583.850	-107.369	0.135	0.030
-582.836	129.490	-0.110	0.141
-581.821	-5.979	0.162	-0.111
-580.806	117.616	-0.192	-0.237
-579.792	68.371	-0.057	-0.058
-578.777	338.209	0.055	-0.108
-577.763	32.393	-0.110	0.095
-576.748	185.756	0.077	0.115
-575.733	-41.160	-0.419	0.217
-574.719	498.810	-0.101	0.233
-573.704	-84.080	-0.200	0.064
-572.690	800.000	0.051	-0.206
-571.675	154.568	0.169	0.233
-570.661	706.679	-0.079	-0.210
-569.646	-200.000	-0.021	-0.263
-568.631	-38.201	0.186	-0.099
-567.617	-188.938	-0.148	0.002
-566.602	377.222	0.124	0.255
-565.588	-32.830	0.161	-0.090
-564.573	-90.441	-0.241	0.070
-563.558	-98.556	0.034	0.009
-562.544	94.246	0.247	0.281
-561.529	47.141	-0.258	-0.241
-560.515	-146.162	-0.257	0.023
-559.500	-81.499	-0.163	-0.054
-558.485	-33.831	-0.063	0.035
-557.471	237.786	-0.085	0.142
-556.456	-125.727	-0.033	0.005
-555.442	238.737	-0.081	0.135
-554.427	-118.301	0.357	-0.064
-553.412	79.923	-0.119	-0.128
-552.398	-0.448	-0.067	-0.047
-551.383	399.010	0.151	0.318
-550.369	-103.295	0.041	-0.010
-549.354	-200.000	-0.011	0.202
-548.339	248.977	0.189	0.321
-547.325	-74.080	-0.142	0.051
-546.310	-62.097	0.191	0.080
-545.296	352.999	0.208	-0.413
-544.281	-178.902	-0.451	-0.010
-543.266	169.513	0.110	0.158
-542.252	8.145	-0.240	0.180
-541.237	-56.222	0.142	-0.063
-540.223	-91.388	-0.193	-0.055
-539.208	-81.765	0.096	0.031
-538.193	206.967	-0.029	0.045
-537.179	645.348	-0.049	0.126
-536.164	-48.764	-0.216	0.104
-535.150	126.909	0.124	0.157
-534.135	-142.046	-0.065	0.007
-533.121	34.749	-0.276	-0.242
-532.106	152.545	-0.049	0.067
-531.091	-29.557	0.102	0.058
-530.077	112.914	-0.215	-0.261
-529.062	30.105	-0.025	-0.021
-528.048	-44.781	0.093	0.046
-527.033	-89.364	-0.388	0.114
-526.018	-120.596	-0.296	-0.050
-525.004	800.000	-0.055	-0.210
-523.989	-200.000	0.000	-0.190
-522.975	-63.781	-0.087	0.036
-521.960	-120.293	0.098	0.017
-520.945	174.511	0.152	0.220
-519.931	-36.520	-0.066	-0.036
-518.916	45.032	0.315	-0.290
-517.902	800.000	-0.053	-0.181
-516.887	166.715	-0.277	-0.393
-515.872	532.199	0.140	-0.332
-514.858	-126.301	0.177	0.026
-513.843	208.280	-0.154	-0.241
-512.829	-67.632	0.337	-0.132
-511.814	-59.579	0.341	-0.146
-510.799	-33.523	-0.058	-0.032
-509.785	-154.388	0.406	-0.027
-508.770	-166.525	0.170	-0.007
-507.756	-146.334	-0.252	-0.022
-506.741	800.000	0.035	-0.111
-505.726	3.031	-0.259	0.188
-504.712	-198.176	-0.181	0.001
-503.697	146.108	-0.099	-0.132
-502.683	-200.000	0.008	0.197
-501.668	204.075	0.137	0.212
-500.653	152.936	-0.078	0.106
-499.639	55.960	0.338	-0.328
-498.624	800.000	-0.027	-0.097
-497.610	-7.626	0.144	0.097
-496.595	226.624	-0.200	0.325
-495.581	-132.104	-0.393	-0.051
-494.566	-14.705	0.199	-0.128
-493.551	-129.573	-0.060	-0.008
-492.537	-86.542	-0.224	0.069
-491.522	97.163	0.154	0.176
-490.508	-200.000	0.011	0.123
-489.493	-105.485	-0.185	0.042
-488.478	-200.000	0.031	-0.144
-487.464	-135.066	-0.340	-0.041
-486.449	-42.257	0.306	0.156
-485.435	191.783	-0.044	0.067
-484.420	313.029	0.120	-0.225
-483.405	-200.000	0.052	-0.229
-482.391	134.122	-0.093	-0.120
-481.376	-191.985	0.154	-0.001
-480.362	-24.019	0.144	-0.086
-479.347	273.995	0.174	0.308
-478.332	520.849	-0.073	0.172
-477.318	505.117	0.060	-0.138
-476.303	-11.706	0.169	0.111
-475.289	-200.000	-0.047	-0.346
-474.274	31.906	-0.085	-0.074
-473.259	-72.788	-0.153	0.056
-472.245	-137.091	0.078	0.009
-471.230	1.451	0.267	-0.192
-470.216	-200.000	-0.015	0.083
-469.201	-6.525	-0.153	0.104
-468.186	800.000	0.026	-0.095
-467.172	8.582	-0.118	0.089
-466.157	-14.345	0.184	0.119
-465.143	800.000	0.090	0.335
-464.128	-30.412	0.242	-0.137
-463.113	75.280	-0.095	-0.101
-462.099	21.454	-0.176	-0.143
-461.084	-42.555	0.197	0.100
-460.070	-82.219	0.308	0.100
-459.055	-200.000	0.012	0.151
-458.040	24.508	0.241	0.199
-457.026	-200.000	0.027	-0.119
-456.011	-118.232	0.109	-0.019
-454.997	800.000	0.092	-0.276
-453.982	127.099	-0.113	-0.144
-452.968	-61.403	-0.193	-0.081
-451.953	43.566	-0.107	0.098
-450.938	-200.000	0.053	-0.265
-449.924	-145.469	-0.194	0.017
-448.909	-200.000	0.039	-0.202
-447.895	800.000	0.077	-0.254
-446.880	160.818	-0.070	-0.097
-445.865	343.557	-0.298	0.583
-444.851	409.214	0.191	0.403
-443.836	-83.160	0.191	0.061
-442.822	0.884	0.111	0.079
-441.807	17.328	-0.208	-0.165
-440.792	-3.025	0.198	0.138
-439.778	-174.688	0.198	-0.006
-438.763	25.682	0.193	0.160
-437.749	-124.065	0.339	-0.053
-436.734	-97.153	-0.316	-0.082
-435.719	-104.629	0.012	-0.003
-434.705	18.256	-0.140	0.111
-433.690	-7.413	-0.234	0.158
-432.676	-182.255	-0.176	-0.003
-431.661	-24.771	0.199	-0.118
-430.646	800.000	0.115	-0.378
-429.632	-83.759	-0.263	0.084
-428.617	800.000	-0.070	0.209
-427.603	168.136	-0.187	0.266
-426.588	-200.000	-0.045	0.268
-425.573	-49.122	0.283	0.135
-424.559	-82.795	-0.417	-0.135
-423.544	-200.000	-0.089	-0.651
-422.530	348.447	-0.082	0.161
-421.515	66.849	0.076	-0.078
-420.500	116.310	0.186	0.227
-419.486	29.658	-0.016	0.013
-418.471	27.385	0.300	0.251
-417.457	-90.706	0.140	-0.040
-416.442	6.837	-0.282	-0.210
-415.428	-200.000	0.057	-0.410
-414.413	-200.000	-0.041	-0.251
-413.398	800.000	0.036	0.143
-412.384	-25.721	-0.317	0.187
-411.369	100.077	-0.218	-0.252
-410.355	-72.651	0.349	0.128
-409.340	51.694	-0.102	0.097
-408.325	-200.000	-0.003	-0.494
-407.311	65.002	0.219	-0.220
-406.296	-155.197	-0.205	0.013
-405.282	156.937	-0.108	0.148
-404.267	-200.000	-0.073	-0.328
-403.252	-134.920	-0.204	-0.025
-402.238	-200.000	-0.031	0.350
-401.223	-147.566	-0.261	-0.022
-400.209	103.323	-0.145	-0.169
-399.194	135.238	0.069	-0.090
-398.179	66.319	-0.151	0.153
-397.165	-64.195	0.281	-0.114
-396.150	-26.407	-0.244	0.143
-395.136	-17.765	-0.123	-0.077
-394.121	-200.000	-0.021	-0.133
-393.106	55.968	0.213	-0.205
-392.092	678.024	-0.098	0.254
-391.077	468.047	0.032	-0.071
-390.063	-148.634	-0.267	0.022
-389.048	-200.000	-0.027	0.160
-388.033	460.026	0.044	0.097
-387.019	-24.678	-0.240	0.142
-386.004	273.765	0.119	0.210
-384.990	800.000	-0.091	0.318
-383.975	5.571	0.255	0.188
-382.960	135.795	-0.155	0.200
-381.946	637.113	0.177	-0.447
-380.931	-24.945	0.197	-0.117
-379.917	800.000	0.065	0.245
-378.902	107.546	-0.063	0.075
-377.888	73.600	0.088	0.092
-376.873	-78.427	0.357	0.122
-375.858	28.430	0.053	0.044
-374.844	97.058	0.154	0.176
-373.829	-69.340	0.065	0.025
-372.815	-200.000	0.016	0.150
-371.800	-200.000	0.011	-0.297
-370.785	-108.866	0.087	-0.019
-369.771	-200.000	0.025	-0.377
-368.756	-98.963	0.125	0.032
-367.742	-126.338	0.227	0.034
-366.727	-54.634	0.101	0.045
-365.712	-61.417	-0.142	0.059
-364.698	128.764	-0.093	-0.118
-363.683	4.551	-0.204	0.149
-362.669	-45.053	0.115	0.057
-361.654	-200.000	-0.033	0.306
-360.639	-21.302	0.262	-0.159
-359.625	58.405	-0.208	0.203
-358.610	-122.812	0.338	0.054
-357.596	-78.969	-0.121	-0.041
-356.581	36.270	-0.220	-0.193
-355.566	-77.175	0.101	-0.035
-354.552	-200.000	-0.031	0.294
-353.537	-124.756	-0.204	0.031
-352.523	-200.000	0.016	0.104
-351.508	-101.544	-0.176	0.043
-350.493	-131.211	-0.243	0.032
-349.479	-117.176	0.211	0.038
-348.464	268.246	0.123	0.214
-347.450	-85.065	0.234	0.073
-346.435	-4.185	-0.064	-0.044
-345.420	508.231	-0.114	-0.264
-344.406	-119.251	-0.220	-0.038
-343.391	-103.007	0.104	-0.025
-342.377	-200.000	-0.015	-0.139
-341.362	54.145	0.134	0.128
-340.348	92.244	0.091	-0.102
-339.333	-76.036	0.015	0.005
-338.318	149.220	0.218	0.293
-337.304	-95.058	-0.104	0.028
-336.289	60.614	0.118	-0.116
-335.275	243.925	0.084	-0.140
-334.260	-200.000	0.027	0.141
-333.245	167.628	0.115	0.162
-332.231	-28.107	-0.095	-0.055
-331.216	-200.000	0.061	0.290
-330.202	258.073	-0.227	-0.389
-329.187	-107.753	-0.188	-0.041
-328.172	-124.294	-0.396	0.061
-327.158	-200.000	0.003	0.321
-326.143	124.697	0.354	-0.443
-325.129	38.015	0.388	-0.342
-324.114	368.625	-0.246	0.494
-323.099	-143.108	0.313	-0.030
-322.085	-200.000	-0.059	0.297
-321.070	-200.000	0.004	0.249
-320.056	-56.744	0.291	0.128
-319.041	-200.000	-0.046	0.274
-318.026	-108.211	0.135	0.029
-317.012	26.764	0.155	-0.129
-315.997	800.000	0.120	0.379
-314.983	99.273	-0.180	0.206
-313.968	-67.584	-0.168	-0.066
-312.953	123.698	0.063	-0.079
-311.939	137.287	0.200	-0.260
-310.924	516.470	-0.119	-0.277
-309.910	800.000	0.078	-0.228
-308.895	-200.000	-0.051	-0.406
-307.880	142.344	-0.174	0.229
-306.866	277.145	0.093	0.164
-305.851	309.541	-0.109	0.203
-304.837	-124.143	0.121	-0.019
-303.822	171.062	-0.111	0.158
-302.807	800.000	-0.067	0.243
-301.793	-200.000	-0.002	-0.088
-300.778	14.031	-0.063	-0.049
-299.764	-162.900	-0.151	0.007
-298.749	56.850	0.242	-0.234
-297.735	365.478	0.015	-0.029
-296.720	-200.000	-0.011	-0.118
-295.705	398.833	0.103	-0.214
-294.691	90.525	-0.150	0.167
-293.676	-88.148	0.246	0.073
-292.662	-88.799	0.302	-0.089
-291.647	79.378	-0.401	0.427
-290.632	800.000	0.072	0.214
-289.618	221.137	-0.028	0.045
-288.603	2.870	0.110	0.079
-287.589	-49.618	0.188	0.089
-286.574	-39.371	0.203	-0.106
-285.559	-200.000	-0.028	-0.525
-284.545	-18.740	-0.144	0.089
-283.530	-0.648	-0.217	0.152
-282.516	64.312	0.182	0.182
-281.501	800.000	0.080	-0.228
-280.486	89.983	-0.102	-0.113
-279.472	-47.661	0.215	0.104
-278.457	-110.986	-0.371	-0.075
-277.443	21.605	-0.180	0.146
-276.428	84.421	-0.149	0.162
-275.413	45.895	-0.046	0.043
-274.399	432.561	0.111	-0.238
-273.384	-200.000	-0.001	-0.022
-272.370	512.541	0.098	0.226
-271.355	463.899	-0.111	-0.246
-270.340	-53.858	0.207	-0.094
-269.326	-200.000	0.026	-0.154
-268.311	5.663	-0.247	-0.181
-267.297	-65.743	-0.156	-0.062
-266.282	-29.266	-0.196	-0.112
-265.267	-137.016	-0.016	0.002
-264.253	-200.000	-0.008	0.106
-263.238	754.545	0.129	0.347
-262.224	-200.000	-0.055	0.324
-261.209	396.059	-0.043	0.090
-260.195	-55.686	0.223	0.099
-259.180	-89.851	0.280	-0.081
-258.165	-200.000	0.027	-0.169
-257.151	-48.659	-0.420	-0.200
-256.136	552.862	-0.080	0.192
-255.122	46.583	-0.206	0.190
-254.107	442.763	-0.053	-0.115
-253.092	-200.000	-0.007	-0.036
-252.078	349.893	-0.106	0.207
-251.063	32.174	-0.254	0.217
-250.049	-200.000	-0.041	-0.287
-249.034	-3.132	0.244	-0.169
-248.019	9.683	-0.080	0.060
-247.005	-113.619	-0.226	-0.044
-245.990	11.205	-0.122	0.092
-244.976	-73.323	-0.228	-0.083
-243.961	-150.973	0.242	-0.018
-242.946	-166.007	0.498	-0.021
-241.932	92.094	-0.156	0.174
-240.917	-129.089	0.180	-0.025
-239.903	-119.840	0.150	-0.026
-238.888	-200.000	0.036	0.168
-237.873	428.850	0.075	0.159
-236.859	-90.284	-0.221	-0.064
-235.844	-200.000	0.072	0.000
-234.830	64.262	0.276	-0.276
-233.815	-132.113	0.314	0.040
-232.800	-200.000	-0.014	0.201
-231.786	404.035	0.083	-0.173
-230.771	-124.136	0.313	-0.049
-229.757	-200.000	0.003	0.194
-228.742	-79.404	-0.147	-0.049
-227.727	-95.870	-0.345	0.091
-226.713	329.362	0.159	0.302
-225.698	255.043	-0.085	-0.143
-224.684	-200.000	-0.014	0.122
-223.669	137.735	0.147	0.190
-222.655	800.000	0.031	-0.113
-221.640	5.361	0.138	0.100
-220.625	526.940	0.067	-0.157
-219.611	183.662	-0.153	0.223
-218.596	-68.113	0.548	0.211
-217.582	-40.396	-0.158	0.081
-216.567	-75.295	-0.034	0.012
-215.552	-200.000	-0.006	0.242
-214.538	148.759	0.128	0.171
-213.523	-155.204	0.251	-0.016
-212.509	155.962	-0.056	-0.077
-211.494	100.272	-0.223	0.256
-210.479	41.231	0.113	0.101
-209.465	800.000	-0.062	0.173
-208.450	-200.000	-0.055	0.337
-207.436	9.898	0.182	-0.136
-206.421	-52.136	0.173	0.079
-205.406	82.244	-0.136	0.145
-204.392	-69.164	0.147	0.056
-203.377	190.930	-0.172	-0.256
-202.363	-49.915	-0.343	-0.161
-201.348	-133.771	0.282	-0.035
-200.333	195.059	-0.077	0.116
-199.319	-200.000	0.010	-0.086
-198.304	-42.363	0.095	-0.048
-197.290	-200.000	-0.031	-0.144
-196.275	425.179	0.102	0.217
-195.260	-100.494	0.587	0.144
-194.246	278.687	0.075	-0.132
-193.231	53.591	0.136	-0.129
-192.217	563.742	0.050	0.119
-191.202	-62.573	-0.230	-0.094
-190.187	-61.641	0.227	0.094
-189.173	62.692	0.204	-0.201
-188.158	-200.000	-0.007	-0.071
-187.144	168.967	-0.143	0.202
-186.129	800.000	0.007	0.028
-185.114	436.667	0.051	-0.110
-184.100	-61.888	-0.028	0.012
-183.085	318.979	0.158	0.296
-182.071	-140.026	-0.311	0.032
-181.056	208.965	0.202	-0.313
-180.042	-21.654	0.155	-0.093
-179.027	430.381	0.044	-0.095
-178.012	-175.166	-0.308	-0.008
-176.998	-200.000	-0.026	-0.263
-175.983	-112.976	-0.439	-0.086
-174.969	-148.316	0.104	-0.008
-173.954	213.935	0.041	-0.065
-172.939	-78.304	-0.267	-0.091
-171.925	-154.233	0.176	0.012
-170.910	800.000	-0.007	0.023
-169.896	148.699	0.203	-0.271
-168.881	74.187	-0.107	-0.110
-167.866	-200.000	0.030	-0.263
-166.852	-200.000	0.021	0.134
-165.837	-25.382	-0.240	0.140
-164.823	800.000	-0.025	-0.071
-163.808	599.414	-0.067	-0.164
-162.793	172.226	0.160	-0.227
-161.779	-92.644	-0.131	-0.036
-160.764	111.967	0.239	-0.285
-159.750	-200.000	-0.013	-0.145
-158.735	785.382	-0.052	0.141
-157.720	-90.323	-0.420	-0.120
-156.706	534.195	0.102	-0.239
-155.691	251.230	0.126	0.212
-154.677	270.845	-0.092	0.160
-153.662	-20.627	-0.239	0.145
-152.647	-200.000	-0.044	-0.326
-151.633	4.889	-0.181	0.131
-150.618	189.441	-0.142	0.209
-149.604	260.873	-0.076	0.130
-148.589	149.962	0.055	0.073
-147.574	800.000	0.042	0.125
-146.560	155.001	-0.124	0.168
-145.545	800.000	-0.032	0.099
-144.531	305.578	-0.129	0.236
-143.516	-21.249	-0.329	0.198
-142.502	-15.657	-0.016	-0.010
-141.487	106.816	-0.062	0.072
-140.472	155.794	-0.117	0.160
-139.458	-200.000	0.020	0.088
-138.443	472.025	-0.139	0.309
-137.429	168.812	-0.151	-0.212
-136.414	134.184	-0.138	-0.176
-135.399	-200.000	-0.010	0.149
-134.385	160.476	0.044	0.061
-133.370	-41.027	-0.240	-0.122
-132.356	-182.638	0.190	-0.003
-131.341	800.000	0.174	0.477
-130.326	-72.693	-0.094	0.034
-129.312	-102.245	0.114	-0.027
-128.297	38.154	0.154	-0.135
-127.283	-9.470	-0.212	0.139
-126.268	567.721	0.030	0.072
-125.253	58.352	0.175	-0.169
-124.239	-200.000	0.043	-0.271
-123.224	310.665	-0.106	-0.196
-122.210	-142.726	0.083	-0.008
-121.195	-133.796	0.209	0.026
-120.180	-45.186	-0.208	0.102
-119.166	289.215	-0.072	0.128
-118.151	800.000	0.046	0.168
-117.137	-20.877	0.066	0.040
-116.122	-26.479	0.197	-0.114
-115.107	-74.230	-0.598	-0.213
-114.093	355.713	-0.154	0.303
-113.078	-200.000	0.025	-0.173
-112.064	-69.023	0.186	0.071
-111.049	-19.661	0.271	-0.165
-110.034	-13.352	-0.075	0.048
-109.020	141.092	0.041	0.054
-108.005	800.000	0.026	0.103
-106.991	260.274	-0.115	0.195
-105.976	-57.745	0.134	0.058
-104.962	362.080	0.247	0.488
-103.947	62.860	-0.120	0.118
-102.932	73.312	0.170	-0.175
-101.918	-101.068	0.485	-0.117
-100.903	-200.000	0.027	-0.158
-99.889	-155.378	0.137	-0.009
-98.874	-40.402	-0.213	-0.109
-97.859	-53.044	-0.016	-0.007
-96.845	-49.355	0.025	-0.012
-95.830	97.780	0.152	-0.172
-94.816	-35.638	0.400	0.213
-93.801	-64.508	-0.270	0.108
-92.786	-116.990	0.192	-0.035
-91.772	-156.699	0.371	-0.023
-90.757	-136.135	-0.169	0.019
-89.743	-200.000	0.020	0.094
-88.728	4.000	-0.160	0.115
-87.713	85.322	0.145	0.156
-86.699	-24.535	-0.191	-0.112
-85.684	-93.485	-0.172	0.047
-84.670	-38.937	0.092	-0.048
-83.655	-60.712	0.299	0.125
-82.640	553.172	-0.059	-0.140
-81.626	-97.270	-0.245	0.063
-80.611	-200.000	0.027	0.170
-79.597	17.035	-0.097	0.075
-78.582	225.299	0.078	0.125
-77.567	-34.116	0.099	0.054
-76.553	-200.000	-0.046	-0.539
-75.538	92.537	0.071	0.079
-74.524	176.335	0.077	0.110
-73.509	-35.279	-0.115	-0.061
-72.494	-200.000	0.025	0.305
-71.480	-23.103	0.045	0.027
-70.465	-87.516	-0.082	-0.024
-69.451	-117.537	-0.312	-0.055
-68.436	141.308	-0.073	0.095
-67.422	-59.034	-0.134	0.057
-66.407	-140.852	0.077	-0.008
-65.392	3.245	-0.208	0.149
-64.378	800.000	0.020	0.056
-63.363	-108.161	0.125	0.027
-62.349	175.006	-0.065	0.093
-61.334	126.177	-0.635	-0.789
-60.319	328.906	0.487	0.921
-59.305	712.810	-0.414	-1.078
-58.290	162.493	0.818	1.129
-57.276	365.810	0.886	1.756
-56.261	-200.000	99.710	594.774
-55.246	568.550	1423.212	3399.838
-54.232	186.547	2626.271	3843.689
-53.217	116.448	2188.031	2636.910
-52.203	41.527	1715.207	1526.314
-51.188	33.690	1524.268	1302.803
-50.173	31.287	1497.120	1263.319
-49.159	51.633	1548.843	1447.414
-48.144	52.560	1566.120	1469.876
-47.130	33.973	1524.943	1305.114
-46.115	30.978	1509.464	1271.429
-45.100	30.742	1506.535	1267.299
-44.086	30.608	1504.230	1264.400
-43.071	30.712	1501.941	1263.131
-42.057	30.657	1500.686	1261.653
-41.042	30.655	1499.092	1260.252
-40.027	30.662	1497.761	1259.132
-39.013	30.560	1496.284	1257.145
-37.998	30.591	1494.592	1255.889
-36.984	30.618	1493.232	1254.880
-35.969	30.547	1492.314	1253.574
-34.954	30.530	1490.929	1252.248
-33.940	30.625	1489.370	1251.527
-32.925	30.712	1487.954	1250.872
-31.911	30.729	1486.421	1249.650
-30.896	30.679	1485.658	1248.621
-29.881	30.757	1484.185	1247.861
-28.867	30.606	1483.033	1245.827
-27.852	30.713	1481.099	1244.872
-26.838	30.619	1480.001	1243.273
-25.823	30.610	1478.823	1242.172
-24.809	30.709	1476.547	1240.870
-23.794	30.641	1475.545	1239.524
-22.779	30.721	1473.883	1238.614
-21.765	30.606	1473.490	1237.468
-20.750	30.618	1472.437	1236.617
-19.736	30.719	1471.483	1236.434
-18.721	30.529	1470.339	1234.161
-17.706	30.551	1468.961	1233.106
-16.692	30.614	1468.048	1232.705
-15.677	30.617	1466.512	1231.387
-14.663	30.637	1465.705	1230.796
-13.648	30.580	1464.754	1229.566
-12.633	30.556	1463.883	1228.630
-11.619	30.664	1462.872	1228.448
-10.604	30.503	1462.449	1226.982
-9.590	30.573	1461.109	1226.269
-8.575	30.533	1460.431	1225.384
-7.560	30.546	1459.922	1224.998
-6.546	30.548	1459.038	1224.220
-5.531	30.594	1457.836	1223.466
-4.517	30.556	1456.932	1222.409
-3.502	30.484	1456.500	1221.524
-2.487	30.516	1455.145	1220.546
-1.473	30.514	1453.993	1219.519
-0.458	30.522	1452.994	1218.688
0.556	32.544	1443.573	1209.196
1.571	29.852	1417.396	1170.161
2.586	26.340	1356.474	1098.468
3.600	24.634	1274.552	1022.286
4.615	22.762	1228.678	975.074
5.629	19.538	1172.271	913.201
6.644	11.715	1088.038	808.956
7.659	5.634	1048.873	750.692
8.673	4.738	1043.476	742.490
9.688	4.502	1040.319	739.058
10.702	4.423	1038.709	737.473
11.717	4.357	1037.195	736.022
12.731	7.292	1039.814	751.752
13.746	15.169	1050.717	797.186
14.761	21.165	1057.485	830.879
15.775	22.097	1058.335	835.907
16.790	21.570	1056.921	832.213
17.804	20.527	1054.478	825.269
18.819	19.804	1052.816	820.463
19.834	19.292	1051.487	816.932
20.848	19.288	1050.338	815.944
21.863	19.129	1050.043	814.892
22.877	18.915	1049.784	813.607
23.892	18.835	1048.548	812.199
24.907	18.706	1048.081	811.157
25.921	18.696	1046.978	810.182
26.936	18.629	1046.556	809.468
27.950	18.634	1045.272	808.429
28.965	18.690	1044.430	807.969
29.980	18.725	1043.009	806.964
30.994	18.865	1042.260	806.967
32.009	19.118	1041.394	807.414
33.023	19.128	1040.719	806.866
34.038	19.013	1040.428	806.029
35.053	18.925	1039.399	804.748
36.067	18.953	1038.174	803.861
37.082	18.787	1037.153	802.221
38.096	18.811	1035.858	801.262
39.111	18.819	1035.695	801.104
40.126	18.944	1034.755	800.888
41.140	18.763	1033.761	799.206
42.155	18.623	1032.225	797.295
43.169	18.320	1031.644	795.370
44.184	18.219	1030.537	793.977
45.199	18.359	1029.226	793.543
46.213	18.308	1028.258	792.493
47.228	18.325	1027.829	792.169
48.242	18.729	1026.662	793.067
49.257	18.799	1026.078	792.869
50.271	18.723	1025.138	791.722
51.286	18.543	1024.874	790.620
52.301	18.838	1023.273	790.671
53.315	18.800	1022.674	789.965
54.330	18.703	1021.616	788.630
55.344	18.477	1020.798	786.892
56.359	18.470	1020.117	786.268
57.374	18.374	1019.152	785.013
58.388	18.357	1018.068	784.029
59.403	18.397	1017.021	783.340
60.417	18.361	1016.286	782.537
61.432	18.260	1015.607	781.482
62.447	18.212	1015.510	781.124
63.461	18.246	1014.353	780.318
64.476	18.181	1013.771	779.506
65.490	18.099	1012.452	778.049
66.505	17.991	1011.670	776.888
67.520	18.053	1010.701	776.358
68.534	18.220	1010.072	776.564
69.549	18.185	1009.359	775.785
70.563	18.172	1007.737	774.412
71.578	18.071	1007.495	773.703
72.593	17.951	1006.707	772.483
73.607	17.788	1005.864	771.033
74.622	17.692	1005.006	769.873
75.636	17.837	1004.296	769.917
76.651	18.032	1002.881	769.640
77.666	18.009	1002.555	769.218
78.680	17.937	1002.113	768.489
79.695	18.116	1001.356	768.646
80.709	18.083	1000.843	768.033
81.724	18.167	1000.483	768.066
82.739	18.074	999.499	766.829
83.753	18.236	999.164	767.227
84.768	18.430	998.553	767.559
85.782	18.749	998.504	768.881
86.797	19.161	997.460	769.855
87.812	19.135	996.300	768.776
88.826	19.022	995.077	767.257
89.841	18.806	994.725	765.957
90.855	18.931	993.721	765.671
91.870	19.039	993.315	765.774
92.884	19.019	992.542	765.021
93.899	18.923	991.815	763.963
94.914	18.931	990.983	763.290
95.928	18.904	990.619	762.826
96.943	19.092	989.661	762.851
97.957	18.967	988.688	761.482
98.972	18.791	987.723	759.894
99.987	18.823	986.524	759.043
101.001	18.911	986.376	759.250
102.016	18.874	985.717	758.514
103.030	18.902	984.632	757.734
104.045	18.875	983.548	756.713
105.060	19.003	982.675	756.542
106.074	19.004	981.195	755.336
107.089	18.509	980.772	752.770
108.103	18.330	980.125	751.423
109.118	18.203	978.988	749.931
110.133	18.158	978.226	749.081
111.147	18.164	976.798	747.947
112.162	18.119	976.418	747.394
113.176	18.130	975.130	746.389
114.191	18.296	974.243	746.370
115.206	18.483	973.321	746.412
116.220	18.394	973.154	745.827
117.235	18.398	971.916	744.832
118.249	18.185	971.747	743.712
119.264	18.350	970.254	743.219
120.279	18.153	969.621	741.815
121.293	18.091	968.783	740.836
122.308	17.958	968.078	739.656
123.322	18.038	966.620	738.825
124.337	17.986	965.681	737.816
125.352	17.914	965.034	736.946
126.366	17.939	963.761	736.017
127.381	17.890	962.559	734.821
128.395	17.937	961.887	734.445
129.410	18.033	960.902	734.040
130.424	18.013	960.386	733.499
131.439	17.985	959.701	732.787
132.454	18.086	959.006	732.624
133.468	18.266	958.354	732.836
134.483	18.209	957.920	732.194
135.497	18.211	957.689	731.962
136.512	18.236	956.303	730.942
137.527	18.320	955.412	730.557
138.541	18.456	954.619	730.464
139.556	18.443	954.335	730.125
140.570	18.376	953.073	728.813
141.585	18.601	952.505	729.269
142.600	18.710	952.157	729.404
143.614	18.885	950.888	729.108
144.629	18.949	950.427	728.961
145.643	18.927	949.750	728.283
146.658	18.787	949.489	727.425
147.673	18.702	947.910	725.795
148.687	18.584	947.393	724.837
149.702	18.382	946.245	723.038
150.716	18.288	945.335	721.884
151.731	18.292	944.539	721.229
152.746	18.450	943.892	721.337
153.760	18.373	943.076	720.325
154.775	18.543	942.272	720.361
155.789	18.565	941.389	719.716
156.804	18.674	940.652	719.544
157.819	18.556	940.024	718.508
158.833	18.728	939.468	718.738
159.848	18.808	938.858	718.543
160.862	19.005	938.284	718.861
161.877	18.899	937.446	717.715
162.892	18.697	936.098	715.779
163.906	18.287	935.433	713.495
164.921	18.360	934.410	712.958
165.935	18.415	933.228	712.221
166.950	18.478	932.558	711.908
167.964	18.657	931.810	712.017
168.979	18.578	930.796	710.851
169.994	18.608	929.149	709.656
171.008	18.443	928.897	708.719
172.023	18.442	928.382	708.258
173.037	18.716	927.704	708.809
174.052	18.929	926.952	709.053
175.067	18.806	926.404	708.063
176.081	18.430	925.615	705.848
177.096	18.306	924.218	704.208
178.110	18.312	923.587	703.690
179.125	18.548	922.797	703.994
180.140	18.466	922.036	703.016
181.154	18.491	921.742	702.834
182.169	18.575	921.331	702.803
183.183	18.739	920.812	703.015
184.198	18.943	919.735	702.965
185.213	18.974	919.181	702.605
186.227	18.760	918.603	701.227
187.242	18.836	918.242	701.201
188.256	19.053	917.624	701.552
189.271	19.110	916.600	700.941
190.286	19.301	915.934	701.143
191.300	18.903	915.161	698.874
192.315	18.466	914.174	696.280
193.329	18.223	913.378	694.628
194.344	18.225	912.638	694.014
195.359	18.526	911.803	694.535
196.373	18.702	911.317	694.818
197.388	18.854	910.963	695.099
198.402	19.052	910.595	695.557
199.417	19.040	910.742	695.560
200.432	19.198	910.371	695.853
201.446	19.251	909.794	695.566
202.461	19.346	909.468	695.638
203.475	19.506	908.946	695.821
204.490	19.523	908.244	695.290
205.504	19.261	907.081	693.285
206.519	18.926	906.310	691.287
207.534	18.997	905.467	690.868
208.548	18.958	904.967	690.269
209.563	19.072	904.336	690.183
210.577	19.042	903.173	689.117
211.592	19.117	902.908	689.154
212.607	19.251	902.257	689.131
213.621	19.296	902.238	689.235
214.636	19.271	901.027	688.148
215.650	19.240	900.717	687.727
216.665	19.253	900.016	687.186
217.680	19.369	899.910	687.505
218.694	19.370	899.282	686.967
219.709	19.610	898.907	687.575
220.723	19.534	898.158	686.642
221.738	19.329	897.488	685.250
222.753	19.329	896.372	684.341
223.767	19.274	895.823	683.643
224.782	19.414	895.015	683.520
225.796	19.587	894.276	683.581
226.811	19.802	893.734	683.956
227.826	19.526	893.351	682.510
228.840	19.430	892.382	681.331
229.855	19.409	891.451	680.477
230.869	19.294	891.095	679.691
231.884	19.215	890.467	678.840
232.899	19.168	889.762	678.059
233.913	19.246	888.405	677.272
234.928	19.149	888.150	676.637
235.942	19.048	887.355	675.573
236.957	18.908	886.756	674.508
237.972	19.021	886.208	674.476
238.986	19.172	885.615	674.556
240.001	18.969	885.007	673.238
241.015	19.080	884.302	673.076
242.030	19.230	883.633	673.092
243.045	19.295	882.833	672.677
244.059	19.248	882.799	672.410
245.074	19.283	881.814	671.737
246.088	19.356	881.392	671.638
247.103	19.515	880.924	671.842
248.117	19.531	880.522	671.536
249.132	19.796	880.058	672.156
250.147	19.961	879.432	672.259
251.161	20.164	879.306	672.889
252.176	20.315	878.770	673.007
253.190	20.259	877.999	672.138
254.205	20.237	877.839	671.872
255.220	20.418	877.147	671.984
256.234	20.280	876.353	670.784
257.249	20.293	875.513	670.130
258.263	20.317	875.233	669.949
259.278	20.281	874.564	669.240
260.293	20.337	873.869	668.862
261.307	20.381	873.370	668.593
262.322	20.370	872.864	668.104
263.336	20.532	872.378	668.295
264.351	20.432	871.505	667.182
265.366	20.435	870.843	666.629
266.380	20.458	870.521	666.411
267.395	20.370	869.907	665.544
268.409	20.336	868.897	664.583
269.424	20.319	868.433	664.105
270.439	20.214	867.838	663.189
271.453	20.217	866.876	662.406
272.468	19.949	866.120	660.747
273.482	20.091	865.250	660.568
274.497	20.104	865.141	660.477
275.512	20.151	863.930	659.672
276.526	20.131	863.513	659.218
277.541	20.152	862.893	658.766
278.555	20.165	862.473	658.435
279.570	20.261	862.094	658.452
280.585	20.609	861.543	659.295
281.599	20.562	860.892	658.561
282.614	20.445	860.077	657.434
283.628	20.182	859.638	656.046
284.643	20.220	858.814	655.504
285.657	20.332	857.981	655.233
286.672	20.310	857.742	654.910
287.687	20.349	857.459	654.783
288.701	20.250	857.038	654.030
289.716	20.343	856.362	653.805
290.730	20.473	855.179	653.334
291.745	20.291	854.714	652.235
292.760	20.474	853.868	652.219
293.774	20.575	853.905	652.571
294.789	20.603	853.520	652.325
295.803	20.654	853.048	652.096
296.818	20.425	851.968	650.353
297.833	20.426	851.207	649.722
298.847	20.285	850.905	648.904
299.862	20.508	849.810	648.845
300.876	20.355	849.641	648.087
301.891	20.394	849.179	647.825
302.906	20.606	848.535	648.064
303.920	20.618	848.082	647.707
304.935	20.817	847.163	647.686
305.949	21.062	846.770	648.240
306.964	20.876	845.981	646.887
307.979	20.789	845.413	646.074
308.993	20.755	844.955	645.542
310.008	20.802	844.557	645.355
311.022	20.954	844.242	645.619
312.037	20.777	844.099	644.798
313.052	20.769	842.817	643.730
314.066	20.612	841.900	642.395
315.081	20.429	841.250	641.166
316.095	20.314	840.642	640.220
317.110	20.392	840.354	640.233
318.125	20.336	839.984	639.686
319.139	20.457	839.105	639.407
320.154	20.439	838.514	638.833
321.168	20.245	838.565	638.101
322.183	20.400	837.774	638.015
323.197	20.769	837.155	638.839
324.212	20.499	837.366	637.955
325.227	20.615	836.311	637.520
326.241	20.641	835.592	637.009
327.256	20.578	835.115	636.358
328.270	20.346	834.738	635.168
329.285	20.693	833.546	635.472
330.300	20.664	833.027	634.914
331.314	20.401	832.948	633.839
332.329	20.549	832.370	633.879
333.343	20.652	831.654	633.653
334.358	20.785	831.171	633.715
335.373	20.900	830.759	633.761
336.387	20.880	830.078	633.113
337.402	21.002	829.795	633.285
338.416	20.911	829.207	632.451
339.431	21.110	828.898	632.882
340.446	21.223	828.360	632.824
341.460	21.383	827.798	632.917
342.475	21.380	827.470	632.598
343.489	21.370	826.593	631.837
344.504	21.512	826.526	632.242
345.519	21.576	825.636	631.739
346.533	21.697	825.457	631.982
347.548	21.499	825.269	631.069
348.562	21.340	824.376	629.757
349.577	21.181	823.311	628.315
350.592	20.908	822.996	627.038
351.606	20.849	822.375	626.295
352.621	21.019	821.661	626.308
353.635	20.920	821.361	625.668
354.650	21.035	821.051	625.787
355.665	21.046	820.516	625.365
356.679	21.262	819.724	625.480
357.694	21.224	819.640	625.225
358.708	21.273	818.857	624.747
359.723	21.235	818.417	624.219
360.738	21.181	818.265	623.855
361.752	21.148	817.562	623.147
362.767	21.166	817.392	623.027
363.781	21.434	817.082	623.690
364.796	21.445	817.128	623.708
365.810	21.572	816.534	623.655
366.825	21.813	815.733	623.843
367.840	21.752	815.847	623.660
368.854	21.807	815.307	623.387
369.869	21.539	814.791	621.984
370.883	21.608	814.047	621.606
371.898	21.673	813.188	621.127
372.913	21.574	812.803	620.427
373.927	21.829	812.125	620.756
374.942	21.742	811.500	619.916
375.956	21.588	810.859	618.828
376.971	21.702	810.452	618.866
377.986	21.786	810.069	618.816
379.000	21.837	809.976	618.868
380.015	22.041	809.280	619.001
381.029	21.998	808.516	618.212
382.044	21.905	807.982	617.420
383.059	21.951	807.235	616.958
384.073	22.001	806.503	616.518
385.088	21.966	805.931	615.905
386.102	21.671	805.141	614.212
387.117	21.561	804.771	613.487
388.132	21.718	804.061	613.444
389.146	21.528	803.773	612.503
390.161	21.589	803.654	612.575
391.175	21.809	803.445	613.130
392.190	21.798	803.535	613.104
393.205	21.950	802.445	612.748
394.219	21.730	801.721	611.374
395.234	21.630	801.337	610.679
396.248	21.614	800.720	610.098
397.263	21.418	800.009	608.822
398.278	21.289	799.700	608.083
399.292	21.306	799.102	607.633
400.307	21.500	798.535	607.821
401.321	21.471	798.469	607.617
402.336	21.409	798.245	607.177
403.350	21.449	798.136	607.182
404.365	21.572	797.511	607.080
405.380	21.794	796.999	607.404
406.394	21.899	796.716	607.498
407.409	22.234	795.950	608.019
408.423	22.262	795.864	607.995
409.438	22.194	795.462	607.401
410.453	22.259	795.260	607.419
411.467	22.424	794.680	607.489
412.482	22.380	794.127	606.860
413.496	22.374	793.890	606.608
414.511	22.488	793.589	606.714
415.526	22.423	793.292	606.212
416.540	22.350	792.743	605.488
417.555	22.296	792.205	604.836
418.569	22.221	791.852	604.253
419.584	22.335	791.067	603.993
420.599	22.491	790.514	604.053
421.613	163.327	1367.971	1796.422
422.628	141.600	1452.132	1796.529
