DTS Sentinel unit serial number:	SN413079Multiplexer serial number:	ORYXHardware model number:	OX4-SRSoftware version number:	ORYX F/W v4.00 Oryx Data Collector v3.7.2.0data status	okinstallation	princeton_trtdifferential loss correction	single-endedforward channel	channel 3reverse channel	N/Adate	2019/09/16time	06:48:35forward acquisition time	60.00reverse acquisition time	0.00gamma	496.2192k internal	0.2335k external	0.2335temperature offset calibration	0.9961default loss term (dB/km)	0.3790temperature slope calibration	1.0000multiplexer offset coefficient	1.0000multiplexer slope coefficient	1.0000fibre end	0.00T internal ref (°C)	27.37T ext. ref 1 (°C)	11.45T ext. ref 2 (°C)	21.84length (m)	temperature (°C)	Stokes	anti-Stokes-747.200	150.764	0.203	0.278
-746.185	765.495	0.041	0.112
-745.171	-100.340	0.135	0.034
-744.156	23.635	-0.161	0.133
-743.142	181.883	0.070	0.103
-742.127	-200.000	-0.004	0.239
-741.112	800.000	0.017	0.064
-740.098	0.663	-0.194	-0.140
-739.083	32.328	-0.114	0.099
-738.069	290.622	0.139	-0.254
-737.054	-200.000	0.005	-0.266
-736.039	-88.971	-0.179	0.053
-735.025	-94.957	0.488	-0.132
-734.010	-200.000	0.056	-0.290
-732.996	218.187	0.020	-0.032
-731.981	800.000	0.073	0.203
-730.966	172.307	-0.065	-0.094
-729.952	328.022	0.151	0.291
-728.937	20.743	-0.165	0.134
-727.923	-77.103	0.168	0.059
-726.908	54.597	-0.227	-0.220
-725.894	-70.348	-0.392	0.149
-724.879	-200.000	-0.000	-0.174
-723.864	232.377	-0.157	-0.259
-722.850	800.000	0.079	-0.318
-721.835	87.085	0.144	-0.159
-720.821	800.000	-0.031	0.113
-719.806	-140.181	0.106	-0.011
-718.791	399.905	0.184	-0.387
-717.777	-54.333	-0.302	0.138
-716.762	-61.048	0.140	0.059
-715.748	183.132	-0.035	-0.052
-714.733	-92.127	-0.215	0.061
-713.718	210.216	0.089	0.140
-712.704	-57.933	0.230	-0.101
-711.689	800.000	-0.124	-0.459
-710.675	7.589	0.173	-0.130
-709.660	-71.105	-0.557	-0.210
-708.645	375.852	0.200	0.409
-707.631	-76.586	0.205	-0.072
-706.616	-45.166	0.242	0.121
-705.602	800.000	0.089	0.284
-704.587	97.625	-0.121	-0.140
-703.572	-187.523	-0.261	0.003
-702.558	152.677	0.246	-0.337
-701.543	800.000	0.139	-0.563
-700.529	-200.000	0.007	0.253
-699.514	-200.000	-0.011	0.234
-698.499	-140.432	-0.374	-0.039
-697.485	617.717	-0.070	0.177
-696.470	800.000	-0.089	-0.347
-695.456	800.000	-0.143	-0.415
-694.441	800.000	-0.018	-0.074
-693.426	-63.069	0.248	0.103
-692.412	147.287	0.122	-0.165
-691.397	800.000	0.063	-0.207
-690.383	616.433	0.095	-0.240
-689.368	-200.000	-0.036	-0.519
-688.354	-200.000	0.040	-0.229
-687.339	-200.000	-0.055	0.368
-686.324	800.000	-0.028	0.093
-685.310	457.235	-0.129	0.287
-684.295	-200.000	0.007	-0.082
-683.281	800.000	-0.043	0.171
-682.266	-55.045	-0.166	-0.075
-681.251	108.220	-0.074	-0.089
-680.237	-84.173	-0.284	0.090
-679.222	-200.000	0.031	-0.193
-678.208	5.205	-0.071	0.052
-677.193	131.631	0.209	0.269
-676.178	-200.000	0.069	-0.321
-675.164	800.000	-0.042	0.136
-674.149	-200.000	-0.004	0.082
-673.135	-8.615	0.084	0.057
-672.120	-8.468	0.202	0.136
-671.105	118.555	0.245	-0.303
-670.091	45.402	-0.195	-0.180
-669.076	-200.000	0.031	0.178
-668.062	20.053	0.162	-0.131
-667.047	-31.240	-0.232	-0.131
-666.032	122.207	0.057	-0.071
-665.018	-120.801	-0.101	-0.017
-664.003	291.227	0.129	-0.235
-662.989	-4.383	-0.030	0.021
-661.974	119.378	0.098	-0.122
-660.959	263.984	0.162	-0.283
-659.945	79.691	-0.168	-0.181
-658.930	310.753	-0.017	0.032
-657.916	-126.823	0.075	-0.011
-656.901	-16.499	-0.166	-0.106
-655.886	-84.259	-0.183	0.058
-654.872	-200.000	-0.062	-0.498
-653.857	-62.987	-0.232	-0.096
-652.843	-21.234	0.049	0.030
-651.828	555.112	-0.081	-0.196
-650.814	91.253	0.059	-0.066
-649.799	390.754	0.084	0.175
-648.784	-43.400	0.193	0.098
-647.770	403.731	-0.109	0.230
-646.755	-102.648	-0.141	-0.034
-645.741	-200.000	-0.057	-0.262
-644.726	-51.864	0.101	0.047
-643.711	85.173	0.279	-0.307
-642.697	77.506	-0.130	-0.138
-641.682	-108.419	0.298	-0.064
-640.668	-200.000	0.008	0.139
-639.653	400.754	0.158	-0.332
-638.638	-97.410	0.215	-0.056
-637.624	5.693	0.074	0.055
-636.609	800.000	-0.141	-0.398
-635.595	35.479	0.238	-0.209
-634.580	-12.069	0.142	-0.093
-633.565	39.376	0.181	0.163
-632.551	108.538	-0.071	0.085
-631.536	-72.538	0.069	-0.026
-630.522	800.000	0.042	-0.151
-629.507	-101.956	-0.121	0.029
-628.492	-143.811	0.112	0.011
-627.478	800.000	0.034	-0.119
-626.463	-200.000	0.038	-0.337
-625.449	-95.425	-0.231	-0.062
-624.434	-101.803	-0.448	0.108
-623.419	800.000	-0.027	-0.108
-622.405	195.468	-0.085	0.130
-621.390	5.492	-0.058	-0.043
-620.376	204.841	-0.200	-0.310
-619.361	-65.052	0.075	0.030
-618.346	-87.963	-0.477	-0.143
-617.332	-200.000	0.000	-0.090
-616.317	-200.000	-0.003	0.298
-615.303	-108.619	-0.404	0.087
-614.288	-200.000	0.024	0.163
-613.273	-200.000	0.015	0.236
-612.259	-131.933	0.114	0.015
-611.244	589.468	-0.175	-0.431
-610.230	-106.958	0.185	-0.041
-609.215	18.923	-0.220	-0.176
-608.201	-150.528	-0.358	0.027
-607.186	112.453	-0.076	-0.092
-606.171	800.000	-0.070	-0.267
-605.157	-11.956	-0.126	-0.083
-604.142	-104.767	0.268	0.062
-603.128	23.171	0.071	-0.058
-602.113	-200.000	0.058	-0.417
-601.098	-200.000	-0.033	-0.208
-600.084	-21.047	0.305	0.187
-599.069	-59.766	-0.310	0.133
-598.055	-94.805	-0.118	0.032
-597.040	800.000	-0.063	0.252
-596.025	444.886	0.016	0.036
-595.011	-200.000	-0.004	-0.096
-593.996	-139.233	-0.299	-0.032
-592.982	-23.560	-0.210	-0.126
-591.967	-126.515	-0.383	0.057
-590.952	-200.000	-0.017	-0.373
-589.938	30.437	0.137	-0.117
-588.923	195.332	-0.113	-0.171
-587.909	271.070	-0.131	0.230
-586.894	-54.144	-0.317	-0.144
-585.879	359.083	0.063	-0.125
-584.865	-42.374	-0.305	-0.156
-583.850	800.000	0.042	0.139
-582.836	-151.297	0.239	-0.018
-581.821	65.765	-0.152	0.154
-580.806	111.451	-0.133	-0.160
-579.792	499.031	-0.203	0.468
-578.777	40.456	0.031	-0.027
-577.763	188.287	-0.051	0.076
-576.748	800.000	-0.068	0.262
-575.733	-34.527	-0.260	-0.142
-574.719	-200.000	-0.001	0.045
-573.704	-15.361	0.219	-0.140
-572.690	106.728	-0.292	-0.346
-571.675	-77.976	0.235	-0.081
-570.661	-54.802	-0.186	-0.084
-569.646	-105.947	0.129	0.029
-568.631	-60.688	0.124	0.052
-567.617	134.137	-0.020	0.026
-566.602	-23.239	-0.107	0.064
-565.588	-48.225	0.247	0.119
-564.573	-96.234	0.177	-0.047
-563.558	-52.295	0.068	0.031
-562.544	-200.000	-0.005	0.234
-561.529	318.383	-0.057	0.107
-560.515	-26.588	-0.255	0.149
-559.500	-37.837	0.207	-0.110
-558.485	-36.193	-0.169	-0.091
-557.471	793.814	0.018	0.048
-556.456	-24.607	0.360	-0.214
-555.442	-83.341	0.334	-0.107
-554.427	-107.821	0.388	-0.084
-553.412	-200.000	-0.009	0.189
-552.398	547.116	0.076	-0.182
-551.383	-200.000	0.012	0.122
-550.369	551.303	-0.087	0.209
-549.354	-71.398	0.300	-0.112
-548.339	-200.000	0.051	0.229
-547.325	24.093	-0.105	0.086
-546.310	166.042	0.178	-0.252
-545.296	-99.374	-0.298	-0.075
-544.281	-200.000	0.014	0.225
-543.266	553.130	0.063	0.150
-542.252	-105.156	0.162	-0.037
-541.237	25.973	-0.052	0.043
-540.223	102.775	-0.181	0.212
-539.208	-200.000	-0.026	0.490
-538.193	-200.000	-0.013	0.065
-537.179	27.828	0.279	0.234
-536.164	142.727	0.046	0.061
-535.150	-31.443	0.236	0.132
-534.135	36.530	0.191	0.168
-533.121	-200.000	0.004	0.068
-532.106	207.247	-0.239	-0.371
-531.091	-171.282	-0.193	-0.006
-530.077	-91.283	-0.276	-0.079
-529.062	629.912	-0.051	-0.129
-528.048	132.018	0.078	-0.100
-527.033	30.878	0.110	0.093
-526.018	-133.673	-0.239	0.030
-525.004	295.250	-0.085	0.155
-523.989	65.096	0.094	-0.095
-522.975	-72.745	-0.303	-0.111
-521.960	346.814	-0.097	-0.190
-520.945	-16.858	-0.407	0.256
-519.931	800.000	0.089	-0.278
-518.916	-132.585	0.371	-0.047
-517.902	38.664	-0.282	0.250
-516.887	-200.000	-0.049	0.324
-515.872	-200.000	-0.026	-0.125
-514.858	-148.315	-0.251	0.021
-513.843	800.000	-0.050	-0.216
-512.829	-200.000	-0.021	0.128
-511.814	-37.601	0.229	0.121
-510.799	-166.346	-0.406	0.017
-509.785	-5.880	-0.364	0.248
-508.770	800.000	-0.029	-0.113
-507.756	-24.960	-0.068	-0.040
-506.741	-46.974	-0.224	-0.109
-505.726	45.431	-0.022	-0.020
-504.712	-60.863	0.113	0.047
-503.697	779.457	0.067	-0.182
-502.683	-46.789	-0.088	0.043
-501.668	18.782	0.068	-0.054
-500.653	-115.239	-0.295	-0.055
-499.639	800.000	-0.091	0.324
-498.624	139.754	0.135	0.177
-497.610	208.269	-0.318	-0.495
-496.595	-103.191	-0.311	-0.073
-495.581	-77.724	-0.075	0.026
-494.566	-200.000	-0.010	0.341
-493.551	-88.628	-0.026	0.008
-492.537	-162.829	-0.029	-0.001
-491.522	-71.966	-0.508	-0.188
-490.508	-24.838	0.070	-0.041
-489.493	-92.508	0.143	-0.040
-488.478	-79.801	-0.305	-0.102
-487.464	-112.470	0.018	0.004
-486.449	-95.984	-0.155	0.041
-485.435	-200.000	-0.009	0.372
-484.420	-102.450	0.321	0.076
-483.405	-61.344	-0.106	-0.045
-482.391	-95.127	-0.411	-0.110
-481.376	800.000	0.030	0.083
-480.362	-200.000	-0.009	0.048
-479.347	770.699	-0.098	0.266
-478.332	-54.318	0.079	0.035
-477.318	132.938	-0.068	-0.087
-476.303	218.806	0.068	-0.108
-475.289	-132.689	-0.050	-0.006
-474.274	-111.913	0.211	0.042
-473.259	-200.000	0.029	0.486
-472.245	21.029	0.150	0.121
-471.230	-200.000	0.011	0.184
-470.216	-114.720	-0.140	0.027
-469.201	170.387	-0.109	-0.154
-468.186	41.064	0.279	-0.251
-467.172	-106.624	0.349	-0.077
-466.157	-200.000	0.019	0.191
-465.143	332.377	-0.050	0.096
-464.128	164.747	0.255	-0.358
-463.113	-200.000	0.076	-0.357
-462.099	-200.000	0.020	0.366
-461.084	11.092	0.334	-0.254
-460.070	-152.366	-0.028	-0.002
-459.055	120.107	0.106	-0.131
-458.040	-145.042	0.293	0.027
-457.026	-47.870	0.245	0.118
-456.011	147.717	-0.051	0.069
-454.997	800.000	0.079	-0.333
-453.982	-47.471	-0.262	0.127
-452.968	-200.000	0.030	0.156
-451.953	601.736	0.134	-0.331
-450.938	-119.280	-0.077	-0.013
-449.924	52.344	0.074	0.070
-448.909	800.000	-0.008	-0.030
-447.895	-140.516	-0.185	-0.019
-446.880	115.781	0.129	-0.156
-445.865	13.966	0.075	-0.058
-444.851	800.000	-0.087	-0.300
-443.836	6.263	-0.234	-0.172
-442.822	-81.637	0.099	-0.032
-441.807	92.987	0.305	-0.343
-440.792	-126.974	0.183	0.027
-439.778	-143.609	-0.182	-0.017
-438.763	-200.000	-0.045	-0.244
-437.749	-200.000	-0.021	0.170
-436.734	800.000	-0.032	0.094
-435.719	378.396	-0.094	0.191
-434.705	-95.648	0.146	-0.039
-433.690	800.000	-0.039	-0.128
-432.676	-5.116	-0.117	0.080
-431.661	84.872	0.229	-0.249
-430.646	800.000	0.049	-0.186
-429.632	-155.845	0.205	-0.013
-428.617	-57.118	0.165	-0.072
-427.603	800.000	0.124	-0.362
-426.588	-200.000	0.014	-0.143
-425.573	-37.857	0.202	-0.107
-424.559	-200.000	0.001	-0.133
-423.544	4.440	-0.113	0.083
-422.530	-174.319	-0.191	0.005
-421.515	-200.000	-0.003	-0.108
-420.500	-43.541	-0.219	-0.110
-419.486	43.323	0.242	0.220
-418.471	-6.691	0.067	-0.045
-417.457	11.737	0.287	0.218
-416.442	-200.000	0.007	-0.051
-415.428	800.000	0.036	-0.144
-414.413	-123.394	-0.151	-0.024
-413.398	-89.878	0.287	0.083
-412.384	16.705	-0.222	0.174
-411.369	-140.432	-0.211	-0.022
-410.355	244.912	-0.143	0.238
-409.340	152.936	0.062	0.084
-408.325	158.612	-0.226	0.311
-407.311	522.454	0.028	-0.066
-406.296	-200.000	-0.027	0.276
-405.282	-107.614	-0.104	0.023
-404.267	462.451	0.113	0.250
-403.252	-200.000	0.004	0.179
-402.238	-150.909	-0.307	0.023
-401.223	9.249	0.272	0.204
-400.209	256.781	-0.081	-0.138
-399.194	-106.618	0.200	0.044
-398.179	348.185	0.120	-0.234
-397.165	800.000	-0.067	0.218
-396.150	800.000	0.047	0.154
-395.136	611.358	-0.076	-0.187
-394.121	-139.689	0.261	-0.027
-393.106	19.558	0.069	0.055
-392.092	112.860	0.117	-0.141
-391.077	100.036	-0.165	0.189
-390.063	-200.000	-0.006	0.119
-389.048	-52.556	-0.276	-0.126
-388.033	-162.978	0.145	0.007
-387.019	-50.604	0.055	0.026
-386.004	100.067	-0.108	0.124
-384.990	-135.765	-0.265	0.031
-383.975	-79.530	-0.246	-0.082
-382.960	-110.529	0.079	0.016
-381.946	-69.797	0.337	-0.127
-380.931	147.539	0.105	0.140
-379.917	36.440	0.249	-0.218
-378.902	-78.829	0.114	0.038
-377.888	-98.692	-0.215	0.054
-376.873	-27.193	0.368	0.212
-375.858	-112.795	0.392	-0.077
-374.844	32.113	0.150	0.128
-373.829	-93.197	-0.301	0.083
-372.815	-162.457	-0.253	-0.012
-371.800	-64.713	-0.311	-0.125
-370.785	800.000	0.099	0.279
-369.771	590.393	0.124	0.302
-368.756	-70.830	-0.190	-0.071
-367.742	-200.000	-0.012	-0.198
-366.727	800.000	-0.057	0.198
-365.712	-166.539	0.134	-0.006
-364.698	121.883	0.170	-0.211
-363.683	-71.581	-0.269	0.099
-362.669	-80.892	0.259	-0.085
-361.654	-108.346	-0.097	0.021
-360.639	30.231	-0.262	-0.222
-359.625	800.000	-0.018	0.066
-358.610	-73.159	-0.096	-0.035
-357.596	-200.000	0.002	-0.039
-356.581	8.810	-0.214	0.160
-355.566	-66.946	0.101	-0.040
-354.552	412.644	-0.158	-0.332
-353.537	-11.260	0.233	-0.152
-352.523	42.796	-0.072	0.065
-351.508	38.102	0.247	-0.217
-350.493	44.731	-0.201	-0.183
-349.479	52.777	0.296	-0.280
-348.464	-200.000	0.053	-0.355
-347.450	-67.727	0.149	-0.057
-346.435	688.145	-0.075	-0.194
-345.420	-76.720	-0.121	0.042
-344.406	0.613	0.101	0.072
-343.391	319.980	0.142	0.267
-342.377	800.000	0.048	-0.191
-341.362	-200.000	0.003	0.019
-340.348	664.002	-0.034	0.087
-339.333	-200.000	0.049	0.212
-338.318	-102.236	0.074	-0.018
-337.304	59.576	0.251	-0.245
-336.289	84.300	-0.053	0.058
-335.275	86.131	0.093	0.102
-334.260	74.752	-0.132	0.137
-333.245	-200.000	-0.002	0.083
-332.231	183.644	-0.057	-0.084
-331.216	800.000	0.084	-0.327
-330.202	-138.865	-0.288	-0.031
-329.187	122.215	0.126	0.155
-328.172	-141.238	-0.147	0.015
-327.158	800.000	-0.031	0.123
-326.143	-103.178	0.127	0.030
-325.129	191.614	-0.043	0.065
-324.114	-161.806	-0.330	0.017
-323.099	108.440	0.091	0.107
-322.085	167.765	0.069	-0.097
-321.070	-73.656	0.181	-0.065
-320.056	-25.692	-0.270	-0.157
-319.041	-200.000	-0.005	0.159
-318.026	-200.000	0.148	-0.000
-317.012	-121.740	0.426	0.070
-315.997	-53.645	-0.457	-0.206
-314.983	104.703	-0.152	0.177
-313.968	-31.929	0.092	0.051
-312.953	-200.000	-0.016	0.180
-311.939	32.886	0.139	-0.119
-310.924	-36.360	0.208	0.111
-309.910	419.745	0.123	-0.260
-308.895	-200.000	-0.033	-0.223
-307.880	-200.000	-0.019	0.249
-306.866	-74.899	0.241	-0.085
-305.851	-200.000	-0.009	-0.253
-304.837	-64.585	0.043	0.017
-303.822	242.452	-0.024	-0.040
-302.807	-100.589	0.409	-0.100
-301.793	-31.869	-0.090	-0.050
-300.778	597.211	-0.066	0.162
-299.764	89.788	-0.115	0.126
-298.749	-46.802	0.221	0.107
-297.735	-51.728	-0.234	-0.107
-296.720	116.294	-0.194	-0.235
-295.705	-114.400	0.174	0.033
-294.691	-128.360	0.254	0.036
-293.676	31.193	-0.279	-0.236
-292.662	233.299	0.077	0.124
-291.647	-88.798	0.408	-0.119
-290.632	69.548	0.091	-0.092
-289.618	102.476	-0.099	-0.115
-288.603	-42.387	0.302	0.152
-287.589	-57.386	-0.189	0.082
-286.574	800.000	-0.034	0.112
-285.559	80.708	-0.081	-0.087
-284.545	-200.000	-0.017	-0.157
-283.530	26.335	0.166	0.137
-282.516	800.000	-0.074	0.260
-281.501	-200.000	-0.039	0.214
-280.486	-92.655	0.303	0.084
-279.472	30.129	-0.084	-0.070
-278.457	-200.000	0.002	0.056
-277.443	706.649	0.109	0.283
-276.428	-151.498	-0.155	-0.011
-275.413	-123.597	0.159	-0.025
-274.399	800.000	0.107	0.343
-273.384	-200.000	0.210	0.001
-272.370	-19.352	-0.186	-0.114
-271.355	-108.702	-0.080	-0.017
-270.340	8.533	-0.309	0.229
-269.326	-68.377	-0.376	-0.144
-268.311	-108.943	-0.037	0.008
-267.297	-76.398	0.112	0.039
-266.282	-44.068	-0.163	0.081
-265.267	-200.000	0.085	0.421
-264.253	-126.942	-0.333	0.048
-263.238	-30.549	-0.052	-0.029
-262.224	80.968	-0.265	-0.282
-261.209	126.407	0.134	0.167
-260.195	-38.875	-0.158	0.082
-259.180	157.692	-0.066	-0.090
-258.165	-61.128	0.049	0.020
-257.151	-83.591	-0.147	-0.046
-256.136	77.433	-0.429	-0.450
-255.122	-93.338	0.327	0.089
-254.107	-21.326	-0.222	0.133
-253.092	227.766	0.085	0.137
-252.078	-200.000	-0.014	0.155
-251.063	731.537	-0.090	0.237
-250.049	-123.917	0.332	0.052
-249.034	287.089	-0.089	0.159
-248.019	800.000	0.065	-0.206
-247.005	800.000	-0.040	-0.146
-245.990	50.112	-0.307	0.286
-244.976	-166.077	0.374	-0.016
-243.961	0.430	0.281	0.198
-242.946	61.475	0.097	-0.095
-241.932	-200.000	0.005	-0.120
-240.917	-70.210	-0.226	0.085
-239.903	4.194	0.125	-0.090
-238.888	-4.753	0.070	-0.048
-237.873	43.005	-0.129	0.116
-236.859	800.000	0.024	-0.104
-235.844	800.000	0.043	0.147
-234.830	623.410	0.051	0.127
-233.815	-62.693	-0.414	-0.169
-232.800	76.813	0.190	-0.198
-231.786	-200.000	0.023	0.121
-230.771	-56.837	-0.332	0.144
-229.757	177.467	0.061	-0.087
-228.742	10.526	-0.268	-0.201
-227.727	-165.933	0.434	-0.018
-226.713	198.385	0.038	-0.058
-225.698	-200.000	0.037	0.538
-224.684	-200.000	0.069	-0.366
-223.669	800.000	0.050	-0.175
-222.655	-11.493	0.175	-0.113
-221.640	58.493	-0.159	0.153
-220.625	36.140	0.330	0.286
-219.611	-80.532	0.221	0.073
-218.596	221.468	0.241	-0.380
-217.582	-178.028	-0.120	0.003
-216.567	-120.637	-0.270	-0.045
-215.552	-120.622	0.183	-0.030
-214.538	800.000	0.045	0.192
-213.523	-23.477	-0.177	0.105
-212.509	-87.498	0.259	-0.077
-211.494	-58.572	-0.166	-0.071
-210.479	-79.076	-0.241	-0.080
-209.465	-40.929	0.265	0.135
-208.450	-67.775	0.117	-0.045
-207.436	58.634	0.308	0.298
-206.421	800.000	0.034	-0.126
-205.406	-42.642	-0.251	0.126
-204.392	331.773	0.117	0.223
-203.377	800.000	-0.058	-0.191
-202.363	-131.177	-0.137	0.018
-201.348	132.656	0.091	0.116
-200.333	28.315	0.172	-0.143
-199.319	16.650	-0.196	0.152
-198.304	-200.000	-0.019	0.160
-197.290	207.819	-0.101	0.154
-196.275	800.000	-0.014	-0.061
-195.260	-115.052	-0.294	-0.055
-194.246	139.175	-0.024	-0.031
-193.231	-34.364	0.158	0.085
-192.217	231.525	-0.123	0.199
-191.202	372.019	0.049	0.098
-190.187	-141.523	-0.322	-0.032
-189.173	-60.216	0.240	0.100
-188.158	-200.000	-0.010	0.151
-187.144	-200.000	0.076	0.355
-186.129	-67.558	0.135	-0.052
-185.114	338.051	-0.078	-0.149
-184.100	-52.846	0.433	0.196
-183.085	-115.361	-0.186	0.035
-182.071	-200.000	0.024	-0.348
-181.056	-97.356	0.039	0.010
-180.042	139.536	0.139	0.180
-179.027	800.000	0.219	0.620
-178.012	94.245	0.149	0.166
-176.998	74.084	0.080	0.082
-175.983	-200.000	0.034	-0.167
-174.969	39.517	0.327	-0.288
-173.954	-39.624	0.309	0.159
-172.939	800.000	-0.040	0.117
-171.925	-200.000	-0.052	0.468
-170.910	-53.383	-0.117	0.053
-169.896	-129.718	0.348	-0.047
-168.881	137.985	-0.045	-0.058
-167.866	-175.023	0.144	-0.004
-166.852	-17.277	-0.184	-0.114
-165.837	-200.000	0.021	-0.543
-164.823	-200.000	-0.017	0.189
-163.808	-67.770	-0.326	-0.125
-162.793	-105.407	-0.048	0.011
-161.779	-40.625	-0.251	0.128
-160.764	-29.925	-0.136	-0.076
-159.750	-14.986	0.449	-0.283
-158.735	-56.925	0.215	-0.093
-157.720	-200.000	-0.004	-0.276
-156.706	-200.000	-0.034	0.362
-155.691	-200.000	0.027	-0.123
-154.677	800.000	0.067	-0.199
-153.662	-200.000	0.002	-0.019
-152.647	48.448	0.118	-0.108
-151.633	89.945	-0.101	-0.111
-150.618	-192.961	0.031	0.000
-149.604	4.531	0.192	0.138
-148.589	800.000	-0.037	0.116
-147.574	-113.255	0.070	-0.013
-146.560	224.579	0.038	0.061
-145.545	43.450	-0.242	0.217
-144.531	-42.527	0.195	-0.097
-143.516	-22.776	0.146	-0.087
-142.502	-129.676	-0.036	-0.005
-141.487	256.803	0.192	0.324
-140.472	-12.313	0.188	-0.121
-139.458	-55.387	-0.252	-0.111
-138.443	96.472	0.076	0.085
-137.429	189.991	-0.156	-0.229
-136.414	-96.783	-0.486	-0.125
-135.399	-200.000	-0.085	-0.382
-134.385	-91.763	0.165	-0.046
-133.370	494.046	-0.228	0.514
-132.356	405.327	0.163	-0.336
-131.341	241.055	-0.134	0.219
-130.326	269.559	-0.139	-0.240
-129.312	-67.694	0.139	0.053
-128.297	-89.204	-0.385	-0.111
-127.283	-200.000	-0.003	-0.222
-126.268	-58.169	-0.056	0.024
-125.253	-59.017	-0.028	0.012
-124.239	419.097	0.180	0.377
-123.224	81.594	-0.127	0.135
-122.210	51.159	0.054	0.050
-121.195	426.404	-0.215	0.454
-120.180	800.000	0.021	0.061
-119.166	-126.148	-0.120	-0.018
-118.151	239.787	0.241	-0.393
-117.137	-26.825	0.281	0.161
-116.122	0.762	-0.033	0.023
-115.107	-200.000	-0.009	0.178
-114.093	-23.403	0.232	0.136
-113.078	-38.305	-0.578	-0.300
-112.064	460.155	0.045	0.099
-111.049	-45.790	0.050	0.024
-110.034	-200.000	-0.014	0.471
-109.020	7.782	-0.222	-0.163
-108.005	-200.000	-0.017	0.082
-106.991	-95.299	0.152	-0.040
-105.976	-200.000	0.029	-0.154
-104.962	33.913	0.251	-0.214
-103.947	-95.713	-0.175	-0.046
-102.932	143.355	0.231	-0.301
-101.918	-200.000	-0.076	-0.336
-100.903	-42.010	-0.333	-0.167
-99.889	46.240	-0.179	0.163
-98.874	-94.362	0.414	0.111
-97.859	800.000	-0.081	0.316
-96.845	62.498	-0.139	-0.136
-95.830	-88.872	0.139	0.041
-94.816	-188.060	-0.171	-0.002
-93.801	122.833	0.162	-0.198
-92.786	455.039	0.079	0.172
-91.772	192.526	-0.037	-0.055
-90.757	116.872	0.120	-0.145
-89.743	-112.417	0.197	0.039
-88.728	762.963	0.129	0.343
-87.713	189.048	-0.094	0.138
-86.699	346.008	-0.178	-0.342
-85.684	381.151	-0.077	-0.155
-84.670	144.136	0.123	0.160
-83.655	-188.557	0.279	0.003
-82.640	307.661	-0.048	-0.088
-81.626	-66.915	-0.197	-0.076
-80.611	-200.000	0.008	-0.098
-79.597	-50.006	-0.152	0.071
-78.582	800.000	0.026	-0.106
-77.567	-83.755	0.255	-0.080
-76.553	-200.000	0.015	-0.106
-75.538	180.862	-0.066	0.095
-74.524	-108.444	0.066	0.014
-73.509	83.483	-0.261	-0.278
-72.494	-103.700	-0.219	-0.050
-71.480	800.000	0.059	0.248
-70.465	-78.740	0.143	0.048
-69.451	187.849	-0.168	0.246
-68.436	-200.000	-0.035	-0.243
-67.422	27.948	0.278	-0.230
-66.407	-0.696	0.094	-0.065
-65.392	-144.068	-0.170	-0.016
-64.378	800.000	-0.138	0.527
-63.363	-121.979	0.124	0.020
-62.349	254.365	0.129	0.217
-61.334	14.180	-1.364	-1.040
-60.319	67.421	0.579	0.578
-59.305	-200.000	-0.156	-1.193
-58.290	39.315	0.892	0.781
-57.276	800.000	0.516	1.742
-56.261	-200.000	114.040	643.796
-55.246	465.000	1512.476	3309.396
-54.232	146.747	2680.695	3523.792
-53.217	102.739	2179.255	2494.399
-52.203	37.782	1706.148	1482.125
-51.188	30.307	1523.787	1272.630
-50.173	28.291	1498.328	1237.703
-49.159	52.486	1556.231	1452.733
-48.144	51.006	1572.073	1457.290
-47.130	30.784	1528.230	1279.413
-46.115	27.640	1513.631	1245.699
-45.100	27.386	1510.299	1241.180
-44.086	27.353	1508.175	1239.160
-43.071	27.388	1506.035	1237.588
-42.057	27.351	1504.243	1235.816
-41.042	27.307	1502.866	1234.337
-40.027	27.336	1501.969	1233.750
-39.013	27.349	1499.774	1231.984
-37.998	27.325	1498.872	1231.034
-36.984	27.332	1497.845	1230.191
-35.969	27.350	1496.054	1228.788
-34.954	27.245	1495.062	1227.216
-33.940	27.297	1493.449	1226.196
-32.925	27.433	1491.715	1225.635
-31.911	27.468	1490.542	1224.863
-30.896	27.406	1489.162	1223.260
-29.881	27.434	1488.397	1222.773
-28.867	27.440	1486.904	1221.539
-27.852	27.437	1485.553	1220.356
-26.838	27.434	1484.639	1219.540
-25.823	27.382	1482.977	1217.781
-24.809	27.458	1480.836	1216.483
-23.794	27.405	1479.647	1215.101
-22.779	27.414	1478.668	1214.308
-21.765	27.326	1477.942	1213.076
-20.750	27.420	1476.299	1212.308
-19.736	27.516	1474.847	1211.705
-18.721	27.352	1474.592	1210.360
-17.706	27.404	1473.159	1209.481
-16.692	27.446	1471.934	1208.702
-15.677	27.353	1470.787	1207.096
-14.663	27.314	1470.241	1206.343
-13.648	27.345	1469.143	1205.598
-12.633	27.282	1468.730	1204.794
-11.619	27.381	1467.677	1204.536
-10.604	27.380	1466.891	1203.841
-9.590	27.339	1465.957	1202.751
-8.575	27.476	1464.765	1202.632
-7.560	27.346	1464.211	1201.273
-6.546	27.369	1463.302	1200.631
-5.531	27.332	1462.193	1199.429
-4.517	27.367	1461.076	1198.698
-3.502	27.290	1460.659	1197.796
-2.487	27.306	1459.364	1196.795
-1.473	27.292	1458.398	1195.861
-0.458	27.335	1456.887	1194.858
0.556	25.801	1447.460	1183.548
1.571	22.853	1422.501	1143.971
2.586	19.645	1362.844	1075.952
3.600	18.081	1280.577	1001.758
4.615	16.984	1235.957	960.556
5.629	16.430	1182.970	916.292
6.644	14.124	1107.275	845.870
7.659	11.829	1073.723	808.838
8.673	11.508	1069.037	803.653
9.688	11.455	1065.683	800.800
10.702	11.430	1063.600	799.043
11.717	11.408	1062.038	797.693
12.731	12.288	1061.317	801.377
13.746	14.863	1064.462	816.268
14.761	17.151	1067.280	829.545
15.775	17.897	1066.652	832.623
16.790	17.325	1064.724	828.263
17.804	16.049	1062.813	820.494
18.819	15.129	1061.112	814.634
19.834	14.698	1059.030	810.874
20.848	14.387	1058.571	808.938
21.863	14.073	1057.823	806.774
22.877	13.942	1056.613	805.142
23.892	13.754	1056.141	803.800
24.907	13.537	1055.331	802.062
25.921	13.579	1054.562	801.609
26.936	13.613	1053.573	800.952
27.950	13.763	1052.195	800.559
28.965	13.606	1051.732	799.380
29.980	13.677	1050.510	798.721
30.994	13.901	1049.261	798.778
32.009	13.843	1048.829	798.097
33.023	13.787	1048.019	797.144
34.038	13.878	1047.365	797.013
35.053	13.847	1045.733	795.550
36.067	13.672	1045.140	794.192
37.082	13.738	1044.228	793.744
38.096	13.807	1043.471	793.429
39.111	13.879	1042.624	793.058
40.126	13.760	1041.938	791.896
41.140	13.771	1040.390	790.704
42.155	13.628	1039.590	789.346
43.169	13.431	1039.009	787.896
44.184	13.627	1037.716	787.779
45.199	13.506	1036.271	786.039
46.213	13.603	1035.061	785.510
47.228	13.655	1034.310	785.114
48.242	13.455	1034.321	784.108
49.257	13.676	1032.416	783.637
50.271	13.690	1031.744	783.127
51.286	13.797	1030.751	782.807
52.301	13.856	1029.585	782.130
53.315	13.724	1029.122	781.087
54.330	13.731	1028.108	780.280
55.344	13.620	1027.571	779.281
56.359	13.551	1026.740	778.260
57.374	13.729	1025.475	778.067
58.388	13.668	1024.507	776.979
59.403	13.694	1023.675	776.398
60.417	13.672	1022.908	775.649
61.432	13.540	1022.577	774.711
62.447	13.568	1021.782	774.170
63.461	13.514	1020.467	772.855
64.476	13.549	1019.534	772.240
65.490	13.491	1019.116	771.584
66.505	13.342	1018.294	770.202
67.520	13.538	1017.106	770.148
68.534	13.546	1016.752	769.848
69.549	13.660	1015.185	769.122
70.563	13.424	1015.329	768.070
71.578	13.452	1014.367	767.403
72.593	13.550	1012.955	766.718
73.607	13.455	1012.063	765.538
74.622	13.407	1011.497	764.819
75.636	13.457	1010.611	764.315
76.651	13.434	1009.783	763.513
77.666	13.418	1009.194	762.926
78.680	13.343	1008.633	762.088
79.695	13.428	1007.930	761.884
80.709	13.389	1007.517	761.323
81.724	13.476	1006.602	760.964
82.739	13.593	1005.299	760.447
83.753	13.553	1004.587	759.660
84.768	13.629	1003.964	759.469
85.782	13.692	1003.601	759.417
86.797	13.902	1002.309	759.333
87.812	13.791	1001.421	758.083
88.826	13.826	1000.517	757.493
89.841	13.700	1000.211	756.617
90.855	13.792	999.182	756.193
91.870	13.790	998.289	755.441
92.884	13.743	997.978	754.925
93.899	13.814	996.889	754.356
94.914	13.788	996.370	753.782
95.928	13.926	995.606	753.761
96.943	13.858	994.746	752.736
97.957	13.803	993.780	751.691
98.972	13.921	992.680	751.324
99.987	13.841	992.541	750.789
101.001	13.898	991.393	750.112
102.016	13.760	990.926	749.071
103.030	13.761	989.438	747.882
104.045	13.835	988.721	747.611
105.060	13.810	988.085	746.950
106.074	13.647	987.186	745.472
107.089	13.728	985.755	744.687
108.103	13.743	985.156	744.238
109.118	13.659	984.376	743.206
110.133	13.689	983.856	742.880
111.147	13.710	982.347	741.772
112.162	13.688	981.523	740.985
113.176	13.684	981.186	740.646
114.191	13.617	980.402	739.689
115.206	13.601	979.117	738.582
116.220	13.790	978.486	738.885
117.235	13.692	977.585	737.701
118.249	13.534	977.019	736.508
119.264	13.642	976.128	736.251
120.279	13.715	974.997	735.654
121.293	13.655	974.295	734.797
122.308	13.588	973.616	733.922
123.322	13.801	972.123	733.673
124.337	13.541	971.697	732.138
125.352	13.523	970.170	730.841
126.366	13.532	969.453	730.277
127.381	13.569	968.432	729.605
128.395	13.551	967.280	728.595
129.410	13.661	966.456	728.395
130.424	13.514	965.450	726.925
131.439	13.719	964.219	726.832
132.454	13.583	964.241	726.189
133.468	13.605	963.223	725.453
134.483	13.835	962.354	725.744
135.497	13.817	961.821	725.196
136.512	13.644	961.339	724.015
137.527	13.675	960.365	723.353
138.541	13.734	959.424	722.835
139.556	13.710	958.845	722.232
140.570	13.667	958.597	721.792
141.585	13.759	957.228	721.099
142.600	13.769	956.853	720.797
143.614	13.902	956.044	720.699
144.629	13.865	955.609	720.145
145.643	13.904	954.636	719.520
146.658	13.870	953.702	718.607
147.673	14.000	952.477	718.179
148.687	13.818	951.946	716.931
149.702	13.840	951.103	716.326
150.716	13.704	950.290	715.066
151.731	13.886	948.916	714.750
152.746	13.801	948.515	714.020
153.760	13.870	947.751	713.677
154.775	13.873	947.042	713.093
155.789	13.957	946.160	712.729
156.804	13.962	945.421	712.129
157.819	13.936	944.827	711.506
158.833	13.863	944.606	710.963
159.848	13.933	944.067	710.796
160.862	14.094	942.567	710.293
161.877	14.012	941.896	709.375
162.892	14.034	940.618	708.442
163.906	13.964	940.060	707.663
164.921	13.992	939.636	707.397
165.935	13.900	938.472	706.068
166.950	13.932	937.473	705.390
167.964	14.032	936.401	704.944
168.979	14.085	935.699	704.578
169.994	13.889	934.642	702.891
171.008	13.958	934.073	702.694
172.023	14.018	933.272	702.282
173.037	14.124	932.189	701.851
174.052	14.011	931.885	701.085
175.067	14.038	930.983	700.456
176.081	13.950	930.523	699.680
177.096	13.905	929.497	698.656
178.110	13.983	928.720	698.337
179.125	14.056	928.026	698.059
180.140	13.991	927.493	697.325
181.154	13.980	926.582	696.532
182.169	13.976	926.110	696.102
183.183	14.110	925.469	696.116
184.198	14.284	924.359	695.947
185.213	14.207	923.781	695.132
186.227	14.229	923.234	694.748
187.242	14.230	922.501	694.138
188.256	14.302	922.099	694.074
189.271	14.230	921.325	693.133
190.286	14.328	920.709	693.014
191.300	14.179	919.965	691.774
192.315	14.195	918.883	690.967
193.329	13.987	918.094	689.447
194.344	13.980	917.728	689.084
195.359	14.086	917.108	688.996
196.373	14.213	916.211	688.788
197.388	14.375	915.721	689.026
198.402	14.285	915.513	688.439
199.417	14.396	915.027	688.469
200.432	14.386	914.700	688.122
201.446	14.478	914.210	688.072
202.461	14.540	913.755	687.924
203.475	14.501	913.266	687.334
204.490	14.551	912.595	686.975
205.504	14.480	911.508	685.803
206.519	14.407	910.701	684.838
207.534	14.396	910.055	684.243
208.548	14.332	909.371	683.406
209.563	14.524	908.387	683.393
210.577	14.429	907.780	682.487
211.592	14.435	907.012	681.876
212.607	14.525	906.860	682.069
213.621	14.669	906.479	682.312
214.636	14.579	905.567	681.197
215.650	14.607	905.070	680.875
216.665	14.436	904.541	679.719
217.680	14.627	903.809	679.890
218.694	14.604	903.659	679.622
219.709	14.745	902.805	679.493
220.723	14.704	901.942	678.616
221.738	14.757	901.286	678.278
222.753	14.782	899.975	677.333
223.767	14.754	899.593	676.874
224.782	14.724	899.345	676.503
225.796	14.875	898.258	676.238
226.811	14.845	897.835	675.736
227.826	14.828	897.197	675.131
228.840	14.871	896.307	674.573
229.855	14.783	895.562	673.597
230.869	14.793	894.905	673.083
231.884	14.976	894.087	673.145
232.899	14.852	893.516	672.159
233.913	14.722	893.047	671.223
234.928	14.814	892.132	670.844
235.942	14.763	891.789	670.323
236.957	14.754	890.856	669.526
237.972	14.859	890.455	669.589
238.986	14.796	889.734	668.733
240.001	14.812	888.872	668.091
241.015	14.853	888.206	667.693
242.030	14.929	887.524	667.425
243.045	14.854	886.946	666.633
244.059	15.006	886.015	666.481
245.074	14.907	885.818	665.877
246.088	14.880	885.052	665.136
247.103	14.925	884.668	664.969
248.117	14.951	884.032	664.533
249.132	15.194	883.139	664.769
250.147	15.118	883.058	664.349
251.161	15.033	882.598	663.607
252.176	15.254	881.435	663.547
253.190	15.292	880.797	663.159
254.205	15.318	880.225	662.774
255.220	15.504	879.671	663.029
256.234	15.347	879.002	661.848
257.249	15.330	878.559	661.389
258.263	15.350	878.203	661.143
259.278	15.445	877.031	660.574
260.293	15.454	876.664	660.275
261.307	15.339	876.272	659.470
262.322	15.371	875.633	659.058
263.336	15.402	875.326	658.887
264.351	15.532	874.629	658.814
265.366	15.366	873.975	657.615
266.380	15.612	873.216	657.949
267.395	15.643	872.132	657.194
268.409	15.591	871.855	656.722
269.424	15.440	871.347	655.694
270.439	15.453	870.307	654.904
271.453	15.446	869.763	654.410
272.468	15.499	868.814	653.843
273.482	15.590	868.006	653.529
274.497	15.430	867.896	652.770
275.512	15.549	867.223	652.667
276.526	15.611	866.009	651.936
277.541	15.468	865.737	651.121
278.555	15.594	865.287	651.212
279.570	15.609	864.682	650.757
280.585	15.700	864.228	650.711
281.599	15.748	863.589	650.355
282.614	15.744	862.819	649.705
283.628	15.657	862.289	648.911
284.643	15.569	861.899	648.221
285.657	15.754	861.059	648.246
286.672	15.740	861.085	648.152
287.687	15.707	860.198	647.302
288.701	15.780	859.774	647.204
289.716	15.754	859.223	646.632
290.730	16.004	858.213	646.776
291.745	15.861	857.909	645.942
292.760	15.943	856.989	645.503
293.774	15.936	856.333	644.928
294.789	15.896	855.847	644.351
295.803	15.807	855.410	643.623
296.818	15.823	854.664	643.067
297.833	15.973	854.085	643.146
298.847	15.757	853.663	641.949
299.862	15.930	852.666	641.802
300.876	15.906	852.030	641.174
301.891	16.083	850.986	641.006
302.906	16.149	850.786	641.048
303.920	16.035	849.959	639.936
304.935	16.051	849.586	639.660
305.949	16.161	849.110	639.661
306.964	16.210	848.277	639.164
307.979	16.170	847.821	638.610
308.993	16.070	847.455	637.902
310.008	16.208	846.884	637.938
311.022	16.130	846.391	637.213
312.037	16.183	845.935	637.014
313.052	16.175	845.308	636.454
314.066	16.106	844.629	635.628
315.081	16.205	843.641	635.202
316.095	16.279	843.051	634.979
317.110	16.039	843.259	634.176
318.125	16.124	842.607	633.949
319.139	16.034	842.087	633.165
320.154	16.122	841.890	633.289
321.168	16.181	841.413	633.096
322.183	16.322	840.262	632.704
323.197	16.121	840.046	631.731
324.212	16.145	839.318	631.219
325.227	16.215	838.770	631.011
326.241	16.455	838.032	631.297
327.256	16.291	837.418	630.166
328.270	16.226	836.962	629.526
329.285	16.334	836.414	629.461
330.300	16.322	835.997	629.046
331.314	16.350	835.531	628.745
332.329	16.406	835.000	628.496
333.343	16.327	834.031	627.419
334.358	16.378	833.661	627.272
335.373	16.441	833.007	626.962
336.387	16.421	832.663	626.570
337.402	16.417	832.223	626.171
338.416	16.616	831.433	626.258
339.431	16.531	830.810	625.416
340.446	16.526	830.378	625.019
341.460	16.520	829.726	624.451
342.475	16.617	829.409	624.513
343.489	16.613	829.046	624.173
344.504	16.742	828.241	623.984
345.519	16.767	827.945	623.799
346.533	16.739	827.417	623.242
347.548	16.646	827.247	622.719
348.562	16.752	826.092	622.182
349.577	16.751	825.571	621.732
350.592	16.626	825.290	621.005
351.606	16.668	824.793	620.732
352.621	16.682	824.376	620.414
353.635	16.644	823.930	619.884
354.650	16.689	823.384	619.582
355.665	16.753	822.926	619.417
356.679	16.755	822.359	618.943
357.694	16.708	822.300	618.672
358.708	16.690	821.857	618.220
359.723	16.883	821.039	618.254
360.738	16.818	820.490	617.549
361.752	16.666	819.946	616.531
362.767	16.807	819.627	616.749
363.781	16.847	819.254	616.561
364.796	16.963	818.810	616.592
365.810	17.009	817.890	616.013
366.825	17.130	817.449	616.065
367.840	17.008	817.731	615.780
368.854	17.104	817.251	615.711
369.869	17.061	816.341	614.817
370.883	17.019	816.039	614.381
371.898	16.962	815.255	613.532
372.913	17.196	814.505	613.757
373.927	17.136	814.206	613.262
374.942	17.041	813.781	612.546
375.956	17.173	812.903	612.303
376.971	17.334	812.400	612.452
377.986	17.092	812.103	611.303
379.000	17.132	811.560	610.984
380.015	17.172	811.116	610.738
381.029	17.263	810.569	610.601
382.044	17.274	810.087	610.222
383.059	17.335	809.128	609.664
384.073	17.487	808.559	609.727
385.088	17.395	808.142	609.029
386.102	17.223	808.028	608.274
387.117	17.178	807.054	607.327
388.132	17.300	806.329	607.163
389.146	17.294	806.273	607.044
390.161	17.392	806.115	607.224
391.175	17.295	805.569	606.412
392.190	17.366	804.912	606.117
393.205	17.432	804.650	606.102
394.219	17.368	804.185	605.468
395.234	17.407	803.625	605.133
396.248	17.304	803.178	604.374
397.263	17.286	802.770	603.952
398.278	17.218	802.236	603.254
399.292	17.183	801.915	602.836
400.307	17.310	801.325	602.790
401.321	17.269	801.161	602.468
402.336	17.233	800.823	602.032
403.350	17.334	800.160	601.838
404.365	17.490	799.809	602.071
405.380	17.513	799.388	601.784
406.394	17.544	798.671	601.298
407.409	17.626	798.360	601.303
408.423	17.564	798.036	600.784
409.438	17.723	797.162	600.634
410.453	17.596	796.975	599.995
411.467	17.773	796.490	600.200
412.482	17.724	796.143	599.712
413.496	17.786	795.401	599.317
414.511	17.898	794.744	599.162
415.526	17.823	794.896	598.959
416.540	17.900	794.687	599.018
417.555	17.833	794.254	598.405
418.569	17.879	793.557	597.988
419.584	17.730	793.161	597.114
420.599	17.712	792.695	596.649
421.613	111.530	1293.686	1476.056
422.628	95.871	1366.665	1476.132
