DTS Sentinel unit serial number:	SN413079Multiplexer serial number:	ORYXHardware model number:	OX4-SRSoftware version number:	ORYX F/W v4.00 Oryx Data Collector v3.7.2.0data status	okinstallation	princeton_trtdifferential loss correction	single-endedforward channel	channel 3reverse channel	N/Adate	2019/09/11time	06:18:11forward acquisition time	60.00reverse acquisition time	0.00gamma	496.2192k internal	0.2331k external	0.2331temperature offset calibration	0.9907default loss term (dB/km)	0.3790temperature slope calibration	1.0000multiplexer offset coefficient	1.0000multiplexer slope coefficient	1.0000fibre end	0.00T internal ref (°C)	29.50T ext. ref 1 (°C)	-0.19T ext. ref 2 (°C)	23.95length (m)	temperature (°C)	Stokes	anti-Stokes-747.200	149.044	0.170	-0.232
-746.185	-11.400	-0.184	0.122
-745.171	197.209	-0.112	-0.172
-744.156	-136.080	-0.340	0.040
-743.142	47.636	0.375	-0.352
-742.127	-195.347	0.049	0.000
-741.112	-103.054	0.117	-0.028
-740.098	27.618	0.331	0.280
-739.083	58.157	-0.173	-0.171
-738.069	16.374	-0.252	0.200
-737.054	-103.001	-0.074	0.018
-736.039	-26.021	-0.347	0.205
-735.025	656.472	0.076	-0.196
-734.010	-43.211	-0.088	-0.045
-732.996	-17.907	-0.155	-0.098
-731.981	153.445	-0.115	-0.159
-730.966	-171.257	0.178	-0.006
-729.952	-133.539	0.162	0.020
-728.937	800.000	0.023	-0.095
-727.923	87.323	0.194	-0.216
-726.908	-11.667	-0.149	-0.099
-725.894	91.702	-0.144	0.163
-724.879	-158.981	-0.313	-0.018
-723.864	90.974	-0.191	0.215
-722.850	-101.563	0.230	-0.056
-721.835	-24.405	0.569	0.341
-720.821	93.609	-0.421	-0.479
-719.806	-134.054	0.205	-0.025
-718.791	347.994	-0.181	-0.358
-717.777	-3.132	0.111	0.078
-716.762	-30.846	-0.029	0.016
-715.748	-139.797	-0.129	0.014
-714.733	-55.276	0.093	0.042
-713.718	1.738	-0.181	-0.131
-712.704	800.000	-0.030	-0.116
-711.689	-130.017	0.362	-0.050
-710.675	-200.000	0.021	0.267
-709.660	-11.842	0.136	-0.090
-708.645	312.743	-0.074	-0.140
-707.631	-78.457	-0.120	-0.041
-706.616	-109.432	-0.188	0.040
-705.602	800.000	0.075	0.228
-704.587	239.146	-0.110	-0.183
-703.572	-88.645	-0.424	0.127
-702.558	-58.202	-0.062	-0.027
-701.543	800.000	0.044	-0.152
-700.529	-200.000	0.040	-0.182
-699.514	209.827	-0.064	-0.101
-698.499	-63.068	-0.264	-0.109
-697.485	-200.000	-0.022	0.178
-696.470	-68.675	-0.207	0.080
-695.456	107.641	-0.147	0.176
-694.441	-200.000	0.054	-0.278
-693.426	231.421	0.133	-0.218
-692.412	160.253	-0.174	0.243
-691.397	305.391	-0.123	0.229
-690.383	-70.759	-0.627	0.238
-689.368	800.000	0.037	0.102
-688.354	22.743	-0.142	0.117
-687.339	-200.000	-0.013	-0.127
-686.324	73.706	-0.079	0.083
-685.310	-64.295	-0.209	-0.086
-684.295	42.877	-0.331	-0.303
-683.281	-148.467	-0.194	-0.016
-682.266	-161.731	-0.503	0.026
-681.251	-152.257	0.167	0.012
-680.237	54.177	0.350	-0.338
-679.222	-200.000	-0.001	-0.091
-678.208	-69.712	-0.387	-0.149
-677.193	110.408	0.084	0.101
-676.178	-96.494	-0.212	0.056
-675.164	-49.380	-0.246	-0.118
-674.149	-97.725	0.216	-0.056
-673.135	-78.206	0.256	-0.088
-672.120	-88.710	-0.389	-0.116
-671.105	-122.912	0.168	0.027
-670.091	450.560	-0.131	-0.290
-669.076	-200.000	0.019	0.091
-668.062	-20.652	0.078	0.048
-667.047	13.609	0.065	0.051
-666.032	800.000	0.066	-0.201
-665.018	88.680	0.072	0.081
-664.003	358.106	0.123	-0.247
-662.989	-102.587	0.203	0.049
-661.974	-200.000	0.031	0.169
-660.959	64.554	0.083	-0.083
-659.945	-31.801	0.336	0.189
-658.930	-10.444	-0.302	-0.201
-657.916	800.000	0.028	-0.114
-656.901	-117.941	-0.119	-0.021
-655.886	521.648	0.172	-0.405
-654.872	-128.965	0.211	-0.030
-653.857	153.868	-0.153	-0.211
-652.843	-60.032	0.111	0.048
-651.828	-200.000	-0.013	0.156
-650.814	800.000	0.075	-0.246
-649.799	-200.000	0.043	-0.320
-648.784	-185.531	-0.471	0.007
-647.770	-17.057	0.071	-0.045
-646.755	-63.773	-0.160	-0.066
-645.741	146.563	0.275	-0.370
-644.726	-200.000	0.066	-0.318
-643.711	-89.753	0.460	0.135
-642.697	-200.000	-0.002	0.134
-641.682	117.738	-0.086	0.106
-640.668	452.274	-0.164	-0.364
-639.653	-200.000	-0.012	-0.278
-638.638	800.000	-0.042	-0.130
-637.624	531.701	0.107	0.255
-636.609	157.498	0.130	-0.181
-635.595	214.619	-0.135	-0.214
-634.580	-134.898	-0.392	0.048
-633.565	17.467	-0.178	-0.142
-632.551	-109.157	-0.269	0.057
-631.536	-200.000	-0.005	-0.107
-630.522	156.131	0.014	-0.020
-629.507	-103.713	-0.326	-0.077
-628.492	800.000	0.071	0.309
-627.478	-112.425	0.210	-0.042
-626.463	-148.047	0.053	0.004
-625.449	-200.000	-0.062	0.356
-624.434	-135.819	0.181	-0.021
-623.419	19.300	0.176	-0.142
-622.405	-102.510	0.416	0.100
-621.390	545.988	-0.075	0.180
-620.376	-84.187	0.191	-0.061
-619.361	247.452	0.097	0.163
-618.346	119.849	0.177	-0.220
-617.332	-6.320	-0.172	-0.117
-616.317	-200.000	-0.001	0.027
-615.303	440.692	-0.137	-0.300
-614.288	-110.560	-0.284	-0.059
-613.273	-70.293	0.141	-0.053
-612.259	552.498	0.019	-0.045
-611.244	-131.480	-0.232	-0.031
-610.230	-21.854	0.140	0.085
-609.215	-140.459	0.257	-0.027
-608.201	160.774	0.129	0.180
-607.186	53.646	-0.157	0.151
-606.171	196.444	0.171	0.261
-605.157	-102.611	-0.070	-0.017
-604.142	299.971	-0.136	0.250
-603.128	295.863	0.172	0.315
-602.113	-200.000	0.052	-0.251
-601.098	800.000	-0.093	-0.258
-600.084	463.973	-0.064	-0.144
-599.069	-200.000	0.074	-0.450
-598.055	45.442	0.280	0.259
-597.040	-75.725	-0.403	-0.143
-596.025	-96.879	0.069	0.018
-595.011	181.785	0.045	0.066
-593.996	171.356	-0.157	-0.225
-592.982	-30.057	0.126	0.072
-591.967	-52.138	-0.264	0.123
-590.952	89.044	0.178	0.199
-589.938	-200.000	-0.001	0.067
-588.923	-111.424	0.032	0.006
-587.909	76.781	0.049	-0.052
-586.894	32.958	-0.145	0.125
-585.879	-5.318	-0.093	-0.064
-584.865	-128.190	-0.233	-0.033
-583.850	-123.141	-0.229	0.037
-582.836	-65.387	-0.266	-0.107
-581.821	-200.000	-0.010	0.098
-580.806	-96.998	0.277	0.072
-579.792	-32.918	0.148	-0.082
-578.777	-149.545	0.127	-0.010
-577.763	29.991	-0.117	0.100
-576.748	-30.649	0.191	0.108
-575.733	69.177	-0.245	0.251
-574.719	-150.160	-0.493	0.038
-573.704	341.597	-0.073	0.142
-572.690	550.780	-0.099	-0.238
-571.675	-123.028	0.172	0.028
-570.661	14.053	0.027	-0.021
-569.646	219.476	0.031	0.049
-568.631	-1.129	-0.084	0.059
-567.617	800.000	0.117	-0.480
-566.602	154.386	-0.255	-0.351
-565.588	-120.703	0.123	0.021
-564.573	-22.419	0.239	0.144
-563.558	-92.380	-0.037	0.010
-562.544	-200.000	-0.009	-0.098
-561.529	355.868	-0.032	0.063
-560.515	800.000	0.065	-0.213
-559.500	512.858	0.089	-0.208
-558.485	196.544	-0.179	0.272
-557.471	184.843	-0.068	0.100
-556.456	-200.000	-0.008	0.074
-555.442	-200.000	0.113	0.514
-554.427	-12.228	-0.182	0.119
-553.412	-200.000	0.006	-0.191
-552.398	141.431	0.185	0.244
-551.383	800.000	-0.035	-0.112
-550.369	-200.000	0.040	0.271
-549.354	513.574	0.099	-0.231
-548.339	72.722	0.234	-0.244
-547.325	170.168	0.107	0.153
-546.310	139.858	0.130	0.172
-545.296	67.480	-0.126	-0.129
-544.281	89.570	-0.238	0.265
-543.266	62.717	-0.152	-0.152
-542.252	143.379	0.246	-0.326
-541.237	-184.873	-0.107	0.002
-540.223	-49.425	-0.392	-0.186
-539.208	-56.550	-0.264	-0.117
-538.193	41.513	0.139	0.125
-537.179	18.351	-0.279	0.222
-536.164	-200.000	-0.006	0.057
-535.150	130.983	-0.191	0.244
-534.135	-10.909	-0.149	0.098
-533.121	2.871	0.118	-0.085
-532.106	-141.746	-0.174	-0.017
-531.091	-200.000	-0.037	0.332
-530.077	-126.089	-0.131	-0.020
-529.062	96.876	0.166	-0.190
-528.048	-81.374	-0.271	0.089
-527.033	26.556	0.161	0.134
-526.018	324.401	0.041	0.079
-525.004	800.000	0.107	-0.329
-523.989	-64.505	-0.155	-0.063
-522.975	352.655	-0.022	-0.043
-521.960	169.258	0.201	0.286
-520.945	4.005	-0.223	0.162
-519.931	-74.797	0.234	0.084
-518.916	-200.000	-0.019	0.092
-517.902	-120.522	0.267	0.045
-516.887	455.079	-0.040	-0.088
-515.872	-200.000	0.016	-0.094
-514.858	-38.701	-0.202	0.106
-513.843	117.250	-0.218	0.267
-512.829	119.200	-0.120	-0.148
-511.814	-36.149	0.178	-0.096
-510.799	571.853	0.092	-0.224
-509.785	-200.000	0.026	-0.234
-508.770	-41.405	0.421	-0.216
-507.756	800.000	0.073	-0.295
-506.741	497.554	-0.066	0.151
-505.726	161.486	0.055	-0.077
-504.712	800.000	0.011	0.043
-503.697	255.797	-0.120	-0.205
-502.683	342.461	0.158	-0.308
-501.668	225.637	-0.060	-0.097
-500.653	-130.807	-0.069	0.009
-499.639	800.000	-0.058	0.230
-498.624	-0.888	0.125	0.088
-497.610	78.322	0.212	-0.225
-496.595	-74.652	0.157	-0.056
-495.581	-51.443	0.038	0.018
-494.566	44.797	-0.237	0.218
-493.551	138.882	0.177	0.232
-492.537	-129.255	-0.207	-0.029
-491.522	-106.164	-0.293	0.066
-490.508	-76.332	0.138	0.048
-489.493	-64.298	-0.272	0.110
-488.478	-200.000	0.024	0.251
-487.464	410.553	0.044	0.094
-486.449	800.000	0.039	0.136
-485.435	-120.785	-0.288	0.048
-484.420	-104.413	-0.030	-0.007
-483.405	-90.372	0.238	-0.069
-482.391	670.007	-0.096	0.247
-481.376	-200.000	0.018	-0.104
-480.362	-131.672	0.369	0.048
-479.347	213.115	-0.049	0.077
-478.332	-56.350	-0.134	-0.059
-477.318	-13.554	-0.097	0.063
-476.303	-174.334	0.204	-0.006
-475.289	-84.277	-0.169	-0.053
-474.274	-195.588	-0.315	0.002
-473.259	98.656	-0.162	-0.186
-472.245	-95.043	-0.262	0.071
-471.230	208.055	0.112	0.175
-470.216	212.734	-0.228	0.358
-469.201	167.866	0.181	0.257
-468.186	-71.616	0.214	-0.080
-467.172	50.399	0.053	-0.050
-466.157	-182.189	0.140	-0.003
-465.143	-23.192	-0.094	-0.057
-464.128	-141.113	-0.090	-0.009
-463.113	-148.913	-0.165	-0.013
-462.099	-133.449	0.074	-0.009
-461.084	-142.669	-0.201	-0.020
-460.070	-56.172	0.163	0.072
-459.055	-129.087	0.052	-0.007
-458.040	-60.114	0.194	-0.082
-457.026	-200.000	-0.015	0.157
-456.011	-91.189	-0.169	0.048
-454.997	417.167	-0.074	0.157
-453.982	167.286	-0.101	-0.143
-452.968	-134.899	-0.129	0.016
-451.953	-92.287	0.060	-0.017
-450.938	-118.941	-0.272	0.048
-449.924	800.000	0.079	0.222
-448.909	84.885	0.125	0.136
-447.895	0.425	-0.194	0.138
-446.880	-200.000	0.060	-0.288
-445.865	-200.000	-0.003	0.124
-444.851	-39.618	0.145	-0.076
-443.836	-69.542	0.089	-0.034
-442.822	-200.000	-0.007	0.097
-441.807	-50.073	-0.284	-0.134
-440.792	-67.015	0.292	-0.114
-439.778	53.471	0.196	0.187
-438.763	-200.000	-0.027	-0.194
-437.749	767.719	0.133	-0.359
-436.734	-124.529	-0.241	-0.037
-435.719	34.616	-0.247	-0.215
-434.705	243.173	-0.201	0.335
-433.690	-32.922	0.325	0.179
-432.676	706.113	-0.081	0.211
-431.661	800.000	-0.047	-0.130
-430.646	-200.000	-0.015	-0.177
-429.632	-83.646	0.145	0.046
-428.617	-130.607	0.231	-0.031
-427.603	800.000	-0.094	0.396
-426.588	-52.064	-0.410	0.189
-425.573	579.092	0.061	0.149
-424.559	-2.217	-0.112	-0.078
-423.544	104.652	0.030	0.035
-422.530	256.327	0.033	-0.057
-421.515	25.049	-0.173	-0.143
-420.500	211.301	0.255	-0.399
-419.486	286.793	-0.079	-0.142
-418.471	-108.497	0.103	0.022
-417.457	-117.680	-0.189	0.034
-416.442	40.200	0.187	0.167
-415.428	-200.000	-0.002	0.312
-414.413	244.211	0.068	0.114
-413.398	67.506	-0.089	-0.090
-412.384	-73.516	0.110	-0.040
-411.369	71.874	0.024	-0.025
-410.355	-11.349	-0.157	-0.103
-409.340	-200.000	-0.005	0.154
-408.325	-42.089	-0.030	0.015
-407.311	617.535	-0.047	-0.117
-406.296	-0.748	-0.016	0.011
-405.282	132.426	0.306	-0.392
-404.267	-200.000	-0.015	-0.522
-403.252	-200.000	0.004	-0.282
-402.238	800.000	-0.036	0.121
-401.223	-11.814	-0.301	-0.196
-400.209	-78.025	-0.302	0.103
-399.194	330.806	0.010	0.019
-398.179	-200.000	0.003	0.159
-397.165	800.000	-0.028	-0.119
-396.150	119.007	0.091	-0.111
-395.136	54.331	-0.123	0.118
-394.121	-200.000	0.040	0.265
-393.106	-200.000	-0.080	0.000
-392.092	76.231	-0.081	-0.085
-391.077	-43.615	0.382	-0.191
-390.063	-53.240	-0.153	0.070
-389.048	-82.427	0.109	0.035
-388.033	800.000	0.066	-0.190
-387.019	253.797	0.072	-0.122
-386.004	11.437	0.133	-0.101
-384.990	40.602	-0.210	-0.188
-383.975	800.000	-0.085	-0.363
-382.960	336.976	-0.079	-0.152
-381.946	127.257	-0.142	-0.179
-380.931	149.614	-0.046	-0.061
-379.917	800.000	0.044	-0.177
-378.902	561.165	0.060	-0.144
-377.888	50.849	-0.144	0.135
-376.873	167.968	0.179	0.252
-375.858	-200.000	-0.010	-0.196
-374.844	800.000	0.047	-0.138
-373.829	-200.000	0.344	-0.002
-372.815	-200.000	-0.007	0.074
-371.800	-200.000	0.002	-0.034
-370.785	800.000	0.079	0.323
-369.771	6.416	-0.251	0.185
-368.756	-181.732	0.175	0.003
-367.742	800.000	-0.064	0.185
-366.727	-200.000	-0.011	0.125
-365.712	-47.845	0.232	-0.111
-364.698	-3.173	-0.220	0.152
-363.683	43.360	0.193	-0.174
-362.669	-143.319	0.328	0.031
-361.654	-44.266	-0.068	-0.034
-360.639	180.133	0.188	0.273
-359.625	269.270	-0.170	0.295
-358.610	211.637	0.053	0.082
-357.596	-87.041	-0.336	0.102
-356.581	-168.528	0.429	-0.016
-355.566	84.448	-0.107	-0.116
-354.552	-97.327	-0.111	0.029
-353.537	-93.321	-0.271	0.075
-352.523	-66.112	-0.215	-0.085
-351.508	-69.805	-0.241	-0.091
-350.493	-200.000	-0.028	0.218
-349.479	486.799	-0.095	0.215
-348.464	-88.754	-0.259	-0.076
-347.450	209.129	-0.064	-0.100
-346.435	-20.128	-0.121	0.074
-345.420	-200.000	-0.025	0.356
-344.406	22.358	-0.079	-0.064
-343.391	-69.401	-0.079	-0.030
-342.377	800.000	0.017	0.049
-341.362	800.000	0.039	-0.108
-340.348	85.299	-0.095	-0.103
-339.333	-76.777	0.365	0.127
-338.318	-36.477	0.278	-0.148
-337.304	-200.000	0.012	-0.342
-336.289	-170.413	-0.310	0.011
-335.275	-149.812	0.427	-0.033
-334.260	141.458	-0.147	0.193
-333.245	285.251	0.213	0.379
-332.231	-3.566	0.244	-0.168
-331.216	391.744	-0.037	-0.075
-330.202	-122.202	0.295	0.048
-329.187	33.173	-0.300	0.258
-328.172	-83.943	-0.209	-0.066
-327.158	20.439	-0.106	-0.085
-326.143	-35.527	-0.426	0.229
-325.129	-110.648	-0.118	0.024
-324.114	800.000	0.150	0.452
-323.099	-69.388	0.165	0.063
-322.085	346.508	-0.015	-0.028
-321.070	-143.621	-0.135	0.013
-320.056	121.581	0.072	0.089
-319.041	42.513	0.103	-0.093
-318.026	-200.000	-0.027	-0.125
-317.012	-59.032	-0.008	0.003
-315.997	800.000	0.001	0.005
-314.983	298.779	0.222	-0.404
-313.968	22.287	-0.124	0.100
-312.953	218.709	-0.090	0.143
-311.939	-16.366	-0.153	-0.096
-310.924	-200.000	-0.012	-0.185
-309.910	9.731	-0.151	-0.113
-308.895	136.282	0.085	-0.110
-307.880	-188.783	-0.202	0.002
-306.866	800.000	-0.072	0.270
-305.851	109.204	-0.249	-0.295
-304.837	-46.062	-0.267	0.130
-303.822	-84.327	0.168	0.053
-302.807	-200.000	0.062	0.614
-301.793	-200.000	0.079	-0.360
-300.778	29.518	0.109	-0.092
-299.764	-200.000	-0.019	0.175
-298.749	-200.000	-0.051	0.350
-297.735	-165.303	-0.250	0.011
-296.720	123.187	-0.301	0.373
-295.705	-98.132	0.215	0.055
-294.691	-152.390	0.176	-0.013
-293.676	286.600	0.021	-0.037
-292.662	800.000	-0.131	-0.450
-291.647	800.000	-0.072	-0.304
-290.632	85.515	0.169	-0.183
-289.618	-200.000	0.009	0.187
-288.603	-200.000	-0.031	-0.241
-287.589	-200.000	0.041	-0.315
-286.574	229.309	-0.020	-0.033
-285.559	-1.230	0.118	0.082
-284.545	354.470	0.098	-0.193
-283.530	-165.411	0.194	-0.008
-282.516	800.000	-0.005	-0.019
-281.501	324.977	-0.133	-0.251
-280.486	36.753	-0.149	0.130
-279.472	280.446	-0.116	-0.205
-278.457	277.637	0.167	-0.293
-277.443	48.720	0.363	0.336
-276.428	-175.747	0.377	0.010
-275.413	1.378	0.270	0.192
-274.399	182.719	-0.296	0.431
-273.384	204.504	-0.160	0.245
-272.370	-200.000	-0.033	-0.215
-271.355	-200.000	0.047	-0.315
-270.340	213.117	0.018	-0.029
-269.326	-49.406	-0.183	0.086
-268.311	33.823	0.236	-0.203
-267.297	-200.000	0.030	-0.156
-266.282	-105.548	-0.120	0.027
-265.267	-76.850	0.389	0.134
-264.253	800.000	0.029	0.083
-263.238	-161.702	-0.072	-0.004
-262.224	108.258	-0.157	-0.185
-261.209	-78.414	-0.140	-0.047
-260.195	68.162	0.199	0.201
-259.180	130.727	0.118	0.149
-258.165	800.000	0.092	0.339
-257.151	599.500	0.040	-0.099
-256.136	162.117	0.175	0.242
-255.122	136.382	0.022	0.029
-254.107	-35.878	-0.169	0.090
-253.092	65.735	-0.169	0.169
-252.078	-113.394	0.089	0.017
-251.063	-30.260	0.102	-0.057
-250.049	25.561	-0.102	-0.083
-249.034	-93.120	-0.223	-0.061
-248.019	-57.442	-0.020	-0.009
-247.005	800.000	-0.052	0.177
-245.990	800.000	0.064	0.188
-244.976	-10.467	0.373	0.244
-243.961	767.569	0.132	-0.354
-242.946	200.225	-0.117	0.177
-241.932	-77.190	-0.113	0.039
-240.917	800.000	0.150	0.444
-239.903	643.866	-0.059	0.149
-238.888	9.626	-0.160	-0.120
-237.873	352.123	0.057	-0.112
-236.859	-161.878	-0.076	0.004
-235.844	6.771	0.082	-0.060
-234.830	-87.662	0.146	0.044
-233.815	-67.805	0.161	0.062
-232.800	15.726	-0.174	-0.135
-231.786	48.176	0.136	0.126
-230.771	-71.057	-0.103	-0.038
-229.757	-137.574	0.158	0.018
-228.742	-49.427	-0.198	0.093
-227.727	54.110	0.267	-0.253
-226.713	98.290	-0.083	0.095
-225.698	-96.154	-0.263	-0.069
-224.684	341.934	-0.032	0.061
-223.669	-61.362	0.222	0.092
-222.655	-200.000	-0.003	-0.147
-221.640	-139.027	0.101	0.011
-220.625	-78.109	0.214	0.073
-219.611	113.131	0.186	-0.222
-218.596	176.496	-0.092	0.131
-217.582	86.897	0.289	-0.315
-216.567	-200.000	-0.089	-0.527
-215.552	-91.162	0.249	-0.070
-214.538	800.000	-0.074	0.269
-213.523	-200.000	0.001	-0.050
-212.509	-200.000	0.004	0.024
-211.494	-111.242	-0.092	-0.019
-210.479	-39.813	0.142	-0.073
-209.465	-200.000	0.024	0.270
-208.450	3.648	0.337	-0.243
-207.436	1.665	0.113	0.080
-206.421	12.203	-0.022	0.017
-205.406	595.078	0.043	-0.105
-204.392	-73.912	0.144	0.051
-203.377	-67.903	0.156	-0.060
-202.363	-200.000	-0.008	-0.053
-201.348	365.282	0.080	-0.160
-200.333	-175.143	0.328	0.009
-199.319	-62.730	-0.192	-0.078
-198.304	-74.254	0.083	-0.030
-197.290	376.953	-0.098	0.197
-196.275	124.772	0.165	0.205
-195.260	800.000	-0.093	0.344
-194.246	-200.000	0.046	-0.198
-193.231	183.779	0.024	0.036
-192.217	189.427	-0.096	-0.142
-191.202	-29.024	0.028	0.016
-190.187	11.734	0.046	-0.035
-189.173	32.789	0.202	0.172
-188.158	-109.982	-0.169	0.035
-187.144	-47.066	-0.179	0.086
-186.129	30.955	0.071	0.060
-185.114	75.481	-0.033	0.035
-184.100	382.400	-0.054	0.109
-183.085	170.307	-0.092	0.130
-182.071	21.109	0.193	-0.154
-181.056	-200.000	-0.004	-0.020
-180.042	25.511	0.278	-0.228
-179.027	-154.156	-0.088	-0.006
-178.012	-200.000	0.004	0.329
-176.998	-46.049	0.107	0.052
-175.983	106.435	0.059	-0.069
-174.969	-97.463	0.190	-0.049
-173.954	-95.547	0.181	0.048
-172.939	-79.074	-0.079	0.026
-171.925	-200.000	-0.005	0.102
-170.910	800.000	-0.038	0.136
-169.896	277.780	-0.125	-0.219
-168.881	-62.973	0.095	0.039
-167.866	-170.045	-0.074	-0.003
-166.852	139.626	0.081	0.105
-165.837	-53.294	-0.225	-0.102
-164.823	76.089	0.072	-0.075
-163.808	141.145	-0.073	-0.095
-162.793	9.672	-0.178	-0.132
-161.779	86.746	0.218	-0.237
-160.764	-176.892	0.373	0.009
-159.750	265.896	0.074	-0.128
-158.735	-200.000	-0.007	0.218
-157.720	-200.000	-0.199	0.000
-156.706	-115.294	-0.076	0.014
-155.691	-118.334	0.072	0.013
-154.677	17.388	0.331	-0.258
-153.662	789.834	0.139	-0.376
-152.647	-61.036	-0.187	-0.078
-151.633	20.568	-0.151	0.120
-150.618	153.936	-0.072	-0.097
-149.604	-98.175	0.314	0.079
-148.589	146.594	0.098	0.129
-147.574	752.258	0.086	-0.228
-146.560	-200.000	-0.029	-0.284
-145.545	306.598	-0.147	-0.270
-144.531	-80.597	-0.211	-0.069
-143.516	800.000	0.066	0.203
-142.502	-42.650	0.462	0.231
-141.487	-132.600	0.133	0.017
-140.472	-152.523	0.161	-0.011
-139.458	-48.417	-0.145	-0.068
-138.443	-5.294	-0.213	0.144
-137.429	-8.230	0.264	0.175
-136.414	800.000	0.146	-0.570
-135.399	536.356	-0.121	0.281
-134.385	118.201	-0.076	0.092
-133.370	-74.723	-0.072	-0.025
-132.356	733.591	0.088	0.232
-131.341	-131.286	0.158	-0.021
-130.326	750.102	0.033	-0.089
-129.312	58.677	0.118	0.114
-128.297	260.439	-0.159	0.269
-127.283	35.663	-0.124	0.107
-126.268	-91.118	0.403	-0.114
-125.253	-84.601	-0.169	0.052
-124.239	284.215	-0.044	-0.078
-123.224	375.379	-0.046	-0.092
-122.210	129.657	-0.196	0.246
-121.195	354.124	-0.050	0.097
-120.180	-48.330	0.225	0.107
-119.166	181.163	-0.112	-0.161
-118.151	88.416	0.140	-0.153
-117.137	-132.255	0.304	-0.039
-116.122	80.188	0.071	-0.075
-115.107	498.208	0.059	-0.134
-114.093	-35.910	-0.360	0.191
-113.078	800.000	-0.021	0.090
-112.064	49.778	-0.158	0.146
-111.049	-68.994	-0.224	0.085
-110.034	81.648	0.117	-0.124
-109.020	800.000	-0.098	0.287
-108.005	19.567	0.133	-0.105
-106.991	-49.687	0.130	-0.061
-105.976	-200.000	-0.003	0.261
-104.962	-98.325	0.248	0.062
-103.947	9.483	-0.269	-0.200
-102.932	94.364	-0.091	0.102
-101.918	243.349	-0.061	-0.100
-100.903	-130.762	0.223	0.029
-99.889	-46.981	-0.064	0.030
-98.874	-200.000	-0.016	0.110
-97.859	-200.000	-0.002	0.260
-96.845	-73.120	0.128	-0.046
-95.830	-134.701	0.054	0.006
-94.816	-106.075	-0.241	-0.053
-93.801	-95.547	0.238	-0.063
-92.786	428.657	0.098	-0.207
-91.772	-105.789	0.164	0.036
-90.757	3.648	0.017	0.012
-89.743	-152.552	0.508	-0.036
-88.728	49.325	-0.237	-0.219
-87.713	-200.000	-0.083	0.436
-86.699	24.681	-0.277	-0.225
-85.684	-92.771	0.146	-0.040
-84.670	-200.000	0.078	0.353
-83.655	26.566	0.348	0.285
-82.640	-200.000	0.053	0.599
-81.626	63.277	-0.179	-0.176
-80.611	274.845	-0.104	-0.181
-79.597	56.020	0.073	-0.070
-78.582	-73.421	0.409	0.147
-77.567	-9.216	-0.156	-0.102
-76.553	185.302	-0.209	-0.304
-75.538	215.857	-0.128	-0.199
-74.524	-200.000	0.076	-0.338
-73.509	800.000	0.092	0.389
-72.494	-84.470	-0.158	0.049
-71.480	-200.000	0.071	-0.433
-70.465	-109.901	0.208	0.043
-69.451	-27.009	0.060	0.035
-68.436	140.215	-0.115	0.148
-67.422	-118.365	-0.035	0.006
-66.407	30.314	0.037	0.031
-65.392	31.925	0.210	-0.177
-64.378	-109.411	-0.224	-0.047
-63.363	38.664	-0.385	0.336
-62.349	272.918	0.125	0.217
-61.334	100.228	-0.989	-1.125
-60.319	0.303	0.726	0.508
-59.305	128.542	-0.487	-0.608
-58.290	91.936	0.707	0.779
-57.276	-200.000	0.336	1.677
-56.261	-200.000	105.869	609.140
-55.246	499.025	1510.248	3410.043
-54.232	176.117	2702.211	3844.328
-53.217	110.201	2186.148	2572.078
-52.203	40.078	1704.075	1500.456
-51.188	32.634	1513.555	1282.232
-50.173	30.305	1486.567	1243.731
-49.159	51.147	1542.716	1433.678
-48.144	51.553	1559.225	1451.738
-47.130	32.817	1515.246	1284.705
-46.115	29.725	1500.349	1251.141
-45.100	29.555	1496.806	1246.988
-44.086	29.570	1494.426	1245.052
-43.071	29.486	1492.293	1242.663
-42.057	29.524	1490.607	1241.465
-41.042	29.539	1489.516	1240.610
-40.027	29.435	1488.699	1239.182
-39.013	29.401	1486.676	1237.219
-37.998	29.402	1485.533	1236.224
-36.984	29.423	1484.356	1235.335
-35.969	29.511	1482.778	1234.564
-34.954	29.393	1481.127	1232.349
-33.940	29.429	1479.847	1231.477
-32.925	29.459	1478.504	1230.514
-31.911	29.466	1477.144	1229.380
-30.896	29.645	1475.535	1229.180
-29.881	29.516	1475.000	1227.827
-28.867	29.600	1473.219	1226.855
-27.852	29.499	1472.059	1225.169
-26.838	29.570	1470.486	1224.283
-25.823	29.489	1469.340	1222.744
-24.809	29.529	1467.262	1221.233
-23.794	29.549	1465.751	1220.056
-22.779	29.519	1464.941	1219.134
-21.765	29.641	1463.710	1218.869
-20.750	29.574	1463.186	1217.941
-19.736	29.527	1461.667	1216.321
-18.721	29.615	1459.988	1215.451
-17.706	29.449	1459.036	1213.522
-16.692	29.587	1458.090	1213.590
-15.677	29.523	1457.508	1212.642
-14.663	29.595	1455.633	1211.506
-13.648	29.511	1455.134	1210.488
-12.633	29.477	1454.223	1209.463
-11.619	29.560	1453.672	1209.496
-10.604	29.434	1453.242	1208.265
-9.590	29.423	1452.165	1207.249
-8.575	29.438	1451.202	1206.498
-7.560	29.525	1450.160	1206.157
-6.546	29.489	1449.019	1204.924
-5.531	29.478	1448.681	1204.526
-4.517	29.448	1447.834	1203.574
-3.502	29.349	1446.737	1201.971
-2.487	29.494	1445.467	1201.809
-1.473	29.485	1444.089	1200.557
-0.458	29.532	1442.990	1199.901
0.556	27.078	1433.664	1189.143
1.571	24.219	1408.955	1150.120
2.586	21.095	1351.298	1083.590
3.600	19.690	1270.968	1010.873
4.615	18.614	1225.907	968.875
5.629	16.287	1172.059	913.655
6.644	8.304	1088.350	808.061
7.659	1.191	1047.621	743.000
8.673	0.010	1041.946	733.156
9.688	-0.126	1038.422	729.951
10.702	-0.411	1037.409	727.787
11.717	-0.242	1035.571	727.252
12.731	3.116	1038.820	745.773
13.746	11.965	1051.208	797.858
14.761	18.695	1060.293	837.637
15.775	20.735	1062.005	848.877
16.790	20.907	1062.042	849.670
17.804	20.736	1060.960	847.895
18.819	20.540	1060.215	846.268
19.834	20.749	1059.292	846.475
20.848	20.982	1058.899	847.219
21.863	20.836	1058.945	846.470
22.877	20.895	1058.155	846.050
23.892	20.881	1057.424	845.325
24.907	20.724	1056.499	843.750
25.921	20.724	1056.365	843.566
26.936	20.814	1055.275	843.056
27.950	20.902	1054.048	842.429
28.965	20.849	1052.588	840.929
29.980	20.740	1051.125	839.162
30.994	20.639	1050.022	837.722
32.009	20.928	1048.498	837.819
33.023	20.840	1048.698	837.484
34.038	20.606	1047.129	835.033
35.053	20.586	1046.042	833.996
36.067	20.904	1045.208	834.782
37.082	20.814	1044.983	834.094
38.096	20.973	1043.833	833.866
39.111	21.014	1043.536	833.753
40.126	21.168	1042.231	833.368
41.140	20.931	1041.266	831.392
42.155	20.882	1039.027	829.300
43.169	20.553	1038.599	827.320
44.184	20.533	1037.213	826.047
45.199	20.644	1036.154	825.658
46.213	20.501	1035.128	824.087
47.228	20.592	1034.319	823.801
48.242	20.687	1033.632	823.630
49.257	20.692	1032.822	822.935
50.271	20.671	1032.290	822.342
51.286	20.818	1031.477	822.314
52.301	20.882	1030.634	821.872
53.315	20.880	1030.330	821.547
54.330	20.958	1029.244	820.975
55.344	20.796	1028.387	819.459
56.359	20.822	1027.527	818.820
57.374	20.874	1026.603	818.259
58.388	20.634	1025.642	816.293
59.403	20.664	1024.615	815.546
60.417	20.586	1024.124	814.715
61.432	20.338	1023.572	813.044
62.447	20.557	1022.561	813.192
63.461	20.820	1021.444	813.459
64.476	20.713	1020.811	812.385
65.490	20.599	1020.197	811.295
66.505	20.529	1019.009	809.952
67.520	20.533	1018.517	809.505
68.534	20.737	1017.411	809.506
69.549	20.599	1016.507	808.071
70.563	20.288	1015.037	805.390
71.578	20.175	1014.122	804.069
72.593	20.324	1013.334	804.061
73.607	20.177	1012.483	802.635
74.622	20.098	1011.622	801.518
75.636	20.428	1010.915	802.408
76.651	20.495	1010.257	802.124
77.666	20.395	1009.107	800.681
78.680	20.258	1008.376	799.399
79.695	20.372	1007.664	799.290
80.709	20.382	1007.292	798.971
81.724	20.568	1005.978	798.711
82.739	20.581	1004.995	797.920
83.753	20.430	1004.873	797.060
84.768	20.790	1003.693	797.702
85.782	20.961	1003.498	798.258
86.797	21.158	1002.399	798.213
87.812	21.195	1001.671	797.733
88.826	20.888	1000.803	795.572
89.841	20.924	999.911	794.955
90.855	21.117	999.064	795.092
91.870	21.104	998.228	794.295
92.884	21.026	997.455	793.258
93.899	21.020	996.380	792.304
94.914	20.915	995.629	791.158
95.928	21.014	994.680	790.785
96.943	20.995	993.961	790.058
97.957	20.659	992.768	787.518
98.972	20.389	991.505	785.225
99.987	20.272	990.369	783.728
101.001	20.480	989.556	783.955
102.016	20.716	989.625	785.002
103.030	20.834	988.177	784.317
104.045	20.664	987.508	782.954
105.060	20.481	985.669	780.602
106.074	20.485	985.063	780.072
107.089	20.439	984.289	779.185
108.103	20.674	984.370	780.234
109.118	20.990	982.863	780.382
110.133	20.687	981.502	777.880
111.147	20.628	980.606	776.839
112.162	20.552	979.702	775.711
113.176	20.390	978.404	773.894
114.191	20.468	977.704	773.619
115.206	20.783	976.515	774.011
116.220	20.322	975.803	771.332
117.235	20.134	974.663	769.528
118.249	20.196	974.404	769.532
119.264	20.287	973.632	769.255
120.279	20.060	972.711	767.455
121.293	20.088	971.903	766.872
122.308	20.311	971.273	767.293
123.322	20.290	970.238	766.316
124.337	20.284	969.493	765.633
125.352	20.232	967.930	764.101
126.366	19.798	966.403	760.920
127.381	19.493	964.891	758.322
128.395	19.939	964.795	760.138
129.410	20.724	964.081	762.952
130.424	20.819	963.526	762.860
131.439	20.784	962.654	761.951
132.454	20.654	961.447	760.360
133.468	20.671	960.607	759.699
134.483	20.622	960.189	759.088
135.497	20.729	958.788	758.380
136.512	20.935	958.518	758.998
137.527	20.965	957.806	758.496
138.541	20.934	957.132	757.761
139.556	21.056	955.976	757.311
140.570	20.967	955.219	756.256
141.585	21.035	954.359	755.804
142.600	21.041	953.493	755.075
143.614	20.949	952.643	753.937
144.629	20.972	952.457	753.823
145.643	21.322	951.357	754.399
146.658	21.202	950.072	752.793
147.673	20.979	949.104	751.002
148.687	20.919	947.780	749.628
149.702	20.772	946.954	748.279
150.716	20.765	946.097	747.505
151.731	20.760	944.892	746.465
152.746	20.850	944.046	746.117
153.760	21.119	943.534	746.796
154.775	21.174	943.101	746.625
155.789	21.249	942.191	746.157
156.804	21.209	941.094	745.049
157.819	21.211	939.973	744.107
158.833	21.105	939.337	743.085
159.848	21.176	938.644	742.772
160.862	21.238	938.148	742.579
161.877	21.161	937.259	741.483
162.892	21.206	936.177	740.752
163.906	21.198	935.183	739.867
164.921	21.134	934.764	739.198
165.935	21.071	933.191	737.624
166.950	21.222	931.974	737.233
167.964	21.118	931.641	736.463
168.979	21.129	930.599	735.622
169.994	21.056	929.297	734.220
171.008	20.871	928.489	732.741
172.023	21.046	927.799	732.868
173.037	21.289	926.533	732.822
174.052	21.001	925.867	731.021
175.067	20.968	924.610	729.826
176.081	20.784	924.271	728.726
177.096	21.024	923.602	729.138
178.110	20.914	922.605	727.827
179.125	20.681	921.614	726.007
180.140	20.432	920.672	724.162
181.154	20.672	919.358	724.066
182.169	20.622	919.307	723.753
183.183	20.817	919.330	724.516
184.198	21.273	918.337	725.566
185.213	21.096	917.108	723.794
186.227	21.014	916.846	723.186
187.242	21.182	916.647	723.660
188.256	21.244	915.431	722.893
189.271	21.135	915.135	722.145
190.286	21.183	914.330	721.644
191.300	21.040	913.431	720.278
192.315	20.706	911.650	717.434
193.329	19.950	910.784	713.574
194.344	19.624	909.487	711.154
195.359	20.128	910.175	713.704
196.373	20.927	910.014	716.801
197.388	21.116	909.774	717.328
198.402	21.006	909.060	716.247
199.417	20.952	908.359	715.412
200.432	21.039	908.239	715.611
201.446	20.908	907.620	714.521
202.461	20.507	906.813	712.181
203.475	20.638	905.876	711.918
204.490	20.295	904.318	709.230
205.504	19.135	902.224	702.791
206.519	19.503	902.578	704.510
207.534	20.456	903.090	708.737
208.548	20.633	902.117	708.630
209.563	20.953	902.159	709.902
210.577	21.033	901.245	709.447
211.592	20.807	900.423	707.819
212.607	21.069	900.617	708.974
213.621	21.348	899.525	709.185
214.636	21.157	899.044	707.966
215.650	21.274	898.140	707.667
216.665	21.094	897.849	706.647
217.680	21.205	897.168	706.497
218.694	21.333	896.800	706.662
219.709	20.944	895.904	704.322
220.723	20.659	894.675	702.143
221.738	20.791	894.096	702.158
222.753	21.152	893.446	703.038
223.767	21.053	893.094	702.304
224.782	21.066	892.226	701.610
225.796	21.093	891.940	701.433
226.811	21.304	891.132	701.579
227.826	20.809	890.217	698.814
228.840	20.157	888.739	694.980
229.855	19.997	888.100	693.775
230.869	20.384	887.502	694.798
231.884	20.013	886.699	692.622
232.899	20.127	886.165	692.602
233.913	20.868	886.493	695.754
234.928	20.965	885.967	695.668
235.942	20.806	885.747	694.800
236.957	20.920	884.627	694.313
237.972	20.556	883.863	692.203
238.986	20.628	883.071	691.808
240.001	20.723	882.434	691.628
241.015	20.845	881.449	691.279
242.030	20.679	881.072	690.262
243.045	21.029	880.473	691.120
244.059	20.908	880.431	690.545
245.074	21.136	879.612	690.743
246.088	20.988	879.165	689.746
247.103	20.642	877.962	687.375
248.117	20.664	877.523	687.056
249.132	21.339	877.346	689.520
250.147	21.613	877.172	690.404
251.161	21.536	876.694	689.665
252.176	21.776	876.334	690.265
253.190	21.829	875.135	689.468
254.205	21.925	874.601	689.364
255.220	22.094	874.501	689.889
256.234	22.006	874.006	689.090
257.249	21.877	872.866	687.624
258.263	21.867	872.062	686.893
259.278	21.714	871.770	686.002
260.293	21.847	871.553	686.289
261.307	22.014	870.474	686.034
262.322	21.977	869.774	685.277
263.336	21.872	868.989	684.188
264.351	21.173	867.974	680.603
265.366	20.106	866.052	674.885
266.380	19.815	865.048	672.910
267.395	20.706	865.462	676.639
268.409	21.473	865.638	679.698
269.424	21.550	864.393	678.958
270.439	21.569	864.274	678.881
271.453	21.592	863.633	678.404
272.468	21.633	863.370	678.296
273.482	21.973	862.751	679.067
274.497	21.914	862.499	678.579
275.512	21.810	861.155	677.060
276.526	21.129	859.980	673.448
277.541	21.360	859.816	674.151
278.555	21.801	859.234	675.337
279.570	21.454	858.791	673.592
280.585	21.385	857.769	672.466
281.599	21.527	857.428	672.685
282.614	21.759	856.758	672.990
283.628	21.178	855.601	669.793
284.643	21.017	854.415	668.189
285.657	21.243	854.868	669.349
286.672	21.061	854.370	668.202
287.687	20.710	852.769	665.552
288.701	20.939	853.162	666.674
289.716	21.426	852.435	667.907
290.730	21.070	851.389	665.670
291.745	20.922	851.037	664.774
292.760	20.741	850.329	663.472
293.774	20.749	849.518	662.808
294.789	21.593	850.247	666.532
295.803	22.138	850.036	668.384
296.818	22.298	849.614	668.600
297.833	22.421	848.774	668.347
298.847	21.946	847.962	665.849
299.862	21.607	847.353	664.024
300.876	21.868	846.504	664.288
301.891	22.167	846.472	665.339
302.906	22.056	845.823	664.349
303.920	21.697	844.704	662.053
304.935	21.747	843.886	661.543
305.949	22.166	843.671	662.896
306.964	22.171	843.038	662.360
307.979	21.896	842.520	660.858
308.993	21.910	842.324	660.698
310.008	22.162	842.248	661.528
311.022	22.463	841.447	661.975
312.037	22.194	840.652	660.278
313.052	21.932	840.239	658.911
314.066	21.755	839.451	657.574
315.081	21.272	837.754	654.375
316.095	20.496	836.495	650.431
317.110	21.127	836.909	653.057
318.125	21.883	837.312	656.142
319.139	21.502	835.984	653.623
320.154	20.467	834.094	648.227
321.168	20.009	833.209	645.776
322.183	20.519	833.721	648.017
323.197	21.330	834.208	651.361
324.212	21.703	833.970	652.508
325.227	21.993	833.086	652.836
326.241	22.138	832.593	652.930
327.256	21.869	832.444	651.759
328.270	21.795	831.557	650.730
329.285	21.695	831.234	650.050
330.300	21.619	830.410	649.066
331.314	21.462	829.477	647.698
332.329	21.471	828.838	647.176
333.343	21.682	829.087	648.094
334.358	22.127	827.954	648.794
335.373	22.046	827.596	648.155
336.387	22.046	827.169	647.763
337.402	22.240	826.817	648.145
338.416	22.367	826.561	648.357
339.431	22.347	826.037	647.813
340.446	22.395	825.492	647.507
341.460	22.598	824.897	647.730
342.475	22.572	824.199	647.028
343.489	22.369	823.335	645.548
344.504	22.390	822.984	645.293
345.519	22.616	822.669	645.816
346.533	22.857	822.343	646.386
347.548	22.877	821.908	646.061
348.562	23.149	821.056	646.327
349.577	22.788	820.839	644.781
350.592	22.842	820.174	644.398
351.606	22.759	819.736	643.692
352.621	22.766	819.290	643.311
353.635	22.595	818.950	642.363
354.650	22.642	818.132	641.838
355.665	22.170	817.344	639.447
356.679	21.256	815.614	634.716
357.694	21.152	815.331	634.062
358.708	21.840	815.232	636.425
359.723	21.907	814.030	635.673
360.738	21.960	814.078	635.847
361.752	22.554	814.055	637.923
362.767	22.492	813.756	637.410
363.781	22.867	813.404	638.431
364.796	23.017	813.541	639.027
365.810	23.105	813.221	639.036
366.825	23.252	812.538	638.976
367.840	23.203	812.264	638.525
368.854	23.028	811.534	637.265
369.869	22.587	810.839	635.074
370.883	22.553	809.773	634.061
371.898	22.510	809.574	633.693
372.913	22.687	808.137	633.148
373.927	22.528	808.048	632.451
374.942	22.730	807.534	632.717
375.956	22.743	807.285	632.515
376.971	22.829	806.492	632.146
377.986	22.962	806.005	632.182
379.000	23.192	805.682	632.695
380.015	23.272	805.225	632.566
381.029	22.929	804.733	630.897
382.044	22.957	804.082	630.434
383.059	23.184	803.621	630.824
384.073	23.187	802.966	630.267
385.088	23.202	802.348	629.778
386.102	23.150	801.997	629.263
387.117	23.055	801.344	628.355
388.132	22.868	800.885	627.275
389.146	22.797	799.756	626.084
390.161	22.215	799.028	623.398
391.175	22.352	798.719	623.587
392.190	22.802	798.888	625.257
393.205	22.739	798.336	624.546
394.219	21.850	796.740	620.102
395.234	20.259	794.590	612.758
396.248	19.729	793.624	610.090
397.263	20.716	794.452	614.157
398.278	22.517	795.604	621.351
399.292	22.825	795.895	622.611
400.307	22.517	794.856	620.658
401.321	22.394	794.819	620.140
402.336	22.561	794.151	620.151
403.350	22.766	793.979	620.684
404.365	23.152	794.170	622.136
405.380	23.594	793.841	623.375
406.394	23.805	793.648	623.910
407.409	23.836	793.496	623.844
408.423	23.929	792.223	623.114
409.438	23.717	791.842	622.017
410.453	23.770	791.624	621.975
411.467	23.849	791.262	621.912
412.482	23.838	790.587	621.288
413.496	23.827	790.115	620.825
414.511	23.769	790.013	620.487
415.526	23.926	789.284	620.408
416.540	23.827	789.030	619.806
417.555	23.912	788.330	619.497
418.569	23.440	787.960	617.509
419.584	23.517	787.144	617.084
420.599	23.654	786.431	616.945
421.613	157.172	1364.518	1798.099
422.628	135.970	1448.760	1798.206
