DTS Sentinel unit serial number:	SN413079Multiplexer serial number:	ORYXHardware model number:	OX4-SRSoftware version number:	ORYX F/W v4.00 Oryx Data Collector v3.7.2.0data status	okinstallation	princeton_trtdifferential loss correction	single-endedforward channel	channel 3reverse channel	N/Adate	2019/09/17time	18:12:35forward acquisition time	60.00reverse acquisition time	0.00gamma	496.2192k internal	0.2289k external	0.2289temperature offset calibration	0.9946default loss term (dB/km)	0.3790temperature slope calibration	1.0000multiplexer offset coefficient	1.0000multiplexer slope coefficient	1.0000fibre end	0.00T internal ref (°C)	43.44T ext. ref 1 (°C)	0.32T ext. ref 2 (°C)	37.63length (m)	temperature (°C)	Stokes	anti-Stokes-747.200	-49.178	0.096	-0.047
-746.185	83.322	0.101	0.112
-745.171	-200.000	-0.045	0.242
-744.156	100.660	-0.135	-0.161
-743.142	321.717	0.084	0.163
-742.127	622.446	-0.183	0.473
-741.112	150.649	-0.171	0.238
-740.098	57.999	-0.114	0.114
-739.083	262.275	-0.076	-0.135
-738.069	800.000	-0.030	0.097
-737.054	-17.664	0.083	0.053
-736.039	-200.000	0.054	-0.399
-735.025	208.954	0.078	0.126
-734.010	-35.591	-0.304	-0.169
-732.996	-63.859	0.218	-0.091
-731.981	-3.008	-0.090	0.064
-730.966	298.985	-0.060	0.112
-729.952	72.501	-0.036	0.039
-728.937	-114.391	-0.180	-0.036
-727.923	576.523	0.054	-0.134
-726.908	-83.546	-0.059	-0.019
-725.894	-93.916	-0.150	-0.042
-724.879	134.999	-0.095	-0.127
-723.864	-200.000	0.006	-0.094
-722.850	-16.572	-0.096	0.063
-721.835	4.668	0.146	0.110
-720.821	-84.282	-0.431	0.140
-719.806	-92.136	-0.235	-0.068
-718.791	-62.679	0.192	-0.082
-717.777	-45.101	-0.125	-0.064
-716.762	-200.000	-0.003	0.322
-715.748	108.435	-0.108	-0.132
-714.733	50.029	-0.166	-0.160
-713.718	-52.405	0.242	0.115
-712.704	-92.377	-0.210	-0.061
-711.689	-109.822	0.429	-0.092
-710.675	-35.971	0.221	-0.122
-709.660	411.862	-0.012	0.025
-708.645	-200.000	-0.367	0.000
-707.631	800.000	0.046	-0.167
-706.616	-200.000	0.015	0.085
-705.602	254.437	0.022	0.038
-704.587	800.000	-0.073	-0.234
-703.572	38.924	-0.039	0.035
-702.558	-200.000	0.007	-0.262
-701.543	-37.195	0.161	-0.088
-700.529	-101.827	-0.363	-0.090
-699.514	-147.048	0.013	0.001
-698.499	59.742	-0.093	0.094
-697.485	31.645	-0.418	-0.368
-696.470	-60.113	-0.081	0.035
-695.456	136.373	0.060	-0.080
-694.441	800.000	-0.012	0.039
-693.426	-3.350	0.128	-0.091
-692.412	-151.066	-0.236	-0.018
-691.397	378.189	-0.094	0.198
-690.383	64.086	0.179	0.184
-689.368	-200.000	-0.049	0.427
-688.354	-200.000	-0.026	0.157
-687.339	364.706	0.034	-0.071
-686.324	373.215	0.136	-0.284
-685.310	-5.775	0.303	-0.212
-684.295	499.711	-0.048	-0.114
-683.281	-44.281	0.206	-0.106
-682.266	-82.442	-0.230	-0.076
-681.251	262.066	0.067	-0.119
-680.237	1.303	0.152	-0.111
-679.222	174.970	0.046	-0.067
-678.208	479.943	-0.131	-0.303
-677.193	800.000	-0.041	0.123
-676.178	800.000	-0.032	0.093
-675.164	-83.662	-0.216	0.071
-674.149	-84.584	-0.574	-0.185
-673.135	-76.218	0.241	-0.087
-672.120	-91.589	-0.169	-0.049
-671.105	-200.000	-0.040	-0.190
-670.091	33.669	-0.187	0.166
-669.076	-88.063	-0.155	-0.047
-668.062	-78.302	0.100	-0.035
-667.047	-200.000	0.048	0.251
-666.032	-200.000	0.057	-0.311
-665.018	800.000	0.063	-0.257
-664.003	117.494	0.067	0.084
-662.989	283.399	0.044	-0.080
-661.974	800.000	0.059	0.243
-660.959	-200.000	-0.025	0.211
-659.945	675.962	-0.044	0.116
-658.930	-49.814	-0.329	-0.160
-657.916	59.704	-0.171	-0.173
-656.901	-1.061	0.354	0.256
-655.886	-135.942	-0.219	-0.026
-654.872	732.430	-0.056	0.154
-653.857	180.646	0.017	-0.025
-652.843	-119.447	0.279	-0.050
-651.828	-200.000	0.022	-0.138
-650.814	-59.716	-0.342	-0.150
-649.799	273.899	0.168	-0.303
-648.784	263.604	-0.024	0.043
-647.770	800.000	-0.059	0.180
-646.755	-157.652	0.254	-0.015
-645.741	-200.000	0.007	0.130
-644.726	56.227	-0.227	-0.226
-643.711	-200.000	-0.031	0.233
-642.697	434.934	-0.085	-0.188
-641.682	-89.891	0.145	-0.043
-640.668	800.000	0.029	0.104
-639.653	-200.000	-0.043	-0.240
-638.638	69.352	0.173	0.182
-637.624	-68.872	-0.013	-0.005
-636.609	-87.520	0.525	-0.162
-635.595	-179.197	0.268	-0.006
-634.580	-200.000	-0.009	-0.144
-633.565	-135.263	0.012	-0.001
-632.551	800.000	0.111	0.320
-631.536	-94.536	0.097	-0.027
-630.522	-70.367	-0.163	-0.063
-629.507	134.957	0.180	-0.239
-628.492	96.271	0.217	-0.253
-627.478	-200.000	0.015	0.121
-626.463	-82.511	-0.064	0.021
-625.449	-89.541	-0.579	0.173
-624.434	225.126	0.156	-0.257
-623.419	700.884	-0.070	-0.189
-622.405	-200.000	0.020	-0.175
-621.390	-119.704	0.113	-0.020
-620.376	-200.000	0.084	0.420
-619.361	-200.000	0.026	0.128
-618.346	800.000	0.090	-0.336
-617.332	357.923	0.053	0.109
-616.317	-103.017	-0.178	0.043
-615.303	19.799	0.224	-0.184
-614.288	341.840	0.159	-0.317
-613.273	-200.000	-0.036	0.291
-612.259	-14.315	0.075	0.049
-611.244	139.688	0.173	0.232
-610.230	180.962	0.042	-0.062
-609.215	24.621	-0.235	-0.198
-608.201	-96.063	-0.122	-0.033
-607.186	-200.000	-0.002	0.043
-606.171	134.763	0.151	0.200
-605.157	-61.564	-0.151	0.064
-604.142	293.695	0.038	0.070
-603.128	-200.000	0.041	-0.186
-602.113	-200.000	-0.050	0.265
-601.098	-105.414	0.125	0.029
-600.084	-86.249	0.248	-0.078
-599.069	-80.351	0.215	-0.073
-598.055	-200.000	0.062	0.421
-597.040	-107.746	-0.181	0.040
-596.025	88.011	-0.170	-0.193
-595.011	-42.352	-0.396	0.206
-593.996	-114.517	-0.131	-0.026
-592.982	-200.000	-0.002	-0.117
-591.967	-200.000	0.053	-0.392
-590.952	-42.767	0.223	0.115
-589.938	800.000	0.037	0.153
-588.923	-55.376	-0.279	0.128
-587.909	379.040	-0.163	-0.340
-586.894	515.565	0.129	-0.307
-585.879	2.868	0.014	0.010
-584.865	22.470	0.077	-0.064
-583.850	-200.000	0.005	0.250
-582.836	-14.018	0.214	0.141
-581.821	-80.504	-0.215	0.073
-580.806	-153.217	-0.234	-0.017
-579.792	569.338	0.056	0.139
-578.777	-109.111	0.426	0.092
-577.763	-91.140	0.168	-0.049
-576.748	-89.183	-0.158	0.047
-575.733	9.061	-0.087	-0.067
-574.719	-55.235	-0.149	0.068
-573.704	-4.153	-0.533	-0.376
-572.690	-200.000	0.020	-0.109
-571.675	14.813	-0.147	-0.117
-570.661	-80.706	0.123	0.042
-569.646	-95.281	-0.374	0.102
-568.631	-125.469	0.197	0.030
-567.617	74.857	-0.193	-0.207
-566.602	115.158	-0.097	-0.121
-565.588	-17.262	0.060	0.039
-564.573	-200.000	-0.033	0.259
-563.558	385.455	0.041	-0.086
-562.544	800.000	-0.057	0.176
-561.529	65.933	0.203	0.210
-560.515	369.512	-0.065	0.133
-559.500	-200.000	0.001	-0.031
-558.485	1.311	-0.060	-0.044
-557.471	134.933	0.108	-0.142
-556.456	-38.313	-0.184	-0.099
-555.442	549.252	0.036	-0.088
-554.427	-200.000	-0.023	0.115
-553.412	447.909	0.070	-0.156
-552.398	66.501	-0.053	-0.055
-551.383	-200.000	-0.010	0.157
-550.369	-125.185	-0.179	-0.028
-549.354	170.582	0.029	-0.043
-548.339	306.542	0.115	0.217
-547.325	-19.912	0.182	-0.114
-546.310	402.358	0.089	-0.191
-545.296	800.000	-0.135	0.576
-544.281	13.946	0.171	0.135
-543.266	72.766	0.247	-0.262
-542.252	145.731	0.134	-0.183
-541.237	-150.080	-0.304	0.024
-540.223	138.522	-0.118	0.157
-539.208	791.760	0.023	-0.064
-538.193	-90.316	0.151	0.045
-537.179	31.076	0.093	0.081
-536.164	-176.324	-0.146	0.004
-535.150	27.334	-0.113	-0.096
-534.135	338.335	0.077	0.153
-533.121	175.729	0.123	-0.181
-532.106	161.786	-0.163	-0.232
-531.091	-200.000	-0.048	0.271
-530.077	-136.455	0.195	-0.023
-529.062	299.720	0.094	0.175
-528.048	307.711	-0.092	0.174
-527.033	284.743	-0.130	0.238
-526.018	-99.445	-0.209	0.053
-525.004	756.936	-0.088	0.243
-523.989	120.973	0.112	-0.142
-522.975	42.928	0.253	-0.235
-521.960	-29.636	-0.220	0.128
-520.945	-101.394	0.237	0.059
-519.931	224.850	0.074	0.121
-518.916	-200.000	0.058	0.380
-517.902	-65.506	0.131	-0.053
-516.887	-156.403	-0.280	0.018
-515.872	800.000	0.076	0.256
-514.858	-135.318	-0.177	0.021
-513.843	529.116	-0.063	-0.151
-512.829	197.411	-0.055	-0.085
-511.814	-96.441	0.118	0.032
-510.799	-76.672	0.268	-0.095
-509.785	800.000	-0.027	-0.105
-508.770	-94.660	0.072	-0.020
-507.756	197.364	-0.245	-0.379
-506.741	-76.886	-0.153	0.054
-505.726	-126.759	-0.142	0.021
-504.712	-116.951	0.486	0.090
-503.697	-200.000	0.004	-0.116
-502.683	61.897	0.056	-0.057
-501.668	-144.362	0.033	0.003
-500.653	138.895	-0.121	0.161
-499.639	-129.658	0.071	0.010
-498.624	-62.252	-0.330	-0.140
-497.610	-81.053	0.190	-0.064
-496.595	184.367	-0.133	0.199
-495.581	-200.000	0.043	0.301
-494.566	-25.585	0.238	0.143
-493.551	-193.120	-0.067	-0.001
-492.537	-54.851	-0.262	-0.120
-491.522	-141.524	-0.239	-0.025
-490.508	-200.000	-0.034	0.391
-489.493	-200.000	0.125	-0.000
-488.478	31.460	-0.081	-0.071
-487.464	800.000	0.023	-0.088
-486.449	224.593	0.111	0.182
-485.435	-28.765	0.145	-0.085
-484.420	800.000	0.088	0.254
-483.405	-83.229	-0.059	-0.019
-482.391	-27.618	-0.157	0.092
-481.376	800.000	0.083	-0.365
-480.362	202.417	0.063	0.099
-479.347	461.717	-0.026	0.058
-478.332	-200.000	-0.053	-0.290
-477.318	166.454	0.171	0.246
-476.303	-14.306	0.175	0.114
-475.289	800.000	-0.165	-0.564
-474.274	-76.584	-0.243	-0.086
-473.259	7.924	-0.151	0.115
-472.245	-200.000	-0.058	0.264
-471.230	800.000	0.050	-0.160
-470.216	-133.098	0.278	-0.036
-469.201	-63.306	0.088	-0.037
-468.186	-113.176	0.174	0.035
-467.172	74.187	-0.134	0.142
-466.157	-200.000	0.033	-0.193
-465.143	800.000	0.036	0.104
-464.128	800.000	0.070	0.292
-463.113	800.000	-0.048	0.149
-462.099	-151.985	-0.226	0.017
-461.084	-149.931	-0.049	-0.004
-460.070	10.808	0.202	0.157
-459.055	82.670	0.062	-0.068
-458.040	-91.133	-0.096	0.028
-457.026	-29.361	-0.245	-0.142
-456.011	-95.563	-0.089	0.024
-454.997	800.000	0.077	0.325
-453.982	-200.000	0.033	-0.170
-452.968	-50.387	0.340	0.163
-451.953	-1.509	0.206	0.147
-450.938	71.996	0.131	0.138
-449.924	-14.572	0.146	0.095
-448.909	50.987	0.150	-0.144
-447.895	-102.622	0.251	0.061
-446.880	-95.493	-0.236	-0.064
-445.865	427.172	0.087	-0.190
-444.851	-200.000	0.005	0.072
-443.836	-148.652	-0.078	-0.006
-442.822	-200.000	0.003	-0.130
-441.807	44.005	-0.175	0.162
-440.792	-200.000	0.063	0.325
-439.778	-188.173	-0.141	-0.002
-438.763	7.021	0.346	0.261
-437.749	-200.000	-0.001	-0.065
-436.734	-200.000	-0.033	-0.270
-435.719	-4.224	0.284	0.199
-434.705	-25.508	0.165	-0.099
-433.690	-172.348	-0.268	-0.009
-432.676	394.213	0.095	-0.201
-431.661	-147.279	0.322	0.028
-430.646	-200.000	-0.015	-0.211
-429.632	-43.690	-0.401	-0.205
-428.617	141.649	0.186	-0.250
-427.603	-62.349	-0.027	-0.011
-426.588	-200.000	-0.002	-0.113
-425.573	800.000	-0.074	-0.259
-424.559	800.000	-0.114	0.354
-423.544	579.201	-0.136	0.338
-422.530	651.456	-0.097	0.251
-421.515	340.752	0.144	0.284
-420.500	800.000	0.035	0.101
-419.486	62.589	-0.125	0.127
-418.471	-6.788	-0.136	-0.094
-417.457	-149.168	-0.271	0.022
-416.442	543.548	0.052	0.125
-415.428	-200.000	-0.027	-0.133
-414.413	800.000	0.005	0.019
-413.398	-200.000	-0.037	-0.369
-412.384	-200.000	-0.043	-0.244
-411.369	-175.214	0.216	0.006
-410.355	-69.110	0.097	0.038
-409.340	113.794	-0.254	0.312
-408.325	-111.179	0.387	-0.080
-407.311	161.855	-0.154	0.218
-406.296	800.000	0.019	-0.059
-405.282	231.624	0.155	0.257
-404.267	-152.128	0.273	0.020
-403.252	4.238	-0.133	0.099
-402.238	186.787	0.136	-0.205
-401.223	800.000	0.080	0.295
-400.209	254.781	0.215	0.373
-399.194	-100.901	0.093	-0.023
-398.179	-57.322	0.393	-0.175
-397.165	333.501	0.040	0.079
-396.150	-161.028	0.179	-0.010
-395.136	519.274	0.053	-0.126
-394.121	-200.000	0.047	-0.299
-393.106	233.024	-0.130	-0.217
-392.092	-98.294	0.104	-0.027
-391.077	95.991	0.115	-0.132
-390.063	112.443	-0.273	0.334
-389.048	-19.017	-0.064	-0.040
-388.033	-50.041	0.212	-0.102
-387.019	-114.547	0.360	0.070
-386.004	-136.473	-0.419	-0.049
-384.990	145.155	0.245	-0.331
-383.975	-200.000	0.031	0.234
-382.960	-200.000	0.018	-0.135
-381.946	-76.337	-0.221	-0.079
-380.931	-117.643	-0.165	0.030
-379.917	-200.000	-0.040	-0.266
-378.902	9.480	0.043	-0.033
-377.888	-200.000	0.010	0.209
-376.873	264.278	0.147	-0.258
-375.858	-130.023	0.146	0.020
-374.844	92.458	0.242	0.276
-373.829	-200.000	0.027	0.214
-372.815	-70.922	-0.332	0.126
-371.800	23.549	0.124	-0.103
-370.785	800.000	-0.068	-0.197
-369.771	209.210	0.071	-0.113
-368.756	202.579	0.106	0.165
-367.742	-44.669	0.134	0.068
-366.727	-63.748	-0.184	0.076
-365.712	-31.284	0.226	-0.128
-364.698	-95.384	0.165	-0.045
-363.683	800.000	-0.068	-0.237
-362.669	18.232	-0.077	-0.062
-361.654	-120.517	0.178	0.030
-360.639	800.000	0.046	0.155
-359.625	-133.271	-0.099	0.013
-358.610	-200.000	-0.013	0.174
-357.596	800.000	-0.019	0.071
-356.581	-91.085	-0.087	0.025
-355.566	800.000	-0.065	-0.210
-354.552	-55.239	0.223	-0.101
-353.537	321.183	0.055	0.106
-352.523	-66.502	0.115	0.046
-351.508	-96.863	-0.159	0.042
-350.493	43.573	-0.029	-0.026
-349.479	146.076	0.093	0.126
-348.464	-80.964	-0.327	0.109
-347.450	5.077	-0.401	0.298
-346.435	313.272	0.093	0.176
-345.420	583.437	0.047	-0.116
-344.406	53.543	0.286	-0.277
-343.391	-177.276	0.131	-0.003
-342.377	-113.724	0.102	0.020
-341.362	-162.186	-0.247	-0.012
-340.348	-85.984	0.095	-0.030
-339.333	-200.000	-0.005	0.247
-338.318	772.955	-0.148	-0.406
-337.304	-59.934	0.182	0.078
-336.289	-200.000	0.056	0.363
-335.275	30.285	-0.123	0.106
-334.260	-200.000	-0.003	-0.181
-333.245	31.301	-0.257	-0.223
-332.231	-113.423	-0.206	-0.041
-331.216	800.000	-0.121	0.355
-330.202	436.404	-0.072	0.158
-329.187	-11.358	-0.106	0.070
-328.172	-200.000	0.019	0.124
-327.158	-200.000	-0.012	-0.221
-326.143	7.922	-0.112	-0.085
-325.129	205.944	-0.103	-0.161
-324.114	26.980	0.058	0.049
-323.099	-92.941	0.100	0.028
-322.085	800.000	0.059	-0.213
-321.070	-10.867	-0.208	-0.138
-320.056	225.040	-0.127	-0.207
-319.041	-28.801	-0.077	-0.044
-318.026	-167.616	-0.153	-0.006
-317.012	194.902	-0.050	0.077
-315.997	30.102	0.178	0.153
-314.983	-72.521	-0.346	-0.129
-313.968	24.323	0.143	-0.119
-312.953	800.000	-0.082	0.244
-311.939	-100.243	0.180	0.045
-310.924	-57.943	-0.084	0.037
-309.910	26.664	0.241	-0.203
-308.895	-45.535	0.231	-0.115
-307.880	-200.000	0.015	-0.099
-306.866	-22.742	-0.146	0.089
-305.851	-140.576	0.375	-0.039
-304.837	-11.312	0.078	-0.052
-303.822	-35.702	0.320	-0.175
-302.807	-82.658	-0.235	-0.077
-301.793	234.231	-0.098	-0.163
-300.778	94.318	-0.116	-0.132
-299.764	779.121	0.043	0.118
-298.749	204.271	-0.104	-0.162
-297.735	87.424	-0.125	0.140
-296.720	-186.904	-0.213	-0.003
-295.705	140.092	-0.217	0.288
-294.691	509.000	0.119	0.279
-293.676	141.419	0.095	0.127
-292.662	800.000	-0.021	0.075
-291.647	385.706	-0.093	0.193
-290.632	66.592	-0.242	-0.248
-289.618	-17.781	-0.167	-0.106
-288.603	-150.487	0.371	-0.029
-287.589	-12.397	-0.203	-0.133
-286.574	322.295	0.093	-0.179
-285.559	70.693	-0.095	0.099
-284.545	800.000	0.043	0.158
-283.530	-11.824	0.103	-0.068
-282.516	-200.000	-0.043	-0.399
-281.501	800.000	0.025	0.082
-280.486	-200.000	-0.021	0.217
-279.472	670.877	-0.116	0.302
-278.457	-71.599	-0.073	0.027
-277.443	119.466	-0.149	-0.185
-276.428	-200.000	0.004	-0.215
-275.413	309.215	-0.060	-0.112
-274.399	-37.748	-0.109	-0.058
-273.384	88.714	-0.158	0.177
-272.370	-165.917	0.231	0.010
-271.355	-32.671	-0.072	-0.041
-270.340	-200.000	-0.039	-0.482
-269.326	298.624	-0.203	-0.376
-268.311	371.241	-0.099	-0.202
-267.297	182.318	0.091	-0.135
-266.282	-58.596	0.228	-0.100
-265.267	-199.380	-0.217	0.001
-264.253	-65.563	0.025	-0.010
-263.238	-13.519	-0.244	-0.159
-262.224	80.123	0.111	0.120
-261.209	522.868	0.126	-0.298
-260.195	-35.364	-0.215	-0.117
-259.180	115.783	0.056	0.069
-258.165	-200.000	-0.043	0.283
-257.151	-200.000	0.003	0.320
-256.136	-200.000	0.002	0.010
-255.122	-17.191	-0.137	-0.087
-254.107	-200.000	-0.030	-0.149
-253.092	39.216	0.218	-0.197
-252.078	2.418	-0.390	-0.284
-251.063	-200.000	-0.027	-0.317
-250.049	54.005	0.062	-0.060
-249.034	15.115	0.310	0.244
-248.019	78.406	0.081	-0.086
-247.005	378.393	0.015	0.032
-245.990	-200.000	-0.019	0.209
-244.976	-78.019	0.241	-0.083
-243.961	189.052	0.199	0.299
-242.946	111.709	0.101	-0.122
-241.932	-113.805	-0.115	0.023
-240.917	209.060	0.061	-0.097
-239.903	-200.000	0.091	0.526
-238.888	800.000	-0.070	-0.286
-237.873	-200.000	0.064	0.404
-236.859	-100.326	-0.123	0.031
-235.844	195.211	0.094	-0.143
-234.830	-177.895	-0.360	-0.009
-233.815	-125.633	0.140	0.021
-232.800	800.000	0.055	0.199
-231.786	89.900	-0.195	0.218
-230.771	-12.261	-0.155	-0.102
-229.757	43.846	0.273	-0.251
-228.742	-200.000	0.024	0.131
-227.727	94.222	0.194	-0.221
-226.713	-48.304	-0.224	-0.108
-225.698	195.163	0.144	-0.219
-224.684	1.747	-0.139	0.101
-223.669	-90.971	-0.298	0.086
-222.655	103.402	0.201	-0.237
-221.640	-200.000	-0.038	0.295
-220.625	800.000	-0.060	0.237
-219.611	-200.000	-0.016	0.297
-218.596	-200.000	-0.009	-0.174
-217.582	18.166	0.015	0.012
-216.567	-83.374	-0.262	-0.084
-215.552	-127.929	0.362	-0.052
-214.538	-58.471	-0.245	-0.107
-213.523	-200.000	-0.029	-0.131
-212.509	180.805	-0.291	0.428
-211.494	-200.000	0.052	-0.338
-210.479	-74.080	-0.202	0.074
-209.465	759.918	0.084	0.229
-208.450	489.831	-0.008	0.019
-207.436	-77.408	-0.107	0.037
-206.421	-87.771	0.104	0.031
-205.406	-62.020	-0.178	-0.075
-204.392	800.000	-0.106	-0.301
-203.377	-91.952	-0.184	0.052
-202.363	95.123	0.227	0.259
-201.348	-155.989	-0.161	-0.010
-200.333	55.677	0.248	-0.241
-199.319	350.629	-0.037	0.072
-198.304	-200.000	-0.020	0.175
-197.290	560.673	0.044	-0.108
-196.275	-200.000	-0.043	-0.227
-195.260	-200.000	-0.048	0.232
-194.246	-200.000	0.059	0.316
-193.231	-200.000	-0.027	-0.268
-192.217	800.000	0.070	-0.227
-191.202	-154.486	-0.213	-0.014
-190.187	44.186	-0.237	-0.218
-189.173	-58.281	-0.281	-0.123
-188.158	-5.851	0.200	-0.137
-187.144	41.859	0.231	-0.210
-186.129	-200.000	0.013	0.212
-185.114	-148.755	0.411	0.033
-184.100	117.900	0.187	0.231
-183.085	-102.188	-0.134	0.032
-182.071	66.076	-0.133	0.136
-181.056	-26.174	-0.179	-0.105
-180.042	312.263	0.079	-0.148
-179.027	105.115	-0.279	-0.330
-178.012	800.000	0.097	-0.406
-176.998	105.478	-0.085	-0.100
-175.983	362.037	0.170	-0.341
-174.969	-200.000	-0.015	-0.339
-173.954	-125.737	-0.257	-0.039
-172.939	-77.138	-0.105	0.037
-171.925	18.430	0.071	0.057
-170.910	800.000	-0.046	-0.194
-169.896	113.296	0.061	-0.075
-168.881	519.900	-0.135	-0.317
-167.866	-82.407	-0.136	-0.044
-166.852	96.847	-0.040	0.046
-165.837	-129.275	0.064	0.009
-164.823	-200.000	-0.078	0.366
-163.808	410.730	0.235	0.500
-162.793	-200.000	0.072	0.501
-161.779	-140.698	-0.136	0.014
-160.764	800.000	0.059	-0.210
-159.750	237.143	0.064	-0.105
-158.735	-200.000	0.054	0.264
-157.720	-146.432	-0.067	0.006
-156.706	-95.263	0.203	0.055
-155.691	-200.000	0.022	0.332
-154.677	-200.000	-0.013	0.358
-153.662	-171.880	0.129	-0.004
-152.647	370.623	-0.149	0.302
-151.633	79.469	-0.389	-0.417
-150.618	41.527	0.380	-0.344
-149.604	37.263	-0.138	-0.122
-148.589	-104.003	-0.137	0.032
-147.574	305.813	-0.248	0.462
-146.560	-200.000	0.032	0.209
-145.545	-59.685	0.081	0.035
-144.531	-83.915	0.051	0.016
-143.516	-151.365	0.135	0.010
-142.502	-0.887	0.261	0.185
-141.487	-200.000	-0.005	0.307
-140.472	-10.751	0.156	-0.103
-139.458	42.484	-0.195	-0.178
-138.443	-200.000	-0.007	0.253
-137.429	75.258	-0.092	-0.097
-136.414	-125.983	-0.125	-0.019
-135.399	-200.000	-0.081	0.441
-134.385	87.619	0.114	0.126
-133.370	-42.705	0.135	0.069
-132.356	-164.957	0.166	-0.007
-131.341	-75.797	0.055	-0.020
-130.326	92.297	0.082	0.093
-129.312	-200.000	-0.008	0.279
-128.297	800.000	0.101	0.363
-127.283	-200.000	0.043	0.292
-126.268	50.963	-0.028	-0.027
-125.253	-90.366	0.248	-0.072
-124.239	19.340	-0.246	0.197
-123.224	-77.960	-0.107	0.037
-122.210	528.160	0.177	-0.418
-121.195	-133.698	0.273	0.034
-120.180	-171.844	-0.295	0.010
-119.166	-162.359	0.267	-0.013
-118.151	429.401	0.066	0.142
-117.137	50.613	-0.054	0.051
-116.122	592.988	0.039	0.097
-115.107	151.312	0.150	0.204
-114.093	44.871	0.198	-0.182
-113.078	800.000	0.044	0.172
-112.064	-200.000	-0.001	-0.205
-111.049	74.549	0.105	-0.111
-110.034	-200.000	-0.011	0.457
-109.020	-131.257	-0.304	0.040
-108.005	-200.000	-0.005	-0.181
-106.991	773.441	-0.041	0.112
-105.976	800.000	-0.131	0.421
-104.962	-105.727	0.092	0.021
-103.947	800.000	-0.095	-0.264
-102.932	-105.881	0.130	0.029
-101.918	-124.320	0.148	0.023
-100.903	-200.000	-0.019	-0.218
-99.889	165.421	0.032	-0.046
-98.874	138.770	-0.053	0.070
-97.859	127.570	0.111	0.141
-96.845	-76.249	0.257	0.091
-95.830	-125.468	0.443	0.067
-94.816	350.339	0.033	-0.066
-93.801	-200.000	-0.014	0.170
-92.786	-200.000	0.022	0.218
-91.772	-43.387	0.282	-0.142
-90.757	-46.710	-0.163	0.080
-89.743	-200.000	0.017	0.105
-88.728	363.782	-0.063	0.127
-87.713	-20.286	0.386	0.237
-86.699	-75.625	0.232	0.082
-85.684	270.396	0.009	-0.016
-84.670	202.955	-0.129	0.199
-83.655	-13.948	0.044	0.029
-82.640	-200.000	0.037	0.225
-81.626	169.693	0.143	-0.203
-80.611	468.333	0.115	0.258
-79.597	-200.000	0.003	0.035
-78.582	-59.743	0.072	0.031
-77.567	800.000	0.048	-0.137
-76.553	-88.673	0.348	-0.103
-75.538	-82.066	0.154	-0.050
-74.524	157.127	0.141	-0.195
-73.509	507.923	-0.099	0.229
-72.494	311.516	-0.023	0.042
-71.480	412.444	0.070	0.148
-70.465	17.670	0.126	-0.100
-69.451	-193.413	0.360	-0.003
-68.436	27.730	-0.135	0.114
-67.422	800.000	-0.008	-0.029
-66.407	16.849	0.160	-0.126
-65.392	-124.431	-0.143	-0.022
-64.378	-105.435	-0.195	0.044
-63.363	-200.000	0.024	-0.119
-62.349	-158.590	0.437	-0.025
-61.334	30.183	-0.368	-0.314
-60.319	800.000	0.088	0.291
-59.305	-200.000	-0.163	-0.717
-58.290	174.997	0.355	0.513
-57.276	769.253	0.607	1.647
-56.261	-200.000	73.773	564.994
-55.246	565.086	1315.134	3180.498
-54.232	137.894	2569.767	3358.986
-53.217	120.340	2269.507	2810.861
-52.203	55.240	1778.315	1715.252
-51.188	47.239	1568.747	1457.020
-50.173	44.217	1538.036	1407.531
-49.159	60.321	1572.274	1551.655
-48.144	67.804	1592.924	1624.155
-47.130	47.575	1556.567	1447.828
-46.115	43.721	1542.199	1407.670
-45.100	43.579	1538.619	1403.356
-44.086	43.462	1536.670	1400.716
-43.071	43.392	1534.963	1398.613
-42.057	43.327	1533.181	1396.492
-41.042	43.326	1531.378	1394.782
-40.027	43.422	1529.985	1394.119
-39.013	43.376	1528.464	1392.364
-37.998	43.357	1527.325	1391.141
-36.984	43.474	1526.220	1390.880
-35.969	43.382	1524.952	1389.041
-34.954	43.616	1523.099	1388.905
-33.940	43.446	1522.221	1386.885
-32.925	43.467	1520.331	1385.249
-31.911	43.392	1519.296	1383.737
-30.896	43.473	1517.636	1382.723
-29.881	43.551	1516.232	1381.926
-28.867	43.556	1514.963	1380.749
-27.852	43.452	1513.864	1378.978
-26.838	43.531	1511.775	1377.563
-25.823	43.406	1510.218	1375.237
-24.809	43.502	1508.154	1373.956
-23.794	43.375	1507.355	1372.312
-22.779	43.495	1505.919	1371.761
-21.765	43.320	1505.518	1370.157
-20.750	43.463	1504.018	1369.702
-19.736	43.533	1502.743	1368.964
-18.721	43.479	1501.717	1367.606
-17.706	43.444	1500.254	1365.987
-16.692	43.404	1499.462	1364.941
-15.677	43.435	1498.098	1363.851
-14.663	43.400	1497.535	1363.054
-13.648	43.460	1495.811	1361.831
-12.633	43.299	1495.599	1360.502
-11.619	43.501	1494.508	1360.811
-10.604	43.499	1493.579	1359.904
-9.590	43.363	1492.988	1358.391
-8.575	43.435	1491.926	1357.860
-7.560	43.417	1490.888	1356.735
-6.546	43.437	1490.219	1356.211
-5.531	43.381	1488.895	1354.573
-4.517	43.430	1487.764	1353.818
-3.502	43.377	1486.594	1352.348
-2.487	43.279	1486.058	1351.150
-1.473	43.343	1484.935	1350.501
-0.458	43.394	1483.230	1349.237
0.556	41.825	1473.881	1339.515
1.571	38.416	1445.490	1291.145
2.586	33.205	1378.564	1198.352
3.600	29.326	1291.961	1099.881
4.615	26.531	1242.930	1041.985
5.629	22.038	1184.620	968.295
6.644	11.153	1092.987	837.637
7.659	2.178	1044.921	756.441
8.673	0.420	1039.585	743.848
9.688	0.364	1035.996	740.939
10.702	0.226	1034.767	739.315
11.717	0.270	1033.193	738.342
12.731	2.861	1036.105	753.080
13.746	11.599	1048.528	805.264
14.761	17.649	1055.755	840.673
15.775	17.530	1054.434	838.962
16.790	16.684	1051.897	832.710
17.804	15.535	1049.911	825.420
18.819	14.572	1048.443	819.466
19.834	14.170	1046.464	815.874
20.848	13.925	1045.614	813.940
21.863	13.635	1044.579	811.642
22.877	13.354	1043.753	809.552
23.892	13.195	1043.075	808.177
24.907	13.119	1042.186	807.048
25.921	13.053	1041.144	805.845
26.936	13.089	1040.995	805.835
27.950	13.143	1040.188	805.404
28.965	13.134	1039.449	804.713
29.980	13.164	1038.517	804.068
30.994	13.189	1037.616	803.420
32.009	13.278	1036.747	803.108
33.023	13.399	1036.147	803.163
34.038	13.337	1035.297	802.130
35.053	13.317	1034.206	801.118
36.067	13.309	1033.337	800.333
37.082	13.252	1032.653	799.460
38.096	13.244	1031.867	798.743
39.111	13.353	1031.017	798.540
40.126	13.315	1030.271	797.707
41.140	13.243	1029.044	796.338
42.155	13.143	1028.392	795.282
43.169	13.093	1027.425	794.222
44.184	13.128	1026.212	793.384
45.199	13.101	1024.937	792.199
46.213	13.157	1024.051	791.710
47.228	13.069	1023.097	790.482
48.242	13.072	1022.399	789.890
49.257	13.153	1021.569	789.567
50.271	13.234	1020.419	788.993
51.286	13.148	1019.619	787.894
52.301	13.209	1018.529	787.274
53.315	13.084	1018.190	786.346
54.330	13.129	1017.139	785.676
55.344	13.252	1015.911	785.243
56.359	13.148	1015.126	784.075
57.374	13.109	1014.473	783.316
58.388	13.107	1013.898	782.791
59.403	13.090	1012.634	781.667
60.417	13.060	1011.794	780.811
61.432	13.113	1011.122	780.473
62.447	13.107	1010.532	779.918
63.461	13.081	1009.691	779.076
64.476	12.942	1008.914	777.753
65.490	13.006	1007.956	777.249
66.505	12.980	1006.783	776.151
67.520	13.026	1006.328	775.950
68.534	13.141	1005.237	775.581
69.549	13.021	1004.730	774.557
70.563	13.087	1004.025	774.253
71.578	13.117	1003.452	773.885
72.593	12.956	1002.352	772.214
73.607	12.952	1001.726	771.646
74.622	12.998	1000.816	771.089
75.636	13.014	999.618	770.176
76.651	12.956	999.013	769.371
77.666	12.918	998.458	768.697
78.680	13.040	997.552	768.496
79.695	12.942	997.232	767.729
80.709	12.890	996.991	767.234
81.724	12.988	995.843	766.738
82.739	13.023	995.057	766.228
83.753	13.048	994.300	765.691
84.768	13.089	993.502	765.199
85.782	13.208	992.348	764.791
86.797	13.229	991.833	764.428
87.812	13.262	991.012	763.879
88.826	13.190	990.055	762.742
89.841	13.171	989.314	762.014
90.855	13.066	989.190	761.366
91.870	13.086	988.224	760.646
92.884	13.157	987.421	760.290
93.899	13.290	986.611	760.211
94.914	13.395	985.476	759.751
95.928	13.291	985.083	758.904
96.943	13.250	984.448	758.161
97.957	13.176	983.668	757.153
98.972	13.272	983.049	757.049
99.987	13.285	982.048	756.268
101.001	13.273	980.976	755.323
102.016	13.219	980.354	754.528
103.030	13.308	979.417	754.146
104.045	13.272	978.566	753.264
105.060	13.307	977.426	752.479
106.074	13.188	976.670	751.288
107.089	13.131	975.681	750.200
108.103	13.163	974.648	749.487
109.118	13.114	974.031	748.723
110.133	13.092	973.108	747.847
111.147	13.061	972.746	747.362
112.162	13.005	971.494	746.082
113.176	13.145	970.561	745.933
114.191	13.226	969.975	745.779
115.206	13.246	969.037	745.085
116.220	13.111	968.456	743.962
117.235	13.176	967.810	743.693
118.249	13.126	966.719	742.564
119.264	13.278	965.526	742.267
120.279	13.129	964.921	741.064
121.293	13.164	964.205	740.608
122.308	13.013	963.221	739.110
123.322	13.143	962.533	739.098
124.337	13.064	961.598	737.963
125.352	13.123	960.601	737.396
126.366	13.209	958.847	736.367
127.381	13.182	958.250	735.723
128.395	13.102	957.530	734.746
129.410	13.150	956.541	734.137
130.424	13.158	955.715	733.475
131.439	13.073	954.884	732.396
132.454	13.252	954.003	732.445
133.468	13.257	953.253	731.829
134.483	13.269	952.585	731.303
135.497	13.233	951.937	730.584
136.512	13.256	951.048	729.938
137.527	13.302	950.337	729.531
138.541	13.334	949.543	728.999
139.556	13.283	948.843	728.172
140.570	13.298	948.645	728.020
141.585	13.242	947.978	727.199
142.600	13.259	947.070	726.512
143.614	13.274	946.032	725.718
144.629	13.442	945.114	725.686
145.643	13.380	944.563	724.925
146.658	13.371	943.971	724.368
147.673	13.379	942.854	723.482
148.687	13.383	941.738	722.580
149.702	13.338	940.905	721.681
150.716	13.309	940.021	720.810
151.731	13.278	939.135	719.933
152.746	13.159	939.213	719.412
153.760	13.274	937.871	718.822
154.775	13.287	937.542	718.560
155.789	13.398	936.129	717.897
156.804	13.347	935.598	717.203
157.819	13.404	934.729	716.723
158.833	13.489	933.980	716.452
159.848	13.339	933.660	715.496
160.862	13.426	932.792	715.141
161.877	13.296	932.398	714.213
162.892	13.370	931.163	713.522
163.906	13.362	930.105	712.617
164.921	13.360	929.334	711.952
165.935	13.349	928.530	711.229
166.950	13.337	927.296	710.167
167.964	13.430	926.867	710.176
168.979	13.385	925.501	708.872
169.994	13.471	924.469	708.388
171.008	13.431	923.815	707.654
172.023	13.410	923.415	707.193
173.037	13.399	922.557	706.430
174.052	13.480	921.727	706.077
175.067	13.509	920.939	705.532
176.081	13.536	920.347	705.131
177.096	13.390	919.642	703.909
178.110	13.459	918.618	703.355
179.125	13.378	918.077	702.534
180.140	13.508	916.953	702.164
181.154	13.346	916.587	701.135
182.169	13.407	916.145	700.992
183.183	13.575	914.996	700.764
184.198	13.647	914.376	700.531
185.213	13.660	913.570	699.904
186.227	13.769	912.847	699.752
187.242	13.647	912.714	699.072
188.256	13.674	911.988	698.565
189.271	13.822	911.436	698.704
190.286	13.753	910.937	697.969
191.300	13.725	909.882	696.983
192.315	13.517	909.281	695.588
193.329	13.503	908.243	694.674
194.344	13.449	907.740	694.003
195.359	13.543	907.339	694.028
196.373	13.636	906.615	693.801
197.388	13.666	906.030	693.417
198.402	13.637	906.014	693.223
199.417	13.766	905.453	693.272
200.432	13.831	904.856	693.024
201.446	13.962	904.153	692.969
202.461	13.856	903.948	692.311
203.475	13.936	903.242	692.042
204.490	13.931	902.791	691.613
205.504	13.887	901.977	690.745
206.519	13.927	900.895	690.024
207.534	13.897	900.821	689.780
208.548	13.916	899.679	688.924
209.563	13.832	899.134	688.098
210.577	13.848	898.157	687.355
211.592	13.908	897.629	687.137
212.607	13.898	897.366	686.833
213.621	13.984	896.465	686.440
214.636	14.007	895.985	686.105
215.650	13.968	895.486	685.502
216.665	13.982	894.449	684.705
217.680	13.983	894.053	684.344
218.694	14.134	893.556	684.527
219.709	14.072	893.246	683.973
220.723	14.102	892.343	683.346
221.738	14.239	891.500	683.201
222.753	14.234	890.892	682.656
223.767	14.123	890.257	681.651
224.782	14.220	889.594	681.480
225.796	14.204	888.862	680.797
226.811	14.208	888.147	680.203
227.826	14.231	887.536	679.770
228.840	14.392	886.705	679.729
229.855	14.273	886.248	678.834
230.869	14.154	885.817	677.960
231.884	14.205	884.976	677.464
232.899	14.296	883.888	676.938
233.913	14.164	883.384	675.957
234.928	14.164	882.836	675.479
235.942	14.229	882.268	675.250
236.957	14.256	881.239	674.510
237.972	14.145	881.017	673.831
238.986	14.205	880.134	673.338
240.001	14.238	879.637	673.034
241.015	14.233	878.944	672.422
242.030	14.290	878.327	672.122
243.045	14.327	877.401	671.501
244.059	14.375	876.944	671.287
245.074	14.408	876.258	670.834
246.088	14.430	875.595	670.358
247.103	14.367	875.258	669.786
248.117	14.370	874.409	669.088
249.132	14.509	873.963	669.247
250.147	14.537	873.538	668.976
251.161	14.593	872.827	668.595
252.176	14.702	871.855	668.226
253.190	14.730	871.084	667.688
254.205	14.608	870.898	666.998
255.220	14.676	870.377	666.812
256.234	14.621	869.602	665.943
257.249	14.712	869.145	665.895
258.263	14.782	868.714	665.784
259.278	14.832	868.042	665.409
260.293	14.741	867.567	664.627
261.307	14.853	866.752	664.385
262.322	14.778	866.295	663.682
263.336	14.864	865.524	663.371
264.351	14.916	864.977	663.101
265.366	14.938	864.200	662.535
266.380	15.020	863.316	662.119
267.395	14.937	862.961	661.461
268.409	14.950	862.157	660.837
269.424	14.790	861.770	659.851
270.439	14.845	861.107	659.501
271.453	14.934	860.515	659.341
272.468	15.061	859.303	658.856
273.482	14.825	859.188	657.778
274.497	14.871	858.254	657.189
275.512	14.879	857.841	656.843
276.526	14.974	856.946	656.472
277.541	14.987	856.135	655.845
278.555	14.824	856.196	655.196
279.570	15.069	855.307	655.417
280.585	15.164	854.898	655.415
281.599	15.066	854.350	654.553
282.614	15.075	853.944	654.222
283.628	15.120	852.941	653.569
284.643	14.924	852.778	652.624
285.657	15.127	852.141	652.870
286.672	15.009	851.618	651.951
287.687	15.293	850.656	652.260
288.701	15.110	850.730	651.550
289.716	15.332	849.818	651.654
290.730	15.119	849.510	650.535
291.745	15.167	848.974	650.252
292.760	15.237	847.551	649.378
293.774	15.232	847.211	649.040
294.789	15.253	846.966	648.876
295.803	15.244	846.308	648.280
296.818	15.332	845.657	648.062
297.833	15.261	845.018	647.243
298.847	15.224	844.469	646.620
299.862	15.332	843.588	646.304
300.876	15.457	842.749	646.089
301.891	15.540	842.224	645.945
302.906	15.429	841.666	645.035
303.920	15.569	841.055	645.046
304.935	15.368	840.818	644.038
305.949	15.609	839.798	644.124
306.964	15.455	839.494	643.242
307.979	15.610	838.543	643.048
308.993	15.578	838.431	642.783
310.008	15.592	837.713	642.232
311.022	15.552	837.355	641.748
312.037	15.587	836.844	641.430
313.052	15.607	836.170	640.936
314.066	15.612	835.411	640.316
315.081	15.618	834.833	639.838
316.095	15.661	833.955	639.271
317.110	15.726	833.477	639.098
318.125	15.530	833.330	638.184
319.139	15.426	833.072	637.531
320.154	15.426	832.356	636.930
321.168	15.582	831.615	636.897
322.183	15.598	831.176	636.563
323.197	15.643	830.852	636.430
324.212	15.737	830.185	636.218
325.227	15.659	829.763	635.545
326.241	15.715	829.177	635.251
327.256	15.594	828.482	634.206
328.270	15.670	828.256	634.262
329.285	15.689	827.839	633.958
330.300	15.764	826.811	633.398
331.314	15.686	826.271	632.637
332.329	15.682	825.656	632.093
333.343	15.893	824.744	632.131
334.358	15.895	824.129	631.613
335.373	15.923	823.776	631.390
336.387	15.816	823.612	630.807
337.402	15.841	823.209	630.536
338.416	15.896	822.011	629.769
339.431	15.915	821.901	629.702
340.446	15.975	821.077	629.237
341.460	16.034	820.400	628.885
342.475	16.111	819.897	628.729
343.489	16.093	819.509	628.308
344.504	16.091	819.221	628.025
345.519	16.095	818.355	627.322
346.533	16.289	817.812	627.570
347.548	16.052	817.411	626.325
348.562	16.111	816.884	626.087
349.577	16.089	816.722	625.827
350.592	16.059	816.057	625.150
351.606	16.155	815.250	624.829
352.621	16.053	814.929	624.151
353.635	16.066	814.542	623.848
354.650	16.160	814.321	623.972
355.665	16.176	813.443	623.303
356.679	16.077	813.153	622.659
357.694	16.197	813.005	622.935
358.708	16.169	812.296	622.232
359.723	16.269	811.644	622.046
360.738	16.373	811.032	621.904
361.752	16.285	810.928	621.448
362.767	16.294	810.277	620.924
363.781	16.394	810.032	621.049
364.796	16.245	809.519	620.056
365.810	16.257	808.843	619.526
366.825	16.374	808.474	619.617
367.840	16.411	808.563	619.768
368.854	16.544	807.613	619.472
369.869	16.445	807.344	618.847
370.883	16.443	806.670	618.269
371.898	16.574	805.972	618.159
372.913	16.528	805.381	617.480
373.927	16.593	804.767	617.195
374.942	16.539	804.647	616.850
375.956	16.584	803.768	616.287
376.971	16.503	803.226	615.521
377.986	16.556	802.873	615.389
379.000	16.621	802.017	614.913
380.015	16.686	801.783	614.918
381.029	16.608	801.352	614.249
382.044	16.727	800.499	613.971
383.059	16.743	800.271	613.799
384.073	16.799	799.529	613.382
385.088	16.737	799.268	612.900
386.102	16.548	798.685	611.715
387.117	16.658	797.927	611.480
388.132	16.649	797.563	611.115
389.146	16.724	797.331	611.152
390.161	16.669	797.151	610.763
391.175	16.842	796.346	610.715
392.190	16.768	795.857	610.019
393.205	16.754	796.030	610.048
394.219	16.589	795.425	608.936
395.234	16.759	794.454	608.749
396.248	16.746	794.191	608.446
397.263	16.743	793.702	608.007
398.278	16.741	793.408	607.724
399.292	16.747	792.989	607.369
400.307	16.756	792.630	607.073
401.321	16.802	792.024	606.719
402.336	16.847	791.676	606.562
403.350	16.815	791.118	605.963
404.365	16.917	790.555	605.843
405.380	16.974	789.653	605.303
406.394	16.935	789.474	604.973
407.409	17.006	789.182	604.949
408.423	17.027	788.746	604.636
409.438	17.117	788.554	604.757
410.453	17.104	788.105	604.312
411.467	17.013	787.772	603.677
412.482	17.099	787.339	603.600
413.496	17.174	786.625	603.265
414.511	17.231	786.326	603.186
415.526	17.337	785.870	603.156
416.540	17.119	786.246	602.618
417.555	17.252	785.195	602.230
418.569	17.145	784.898	601.572
419.584	17.295	784.098	601.434
420.599	17.118	783.934	600.632
421.613	83.295	1245.774	1310.895
422.628	70.356	1313.084	1311.023
