DTS Sentinel unit serial number:	SN413079Multiplexer serial number:	ORYXHardware model number:	OX4-SRSoftware version number:	ORYX F/W v4.00 Oryx Data Collector v3.7.2.0data status	okinstallation	princeton_trtdifferential loss correction	single-endedforward channel	channel 3reverse channel	N/Adate	2019/09/13time	05:08:35forward acquisition time	60.00reverse acquisition time	0.00gamma	496.2192k internal	0.2338k external	0.2338temperature offset calibration	1.0142default loss term (dB/km)	0.3790temperature slope calibration	1.0000multiplexer offset coefficient	1.0000multiplexer slope coefficient	1.0000fibre end	0.00T internal ref (°C)	26.39T ext. ref 1 (°C)	4.05T ext. ref 2 (°C)	20.87length (m)	temperature (°C)	Stokes	anti-Stokes-747.200	253.458	0.183	0.314
-746.185	61.578	-0.020	-0.020
-745.171	-200.000	0.026	0.347
-744.156	-200.000	-0.045	0.206
-743.142	800.000	-0.115	-0.393
-742.127	-98.285	0.231	0.059
-741.112	-200.000	0.002	-0.166
-740.098	-200.000	0.005	0.130
-739.083	-200.000	-0.008	0.125
-738.069	105.077	-0.080	0.095
-737.054	221.409	0.057	0.092
-736.039	-98.254	-0.507	-0.131
-735.025	-106.982	-0.189	-0.042
-734.010	370.084	-0.100	-0.203
-732.996	-100.669	-0.404	-0.100
-731.981	279.050	0.180	0.322
-730.966	-79.466	-0.064	0.022
-729.952	238.048	0.121	-0.202
-728.937	-36.235	-0.236	-0.128
-727.923	111.921	-0.172	-0.209
-726.908	800.000	0.045	0.181
-725.894	800.000	-0.068	-0.191
-724.879	290.919	0.101	-0.184
-723.864	-165.947	-0.222	0.010
-722.850	79.521	-0.150	0.162
-721.835	-163.040	-0.303	0.015
-720.821	-45.656	-0.239	-0.119
-719.806	800.000	0.031	-0.109
-718.791	-82.172	-0.325	0.106
-717.777	54.238	0.109	0.105
-716.762	174.400	0.086	-0.124
-715.748	-199.659	0.178	0.001
-714.733	800.000	0.037	-0.115
-713.718	-47.886	-0.390	-0.189
-712.704	223.012	-0.265	-0.429
-711.689	108.906	-0.239	0.286
-710.675	-200.000	-0.033	0.505
-709.660	-1.847	0.236	0.166
-708.645	147.186	0.141	-0.190
-707.631	401.419	-0.138	0.291
-706.616	-96.388	0.224	0.060
-705.602	-176.177	-0.384	0.010
-704.587	-51.386	-0.285	-0.133
-703.572	-200.000	0.026	-0.243
-702.558	91.180	-0.087	0.098
-701.543	800.000	-0.115	-0.352
-700.529	387.675	-0.144	0.298
-699.514	800.000	0.103	-0.380
-698.499	-77.180	-0.356	0.124
-697.485	-200.000	-0.057	0.452
-696.470	66.245	-0.012	-0.012
-695.456	-200.000	0.005	0.027
-694.441	-200.000	-0.012	0.312
-693.426	34.534	0.169	0.148
-692.412	236.360	-0.018	-0.029
-691.397	125.749	0.166	-0.210
-690.383	-64.581	-0.335	-0.136
-689.368	-72.749	0.087	0.032
-688.354	180.444	-0.076	0.112
-687.339	-106.161	-0.127	-0.029
-686.324	-170.015	-0.188	0.007
-685.310	221.799	0.113	-0.181
-684.295	29.446	-0.214	-0.182
-683.281	-80.724	-0.352	0.117
-682.266	186.416	0.116	0.173
-681.251	52.418	0.233	-0.223
-680.237	-90.479	-0.651	0.189
-679.222	189.389	0.192	-0.289
-678.208	-121.234	0.070	0.012
-677.193	-200.000	-0.009	-0.111
-676.178	-73.328	-0.208	0.076
-675.164	-200.000	0.001	-0.023
-674.149	255.217	0.074	0.127
-673.135	-104.165	0.371	-0.086
-672.120	100.727	-0.326	-0.379
-671.105	229.847	0.178	-0.292
-670.091	759.967	-0.040	0.109
-669.076	-22.886	-0.073	-0.044
-668.062	-124.294	0.183	-0.029
-667.047	71.532	-0.217	0.225
-666.032	-152.832	0.188	-0.013
-665.018	-140.101	-0.206	-0.022
-664.003	-13.832	0.081	0.053
-662.989	-200.000	-0.012	0.089
-661.974	-9.218	-0.178	-0.119
-660.959	800.000	-0.066	-0.207
-659.945	-69.299	0.275	0.106
-658.930	38.504	-0.194	0.173
-657.916	95.921	-0.281	0.321
-656.901	121.534	0.151	0.188
-655.886	-78.198	0.207	-0.071
-654.872	-147.003	-0.193	-0.017
-653.857	168.322	-0.075	-0.106
-652.843	132.501	-0.130	-0.168
-651.828	-115.069	-0.254	0.048
-650.814	555.582	-0.043	-0.103
-649.799	-139.496	0.352	-0.038
-648.784	-76.335	-0.054	0.019
-647.770	-152.104	-0.227	0.016
-646.755	84.491	-0.220	0.240
-645.741	493.348	0.072	0.165
-644.726	-26.159	0.153	-0.090
-643.711	-200.000	0.007	0.116
-642.697	-132.499	0.235	-0.030
-641.682	-78.190	0.315	-0.108
-640.668	-200.000	-0.026	-0.218
-639.653	75.214	-0.059	-0.062
-638.638	-121.806	-0.147	-0.024
-637.624	800.000	0.051	-0.140
-636.609	-15.348	0.220	-0.140
-635.595	118.031	-0.222	0.274
-634.580	6.248	-0.126	0.093
-633.565	-54.782	0.230	-0.104
-632.551	-50.068	-0.199	-0.094
-631.536	537.097	0.064	0.151
-630.522	-14.109	-0.035	0.023
-629.507	-91.473	-0.160	-0.046
-628.492	58.916	0.292	0.287
-627.478	-77.607	-0.019	-0.007
-626.463	800.000	-0.093	-0.341
-625.449	-31.565	-0.255	0.143
-624.434	-57.107	-0.255	-0.112
-623.419	768.556	-0.038	-0.103
-622.405	59.397	0.217	-0.214
-621.390	21.316	-0.251	0.204
-620.376	-156.353	-0.359	0.022
-619.361	-142.594	-0.081	0.008
-618.346	-11.246	0.071	-0.047
-617.332	213.234	0.126	-0.199
-616.317	-71.485	0.108	-0.040
-615.303	-62.417	-0.007	0.003
-614.288	-17.501	-0.220	-0.138
-613.273	48.102	0.144	0.134
-612.259	305.282	0.160	-0.297
-611.244	-90.352	-0.416	0.120
-610.230	800.000	0.028	-0.077
-609.215	-148.681	-0.146	-0.012
-608.201	164.542	0.142	0.200
-607.186	541.680	-0.068	-0.162
-606.171	674.161	0.086	0.222
-605.157	-99.787	0.235	0.059
-604.142	-72.552	-0.220	-0.081
-603.128	-123.450	0.365	0.058
-602.113	-59.932	-0.251	0.107
-601.098	169.839	-0.080	0.115
-600.084	35.767	0.249	0.218
-599.069	685.145	0.060	0.156
-598.055	800.000	0.038	0.118
-597.040	-84.434	0.170	0.054
-596.025	41.141	-0.146	0.132
-595.011	-200.000	0.222	0.000
-593.996	201.382	0.052	0.080
-592.982	-88.291	-0.061	-0.018
-591.967	10.653	-0.184	0.140
-590.952	748.400	0.075	0.202
-589.938	-95.144	-0.310	0.083
-588.923	21.219	-0.214	0.173
-587.909	-1.155	-0.241	0.170
-586.894	-161.029	-0.108	0.006
-585.879	-111.345	0.363	-0.074
-584.865	-145.709	0.085	0.008
-583.850	44.125	-0.153	0.140
-582.836	360.144	-0.071	-0.142
-581.821	-200.000	-0.006	-0.346
-580.806	-200.000	0.036	-0.216
-579.792	15.574	0.151	0.118
-578.777	-37.267	0.107	-0.057
-577.763	51.284	-0.382	0.362
-576.748	-122.219	0.154	-0.025
-575.733	800.000	-0.035	-0.152
-574.719	111.580	0.106	-0.128
-573.704	148.439	-0.277	-0.373
-572.690	-200.000	-0.005	-0.175
-571.675	-200.000	-0.013	0.182
-570.661	63.916	-0.174	-0.175
-569.646	-200.000	-0.021	-0.100
-568.631	103.379	-0.092	-0.107
-567.617	65.196	0.273	-0.275
-566.602	-175.031	0.065	0.002
-565.588	-125.759	-0.101	0.015
-564.573	51.769	-0.384	0.364
-563.558	93.642	0.030	-0.034
-562.544	-157.827	0.086	0.005
-561.529	-200.000	0.009	0.232
-560.515	234.151	0.209	-0.343
-559.500	-35.556	-0.465	-0.251
-558.485	-69.866	-0.260	0.099
-557.471	703.754	0.045	-0.118
-556.456	-41.567	-0.104	-0.053
-555.442	-88.714	0.063	0.019
-554.427	-200.000	0.112	0.488
-553.412	800.000	-0.044	0.129
-552.398	800.000	-0.042	0.134
-551.383	198.756	0.171	0.260
-550.369	800.000	0.068	-0.270
-549.354	-96.221	0.174	-0.046
-548.339	800.000	0.046	0.154
-547.325	289.399	-0.048	-0.086
-546.310	-36.210	0.321	-0.172
-545.296	-25.737	0.263	-0.155
-544.281	242.838	-0.112	-0.187
-543.266	-33.637	-0.145	-0.079
-542.252	-44.451	0.262	-0.131
-541.237	7.009	0.083	-0.062
-540.223	118.794	-0.094	-0.115
-539.208	-13.433	-0.156	0.101
-538.193	77.503	0.085	-0.090
-537.179	26.115	-0.227	-0.189
-536.164	303.237	0.134	0.247
-535.150	-200.000	0.009	0.170
-534.135	318.139	0.153	0.288
-533.121	241.506	0.058	0.096
-532.106	-17.620	-0.232	0.145
-531.091	-195.194	0.181	0.001
-530.077	-200.000	-0.003	-0.030
-529.062	389.092	-0.061	0.125
-528.048	-22.304	0.097	0.058
-527.033	447.958	0.048	-0.105
-526.018	-93.597	-0.268	-0.074
-525.004	-200.000	0.004	0.417
-523.989	-70.025	-0.225	-0.085
-522.975	26.704	-0.188	0.157
-521.960	89.753	-0.193	0.214
-520.945	-200.000	0.002	-0.075
-519.931	20.140	-0.111	-0.089
-518.916	-35.634	0.293	0.158
-517.902	-103.652	-0.112	-0.026
-516.887	73.282	-0.164	-0.171
-515.872	116.666	0.170	-0.208
-514.858	-42.270	-0.292	-0.148
-513.843	-91.609	0.239	0.068
-512.829	-150.469	-0.169	0.013
-511.814	800.000	0.013	0.037
-510.799	-63.797	0.266	0.108
-509.785	-121.525	0.200	0.033
-508.770	800.000	-0.005	0.018
-507.756	-102.361	-0.321	-0.077
-506.741	-200.000	0.031	0.185
-505.726	-200.000	-0.033	-0.167
-504.712	-115.439	-0.364	0.068
-503.697	20.512	0.090	-0.072
-502.683	-200.000	-0.001	0.196
-501.668	268.010	-0.069	0.120
-500.653	64.899	-0.404	-0.405
-499.639	11.634	0.300	0.228
-498.624	-87.930	-0.328	0.098
-497.610	-200.000	-0.056	0.425
-496.595	76.423	-0.131	-0.137
-495.581	296.805	0.101	0.184
-494.566	-108.702	-0.384	0.082
-493.551	-134.094	-0.079	0.010
-492.537	-200.000	0.028	-0.349
-491.522	-31.342	-0.241	0.135
-490.508	800.000	0.015	0.055
-489.493	98.618	0.161	-0.184
-488.478	-100.049	0.292	0.072
-487.464	55.352	-0.084	0.081
-486.449	35.215	0.115	0.100
-485.435	-58.074	0.079	0.034
-484.420	17.042	-0.085	0.067
-483.405	-121.334	-0.194	-0.032
-482.391	-168.118	0.273	0.011
-481.376	-200.000	0.018	0.111
-480.362	-92.141	0.529	-0.149
-479.347	-58.183	0.316	0.137
-478.332	55.989	-0.122	0.117
-477.318	561.665	-0.101	-0.243
-476.303	106.536	-0.133	-0.157
-475.289	13.823	0.094	0.073
-474.274	396.825	0.082	0.170
-473.259	-79.115	0.039	0.013
-472.245	-87.977	0.353	-0.105
-471.230	337.725	0.109	-0.210
-470.216	-200.000	-0.025	0.112
-469.201	597.485	0.119	-0.294
-468.186	-200.000	0.089	-0.389
-467.172	-48.451	0.203	-0.097
-466.157	-14.648	0.201	0.128
-465.143	-200.000	-0.002	0.064
-464.128	800.000	0.081	0.276
-463.113	28.886	0.151	0.127
-462.099	-62.785	-0.134	-0.055
-461.084	275.380	0.087	-0.153
-460.070	-200.000	-0.011	0.202
-459.055	-80.464	-0.057	0.019
-458.040	-96.747	0.080	0.021
-457.026	-188.192	-0.202	0.003
-456.011	-72.401	0.034	0.013
-454.997	-200.000	-0.074	0.351
-453.982	-200.000	0.015	0.117
-452.968	30.910	-0.075	-0.064
-451.953	193.093	0.168	0.252
-450.938	-7.949	0.360	-0.241
-449.924	-108.745	-0.232	0.049
-448.909	-200.000	-0.010	0.214
-447.895	-59.415	0.292	-0.124
-446.880	5.621	0.268	0.196
-445.865	-200.000	0.002	-0.165
-444.851	-130.506	-0.198	-0.027
-443.836	105.332	0.132	-0.155
-442.822	800.000	-0.058	0.197
-441.807	120.633	0.115	0.142
-440.792	800.000	-0.062	0.212
-439.778	-200.000	0.036	-0.220
-438.763	-71.614	-0.117	-0.043
-437.749	193.351	0.204	0.305
-436.734	-114.766	0.332	-0.063
-435.719	33.555	-0.037	-0.032
-434.705	-51.905	-0.401	-0.185
-433.690	-200.000	0.015	0.294
-432.676	50.287	0.200	0.187
-431.661	44.766	-0.118	-0.108
-430.646	-200.000	-0.001	-0.023
-429.632	135.784	-0.158	0.203
-428.617	-200.000	-0.058	-0.294
-427.603	800.000	0.076	-0.215
-426.588	370.983	-0.118	-0.237
-425.573	-82.561	0.064	0.021
-424.559	-86.841	0.085	-0.026
-423.544	-157.611	0.338	0.020
-422.530	-200.000	-0.007	-0.038
-421.515	0.614	-0.205	0.145
-420.500	800.000	-0.116	0.416
-419.486	197.691	0.063	0.095
-418.471	-98.994	-0.383	-0.096
-417.457	109.128	0.088	0.104
-416.442	-200.000	0.003	-0.238
-415.428	-128.355	-0.128	-0.018
-414.413	2.058	0.176	-0.126
-413.398	-200.000	0.011	0.479
-412.384	-200.000	-0.025	0.220
-411.369	-103.249	0.108	-0.025
-410.355	-200.000	0.034	-0.217
-409.340	-200.000	-0.056	0.390
-408.325	-106.122	-0.217	-0.048
-407.311	190.571	-0.112	-0.167
-406.296	146.090	0.052	0.069
-405.282	230.892	-0.090	-0.146
-404.267	359.302	-0.096	-0.190
-403.252	-83.949	-0.023	-0.007
-402.238	-200.000	0.002	0.253
-401.223	2.341	-0.041	0.030
-400.209	-200.000	-0.024	-0.149
-399.194	800.000	-0.110	-0.330
-398.179	-200.000	-0.020	-0.256
-397.165	-14.643	0.168	0.107
-396.150	-200.000	-0.015	0.069
-395.136	11.952	-0.255	0.194
-394.121	-8.202	-0.266	-0.177
-393.106	-116.335	0.172	0.031
-392.092	-88.468	-0.338	-0.100
-391.077	800.000	-0.066	-0.191
-390.063	800.000	0.075	0.252
-389.048	622.670	-0.158	-0.393
-388.033	-146.841	0.460	-0.039
-387.019	800.000	0.092	-0.252
-386.004	-156.698	-0.266	-0.016
-384.990	44.815	-0.084	0.077
-383.975	-60.549	0.165	-0.070
-382.960	214.806	0.211	-0.330
-381.946	-200.000	0.002	0.016
-380.931	589.957	-0.077	0.189
-379.917	46.253	0.045	0.042
-378.902	104.885	-0.091	0.106
-377.888	-200.000	0.051	0.245
-376.873	-85.793	0.103	-0.032
-375.858	-61.389	0.204	0.085
-374.844	-127.493	-0.230	-0.033
-373.829	88.943	0.324	0.357
-372.815	540.831	-0.078	-0.183
-371.800	-200.000	-0.003	0.039
-370.785	-56.195	-0.191	0.084
-369.771	-146.299	0.237	-0.021
-368.756	35.627	0.062	-0.054
-367.742	-200.000	-0.046	-0.283
-366.727	-138.049	0.307	0.034
-365.712	-91.150	0.095	0.027
-364.698	-12.722	0.155	0.100
-363.683	-56.544	-0.249	0.109
-362.669	-91.291	-0.070	-0.020
-361.654	-200.000	-0.007	-0.044
-360.639	206.125	-0.086	0.132
-359.625	-27.814	-0.385	-0.221
-358.610	-103.003	-0.300	-0.070
-357.596	-73.768	0.080	-0.029
-356.581	-200.000	-0.068	-0.298
-355.566	84.254	0.211	0.228
-354.552	-68.152	0.092	-0.035
-353.537	8.876	0.098	0.073
-352.523	162.612	0.208	0.288
-351.508	-135.243	-0.044	0.005
-350.493	-168.375	0.074	-0.003
-349.479	5.807	0.115	0.084
-348.464	513.539	0.011	-0.025
-347.450	39.140	-0.222	-0.196
-346.435	-83.527	0.298	-0.094
-345.420	62.166	-0.089	-0.087
-344.406	-39.919	-0.164	-0.084
-343.391	-200.000	-0.019	-0.094
-342.377	5.278	-0.327	-0.238
-341.362	-200.000	0.021	-0.195
-340.348	471.615	0.158	-0.351
-339.333	-88.452	-0.209	-0.062
-338.318	800.000	-0.067	-0.183
-337.304	262.725	0.094	0.160
-336.289	288.947	0.091	-0.163
-335.275	421.916	0.099	-0.209
-334.260	-70.857	-0.148	-0.055
-333.245	8.620	-0.029	-0.022
-332.231	-103.406	-0.161	-0.037
-331.216	-200.000	0.012	0.175
-330.202	231.803	0.074	-0.119
-329.187	80.515	-0.190	-0.202
-328.172	155.585	0.057	-0.078
-327.158	-92.335	-0.275	-0.076
-326.143	-200.000	-0.011	0.245
-325.129	-158.101	-0.171	-0.010
-324.114	11.720	0.230	-0.175
-323.099	-122.165	-0.382	-0.062
-322.085	-200.000	0.024	-0.344
-321.070	800.000	-0.028	-0.100
-320.056	94.927	0.082	0.092
-319.041	432.575	0.080	0.171
-318.026	800.000	0.098	0.291
-317.012	54.849	0.222	-0.211
-315.997	-85.457	0.169	-0.052
-314.983	-200.000	0.080	0.357
-313.968	365.729	-0.090	0.180
-312.953	-32.746	0.109	-0.060
-311.939	800.000	-0.029	0.105
-310.924	201.998	0.109	0.165
-309.910	443.044	-0.019	0.042
-308.895	364.788	0.096	0.191
-307.880	35.294	0.146	0.126
-306.866	172.149	-0.100	-0.142
-305.851	-55.563	0.042	0.018
-304.837	-130.740	0.439	0.058
-303.822	-200.000	0.005	0.157
-302.807	-27.760	-0.216	-0.124
-301.793	56.491	0.186	-0.178
-300.778	800.000	0.161	0.582
-299.764	-200.000	-0.036	-0.300
-298.749	-95.606	0.145	-0.038
-297.735	-200.000	0.052	-0.318
-296.720	-43.837	-0.180	-0.090
-295.705	165.841	0.067	-0.093
-294.691	-112.686	0.053	-0.010
-293.676	32.692	0.210	0.179
-292.662	484.127	0.046	0.104
-291.647	-200.000	0.019	0.228
-290.632	167.992	0.202	0.284
-289.618	53.779	-0.307	0.290
-288.603	-36.987	-0.134	-0.071
-287.589	-200.000	-0.006	0.131
-286.574	-122.381	0.304	0.049
-285.559	331.216	-0.043	-0.083
-284.545	200.027	0.186	0.281
-283.530	-80.159	0.271	0.090
-282.516	11.129	-0.058	-0.044
-281.501	-94.922	-0.272	-0.073
-280.486	-116.909	0.460	0.083
-279.472	63.641	0.110	0.109
-278.457	481.349	0.037	0.082
-277.443	448.913	0.065	0.141
-276.428	124.565	0.089	0.111
-275.413	-97.683	0.325	-0.083
-274.399	-43.957	-0.222	-0.110
-273.384	45.207	0.226	0.206
-272.370	-86.636	0.102	0.031
-271.355	73.826	0.058	-0.060
-270.340	-8.315	0.143	-0.095
-269.326	89.825	-0.041	-0.045
-268.311	-200.000	0.027	-0.381
-267.297	3.009	-0.283	-0.202
-266.282	-200.000	-0.029	-0.236
-265.267	118.530	-0.117	-0.142
-264.253	183.176	0.135	-0.196
-263.238	-116.257	0.121	0.022
-262.224	295.498	0.116	0.209
-261.209	56.178	-0.079	-0.075
-260.195	197.359	0.239	-0.359
-259.180	75.264	-0.084	-0.087
-258.165	-200.000	0.006	-0.037
-257.151	398.232	0.125	-0.258
-256.136	288.976	-0.073	0.129
-255.122	303.278	-0.027	-0.050
-254.107	325.204	-0.035	-0.066
-253.092	294.396	-0.129	0.233
-252.078	89.019	-0.070	-0.077
-251.063	43.475	0.142	0.128
-250.049	234.805	0.073	0.119
-249.034	-75.026	0.250	0.088
-248.019	201.483	0.053	-0.081
-247.005	800.000	-0.113	-0.325
-245.990	-142.946	-0.255	-0.024
-244.976	-89.042	0.155	0.045
-243.961	754.271	-0.160	-0.427
-242.946	583.104	0.093	0.224
-241.932	540.782	-0.086	-0.201
-240.917	-57.668	-0.450	-0.194
-239.903	-52.275	0.170	-0.078
-238.888	-78.023	-0.258	0.087
-237.873	293.318	0.174	-0.313
-236.859	-67.966	0.153	-0.059
-235.844	130.050	-0.294	0.370
-234.830	-200.000	-0.004	-0.046
-233.815	59.694	-0.107	0.103
-232.800	205.056	0.158	-0.242
-231.786	-34.376	-0.217	-0.117
-230.771	-39.349	-0.181	0.093
-229.757	78.563	-0.259	-0.272
-228.742	-91.489	0.267	-0.075
-227.727	-13.094	-0.022	-0.014
-226.713	-138.950	0.128	-0.014
-225.698	106.798	0.032	0.037
-224.684	-99.522	0.443	-0.110
-223.669	-7.711	-0.121	-0.080
-222.655	-92.918	-0.171	-0.047
-221.640	-200.000	0.013	-0.127
-220.625	-28.083	-0.248	-0.141
-219.611	-96.586	0.109	0.028
-218.596	14.957	-0.370	-0.284
-217.582	-73.037	-0.194	-0.070
-216.567	-123.262	0.279	0.044
-215.552	-95.519	-0.347	0.092
-214.538	-200.000	0.005	-0.076
-213.523	-200.000	-0.018	-0.444
-212.509	-200.000	-0.011	0.113
-211.494	800.000	0.064	0.195
-210.479	-20.033	-0.159	-0.097
-209.465	109.669	-0.239	0.282
-208.450	6.934	-0.217	-0.159
-207.436	800.000	-0.017	0.057
-206.421	0.877	-0.293	0.206
-205.406	-13.224	-0.089	-0.057
-204.392	-21.486	-0.205	0.123
-203.377	107.687	-0.133	-0.156
-202.363	800.000	0.055	-0.205
-201.348	-109.909	-0.342	0.070
-200.333	316.263	0.110	0.204
-199.319	-200.000	0.010	0.172
-198.304	691.896	0.094	-0.242
-197.290	185.723	-0.150	0.219
-196.275	-47.619	-0.270	-0.129
-195.260	368.027	-0.093	0.185
-194.246	90.162	0.134	-0.147
-193.231	223.773	-0.044	0.069
-192.217	-165.846	0.115	-0.005
-191.202	-200.000	0.043	0.304
-190.187	-112.313	0.156	0.031
-189.173	-5.377	-0.207	-0.139
-188.158	452.269	0.148	0.322
-187.144	465.909	0.051	-0.112
-186.129	-39.392	-0.254	0.131
-185.114	-10.915	0.226	-0.146
-184.100	-185.036	-0.175	0.003
-183.085	-200.000	0.015	0.263
-182.071	-61.468	0.206	0.085
-181.056	-165.001	-0.192	-0.008
-180.042	-97.901	-0.208	-0.053
-179.027	800.000	-0.083	-0.324
-178.012	-21.724	0.316	0.189
-176.998	-200.000	-0.075	0.376
-175.983	30.143	0.403	0.338
-174.969	55.089	0.106	-0.101
-173.954	8.741	0.387	0.286
-172.939	35.328	0.189	-0.163
-171.925	800.000	-0.089	0.331
-170.910	225.964	0.066	0.106
-169.896	-17.389	0.106	-0.065
-168.881	-107.233	-0.088	-0.019
-167.866	-42.398	0.091	-0.045
-166.852	-200.000	0.014	0.213
-165.837	-42.040	0.091	-0.046
-164.823	465.039	-0.098	-0.216
-163.808	-130.776	-0.261	-0.034
-162.793	-52.985	0.157	0.071
-161.779	102.200	-0.178	-0.204
-160.764	365.839	0.088	-0.173
-159.750	-200.000	-0.029	0.172
-158.735	270.737	0.136	0.235
-157.720	800.000	-0.087	-0.241
-156.706	633.341	-0.122	-0.302
-155.691	-200.000	0.074	0.341
-154.677	-23.131	0.247	-0.146
-153.662	737.173	-0.066	0.174
-152.647	-91.394	0.161	-0.045
-151.633	800.000	-0.034	-0.113
-150.618	-200.000	0.029	0.153
-149.604	76.627	-0.144	-0.150
-148.589	194.374	-0.079	0.117
-147.574	-20.849	0.226	0.136
-146.560	387.502	0.113	-0.228
-145.545	254.682	-0.095	0.159
-144.531	-20.585	-0.367	0.221
-143.516	356.127	0.044	-0.085
-142.502	-200.000	-0.014	-0.068
-141.487	76.981	0.169	-0.176
-140.472	-58.567	-0.253	-0.107
-139.458	-40.503	0.023	-0.012
-138.443	636.541	-0.141	0.352
-137.429	-200.000	-0.015	-0.074
-136.414	-200.000	-0.006	0.224
-135.399	465.661	0.090	-0.198
-134.385	-20.200	-0.191	0.115
-133.370	182.054	-0.047	0.068
-132.356	-200.000	-0.064	0.326
-131.341	39.391	0.085	0.074
-130.326	800.000	0.042	-0.153
-129.312	-141.432	-0.300	-0.030
-128.297	484.344	-0.089	-0.199
-127.283	-200.000	-0.054	-0.256
-126.268	-200.000	-0.012	-0.236
-125.253	-83.146	-0.278	-0.088
-124.239	-105.765	0.391	-0.087
-123.224	-200.000	-0.003	0.032
-122.210	800.000	-0.019	0.069
-121.195	-65.654	0.261	-0.103
-120.180	-32.811	-0.222	0.121
-119.166	178.169	0.044	-0.063
-118.151	-200.000	0.002	0.272
-117.137	-123.943	-0.199	-0.031
-116.122	-200.000	0.033	-0.197
-115.107	-147.385	0.237	-0.020
-114.093	-200.000	0.039	-0.204
-113.078	-17.519	0.313	0.193
-112.064	5.544	-0.271	-0.196
-111.049	98.821	0.260	-0.294
-110.034	-200.000	0.023	-0.302
-109.020	-189.383	0.183	0.002
-108.005	-200.000	0.013	0.524
-106.991	118.739	-0.020	-0.024
-105.976	-186.451	0.188	-0.003
-104.962	-83.299	0.244	0.077
-103.947	-200.000	-0.003	0.126
-102.932	598.617	0.065	0.157
-101.918	45.488	-0.215	0.195
-100.903	-191.514	0.138	0.001
-99.889	-37.167	0.392	0.205
-98.874	-138.471	-0.318	-0.034
-97.859	-118.320	0.146	0.025
-96.845	9.599	0.298	-0.221
-95.830	21.108	0.408	-0.324
-94.816	-200.000	-0.001	-0.047
-93.801	711.512	-0.039	0.100
-92.786	298.445	-0.103	0.185
-91.772	31.576	0.154	0.130
-90.757	10.532	0.157	0.117
-89.743	-176.903	0.403	0.010
-88.728	70.174	-0.159	-0.161
-87.713	-200.000	-0.001	-0.056
-86.699	150.827	-0.221	0.294
-85.684	800.000	-0.052	-0.146
-84.670	-84.728	-0.115	0.035
-83.655	800.000	-0.067	0.240
-82.640	196.165	-0.141	0.210
-81.626	9.593	-0.167	0.123
-80.611	192.007	0.103	0.152
-79.597	800.000	0.026	-0.099
-78.582	-47.457	-0.297	0.141
-77.567	33.615	-0.115	0.097
-76.553	-74.709	0.277	-0.097
-75.538	-200.000	0.000	-0.082
-74.524	800.000	-0.033	0.102
-73.509	-92.835	0.134	0.037
-72.494	6.276	-0.132	-0.096
-71.480	-82.471	-0.166	0.053
-70.465	-67.745	-0.137	0.053
-69.451	34.045	-0.127	-0.109
-68.436	-72.638	0.070	0.025
-67.422	-109.927	-0.341	-0.070
-66.407	-51.108	0.166	0.076
-65.392	800.000	-0.051	0.198
-64.378	210.022	-0.047	0.073
-63.363	-60.528	-0.192	-0.080
-62.349	39.199	-0.196	-0.171
-61.334	219.184	-0.875	-1.367
-60.319	96.085	0.528	0.589
-59.305	800.000	-0.354	-1.082
-58.290	609.583	0.544	1.327
-57.276	328.303	0.625	1.173
-56.261	-200.000	116.845	650.523
-55.246	504.058	1543.733	3489.618
-54.232	175.630	2712.818	3843.156
-53.217	105.097	2172.114	2503.730
-52.203	36.960	1689.617	1459.795
-51.188	29.544	1504.967	1250.221
-50.173	27.265	1480.012	1214.249
-49.159	49.858	1540.778	1418.863
-48.144	48.421	1555.159	1422.255
-47.130	29.531	1510.531	1254.561
-46.115	26.561	1495.420	1221.944
-45.100	26.460	1491.710	1218.185
-44.086	26.380	1490.524	1216.632
-43.071	26.364	1487.984	1214.399
-42.057	26.258	1486.851	1212.714
-41.042	26.389	1484.793	1211.869
-40.027	26.351	1483.468	1210.483
-39.013	26.239	1482.715	1209.074
-37.998	26.251	1481.477	1208.096
-36.984	26.361	1480.121	1207.678
-35.969	26.358	1478.815	1206.545
-34.954	26.389	1477.043	1205.253
-33.940	26.445	1475.667	1204.456
-32.925	26.402	1474.160	1202.892
-31.911	26.350	1473.309	1201.804
-30.896	26.459	1472.038	1201.448
-29.881	26.476	1470.497	1200.253
-28.867	26.438	1469.274	1198.955
-27.852	26.503	1467.874	1198.195
-26.838	26.387	1467.013	1196.678
-25.823	26.505	1465.033	1195.791
-24.809	26.389	1463.740	1193.926
-23.794	26.361	1462.462	1192.652
-22.779	26.481	1461.071	1192.258
-21.765	26.463	1460.191	1191.378
-20.750	26.448	1458.957	1190.223
-19.736	26.464	1457.650	1189.217
-18.721	26.460	1457.003	1188.615
-17.706	26.466	1455.094	1187.047
-16.692	26.380	1454.745	1186.154
-15.677	26.367	1453.627	1185.110
-14.663	26.355	1452.812	1184.321
-13.648	26.360	1451.390	1183.148
-12.633	26.366	1450.748	1182.616
-11.619	26.330	1450.004	1181.723
-10.604	26.399	1449.086	1181.382
-9.590	26.392	1448.081	1180.470
-8.575	26.423	1447.353	1180.029
-7.560	26.329	1446.693	1178.832
-6.546	26.355	1445.744	1178.183
-5.531	26.362	1444.349	1177.044
-4.517	26.487	1443.345	1176.994
-3.502	26.447	1442.557	1176.046
-2.487	26.370	1441.871	1174.937
-1.473	26.242	1440.590	1173.012
-0.458	26.396	1439.293	1172.909
0.556	28.149	1429.415	1161.368
1.571	24.930	1404.805	1121.158
2.586	21.321	1346.368	1052.726
3.600	19.676	1265.526	980.105
4.615	18.579	1220.404	939.072
5.629	16.483	1165.620	885.863
6.644	10.092	1084.039	792.552
7.659	5.015	1047.452	741.639
8.673	4.232	1042.297	734.215
9.688	4.118	1039.059	731.335
10.702	3.954	1037.086	729.108
11.717	3.906	1035.522	727.718
12.731	6.337	1037.385	740.407
13.746	13.518	1046.792	781.028
14.761	20.170	1055.518	819.000
15.775	22.371	1057.393	830.781
16.790	22.154	1056.020	828.606
17.804	21.252	1054.263	822.909
18.819	20.367	1052.550	817.332
19.834	19.928	1051.461	814.353
20.848	19.923	1050.633	813.615
21.863	19.993	1050.135	813.485
22.877	19.796	1049.439	811.949
23.892	19.610	1048.563	810.328
24.907	19.482	1047.831	809.092
25.921	19.337	1047.824	808.335
26.936	19.488	1045.962	807.533
27.950	19.381	1045.331	806.474
28.965	19.396	1044.518	805.842
29.980	19.568	1042.727	805.196
30.994	19.660	1042.094	805.061
32.009	19.879	1041.473	805.531
33.023	19.924	1040.552	804.958
34.038	19.790	1040.048	803.871
35.053	19.773	1039.504	803.304
36.067	19.552	1038.484	801.419
37.082	19.423	1037.819	800.232
38.096	19.573	1036.692	799.988
39.111	19.683	1036.048	799.930
40.126	19.850	1035.424	800.151
41.140	19.567	1034.027	797.695
42.155	19.257	1032.613	795.103
43.169	19.029	1031.519	793.138
44.184	19.117	1030.197	792.458
45.199	19.046	1029.452	791.486
46.213	19.083	1028.470	790.831
47.228	19.196	1027.911	790.851
48.242	19.491	1027.160	791.557
49.257	19.666	1025.792	791.231
50.271	19.642	1025.139	790.550
51.286	19.643	1024.776	790.205
52.301	19.687	1023.925	789.681
53.315	19.591	1023.189	788.604
54.330	19.438	1022.253	787.114
55.344	19.394	1021.084	785.947
56.359	19.173	1020.585	784.485
57.374	19.253	1019.617	784.033
58.388	19.177	1018.683	782.903
59.403	19.019	1017.840	781.467
60.417	19.073	1016.766	780.819
61.432	18.960	1016.480	780.019
62.447	19.058	1015.738	779.822
63.461	18.892	1015.130	778.536
64.476	18.923	1013.749	777.547
65.490	18.777	1012.970	776.220
66.505	18.812	1011.925	775.509
67.520	18.862	1011.303	775.189
68.534	18.918	1010.378	774.666
69.549	18.896	1009.750	774.014
70.563	18.968	1008.677	773.449
71.578	18.772	1008.225	772.152
72.593	18.641	1007.521	770.954
73.607	18.552	1006.340	769.586
74.622	18.472	1005.351	768.403
75.636	18.477	1004.708	767.866
76.651	18.650	1003.707	767.808
77.666	18.659	1003.156	767.358
78.680	18.589	1002.622	766.569
79.695	18.629	1002.391	766.501
80.709	18.642	1001.670	765.941
81.724	18.893	1000.842	766.361
82.739	19.011	1000.191	766.320
83.753	19.094	999.493	766.086
84.768	19.492	998.811	767.267
85.782	19.661	998.489	767.700
86.797	20.003	997.813	768.631
87.812	19.906	997.107	767.587
88.826	19.787	996.035	766.167
89.841	19.672	995.360	765.071
90.855	19.664	994.699	764.460
91.870	19.856	993.715	764.485
92.884	19.926	992.687	763.938
93.899	19.963	992.285	763.723
94.914	19.817	991.363	762.303
95.928	19.783	990.984	761.792
96.943	19.843	989.900	761.158
97.957	19.931	988.828	760.651
98.972	19.745	988.058	759.174
99.987	19.837	987.017	758.713
101.001	19.927	986.461	758.611
102.016	19.797	986.086	757.688
103.030	19.810	984.659	756.581
104.045	19.764	984.003	755.810
105.060	19.864	982.708	755.182
106.074	19.797	981.823	754.146
107.089	19.392	980.991	751.672
108.103	19.103	980.125	749.683
109.118	18.951	978.831	747.969
110.133	18.979	978.125	747.484
111.147	18.890	976.844	746.051
112.162	18.802	976.062	745.008
113.176	18.863	975.197	744.544
114.191	19.048	974.735	744.929
115.206	19.179	973.759	744.681
116.220	19.151	973.295	744.141
117.235	19.175	972.109	743.273
118.249	19.068	971.368	742.180
119.264	18.969	970.422	740.964
120.279	18.952	969.588	740.187
121.293	18.876	969.183	739.485
122.308	18.651	968.273	737.758
123.322	18.636	967.064	736.710
124.337	18.618	965.836	735.633
125.352	18.602	964.644	734.590
126.366	18.628	963.813	734.002
127.381	18.594	962.855	733.061
128.395	18.763	961.710	732.847
129.410	18.647	960.641	731.473
130.424	18.638	960.396	731.182
131.439	18.793	959.502	731.098
132.454	18.891	959.136	731.171
133.468	19.038	958.342	731.127
134.483	19.083	957.760	730.810
135.497	18.879	957.289	729.518
136.512	19.090	956.393	729.665
137.527	19.121	955.540	729.082
138.541	19.014	955.040	728.183
139.556	19.085	954.020	727.641
140.570	19.134	953.217	727.172
141.585	19.342	952.626	727.535
142.600	19.406	952.544	727.677
143.614	19.602	951.633	727.742
144.629	19.736	950.867	727.655
145.643	19.726	950.034	726.914
146.658	19.913	949.125	726.938
147.673	19.620	947.895	724.704
148.687	19.433	946.693	722.938
149.702	19.195	945.938	721.301
150.716	19.129	945.071	720.297
151.731	19.103	943.992	719.304
152.746	19.190	943.502	719.230
153.760	19.190	942.879	718.692
154.775	19.295	941.749	718.205
155.789	19.272	941.521	717.869
156.804	19.402	940.696	717.719
157.819	19.497	939.798	717.366
158.833	19.308	939.536	716.315
159.848	19.669	938.888	717.259
160.862	19.824	938.242	717.345
161.877	19.597	937.837	716.028
162.892	19.379	936.441	713.996
163.906	19.236	934.608	711.946
164.921	19.008	934.377	710.764
165.935	19.220	933.028	710.552
166.950	19.141	932.407	709.688
167.964	19.420	931.147	709.817
168.979	19.287	930.728	708.889
169.994	19.218	929.729	707.778
171.008	19.069	928.945	706.508
172.023	19.372	927.563	706.635
173.037	19.632	927.401	707.517
174.052	19.729	927.226	707.718
175.067	19.575	926.584	706.535
176.081	19.370	924.887	704.341
177.096	19.007	924.390	702.417
178.110	19.084	923.339	701.869
179.125	19.016	922.616	700.983
180.140	19.175	922.266	701.300
181.154	19.218	921.552	700.871
182.169	19.267	921.591	701.041
183.183	19.581	920.894	701.723
184.198	19.614	920.308	701.350
185.213	19.717	919.034	700.734
186.227	19.677	918.585	700.168
187.242	19.749	918.355	700.221
188.256	19.756	917.950	699.879
189.271	19.908	916.968	699.681
190.286	20.102	916.539	700.078
191.300	19.855	915.186	697.984
192.315	19.210	913.756	694.232
193.329	18.873	913.328	692.489
194.344	19.114	912.441	692.725
195.359	19.203	912.205	692.844
196.373	19.305	911.988	693.028
197.388	19.445	911.488	693.147
198.402	19.682	910.928	693.612
199.417	19.963	910.825	694.600
200.432	20.164	910.068	694.766
201.446	20.175	910.405	695.005
202.461	20.254	909.778	694.783
203.475	20.367	909.179	694.718
204.490	20.296	908.548	693.889
205.504	19.861	907.588	691.358
206.519	19.768	906.516	690.109
207.534	19.711	906.039	689.457
208.548	19.669	904.777	688.268
209.563	19.715	904.233	687.976
210.577	19.915	903.353	688.041
211.592	19.801	903.294	687.482
212.607	20.007	902.597	687.709
213.621	19.936	902.554	687.334
214.636	20.104	901.342	687.014
215.650	20.105	900.673	686.447
216.665	20.078	900.323	686.013
217.680	20.057	899.937	685.576
218.694	20.292	899.538	686.141
219.709	20.277	898.962	685.581
220.723	20.333	897.961	684.977
221.738	20.199	897.268	683.859
222.753	20.203	896.483	683.218
223.767	20.086	896.193	682.476
224.782	20.146	895.273	681.952
225.796	20.384	894.713	682.399
226.811	20.406	894.043	681.913
227.826	20.283	893.703	681.111
228.840	20.175	892.353	679.599
229.855	20.038	891.939	678.688
230.869	20.087	890.993	678.100
231.884	19.984	890.772	677.467
232.899	20.000	889.396	676.425
233.913	19.980	888.791	675.827
234.928	19.748	888.578	674.698
235.942	19.806	887.770	674.251
236.957	19.671	886.914	673.016
237.972	19.712	886.434	672.751
238.986	19.779	885.574	672.300
240.001	19.767	884.988	671.748
241.015	19.770	884.371	671.235
242.030	19.737	883.545	670.418
243.045	19.893	883.332	670.803
244.059	20.073	882.724	670.979
245.074	20.130	881.771	670.417
246.088	20.096	881.609	670.103
247.103	20.320	881.166	670.572
248.117	20.346	880.965	670.461
249.132	20.537	880.360	670.676
250.147	20.711	880.194	671.162
251.161	20.993	879.486	671.649
252.176	21.154	878.758	671.653
253.190	21.134	878.544	671.355
254.205	21.164	878.111	671.080
255.220	21.205	877.826	670.959
256.234	21.243	876.454	669.998
257.249	21.042	876.223	668.989
258.263	21.097	875.787	668.807
259.278	21.077	874.923	668.015
260.293	21.081	874.673	667.778
261.307	21.131	874.069	667.449
262.322	21.159	873.654	667.180
263.336	21.302	872.950	667.128
264.351	21.229	872.408	666.378
265.366	21.319	871.750	666.160
266.380	21.371	871.002	665.729
267.395	21.164	870.694	664.644
268.409	21.148	869.460	663.583
269.424	21.167	868.609	662.948
270.439	21.039	868.114	662.026
271.453	21.039	867.209	661.275
272.468	20.862	866.342	659.885
273.482	20.842	866.081	659.554
274.497	20.848	865.634	659.178
275.512	20.723	864.796	658.007
276.526	20.791	864.177	657.737
277.541	20.909	863.237	657.406
278.555	21.028	862.659	657.359
279.570	21.178	862.387	657.657
280.585	21.342	862.226	658.093
281.599	21.297	861.639	657.417
282.614	21.200	860.643	656.235
283.628	20.975	859.957	654.808
284.643	20.967	859.449	654.333
285.657	20.849	859.009	653.500
286.672	20.943	858.261	653.226
287.687	20.995	858.072	653.217
288.701	21.163	857.401	653.277
289.716	20.959	857.040	652.183
290.730	21.068	856.455	652.088
291.745	21.081	856.087	651.797
292.760	21.093	854.997	650.955
293.774	21.320	854.334	651.237
294.789	21.515	854.369	651.936
295.803	21.494	853.381	651.044
296.818	21.248	852.688	649.544
297.833	20.969	852.564	648.353
298.847	20.948	851.635	647.511
299.862	21.048	850.802	647.192
300.876	21.171	850.200	647.135
301.891	21.106	849.972	646.661
302.906	21.473	849.344	647.484
303.920	21.570	848.826	647.390
304.935	21.608	848.428	647.172
305.949	21.824	847.859	647.477
306.964	21.754	846.940	646.461
307.979	21.604	845.998	645.132
308.993	21.471	845.809	644.442
310.008	21.621	845.251	644.510
311.022	21.749	844.792	644.574
312.037	21.558	844.345	643.473
313.052	21.444	843.807	642.588
314.066	21.178	842.589	640.629
315.081	20.997	842.005	639.464
316.095	21.147	841.217	639.358
317.110	20.970	841.306	638.722
318.125	21.196	840.295	638.722
319.139	21.065	839.933	637.913
320.154	21.028	839.609	637.476
321.168	20.974	839.193	636.905
322.183	21.192	838.513	637.129
323.197	21.319	837.885	637.057
324.212	21.397	837.785	637.209
325.227	21.247	837.139	636.117
326.241	21.245	836.546	635.601
327.256	21.119	835.920	634.613
328.270	21.197	834.924	634.083
329.285	21.174	834.659	633.741
330.300	21.165	834.130	633.250
331.314	21.189	833.434	632.755
332.329	21.120	832.799	631.967
333.343	21.226	832.961	632.417
334.358	21.540	831.550	632.423
335.373	21.668	831.006	632.417
336.387	21.592	831.258	632.278
337.402	21.624	830.508	631.767
338.416	21.830	829.841	631.947
339.431	21.853	829.714	631.875
340.446	22.012	829.547	632.266
341.460	22.094	828.955	632.054
342.475	22.039	828.783	631.669
343.489	22.136	827.959	631.333
344.504	22.397	827.173	631.617
345.519	22.220	826.961	630.761
346.533	22.514	826.350	631.293
347.548	22.248	826.240	630.203
348.562	22.058	825.691	629.046
349.577	21.849	824.536	627.365
350.592	21.656	823.675	625.964
351.606	21.500	823.596	625.290
352.621	21.601	822.858	625.036
353.635	21.619	821.902	624.320
354.650	21.612	822.020	624.327
355.665	21.835	821.308	624.526
356.679	21.715	821.145	623.917
357.694	21.934	820.712	624.313
358.708	21.940	820.442	624.075
359.723	21.924	819.419	623.185
360.738	21.723	819.087	622.163
361.752	21.804	818.611	622.034
362.767	21.897	818.213	622.005
363.781	22.051	817.927	622.281
364.796	22.267	817.850	622.930
365.810	22.527	817.124	623.244
366.825	22.461	816.852	622.746
367.840	22.564	816.784	623.005
368.854	22.526	816.407	622.525
369.869	22.361	815.608	621.279
370.883	22.149	815.047	620.051
371.898	22.175	814.238	619.472
372.913	22.303	813.916	619.622
373.927	22.611	813.164	620.079
374.942	22.543	812.204	619.053
375.956	22.374	811.977	618.232
376.971	22.529	811.306	618.209
377.986	22.528	811.286	618.135
379.000	22.876	810.111	618.406
380.015	22.838	810.260	618.331
381.029	22.723	809.581	617.356
382.044	22.697	808.574	616.443
383.059	22.628	808.107	615.791
384.073	22.750	807.883	615.992
385.088	22.587	807.334	614.949
386.102	22.405	806.423	613.569
387.117	22.280	805.461	612.347
388.132	22.320	805.415	612.396
389.146	22.243	804.435	611.330
390.161	22.274	804.411	611.365
391.175	22.386	804.181	611.524
392.190	22.493	804.207	611.863
393.205	22.490	803.638	611.365
394.219	22.177	803.209	609.900
395.234	22.307	802.634	609.860
396.248	22.132	801.666	608.463
397.263	22.152	800.729	607.769
398.278	22.055	800.598	607.278
399.292	21.899	800.204	606.386
400.307	21.933	799.876	606.203
401.321	21.810	799.486	605.428
402.336	21.920	799.140	605.494
403.350	22.174	798.792	606.052
404.365	22.360	797.931	605.986
405.380	22.673	797.442	606.637
406.394	22.743	797.667	606.994
407.409	22.791	797.572	607.036
408.423	22.904	796.693	606.701
409.438	22.822	796.412	606.149
410.453	23.067	795.866	606.521
411.467	22.870	796.054	605.935
412.482	23.137	795.355	606.265
413.496	23.211	794.574	605.869
414.511	23.293	794.432	605.987
415.526	23.128	794.210	605.199
416.540	23.129	793.652	604.724
417.555	23.028	793.275	604.038
418.569	23.061	792.633	603.610
419.584	23.087	792.223	603.334
420.599	23.103	791.617	602.870
421.613	165.643	1370.379	1798.111
422.628	143.680	1454.714	1798.195
