DTS Sentinel unit serial number:	SN413079Multiplexer serial number:	ORYXHardware model number:	OX4-SRSoftware version number:	ORYX F/W v4.00 Oryx Data Collector v3.7.2.0data status	okinstallation	princeton_trtdifferential loss correction	single-endedforward channel	channel 3reverse channel	N/Adate	2019/09/13time	10:32:34forward acquisition time	60.00reverse acquisition time	0.00gamma	496.2192k internal	0.2320k external	0.2320temperature offset calibration	1.0140default loss term (dB/km)	0.3790temperature slope calibration	1.0000multiplexer offset coefficient	1.0000multiplexer slope coefficient	1.0000fibre end	0.00T internal ref (°C)	31.20T ext. ref 1 (°C)	4.57T ext. ref 2 (°C)	28.38length (m)	temperature (°C)	Stokes	anti-Stokes-747.200	141.602	0.270	-0.361
-746.185	800.000	-0.048	0.208
-745.171	274.662	0.119	0.213
-744.156	121.489	-0.060	0.075
-743.142	149.661	0.202	-0.276
-742.127	-200.000	0.029	0.409
-741.112	-30.948	-0.116	0.066
-740.098	-90.717	-0.186	-0.054
-739.083	6.243	0.301	-0.225
-738.069	345.188	-0.073	0.145
-737.054	54.465	0.101	0.098
-736.039	-200.000	0.030	0.146
-735.025	541.389	0.117	-0.283
-734.010	6.301	-0.202	-0.152
-732.996	315.028	-0.124	-0.235
-731.981	-0.860	0.348	-0.249
-730.966	41.693	-0.252	-0.230
-729.952	800.000	-0.034	-0.116
-728.937	-151.508	-0.202	-0.015
-727.923	-200.000	0.025	-0.261
-726.908	391.668	0.153	-0.322
-725.894	800.000	-0.155	0.503
-724.879	-200.000	-0.036	0.251
-723.864	112.303	0.126	0.154
-722.850	421.850	0.131	0.285
-721.835	-200.000	0.013	0.122
-720.821	101.021	0.043	0.051
-719.806	-75.547	-0.249	0.090
-718.791	35.051	0.130	-0.115
-717.777	-37.544	0.085	-0.046
-716.762	4.704	0.124	-0.092
-715.748	-126.423	0.254	0.038
-714.733	783.112	0.106	0.292
-713.718	161.650	-0.119	0.168
-712.704	-49.080	-0.017	0.008
-711.689	800.000	0.014	-0.057
-710.675	43.696	0.197	-0.182
-709.660	-70.562	-0.231	-0.088
-708.645	-117.231	0.168	-0.031
-707.631	-200.000	0.026	-0.140
-706.616	-53.149	-0.223	-0.103
-705.602	800.000	0.026	0.113
-704.587	800.000	-0.067	-0.197
-703.572	-26.229	-0.176	0.104
-702.558	55.632	-0.222	-0.217
-701.543	-60.601	0.424	-0.181
-700.529	86.569	0.044	0.049
-699.514	-48.979	0.029	-0.014
-698.499	-108.034	-0.268	0.059
-697.485	767.498	-0.139	-0.382
-696.470	-200.000	-0.010	0.410
-695.456	-70.454	-0.118	-0.045
-694.441	-74.323	-0.091	0.033
-693.426	800.000	-0.027	0.090
-692.412	-85.209	-0.275	0.087
-691.397	800.000	0.068	-0.260
-690.383	272.583	0.119	0.211
-689.368	-64.538	-0.326	0.134
-688.354	-182.550	-0.288	-0.005
-687.339	281.690	0.109	0.197
-686.324	-39.941	-0.159	-0.084
-685.310	82.333	0.109	-0.120
-684.295	557.290	0.019	-0.046
-683.281	180.983	-0.138	-0.205
-682.266	148.613	-0.069	0.094
-681.251	-6.058	-0.133	0.091
-680.237	-200.000	0.013	0.170
-679.222	43.996	0.087	-0.080
-678.208	-14.216	-0.199	-0.130
-677.193	126.725	0.177	-0.226
-676.178	800.000	0.047	-0.189
-675.164	-164.201	0.086	-0.004
-674.149	-200.000	0.019	-0.165
-673.135	174.241	-0.195	-0.284
-672.120	-200.000	0.000	-0.099
-671.105	-153.937	-0.204	-0.014
-670.091	160.661	-0.108	-0.152
-669.076	-64.843	-0.246	-0.100
-668.062	247.623	0.101	0.172
-667.047	-179.131	-0.074	0.002
-666.032	-191.334	0.157	-0.002
-665.018	-200.000	0.006	-0.039
-664.003	-110.101	-0.158	-0.033
-662.989	-0.292	-0.162	-0.116
-661.974	483.398	0.048	-0.110
-660.959	271.816	0.074	0.132
-659.945	-200.000	0.082	0.366
-658.930	-64.769	-0.192	0.078
-657.916	800.000	0.039	0.149
-656.901	1.873	0.132	0.096
-655.886	-70.542	-0.347	0.132
-654.872	800.000	0.091	-0.377
-653.857	107.272	-0.273	0.327
-652.843	800.000	-0.025	0.087
-651.828	-11.467	0.178	0.118
-650.814	-200.000	0.050	-0.502
-649.799	800.000	-0.040	-0.159
-648.784	48.787	-0.147	0.139
-647.770	-89.772	0.180	-0.053
-646.755	396.752	-0.182	0.383
-645.741	-200.000	-0.005	0.127
-644.726	665.226	-0.066	-0.170
-643.711	329.604	-0.093	-0.180
-642.697	30.123	0.258	0.222
-641.682	-104.241	0.307	-0.072
-640.668	665.744	0.064	0.167
-639.653	40.592	-0.058	-0.053
-638.638	800.000	0.055	-0.216
-637.624	140.448	0.012	0.016
-636.609	-74.054	-0.419	-0.153
-635.595	-109.256	-0.319	0.068
-634.580	-46.593	-0.062	0.031
-633.565	-200.000	-0.007	-0.075
-632.551	-43.450	0.256	-0.130
-631.536	204.931	0.163	-0.254
-630.522	-16.167	-0.142	-0.091
-629.507	-19.873	-0.044	0.027
-628.492	-78.989	0.122	0.042
-627.478	-48.949	0.111	0.053
-626.463	-200.000	0.020	-0.250
-625.449	680.829	-0.029	-0.075
-624.434	-81.891	-0.212	0.070
-623.419	178.748	-0.067	-0.099
-622.405	-63.902	-0.275	0.113
-621.390	-40.155	0.280	-0.147
-620.376	800.000	0.095	-0.267
-619.361	305.045	0.089	-0.167
-618.346	22.083	0.150	0.123
-617.332	11.265	-0.107	-0.083
-616.317	326.342	0.029	0.055
-615.303	-79.777	-0.116	-0.039
-614.288	19.000	0.177	-0.143
-613.273	284.632	-0.059	-0.107
-612.259	-70.750	-0.258	0.098
-611.244	382.367	-0.072	0.150
-610.230	-93.078	-0.193	-0.054
-609.215	800.000	0.037	0.132
-608.201	800.000	0.031	-0.134
-607.186	-172.657	0.126	-0.004
-606.171	88.968	-0.206	0.230
-605.157	15.283	-0.251	-0.198
-604.142	-27.471	0.261	-0.152
-603.128	800.000	-0.075	-0.308
-602.113	-200.000	0.030	-0.176
-601.098	-109.346	0.203	0.043
-600.084	-8.976	0.150	0.101
-599.069	-84.071	-0.167	-0.053
-598.055	342.319	-0.035	-0.068
-597.040	-129.026	-0.355	0.050
-596.025	34.000	0.109	-0.095
-595.011	-50.445	0.086	0.041
-593.996	-5.063	-0.261	-0.181
-592.982	-139.912	-0.276	-0.029
-591.967	28.563	0.191	0.163
-590.952	-114.391	-0.159	0.031
-589.938	800.000	0.054	-0.213
-588.923	-99.353	-0.376	0.095
-587.909	-200.000	0.007	-0.363
-586.894	-68.485	0.223	-0.087
-585.879	-32.540	-0.188	0.105
-584.865	367.154	0.027	-0.055
-583.850	-21.488	-0.297	0.182
-582.836	-185.882	0.058	-0.001
-581.821	-6.852	-0.134	0.091
-580.806	800.000	-0.108	-0.313
-579.792	345.520	0.032	-0.063
-578.777	-21.762	0.122	-0.074
-577.763	-45.965	0.351	-0.174
-576.748	-20.734	-0.279	0.172
-575.733	-141.477	-0.023	-0.002
-574.719	-36.937	0.123	-0.066
-573.704	-21.109	-0.248	0.152
-572.690	800.000	0.036	-0.117
-571.675	72.511	0.184	-0.193
-570.661	-128.263	-0.113	-0.016
-569.646	800.000	-0.034	0.124
-568.631	800.000	0.005	0.016
-567.617	-72.060	-0.286	-0.107
-566.602	-65.274	-0.272	0.110
-565.588	10.336	0.232	-0.177
-564.573	800.000	0.038	-0.158
-563.558	38.146	0.163	0.146
-562.544	-200.000	-0.016	0.090
-561.529	225.431	-0.219	0.357
-560.515	-138.237	-0.370	0.041
-559.500	-200.000	0.033	0.171
-558.485	588.431	-0.165	0.409
-557.471	800.000	0.006	-0.020
-556.456	138.722	-0.105	0.139
-555.442	671.930	0.097	0.252
-554.427	658.526	-0.054	-0.139
-553.412	-200.000	0.001	0.188
-552.398	33.056	-0.341	0.297
-551.383	-60.772	0.250	-0.106
-550.369	79.367	0.188	-0.202
-549.354	41.865	-0.229	-0.208
-548.339	-74.509	0.089	-0.032
-547.325	800.000	0.181	0.547
-546.310	42.512	-0.241	0.220
-545.296	-200.000	0.018	-0.130
-544.281	-109.018	-0.214	0.046
-543.266	-43.618	-0.348	-0.176
-542.252	259.003	-0.152	-0.262
-541.237	-90.333	0.220	0.064
-540.223	724.678	-0.074	0.198
-539.208	-132.826	-0.240	0.031
-538.193	-200.000	-0.048	-0.326
-537.179	-85.536	-0.165	0.052
-536.164	8.511	0.135	0.102
-535.150	-58.129	-0.078	-0.034
-534.135	-200.000	0.043	0.324
-533.121	296.553	0.051	-0.094
-532.106	462.581	0.044	0.100
-531.091	-200.000	0.048	0.283
-530.077	39.703	-0.217	-0.195
-529.062	-200.000	-0.005	0.223
-528.048	48.439	-0.168	-0.158
-527.033	20.709	-0.220	-0.178
-526.018	-94.951	0.315	-0.086
-525.004	800.000	-0.041	-0.146
-523.989	-200.000	0.028	-0.405
-522.975	-38.738	-0.174	0.092
-521.960	89.293	-0.125	-0.140
-520.945	34.682	-0.177	-0.155
-519.931	118.206	0.096	-0.118
-518.916	-200.000	-0.025	0.530
-517.902	-200.000	0.015	0.231
-516.887	-82.557	-0.096	0.031
-515.872	-200.000	0.005	-0.328
-514.858	800.000	-0.052	-0.211
-513.843	16.683	-0.071	-0.056
-512.829	-29.591	-0.304	0.174
-511.814	57.389	-0.200	-0.196
-510.799	343.628	-0.079	0.155
-509.785	-156.675	0.122	0.008
-508.770	17.478	0.351	-0.279
-507.756	31.245	0.127	-0.109
-506.741	366.797	0.016	-0.033
-505.726	503.506	-0.061	-0.141
-504.712	-9.723	-0.274	-0.183
-503.697	-85.706	-0.178	0.055
-502.683	800.000	0.086	-0.259
-501.668	90.951	0.121	-0.135
-500.653	8.536	-0.044	0.033
-499.639	155.166	0.172	-0.238
-498.624	117.026	-0.038	-0.047
-497.610	800.000	0.029	-0.090
-496.595	23.539	0.143	-0.118
-495.581	-49.592	-0.168	0.080
-494.566	-38.809	-0.263	-0.139
-493.551	1.293	-0.137	-0.099
-492.537	-110.851	-0.293	-0.060
-491.522	-119.683	-0.444	0.077
-490.508	-80.767	0.047	0.016
-489.493	-200.000	-0.031	0.149
-488.478	-200.000	-0.019	-0.228
-487.464	537.179	0.093	-0.221
-486.449	-1.430	0.186	-0.132
-485.435	-200.000	-0.071	0.335
-484.420	273.793	0.153	-0.271
-483.405	-200.000	0.001	-0.028
-482.391	223.677	-0.070	0.113
-481.376	-102.381	-0.218	-0.052
-480.362	-93.810	0.185	0.051
-479.347	-60.640	0.280	0.119
-478.332	-0.005	0.381	-0.272
-477.318	3.129	0.190	0.138
-476.303	-40.076	-0.345	-0.180
-475.289	800.000	0.011	-0.041
-474.274	-198.143	0.299	-0.002
-473.259	-39.251	0.106	0.056
-472.245	-21.168	0.363	-0.222
-471.230	431.773	0.042	-0.090
-470.216	231.210	0.175	0.287
-469.201	-200.000	0.035	-0.245
-468.186	90.847	-0.088	-0.099
-467.172	-167.744	-0.213	-0.008
-466.157	800.000	0.072	0.256
-465.143	-70.942	-0.063	0.024
-464.128	171.693	-0.051	-0.073
-463.113	137.166	0.206	-0.269
-462.099	-145.510	0.279	-0.025
-461.084	24.373	-0.142	0.117
-460.070	-200.000	0.021	-0.207
-459.055	68.570	-0.086	-0.088
-458.040	-137.643	0.262	-0.029
-457.026	800.000	-0.070	0.299
-456.011	-55.489	-0.260	-0.117
-454.997	496.697	0.113	-0.260
-453.982	-113.598	-0.254	0.050
-452.968	58.536	-0.275	0.270
-451.953	800.000	0.091	-0.358
-450.938	-57.545	-0.272	0.119
-449.924	241.640	-0.051	0.085
-448.909	-200.000	0.005	0.521
-447.895	449.871	0.114	0.252
-446.880	-92.947	0.129	-0.036
-445.865	-119.628	-0.189	-0.033
-444.851	800.000	0.049	-0.153
-443.836	-65.171	-0.109	0.044
-442.822	-23.955	-0.127	0.076
-441.807	84.691	0.088	-0.096
-440.792	535.655	0.233	0.553
-439.778	701.783	0.083	-0.219
-438.763	-128.103	0.230	0.033
-437.749	-200.000	0.001	-0.043
-436.734	-200.000	0.023	0.237
-435.719	113.847	0.082	0.100
-434.705	800.000	0.080	-0.252
-433.690	-200.000	-0.014	0.101
-432.676	-200.000	0.006	0.070
-431.661	305.131	-0.093	0.172
-430.646	-200.000	-0.042	-0.291
-429.632	-119.468	-0.229	0.040
-428.617	-86.458	-0.161	0.049
-427.603	81.668	0.126	-0.136
-426.588	-80.069	0.113	0.038
-425.573	30.504	0.196	0.167
-424.559	693.260	-0.118	0.308
-423.544	-200.000	0.061	0.287
-422.530	-200.000	0.011	-0.330
-421.515	800.000	-0.040	0.175
-420.500	7.180	0.304	-0.226
-419.486	-200.000	0.033	0.177
-418.471	275.199	0.172	-0.304
-417.457	-90.481	-0.206	-0.060
-416.442	-161.626	0.433	0.022
-415.428	-79.131	-0.095	0.032
-414.413	-57.751	0.180	0.079
-413.398	-49.729	-0.359	0.170
-412.384	151.145	-0.147	0.199
-411.369	-87.677	0.352	0.106
-410.355	-112.106	-0.474	-0.095
-409.340	800.000	0.074	-0.282
-408.325	26.259	0.168	0.140
-407.311	156.378	0.026	0.035
-406.296	-48.149	0.220	-0.106
-405.282	10.163	-0.147	-0.112
-404.267	-138.111	0.251	-0.028
-403.252	-41.784	0.144	0.074
-402.238	191.113	-0.022	-0.033
-401.223	-85.523	0.181	-0.056
-400.209	-200.000	-0.005	0.043
-399.194	800.000	-0.130	-0.379
-398.179	-141.720	0.102	0.010
-397.165	-163.191	0.189	0.009
-396.150	-177.890	-0.303	-0.007
-395.136	-100.666	-0.104	0.026
-394.121	171.661	-0.083	-0.118
-393.106	-19.359	-0.247	0.153
-392.092	-200.000	-0.015	0.164
-391.077	-200.000	0.047	0.282
-390.063	-41.620	0.041	-0.021
-389.048	-200.000	-0.012	0.160
-388.033	370.932	-0.234	-0.473
-387.019	49.415	-0.189	-0.177
-386.004	292.354	0.059	-0.107
-384.990	278.313	-0.096	0.171
-383.975	675.078	-0.092	0.238
-382.960	325.105	-0.134	0.256
-381.946	155.333	0.125	-0.171
-380.931	84.379	0.099	0.108
-379.917	-25.745	-0.137	-0.081
-378.902	-76.504	0.197	0.069
-377.888	-200.000	-0.051	0.322
-376.873	-164.143	0.258	0.012
-375.858	-42.765	-0.407	-0.206
-374.844	467.430	-0.103	-0.230
-373.829	-158.038	-0.210	0.012
-372.815	-74.290	0.208	-0.075
-371.800	-200.000	-0.082	0.388
-370.785	800.000	0.069	0.261
-369.771	-45.735	0.234	0.115
-368.756	121.674	-0.117	-0.145
-367.742	800.000	-0.034	-0.131
-366.727	-200.000	0.021	0.144
-365.712	244.797	-0.067	0.112
-364.698	-142.249	0.097	0.010
-363.683	-40.704	-0.264	-0.136
-362.669	-110.525	0.229	0.047
-361.654	-73.276	-0.089	0.032
-360.639	562.078	0.153	-0.369
-359.625	-200.000	0.011	0.060
-358.610	800.000	-0.073	0.261
-357.596	390.732	0.030	0.062
-356.581	208.921	0.151	0.235
-355.566	800.000	0.028	-0.090
-354.552	-123.954	0.131	0.020
-353.537	74.084	0.036	-0.038
-352.523	-13.770	0.068	-0.044
-351.508	-200.000	0.032	0.159
-350.493	-104.321	-0.144	-0.033
-349.479	253.157	0.116	-0.198
-348.464	-136.590	0.349	-0.040
-347.450	15.856	-0.147	0.115
-346.435	-200.000	-0.003	-0.196
-345.420	-24.061	0.199	-0.118
-344.406	56.216	-0.136	0.132
-343.391	55.196	-0.197	-0.190
-342.377	800.000	-0.081	0.240
-341.362	72.659	-0.111	-0.115
-340.348	-86.462	0.312	0.095
-339.333	359.391	-0.120	0.238
-338.318	-84.177	-0.034	-0.011
-337.304	-82.111	0.402	0.130
-336.289	800.000	-0.106	0.334
-335.275	-45.547	0.103	-0.051
-334.260	-136.847	0.218	-0.025
-333.245	-116.521	0.214	-0.039
-332.231	545.190	-0.186	0.443
-331.216	11.262	0.158	0.120
-330.202	293.277	-0.037	0.068
-329.187	-83.458	0.378	0.120
-328.172	800.000	0.061	-0.188
-327.158	253.080	0.158	0.268
-326.143	62.214	-0.188	0.187
-325.129	-138.788	0.470	-0.051
-324.114	-101.942	-0.125	0.030
-323.099	410.223	0.035	-0.073
-322.085	-200.000	-0.003	-0.298
-321.070	111.204	0.204	0.244
-320.056	-159.070	-0.254	0.014
-319.041	-169.448	0.143	0.005
-318.026	18.748	0.122	-0.097
-317.012	-145.643	0.238	-0.021
-315.997	98.956	-0.059	-0.068
-314.983	107.206	0.073	-0.086
-313.968	-163.543	-0.615	0.029
-312.953	-123.416	-0.137	-0.022
-311.939	451.359	-0.060	-0.132
-310.924	309.452	0.029	0.054
-309.910	-200.000	0.009	0.077
-308.895	547.383	-0.097	0.231
-307.880	24.764	-0.184	0.151
-306.866	43.284	0.088	0.080
-305.851	337.230	0.117	0.227
-304.837	-200.000	-0.019	0.224
-303.822	-200.000	-0.000	-0.283
-302.807	272.673	-0.128	-0.225
-301.793	-200.000	-0.017	0.169
-300.778	-200.000	0.070	0.423
-299.764	800.000	-0.071	-0.287
-298.749	-77.034	0.209	0.072
-297.735	49.261	0.295	0.276
-296.720	-200.000	0.008	0.309
-295.705	292.920	-0.084	0.152
-294.691	-146.139	-0.276	0.024
-293.676	-63.227	-0.105	0.043
-292.662	-138.331	0.140	-0.015
-291.647	-94.309	-0.226	-0.061
-290.632	-200.000	-0.006	-0.160
-289.618	368.731	0.090	-0.181
-288.603	-173.711	-0.216	0.006
-287.589	-29.016	-0.136	0.078
-286.574	186.904	0.195	0.289
-285.559	-200.000	0.026	-0.260
-284.545	173.052	-0.264	0.378
-283.530	-0.391	0.320	0.226
-282.516	191.522	0.137	0.204
-281.501	-54.896	-0.437	-0.196
-280.486	-92.495	-0.202	-0.056
-279.472	-200.000	0.061	0.338
-278.457	800.000	-0.034	-0.112
-277.443	-156.078	-0.193	-0.012
-276.428	316.493	0.270	0.506
-275.413	386.481	-0.150	0.308
-274.399	-190.176	-0.190	0.002
-273.384	-135.219	0.264	-0.031
-272.370	-200.000	-0.009	0.179
-271.355	18.125	0.049	-0.039
-270.340	800.000	-0.096	-0.273
-269.326	799.351	0.122	-0.334
-268.311	239.481	0.036	0.059
-267.297	84.312	0.320	-0.348
-266.282	308.804	0.172	0.318
-265.267	347.682	0.065	-0.126
-264.253	30.211	-0.229	0.194
-263.238	-200.000	0.003	-0.063
-262.224	142.188	0.047	0.061
-261.209	432.870	0.074	0.158
-260.195	345.933	0.163	0.317
-259.180	-103.381	0.294	-0.069
-258.165	-200.000	0.005	0.335
-257.151	800.000	-0.024	-0.084
-256.136	-147.457	-0.099	0.008
-255.122	-200.000	0.050	-0.226
-254.107	215.736	0.041	-0.064
-253.092	221.294	0.049	-0.079
-252.078	42.184	-0.198	-0.178
-251.063	78.669	0.206	0.218
-250.049	585.405	-0.105	-0.256
-249.034	-200.000	-0.043	-0.297
-248.019	-118.067	-0.159	0.028
-247.005	800.000	-0.075	0.288
-245.990	-82.885	0.202	-0.065
-244.976	140.929	0.171	-0.224
-243.961	5.310	-0.300	-0.219
-242.946	358.926	0.168	0.334
-241.932	-132.934	-0.365	0.046
-240.917	-69.604	0.197	0.075
-239.903	436.209	0.193	0.416
-238.888	-155.212	-0.149	-0.010
-237.873	-200.000	0.030	0.225
-236.859	-2.165	0.169	-0.118
-235.844	-129.032	-0.162	-0.023
-234.830	73.290	0.139	-0.145
-233.815	102.894	0.203	-0.236
-232.800	77.829	-0.035	-0.036
-231.786	-34.630	0.313	0.170
-230.771	-13.691	0.074	0.047
-229.757	-125.254	0.338	-0.051
-228.742	104.750	-0.337	0.394
-227.727	29.899	0.105	0.088
-226.713	-200.000	0.012	-0.129
-225.698	-97.411	0.359	-0.093
-224.684	-200.000	0.071	-0.363
-223.669	-57.159	0.062	-0.027
-222.655	334.947	-0.137	0.262
-221.640	-81.691	0.182	0.059
-220.625	-71.390	0.150	0.056
-219.611	-125.151	-0.203	-0.031
-218.596	-40.990	0.119	0.061
-217.582	151.539	-0.196	-0.264
-216.567	-106.513	0.184	0.041
-215.552	800.000	-0.031	-0.136
-214.538	800.000	-0.046	0.168
-213.523	-62.908	0.293	0.120
-212.509	-62.153	-0.201	0.083
-211.494	161.760	0.156	-0.217
-210.479	-21.058	-0.240	0.146
-209.465	-150.703	-0.206	-0.016
-208.450	113.456	-0.082	0.098
-207.436	11.092	0.132	-0.100
-206.421	800.000	-0.014	-0.059
-205.406	-64.568	0.159	0.064
-204.392	-200.000	0.002	0.077
-203.377	-200.000	0.062	-0.347
-202.363	-200.000	-0.040	0.229
-201.348	800.000	-0.018	0.077
-200.333	489.637	0.092	0.208
-199.319	-144.782	0.134	0.012
-198.304	-17.212	0.276	-0.172
-197.290	-200.000	0.010	-0.255
-196.275	-50.185	-0.232	-0.109
-195.260	76.602	0.223	-0.234
-194.246	80.449	0.022	-0.023
-193.231	-125.669	-0.155	0.023
-192.217	-200.000	0.005	-0.036
-191.202	487.170	-0.032	-0.072
-190.187	122.631	0.125	-0.155
-189.173	309.980	0.289	-0.536
-188.158	-66.810	-0.036	0.014
-187.144	569.987	-0.017	-0.042
-186.129	127.336	-0.084	-0.106
-185.114	-87.237	0.304	0.091
-184.100	12.210	-0.164	-0.125
-183.085	-18.914	-0.159	-0.098
-182.071	-69.917	0.173	0.065
-181.056	249.358	-0.079	0.132
-180.042	-71.380	0.176	-0.065
-179.027	140.796	-0.155	0.202
-178.012	671.765	-0.177	-0.453
-176.998	-36.889	0.107	-0.057
-175.983	-116.868	0.077	-0.014
-174.969	-105.537	-0.248	-0.056
-173.954	587.038	-0.145	-0.352
-172.939	-69.588	-0.217	-0.082
-171.925	300.018	0.197	-0.359
-170.910	-87.765	-0.215	0.064
-169.896	146.044	-0.240	0.319
-168.881	219.208	-0.091	0.144
-167.866	-200.000	0.021	0.498
-166.852	-92.354	0.275	-0.077
-165.837	-161.626	0.125	-0.006
-164.823	-60.965	0.185	0.077
-163.808	-200.000	0.022	-0.167
-162.793	-45.452	0.304	0.149
-161.779	-200.000	0.028	0.189
-160.764	-69.984	-0.182	-0.068
-159.750	-166.085	0.166	0.007
-158.735	-131.955	0.355	0.046
-157.720	49.121	-0.201	-0.186
-156.706	800.000	-0.030	-0.095
-155.691	-59.282	0.095	0.041
-154.677	64.265	-0.063	-0.063
-153.662	800.000	0.066	-0.181
-152.647	23.921	0.157	0.128
-151.633	322.668	0.076	-0.144
-150.618	61.369	0.164	-0.161
-149.604	-200.000	-0.077	0.410
-148.589	2.659	0.324	0.232
-147.574	9.202	-0.154	0.115
-146.560	649.408	-0.103	-0.261
-145.545	-200.000	0.049	0.457
-144.531	-93.559	-0.181	-0.049
-143.516	-118.507	0.127	0.022
-142.502	-143.530	0.342	-0.032
-141.487	-34.331	0.114	0.062
-140.472	447.657	0.058	-0.127
-139.458	24.343	0.089	-0.073
-138.443	800.000	-0.125	0.360
-137.429	-75.222	0.216	-0.076
-136.414	-174.519	0.064	0.002
-135.399	-110.267	0.053	-0.011
-134.385	-99.542	-0.253	0.063
-133.370	384.274	-0.072	-0.147
-132.356	-200.000	0.018	0.153
-131.341	-200.000	0.063	-0.283
-130.326	301.341	0.112	0.204
-129.312	800.000	0.045	0.186
-128.297	-94.941	-0.322	-0.086
-127.283	108.566	-0.095	-0.112
-126.268	-105.801	0.292	0.065
-125.253	92.512	0.102	0.114
-124.239	-200.000	0.026	-0.113
-123.224	-76.141	0.334	-0.116
-122.210	14.074	0.344	-0.265
-121.195	298.215	-0.089	0.161
-120.180	-100.104	0.324	0.080
-119.166	-101.468	0.172	0.041
-118.151	800.000	-0.038	-0.141
-117.137	-137.030	0.163	0.018
-116.122	197.093	-0.084	-0.127
-115.107	79.447	-0.174	-0.184
-114.093	367.794	-0.070	-0.140
-113.078	-49.597	0.233	0.110
-112.064	-123.692	0.095	0.015
-111.049	103.180	0.399	0.461
-110.034	674.361	0.102	0.261
-109.020	800.000	0.026	-0.089
-108.005	800.000	0.080	-0.260
-106.991	800.000	0.041	-0.126
-105.976	-200.000	0.056	0.298
-104.962	17.514	0.117	-0.092
-103.947	-148.401	0.093	-0.008
-102.932	-78.081	0.148	-0.050
-101.918	-200.000	0.082	-0.498
-100.903	-200.000	0.005	0.054
-99.889	630.433	-0.033	0.081
-98.874	800.000	-0.083	-0.274
-97.859	113.428	0.032	-0.039
-96.845	-135.377	0.187	-0.022
-95.830	-200.000	-0.057	0.347
-94.816	-200.000	0.004	0.035
-93.801	473.041	0.146	0.324
-92.786	-123.356	0.156	0.024
-91.772	-35.059	-0.119	-0.064
-90.757	128.832	0.138	0.174
-89.743	560.796	-0.147	0.350
-88.728	602.238	0.108	-0.265
-87.713	-141.041	0.215	0.022
-86.699	-152.397	0.228	-0.016
-85.684	417.025	-0.143	-0.300
-84.670	-200.000	0.034	-0.512
-83.655	800.000	0.062	-0.239
-82.640	-200.000	0.011	0.148
-81.626	530.087	0.101	-0.234
-80.611	-200.000	-0.023	0.159
-79.597	-200.000	0.029	0.413
-78.582	-10.015	-0.100	0.065
-77.567	-200.000	0.014	0.249
-76.553	-54.005	0.565	0.253
-75.538	25.225	-0.201	0.164
-74.524	-54.442	-0.090	-0.040
-73.509	68.853	0.122	0.123
-72.494	-69.265	0.144	0.054
-71.480	105.183	-0.160	-0.187
-70.465	224.458	-0.105	0.167
-69.451	-190.996	0.013	-0.000
-68.436	67.557	0.203	-0.205
-67.422	-0.443	-0.080	0.056
-66.407	-118.174	-0.350	-0.061
-65.392	208.751	0.124	0.191
-64.378	119.446	0.173	-0.211
-63.363	-200.000	-0.075	0.363
-62.349	-132.374	0.327	0.042
-61.334	106.398	-0.830	-0.969
-60.319	28.268	0.487	0.405
-59.305	-200.000	-0.078	-0.786
-58.290	200.865	0.673	1.020
-57.276	800.000	0.416	1.576
-56.261	-200.000	96.735	591.706
-55.246	615.818	1397.042	3447.336
-54.232	191.693	2591.701	3842.866
-53.217	118.037	2185.555	2650.470
-52.203	42.246	1720.231	1537.962
-51.188	34.328	1531.592	1314.891
-50.173	31.993	1505.142	1276.274
-49.159	52.025	1554.136	1456.618
-48.144	53.451	1571.629	1482.803
-47.130	34.677	1531.179	1316.735
-46.115	31.492	1516.876	1282.585
-45.100	31.223	1513.370	1277.731
-44.086	31.274	1511.442	1276.396
-43.071	31.273	1509.021	1274.295
-42.057	31.176	1508.038	1272.758
-41.042	31.182	1506.733	1271.642
-40.027	31.185	1505.071	1270.207
-39.013	31.216	1503.056	1268.673
-37.998	31.143	1502.495	1267.651
-36.984	31.118	1501.041	1266.201
-35.969	31.250	1499.469	1265.721
-34.954	31.217	1498.090	1264.282
-33.940	31.197	1496.625	1262.863
-32.925	31.265	1495.138	1262.020
-31.911	31.274	1494.439	1261.438
-30.896	31.333	1492.730	1260.343
-29.881	31.322	1491.170	1258.905
-28.867	31.281	1489.635	1257.278
-27.852	31.221	1488.886	1256.197
-26.838	31.259	1487.431	1255.176
-25.823	31.299	1485.549	1253.801
-24.809	31.317	1483.649	1252.271
-23.794	31.274	1482.510	1250.971
-22.779	31.253	1481.435	1249.875
-21.765	31.242	1480.391	1248.868
-20.750	31.343	1479.087	1248.395
-19.736	31.246	1478.140	1246.900
-18.721	31.150	1477.052	1245.289
-17.706	31.195	1475.811	1244.499
-16.692	31.174	1474.740	1243.401
-15.677	31.220	1473.224	1242.385
-14.663	31.183	1472.103	1241.138
-13.648	31.107	1471.664	1240.213
-12.633	31.045	1471.303	1239.452
-11.619	31.128	1470.098	1238.938
-10.604	31.205	1468.997	1238.471
-9.590	31.164	1468.273	1237.541
-8.575	31.095	1467.680	1236.536
-7.560	31.149	1466.776	1236.077
-6.546	31.097	1465.513	1234.625
-5.531	31.151	1464.717	1234.260
-4.517	31.088	1464.048	1233.232
-3.502	31.112	1462.715	1232.215
-2.487	31.128	1461.585	1231.320
-1.473	31.133	1460.441	1230.346
-0.458	31.118	1459.284	1229.223
0.556	33.171	1450.116	1219.655
1.571	30.462	1424.326	1180.668
2.586	26.937	1362.888	1108.161
3.600	25.136	1280.931	1031.085
4.615	23.216	1234.883	983.276
5.629	19.788	1177.997	919.698
6.644	11.770	1094.093	814.354
7.659	5.826	1053.145	755.254
8.673	4.759	1048.162	746.502
9.688	4.593	1045.004	743.392
10.702	4.418	1043.782	741.620
11.717	4.490	1041.200	740.063
12.731	7.367	1045.025	756.456
13.746	15.324	1055.614	802.258
14.761	21.196	1062.859	835.891
15.775	22.146	1063.218	840.647
16.790	21.693	1060.962	836.623
17.804	20.605	1059.566	830.257
18.819	19.765	1057.318	824.422
19.834	19.372	1056.195	821.603
20.848	19.226	1055.863	820.573
21.863	19.207	1054.986	819.727
22.877	18.959	1054.301	817.945
23.892	18.787	1052.994	816.044
24.907	18.764	1052.357	815.364
25.921	18.773	1051.602	814.751
26.936	18.608	1051.039	813.463
27.950	18.680	1050.325	813.175
28.965	18.695	1048.890	812.065
29.980	18.715	1048.070	811.455
30.994	19.022	1047.013	812.015
32.009	19.037	1046.316	811.472
33.023	19.122	1045.576	811.225
34.038	19.155	1044.551	810.515
35.053	18.968	1043.928	809.079
36.067	18.776	1042.955	807.350
37.082	18.686	1041.742	805.921
38.096	18.820	1040.960	805.868
39.111	18.823	1040.561	805.507
40.126	19.136	1039.699	806.232
41.140	18.987	1038.539	804.563
42.155	18.721	1036.728	801.846
43.169	18.426	1036.106	799.918
44.184	18.342	1034.923	798.544
45.199	18.194	1034.266	797.273
46.213	18.330	1032.951	796.824
47.228	18.399	1032.485	796.714
48.242	18.657	1031.821	797.330
49.257	18.837	1030.998	797.462
50.271	18.895	1029.505	796.506
51.286	18.762	1028.691	795.186
52.301	18.898	1028.222	795.386
53.315	18.854	1027.455	794.516
54.330	18.756	1026.784	793.474
55.344	18.548	1025.634	791.557
56.359	18.499	1024.125	790.094
57.374	18.572	1023.360	789.771
58.388	18.489	1023.015	789.055
59.403	18.401	1022.016	787.810
60.417	18.287	1021.209	786.591
61.432	18.291	1020.525	786.014
62.447	18.273	1019.826	785.324
63.461	18.249	1018.859	784.399
64.476	18.156	1017.967	783.220
65.490	18.087	1017.237	782.270
66.505	18.104	1016.172	781.463
67.520	18.129	1014.903	780.531
68.534	18.293	1014.437	780.853
69.549	18.240	1013.795	780.048
70.563	18.319	1012.823	779.588
71.578	18.050	1012.351	777.933
72.593	17.911	1011.564	776.626
73.607	17.851	1010.551	775.505
74.622	17.952	1009.348	774.975
75.636	17.970	1008.516	774.350
76.651	18.075	1007.650	774.091
77.666	18.155	1006.895	773.806
78.680	18.068	1006.718	773.206
79.695	18.005	1005.999	772.299
80.709	18.180	1005.272	772.463
81.724	18.310	1004.466	772.362
82.739	18.310	1004.039	771.967
83.753	18.388	1003.188	771.594
84.768	18.641	1002.464	772.109
85.782	18.951	1002.452	773.427
86.797	19.263	1001.410	773.954
87.812	19.157	1000.983	773.082
88.826	18.947	999.991	771.303
89.841	18.944	998.985	770.444
90.855	18.910	998.750	770.045
91.870	19.027	997.775	769.747
92.884	19.103	996.935	769.374
93.899	19.008	996.593	768.615
94.914	19.094	995.233	767.881
95.928	19.145	994.613	767.565
96.943	19.137	994.319	767.234
97.957	18.984	993.276	765.679
98.972	19.030	991.833	764.704
99.987	18.982	991.437	764.117
101.001	19.014	990.515	763.482
102.016	18.879	990.447	762.761
103.030	19.001	988.715	761.900
104.045	18.977	988.011	761.184
105.060	19.036	987.276	760.811
106.074	18.877	986.254	759.255
107.089	18.562	985.106	756.915
108.103	18.390	984.136	755.342
109.118	18.299	983.086	754.069
110.133	18.294	982.172	753.281
111.147	18.266	981.257	752.387
112.162	18.055	980.304	750.662
113.176	18.181	979.894	750.836
114.191	18.356	978.611	750.554
115.206	18.540	978.133	750.926
116.220	18.464	977.184	749.799
117.235	18.362	976.208	748.540
118.249	18.437	975.621	748.353
119.264	18.365	974.566	747.163
120.279	18.155	973.890	745.662
121.293	18.088	973.024	744.639
122.308	18.238	971.889	744.360
123.322	18.111	971.142	743.170
124.337	17.972	969.993	741.622
125.352	17.967	969.079	740.836
126.366	17.846	968.427	739.745
127.381	17.859	967.078	738.707
128.395	17.856	966.282	738.019
129.410	17.993	965.498	737.949
130.424	18.037	964.624	737.404
131.439	18.176	963.390	736.995
132.454	18.320	962.685	737.011
133.468	18.404	962.652	737.283
134.483	18.548	961.625	737.048
135.497	18.456	960.874	736.012
136.512	18.449	960.168	735.377
137.527	18.472	959.712	735.060
138.541	18.397	958.475	733.728
139.556	18.572	958.176	734.181
140.570	18.564	957.401	733.489
141.585	18.418	956.930	732.438
142.600	18.710	956.459	733.261
143.614	18.951	955.175	733.241
144.629	18.800	954.950	732.360
145.643	19.004	953.920	732.374
146.658	19.055	953.112	731.905
147.673	18.745	952.441	730.009
148.687	18.691	951.074	728.666
149.702	18.510	950.466	727.369
150.716	18.367	949.166	725.701
151.731	18.426	948.272	725.203
152.746	18.488	947.670	724.943
153.760	18.553	946.772	724.467
154.775	18.652	946.300	724.460
155.789	18.773	945.631	724.392
156.804	18.842	944.635	723.854
157.819	18.770	943.857	722.893
158.833	18.773	943.953	722.914
159.848	18.958	942.916	722.836
160.862	19.029	942.429	722.697
161.877	19.057	941.269	721.861
162.892	18.612	940.465	719.314
163.906	18.489	939.365	717.892
164.921	18.376	938.737	716.877
165.935	18.419	937.305	715.898
166.950	18.604	936.444	715.950
167.964	18.524	936.132	715.313
168.979	18.604	935.095	714.795
169.994	18.415	933.791	712.946
171.008	18.490	932.880	712.501
172.023	18.603	932.463	712.587
173.037	18.797	931.788	712.813
174.052	19.099	930.999	713.399
175.067	19.021	930.176	712.384
176.081	18.713	929.284	710.363
177.096	18.510	928.046	708.513
178.110	18.465	927.214	707.629
179.125	18.572	927.140	707.951
180.140	18.664	926.164	707.525
181.154	18.567	925.390	706.468
182.169	18.693	924.927	706.575
183.183	18.854	924.843	707.109
184.198	18.821	924.015	706.276
185.213	18.926	923.035	705.899
186.227	18.834	922.766	705.250
187.242	19.008	922.435	705.650
188.256	19.080	921.712	705.329
189.271	18.990	921.050	704.394
190.286	19.294	920.416	705.090
191.300	19.054	919.114	703.050
192.315	18.536	917.780	699.851
193.329	18.197	917.344	698.073
194.344	18.300	916.475	697.773
195.359	18.640	915.967	698.706
196.373	18.674	916.011	698.819
197.388	18.816	915.024	698.580
198.402	18.923	914.759	698.750
199.417	19.140	914.341	699.250
200.432	19.293	914.180	699.687
201.446	19.481	913.854	700.138
202.461	19.513	913.283	699.770
203.475	19.552	912.850	699.535
204.490	19.504	912.181	698.767
205.504	19.265	911.173	696.965
206.519	19.189	910.134	695.801
207.534	19.145	909.556	695.119
208.548	18.955	909.046	693.902
209.563	19.093	907.971	693.576
210.577	19.202	907.231	693.387
211.592	19.102	906.887	692.663
212.607	19.181	906.773	692.832
213.621	19.471	906.078	693.403
214.636	19.335	905.232	692.149
215.650	19.329	904.726	691.676
216.665	19.290	904.276	691.114
217.680	19.352	903.575	690.766
218.694	19.509	903.632	691.380
219.709	19.536	903.103	691.021
220.723	19.611	901.878	690.320
221.738	19.421	901.654	689.329
222.753	19.406	900.538	688.356
223.767	19.379	900.041	687.806
224.782	19.403	899.231	687.223
225.796	19.565	898.775	687.460
226.811	19.750	898.155	687.661
227.826	19.626	897.059	686.266
228.840	19.496	896.605	685.344
229.855	19.366	895.454	683.887
230.869	19.383	895.032	683.573
231.884	19.401	894.360	683.068
232.899	19.253	893.947	682.108
233.913	19.188	893.095	681.140
234.928	19.249	891.994	680.482
235.942	19.088	891.589	679.476
236.957	19.169	890.335	678.780
237.972	19.149	890.110	678.470
238.986	19.136	889.767	678.097
240.001	18.988	889.198	677.023
241.015	19.097	888.643	676.968
242.030	19.105	887.756	676.261
243.045	19.323	886.849	676.369
244.059	19.348	886.572	676.196
245.074	19.318	886.046	675.617
246.088	19.603	885.244	676.060
247.103	19.593	885.224	675.945
248.117	19.707	884.349	675.664
249.132	19.743	883.833	675.351
250.147	19.950	883.683	675.985
251.161	20.268	883.076	676.700
252.176	20.314	882.390	676.295
253.190	20.409	881.459	675.891
254.205	20.407	881.050	675.510
255.220	20.581	880.632	675.807
256.234	20.445	879.990	674.723
257.249	20.383	879.098	673.743
258.263	20.296	878.911	673.202
259.278	20.377	878.346	673.022
260.293	20.327	877.530	672.145
261.307	20.476	877.012	672.263
262.322	20.328	876.813	671.481
263.336	20.522	876.011	671.555
264.351	20.595	875.407	671.314
265.366	20.488	874.911	670.462
266.380	20.521	873.917	669.769
267.395	20.510	873.343	669.228
268.409	20.373	872.692	668.142
269.424	20.352	871.862	667.366
270.439	20.291	871.282	666.628
271.453	20.349	870.393	666.111
272.468	20.363	869.380	665.334
273.482	20.221	868.783	664.272
274.497	20.190	868.377	663.784
275.512	20.189	867.484	663.040
276.526	20.289	867.050	663.031
277.541	20.101	866.808	662.069
278.555	20.257	865.740	661.791
279.570	20.352	865.508	661.918
280.585	20.603	865.425	662.752
281.599	20.729	864.369	662.365
282.614	20.366	864.075	660.700
283.628	20.228	863.442	659.630
284.643	20.212	862.922	659.115
285.657	20.367	861.902	658.864
286.672	20.287	861.822	658.442
287.687	20.462	860.760	658.235
288.701	20.472	860.649	658.130
289.716	20.488	860.022	657.652
290.730	20.489	859.486	657.190
291.745	20.534	858.809	656.785
292.760	20.503	858.282	656.207
293.774	20.451	857.860	655.629
294.789	20.698	857.595	656.300
295.803	20.796	856.568	655.824
296.818	20.472	855.985	654.101
297.833	20.339	855.164	652.917
298.847	20.580	854.124	652.967
299.862	20.524	853.631	652.324
300.876	20.441	853.373	651.757
301.891	20.514	853.201	651.841
302.906	20.728	851.979	651.654
303.920	20.744	851.641	651.395
304.935	20.953	851.142	651.737
305.949	21.110	850.499	651.775
306.964	20.938	849.889	650.607
307.979	20.852	849.451	649.893
308.993	20.770	848.354	648.690
310.008	20.846	848.198	648.799
311.022	20.972	847.988	649.049
312.037	21.039	846.878	648.390
313.052	20.905	846.591	647.616
314.066	20.636	845.941	646.063
315.081	20.408	844.997	644.438
316.095	20.473	844.688	644.388
317.110	20.412	844.349	643.847
318.125	20.462	843.563	643.373
319.139	20.507	842.763	642.875
320.154	20.451	842.692	642.556
321.168	20.547	841.920	642.264
322.183	20.557	841.271	641.751
323.197	20.620	840.994	641.714
324.212	20.555	840.567	641.092
325.227	20.596	840.175	640.886
326.241	20.739	839.483	640.830
327.256	20.628	838.495	639.610
328.270	20.802	837.677	639.569
329.285	20.519	837.733	638.514
330.300	20.514	836.935	637.833
331.314	20.619	836.509	637.835
332.329	20.694	835.875	637.570
333.343	20.796	835.222	637.389
334.358	21.012	834.816	637.814
335.373	20.680	834.771	636.508
336.387	20.946	833.778	636.665
337.402	21.153	833.324	637.019
338.416	20.952	833.271	636.190
339.431	21.136	832.652	636.330
340.446	21.264	832.578	636.686
341.460	21.513	831.276	636.538
342.475	21.297	831.147	635.600
343.489	21.260	830.845	635.175
344.504	21.590	829.983	635.658
345.519	21.542	829.545	635.093
346.533	21.704	828.981	635.191
347.548	21.582	828.776	634.538
348.562	21.355	827.563	632.732
349.577	21.254	826.939	631.831
350.592	21.101	826.405	630.818
351.606	20.922	826.077	629.864
352.621	21.020	825.095	629.411
353.635	21.041	824.984	629.346
354.650	21.082	824.368	628.969
355.665	21.132	824.241	628.997
356.679	21.212	823.666	628.791
357.694	21.306	823.101	628.641
358.708	21.264	822.614	628.063
359.723	21.193	822.174	627.415
360.738	21.285	821.651	627.293
361.752	21.292	821.385	627.060
362.767	21.242	820.864	626.425
363.781	21.493	820.628	627.092
364.796	21.668	820.229	627.357
365.810	21.678	819.932	627.109
366.825	21.823	819.935	627.576
367.840	21.923	819.593	627.617
368.854	21.870	818.814	626.777
369.869	21.619	818.196	625.351
370.883	21.618	817.464	624.730
371.898	21.777	816.993	624.883
372.913	21.755	816.367	624.271
373.927	21.778	815.993	624.011
374.942	21.914	814.917	623.616
375.956	21.582	814.323	621.928
376.971	21.759	813.975	622.236
377.986	21.898	813.405	622.238
379.000	22.202	812.846	622.834
380.015	22.171	812.429	622.347
381.029	22.167	811.677	621.703
382.044	21.974	811.308	620.684
383.059	21.952	811.349	620.580
384.073	21.975	810.494	619.955
385.088	22.149	809.477	619.734
386.102	21.863	808.868	618.207
387.117	21.572	808.521	616.861
388.132	21.777	807.570	616.802
389.146	21.658	807.117	615.981
390.161	21.552	807.488	615.840
391.175	21.712	807.031	615.998
392.190	21.840	806.860	616.264
393.205	21.867	806.132	615.749
394.219	21.602	806.166	614.789
395.234	21.728	804.817	614.146
396.248	21.610	804.291	613.279
397.263	21.613	803.889	612.926
398.278	21.312	803.468	611.497
399.292	21.473	802.764	611.472
400.307	21.407	802.550	611.022
401.321	21.622	802.057	611.346
402.336	21.527	801.472	610.513
403.350	21.583	801.175	610.428
404.365	21.819	800.571	610.737
405.380	21.945	800.452	611.030
406.394	22.171	799.793	611.259
407.409	22.043	799.904	610.845
408.423	22.152	799.433	610.810
409.438	22.366	798.802	611.018
410.453	22.472	798.157	610.839
411.467	22.413	797.837	610.333
412.482	22.462	797.411	610.124
413.496	22.612	797.167	610.403
414.511	22.500	797.235	610.012
415.526	22.506	796.580	609.479
416.540	22.464	796.187	608.980
417.555	22.316	795.176	607.642
418.569	22.456	794.933	607.885
419.584	22.412	794.419	607.284
420.599	22.467	794.135	607.203
421.613	162.744	1368.398	1795.631
422.628	141.191	1452.092	1795.741
