DTS Sentinel unit serial number:	SN413079Multiplexer serial number:	ORYXHardware model number:	OX4-SRSoftware version number:	ORYX F/W v4.00 Oryx Data Collector v3.7.2.0data status	okinstallation	princeton_trtdifferential loss correction	single-endedforward channel	channel 3reverse channel	N/Adate	2019/09/18time	19:52:35forward acquisition time	60.00reverse acquisition time	0.00gamma	496.2192k internal	0.2327k external	0.2327temperature offset calibration	1.0005default loss term (dB/km)	0.3790temperature slope calibration	1.0000multiplexer offset coefficient	1.0000multiplexer slope coefficient	1.0000fibre end	0.00T internal ref (°C)	30.97T ext. ref 1 (°C)	1.04T ext. ref 2 (°C)	21.87length (m)	temperature (°C)	Stokes	anti-Stokes-747.200	-200.000	-0.000	-0.179
-746.185	800.000	-0.030	-0.089
-745.171	-69.727	0.032	-0.012
-744.156	488.622	0.024	-0.055
-743.142	223.225	0.137	0.222
-742.127	800.000	-0.065	0.245
-741.112	-129.190	0.221	0.031
-740.098	-132.308	-0.362	-0.047
-739.083	-101.858	0.214	0.052
-738.069	-35.336	-0.069	-0.038
-737.054	-134.650	-0.075	-0.009
-736.039	-80.901	-0.329	0.110
-735.025	-0.517	0.263	0.188
-734.010	67.489	0.268	-0.276
-732.996	363.031	0.032	0.065
-731.981	800.000	-0.040	-0.125
-730.966	-117.976	-0.164	0.030
-729.952	-4.231	-0.121	0.085
-728.937	-47.623	0.128	0.063
-727.923	34.581	-0.162	-0.142
-726.908	28.466	-0.186	-0.159
-725.894	-77.188	-0.281	-0.099
-724.879	-154.941	-0.210	-0.014
-723.864	-78.080	-0.118	0.041
-722.850	-200.000	-0.004	-0.266
-721.835	-30.228	-0.128	0.073
-720.821	353.974	-0.169	-0.337
-719.806	-187.643	-0.120	-0.002
-718.791	134.526	-0.220	-0.287
-717.777	76.746	0.255	-0.273
-716.762	-29.095	-0.072	-0.042
-715.748	-147.146	-0.430	0.037
-714.733	-96.676	-0.049	-0.013
-713.718	-12.957	0.086	-0.056
-712.704	-89.387	0.107	0.032
-711.689	-200.000	0.048	0.257
-710.675	-24.099	-0.193	-0.116
-709.660	-200.000	-0.091	0.443
-708.645	-114.229	-0.168	-0.033
-707.631	-200.000	-0.008	-0.043
-706.616	502.472	-0.110	-0.255
-705.602	194.961	-0.119	0.181
-704.587	15.257	-0.125	-0.098
-703.572	-42.971	-0.165	-0.084
-702.558	-135.487	-0.166	-0.020
-701.543	-200.000	0.034	-0.164
-700.529	-156.944	-0.168	0.010
-699.514	-20.200	-0.083	-0.052
-698.499	-40.543	-0.093	-0.048
-697.485	642.506	-0.046	-0.118
-696.470	-200.000	-0.013	0.211
-695.456	-200.000	-0.000	0.217
-694.441	58.462	-0.190	-0.187
-693.426	-101.278	-0.411	-0.101
-692.412	-108.059	-0.255	0.056
-691.397	66.659	0.262	0.268
-690.383	-33.793	-0.113	0.062
-689.368	-76.301	-0.105	-0.037
-688.354	282.623	0.165	0.298
-687.339	580.672	0.207	0.510
-686.324	-200.000	-0.010	0.114
-685.310	-81.267	0.116	-0.039
-684.295	43.919	-0.265	0.244
-683.281	-88.518	-0.197	-0.059
-682.266	-142.546	0.416	0.041
-681.251	211.934	-0.117	0.185
-680.237	-82.093	-0.184	-0.061
-679.222	-26.275	-0.162	-0.096
-678.208	-22.458	-0.171	0.104
-677.193	173.192	-0.072	-0.104
-676.178	-200.000	-0.011	0.176
-675.164	112.051	-0.223	0.271
-674.149	-170.667	-0.149	-0.005
-673.135	-74.792	-0.152	0.055
-672.120	546.841	0.038	0.091
-671.105	-200.000	-0.043	0.295
-670.091	32.378	0.306	0.265
-669.076	43.357	-0.138	-0.126
-668.062	217.204	-0.099	0.159
-667.047	-77.055	0.114	0.040
-666.032	800.000	-0.046	-0.129
-665.018	523.774	0.055	0.129
-664.003	-108.693	0.391	-0.084
-662.989	211.362	0.109	-0.173
-661.974	-70.154	0.132	-0.050
-660.959	5.501	0.384	0.285
-659.945	-122.855	-0.246	-0.040
-658.930	-200.000	-0.024	-0.167
-657.916	-179.792	-0.014	-0.000
-656.901	14.481	-0.303	0.238
-655.886	-73.926	0.059	-0.021
-654.872	6.622	0.243	0.182
-653.857	773.210	0.019	-0.052
-652.843	-200.000	0.006	-0.103
-651.828	28.736	-0.094	-0.080
-650.814	-92.886	0.111	0.031
-649.799	800.000	-0.115	-0.450
-648.784	203.061	-0.301	0.467
-647.770	800.000	0.072	-0.220
-646.755	30.467	-0.104	-0.090
-645.741	246.913	0.077	-0.130
-644.726	-112.899	0.326	-0.065
-643.711	-32.161	0.073	0.041
-642.697	-178.522	-0.273	-0.006
-641.682	208.570	-0.140	0.220
-640.668	231.505	0.007	0.012
-639.653	368.919	-0.121	0.247
-638.638	-200.000	-0.030	-0.241
-637.624	365.340	0.121	0.245
-636.609	451.756	-0.054	-0.120
-635.595	-146.869	0.250	-0.022
-634.580	-200.000	0.002	0.252
-633.565	-187.005	-0.150	0.002
-632.551	-95.996	-0.377	-0.101
-631.536	-200.000	-0.010	-0.267
-630.522	800.000	0.080	-0.249
-629.507	-200.000	0.037	0.174
-628.492	-126.995	-0.106	0.016
-627.478	-14.681	-0.180	0.116
-626.463	-28.675	-0.391	0.226
-625.449	-133.305	-0.268	-0.034
-624.434	-200.000	-0.017	-0.177
-623.419	-200.000	0.096	-0.459
-622.405	-67.723	0.550	0.216
-621.390	-200.000	-0.007	0.244
-620.376	143.864	0.036	-0.048
-619.361	-63.339	-0.239	0.099
-618.346	-200.000	-0.058	-0.317
-617.332	-18.213	-0.100	-0.063
-616.317	-187.609	0.058	0.001
-615.303	68.381	-0.057	0.059
-614.288	-200.000	0.207	-0.001
-613.273	-70.356	0.297	0.113
-612.259	-83.845	-0.244	-0.078
-611.244	-21.921	-0.194	-0.118
-610.230	-45.827	-0.463	0.229
-609.215	139.822	-0.195	-0.257
-608.201	759.305	0.053	0.143
-607.186	-40.810	-0.077	0.040
-606.171	-200.000	-0.011	-0.074
-605.157	21.264	0.471	0.384
-604.142	-200.000	0.059	-0.280
-603.128	-116.490	-0.101	-0.019
-602.113	-59.080	0.199	0.086
-601.098	205.509	0.181	0.282
-600.084	-200.000	0.040	-0.179
-599.069	360.519	0.066	-0.132
-598.055	-69.899	0.263	0.101
-597.040	-70.473	-0.168	0.064
-596.025	330.053	-0.069	0.132
-595.011	499.507	0.144	-0.333
-593.996	68.243	-0.116	0.119
-592.982	800.000	0.093	-0.333
-591.967	265.062	0.164	-0.287
-590.952	-200.000	0.001	-0.349
-589.938	340.029	-0.203	0.396
-588.923	4.667	-0.252	0.186
-587.909	-200.000	-0.008	-0.061
-586.894	-148.984	0.107	-0.009
-585.879	-94.127	0.062	0.017
-584.865	-66.847	-0.304	-0.121
-583.850	-38.422	-0.096	0.051
-582.836	26.380	-0.215	0.180
-581.821	-119.345	-0.107	0.019
-580.806	-176.536	0.391	-0.010
-579.792	-200.000	0.011	0.154
-578.777	800.000	-0.075	0.257
-577.763	800.000	-0.013	-0.054
-576.748	76.970	-0.128	0.136
-575.733	52.153	0.196	-0.187
-574.719	29.025	-0.209	-0.178
-573.704	-114.389	0.137	-0.026
-572.690	-200.000	-0.120	-0.000
-571.675	-176.676	0.540	0.014
-570.661	2.603	-0.289	0.210
-569.646	147.102	-0.155	-0.209
-568.631	238.924	-0.103	0.171
-567.617	62.992	0.308	-0.309
-566.602	-9.025	0.276	0.185
-565.588	-200.000	-0.014	0.104
-564.573	12.646	0.100	-0.077
-563.558	191.903	-0.221	-0.333
-562.544	-153.558	-0.092	0.006
-561.529	-112.851	0.285	-0.057
-560.515	-108.512	-0.048	-0.010
-559.500	-72.046	-0.317	0.118
-558.485	162.578	-0.055	-0.078
-557.471	-39.927	-0.096	0.050
-556.456	92.207	-0.067	0.076
-555.442	156.087	-0.161	0.223
-554.427	49.965	-0.077	-0.073
-553.412	37.466	-0.112	-0.099
-552.398	-41.176	0.178	-0.092
-551.383	173.305	0.055	-0.079
-550.369	-33.219	0.052	-0.029
-549.354	369.080	0.125	-0.252
-548.339	-200.000	0.011	0.269
-547.325	-133.530	0.053	0.007
-546.310	83.103	0.151	0.164
-545.296	-36.182	-0.221	0.119
-544.281	78.579	-0.160	-0.171
-543.266	260.125	0.043	-0.074
-542.252	4.715	-0.158	0.116
-541.237	-200.000	0.034	0.347
-540.223	243.405	0.032	-0.054
-539.208	-128.578	-0.320	0.045
-538.193	-133.014	-0.364	0.046
-537.179	800.000	0.136	-0.392
-536.164	-91.852	0.468	-0.133
-535.150	-162.702	-0.060	-0.003
-534.135	-129.675	-0.018	0.003
-533.121	26.451	-0.151	-0.126
-532.106	-200.000	0.044	-0.566
-531.091	-200.000	0.045	0.241
-530.077	768.369	0.091	0.248
-529.062	-117.076	-0.106	-0.019
-528.048	-200.000	-0.031	0.276
-527.033	119.840	0.154	0.191
-526.018	-38.245	-0.172	-0.091
-525.004	31.832	-0.071	0.061
-523.989	-94.827	0.145	0.039
-522.975	-101.040	-0.100	-0.025
-521.960	83.245	0.079	0.086
-520.945	-91.590	0.273	0.078
-519.931	-200.000	0.064	0.364
-518.916	800.000	-0.050	-0.209
-517.902	800.000	-0.040	-0.130
-516.887	800.000	-0.025	0.076
-515.872	-25.378	-0.070	-0.041
-514.858	9.658	-0.069	0.052
-513.843	-200.000	0.002	-0.127
-512.829	-95.983	-0.286	0.076
-511.814	800.000	0.146	-0.560
-510.799	191.253	-0.181	-0.271
-509.785	-25.768	-0.132	-0.078
-508.770	255.812	-0.033	-0.057
-507.756	-35.304	-0.432	0.235
-506.741	96.511	-0.166	0.190
-505.726	-200.000	-0.057	0.252
-504.712	36.870	-0.254	0.224
-503.697	800.000	0.063	0.231
-502.683	-70.045	-0.175	0.067
-501.668	234.139	-0.155	-0.255
-500.653	8.557	0.239	0.179
-499.639	515.752	0.182	0.425
-498.624	-200.000	-0.017	0.141
-497.610	-13.899	0.136	0.088
-496.595	54.807	0.251	-0.242
-495.581	-21.840	-0.518	-0.315
-494.566	-19.993	0.188	-0.116
-493.551	83.304	-0.097	-0.105
-492.537	301.712	-0.077	-0.142
-491.522	-200.000	-0.018	0.195
-490.508	800.000	-0.087	0.313
-489.493	-127.387	0.043	0.006
-488.478	22.100	-0.096	-0.078
-487.464	-65.555	-0.180	-0.072
-486.449	-174.798	-0.091	0.003
-485.435	-117.266	0.038	-0.007
-484.420	-8.982	0.213	-0.142
-483.405	800.000	0.075	-0.326
-482.391	800.000	0.061	-0.214
-481.376	-112.299	-0.061	-0.012
-480.362	190.573	-0.188	0.282
-479.347	-200.000	0.048	0.296
-478.332	-200.000	-0.017	-0.082
-477.318	-80.150	-0.207	0.069
-476.303	135.441	-0.006	-0.008
-475.289	-182.520	-0.138	-0.003
-474.274	61.285	0.057	0.057
-473.259	-129.333	-0.175	0.024
-472.245	-38.527	-0.334	-0.176
-471.230	-50.558	0.237	0.112
-470.216	24.981	0.174	-0.144
-469.201	-137.957	0.207	-0.023
-468.186	419.477	0.047	0.101
-467.172	-11.318	-0.071	-0.047
-466.157	53.820	0.148	-0.141
-465.143	41.383	0.076	0.068
-464.128	674.246	-0.073	0.190
-463.113	250.967	-0.102	-0.174
-462.099	-94.417	-0.218	-0.059
-461.084	55.652	0.265	-0.256
-460.070	144.362	0.130	-0.174
-459.055	211.993	-0.150	0.236
-458.040	113.941	-0.269	0.326
-457.026	-9.196	-0.322	0.214
-456.011	2.173	-0.251	-0.181
-454.997	-200.000	-0.010	-0.287
-453.982	352.648	-0.029	0.058
-452.968	546.516	-0.136	-0.325
-451.953	800.000	-0.014	0.057
-450.938	18.034	-0.085	0.068
-449.924	183.216	0.025	0.036
-448.909	-124.389	-0.170	0.026
-447.895	-23.618	0.340	0.203
-446.880	160.528	0.111	-0.154
-445.865	135.430	0.063	0.082
-444.851	-70.659	-0.241	0.091
-443.836	-140.370	-0.384	0.040
-442.822	800.000	0.062	-0.182
-441.807	-200.000	-0.004	0.062
-440.792	147.811	-0.108	0.145
-439.778	-200.000	0.011	0.159
-438.763	345.239	-0.124	0.243
-437.749	212.175	-0.039	0.062
-436.734	-89.839	0.058	0.017
-435.719	539.386	0.062	0.146
-434.705	23.885	0.116	-0.095
-433.690	-200.000	0.020	0.155
-432.676	76.486	0.126	-0.133
-431.661	253.427	-0.076	0.129
-430.646	800.000	-0.014	0.048
-429.632	800.000	-0.072	0.203
-428.617	-0.210	0.134	0.095
-427.603	583.981	0.104	-0.254
-426.588	165.664	0.068	-0.096
-425.573	-200.000	0.008	0.140
-424.559	-14.337	0.300	-0.192
-423.544	510.683	0.127	-0.295
-422.530	-24.212	-0.075	-0.045
-421.515	-161.211	-0.244	0.013
-420.500	-50.944	-0.240	-0.112
-419.486	123.658	0.117	0.146
-418.471	110.752	-0.097	-0.116
-417.457	-200.000	-0.015	-0.290
-416.442	3.872	-0.302	-0.220
-415.428	-146.893	-0.113	0.010
-414.413	71.185	-0.221	0.228
-413.398	461.223	0.162	0.360
-412.384	6.294	-0.280	0.207
-411.369	240.136	0.121	0.200
-410.355	800.000	0.042	0.137
-409.340	800.000	0.061	0.234
-408.325	-15.040	-0.191	0.122
-407.311	-48.321	0.241	0.116
-406.296	-127.728	0.196	0.028
-405.282	-76.599	-0.309	-0.108
-404.267	429.330	0.149	-0.320
-403.252	-46.567	0.165	-0.080
-402.238	13.304	0.122	0.094
-401.223	-200.000	0.008	0.238
-400.209	-149.256	0.164	0.013
-399.194	124.020	0.201	-0.251
-398.179	-200.000	0.041	-0.367
-397.165	436.939	-0.215	-0.466
-396.150	-200.000	-0.045	-0.280
-395.136	-81.050	-0.037	-0.012
-394.121	-55.865	-0.149	-0.066
-393.106	-200.000	-0.034	0.175
-392.092	800.000	-0.046	-0.169
-391.077	-200.000	0.030	-0.157
-390.063	-23.943	-0.285	-0.170
-389.048	-80.670	0.179	-0.059
-388.033	-200.000	-0.010	-0.127
-387.019	-175.857	-0.130	0.003
-386.004	147.064	-0.138	-0.185
-384.990	795.529	0.116	0.317
-383.975	318.706	-0.222	0.418
-382.960	109.373	-0.261	-0.311
-381.946	-100.048	-0.186	-0.046
-380.931	29.462	0.168	0.142
-379.917	332.975	0.259	0.498
-378.902	-92.013	0.129	0.036
-377.888	298.952	-0.091	0.166
-376.873	-99.007	0.303	-0.076
-375.858	-181.994	0.189	0.004
-374.844	-96.787	0.147	0.038
-373.829	-71.448	-0.244	-0.091
-372.815	-67.711	-0.118	0.046
-371.800	108.383	0.166	0.197
-370.785	-200.000	0.057	-0.538
-369.771	104.987	-0.278	-0.326
-368.756	-200.000	-0.006	-0.349
-367.742	-200.000	0.038	-0.298
-366.727	176.767	-0.216	0.312
-365.712	-200.000	-0.020	-0.164
-364.698	-29.567	0.048	-0.027
-363.683	-29.439	0.152	0.087
-362.669	-49.985	-0.305	0.143
-361.654	-144.464	0.180	-0.017
-360.639	-38.338	0.318	-0.167
-359.625	94.178	-0.032	-0.037
-358.610	-29.676	-0.326	-0.185
-357.596	-70.972	-0.332	-0.124
-356.581	800.000	0.005	-0.014
-355.566	-60.495	0.195	0.082
-354.552	-200.000	-0.034	-0.271
-353.537	50.391	0.118	0.111
-352.523	22.175	0.044	-0.035
-351.508	-200.000	0.009	0.114
-350.493	93.211	-0.178	-0.200
-349.479	-200.000	-0.046	-0.246
-348.464	313.429	0.135	-0.252
-347.450	-8.214	0.524	-0.350
-346.435	217.101	-0.181	-0.286
-345.420	117.733	-0.087	0.107
-344.406	221.425	0.169	0.269
-343.391	-63.246	-0.108	0.044
-342.377	438.663	0.028	0.060
-341.362	-200.000	-0.214	-0.000
-340.348	-10.829	0.173	-0.113
-339.333	62.261	-0.203	-0.201
-338.318	-200.000	-0.079	0.381
-337.304	103.929	-0.168	0.196
-336.289	-178.602	-0.086	0.002
-335.275	6.930	0.247	-0.183
-334.260	351.725	-0.089	-0.176
-333.245	-118.910	0.243	0.042
-332.231	84.494	-0.142	0.154
-331.216	-200.000	-0.023	0.290
-330.202	426.423	-0.098	-0.210
-329.187	149.433	0.107	0.143
-328.172	-188.538	0.238	-0.003
-327.158	-129.681	-0.634	-0.087
-326.143	-6.190	0.178	0.120
-325.129	-194.373	-0.316	-0.003
-324.114	-168.184	0.296	-0.011
-323.099	110.241	-0.319	-0.380
-322.085	384.836	0.096	-0.197
-321.070	-74.515	-0.080	-0.029
-320.056	329.244	-0.051	-0.097
-319.041	142.528	0.223	-0.293
-318.026	800.000	0.025	-0.105
-317.012	74.688	0.193	-0.201
-315.997	800.000	-0.064	-0.179
-314.983	800.000	0.074	0.263
-313.968	800.000	0.079	0.248
-312.953	21.511	0.392	0.316
-311.939	756.642	-0.058	-0.155
-310.924	-123.520	-0.251	-0.040
-309.910	575.214	0.086	0.207
-308.895	-109.085	0.340	0.072
-307.880	800.000	0.009	0.028
-306.866	-58.795	0.075	0.032
-305.851	-132.629	-0.157	-0.020
-304.837	-200.000	-0.047	0.292
-303.822	380.467	-0.079	0.161
-302.807	-77.259	0.212	0.073
-301.793	447.966	0.164	0.358
-300.778	-200.000	-0.006	-0.092
-299.764	-90.826	0.305	0.087
-298.749	-200.000	0.023	0.223
-297.735	278.134	0.113	-0.200
-296.720	-26.364	-0.193	-0.112
-295.705	91.357	-0.147	-0.163
-294.691	-200.000	0.020	-0.135
-293.676	55.247	0.146	0.139
-292.662	-43.956	-0.456	-0.227
-291.647	-195.272	-0.224	0.002
-290.632	270.197	0.199	-0.347
-289.618	145.430	0.069	-0.092
-288.603	-21.415	-0.084	-0.051
-287.589	173.043	0.233	-0.333
-286.574	-37.736	0.235	0.124
-285.559	-137.895	-0.248	-0.027
-284.545	-134.738	0.138	-0.017
-283.530	-200.000	-0.026	0.336
-282.516	479.063	0.047	-0.104
-281.501	-12.377	0.167	0.108
-280.486	-61.980	0.147	-0.061
-279.472	-116.980	0.266	0.048
-278.457	-58.843	0.419	-0.180
-277.443	221.480	-0.034	-0.054
-276.428	201.373	0.159	0.243
-275.413	-65.299	0.040	0.016
-274.399	8.979	0.426	0.318
-273.384	414.146	-0.091	-0.193
-272.370	-71.019	-0.102	-0.038
-271.355	-21.142	-0.325	0.197
-270.340	-200.000	-0.016	-0.355
-269.326	-57.604	-0.363	-0.157
-268.311	-200.000	-0.013	-0.086
-267.297	6.941	0.240	0.177
-266.282	-141.046	-0.319	0.032
-265.267	-200.000	-0.005	0.033
-264.253	529.056	0.107	0.251
-263.238	-108.103	-0.317	-0.068
-262.224	17.063	0.294	0.231
-261.209	-23.557	-0.123	0.073
-260.195	475.783	-0.054	-0.121
-259.180	-115.273	0.145	0.027
-258.165	-119.396	-0.248	0.043
-257.151	-36.648	-0.201	0.107
-256.136	-35.168	-0.172	0.093
-255.122	8.896	0.237	0.177
-254.107	-105.912	0.097	-0.022
-253.092	20.352	-0.160	-0.128
-252.078	7.459	0.096	0.071
-251.063	279.709	-0.044	-0.077
-250.049	800.000	-0.104	-0.305
-249.034	-2.025	0.132	-0.091
-248.019	40.437	0.085	-0.076
-247.005	-200.000	0.017	0.123
-245.990	800.000	0.028	0.087
-244.976	-44.626	0.161	0.080
-243.961	-200.000	-0.033	-0.166
-242.946	-162.146	-0.119	-0.006
-241.932	41.342	-0.153	-0.137
-240.917	-200.000	0.053	-0.335
-239.903	-200.000	-0.019	0.484
-238.888	-84.790	-0.169	0.052
-237.873	611.844	0.030	-0.074
-236.859	800.000	0.090	0.321
-235.844	-49.214	0.248	-0.117
-234.830	-79.631	0.120	0.040
-233.815	123.840	-0.127	-0.157
-232.800	-73.173	0.194	-0.070
-231.786	-200.000	0.039	0.190
-230.771	88.847	-0.040	0.044
-229.757	34.247	0.205	0.176
-228.742	-200.000	-0.039	0.271
-227.727	-29.822	0.328	-0.185
-226.713	-137.766	0.196	-0.022
-225.698	460.413	0.147	-0.324
-224.684	800.000	0.142	0.480
-223.669	41.709	0.124	-0.111
-222.655	-28.740	0.279	-0.158
-221.640	339.147	0.118	0.226
-220.625	800.000	-0.059	-0.204
-219.611	-63.440	0.229	0.093
-218.596	-68.626	-0.216	-0.083
-217.582	-7.802	0.219	0.146
-216.567	50.066	0.079	0.074
-215.552	768.813	-0.079	0.213
-214.538	-21.810	-0.157	-0.095
-213.523	-50.310	0.279	0.130
-212.509	55.495	0.114	-0.109
-211.494	-2.438	-0.117	0.081
-210.479	-34.994	0.098	0.053
-209.465	800.000	0.071	0.202
-208.450	-114.773	0.151	0.029
-207.436	145.672	0.201	-0.266
-206.421	-86.415	0.040	-0.012
-205.406	109.412	0.251	0.297
-204.392	-147.979	0.380	0.031
-203.377	139.957	0.134	0.175
-202.363	7.766	-0.268	-0.198
-201.348	-200.000	0.024	-0.167
-200.333	-49.338	-0.164	-0.077
-199.319	-185.154	-0.077	0.001
-198.304	23.862	0.257	0.209
-197.290	514.743	0.146	0.336
-196.275	30.791	0.167	-0.141
-195.260	-200.000	0.004	-0.021
-194.246	257.851	0.106	0.180
-193.231	-22.225	0.253	0.152
-192.217	-63.328	-0.058	0.024
-191.202	161.722	0.104	0.144
-190.187	80.913	0.157	-0.167
-189.173	-96.338	-0.222	-0.058
-188.158	-156.183	-0.300	-0.019
-187.144	-68.563	-0.178	-0.068
-186.129	2.297	-0.137	-0.098
-185.114	-200.000	-0.019	0.184
-184.100	217.777	0.104	-0.163
-183.085	-66.600	0.246	0.096
-182.071	800.000	-0.135	0.541
-181.056	91.596	0.152	0.168
-180.042	-91.423	0.176	-0.050
-179.027	-65.510	-0.031	-0.012
-178.012	-54.207	0.244	0.109
-176.998	800.000	-0.076	0.284
-175.983	-58.247	-0.304	0.131
-174.969	800.000	0.054	-0.151
-173.954	424.916	-0.062	-0.131
-172.939	-200.000	-0.007	0.073
-171.925	-117.571	0.295	0.053
-170.910	129.784	-0.043	-0.054
-169.896	-148.919	0.187	0.015
-168.881	-93.361	-0.325	-0.089
-167.866	78.681	0.202	0.213
-166.852	59.643	0.058	-0.057
-165.837	-127.816	-0.243	0.035
-164.823	-5.135	0.304	0.206
-163.808	-31.697	0.066	-0.036
-162.793	-28.163	0.214	-0.122
-161.779	-22.841	-0.058	0.034
-160.764	-200.000	-0.041	-0.182
-159.750	605.322	0.085	0.209
-158.735	-84.598	0.152	-0.047
-157.720	106.300	0.179	-0.209
-156.706	-55.892	0.033	-0.015
-155.691	-61.954	-0.075	-0.031
-154.677	410.569	-0.078	0.162
-153.662	800.000	-0.138	-0.381
-152.647	-200.000	0.045	0.229
-151.633	-27.574	-0.097	-0.055
-150.618	63.421	0.035	-0.035
-149.604	255.441	-0.149	0.251
-148.589	800.000	0.028	-0.122
-147.574	67.878	-0.180	0.181
-146.560	-108.087	0.255	-0.054
-145.545	-136.985	-0.248	-0.028
-144.531	-55.322	0.350	0.155
-143.516	-164.659	-0.132	-0.006
-142.502	800.000	0.048	0.148
-141.487	-188.046	-0.044	-0.001
-140.472	-27.059	0.110	0.063
-139.458	26.551	0.295	-0.243
-138.443	297.273	-0.053	-0.097
-137.429	-63.020	0.391	-0.159
-136.414	312.410	-0.057	0.106
-135.399	-27.859	-0.102	-0.058
-134.385	-119.473	-0.249	0.043
-133.370	-88.927	0.205	-0.060
-132.356	-65.057	0.153	-0.061
-131.341	-200.000	0.029	0.132
-130.326	-119.609	-0.080	0.014
-129.312	317.868	0.141	-0.262
-128.297	561.231	-0.053	-0.125
-127.283	-63.367	0.089	0.036
-126.268	303.401	0.211	0.384
-125.253	1.685	-0.057	0.041
-124.239	-157.981	0.378	-0.022
-123.224	-200.000	0.007	-0.106
-122.210	714.856	0.055	-0.143
-121.195	-125.105	-0.055	-0.008
-120.180	-49.960	-0.078	-0.036
-119.166	-200.000	-0.361	0.000
-118.151	-200.000	0.002	-0.008
-117.137	-200.000	0.044	-0.201
-116.122	-85.366	-0.157	0.048
-115.107	-146.922	-0.368	-0.031
-114.093	249.738	-0.111	-0.185
-113.078	153.292	0.082	0.111
-112.064	111.554	0.150	-0.178
-111.049	456.438	-0.087	0.190
-110.034	800.000	0.137	0.467
-109.020	-200.000	-0.044	0.271
-108.005	29.665	-0.057	-0.047
-106.991	-110.706	0.175	-0.036
-105.976	800.000	0.063	0.267
-104.962	-59.169	0.099	0.042
-103.947	-106.208	-0.030	-0.007
-102.932	143.248	0.110	0.144
-101.918	20.482	-0.234	0.186
-100.903	-49.253	-0.034	0.016
-99.889	24.496	-0.216	-0.176
-98.874	-8.035	0.145	0.096
-97.859	-75.663	-0.206	0.072
-96.845	2.735	-0.106	0.075
-95.830	-46.503	0.276	-0.133
-94.816	800.000	0.021	-0.064
-93.801	800.000	-0.060	-0.183
-92.786	175.561	0.080	0.115
-91.772	27.280	0.270	-0.223
-90.757	-69.835	-0.185	-0.069
-89.743	-200.000	0.094	-0.410
-88.728	-20.759	0.234	0.141
-87.713	-200.000	-0.015	0.145
-86.699	155.722	-0.150	0.203
-85.684	50.266	0.198	-0.184
-84.670	-200.000	0.009	-0.236
-83.655	-100.765	0.199	0.048
-82.640	43.727	0.157	-0.141
-81.626	-112.521	0.171	0.034
-80.611	-141.575	-0.190	-0.019
-79.597	10.912	0.157	0.118
-78.582	798.591	0.113	-0.306
-77.567	184.024	-0.171	-0.248
-76.553	-104.253	-0.092	0.021
-75.538	-112.510	-0.486	0.095
-74.524	268.810	0.153	-0.263
-73.509	-87.326	0.088	-0.026
-72.494	-200.000	0.018	0.212
-71.480	-135.739	-0.233	-0.027
-70.465	-200.000	-0.007	-0.129
-69.451	-77.014	-0.131	-0.045
-68.436	251.341	0.024	0.041
-67.422	-76.079	-0.307	-0.106
-66.407	-23.200	0.073	0.043
-65.392	-113.512	-0.137	0.026
-64.378	316.588	0.006	0.011
-63.363	-200.000	0.040	0.340
-62.349	800.000	0.028	-0.110
-61.334	102.554	-0.839	-0.963
-60.319	75.273	0.604	0.625
-59.305	-200.000	-0.100	-1.454
-58.290	800.000	0.426	1.270
-57.276	732.824	0.678	1.779
-56.261	-200.000	107.855	625.857
-55.246	470.811	1482.664	3272.371
-54.232	147.296	2663.255	3518.236
-53.217	109.140	2176.323	2555.407
-52.203	41.543	1710.623	1519.790
-51.188	34.267	1524.898	1305.102
-50.173	31.773	1498.470	1265.617
-49.159	54.162	1553.003	1466.060
-48.144	54.843	1569.556	1486.298
-47.130	34.266	1526.964	1306.655
-46.115	31.229	1511.771	1272.940
-45.100	31.020	1508.115	1268.389
-44.086	31.008	1505.935	1266.422
-43.071	30.935	1504.095	1264.331
-42.057	30.904	1502.579	1262.796
-41.042	30.915	1500.895	1261.405
-40.027	30.863	1499.692	1259.989
-39.013	30.914	1497.784	1258.681
-37.998	30.843	1496.929	1257.434
-36.984	30.849	1496.429	1257.004
-35.969	30.813	1494.399	1255.010
-34.954	30.946	1492.728	1254.447
-33.940	31.069	1491.204	1253.944
-32.925	30.889	1490.504	1252.095
-31.911	30.942	1488.975	1251.121
-30.896	31.020	1487.158	1250.066
-29.881	31.039	1486.465	1249.559
-28.867	30.998	1485.297	1248.257
-27.852	30.975	1483.875	1246.859
-26.838	31.066	1482.334	1246.120
-25.823	31.041	1480.612	1244.457
-24.809	30.989	1479.689	1243.282
-23.794	31.021	1477.929	1241.972
-22.779	30.932	1476.702	1240.297
-21.765	31.039	1475.616	1240.046
-20.750	31.021	1474.696	1239.105
-19.736	31.068	1473.424	1238.296
-18.721	31.037	1472.312	1237.109
-17.706	30.995	1471.478	1236.083
-16.692	30.983	1470.472	1235.107
-15.677	31.005	1469.018	1233.981
-14.663	31.072	1467.831	1233.382
-13.648	30.982	1467.749	1232.665
-12.633	31.013	1466.614	1231.870
-11.619	30.900	1466.173	1230.703
-10.604	30.915	1464.990	1229.764
-9.590	30.875	1464.274	1228.850
-8.575	30.950	1463.247	1228.432
-7.560	31.071	1462.052	1228.176
-6.546	30.945	1461.541	1226.868
-5.531	30.961	1460.287	1225.870
-4.517	30.966	1459.280	1225.010
-3.502	30.971	1458.061	1223.970
-2.487	30.958	1457.438	1223.313
-1.473	30.922	1456.398	1222.159
-0.458	30.932	1454.996	1221.001
0.556	29.885	1443.952	1206.118
1.571	25.431	1417.194	1155.102
2.586	20.427	1352.639	1071.596
3.600	17.963	1268.586	990.643
4.615	16.465	1223.847	947.234
5.629	14.448	1168.824	893.766
6.644	7.911	1086.722	798.228
7.659	2.006	1047.712	740.896
8.673	1.162	1041.632	732.455
9.688	0.927	1038.911	729.345
10.702	1.071	1037.097	728.700
11.717	0.999	1035.426	727.114
12.731	3.169	1037.360	738.834
13.746	9.992	1046.359	778.132
14.761	16.118	1053.736	813.178
15.775	17.578	1055.534	821.539
16.790	17.311	1053.559	818.646
17.804	16.439	1051.176	812.531
18.819	15.519	1049.442	806.702
19.834	15.040	1048.322	803.472
20.848	14.719	1047.370	801.128
21.863	14.371	1046.730	798.899
22.877	14.173	1045.566	796.992
23.892	14.058	1044.593	795.632
24.907	13.934	1044.184	794.655
25.921	14.042	1042.851	794.088
26.936	13.974	1042.799	793.651
27.950	14.041	1041.790	793.134
28.965	14.109	1041.291	793.007
29.980	13.957	1040.834	791.866
30.994	14.192	1039.401	791.821
32.009	14.150	1038.526	790.887
33.023	14.130	1038.151	790.436
34.038	14.173	1037.186	789.837
35.053	14.091	1036.479	788.838
36.067	14.090	1035.881	788.308
37.082	14.195	1034.374	787.591
38.096	14.046	1034.243	786.714
39.111	14.200	1033.124	786.522
40.126	14.238	1031.968	785.752
41.140	14.262	1030.785	784.895
42.155	13.997	1030.342	783.238
43.169	13.964	1029.020	782.011
44.184	13.942	1028.189	781.205
45.199	13.964	1027.129	780.431
46.213	13.887	1026.431	779.474
47.228	13.971	1025.207	778.868
48.242	14.021	1024.363	778.390
49.257	14.125	1022.797	777.621
50.271	14.101	1022.108	776.914
51.286	14.017	1021.189	775.756
52.301	14.051	1020.624	775.418
53.315	14.108	1019.854	775.029
54.330	14.061	1019.212	774.253
55.344	14.012	1018.357	773.307
56.359	14.029	1017.184	772.427
57.374	14.172	1016.540	772.532
58.388	14.144	1015.392	771.463
59.403	14.046	1014.821	770.509
60.417	13.933	1014.622	769.762
61.432	14.085	1013.581	769.612
62.447	14.014	1012.990	768.764
63.461	13.930	1012.124	767.651
64.476	13.965	1010.899	766.813
65.490	13.849	1010.111	765.615
66.505	13.883	1009.542	765.273
67.520	13.918	1008.721	764.743
68.534	13.987	1007.700	764.219
69.549	14.072	1006.892	763.930
70.563	13.880	1006.559	762.728
71.578	13.933	1006.007	762.483
72.593	13.931	1005.057	761.689
73.607	13.869	1003.897	760.457
74.622	13.823	1003.248	759.688
75.636	13.862	1002.185	758.993
76.651	13.810	1001.419	758.109
77.666	13.838	1000.749	757.666
78.680	13.869	999.916	757.107
79.695	13.866	999.646	756.820
80.709	13.935	999.002	756.582
81.724	13.866	997.986	755.431
82.739	13.972	997.202	755.252
83.753	13.960	996.523	754.617
84.768	14.058	995.925	754.543
85.782	14.151	994.525	753.838
86.797	14.034	994.219	753.007
87.812	14.044	993.694	752.587
88.826	14.051	991.931	751.220
89.841	14.030	991.707	750.889
90.855	14.107	990.815	750.492
91.870	14.077	989.862	749.571
92.884	14.056	989.683	749.271
93.899	14.223	988.408	748.995
94.914	14.161	987.976	748.322
95.928	14.280	986.864	747.949
96.943	14.197	986.296	747.079
97.957	14.181	985.221	746.126
98.972	14.255	984.258	745.663
99.987	14.019	984.385	744.633
101.001	14.132	983.331	744.276
102.016	14.194	982.280	743.693
103.030	14.083	981.595	742.612
104.045	14.123	981.008	742.281
105.060	14.086	979.594	740.980
106.074	14.101	978.601	740.233
107.089	14.071	977.799	739.424
108.103	14.079	977.056	738.834
109.118	14.060	976.024	737.905
110.133	13.949	975.121	736.662
111.147	14.074	974.101	736.383
112.162	13.962	973.653	735.483
113.176	14.005	972.820	734.980
114.191	14.163	971.768	734.817
115.206	14.106	970.821	733.784
116.220	14.095	969.966	733.025
117.235	14.141	969.075	732.489
118.249	14.087	968.473	731.733
119.264	14.154	967.592	731.294
120.279	14.083	966.721	730.260
121.293	14.054	966.016	729.536
122.308	14.025	965.184	728.715
123.322	14.085	964.516	728.408
124.337	14.060	963.669	727.597
125.352	14.010	962.106	726.134
126.366	14.106	961.178	725.788
127.381	14.020	960.319	724.702
128.395	14.087	959.168	724.061
129.410	14.030	958.336	723.118
130.424	14.077	957.053	722.291
131.439	14.098	956.832	722.150
132.454	14.029	956.107	721.243
133.468	14.181	954.902	720.926
134.483	14.208	954.513	720.688
135.497	14.172	953.582	719.762
136.512	14.222	952.736	719.277
137.527	14.155	952.026	718.389
138.541	14.200	951.188	717.885
139.556	14.241	950.482	717.467
140.570	14.140	949.859	716.500
141.585	14.222	948.960	716.110
142.600	14.160	948.601	715.511
143.614	14.293	947.487	715.178
144.629	14.173	947.181	714.367
145.643	14.289	946.406	714.216
146.658	14.211	945.249	712.947
147.673	14.243	944.242	712.261
148.687	14.263	943.269	711.549
149.702	14.065	943.067	710.488
150.716	14.233	942.001	710.338
151.731	14.212	940.731	709.231
152.746	14.169	940.014	708.443
153.760	14.236	939.542	708.311
154.775	14.213	938.847	707.626
155.789	14.320	938.037	707.406
156.804	14.300	937.244	706.661
157.819	14.309	936.420	706.014
158.833	14.293	936.074	705.626
159.848	14.350	935.508	705.375
160.862	14.389	934.461	704.692
161.877	14.412	934.221	704.543
162.892	14.281	933.062	703.056
163.906	14.304	932.309	702.522
164.921	14.326	931.358	701.835
165.935	14.326	930.558	701.169
166.950	14.437	929.487	700.769
167.964	14.362	928.838	699.901
168.979	14.334	928.045	699.126
169.994	14.378	926.721	698.248
171.008	14.404	925.658	697.497
172.023	14.441	925.150	697.209
173.037	14.435	924.163	696.374
174.052	14.523	923.184	695.942
175.067	14.539	922.813	695.670
176.081	14.503	921.813	694.705
177.096	14.317	921.349	693.517
178.110	14.284	920.881	692.967
179.125	14.430	919.809	692.708
180.140	14.330	918.974	691.600
181.154	14.602	918.331	692.186
182.169	14.471	918.053	691.369
183.183	14.455	917.266	690.652
184.198	14.559	916.333	690.316
185.213	14.605	915.671	689.948
186.227	14.677	914.991	689.670
187.242	14.596	915.056	689.323
188.256	14.662	914.122	688.833
189.271	14.801	913.487	688.864
190.286	14.649	912.478	687.420
191.300	14.600	911.903	686.724
192.315	14.626	910.973	686.070
193.329	14.571	910.311	685.282
194.344	14.684	909.490	685.070
195.359	14.591	909.540	684.664
196.373	14.625	909.034	684.362
197.388	14.708	908.157	683.980
198.402	14.725	907.922	683.813
199.417	14.896	907.376	684.041
200.432	14.824	906.849	683.287
201.446	14.849	906.332	682.939
202.461	15.031	905.826	683.241
203.475	14.926	905.659	682.629
204.490	14.957	904.675	681.951
205.504	14.942	903.764	681.143
206.519	14.959	902.837	680.455
207.534	14.909	902.450	679.898
208.548	15.039	901.296	679.496
209.563	14.866	900.908	678.443
210.577	14.899	900.343	678.091
211.592	15.007	899.523	677.849
212.607	14.975	899.217	677.431
213.621	14.887	898.575	676.532
214.636	14.939	898.003	676.252
215.650	15.076	896.970	675.966
216.665	15.052	896.596	675.527
217.680	14.967	895.875	674.582
218.694	15.022	895.680	674.598
219.709	15.011	894.926	673.926
220.723	15.117	893.965	673.566
221.738	15.151	893.504	673.298
222.753	15.101	892.963	672.629
223.767	14.982	892.421	671.684
224.782	15.150	891.530	671.626
225.796	15.138	890.620	670.835
226.811	15.390	889.789	671.157
227.826	15.277	889.157	670.170
228.840	15.245	888.721	669.655
229.855	15.065	888.298	668.556
230.869	15.249	887.806	668.862
231.884	15.314	887.113	668.539
232.899	15.198	886.176	667.313
233.913	15.288	885.604	667.179
234.928	15.266	884.506	666.208
235.942	15.274	883.985	665.788
236.957	15.236	883.131	664.933
237.972	15.147	882.705	664.205
238.986	15.278	882.255	664.324
240.001	15.290	881.256	663.562
241.015	15.203	880.709	662.748
242.030	15.383	879.835	662.741
243.045	15.286	879.498	662.045
244.059	15.483	878.353	661.903
245.074	15.336	878.141	661.103
246.088	15.388	877.523	660.784
247.103	15.496	876.928	660.701
248.117	15.420	876.324	659.892
249.132	15.390	875.921	659.413
250.147	15.329	875.742	658.977
251.161	15.557	874.628	658.977
252.176	15.578	873.763	658.350
253.190	15.728	872.899	658.227
254.205	15.767	872.392	657.937
255.220	15.752	872.052	657.567
256.234	15.635	871.311	656.493
257.249	15.827	870.565	656.621
258.263	15.895	869.966	656.375
259.278	15.734	869.702	655.493
260.293	15.816	868.926	655.166
261.307	15.806	868.563	654.795
262.322	15.692	867.825	653.739
263.336	15.869	867.270	653.953
264.351	15.891	866.456	653.366
265.366	15.915	866.017	653.069
266.380	15.926	865.361	652.558
267.395	15.947	864.387	651.847
268.409	15.836	864.109	651.151
269.424	15.891	863.431	650.796
270.439	15.863	862.704	650.080
271.453	16.033	861.657	649.891
272.468	15.926	861.217	649.091
273.482	16.035	860.463	648.885
274.497	15.928	860.078	648.125
275.512	16.061	858.893	647.685
276.526	15.781	858.731	646.428
277.541	15.953	857.997	646.479
278.555	15.880	857.557	645.811
279.570	15.975	856.770	645.527
280.585	16.078	855.910	645.213
281.599	16.073	855.808	645.061
282.614	16.090	855.064	644.510
283.628	16.112	854.825	644.357
284.643	16.059	853.993	643.468
285.657	16.153	853.551	643.438
286.672	16.090	852.975	642.708
287.687	16.209	852.268	642.570
288.701	16.232	851.931	642.345
289.716	16.348	851.117	642.118
290.730	16.272	850.597	641.378
291.745	16.167	850.330	640.722
292.760	16.227	849.089	639.956
293.774	16.210	848.991	639.765
294.789	16.378	848.162	639.719
295.803	16.427	847.412	639.280
296.818	16.226	846.811	638.010
297.833	16.283	846.409	637.869
298.847	16.282	845.786	637.336
299.862	16.284	845.073	636.752
300.876	16.355	844.283	636.368
301.891	16.297	843.408	635.435
302.906	16.499	842.868	635.730
303.920	16.423	842.327	634.982
304.935	16.546	841.470	634.739
305.949	16.453	841.362	634.253
306.964	16.586	840.169	633.797
307.979	16.590	839.633	633.352
308.993	16.608	839.234	633.062
310.008	16.427	838.966	632.124
311.022	16.526	838.168	631.839
312.037	16.471	837.874	631.354
313.052	16.556	837.404	631.263
314.066	16.548	836.654	630.610
315.081	16.572	836.100	630.227
316.095	16.652	835.016	629.655
317.110	16.685	834.584	629.393
318.125	16.617	834.380	628.930
319.139	16.751	833.574	628.767
320.154	16.588	833.787	628.264
321.168	16.556	833.115	627.583
322.183	16.612	832.514	627.286
323.197	16.682	831.790	626.941
324.212	16.645	831.152	626.270
325.227	16.698	830.463	625.891
326.241	16.658	830.221	625.505
327.256	16.799	829.657	625.544
328.270	16.636	829.302	624.620
329.285	16.650	828.516	624.024
330.300	16.763	827.872	623.902
331.314	16.766	827.413	623.510
332.329	16.726	826.758	622.815
333.343	16.848	826.070	622.688
334.358	16.853	825.292	622.065
335.373	16.800	824.956	621.563
336.387	16.930	824.111	621.349
337.402	16.828	823.944	620.795
338.416	16.821	823.630	620.476
339.431	16.922	823.050	620.354
340.446	17.101	821.854	620.051
341.460	16.998	821.545	619.388
342.475	17.087	820.861	619.143
343.489	17.113	820.462	618.883
344.504	17.150	819.846	618.497
345.519	17.144	819.612	618.245
346.533	17.038	819.423	617.660
347.548	17.126	818.507	617.234
348.562	17.338	817.848	617.455
349.577	16.986	817.677	615.991
350.592	17.176	816.777	615.950
351.606	17.075	816.394	615.238
352.621	17.202	815.940	615.302
353.635	17.137	815.609	614.762
354.650	17.149	815.136	614.395
355.665	17.001	814.881	613.614
356.679	17.277	814.290	614.111
357.694	17.304	813.599	613.634
358.708	17.048	813.335	612.454
359.723	17.167	812.781	612.414
360.738	17.246	812.283	612.271
361.752	17.182	811.725	611.563
362.767	17.389	811.069	611.762
363.781	17.379	810.884	611.531
364.796	17.215	810.351	610.486
365.810	17.424	809.944	610.875
366.825	17.398	809.837	610.648
367.840	17.259	809.339	609.717
368.854	17.459	808.741	609.933
369.869	17.325	808.745	609.401
370.883	17.302	808.046	608.736
371.898	17.345	807.294	608.269
372.913	17.445	806.754	608.167
373.927	17.469	806.117	607.720
374.942	17.581	805.321	607.465
375.956	17.598	804.451	606.814
376.971	17.628	804.297	606.752
377.986	17.504	804.116	606.121
379.000	17.583	803.545	605.917
380.015	17.670	803.278	605.972
381.029	17.767	802.517	605.689
382.044	17.632	801.713	604.551
383.059	17.760	801.341	604.669
384.073	17.810	800.881	604.447
385.088	17.688	800.229	603.470
386.102	17.769	799.303	603.001
387.117	17.751	799.121	602.748
388.132	17.880	798.469	602.659
389.146	17.754	797.982	601.794
390.161	17.823	797.971	601.976
391.175	17.678	797.473	601.036
392.190	17.916	796.718	601.251
393.205	17.725	796.895	600.657
394.219	17.797	796.637	600.664
395.234	17.807	795.768	599.993
396.248	17.820	795.292	599.626
397.263	17.823	795.002	599.363
398.278	17.864	794.201	598.852
399.292	17.786	793.977	598.354
400.307	17.734	793.785	597.977
401.321	17.840	793.158	597.823
402.336	17.872	792.525	597.403
403.350	17.883	792.549	597.407
404.365	17.980	791.754	597.096
405.380	17.919	791.427	596.582
406.394	18.202	790.543	596.851
407.409	18.064	790.459	596.251
408.423	18.039	789.989	595.757
409.438	18.027	789.504	595.298
410.453	18.082	789.092	595.128
411.467	18.171	788.586	595.002
412.482	18.103	788.139	594.376
413.496	18.164	787.578	594.111
414.511	18.301	787.508	594.483
415.526	18.227	787.116	593.876
416.540	18.285	786.977	593.920
417.555	18.113	786.251	592.724
418.569	18.171	785.873	592.585
419.584	18.186	785.660	592.427
420.599	18.186	784.638	591.603
421.613	111.206	1291.390	1470.288
422.628	95.386	1365.188	1470.382
