DTS Sentinel unit serial number:	SN413079Multiplexer serial number:	ORYXHardware model number:	OX4-SRSoftware version number:	ORYX F/W v4.00 Oryx Data Collector v3.7.2.0data status	okinstallation	princeton_trtdifferential loss correction	single-endedforward channel	channel 3reverse channel	N/Adate	2019/09/14time	02:32:34forward acquisition time	60.00reverse acquisition time	0.00gamma	496.2192k internal	0.2339k external	0.2339temperature offset calibration	1.0053default loss term (dB/km)	0.3790temperature slope calibration	1.0000multiplexer offset coefficient	1.0000multiplexer slope coefficient	1.0000fibre end	0.00T internal ref (°C)	26.53T ext. ref 1 (°C)	3.22T ext. ref 2 (°C)	21.51length (m)	temperature (°C)	Stokes	anti-Stokes-747.200	-37.994	0.249	0.133
-746.185	-200.000	-0.003	0.159
-745.171	-97.380	-0.313	-0.082
-744.156	20.694	0.161	-0.130
-743.142	337.331	-0.109	0.213
-742.127	741.615	-0.088	-0.237
-741.112	-103.259	0.515	-0.122
-740.098	-111.451	-0.673	-0.137
-739.083	-59.585	0.247	-0.106
-738.069	109.489	-0.172	0.207
-737.054	-118.369	-0.140	-0.025
-736.039	58.804	-0.186	0.183
-735.025	-132.820	0.230	0.029
-734.010	56.010	-0.166	0.161
-732.996	-69.483	-0.249	0.096
-731.981	29.692	0.151	0.129
-730.966	-3.329	-0.240	-0.167
-729.952	25.126	-0.183	0.152
-728.937	743.539	0.085	-0.229
-727.923	130.565	-0.318	-0.409
-726.908	-27.727	-0.316	-0.184
-725.894	-44.432	-0.190	-0.096
-724.879	-48.716	-0.191	-0.092
-723.864	-42.544	0.368	-0.188
-722.850	5.847	-0.296	-0.220
-721.835	89.908	0.068	0.076
-720.821	-200.000	0.079	-0.403
-719.806	-200.000	0.026	-0.315
-718.791	-26.629	-0.152	-0.089
-717.777	-200.000	-0.028	-0.198
-716.762	-126.954	-0.305	-0.045
-715.748	-69.920	0.292	0.112
-714.733	29.618	-0.133	-0.114
-713.718	800.000	-0.117	0.338
-712.704	800.000	-0.067	0.248
-711.689	-104.318	0.288	-0.067
-710.675	800.000	0.068	-0.227
-709.660	800.000	-0.103	-0.385
-708.645	22.059	0.104	-0.085
-707.631	425.500	-0.136	0.294
-706.616	-72.754	0.204	-0.075
-705.602	30.913	0.226	0.194
-704.587	10.199	-0.094	-0.072
-703.572	-200.000	-0.003	-0.175
-702.558	51.834	-0.189	0.180
-701.543	800.000	0.057	0.186
-700.529	388.407	-0.135	0.280
-699.514	69.343	-0.116	0.119
-698.499	130.649	0.115	-0.148
-697.485	13.609	0.091	0.070
-696.470	-77.192	-0.182	-0.064
-695.456	-200.000	-0.019	-0.183
-694.441	-200.000	-0.005	-0.307
-693.426	749.128	0.114	-0.307
-692.412	-200.000	-0.027	-0.248
-691.397	-200.000	-0.013	-0.096
-690.383	49.619	0.326	-0.307
-689.368	-100.200	0.067	-0.017
-688.354	-36.416	0.069	-0.037
-687.339	46.295	-0.246	-0.228
-686.324	-155.578	-0.595	-0.038
-685.310	17.630	-0.160	-0.128
-684.295	83.967	-0.226	0.247
-683.281	-200.000	0.000	0.066
-682.266	-176.357	0.186	-0.005
-681.251	13.740	0.160	-0.124
-680.237	-13.157	0.340	0.221
-679.222	-10.293	0.120	0.079
-678.208	266.008	-0.074	0.129
-677.193	52.107	0.138	-0.132
-676.178	-107.730	0.244	0.053
-675.164	-200.000	-0.073	-0.397
-674.149	800.000	-0.080	-0.276
-673.135	102.508	0.303	0.354
-672.120	-63.812	0.180	-0.074
-671.105	-200.000	-0.007	0.132
-670.091	-200.000	0.007	-0.317
-669.076	-200.000	0.050	-0.231
-668.062	-120.949	-0.318	-0.053
-667.047	67.438	-0.201	-0.205
-666.032	63.902	-0.235	0.236
-665.018	-102.868	-0.376	0.089
-664.003	57.876	-0.088	-0.086
-662.989	-58.879	0.158	-0.068
-661.974	-200.000	-0.028	-0.270
-660.959	566.917	-0.136	0.331
-659.945	599.644	-0.152	-0.376
-658.930	56.435	-0.260	0.253
-657.916	189.981	0.049	-0.074
-656.901	790.059	-0.098	0.269
-655.886	49.912	0.037	0.035
-654.872	-177.443	0.350	0.009
-653.857	-58.192	-0.091	-0.040
-652.843	-189.612	0.384	0.004
-651.828	-5.855	-0.385	0.263
-650.814	15.652	-0.018	-0.014
-649.799	34.979	-0.173	-0.151
-648.784	140.716	0.185	-0.244
-647.770	-163.866	0.198	0.009
-646.755	-200.000	-0.016	-0.208
-645.741	-68.641	-0.444	-0.172
-644.726	-132.635	0.386	0.050
-643.711	-200.000	0.019	0.186
-642.697	271.300	0.182	0.321
-641.682	-28.206	-0.275	-0.159
-640.668	-126.798	-0.171	-0.025
-639.653	205.209	-0.119	-0.185
-638.638	192.368	-0.049	-0.074
-637.624	-10.937	0.133	0.087
-636.609	-13.645	0.096	-0.062
-635.595	139.745	0.063	0.083
-634.580	-116.816	0.016	-0.003
-633.565	800.000	0.025	0.091
-632.551	477.235	-0.139	-0.313
-631.536	-126.994	-0.146	-0.021
-630.522	212.862	-0.079	-0.124
-629.507	-200.000	-0.011	-0.174
-628.492	-200.000	0.022	0.269
-627.478	91.274	-0.330	-0.370
-626.463	45.053	-0.160	0.147
-625.449	271.223	-0.177	0.312
-624.434	-66.357	0.407	0.162
-623.419	-200.000	0.032	-0.407
-622.405	-47.571	0.011	0.005
-621.390	-58.954	0.150	0.065
-620.376	-142.776	-0.238	-0.023
-619.361	800.000	0.092	0.334
-618.346	-200.000	-0.076	-0.334
-617.332	227.000	0.270	0.438
-616.317	53.757	-0.073	0.070
-615.303	221.430	-0.142	0.228
-614.288	-77.578	-0.327	-0.113
-613.273	800.000	-0.022	-0.071
-612.259	106.711	-0.102	-0.121
-611.244	90.465	0.372	-0.415
-610.230	-155.038	-0.339	0.022
-609.215	397.895	0.067	-0.140
-608.201	94.309	0.134	0.152
-607.186	-26.610	-0.192	-0.112
-606.171	800.000	-0.047	0.142
-605.157	800.000	0.096	-0.392
-604.142	-32.768	-0.290	0.161
-603.128	-125.889	0.287	-0.043
-602.113	-184.336	-0.361	0.006
-601.098	-23.395	0.295	-0.177
-600.084	500.359	0.081	-0.186
-599.069	346.573	-0.126	0.247
-598.055	-30.493	0.070	-0.039
-597.040	-200.000	0.002	-0.081
-596.025	-147.833	-0.645	-0.054
-595.011	-5.398	-0.103	0.071
-593.996	-113.741	-0.272	-0.053
-592.982	-73.285	0.063	-0.023
-591.967	-17.052	-0.332	0.209
-590.952	-200.000	-0.017	-0.256
-589.938	-43.365	0.416	-0.210
-588.923	-35.223	0.171	0.093
-587.909	-200.000	-0.030	0.340
-586.894	-21.720	-0.103	-0.062
-585.879	-56.518	0.346	0.153
-584.865	-38.908	0.173	-0.091
-583.850	-200.000	0.028	0.186
-582.836	-79.686	0.239	0.080
-581.821	-61.739	-0.062	0.026
-580.806	526.643	-0.135	0.317
-579.792	800.000	0.022	-0.061
-578.777	86.599	-0.177	-0.194
-577.763	-164.350	0.328	0.015
-576.748	-116.378	-0.281	0.052
-575.733	-105.333	-0.199	0.045
-574.719	-108.491	-0.180	-0.039
-573.704	-77.818	0.241	-0.083
-572.690	-200.000	0.015	0.111
-571.675	-200.000	-0.002	-0.113
-570.661	40.600	0.154	-0.138
-569.646	-81.990	-0.049	0.016
-568.631	36.823	0.204	-0.179
-567.617	800.000	-0.037	0.135
-566.602	800.000	0.056	0.165
-565.588	-137.875	-0.338	-0.038
-564.573	-102.830	-0.443	0.105
-563.558	-29.902	0.201	-0.114
-562.544	118.054	0.254	-0.311
-561.529	-52.248	0.362	-0.167
-560.515	-148.461	-0.183	0.015
-559.500	-33.278	-0.143	-0.079
-558.485	800.000	0.060	-0.214
-557.471	64.466	0.268	0.269
-556.456	-122.067	-0.106	-0.017
-555.442	86.729	0.045	0.050
-554.427	246.053	-0.045	0.075
-553.412	-149.521	-0.148	0.012
-552.398	540.777	-0.108	-0.255
-551.383	660.947	-0.071	0.183
-550.369	166.521	-0.052	0.073
-549.354	239.049	-0.084	-0.139
-548.339	-105.628	0.160	-0.036
-547.325	-112.354	0.262	-0.052
-546.310	70.941	0.095	-0.098
-545.296	91.944	-0.149	-0.167
-544.281	800.000	0.110	-0.428
-543.266	89.120	-0.250	0.277
-542.252	67.506	0.129	-0.131
-541.237	80.570	0.139	-0.149
-540.223	75.946	-0.100	-0.105
-539.208	34.426	0.324	-0.282
-538.193	-11.503	0.220	0.144
-537.179	55.064	0.344	0.331
-536.164	377.838	-0.122	-0.248
-535.150	392.304	0.126	-0.260
-534.135	-9.527	-0.189	-0.126
-533.121	150.350	-0.083	-0.113
-532.106	183.169	0.189	-0.278
-531.091	48.043	-0.270	-0.251
-530.077	-200.000	0.010	-0.141
-529.062	-165.335	0.313	-0.014
-528.048	142.319	-0.144	0.190
-527.033	800.000	-0.059	0.220
-526.018	36.749	-0.225	0.197
-525.004	-200.000	-0.012	-0.302
-523.989	-200.000	-0.006	-0.198
-522.975	-123.065	0.265	0.042
-521.960	375.557	0.012	-0.024
-520.945	-63.409	-0.105	-0.043
-519.931	284.128	0.160	0.287
-518.916	194.161	-0.126	-0.189
-517.902	-11.539	-0.081	0.053
-516.887	-60.077	-0.039	0.016
-515.872	800.000	0.055	-0.170
-514.858	736.208	-0.018	0.049
-513.843	4.635	0.281	-0.205
-512.829	-18.509	0.269	-0.167
-511.814	-200.000	0.013	-0.263
-510.799	-200.000	-0.011	-0.079
-509.785	800.000	0.052	0.148
-508.770	595.897	-0.042	-0.103
-507.756	515.762	-0.111	0.258
-506.741	-82.343	0.108	-0.035
-505.726	37.086	-0.129	0.114
-504.712	33.191	-0.307	0.265
-503.697	-23.594	-0.464	0.277
-502.683	-116.184	0.120	-0.022
-501.668	800.000	-0.035	0.145
-500.653	-200.000	0.060	-0.296
-499.639	453.116	0.082	0.181
-498.624	800.000	-0.111	-0.386
-497.610	31.933	0.123	-0.106
-496.595	-200.000	-0.037	0.188
-495.581	-79.183	-0.267	0.090
-494.566	-200.000	-0.015	-0.091
-493.551	800.000	0.094	-0.292
-492.537	144.788	-0.144	-0.191
-491.522	764.962	-0.039	0.105
-490.508	-200.000	0.008	0.081
-489.493	209.117	-0.258	-0.401
-488.478	760.845	-0.107	-0.289
-487.464	60.005	-0.217	-0.213
-486.449	76.434	-0.085	-0.090
-485.435	-57.657	0.179	-0.078
-484.420	-200.000	0.039	0.311
-483.405	15.940	-0.070	0.055
-482.391	-82.914	-0.182	-0.058
-481.376	494.075	0.125	0.284
-480.362	8.420	-0.106	-0.079
-479.347	-121.850	0.160	0.026
-478.332	101.143	-0.076	-0.087
-477.318	-200.000	-0.018	0.469
-476.303	-103.598	0.031	-0.007
-475.289	98.903	0.203	-0.233
-474.274	-128.889	0.097	-0.014
-473.259	-102.903	-0.366	0.086
-472.245	-100.960	0.271	0.066
-471.230	-116.298	0.170	-0.031
-470.216	-119.434	0.124	-0.021
-469.201	-8.769	-0.178	0.119
-468.186	228.567	0.067	-0.109
-467.172	800.000	-0.061	-0.235
-466.157	-59.689	-0.312	-0.133
-465.143	-88.077	0.353	-0.105
-464.128	122.144	0.178	0.220
-463.113	-84.697	-0.198	0.062
-462.099	-73.553	0.146	-0.053
-461.084	-83.850	-0.382	0.121
-460.070	-79.547	0.296	0.099
-459.055	598.776	0.037	-0.092
-458.040	-45.872	-0.284	-0.139
-457.026	47.228	-0.135	-0.125
-456.011	-200.000	0.015	0.081
-454.997	6.558	-0.123	-0.091
-453.982	160.994	-0.107	-0.148
-452.968	30.782	0.091	-0.078
-451.953	-121.960	0.140	0.023
-450.938	800.000	0.067	-0.271
-449.924	-200.000	0.057	-0.414
-448.909	-200.000	-0.031	0.264
-447.895	2.942	-0.047	0.034
-446.880	80.650	-0.081	-0.086
-445.865	-10.092	0.338	0.223
-444.851	-96.731	0.182	0.048
-443.836	-139.942	-0.113	0.012
-442.822	-115.038	-0.175	0.033
-441.807	456.115	-0.163	-0.358
-440.792	-122.488	0.240	0.039
-439.778	59.091	-0.146	0.142
-438.763	-138.329	0.105	-0.012
-437.749	-70.673	-0.459	-0.172
-436.734	-200.000	0.042	0.208
-435.719	120.045	-0.197	-0.243
-434.705	18.803	0.121	-0.096
-433.690	310.823	-0.144	0.267
-432.676	-86.148	0.035	0.011
-431.661	-146.949	-0.338	0.029
-430.646	20.660	-0.061	0.049
-429.632	56.321	0.142	-0.136
-428.617	800.000	-0.105	0.294
-427.603	-59.622	0.237	-0.101
-426.588	-63.171	-0.158	0.065
-425.573	-18.765	0.114	0.070
-424.559	-200.000	-0.001	0.122
-423.544	-28.800	-0.224	0.128
-422.530	111.597	0.175	0.209
-421.515	-148.349	0.279	-0.023
-420.500	137.139	0.219	-0.283
-419.486	-57.869	0.270	-0.117
-418.471	-14.352	-0.039	-0.025
-417.457	759.014	0.049	-0.132
-416.442	13.335	-0.374	-0.287
-415.428	-116.743	-0.277	-0.050
-414.413	-156.865	-0.050	-0.003
-413.398	75.984	-0.018	0.019
-412.384	31.308	0.093	0.079
-411.369	38.123	0.128	-0.113
-410.355	-21.015	0.087	-0.053
-409.340	67.376	0.059	0.059
-408.325	-43.016	-0.136	-0.068
-407.311	-80.656	0.028	-0.009
-406.296	423.463	0.041	-0.087
-405.282	-21.325	0.327	-0.198
-404.267	-200.000	-0.006	0.364
-403.252	187.514	-0.207	0.306
-402.238	-200.000	0.019	0.113
-401.223	136.051	-0.234	-0.302
-400.209	-65.914	-0.288	0.114
-399.194	800.000	0.051	-0.176
-398.179	555.973	-0.073	-0.174
-397.165	-127.697	0.312	-0.045
-396.150	800.000	-0.035	0.147
-395.136	10.850	-0.036	-0.027
-394.121	145.329	-0.124	-0.164
-393.106	152.704	-0.332	0.448
-392.092	277.737	0.149	0.262
-391.077	274.391	0.124	-0.218
-390.063	624.750	0.056	0.141
-389.048	-30.480	0.157	0.088
-388.033	219.365	0.038	0.060
-387.019	800.000	-0.074	-0.218
-386.004	-24.687	-0.280	0.165
-384.990	147.693	0.067	0.090
-383.975	-200.000	0.014	0.352
-382.960	239.709	-0.181	-0.297
-381.946	285.293	-0.101	0.180
-380.931	-119.607	0.187	-0.032
-379.917	800.000	-0.062	0.228
-378.902	568.379	-0.075	0.181
-377.888	-125.624	0.067	0.010
-376.873	266.712	0.139	-0.240
-375.858	800.000	0.059	0.227
-374.844	-200.000	0.024	-0.125
-373.829	449.035	0.113	-0.246
-372.815	-58.605	0.420	0.180
-371.800	336.679	-0.070	-0.135
-370.785	800.000	0.033	0.127
-369.771	-98.327	0.141	0.036
-368.756	-67.872	0.162	-0.062
-367.742	800.000	-0.042	0.137
-366.727	-200.000	-0.016	-0.073
-365.712	-148.315	0.280	-0.023
-364.698	702.716	0.092	0.241
-363.683	-200.000	0.016	0.121
-362.669	87.606	-0.104	-0.114
-361.654	-175.211	-0.339	0.009
-360.639	-200.000	0.032	0.209
-359.625	338.307	0.125	-0.239
-358.610	231.838	-0.068	0.110
-357.596	-200.000	0.077	0.369
-356.581	-200.000	-0.015	0.258
-355.566	48.538	0.301	-0.279
-354.552	216.820	0.091	0.143
-353.537	-200.000	0.004	0.087
-352.523	7.866	-0.275	0.204
-351.508	-114.699	-0.046	0.009
-350.493	-200.000	0.016	0.179
-349.479	-79.978	0.197	-0.065
-348.464	-200.000	-0.016	-0.068
-347.450	-173.624	-0.229	-0.007
-346.435	-78.476	-0.318	0.108
-345.420	-79.791	0.021	0.007
-344.406	800.000	-0.119	-0.384
-343.391	376.662	0.131	0.264
-342.377	-152.307	0.310	0.022
-341.362	-119.210	0.203	-0.035
-340.348	-13.871	-0.183	0.117
-339.333	-53.316	-0.107	-0.048
-338.318	442.577	-0.151	-0.326
-337.304	-74.913	0.320	-0.113
-336.289	99.934	0.017	-0.019
-335.275	800.000	-0.031	-0.105
-334.260	226.529	0.081	0.129
-333.245	-132.146	-0.197	0.025
-332.231	234.885	-0.131	0.213
-331.216	208.865	-0.032	-0.049
-330.202	-107.865	-0.180	0.039
-329.187	-200.000	0.052	-0.289
-328.172	-200.000	0.035	-0.200
-327.158	-118.586	0.105	0.018
-326.143	122.990	-0.164	0.203
-325.129	-155.711	0.395	0.025
-324.114	-200.000	-0.005	0.220
-323.099	-65.700	0.155	-0.061
-322.085	-53.675	-0.190	0.086
-321.070	53.613	0.123	-0.116
-320.056	-200.000	0.014	-0.317
-319.041	123.584	-0.177	-0.219
-318.026	-89.222	0.252	-0.073
-317.012	-106.664	-0.017	0.004
-315.997	800.000	-0.094	-0.332
-314.983	-185.965	0.228	0.003
-313.968	232.561	0.201	0.326
-312.953	-200.000	0.076	0.335
-311.939	11.190	0.307	-0.231
-310.924	191.494	0.213	-0.317
-309.910	-71.562	0.276	-0.102
-308.895	-44.286	0.292	0.144
-307.880	-65.905	-0.143	0.056
-306.866	338.064	-0.084	0.161
-305.851	-181.531	-0.225	-0.004
-304.837	-200.000	0.004	-0.115
-303.822	55.191	-0.117	-0.111
-302.807	-105.741	0.298	0.067
-301.793	-200.000	-0.022	-0.120
-300.778	-103.113	-0.118	-0.028
-299.764	-138.934	-0.194	-0.021
-298.749	-111.740	-0.331	0.066
-297.735	-38.332	-0.089	-0.046
-296.720	-200.000	0.010	-0.091
-295.705	23.603	-0.192	-0.156
-294.691	95.426	-0.155	-0.174
-293.676	4.325	0.362	0.261
-292.662	-94.983	0.287	-0.076
-291.647	-170.103	-0.560	-0.020
-290.632	800.000	0.039	0.128
-289.618	371.275	0.108	0.215
-288.603	-48.123	0.292	0.139
-287.589	46.286	0.114	-0.104
-286.574	108.129	-0.139	0.164
-285.559	-200.000	0.072	0.000
-284.545	190.043	-0.111	0.165
-283.530	-53.838	-0.192	0.086
-282.516	-172.948	0.231	-0.007
-281.501	-200.000	0.079	0.480
-280.486	141.813	-0.213	0.278
-279.472	-59.526	0.324	-0.137
-278.457	-138.827	-0.418	0.045
-277.443	-144.604	-0.082	-0.007
-276.428	614.996	0.019	-0.047
-275.413	-3.572	-0.241	0.165
-274.399	396.006	0.113	-0.232
-273.384	-128.328	-0.069	0.010
-272.370	-67.326	0.303	-0.117
-271.355	-65.395	0.358	0.142
-270.340	103.177	0.140	-0.161
-269.326	-113.915	-0.159	-0.030
-268.311	524.154	-0.028	-0.065
-267.297	-134.555	0.217	-0.026
-266.282	-75.144	-0.098	0.035
-265.267	-38.900	-0.168	-0.087
-264.253	-58.290	0.256	0.110
-263.238	-200.000	0.049	0.292
-262.224	-179.021	0.070	0.002
-261.209	-95.531	0.069	-0.018
-260.195	542.519	-0.099	0.232
-259.180	37.233	0.124	-0.108
-258.165	326.538	-0.091	0.171
-257.151	-73.147	0.180	0.065
-256.136	-138.306	-0.162	-0.018
-255.122	-10.677	-0.362	0.235
-254.107	202.897	-0.137	-0.208
-253.092	800.000	-0.111	-0.351
-252.078	-62.952	0.302	-0.123
-251.063	-78.802	0.200	-0.067
-250.049	290.381	-0.220	-0.393
-249.034	-200.000	0.006	-0.258
-248.019	267.145	0.034	0.058
-247.005	-200.000	0.032	-0.208
-245.990	-187.276	-0.073	-0.001
-244.976	6.254	-0.081	0.059
-243.961	-193.733	0.221	0.002
-242.946	561.706	0.134	0.318
-241.932	-18.306	-0.184	0.113
-240.917	-68.698	0.394	-0.150
-239.903	-72.827	-0.435	0.157
-238.888	-200.000	0.017	0.358
-237.873	-200.000	0.082	0.480
-236.859	-134.815	-0.057	0.007
-235.844	609.502	-0.123	0.301
-234.830	-200.000	-0.041	0.280
-233.815	-11.756	0.130	0.084
-232.800	800.000	0.022	0.074
-231.786	-128.861	0.049	-0.007
-230.771	-89.808	-0.203	-0.058
-229.757	-184.737	0.164	0.003
-228.742	-53.401	-0.126	0.057
-227.727	-97.118	-0.207	-0.053
-226.713	-200.000	-0.025	0.166
-225.698	112.244	0.072	-0.085
-224.684	148.785	0.079	0.105
-223.669	122.651	0.240	-0.295
-222.655	-76.067	0.216	0.075
-221.640	-77.997	-0.376	-0.127
-220.625	184.416	-0.027	-0.039
-219.611	291.531	0.171	-0.306
-218.596	-67.346	0.284	-0.110
-217.582	800.000	-0.077	0.248
-216.567	13.235	0.136	0.103
-215.552	512.158	0.049	0.112
-214.538	406.476	0.079	-0.164
-213.523	43.117	-0.308	0.276
-212.509	-200.000	0.014	0.140
-211.494	-9.483	-0.024	0.015
-210.479	-200.000	0.009	-0.552
-209.465	800.000	-0.051	-0.147
-208.450	24.855	-0.300	0.244
-207.436	-99.345	-0.058	0.014
-206.421	189.792	0.077	0.114
-205.406	218.256	0.188	-0.294
-204.392	800.000	-0.084	-0.357
-203.377	-200.000	-0.002	-0.109
-202.363	-193.730	0.253	-0.002
-201.348	800.000	-0.021	-0.081
-200.333	-157.525	0.293	-0.017
-199.319	-200.000	0.016	-0.149
-198.304	-200.000	-0.025	0.127
-197.290	-130.826	0.128	-0.017
-196.275	602.985	0.074	0.181
-195.260	76.379	-0.153	-0.159
-194.246	72.812	0.274	0.281
-193.231	265.759	-0.153	0.263
-192.217	800.000	-0.070	0.253
-191.202	4.123	-0.156	0.112
-190.187	144.126	-0.017	0.022
-189.173	800.000	0.017	-0.058
-188.158	800.000	0.036	0.114
-187.144	-96.355	0.178	-0.046
-186.129	193.374	0.168	0.250
-185.114	-26.439	-0.042	0.024
-184.100	-200.000	0.007	0.245
-183.085	-200.000	0.083	0.467
-182.071	-71.933	0.063	0.023
-181.056	84.826	-0.175	0.188
-180.042	-52.337	0.192	-0.087
-179.027	-200.000	0.031	-0.135
-178.012	-47.751	-0.284	0.135
-176.998	19.456	-0.130	-0.102
-175.983	-200.000	-0.039	-0.179
-174.969	126.213	0.105	0.131
-173.954	61.138	-0.327	0.319
-172.939	-49.959	-0.250	0.116
-171.925	-200.000	-0.010	0.314
-170.910	-64.876	0.137	0.054
-169.896	-150.728	-0.068	-0.005
-168.881	-17.890	0.217	-0.133
-167.866	770.605	-0.070	0.186
-166.852	-200.000	0.018	0.171
-165.837	800.000	0.052	-0.167
-164.823	-82.239	-0.035	0.011
-163.808	-96.944	-0.055	-0.014
-162.793	48.673	0.067	0.061
-161.779	-200.000	-0.040	-0.194
-160.764	161.373	-0.178	0.244
-159.750	-200.000	-0.002	0.484
-158.735	170.040	-0.108	0.152
-157.720	-55.042	0.340	-0.150
-156.706	-16.055	0.099	0.062
-155.691	93.606	-0.195	-0.217
-154.677	114.089	0.298	-0.355
-153.662	114.177	-0.104	0.125
-152.647	464.409	0.072	0.158
-151.633	-190.085	-0.133	0.001
-150.618	-200.000	0.035	-0.210
-149.604	102.967	-0.118	0.136
-148.589	-200.000	0.044	0.333
-147.574	-42.540	0.135	-0.068
-146.560	174.277	0.114	-0.161
-145.545	800.000	-0.037	0.105
-144.531	800.000	0.058	0.205
-143.516	287.452	0.124	-0.219
-142.502	11.702	0.144	-0.108
-141.487	55.889	0.198	-0.188
-140.472	135.825	-0.065	-0.083
-139.458	222.215	-0.025	0.040
-138.443	-63.318	0.188	0.076
-137.429	-188.382	0.323	0.004
-136.414	-47.101	-0.044	-0.021
-135.399	-200.000	-0.006	-0.056
-134.385	-40.129	0.205	0.105
-133.370	742.260	0.149	0.392
-132.356	-200.000	0.002	-0.074
-131.341	-200.000	-0.289	-0.001
-130.326	-74.808	-0.167	-0.059
-129.312	-200.000	-0.006	-0.148
-128.297	84.668	0.053	0.057
-127.283	-133.270	-0.097	-0.012
-126.268	109.411	0.106	0.124
-125.253	77.060	0.101	-0.105
-124.239	-128.574	-0.136	0.019
-123.224	9.685	-0.125	-0.093
-122.210	-149.737	-0.150	-0.012
-121.195	-200.000	-0.032	0.319
-120.180	351.596	-0.096	0.187
-119.166	-200.000	-0.057	0.373
-118.151	-41.495	0.173	0.087
-117.137	-200.000	-0.004	0.022
-116.122	800.000	0.076	0.287
-115.107	90.660	0.239	0.262
-114.093	-200.000	0.002	0.316
-113.078	-148.018	0.217	0.018
-112.064	-102.668	0.128	-0.030
-111.049	-29.723	0.250	-0.140
-110.034	36.381	-0.345	-0.297
-109.020	-18.564	-0.237	-0.145
-108.005	-43.670	-0.157	0.078
-106.991	134.301	-0.197	-0.250
-105.976	146.747	0.158	0.208
-104.962	-151.677	0.138	-0.010
-103.947	137.162	0.053	0.068
-102.932	99.540	0.057	0.065
-101.918	-157.777	-0.494	-0.029
-100.903	-200.000	-0.126	0.000
-99.889	800.000	-0.038	0.130
-98.874	-200.000	0.021	-0.423
-97.859	42.051	-0.331	-0.294
-96.845	-200.000	0.028	-0.284
-95.830	-83.610	-0.231	0.072
-94.816	-77.550	-0.338	-0.115
-93.801	800.000	-0.135	-0.501
-92.786	800.000	0.123	0.368
-91.772	-68.041	0.390	0.149
-90.757	29.654	-0.346	-0.288
-89.743	628.906	0.120	0.296
-88.728	-127.925	0.075	0.011
-87.713	93.145	-0.217	0.240
-86.699	-127.419	-0.216	0.031
-85.684	800.000	0.071	-0.262
-84.670	-200.000	-0.021	0.096
-83.655	-161.556	0.200	-0.010
-82.640	231.388	0.067	0.107
-81.626	-108.935	0.438	-0.091
-80.611	-128.622	0.148	-0.020
-79.597	800.000	-0.053	-0.204
-78.582	-151.221	0.121	0.009
-77.567	-91.335	0.217	-0.061
-76.553	800.000	0.005	0.017
-75.538	210.811	-0.125	0.192
-74.524	100.186	-0.217	-0.246
-73.509	-146.196	0.084	0.007
-72.494	713.751	-0.082	0.213
-71.480	643.213	0.116	0.288
-70.465	800.000	0.076	0.279
-69.451	14.937	-0.016	-0.012
-68.436	800.000	0.094	0.319
-67.422	-86.963	-0.083	-0.025
-66.407	-7.023	0.283	-0.188
-65.392	-200.000	0.003	0.147
-64.378	800.000	-0.048	0.175
-63.363	119.252	-0.180	-0.217
-62.349	99.183	-0.149	-0.168
-61.334	17.593	-1.066	-0.827
-60.319	369.028	0.493	0.974
-59.305	800.000	-0.262	-0.884
-58.290	800.000	0.515	1.391
-57.276	457.243	0.794	1.722
-56.261	-200.000	116.678	650.533
-55.246	510.618	1540.780	3499.408
-54.232	176.226	2710.412	3842.969
-53.217	105.438	2176.867	2510.598
-52.203	37.307	1693.218	1464.605
-51.188	29.719	1508.750	1253.768
-50.173	27.516	1483.519	1218.038
-49.159	50.373	1543.814	1424.246
-48.144	48.834	1558.437	1427.179
-47.130	29.737	1514.182	1258.202
-46.115	26.806	1498.239	1225.136
-45.100	26.576	1495.254	1221.094
-44.086	26.558	1493.535	1219.521
-43.071	26.555	1491.641	1217.905
-42.057	26.498	1490.388	1216.455
-41.042	26.538	1488.532	1215.156
-40.027	26.469	1487.261	1213.608
-39.013	26.410	1485.741	1211.925
-37.998	26.517	1484.508	1211.588
-36.984	26.496	1483.433	1210.525
-35.969	26.507	1482.148	1209.499
-34.954	26.512	1480.978	1208.532
-33.940	26.455	1479.111	1206.577
-32.925	26.529	1477.446	1205.667
-31.911	26.545	1476.897	1205.273
-30.896	26.681	1474.643	1204.295
-29.881	26.633	1473.959	1203.364
-28.867	26.622	1472.508	1202.062
-27.852	26.605	1471.926	1201.423
-26.838	26.641	1469.765	1199.853
-25.823	26.597	1468.321	1198.333
-24.809	26.573	1467.334	1197.323
-23.794	26.577	1465.591	1195.877
-22.779	26.613	1464.653	1195.303
-21.765	26.602	1463.517	1194.258
-20.750	26.605	1462.214	1193.167
-19.736	26.513	1461.602	1192.011
-18.721	26.418	1460.502	1190.447
-17.706	26.476	1459.197	1189.713
-16.692	26.515	1458.102	1189.029
-15.677	26.661	1456.719	1188.815
-14.663	26.548	1455.906	1187.363
-13.648	26.532	1455.279	1186.698
-12.633	26.571	1453.805	1185.704
-11.619	26.495	1453.029	1184.529
-10.604	26.496	1452.291	1183.887
-9.590	26.510	1451.383	1183.191
-8.575	26.374	1450.971	1181.916
-7.560	26.530	1449.794	1181.932
-6.546	26.447	1449.319	1180.956
-5.531	26.484	1448.106	1180.163
-4.517	26.527	1446.732	1179.274
-3.502	26.558	1445.843	1178.703
-2.487	26.490	1445.437	1177.883
-1.473	26.473	1443.843	1176.430
-0.458	26.498	1442.622	1175.553
0.556	26.674	1432.897	1164.386
1.571	23.729	1408.392	1125.738
2.586	20.390	1347.517	1056.697
3.600	18.766	1265.970	983.370
4.615	17.614	1221.422	942.314
5.629	15.122	1165.260	885.741
6.644	8.666	1084.386	792.327
7.659	3.899	1047.890	742.746
8.673	3.165	1043.235	735.871
9.688	3.336	1039.369	733.895
10.702	3.199	1038.061	732.254
11.717	3.190	1036.510	731.055
12.731	5.089	1037.021	740.366
13.746	11.713	1046.139	778.433
14.761	17.879	1053.747	813.498
15.775	19.653	1056.061	823.679
16.790	19.119	1054.850	820.120
17.804	18.093	1052.410	813.273
18.819	17.149	1050.857	807.511
19.834	16.885	1049.502	805.146
20.848	16.741	1048.290	803.460
21.863	16.516	1048.166	802.229
22.877	16.399	1047.073	800.768
23.892	16.225	1045.721	798.836
24.907	16.104	1045.926	798.352
25.921	16.093	1044.655	797.257
26.936	16.151	1044.218	797.129
27.950	16.164	1042.924	796.129
28.965	16.254	1042.108	795.862
29.980	16.256	1040.840	794.834
30.994	16.404	1039.568	794.485
32.009	16.521	1038.895	794.450
33.023	16.408	1038.527	793.570
34.038	16.469	1037.481	792.988
35.053	16.437	1036.392	791.935
36.067	16.214	1035.556	790.182
37.082	16.276	1034.780	789.808
38.096	16.421	1033.559	789.483
39.111	16.360	1033.284	788.921
40.126	16.546	1032.077	788.798
41.140	16.364	1030.858	786.948
42.155	16.136	1030.122	785.254
43.169	15.953	1029.305	783.710
44.184	15.869	1027.998	782.257
45.199	15.955	1026.550	781.481
46.213	16.068	1025.323	781.005
47.228	16.040	1024.417	780.116
48.242	16.226	1023.594	780.279
49.257	16.208	1023.220	779.841
50.271	16.107	1022.770	778.964
51.286	16.230	1021.374	778.400
52.301	16.383	1020.506	778.373
53.315	16.306	1019.761	777.383
54.330	16.213	1018.657	776.043
55.344	16.057	1018.414	775.071
56.359	16.028	1016.876	773.700
57.374	16.064	1015.935	773.083
58.388	16.201	1015.153	773.044
59.403	15.873	1014.581	771.041
60.417	16.001	1013.422	770.674
61.432	16.080	1013.196	770.799
62.447	15.938	1012.332	769.421
63.461	15.934	1011.273	768.533
64.476	15.836	1010.571	767.483
65.490	15.882	1009.382	766.720
66.505	15.835	1008.967	766.127
67.520	15.879	1007.945	765.480
68.534	15.924	1007.557	765.325
69.549	15.958	1006.618	764.699
70.563	16.006	1005.782	764.211
71.578	15.825	1005.395	763.030
72.593	15.798	1004.203	761.936
73.607	15.712	1003.095	760.640
74.622	15.717	1002.461	760.113
75.636	15.622	1001.509	758.893
76.651	15.709	1000.632	758.555
77.666	15.767	1000.236	758.449
78.680	15.735	999.423	757.621
79.695	15.896	998.617	757.670
80.709	15.712	998.442	756.640
81.724	15.919	997.551	756.829
82.739	15.914	996.840	756.198
83.753	16.066	996.109	756.261
84.768	16.177	995.276	756.057
85.782	16.363	994.769	756.441
86.797	16.528	994.104	756.604
87.812	16.543	993.117	755.854
88.826	16.368	992.538	754.566
89.841	16.370	991.568	753.772
90.855	16.228	990.848	752.524
91.870	16.275	990.087	752.088
92.884	16.393	989.654	752.216
93.899	16.485	988.644	751.791
94.914	16.356	988.129	750.763
95.928	16.469	987.141	750.446
96.943	16.615	986.441	750.495
97.957	16.505	985.456	749.191
98.972	16.403	984.452	747.909
99.987	16.440	984.039	747.696
101.001	16.455	983.204	747.059
102.016	16.356	982.762	746.221
103.030	16.409	981.603	745.509
104.045	16.427	980.701	744.837
105.060	16.440	979.799	744.141
106.074	16.331	978.913	742.924
107.089	16.108	977.811	741.042
108.103	16.001	976.843	739.772
109.118	15.873	975.844	738.392
110.133	15.742	975.362	737.388
111.147	15.810	974.305	736.819
112.162	15.952	973.754	736.957
113.176	15.945	972.865	736.190
114.191	16.013	972.199	735.918
115.206	16.204	970.934	735.728
116.220	16.117	970.034	734.602
117.235	16.075	969.536	733.976
118.249	16.014	968.378	732.768
119.264	16.107	967.747	732.632
120.279	15.991	966.913	731.432
121.293	15.943	965.968	730.446
122.308	15.932	965.394	729.897
123.322	15.862	964.380	728.764
124.337	15.893	963.070	727.845
125.352	15.669	962.524	726.401
126.366	15.789	961.152	725.819
127.381	15.862	960.108	725.279
128.395	15.847	959.187	724.457
129.410	15.776	958.196	723.337
130.424	15.847	957.529	723.076
131.439	15.973	956.623	722.867
132.454	16.001	956.260	722.647
133.468	16.019	955.346	721.970
134.483	16.126	954.593	721.797
135.497	15.997	954.098	720.808
136.512	16.051	953.058	720.186
137.527	16.122	952.372	719.907
138.541	16.028	951.599	718.861
139.556	16.151	950.837	718.743
140.570	16.127	950.481	718.308
141.585	16.289	949.234	717.991
142.600	16.326	949.064	717.957
143.614	16.354	948.523	717.605
144.629	16.357	947.621	716.870
145.643	16.490	947.093	716.972
146.658	16.387	946.222	715.813
147.673	16.395	944.756	714.673
148.687	16.167	944.419	713.393
149.702	16.102	943.550	712.396
150.716	16.175	942.509	711.857
151.731	16.178	941.537	711.073
152.746	16.166	940.855	710.443
153.760	16.197	940.144	709.975
154.775	16.164	939.485	709.278
155.789	16.379	938.453	709.337
156.804	16.381	937.541	708.595
157.819	16.291	937.354	708.011
158.833	16.454	936.720	708.151
159.848	16.501	935.977	707.726
160.862	16.536	935.682	707.586
161.877	16.634	934.566	707.090
162.892	16.384	933.528	705.198
163.906	16.296	932.398	703.914
164.921	16.134	932.078	702.937
165.935	16.303	930.671	702.514
166.950	16.310	929.575	701.655
167.964	16.417	928.797	701.453
168.979	16.424	927.917	700.754
169.994	16.353	926.891	699.623
171.008	16.255	926.404	698.785
172.023	16.251	925.698	698.174
173.037	16.580	924.892	698.863
174.052	16.607	924.547	698.656
175.067	16.517	923.532	697.454
176.081	16.269	922.612	695.676
177.096	16.276	921.516	694.815
178.110	16.316	920.775	694.362
179.125	16.346	919.924	693.782
180.140	16.349	919.407	693.342
181.154	16.321	918.670	692.609
182.169	16.480	918.150	692.808
183.183	16.499	917.683	692.472
184.198	16.665	917.137	692.681
185.213	16.586	916.071	691.490
186.227	16.731	915.496	691.586
187.242	16.657	915.246	691.036
188.256	16.733	914.292	690.565
189.271	16.760	914.214	690.553
190.286	16.836	913.044	689.915
191.300	16.581	912.162	688.151
192.315	16.188	911.240	685.801
193.329	16.141	910.606	685.072
194.344	16.149	909.914	684.524
195.359	16.157	909.490	684.173
196.373	16.420	908.790	684.654
197.388	16.496	908.580	684.743
198.402	16.640	907.610	684.534
199.417	16.761	907.756	685.071
200.432	16.926	907.090	685.174
201.446	16.984	906.739	685.084
202.461	17.007	906.632	685.037
203.475	17.137	906.008	685.029
204.490	17.093	905.431	684.352
205.504	16.930	904.500	682.934
206.519	16.773	903.560	681.531
207.534	16.721	902.754	680.652
208.548	16.704	901.925	679.900
209.563	16.711	901.583	679.613
210.577	16.868	900.608	679.447
211.592	16.867	900.137	679.026
212.607	17.046	899.600	679.276
213.621	17.065	899.124	678.931
214.636	17.146	898.222	678.516
215.650	16.806	898.194	677.076
216.665	17.124	896.943	677.343
217.680	17.029	896.818	676.809
218.694	17.113	896.169	676.592
219.709	17.179	895.862	676.565
220.723	17.276	894.706	676.016
221.738	17.123	894.300	675.044
222.753	17.080	893.596	674.282
223.767	17.160	892.883	674.001
224.782	17.209	892.276	673.679
225.796	17.182	891.322	672.791
226.811	17.326	890.770	672.886
227.826	17.197	890.555	672.151
228.840	17.256	889.655	671.646
229.855	17.130	889.068	670.647
230.869	17.048	888.472	669.815
231.884	17.055	888.029	669.448
232.899	17.206	886.683	668.969
233.913	16.987	886.231	667.707
234.928	16.911	885.511	666.808
235.942	16.999	884.919	666.646
236.957	16.918	884.011	665.585
237.972	16.970	883.624	665.439
238.986	17.046	882.965	665.182
240.001	16.981	882.065	664.194
241.015	16.957	881.804	663.844
242.030	17.199	880.244	663.553
243.045	17.055	880.192	662.895
244.059	17.219	879.853	663.221
245.074	17.272	879.179	662.860
246.088	17.186	878.660	662.075
247.103	17.465	877.868	662.507
248.117	17.449	877.263	661.927
249.132	17.494	877.014	661.857
250.147	17.532	876.504	661.559
251.161	17.670	876.612	662.122
252.176	17.779	875.674	661.775
253.190	17.833	874.431	660.988
254.205	17.875	874.185	660.905
255.220	17.983	873.648	660.860
256.234	18.035	872.613	660.217
257.249	17.841	872.402	659.250
258.263	17.867	871.899	658.915
259.278	17.810	871.470	658.309
260.293	17.966	870.945	658.455
261.307	17.982	870.171	657.878
262.322	18.166	869.483	658.006
263.336	18.114	869.243	657.565
264.351	18.041	868.500	656.664
265.366	18.063	867.621	656.027
266.380	18.027	867.523	655.758
267.395	18.202	866.520	655.611
268.409	18.131	865.454	654.474
269.424	18.021	864.838	653.529
270.439	18.079	864.284	653.276
271.453	17.932	863.533	652.089
272.468	17.893	863.001	651.481
273.482	17.900	862.179	650.831
274.497	17.907	861.903	650.590
275.512	17.906	861.018	649.860
276.526	17.832	860.428	649.075
277.541	17.958	859.329	648.668
278.555	17.820	859.394	648.135
279.570	18.128	858.529	648.595
280.585	18.132	858.137	648.255
281.599	18.147	857.890	648.069
282.614	18.113	857.010	647.217
283.628	18.097	856.120	646.428
284.643	18.031	855.933	645.980
285.657	18.164	855.373	646.000
286.672	17.988	854.972	644.980
287.687	18.158	854.050	644.867
288.701	18.052	853.642	644.101
289.716	18.153	853.179	644.075
290.730	18.231	852.352	643.688
291.745	18.102	852.427	643.203
292.760	18.204	851.298	642.678
293.774	18.283	850.700	642.464
294.789	18.259	850.427	642.111
295.803	18.336	849.543	641.677
296.818	18.287	848.964	640.997
297.833	18.130	848.391	639.924
298.847	18.227	847.457	639.523
299.862	18.258	846.581	638.922
300.876	18.195	846.173	638.322
301.891	18.365	845.422	638.332
302.906	18.376	845.122	638.092
303.920	18.465	844.457	637.862
304.935	18.537	844.015	637.739
305.949	18.694	843.433	637.827
306.964	18.629	842.926	637.145
307.979	18.435	842.192	635.817
308.993	18.452	841.678	635.436
310.008	18.511	841.069	635.138
311.022	18.588	840.232	634.734
312.037	18.524	840.133	634.365
313.052	18.530	839.462	633.826
314.066	18.336	838.850	632.591
315.081	18.379	838.164	632.177
316.095	18.415	837.564	631.801
317.110	18.438	837.096	631.476
318.125	18.475	836.418	631.045
319.139	18.330	836.299	630.367
320.154	18.296	835.505	629.587
321.168	18.417	834.855	629.487
322.183	18.372	834.784	629.211
323.197	18.374	834.234	628.747
324.212	18.499	833.526	628.618
325.227	18.405	833.267	628.020
326.241	18.647	832.121	627.990
327.256	18.473	831.959	627.173
328.270	18.384	831.420	626.385
329.285	18.424	830.701	625.935
330.300	18.477	829.756	625.363
331.314	18.466	829.314	624.934
332.329	18.360	829.309	624.486
333.343	18.575	828.387	624.522
334.358	18.753	827.916	624.758
335.373	18.755	827.239	624.199
336.387	18.761	826.738	623.787
337.402	18.616	826.853	623.293
338.416	18.875	825.608	623.237
339.431	18.846	825.353	622.887
340.446	18.985	824.881	622.976
341.460	19.160	824.450	623.232
342.475	19.010	823.932	622.243
343.489	18.950	823.408	621.573
344.504	19.350	822.653	622.394
345.519	19.234	822.750	621.993
346.533	19.283	821.897	621.468
347.548	19.265	821.041	620.702
348.562	19.150	820.310	619.682
349.577	18.815	820.451	618.526
350.592	18.938	819.440	618.150
351.606	18.876	818.843	617.423
352.621	18.842	818.796	617.214
353.635	18.810	817.991	616.436
354.650	18.944	818.216	617.031
355.665	18.774	817.877	616.111
356.679	19.131	816.763	616.495
357.694	18.969	816.416	615.598
358.708	19.076	815.994	615.610
359.723	18.940	815.575	614.755
360.738	19.184	814.565	614.810
361.752	19.167	814.444	614.602
362.767	19.016	814.207	613.832
363.781	19.185	813.799	614.071
364.796	19.270	813.233	613.891
365.810	19.298	812.895	613.685
366.825	19.520	812.623	614.212
367.840	19.516	812.432	614.001
368.854	19.384	811.747	612.958
369.869	19.508	811.075	612.838
370.883	19.540	810.387	612.376
371.898	19.285	810.011	611.134
372.913	19.509	809.367	611.389
373.927	19.461	808.468	610.484
374.942	19.486	808.019	610.181
375.956	19.376	807.652	609.459
376.971	19.531	807.055	609.505
377.986	19.701	806.308	609.485
379.000	19.716	806.042	609.283
380.015	19.767	805.914	609.313
381.029	19.821	804.916	608.693
382.044	19.734	804.478	608.005
383.059	19.575	804.217	607.193
384.073	19.610	803.365	606.617
385.088	19.605	802.978	606.256
386.102	19.587	802.191	605.544
387.117	19.570	801.559	604.954
388.132	19.620	801.088	604.721
389.146	19.589	800.661	604.235
390.161	19.528	800.425	603.790
391.175	19.631	800.135	603.880
392.190	19.611	800.018	603.668
393.205	19.874	799.167	603.889
394.219	19.601	799.013	602.766
395.234	19.603	798.031	601.979
396.248	19.501	797.792	601.392
397.263	19.408	797.234	600.595
398.278	19.397	796.470	599.927
399.292	19.408	796.016	599.567
400.307	19.339	796.015	599.277
401.321	19.371	795.675	599.077
402.336	19.433	795.036	598.760
403.350	19.642	794.818	599.267
404.365	19.477	794.767	598.604
405.380	19.660	793.828	598.478
406.394	20.004	793.045	599.024
407.409	19.910	792.745	598.418
408.423	20.028	792.755	598.780
409.438	20.096	792.334	598.646
410.453	19.969	791.741	597.706
411.467	20.134	791.291	597.882
412.482	19.994	791.144	597.234
413.496	20.108	790.589	597.157
414.511	20.134	790.197	596.897
415.526	20.207	789.571	596.622
416.540	20.218	789.457	596.521
417.555	20.213	788.623	595.822
418.569	20.122	788.474	595.345
419.584	20.191	787.804	595.023
420.599	20.203	787.462	594.752
421.613	162.362	1370.540	1797.858
422.628	140.572	1455.484	1797.924
