DTS Sentinel unit serial number:	SN413079Multiplexer serial number:	ORYXHardware model number:	OX4-SRSoftware version number:	ORYX F/W v4.00 Oryx Data Collector v3.7.2.0data status	okinstallation	princeton_trtdifferential loss correction	single-endedforward channel	channel 3reverse channel	N/Adate	2019/09/12time	09:14:11forward acquisition time	60.00reverse acquisition time	0.00gamma	496.2192k internal	0.2305k external	0.2305temperature offset calibration	1.0026default loss term (dB/km)	0.3790temperature slope calibration	1.0000multiplexer offset coefficient	1.0000multiplexer slope coefficient	1.0000fibre end	0.00T internal ref (°C)	34.75T ext. ref 1 (°C)	1.78T ext. ref 2 (°C)	33.14length (m)	temperature (°C)	Stokes	anti-Stokes-747.200	140.277	-0.075	0.101
-746.185	800.000	0.091	0.345
-745.171	277.520	0.024	-0.044
-744.156	383.935	-0.199	0.416
-743.142	-200.000	-0.002	0.113
-742.127	212.409	-0.066	0.106
-741.112	-200.000	-0.009	-0.054
-740.098	14.703	0.132	-0.105
-739.083	-170.873	-0.345	0.012
-738.069	35.065	-0.274	0.245
-737.054	-200.000	-0.034	0.334
-736.039	-155.153	-0.098	-0.006
-735.025	388.607	-0.099	0.209
-734.010	-66.425	-0.335	-0.135
-732.996	689.094	0.018	-0.048
-731.981	-200.000	0.044	-0.250
-730.966	-154.639	-0.055	0.004
-729.952	231.850	0.059	-0.099
-728.937	-200.000	-0.007	-0.330
-727.923	-31.394	0.172	0.099
-726.908	-200.000	0.011	0.347
-725.894	-85.009	-0.345	-0.110
-724.879	334.251	0.100	-0.196
-723.864	-119.536	0.212	0.037
-722.850	-97.955	0.273	0.072
-721.835	776.206	-0.085	0.235
-720.821	-47.730	-0.247	-0.122
-719.806	47.751	-0.235	-0.223
-718.791	-200.000	-0.001	-0.113
-717.777	800.000	-0.044	0.172
-716.762	-50.475	-0.191	-0.092
-715.748	-200.000	-0.063	0.290
-714.733	132.994	0.140	-0.184
-713.718	511.287	-0.029	0.069
-712.704	-15.261	-0.213	0.138
-711.689	-47.341	-0.024	-0.012
-710.675	367.674	0.153	-0.314
-709.660	83.640	-0.151	0.167
-708.645	103.278	0.087	0.104
-707.631	34.989	0.092	-0.082
-706.616	-157.862	0.331	-0.020
-705.602	800.000	-0.007	0.024
-704.587	163.398	-0.038	0.054
-703.572	40.469	0.459	-0.420
-702.558	-189.831	0.154	0.002
-701.543	-200.000	0.031	-0.547
-700.529	-58.214	0.388	-0.172
-699.514	800.000	0.030	0.114
-698.499	-128.047	0.180	0.026
-697.485	-108.971	0.203	-0.044
-696.470	80.715	-0.101	-0.111
-695.456	-37.007	-0.134	-0.073
-694.441	652.414	-0.055	0.143
-693.426	-55.781	-0.219	0.099
-692.412	-125.092	0.104	0.016
-691.397	-36.407	-0.131	0.072
-690.383	-66.645	-0.056	0.023
-689.368	-70.277	-0.078	0.030
-688.354	750.247	-0.028	-0.077
-687.339	123.725	-0.092	0.117
-686.324	-97.225	0.187	0.050
-685.310	120.984	0.214	0.270
-684.295	800.000	0.047	-0.200
-683.281	-200.000	-0.012	0.174
-682.266	800.000	-0.069	0.253
-681.251	589.903	0.136	-0.340
-680.237	-200.000	0.053	-0.446
-679.222	-51.894	0.135	0.064
-678.208	334.587	-0.114	0.225
-677.193	-200.000	-0.007	-0.211
-676.178	504.653	-0.172	-0.405
-675.164	-200.000	0.058	-0.315
-674.149	135.073	0.131	0.173
-673.135	800.000	-0.047	0.175
-672.120	-200.000	0.012	0.234
-671.105	54.180	-0.059	-0.058
-670.091	-200.000	-0.015	0.223
-669.076	0.000	-0.183	-0.132
-668.062	76.964	-0.214	0.231
-667.047	-70.248	-0.156	0.060
-666.032	94.354	-0.202	-0.232
-665.018	-200.000	0.009	0.093
-664.003	-0.691	-0.257	0.185
-662.989	-59.851	-0.251	-0.109
-661.974	800.000	-0.055	-0.238
-660.959	239.654	0.146	-0.246
-659.945	-155.474	-0.179	0.012
-658.930	-134.556	-0.157	0.020
-657.916	800.000	-0.033	0.119
-656.901	-11.756	0.064	0.043
-655.886	-65.335	-0.342	-0.140
-654.872	179.331	-0.150	0.223
-653.857	-132.540	-0.034	0.004
-652.843	-200.000	0.017	0.246
-651.828	-22.110	-0.135	-0.083
-650.814	49.067	0.255	-0.243
-649.799	245.667	-0.011	0.018
-648.784	-36.688	0.131	-0.072
-647.770	63.446	-0.240	-0.244
-646.755	-80.970	0.171	-0.057
-645.741	120.989	-0.154	-0.195
-644.726	-132.696	-0.094	0.012
-643.711	-200.000	0.005	-0.212
-642.697	619.585	0.045	0.114
-641.682	117.918	-0.071	-0.089
-640.668	-200.000	-0.005	0.055
-639.653	20.170	0.250	0.205
-638.638	-200.000	-0.033	0.250
-637.624	-68.385	-0.056	-0.022
-636.609	288.759	-0.029	-0.052
-635.595	-112.822	0.138	0.028
-634.580	-188.339	-0.171	-0.002
-633.565	-187.152	0.161	0.002
-632.551	7.870	-0.107	-0.081
-631.536	-128.413	-0.342	-0.049
-630.522	99.255	0.161	0.189
-629.507	19.678	-0.053	0.043
-628.492	-200.000	0.023	-0.186
-627.478	-200.000	0.012	-0.239
-626.463	375.911	0.046	-0.095
-625.449	-106.184	-0.120	0.027
-624.434	800.000	-0.080	0.335
-623.419	-96.087	0.320	0.086
-622.405	46.720	-0.157	-0.147
-621.390	-15.324	0.131	0.085
-620.376	300.540	-0.178	0.332
-619.361	-200.000	0.049	-0.311
-618.346	-94.505	-0.155	0.043
-617.332	528.173	0.029	0.070
-616.317	-99.538	0.136	-0.035
-615.303	508.968	0.048	0.114
-614.288	0.812	-0.089	0.064
-613.273	163.565	-0.068	-0.097
-612.259	519.181	0.113	-0.269
-611.244	-139.315	-0.109	-0.012
-610.230	-200.000	-0.030	-0.280
-609.215	18.690	-0.038	-0.030
-608.201	-200.000	0.021	0.189
-607.186	-200.000	0.061	0.318
-606.171	-53.392	-0.149	0.069
-605.157	422.526	-0.139	0.303
-604.142	377.497	-0.079	-0.163
-603.128	-200.000	-0.002	0.364
-602.113	10.585	-0.340	-0.262
-601.098	-99.036	-0.238	-0.061
-600.084	-49.517	-0.148	0.071
-599.069	3.007	-0.239	-0.175
-598.055	-10.653	-0.095	0.064
-597.040	-161.407	-0.006	0.000
-596.025	134.094	-0.181	-0.237
-595.011	-4.277	0.243	0.170
-593.996	2.220	0.142	-0.104
-592.982	100.557	0.105	0.124
-591.967	-129.867	0.449	0.062
-590.952	170.793	-0.318	-0.461
-589.938	-13.283	0.075	0.049
-588.923	-200.000	0.041	0.337
-587.909	234.230	-0.093	0.155
-586.894	-16.908	-0.280	-0.179
-585.879	-71.729	0.379	-0.143
-584.865	83.315	0.253	0.278
-583.850	259.604	0.048	-0.084
-582.836	34.995	-0.191	-0.169
-581.821	16.634	0.286	0.229
-580.806	36.995	-0.207	-0.186
-579.792	-58.903	0.167	-0.073
-578.777	800.000	0.037	0.133
-577.763	103.624	0.068	-0.081
-576.748	302.534	0.123	-0.231
-575.733	-106.219	-0.252	0.057
-574.719	304.655	-0.048	0.091
-573.704	699.417	0.098	-0.262
-572.690	40.224	0.164	0.149
-571.675	-200.000	0.015	0.185
-570.661	-118.280	0.284	-0.051
-569.646	585.843	0.017	0.041
-568.631	181.810	0.075	-0.112
-567.617	247.363	0.130	-0.221
-566.602	-200.000	-0.024	0.250
-565.588	179.484	-0.053	0.079
-564.573	-130.655	0.431	-0.059
-563.558	-178.454	0.293	0.007
-562.544	-20.089	0.095	0.059
-561.529	-135.532	-0.302	-0.036
-560.515	-200.000	-0.008	-0.435
-559.500	2.943	-0.085	0.063
-558.485	59.239	-0.210	0.209
-557.471	268.497	0.061	-0.108
-556.456	-200.000	0.014	0.221
-555.442	165.046	-0.128	0.183
-554.427	182.279	0.231	-0.344
-553.412	-154.720	0.247	0.017
-552.398	265.420	0.026	-0.046
-551.383	86.246	-0.189	-0.210
-550.369	-21.695	-0.244	-0.150
-549.354	-200.000	-0.001	-0.328
-548.339	800.000	0.026	0.090
-547.325	220.273	-0.179	-0.289
-546.310	-200.000	-0.001	-0.012
-545.296	-168.746	-0.201	-0.008
-544.281	-200.000	-0.031	0.142
-543.266	567.085	0.068	-0.167
-542.252	76.937	-0.172	-0.185
-541.237	800.000	-0.024	-0.104
-540.223	363.249	-0.010	0.020
-539.208	-200.000	0.041	0.321
-538.193	800.000	-0.068	0.194
-537.179	-200.000	-0.013	-0.189
-536.164	211.714	0.209	-0.332
-535.150	-101.421	-0.072	0.018
-534.135	304.286	0.113	0.213
-533.121	137.058	0.088	-0.116
-532.106	683.995	0.116	-0.304
-531.091	800.000	0.101	0.413
-530.077	-52.121	-0.207	-0.097
-529.062	46.365	0.233	0.218
-528.048	-200.000	0.027	-0.141
-527.033	258.601	-0.118	0.206
-526.018	800.000	0.051	-0.169
-525.004	-88.084	-0.212	-0.064
-523.989	-11.114	-0.091	0.061
-522.975	-32.762	0.163	-0.092
-521.960	-79.944	-0.131	0.045
-520.945	800.000	-0.090	0.284
-519.931	800.000	0.109	0.467
-518.916	800.000	0.068	0.201
-517.902	-200.000	0.005	0.223
-516.887	-28.219	0.194	-0.113
-515.872	-200.000	-0.006	0.168
-514.858	-155.639	0.044	0.003
-513.843	47.968	0.233	0.219
-512.829	283.537	-0.123	0.224
-511.814	34.891	0.121	0.107
-510.799	-4.952	0.280	0.195
-509.785	800.000	0.094	-0.276
-508.770	146.279	0.166	-0.224
-507.756	-68.287	-0.195	0.077
-506.741	77.071	0.007	0.007
-505.726	-200.000	0.156	-0.001
-504.712	-67.418	0.101	0.040
-503.697	-147.322	0.239	-0.020
-502.683	-200.000	0.094	0.453
-501.668	31.069	0.295	0.255
-500.653	567.941	-0.158	-0.388
-499.639	458.244	-0.045	0.101
-498.624	18.693	-0.151	0.122
-497.610	-200.000	0.020	-0.283
-496.595	181.738	-0.123	-0.182
-495.581	158.509	-0.150	0.209
-494.566	438.087	-0.072	0.158
-493.551	65.066	-0.065	-0.066
-492.537	-128.096	0.089	0.013
-491.522	587.594	-0.032	0.080
-490.508	100.047	-0.130	-0.152
-489.493	-158.540	0.388	0.023
-488.478	-116.561	0.391	0.073
-487.464	73.921	0.008	0.008
-486.449	-138.817	-0.042	0.005
-485.435	7.826	-0.148	-0.112
-484.420	81.693	-0.148	0.162
-483.405	259.073	-0.104	-0.180
-482.391	392.984	0.102	-0.214
-481.376	800.000	0.093	-0.350
-480.362	-200.000	0.040	0.248
-479.347	167.032	-0.103	0.147
-478.332	-57.740	0.127	0.056
-477.318	12.422	-0.269	0.209
-476.303	46.879	0.336	-0.315
-475.289	-200.000	0.016	0.333
-474.274	800.000	-0.030	-0.117
-473.259	-18.404	0.254	0.160
-472.245	246.944	0.094	-0.159
-471.230	-156.480	-0.220	0.014
-470.216	-200.000	-0.051	0.235
-469.201	-56.399	-0.104	0.046
-468.186	11.003	0.160	0.123
-467.172	-23.415	-0.217	-0.131
-466.157	0.323	0.190	-0.137
-465.143	-152.037	-0.083	0.006
-464.128	232.427	0.183	0.303
-463.113	77.977	0.154	0.165
-462.099	-200.000	-0.013	0.100
-461.084	-155.776	0.178	-0.011
-460.070	-122.808	0.162	-0.026
-459.055	107.690	-0.120	0.144
-458.040	-156.214	-0.431	-0.027
-457.026	-200.000	0.036	-0.232
-456.011	-94.758	0.241	0.066
-454.997	321.254	0.150	-0.286
-453.982	-51.344	0.289	-0.136
-452.968	357.531	0.196	-0.393
-451.953	11.080	-0.213	-0.164
-450.938	28.013	-0.422	-0.358
-449.924	-31.053	0.302	-0.171
-448.909	124.055	-0.066	-0.083
-447.895	800.000	-0.152	0.430
-446.880	-200.000	-0.072	0.325
-445.865	-143.632	-0.151	0.014
-444.851	-31.195	0.109	-0.062
-443.836	278.769	0.086	0.155
-442.822	-98.928	-0.123	0.031
-441.807	-78.136	0.024	-0.008
-440.792	-200.000	-0.054	0.337
-439.778	13.364	-0.284	0.221
-438.763	637.033	-0.071	0.183
-437.749	369.247	0.094	0.191
-436.734	-25.115	0.208	-0.124
-435.719	106.446	-0.203	-0.242
-434.705	614.064	0.036	-0.092
-433.690	-160.950	-0.496	-0.026
-432.676	800.000	-0.058	-0.195
-431.661	62.451	-0.077	0.078
-430.646	41.235	0.210	-0.191
-429.632	273.918	0.151	-0.269
-428.617	140.772	0.231	0.306
-427.603	-43.398	0.262	0.133
-426.588	-150.903	0.180	-0.014
-425.573	270.093	-0.046	0.081
-424.559	139.930	-0.196	0.260
-423.544	97.265	-0.146	0.169
-422.530	800.000	0.043	-0.183
-421.515	800.000	-0.047	-0.189
-420.500	-200.000	-0.031	0.441
-419.486	-62.072	-0.223	-0.094
-418.471	422.752	0.032	0.069
-417.457	462.666	0.123	-0.275
-416.442	-86.762	0.106	-0.033
-415.428	-101.968	-0.149	0.036
-414.413	-13.193	0.266	-0.174
-413.398	-141.656	-0.426	0.043
-412.384	-37.180	-0.383	0.206
-411.369	-56.975	0.553	-0.245
-410.355	-47.239	-0.198	-0.097
-409.340	192.160	0.143	-0.217
-408.325	367.789	0.186	-0.378
-407.311	800.000	-0.015	-0.047
-406.296	-200.000	0.007	0.300
-405.282	-45.798	0.070	-0.035
-404.267	800.000	0.068	0.194
-403.252	-127.300	0.122	0.018
-402.238	257.768	0.155	-0.268
-401.223	-200.000	-0.021	-0.287
-400.209	533.913	-0.074	-0.176
-399.194	-200.000	0.053	0.253
-398.179	176.267	0.224	0.327
-397.165	256.620	-0.044	-0.077
-396.150	-40.109	0.093	0.049
-395.136	759.101	0.101	0.274
-394.121	-200.000	-0.020	0.114
-393.106	45.810	-0.206	-0.191
-392.092	-92.414	-0.354	0.100
-391.077	288.791	0.108	-0.196
-390.063	75.293	-0.066	0.069
-389.048	16.395	-0.154	0.122
-388.033	-129.727	0.074	0.010
-387.019	796.764	0.057	-0.156
-386.004	-37.126	-0.411	-0.221
-384.990	545.760	-0.121	-0.290
-383.975	32.360	-0.248	0.215
-382.960	28.759	-0.128	-0.109
-381.946	-65.296	-0.156	-0.063
-380.931	348.160	-0.099	-0.196
-379.917	-32.587	-0.188	0.105
-378.902	-101.177	0.072	0.018
-377.888	539.612	0.083	0.199
-376.873	78.038	-0.075	-0.081
-375.858	132.167	0.190	-0.245
-374.844	163.734	-0.126	0.178
-373.829	122.847	-0.093	-0.117
-372.815	11.033	-0.149	-0.114
-371.800	800.000	-0.023	-0.097
-370.785	91.071	-0.141	0.159
-369.771	67.377	0.107	0.110
-368.756	-200.000	-0.063	-0.339
-367.742	-94.734	0.218	-0.059
-366.727	-136.006	0.098	-0.012
-365.712	312.152	-0.057	-0.107
-364.698	78.847	0.121	-0.130
-363.683	61.822	-0.270	-0.270
-362.669	-64.768	-0.075	0.030
-361.654	-67.172	-0.096	0.038
-360.639	71.681	-0.165	-0.172
-359.625	800.000	-0.056	-0.179
-358.610	51.373	-0.123	0.118
-357.596	800.000	0.062	0.194
-356.581	-120.871	0.351	-0.059
-355.566	-122.485	-0.275	-0.045
-354.552	198.995	0.156	0.239
-353.537	800.000	-0.093	-0.268
-352.523	800.000	0.025	-0.103
-351.508	117.326	-0.237	0.292
-350.493	800.000	0.046	-0.135
-349.479	-25.426	0.348	0.206
-348.464	-104.547	-0.239	-0.055
-347.450	-163.894	0.159	-0.007
-346.435	355.444	-0.095	0.190
-345.420	-107.818	-0.224	-0.049
-344.406	-53.871	-0.386	-0.177
-343.391	-200.000	0.038	-0.491
-342.377	18.241	-0.070	0.056
-341.362	-68.644	0.157	0.061
-340.348	16.012	0.285	-0.225
-339.333	-176.847	0.205	0.005
-338.318	347.497	0.107	-0.212
-337.304	-14.810	0.501	0.322
-336.289	-24.752	0.197	-0.117
-335.275	-64.736	0.107	-0.044
-334.260	800.000	0.030	0.128
-333.245	-141.149	-0.163	0.017
-332.231	170.651	-0.030	0.043
-331.216	-200.000	0.047	0.272
-330.202	-200.000	-0.064	0.459
-329.187	125.362	-0.028	-0.035
-328.172	-74.062	0.209	-0.076
-327.158	114.652	-0.120	0.146
-326.143	-70.526	-0.292	0.111
-325.129	-40.023	0.047	0.025
-324.114	800.000	-0.090	-0.257
-323.099	169.606	0.289	-0.413
-322.085	-85.393	-0.112	-0.035
-321.070	686.076	0.066	-0.172
-320.056	666.383	0.036	-0.092
-319.041	763.766	0.024	0.066
-318.026	-35.536	-0.139	0.076
-317.012	-200.000	-0.000	0.152
-315.997	-200.000	0.025	0.164
-314.983	618.738	-0.051	0.128
-313.968	800.000	0.041	0.115
-312.953	-111.796	-0.287	-0.058
-311.939	764.849	0.109	0.295
-310.924	-200.000	0.000	0.070
-309.910	-200.000	-0.024	0.128
-308.895	307.530	-0.070	-0.130
-307.880	48.913	-0.113	-0.106
-306.866	-102.668	0.357	-0.085
-305.851	102.468	0.080	-0.094
-304.837	55.539	0.124	0.120
-303.822	5.399	-0.168	-0.124
-302.807	-200.000	-0.026	-0.124
-301.793	800.000	-0.029	0.118
-300.778	18.381	0.221	0.177
-299.764	695.456	-0.103	-0.270
-298.749	171.740	0.095	-0.136
-297.735	-182.633	-0.307	-0.006
-296.720	800.000	-0.017	-0.068
-295.705	437.685	0.041	-0.089
-294.691	-128.306	-0.367	-0.052
-293.676	345.832	0.094	0.184
-292.662	-70.093	0.341	-0.130
-291.647	144.313	0.076	-0.102
-290.632	39.824	0.120	0.108
-289.618	-124.981	-0.408	-0.063
-288.603	-200.000	-0.031	0.212
-287.589	-200.000	-0.017	-0.365
-286.574	-113.689	-0.299	-0.058
-285.559	-43.976	-0.271	-0.136
-284.545	62.262	0.457	-0.456
-283.530	172.634	-0.154	-0.222
-282.516	-100.983	0.128	0.031
-281.501	173.050	-0.160	0.231
-280.486	-10.508	0.140	-0.093
-279.472	93.204	0.038	-0.043
-278.457	55.465	-0.151	-0.146
-277.443	-8.760	0.271	-0.182
-276.428	-200.000	0.024	0.381
-275.413	-200.000	0.072	-0.408
-274.399	800.000	0.098	0.363
-273.384	86.430	0.194	-0.214
-272.370	563.014	-0.066	0.160
-271.355	800.000	0.036	-0.109
-270.340	800.000	-0.086	-0.254
-269.326	-7.345	-0.160	-0.108
-268.311	-6.221	0.106	-0.072
-267.297	648.433	0.048	-0.123
-266.282	-125.863	-0.133	-0.020
-265.267	47.092	0.282	0.262
-264.253	-18.070	-0.309	0.193
-263.238	-14.724	0.118	0.076
-262.224	55.050	-0.144	0.139
-261.209	415.804	-0.041	0.088
-260.195	-110.079	-0.034	-0.007
-259.180	-106.692	0.204	0.045
-258.165	-1.459	0.182	0.128
-257.151	-200.000	-0.054	0.321
-256.136	60.154	0.246	-0.243
-255.122	357.317	-0.032	0.063
-254.107	78.184	0.174	0.186
-253.092	411.235	0.035	0.075
-252.078	-118.428	-0.188	0.033
-251.063	151.851	-0.283	0.385
-250.049	287.959	-0.106	0.192
-249.034	-48.202	-0.288	0.139
-248.019	430.224	-0.052	-0.112
-247.005	-51.343	0.376	0.176
-245.990	800.000	-0.055	-0.217
-244.976	-200.000	-0.022	0.261
-243.961	-93.057	0.100	0.028
-242.946	208.059	0.141	0.220
-241.932	-63.439	0.379	-0.155
-240.917	-200.000	-0.044	0.219
-239.903	32.868	-0.172	-0.148
-238.888	361.016	-0.124	-0.249
-237.873	-83.594	-0.530	-0.169
-236.859	441.307	0.067	0.146
-235.844	-134.959	0.134	0.016
-234.830	85.878	-0.070	0.077
-233.815	8.599	0.091	0.068
-232.800	-43.416	0.083	0.042
-231.786	19.105	0.216	0.173
-230.771	164.161	0.152	0.213
-229.757	-20.931	-0.306	-0.187
-228.742	618.610	0.091	0.227
-227.727	-148.987	0.078	-0.006
-226.713	191.153	0.053	0.080
-225.698	-109.666	0.175	-0.037
-224.684	7.364	-0.176	0.131
-223.669	-65.286	0.212	0.085
-222.655	-128.199	-0.340	-0.048
-221.640	-200.000	-0.004	0.028
-220.625	61.945	0.209	0.208
-219.611	94.602	0.110	-0.125
-218.596	432.839	0.203	-0.440
-217.582	218.994	0.063	-0.101
-216.567	85.302	0.262	0.287
-215.552	1.615	-0.297	0.213
-214.538	-112.393	0.227	0.045
-213.523	127.436	-0.200	0.253
-212.509	47.062	-0.142	-0.132
-211.494	11.825	-0.179	0.137
-210.479	800.000	-0.038	-0.139
-209.465	-200.000	0.051	-0.307
-208.450	259.672	-0.046	0.080
-207.436	-95.871	0.176	0.047
-206.421	-200.000	-0.059	0.277
-205.406	-84.945	-0.144	-0.045
-204.392	-200.000	0.019	-0.094
-203.377	-53.223	0.299	-0.137
-202.363	633.690	-0.071	-0.179
-201.348	164.242	-0.258	-0.362
-200.333	800.000	0.076	0.249
-199.319	-200.000	-0.014	-0.177
-198.304	800.000	-0.049	-0.174
-197.290	7.969	0.093	0.069
-196.275	-22.992	0.305	-0.183
-195.260	151.976	0.186	0.253
-194.246	-200.000	0.010	-0.122
-193.231	-114.543	0.143	-0.027
-192.217	-16.015	-0.095	0.060
-191.202	-200.000	0.062	-0.285
-190.187	46.334	0.099	-0.092
-189.173	-89.063	-0.217	-0.064
-188.158	141.799	0.150	-0.198
-187.144	800.000	-0.050	-0.179
-186.129	-102.208	-0.315	0.075
-185.114	-120.780	0.179	-0.030
-184.100	-63.682	-0.333	-0.136
-183.085	-76.479	-0.268	-0.094
-182.071	-55.356	-0.189	-0.084
-181.056	-60.687	0.109	0.046
-180.042	-63.436	0.268	-0.110
-179.027	23.276	0.090	-0.073
-178.012	251.087	0.021	-0.036
-176.998	296.501	-0.216	-0.395
-175.983	-48.848	0.080	0.038
-174.969	-200.000	0.001	0.116
-173.954	-200.000	-0.062	0.313
-172.939	800.000	-0.110	0.375
-171.925	-190.598	0.282	0.003
-170.910	-64.621	-0.337	0.136
-169.896	-14.134	0.354	0.227
-168.881	-101.227	-0.066	-0.016
-167.866	-200.000	-0.075	-0.339
-166.852	322.350	-0.139	0.263
-165.837	-200.000	-0.051	0.336
-164.823	18.308	-0.243	-0.193
-163.808	-64.632	0.038	0.015
-162.793	-114.296	-0.315	0.060
-161.779	-200.000	-0.020	-0.218
-160.764	65.182	0.027	0.027
-159.750	800.000	-0.076	0.262
-158.735	55.148	0.135	0.130
-157.720	-12.631	0.100	0.065
-156.706	-200.000	0.054	0.286
-155.691	800.000	0.017	0.048
-154.677	-122.261	0.243	0.040
-153.662	-127.953	-0.311	-0.045
-152.647	-199.446	-0.257	0.001
-151.633	-200.000	-0.041	0.215
-150.618	-61.629	0.103	0.043
-149.604	-97.672	0.389	-0.100
-148.589	-4.415	-0.285	-0.196
-147.574	-200.000	-0.014	0.234
-146.560	383.728	-0.104	-0.213
-145.545	-200.000	-0.026	-0.185
-144.531	62.972	-0.066	0.065
-143.516	76.426	-0.076	0.080
-142.502	-10.670	0.155	-0.102
-141.487	-200.000	-0.000	0.163
-140.472	117.092	0.130	0.158
-139.458	800.000	-0.053	0.166
-138.443	-59.921	0.177	0.075
-137.429	-5.898	-0.127	0.086
-136.414	-34.970	0.164	-0.089
-135.399	7.721	0.149	-0.111
-134.385	99.365	0.066	0.075
-133.370	41.974	0.149	0.134
-132.356	158.896	0.186	0.256
-131.341	-63.604	0.165	0.067
-130.326	-29.910	-0.209	-0.118
-129.312	8.662	0.137	0.102
-128.297	-200.000	-0.012	0.137
-127.283	99.740	0.141	0.163
-126.268	800.000	-0.056	0.186
-125.253	-190.219	-0.240	-0.003
-124.239	-138.464	0.196	0.021
-123.224	171.808	-0.139	-0.199
-122.210	230.660	0.289	-0.470
-121.195	-7.513	0.135	0.091
-120.180	161.650	-0.110	0.153
-119.166	232.428	-0.018	-0.030
-118.151	-109.864	0.135	-0.028
-117.137	-103.705	0.048	-0.011
-116.122	399.912	-0.023	-0.049
-115.107	587.927	0.204	-0.498
-114.093	-26.893	0.248	-0.144
-113.078	171.537	-0.087	0.125
-112.064	800.000	0.109	0.381
-111.049	154.649	0.037	0.051
-110.034	-182.665	0.362	-0.007
-109.020	-143.551	-0.038	0.004
-108.005	-180.912	0.096	-0.002
-106.991	-40.248	-0.078	0.040
-105.976	-200.000	-0.035	-0.378
-104.962	-200.000	-0.039	-0.192
-103.947	470.740	-0.017	-0.038
-102.932	47.907	0.195	0.181
-101.918	-125.514	0.166	-0.025
-100.903	21.115	0.193	-0.156
-99.889	-200.000	-0.067	0.334
-98.874	-76.349	0.022	-0.008
-97.859	28.548	0.219	0.184
-96.845	37.730	-0.124	-0.110
-95.830	92.502	-0.187	0.209
-94.816	-140.555	-0.390	-0.040
-93.801	-42.112	0.157	0.079
-92.786	800.000	0.032	-0.101
-91.772	-98.323	-0.210	-0.053
-90.757	-94.980	0.394	-0.106
-89.743	-200.000	0.000	-0.057
-88.728	-200.000	0.006	0.313
-87.713	-200.000	-0.028	-0.130
-86.699	-200.000	0.003	-0.152
-85.684	-140.589	0.296	0.030
-84.670	763.896	-0.030	0.082
-83.655	-131.653	-0.188	-0.025
-82.640	-1.115	0.153	-0.107
-81.626	-156.984	-0.105	-0.006
-80.611	-151.126	0.088	0.007
-79.597	54.251	-0.131	-0.125
-78.582	-111.693	0.246	0.050
-77.567	-83.671	0.244	-0.077
-76.553	489.239	0.049	0.112
-75.538	-200.000	0.014	-0.088
-74.524	-103.964	-0.147	-0.034
-73.509	-200.000	-0.015	0.069
-72.494	-200.000	-0.031	-0.288
-71.480	-110.063	0.246	0.051
-70.465	82.168	0.116	0.124
-69.451	-36.751	0.389	0.207
-68.436	3.539	0.050	-0.036
-67.422	-160.140	-0.124	0.007
-66.407	-89.431	0.260	0.076
-65.392	314.390	-0.063	-0.118
-64.378	-200.000	-0.199	-0.000
-63.363	-200.000	-0.017	0.347
-62.349	-174.107	0.309	0.009
-61.334	43.121	-1.078	-0.975
-60.319	-34.928	0.552	0.299
-59.305	-200.000	-0.182	-0.815
-58.290	36.380	0.462	0.404
-57.276	800.000	0.390	1.448
-56.261	-200.000	94.144	553.267
-55.246	533.775	1377.210	3232.652
-54.232	150.493	2593.798	3490.207
-53.217	112.501	2206.507	2645.396
-52.203	45.150	1741.081	1589.811
-51.188	37.857	1551.743	1366.006
-50.173	35.403	1523.864	1324.494
-49.159	53.870	1574.251	1498.306
-48.144	57.417	1592.790	1540.777
-47.130	38.332	1548.292	1366.071
-46.115	35.043	1532.784	1329.537
-45.100	34.804	1529.798	1325.235
-44.086	34.789	1528.050	1323.562
-43.071	34.685	1526.122	1321.120
-42.057	34.707	1524.570	1319.880
-41.042	34.624	1522.790	1317.710
-40.027	34.742	1521.297	1317.183
-39.013	34.720	1520.094	1315.935
-37.998	34.747	1518.600	1314.777
-36.984	34.767	1517.361	1313.789
-35.969	34.801	1516.091	1312.871
-34.954	34.715	1514.789	1311.102
-33.940	34.626	1513.663	1309.467
-32.925	34.708	1511.920	1308.463
-31.911	34.824	1510.457	1307.943
-30.896	34.889	1508.979	1307.052
-29.881	34.865	1508.010	1305.999
-28.867	34.888	1506.040	1304.396
-27.852	34.778	1505.107	1302.787
-26.838	34.795	1503.734	1301.667
-25.823	34.864	1501.660	1300.287
-24.809	34.816	1500.224	1298.663
-23.794	34.808	1498.527	1297.088
-22.779	34.749	1498.120	1296.285
-21.765	34.843	1496.719	1295.662
-20.750	34.803	1495.635	1294.401
-19.736	34.845	1494.453	1293.610
-18.721	34.811	1493.770	1292.734
-17.706	34.720	1492.512	1290.979
-16.692	34.718	1491.469	1290.013
-15.677	34.680	1490.489	1288.860
-14.663	34.648	1489.619	1287.843
-13.648	34.728	1488.332	1287.219
-12.633	34.687	1487.464	1286.136
-11.619	34.720	1486.377	1285.368
-10.604	34.757	1485.631	1284.922
-9.590	34.682	1484.957	1283.780
-8.575	34.701	1483.984	1283.019
-7.560	34.677	1483.737	1282.591
-6.546	34.669	1482.737	1281.627
-5.531	34.701	1481.938	1281.095
-4.517	34.671	1480.861	1279.916
-3.502	34.599	1480.344	1278.934
-2.487	34.746	1478.268	1278.071
-1.473	34.671	1477.348	1276.728
-0.458	34.793	1475.856	1276.199
0.556	34.764	1467.461	1267.347
1.571	32.524	1442.036	1230.662
2.586	29.681	1382.492	1161.897
3.600	28.351	1301.699	1086.020
4.615	26.531	1254.132	1035.838
5.629	21.946	1194.155	961.162
6.644	11.090	1104.153	833.367
7.659	3.149	1060.641	761.283
8.673	2.097	1055.127	752.078
9.688	1.899	1051.730	748.617
10.702	1.650	1050.096	746.165
11.717	1.486	1048.598	744.235
12.731	4.747	1052.299	762.798
13.746	14.873	1066.759	823.306
14.761	23.180	1077.596	872.745
15.775	24.895	1079.446	882.631
16.790	25.155	1078.789	883.295
17.804	25.063	1077.960	882.084
18.819	24.917	1076.569	880.152
19.834	24.880	1076.935	880.191
20.848	25.132	1076.161	880.721
21.863	25.109	1076.527	880.828
22.877	25.122	1075.199	879.728
23.892	25.091	1074.800	879.172
24.907	25.021	1073.714	877.862
25.921	25.055	1073.397	877.692
26.936	24.971	1072.500	876.470
27.950	25.075	1071.274	875.898
28.965	25.008	1070.191	874.610
29.980	24.763	1069.270	872.583
30.994	24.936	1067.310	871.748
32.009	25.011	1067.065	871.838
33.023	25.225	1066.524	872.358
34.038	25.048	1064.780	869.993
35.053	24.896	1064.611	869.043
36.067	25.107	1063.512	869.089
37.082	25.099	1062.904	868.477
38.096	25.060	1062.393	867.796
39.111	25.245	1061.767	868.103
40.126	25.389	1060.597	867.766
41.140	25.269	1059.552	866.253
42.155	25.073	1057.487	863.546
43.169	24.657	1056.736	860.851
44.184	24.607	1055.851	859.813
45.199	24.669	1054.974	859.324
46.213	24.649	1053.779	858.175
47.228	24.539	1053.585	857.416
48.242	24.816	1052.584	857.851
49.257	24.824	1051.680	857.078
50.271	24.885	1050.779	856.558
51.286	25.113	1050.340	857.219
52.301	25.029	1049.536	856.082
53.315	25.201	1048.576	856.043
54.330	25.166	1047.761	855.137
55.344	25.123	1047.208	854.406
56.359	25.119	1046.364	853.623
57.374	25.128	1045.017	852.491
58.388	24.927	1044.105	850.716
59.403	24.789	1043.787	849.726
60.417	24.782	1042.631	848.678
61.432	24.666	1041.578	847.194
62.447	24.599	1041.225	846.517
63.461	24.729	1040.805	846.713
64.476	24.818	1039.797	846.239
65.490	24.850	1039.010	845.675
66.505	24.669	1038.266	844.141
67.520	24.618	1037.453	843.165
68.534	24.774	1036.590	843.127
69.549	24.627	1035.579	841.538
70.563	24.437	1034.087	839.356
71.578	24.267	1033.668	838.140
72.593	24.225	1032.965	837.302
73.607	24.140	1032.019	836.061
74.622	24.171	1030.609	834.988
75.636	24.329	1030.226	835.344
76.651	24.546	1030.004	836.108
77.666	24.516	1028.832	834.943
78.680	24.362	1027.653	833.193
79.695	24.429	1027.221	833.079
80.709	24.477	1026.301	832.484
81.724	24.559	1025.702	832.307
82.739	24.577	1024.963	831.719
83.753	24.546	1024.468	831.097
84.768	24.953	1023.642	832.245
85.782	25.209	1023.112	832.932
86.797	25.392	1022.148	832.920
87.812	25.319	1021.299	831.818
88.826	25.122	1020.239	829.970
89.841	25.231	1019.563	829.851
90.855	25.262	1018.815	829.310
91.870	25.255	1018.216	828.716
92.884	25.218	1017.525	827.912
93.899	25.217	1016.297	826.832
94.914	25.102	1015.596	825.662
95.928	25.180	1014.734	825.244
96.943	25.184	1013.781	824.417
97.957	24.839	1012.837	821.990
98.972	24.695	1011.956	820.543
99.987	24.576	1010.656	818.870
101.001	24.673	1009.575	818.368
102.016	24.911	1009.586	819.391
103.030	24.974	1008.551	818.768
104.045	24.897	1007.618	817.585
105.060	24.805	1006.403	816.107
106.074	24.583	1005.445	814.248
107.089	24.664	1004.737	813.973
108.103	24.930	1004.449	814.876
109.118	24.971	1003.283	814.046
110.133	24.686	1002.061	811.687
111.147	24.749	1001.008	811.047
112.162	24.510	1000.243	809.272
113.176	24.356	998.519	807.110
114.191	24.433	998.396	807.288
115.206	24.644	997.588	807.516
116.220	24.467	995.949	805.320
117.235	24.091	995.782	803.418
118.249	24.325	995.019	803.787
119.264	24.497	994.261	803.877
120.279	24.335	993.457	802.427
121.293	24.367	992.388	801.636
122.308	24.300	991.768	800.765
123.322	24.367	991.209	800.540
124.337	24.337	990.032	799.385
125.352	24.265	988.284	797.581
126.366	23.904	987.247	795.062
127.381	23.698	985.631	792.771
128.395	24.079	985.604	794.377
129.410	24.695	985.063	796.618
130.424	24.885	984.574	796.998
131.439	25.020	983.412	796.586
132.454	24.835	982.502	794.958
133.468	24.842	981.805	794.352
134.483	24.915	980.819	793.810
135.497	24.872	980.277	793.112
136.512	25.013	980.048	793.478
137.527	25.229	978.823	793.373
138.541	25.071	978.454	792.303
139.556	25.147	977.361	791.687
140.570	25.185	976.475	791.063
141.585	25.183	975.701	790.357
142.600	25.199	975.428	790.138
143.614	25.106	974.348	788.783
144.629	25.241	973.440	788.574
145.643	25.569	972.634	789.290
146.658	25.359	971.758	787.588
147.673	25.218	970.197	785.636
148.687	25.074	969.464	784.343
149.702	25.057	968.306	783.265
150.716	24.990	967.084	781.913
151.731	24.829	966.569	780.725
152.746	24.870	965.743	780.169
153.760	25.207	965.112	781.057
154.775	25.260	964.081	780.382
155.789	25.406	963.495	780.474
156.804	25.358	962.631	779.497
157.819	25.176	961.845	778.001
158.833	25.299	960.706	777.544
159.848	25.447	960.269	777.762
160.862	25.286	959.861	776.666
161.877	25.213	958.723	775.363
162.892	25.211	957.648	774.417
163.906	25.279	956.822	773.974
164.921	25.261	955.600	772.838
165.935	25.123	955.025	771.712
166.950	25.177	953.717	770.816
167.964	25.373	952.806	770.853
168.979	25.278	951.970	769.703
169.994	25.116	950.651	767.876
171.008	24.960	950.130	766.716
172.023	25.077	949.376	766.542
173.037	25.384	948.439	767.031
174.052	25.207	947.427	765.387
175.067	25.086	946.259	763.862
176.081	24.977	945.329	762.578
177.096	25.061	945.224	762.785
178.110	25.044	944.321	761.916
179.125	24.740	943.131	759.598
180.140	24.732	941.535	758.210
181.154	24.760	940.882	757.737
182.169	24.726	940.496	757.213
183.183	24.917	940.494	757.956
184.198	25.255	940.109	759.007
185.213	25.330	939.226	758.542
186.227	25.113	938.893	757.292
187.242	25.103	938.790	757.098
188.256	25.441	937.309	757.262
189.271	25.244	936.741	755.906
190.286	25.326	935.953	755.548
191.300	25.209	935.183	754.368
192.315	24.536	933.802	750.359
193.329	23.799	932.223	745.933
194.344	23.528	930.906	743.676
195.359	24.083	931.399	746.335
196.373	24.908	931.812	750.056
197.388	25.225	931.537	751.094
198.402	25.044	930.896	749.755
199.417	25.193	930.246	749.788
200.432	25.143	929.853	749.193
201.446	25.081	929.000	748.183
202.461	24.740	928.530	746.317
203.475	24.832	927.758	746.014
204.490	24.301	926.665	742.856
205.504	23.172	924.606	736.445
206.519	23.641	924.307	738.090
207.534	24.523	924.694	742.001
208.548	24.766	923.904	742.311
209.563	25.128	923.748	743.621
210.577	25.219	922.724	743.109
211.592	24.920	921.868	741.117
212.607	25.101	922.439	742.259
213.621	25.341	921.652	742.551
214.636	25.200	921.198	741.536
215.650	25.324	920.541	741.454
216.665	25.275	919.665	740.484
217.680	25.287	919.211	740.101
218.694	25.322	919.006	740.016
219.709	25.198	917.606	738.312
220.723	24.706	916.713	735.504
221.738	24.869	916.735	736.127
222.753	25.204	915.788	736.676
223.767	25.090	915.156	735.635
224.782	25.209	914.292	735.363
225.796	25.289	914.194	735.548
226.811	25.550	913.500	735.994
227.826	25.134	912.203	733.183
228.840	24.199	910.519	727.948
229.855	24.172	909.719	727.132
230.869	24.373	909.900	728.034
231.884	24.086	908.743	725.875
232.899	24.093	908.290	725.474
233.913	24.812	908.808	728.755
234.928	25.119	907.975	729.272
235.942	24.975	907.350	728.121
236.957	24.992	906.728	727.625
237.972	24.832	905.800	726.167
238.986	24.572	905.233	724.593
240.001	24.838	904.176	724.761
241.015	24.830	903.543	724.156
242.030	24.827	903.266	723.859
243.045	24.853	902.883	723.592
244.059	25.064	902.374	723.972
245.074	25.226	902.018	724.276
246.088	25.230	900.964	723.382
247.103	24.840	900.092	721.049
248.117	24.994	899.665	721.260
249.132	25.386	899.620	722.740
250.147	25.717	899.742	724.107
251.161	25.872	898.781	723.890
252.176	26.017	898.512	724.192
253.190	26.068	897.635	723.625
254.205	26.013	897.505	723.238
255.220	26.375	896.792	724.048
256.234	26.284	896.191	723.134
257.249	26.108	895.683	721.958
258.263	25.941	895.061	720.723
259.278	25.911	894.669	720.224
260.293	25.849	894.233	719.564
261.307	26.170	893.292	720.021
262.322	26.070	892.673	719.060
263.336	25.953	891.855	717.872
264.351	25.617	890.345	715.259
265.366	24.426	888.441	708.939
266.380	23.862	887.870	706.180
267.395	24.697	888.330	709.799
268.409	25.619	888.428	713.474
269.424	25.577	887.265	712.310
270.439	25.652	886.941	712.285
271.453	25.845	886.516	712.642
272.468	25.733	886.359	712.011
273.482	25.898	885.922	712.249
274.497	26.069	885.234	712.306
275.512	25.916	883.966	710.620
276.526	25.403	882.701	707.522
277.541	25.449	882.699	707.639
278.555	25.922	882.148	708.993
279.570	25.726	881.369	707.537
280.585	25.461	880.596	705.812
281.599	25.580	880.208	705.906
282.614	25.771	879.879	706.329
283.628	25.324	878.568	703.465
284.643	24.816	878.065	701.007
285.657	25.380	877.873	703.000
286.672	25.110	877.296	701.421
287.687	24.726	875.893	698.737
288.701	25.171	875.793	700.335
289.716	25.558	875.639	701.657
290.730	25.203	874.553	699.341
291.745	25.098	874.035	698.457
292.760	24.743	873.102	696.267
293.774	24.867	872.637	696.317
294.789	25.639	873.406	699.874
295.803	26.428	873.096	702.629
296.818	26.293	872.710	701.733
297.833	26.484	872.353	702.127
298.847	26.132	870.925	699.549
299.862	25.672	870.299	697.204
300.876	25.838	869.850	697.424
301.891	26.300	869.434	698.818
302.906	26.451	868.933	698.936
303.920	25.946	867.612	695.862
304.935	25.912	867.112	695.270
305.949	26.238	867.147	696.494
306.964	26.361	866.160	696.114
307.979	26.050	865.735	694.510
308.993	26.036	865.043	693.842
310.008	26.427	864.889	695.160
311.022	26.549	864.482	695.238
312.037	26.336	863.969	693.947
313.052	26.008	863.118	691.945
314.066	25.889	862.384	690.838
315.081	25.355	860.789	687.457
316.095	24.575	859.700	683.544
317.110	24.958	860.068	685.240
318.125	25.827	860.356	688.733
319.139	25.557	859.013	686.567
320.154	24.421	857.371	680.861
321.168	24.155	856.248	678.897
322.183	24.606	856.630	680.859
323.197	25.463	857.218	684.531
324.212	25.844	856.627	685.449
325.227	25.989	856.453	685.802
326.241	26.071	856.025	685.711
327.256	26.062	855.447	685.150
328.270	25.941	854.538	683.902
329.285	25.742	854.125	682.757
330.300	25.632	853.559	681.828
331.314	25.487	852.263	680.183
332.329	25.479	851.985	679.869
333.343	25.908	851.867	681.340
334.358	26.344	851.292	682.466
335.373	26.189	850.992	681.578
336.387	26.308	850.159	681.300
337.402	26.390	850.010	681.430
338.416	26.764	849.335	682.238
339.431	26.608	849.350	681.601
340.446	26.675	848.455	681.075
341.460	26.954	847.886	681.607
342.475	26.892	847.229	680.783
343.489	26.663	846.588	679.349
344.504	26.624	846.152	678.792
345.519	26.764	846.234	679.324
346.533	27.004	845.511	679.584
347.548	27.028	845.165	679.333
348.562	27.038	844.605	678.862
349.577	27.033	844.130	678.400
350.592	26.844	843.479	677.112
351.606	26.998	842.683	676.986
352.621	26.900	842.563	676.467
353.635	26.824	841.865	675.564
354.650	26.821	841.275	675.018
355.665	26.514	840.410	673.122
356.679	25.392	838.808	667.613
357.694	25.269	838.196	666.608
358.708	25.861	838.173	668.731
359.723	25.934	837.538	668.433
360.738	26.172	837.268	669.043
361.752	26.576	837.356	670.550
362.767	26.657	837.235	670.694
363.781	26.962	837.146	671.691
364.796	27.133	836.877	672.050
365.810	27.240	836.466	672.054
366.825	27.325	836.036	671.964
367.840	27.431	835.813	672.115
368.854	27.325	834.463	670.582
369.869	26.702	834.141	667.968
370.883	26.610	833.328	666.918
371.898	26.806	832.644	667.034
372.913	26.615	832.164	665.886
373.927	26.675	831.256	665.323
374.942	26.726	830.886	665.152
375.956	26.814	830.698	665.267
376.971	26.950	829.781	664.972
377.986	27.114	829.517	665.302
379.000	27.269	829.312	665.648
380.015	27.389	828.466	665.347
381.029	27.184	827.649	663.883
382.044	27.153	827.176	663.334
383.059	27.303	826.707	663.445
384.073	27.231	826.217	662.730
385.088	27.337	825.706	662.648
386.102	27.248	825.335	661.966
387.117	27.263	824.379	661.195
388.132	27.006	823.993	659.895
389.146	26.930	822.962	658.736
390.161	26.327	822.318	655.974
391.175	26.415	821.506	655.587
392.190	26.927	822.198	657.936
393.205	26.850	821.844	657.317
394.219	26.069	819.968	652.933
395.234	24.302	817.320	644.389
396.248	23.482	816.385	640.633
397.263	24.641	817.197	645.402
398.278	26.524	818.247	652.976
399.292	27.001	818.255	654.642
400.307	26.576	817.799	652.687
401.321	26.567	817.482	652.344
402.336	26.499	817.089	651.730
403.350	26.899	816.591	652.715
404.365	27.239	816.963	654.175
405.380	27.727	816.779	655.726
406.394	27.970	816.801	656.560
407.409	28.047	816.173	656.271
408.423	28.036	815.509	655.641
409.438	28.017	814.922	655.044
410.453	27.856	814.800	654.310
411.467	27.985	814.360	654.359
412.482	27.893	813.393	653.197
413.496	27.847	812.997	652.658
414.511	28.025	812.690	652.989
415.526	28.188	812.200	653.118
416.540	27.970	812.182	652.269
417.555	27.891	811.662	651.511
418.569	27.489	810.802	649.332
419.584	27.614	810.233	649.261
420.599	27.737	809.429	648.999
421.613	105.625	1281.493	1442.188
422.628	91.129	1350.298	1442.301
