DTS Sentinel unit serial number:	SN413079Multiplexer serial number:	ORYXHardware model number:	OX4-SRSoftware version number:	ORYX F/W v4.00 Oryx Data Collector v3.7.2.0data status	okinstallation	princeton_trtdifferential loss correction	single-endedforward channel	channel 3reverse channel	N/Adate	2019/09/17time	02:16:35forward acquisition time	60.00reverse acquisition time	0.00gamma	496.2192k internal	0.2323k external	0.2323temperature offset calibration	0.9945default loss term (dB/km)	0.3790temperature slope calibration	1.0000multiplexer offset coefficient	1.0000multiplexer slope coefficient	1.0000fibre end	0.00T internal ref (°C)	29.75T ext. ref 1 (°C)	0.11T ext. ref 2 (°C)	24.67length (m)	temperature (°C)	Stokes	anti-Stokes-747.200	389.725	-0.208	0.435
-746.185	-20.142	-0.343	0.213
-745.171	-151.045	-0.467	-0.035
-744.156	102.917	0.125	-0.147
-743.142	-200.000	0.000	0.114
-742.127	-200.000	0.054	0.398
-741.112	431.824	-0.098	0.214
-740.098	-22.428	-0.196	0.120
-739.083	-33.841	-0.090	0.050
-738.069	276.090	0.266	0.476
-737.054	-83.464	-0.296	-0.096
-736.039	13.189	-0.263	0.205
-735.025	-73.648	0.508	0.187
-734.010	77.740	0.024	-0.026
-732.996	80.393	-0.099	-0.108
-731.981	144.979	0.211	-0.284
-730.966	-143.053	-0.321	0.031
-729.952	519.384	-0.043	-0.102
-728.937	20.044	0.102	-0.083
-727.923	-26.868	0.160	0.094
-726.908	-200.000	0.005	0.137
-725.894	47.938	-0.275	-0.259
-724.879	87.180	0.159	-0.177
-723.864	800.000	-0.116	-0.368
-722.850	-200.000	0.048	0.228
-721.835	-76.053	-0.199	0.071
-720.821	142.397	0.054	-0.072
-719.806	-122.297	-0.113	0.019
-718.791	-76.796	-0.136	0.048
-717.777	63.993	-0.017	0.017
-716.762	-72.160	0.307	-0.115
-715.748	323.996	-0.123	-0.236
-714.733	109.881	-0.072	0.087
-713.718	-49.945	-0.294	-0.141
-712.704	800.000	0.032	-0.122
-711.689	-35.351	0.186	0.102
-710.675	-157.118	-0.358	-0.022
-709.660	-200.000	0.012	-0.085
-708.645	576.035	-0.113	-0.277
-707.631	-200.000	-0.018	-0.248
-706.616	-75.161	-0.474	-0.171
-705.602	-183.350	0.334	-0.006
-704.587	6.456	-0.287	-0.215
-703.572	-77.280	-0.252	-0.088
-702.558	-114.932	-0.171	-0.033
-701.543	31.852	0.197	0.171
-700.529	225.013	-0.046	-0.075
-699.514	-200.000	0.025	0.271
-698.499	203.393	-0.124	0.194
-697.485	116.760	0.199	-0.246
-696.470	-200.000	-0.027	0.156
-695.456	413.668	-0.030	0.064
-694.441	-92.993	0.217	-0.061
-693.426	290.429	-0.173	-0.317
-692.412	112.503	-0.102	0.124
-691.397	-5.268	-0.207	-0.143
-690.383	66.306	-0.258	-0.264
-689.368	-65.179	0.191	-0.078
-688.354	-200.000	-0.024	-0.267
-687.339	-20.466	-0.078	-0.048
-686.324	492.794	-0.086	-0.199
-685.310	-156.330	-0.132	0.008
-684.295	-3.915	0.163	0.114
-683.281	-146.880	0.214	0.019
-682.266	217.891	0.118	0.189
-681.251	137.922	0.269	0.355
-680.237	-200.000	-0.054	-0.302
-679.222	-200.000	0.019	0.440
-678.208	800.000	-0.023	0.093
-677.193	284.900	0.134	-0.244
-676.178	41.003	0.184	-0.168
-675.164	-17.516	-0.091	0.058
-674.149	-122.747	0.393	0.064
-673.135	4.826	-0.296	0.219
-672.120	279.714	0.133	0.240
-671.105	-113.463	0.043	-0.009
-670.091	15.308	-0.135	-0.107
-669.076	103.769	0.207	-0.244
-668.062	-200.000	-0.038	-0.350
-667.047	-200.000	-0.017	-0.317
-666.032	76.696	0.101	0.108
-665.018	15.917	-0.127	0.101
-664.003	-68.637	0.038	0.015
-662.989	-200.000	-0.219	-0.000
-661.974	800.000	0.096	0.317
-660.959	-200.000	0.000	-0.051
-659.945	-200.000	-0.021	-0.113
-658.930	-86.751	0.252	0.078
-657.916	-26.245	-0.254	-0.150
-656.901	-157.361	-0.315	-0.019
-655.886	-8.765	-0.325	0.219
-654.872	-200.000	-0.017	-0.484
-653.857	-200.000	0.002	-0.210
-652.843	-19.163	0.157	0.098
-651.828	-200.000	-0.012	0.211
-650.814	-160.792	0.247	-0.013
-649.799	141.460	-0.164	-0.218
-648.784	-164.027	0.196	-0.009
-647.770	13.821	-0.050	-0.039
-646.755	7.392	-0.117	0.088
-645.741	-200.000	-0.002	-0.098
-644.726	249.676	0.199	0.340
-643.711	-154.127	0.159	-0.011
-642.697	-200.000	-0.229	-0.001
-641.682	-68.618	-0.116	0.045
-640.668	75.432	0.134	-0.142
-639.653	2.335	0.110	-0.080
-638.638	-33.511	-0.153	0.085
-637.624	800.000	0.089	0.337
-636.609	800.000	0.049	-0.168
-635.595	800.000	-0.058	-0.242
-634.580	-135.527	-0.189	0.023
-633.565	-200.000	0.003	-0.110
-632.551	-200.000	0.030	0.249
-631.536	-190.339	0.325	-0.004
-630.522	-61.632	0.210	-0.088
-629.507	337.658	-0.068	0.132
-628.492	-167.487	0.036	-0.001
-627.478	-200.000	0.046	-0.283
-626.463	800.000	-0.084	0.237
-625.449	-73.066	-0.292	-0.108
-624.434	-200.000	0.011	-0.146
-623.419	-59.668	0.173	-0.075
-622.405	800.000	-0.027	-0.077
-621.390	-76.828	-0.187	-0.066
-620.376	481.946	-0.064	-0.146
-619.361	4.956	-0.025	0.019
-618.346	-50.745	-0.294	-0.139
-617.332	257.475	-0.202	-0.349
-616.317	-200.000	-0.017	-0.254
-615.303	-37.543	-0.108	-0.058
-614.288	148.621	0.080	-0.108
-613.273	-91.640	-0.101	-0.029
-612.259	-80.944	-0.095	-0.032
-611.244	365.850	-0.111	0.224
-610.230	436.953	0.053	-0.116
-609.215	-200.000	0.045	0.271
-608.201	176.824	0.145	0.211
-607.186	800.000	0.071	-0.219
-606.171	647.142	-0.064	-0.166
-605.157	28.642	0.255	0.217
-604.142	-63.961	-0.069	0.028
-603.128	322.206	0.135	-0.259
-602.113	680.237	-0.088	-0.230
-601.098	87.552	-0.137	-0.152
-600.084	-200.000	-0.003	-0.198
-599.069	616.323	-0.121	-0.305
-598.055	800.000	-0.040	0.142
-597.040	184.117	-0.116	-0.172
-596.025	-49.761	-0.241	-0.115
-595.011	-200.000	-0.057	-0.339
-593.996	800.000	-0.050	-0.145
-592.982	-142.398	0.408	0.040
-591.967	50.057	0.120	-0.114
-590.952	-5.066	-0.350	0.242
-589.938	207.078	0.157	-0.246
-588.923	112.742	0.071	-0.087
-587.909	-200.000	0.077	0.357
-586.894	-199.897	0.446	-0.002
-585.879	70.193	0.180	0.186
-584.865	-168.673	0.237	0.009
-583.850	-200.000	0.014	0.081
-582.836	-102.028	0.204	-0.049
-581.821	429.478	-0.141	-0.306
-580.806	294.691	-0.123	-0.226
-579.792	-12.259	-0.181	-0.119
-578.777	-200.000	-0.018	-0.153
-577.763	-147.233	0.242	0.021
-576.748	-200.000	0.027	-0.234
-575.733	-91.439	-0.066	-0.019
-574.719	0.824	0.371	0.266
-573.704	143.660	-0.101	0.135
-572.690	-32.852	-0.200	0.111
-571.675	71.505	-0.021	-0.022
-570.661	31.922	-0.067	0.058
-569.646	25.119	-0.332	-0.277
-568.631	-4.943	0.139	-0.096
-567.617	402.305	0.080	0.168
-566.602	-76.231	-0.263	0.093
-565.588	255.856	0.091	-0.156
-564.573	-105.481	-0.203	0.046
-563.558	89.396	0.148	-0.165
-562.544	800.000	0.048	0.180
-561.529	629.584	0.045	0.113
-560.515	-12.794	0.179	-0.117
-559.500	26.103	-0.150	-0.125
-558.485	-103.196	-0.261	-0.062
-557.471	-107.970	-0.172	0.037
-556.456	292.519	0.009	-0.016
-555.442	354.244	-0.099	-0.197
-554.427	800.000	0.083	0.260
-553.412	-166.997	-0.274	-0.011
-552.398	-200.000	0.005	-0.245
-551.383	246.371	-0.200	-0.338
-550.369	61.008	-0.333	-0.331
-549.354	30.520	0.266	0.228
-548.339	-132.906	-0.375	-0.048
-547.325	163.295	-0.147	0.207
-546.310	800.000	-0.058	-0.221
-545.296	-81.859	0.161	0.053
-544.281	-39.109	0.187	-0.098
-543.266	-164.796	-0.261	0.012
-542.252	-101.910	-0.050	0.012
-541.237	-73.342	0.180	0.066
-540.223	155.482	0.165	-0.227
-539.208	54.550	-0.118	0.114
-538.193	-200.000	-0.037	0.215
-537.179	208.384	0.108	-0.170
-536.164	-200.000	0.071	-0.339
-535.150	-59.979	0.273	0.117
-534.135	283.876	0.056	-0.101
-533.121	439.688	0.039	0.086
-532.106	-200.000	-0.011	-0.148
-531.091	-16.797	-0.131	0.083
-530.077	69.916	-0.166	-0.172
-529.062	-94.718	0.202	0.055
-528.048	-200.000	0.023	0.118
-527.033	-112.942	0.315	0.063
-526.018	-38.882	-0.315	-0.166
-525.004	72.545	0.179	0.186
-523.989	221.052	0.112	-0.179
-522.975	32.130	-0.142	-0.123
-521.960	110.159	-0.092	0.111
-520.945	228.170	-0.119	-0.195
-519.931	-126.606	0.111	-0.016
-518.916	800.000	-0.028	0.115
-517.902	-74.452	-0.106	0.038
-516.887	-191.098	0.110	-0.001
-515.872	134.919	0.085	-0.110
-514.858	-200.000	0.026	-0.310
-513.843	188.314	-0.131	0.196
-512.829	72.260	-0.066	-0.069
-511.814	80.605	0.194	0.209
-510.799	-200.000	0.020	0.208
-509.785	800.000	0.077	0.300
-508.770	-106.952	0.232	0.051
-507.756	-111.737	-0.341	-0.069
-506.741	156.636	0.138	0.191
-505.726	118.759	0.055	0.068
-504.712	125.101	-0.106	0.133
-503.697	639.839	0.044	0.113
-502.683	-74.662	0.027	-0.010
-501.668	2.347	0.213	0.154
-500.653	-200.000	0.038	0.253
-499.639	-122.971	-0.217	0.035
-498.624	-28.241	0.188	0.109
-497.610	-101.232	-0.191	-0.047
-496.595	-122.063	-0.313	0.051
-495.581	-150.742	0.172	-0.013
-494.566	115.669	0.105	-0.128
-493.551	-200.000	-0.027	0.130
-492.537	-187.249	-0.135	0.002
-491.522	-200.000	0.040	-0.208
-490.508	-143.344	-0.223	-0.021
-489.493	800.000	-0.017	0.064
-488.478	-200.000	0.080	0.457
-487.464	-200.000	-0.029	-0.269
-486.449	-51.597	-0.038	-0.018
-485.435	231.753	0.119	-0.196
-484.420	-59.769	0.370	-0.158
-483.405	410.248	-0.129	0.274
-482.391	-27.365	0.379	0.220
-481.376	-200.000	0.052	0.232
-480.362	33.524	0.334	0.290
-479.347	307.226	0.094	0.176
-478.332	800.000	-0.106	0.301
-477.318	-200.000	-0.025	-0.121
-476.303	181.323	-0.047	0.069
-475.289	-134.509	0.154	-0.019
-474.274	95.902	0.121	0.138
-473.259	-37.427	0.131	0.070
-472.245	130.521	0.163	0.209
-471.230	-200.000	-0.021	-0.111
-470.216	800.000	-0.046	-0.152
-469.201	-114.720	0.424	-0.081
-468.186	-62.005	-0.326	-0.136
-467.172	-21.626	0.183	0.111
-466.157	800.000	-0.133	-0.435
-465.143	437.378	-0.094	-0.204
-464.128	41.728	-0.105	0.095
-463.113	-200.000	0.002	-0.288
-462.099	-162.287	-0.196	-0.010
-461.084	-103.004	0.322	-0.076
-460.070	-20.354	0.183	-0.112
-459.055	800.000	-0.031	-0.098
-458.040	-138.556	-0.085	-0.009
-457.026	-133.094	0.219	0.028
-456.011	-200.000	0.030	-0.133
-454.997	226.278	0.146	-0.236
-453.982	23.114	-0.036	0.030
-452.968	-49.364	-0.245	-0.116
-451.953	-170.040	0.345	-0.012
-450.938	-200.000	-0.007	-0.342
-449.924	60.307	-0.148	0.146
-448.909	-200.000	0.008	0.074
-447.895	-64.612	-0.343	0.139
-446.880	120.963	0.063	-0.078
-445.865	6.802	-0.301	0.224
-444.851	139.947	0.207	-0.272
-443.836	-106.547	0.176	-0.039
-442.822	335.103	0.010	-0.019
-441.807	-163.693	-0.247	0.012
-440.792	88.621	-0.092	0.102
-439.778	-184.830	0.106	0.002
-438.763	67.059	-0.191	0.195
-437.749	800.000	0.050	0.192
-436.734	800.000	-0.041	0.132
-435.719	800.000	0.035	0.124
-434.705	-119.390	-0.116	-0.020
-433.690	-200.000	-0.018	0.141
-432.676	491.500	0.116	0.265
-431.661	61.410	-0.132	0.131
-430.646	-107.370	-0.353	0.077
-429.632	-52.767	-0.245	-0.113
-428.617	-77.130	0.135	0.047
-427.603	800.000	-0.110	-0.342
-426.588	-69.351	0.220	0.084
-425.573	74.778	-0.106	0.112
-424.559	113.976	-0.192	0.232
-423.544	-66.816	0.143	0.056
-422.530	28.906	-0.017	0.014
-421.515	220.588	0.025	0.039
-420.500	-102.702	0.106	0.025
-419.486	25.982	-0.190	0.158
-418.471	38.137	-0.117	-0.104
-417.457	-86.892	-0.219	0.067
-416.442	195.949	0.159	0.240
-415.428	-200.000	0.033	-0.171
-414.413	655.790	0.011	0.029
-413.398	-129.161	-0.301	0.042
-412.384	165.857	0.156	-0.221
-411.369	-107.726	0.170	-0.037
-410.355	-200.000	-0.033	0.269
-409.340	5.197	-0.049	0.036
-408.325	164.154	0.064	-0.090
-407.311	340.836	0.187	0.365
-406.296	-20.549	-0.188	-0.115
-405.282	-90.916	-0.187	-0.054
-404.267	-37.454	0.123	-0.065
-403.252	-200.000	-0.026	-0.224
-402.238	-49.410	-0.251	-0.119
-401.223	-66.782	-0.150	-0.059
-400.209	190.281	-0.187	-0.279
-399.194	125.746	-0.196	-0.247
-398.179	800.000	-0.037	-0.110
-397.165	-114.676	-0.143	-0.027
-396.150	-200.000	-0.064	0.292
-395.136	-200.000	-0.007	-0.208
-394.121	191.602	0.106	0.159
-393.106	-38.081	-0.264	-0.139
-392.092	387.124	0.144	0.296
-391.077	87.005	0.211	-0.232
-390.063	-200.000	0.005	-0.246
-389.048	-43.907	0.252	-0.126
-388.033	117.854	-0.141	-0.173
-387.019	-95.511	-0.227	0.061
-386.004	269.524	0.085	0.149
-384.990	-136.096	0.258	0.030
-383.975	-173.463	0.138	0.004
-382.960	-161.221	-0.142	-0.007
-381.946	-185.449	0.489	-0.007
-380.931	-141.720	-0.373	-0.037
-379.917	121.448	0.108	0.133
-378.902	-200.000	-0.084	0.406
-377.888	129.487	0.089	0.113
-376.873	-5.719	-0.315	0.215
-375.858	285.382	-0.079	-0.142
-374.844	-200.000	0.018	-0.194
-373.829	122.114	-0.150	-0.187
-372.815	293.379	0.061	0.110
-371.800	192.752	-0.132	-0.199
-370.785	-200.000	0.002	0.129
-369.771	-200.000	-0.059	0.322
-368.756	-94.929	0.200	-0.054
-367.742	-73.640	0.166	0.060
-366.727	-200.000	0.018	-0.189
-365.712	750.441	0.027	0.072
-364.698	3.790	-0.077	-0.056
-363.683	-119.685	-0.222	-0.038
-362.669	-178.921	-0.029	0.001
-361.654	-60.752	0.309	0.130
-360.639	-200.000	0.013	-0.339
-359.625	800.000	-0.141	-0.506
-358.610	435.023	-0.112	0.242
-357.596	-200.000	-0.302	0.001
-356.581	249.013	-0.053	-0.089
-355.566	305.716	-0.027	0.050
-354.552	-200.000	-0.021	0.112
-353.537	171.147	0.119	-0.169
-352.523	-119.774	-0.157	0.027
-351.508	-122.001	-0.369	0.060
-350.493	-83.720	-0.225	-0.071
-349.479	357.301	0.136	0.269
-348.464	146.996	-0.066	-0.088
-347.450	-183.942	-0.205	-0.003
-346.435	800.000	0.013	-0.045
-345.420	-149.499	-0.277	0.022
-344.406	-200.000	-0.008	0.270
-343.391	-10.903	0.211	-0.139
-342.377	245.621	-0.135	-0.226
-341.362	-200.000	-0.004	0.335
-340.348	-24.158	-0.316	0.188
-339.333	120.983	-0.112	-0.139
-338.318	257.830	0.087	-0.148
-337.304	-60.942	-0.193	0.081
-336.289	-199.238	0.411	-0.002
-335.275	450.658	0.091	-0.199
-334.260	363.324	0.173	-0.345
-333.245	-88.194	0.110	0.033
-332.231	17.378	0.169	0.133
-331.216	753.489	0.065	0.174
-330.202	-55.840	-0.227	0.101
-329.187	51.574	0.194	0.184
-328.172	-11.287	0.505	-0.330
-327.158	221.124	-0.063	-0.100
-326.143	233.671	-0.200	0.326
-325.129	-45.614	-0.305	0.150
-324.114	396.143	-0.111	-0.231
-323.099	-200.000	-0.051	0.241
-322.085	241.130	0.132	-0.218
-321.070	429.023	0.052	0.112
-320.056	-53.657	-0.224	-0.101
-319.041	6.349	0.193	-0.143
-318.026	-128.998	-0.180	-0.025
-317.012	-200.000	0.002	0.015
-315.997	-162.313	0.445	0.022
-314.983	-111.197	-0.309	0.063
-313.968	-200.000	0.026	-0.154
-312.953	137.699	0.033	0.043
-311.939	800.000	0.183	-0.542
-310.924	376.510	0.054	-0.109
-309.910	-200.000	0.007	0.337
-308.895	-0.161	-0.196	0.138
-307.880	-175.086	-0.133	-0.004
-306.866	229.456	-0.026	0.043
-305.851	-119.181	0.141	-0.024
-304.837	256.732	0.102	0.174
-303.822	-73.217	-0.268	0.097
-302.807	-132.042	0.131	0.017
-301.793	-200.000	-0.007	0.094
-300.778	72.073	-0.242	0.250
-299.764	673.917	0.075	0.192
-298.749	47.996	0.101	-0.094
-297.735	123.820	-0.035	0.044
-296.720	-200.000	0.020	0.304
-295.705	-200.000	0.024	0.126
-294.691	800.000	0.054	-0.156
-293.676	-200.000	0.049	-0.244
-292.662	26.095	0.129	-0.107
-291.647	389.776	0.013	0.026
-290.632	-200.000	-0.057	-0.379
-289.618	800.000	-0.133	0.376
-288.603	431.930	-0.117	0.251
-287.589	105.991	0.164	0.192
-286.574	-160.907	-0.031	0.002
-285.559	99.205	0.063	-0.073
-284.545	-144.631	-0.321	-0.029
-283.530	79.202	0.318	-0.338
-282.516	800.000	0.117	-0.395
-281.501	-56.291	-0.419	-0.185
-280.486	77.033	-0.138	0.145
-279.472	800.000	0.020	0.067
-278.457	62.248	0.111	0.109
-277.443	239.924	0.047	0.078
-276.428	-168.492	0.133	0.005
-275.413	123.824	0.233	0.290
-274.399	2.802	-0.050	0.036
-273.384	-200.000	-0.042	-0.281
-272.370	46.473	0.206	0.190
-271.355	432.326	0.159	0.341
-270.340	-114.225	-0.318	0.061
-269.326	-200.000	-0.042	-0.223
-268.311	800.000	-0.064	0.210
-267.297	-6.410	0.148	0.100
-266.282	-163.851	-0.265	0.012
-265.267	60.286	0.111	-0.109
-264.253	24.383	0.107	0.088
-263.238	-109.395	0.096	0.020
-262.224	-104.270	-0.166	0.038
-261.209	800.000	0.055	0.163
-260.195	7.242	-0.120	-0.089
-259.180	46.817	0.118	0.108
-258.165	800.000	0.062	-0.213
-257.151	38.211	-0.205	0.181
-256.136	800.000	-0.055	0.206
-255.122	800.000	-0.026	-0.071
-254.107	-152.874	0.220	0.015
-253.092	-121.255	0.214	-0.035
-252.078	-40.415	-0.068	0.035
-251.063	-17.207	-0.151	0.095
-250.049	-84.101	-0.225	-0.071
-249.034	-63.373	-0.021	0.009
-248.019	-36.317	-0.305	0.163
-247.005	223.064	-0.079	0.126
-245.990	0.700	0.051	0.036
-244.976	-49.188	-0.239	0.113
-243.961	-37.071	0.196	0.104
-242.946	280.512	-0.064	0.113
-241.932	116.150	0.199	0.241
-240.917	-134.746	-0.112	-0.013
-239.903	-141.532	0.477	-0.048
-238.888	-108.296	0.234	-0.050
-237.873	292.078	0.071	-0.128
-236.859	-200.000	-0.014	0.188
-235.844	107.963	0.070	-0.082
-234.830	580.672	-0.018	0.043
-233.815	111.617	0.138	-0.165
-232.800	-200.000	0.048	0.300
-231.786	51.374	-0.043	0.040
-230.771	719.975	0.080	-0.210
-229.757	269.848	-0.199	0.345
-228.742	-138.591	-0.228	-0.025
-227.727	18.955	-0.230	0.182
-226.713	165.188	0.023	-0.032
-225.698	-200.000	0.002	-0.119
-224.684	800.000	0.107	-0.405
-223.669	-200.000	-0.094	-0.507
-222.655	-153.701	-0.339	0.023
-221.640	-200.000	0.023	0.142
-220.625	590.442	0.116	0.284
-219.611	245.314	-0.061	0.101
-218.596	31.039	-0.033	0.028
-217.582	800.000	-0.091	0.335
-216.567	800.000	0.129	-0.389
-215.552	6.027	0.240	0.176
-214.538	-200.000	-0.031	-0.146
-213.523	112.130	-0.103	0.123
-212.509	35.402	0.208	-0.181
-211.494	84.902	0.162	0.175
-210.479	-200.000	-0.048	-0.245
-209.465	-200.000	-0.049	0.316
-208.450	16.434	0.221	0.172
-207.436	-131.156	-0.070	-0.009
-206.421	800.000	0.049	-0.188
-205.406	181.366	0.056	-0.082
-204.392	-146.628	0.221	-0.019
-203.377	-200.000	-0.000	0.134
-202.363	-86.834	0.223	-0.067
-201.348	-142.911	-0.206	0.020
-200.333	-5.940	-0.034	0.023
-199.319	-65.450	0.139	0.055
-198.304	150.443	0.038	-0.051
-197.290	-200.000	-0.008	0.125
-196.275	-85.416	0.208	-0.064
-195.260	-200.000	-0.022	-0.288
-194.246	-200.000	0.048	0.356
-193.231	-200.000	0.031	0.453
-192.217	5.830	0.127	0.093
-191.202	61.129	-0.082	0.081
-190.187	-27.003	0.215	0.124
-189.173	245.444	-0.079	-0.131
-188.158	-103.528	0.271	0.063
-187.144	-93.671	0.153	0.042
-186.129	-99.615	-0.171	-0.042
-185.114	248.100	-0.040	0.067
-184.100	-30.317	0.156	0.088
-183.085	800.000	0.016	-0.046
-182.071	800.000	-0.125	-0.373
-181.056	-200.000	0.032	0.265
-180.042	-8.324	0.175	-0.116
-179.027	12.717	0.449	0.342
-178.012	-54.498	-0.104	0.047
-176.998	154.083	-0.190	-0.257
-175.983	-120.039	0.193	-0.033
-174.969	268.760	0.093	-0.161
-173.954	-148.763	0.177	-0.014
-172.939	-89.599	0.150	0.043
-171.925	-139.664	-0.109	0.011
-170.910	-200.000	-0.021	-0.092
-169.896	-200.000	0.008	-0.074
-168.881	489.098	0.201	-0.453
-167.866	-84.580	-0.080	0.025
-166.852	-37.099	-0.165	0.087
-165.837	137.446	-0.153	-0.198
-164.823	-200.000	-0.038	0.362
-163.808	478.115	-0.101	0.226
-162.793	518.629	-0.085	-0.197
-161.779	800.000	-0.058	-0.158
-160.764	-23.489	0.246	-0.146
-159.750	-83.757	0.193	-0.061
-158.735	199.701	0.053	-0.080
-157.720	-200.000	0.009	0.099
-156.706	-70.652	-0.052	0.019
-155.691	-79.630	0.335	0.112
-154.677	179.049	0.029	0.042
-153.662	-27.034	-0.231	0.133
-152.647	-200.000	-0.003	0.168
-151.633	-49.524	0.113	0.053
-150.618	-149.650	0.214	-0.017
-149.604	-200.000	0.028	0.241
-148.589	-90.409	-0.208	-0.060
-147.574	-200.000	-0.014	0.181
-146.560	-28.814	-0.113	0.064
-145.545	-33.812	0.137	0.074
-144.531	340.047	0.247	0.476
-143.516	562.350	0.030	0.071
-142.502	-48.595	-0.248	0.118
-141.487	300.120	-0.140	-0.255
-140.472	568.956	0.105	0.252
-139.458	800.000	-0.061	-0.185
-138.443	-54.109	0.256	0.115
-137.429	-162.058	-0.184	-0.009
-136.414	-47.594	-0.248	-0.119
-135.399	443.282	-0.060	-0.130
-134.385	224.339	-0.190	0.303
-133.370	-97.907	0.066	0.017
-132.356	238.600	-0.035	-0.057
-131.341	-39.604	0.353	0.182
-130.326	22.018	-0.098	-0.079
-129.312	-150.376	0.345	-0.026
-128.297	292.979	-0.169	0.304
-127.283	-40.474	0.027	0.014
-126.268	-81.723	0.035	0.011
-125.253	-107.139	0.372	-0.081
-124.239	-200.000	0.030	0.298
-123.224	55.757	0.066	0.063
-122.210	41.045	0.078	-0.069
-121.195	663.958	0.047	0.120
-120.180	-200.000	0.053	0.352
-119.166	-57.060	-0.341	-0.148
-118.151	-89.008	0.138	0.040
-117.137	-100.506	0.095	0.023
-116.122	800.000	-0.109	0.342
-115.107	-150.794	-0.173	0.013
-114.093	-200.000	-0.026	0.241
-113.078	-51.197	0.060	-0.028
-112.064	-200.000	0.065	0.369
-111.049	-86.546	-0.445	0.134
-110.034	-165.276	0.099	0.004
-109.020	19.633	0.201	-0.160
-108.005	-43.936	0.424	0.210
-106.991	-29.170	-0.293	0.165
-105.976	37.194	0.190	0.166
-104.962	-200.000	0.038	0.165
-103.947	800.000	0.074	0.260
-102.932	-153.941	-0.163	-0.011
-101.918	-200.000	-0.008	-0.079
-100.903	109.462	0.275	-0.324
-99.889	-200.000	0.012	0.132
-98.874	-127.531	0.070	0.010
-97.859	-200.000	0.008	0.204
-96.845	-23.502	0.133	0.079
-95.830	-135.613	-0.092	0.011
-94.816	-75.008	-0.166	-0.058
-93.801	-156.112	-0.225	-0.014
-92.786	-147.239	-0.171	0.014
-91.772	254.499	0.185	-0.311
-90.757	-1.935	0.264	0.182
-89.743	134.315	-0.133	0.170
-88.728	-200.000	-0.031	-0.209
-87.713	-127.550	-0.087	-0.012
-86.699	-200.000	-0.048	-0.214
-85.684	-43.772	-0.313	0.155
-84.670	73.571	-0.252	-0.260
-83.655	800.000	-0.071	0.239
-82.640	-200.000	-0.025	-0.260
-81.626	55.096	-0.094	-0.089
-80.611	-200.000	0.002	0.116
-79.597	-83.814	0.150	0.047
-78.582	-200.000	0.031	-0.331
-77.567	427.102	-0.145	0.308
-76.553	546.894	0.096	0.225
-75.538	-82.690	-0.225	-0.072
-74.524	17.950	0.313	-0.246
-73.509	113.512	0.119	0.142
-72.494	264.738	-0.056	0.096
-71.480	378.717	-0.110	-0.222
-70.465	238.140	-0.060	-0.099
-69.451	-104.257	-0.445	0.101
-68.436	123.720	-0.137	-0.170
-67.422	345.339	0.220	0.426
-66.407	154.650	0.113	0.153
-65.392	102.249	0.101	0.116
-64.378	800.000	-0.099	0.378
-63.363	190.404	-0.139	0.205
-62.349	81.604	0.178	-0.189
-61.334	-9.858	-1.021	-0.668
-60.319	-198.841	0.867	-0.005
-59.305	-200.000	-0.227	-1.022
-58.290	800.000	0.343	1.246
-57.276	800.000	0.465	1.372
-56.261	-200.000	106.952	582.155
-55.246	451.429	1466.270	3183.740
-54.232	148.400	2649.862	3516.653
-53.217	105.494	2178.466	2529.942
-52.203	39.906	1708.529	1507.728
-51.188	32.849	1521.583	1294.502
-50.173	30.424	1495.884	1256.214
-49.159	50.753	1549.835	1442.073
-48.144	51.291	1566.796	1461.511
-47.130	32.982	1523.353	1296.716
-46.115	29.994	1508.643	1263.791
-45.100	29.835	1505.173	1259.754
-44.086	29.858	1503.282	1258.276
-43.071	29.733	1501.050	1255.507
-42.057	29.616	1499.902	1253.703
-41.042	29.752	1498.178	1253.133
-40.027	29.764	1496.483	1251.747
-39.013	29.720	1494.660	1249.875
-37.998	29.689	1493.576	1248.709
-36.984	29.639	1492.838	1247.708
-35.969	29.696	1491.141	1246.626
-34.954	29.791	1489.604	1245.928
-33.940	29.637	1488.797	1244.171
-32.925	29.739	1487.063	1243.356
-31.911	29.715	1485.949	1242.216
-30.896	29.779	1484.663	1241.523
-29.881	29.740	1483.544	1240.276
-28.867	29.828	1482.102	1239.606
-27.852	29.736	1480.974	1238.000
-26.838	29.914	1479.192	1237.652
-25.823	29.774	1478.077	1235.730
-24.809	29.874	1475.934	1234.560
-23.794	29.850	1474.709	1233.325
-22.779	29.722	1474.035	1231.859
-21.765	29.925	1472.474	1231.856
-20.750	29.840	1471.366	1230.317
-19.736	29.807	1469.812	1228.753
-18.721	29.795	1469.460	1228.330
-17.706	29.748	1468.336	1227.024
-16.692	29.803	1466.578	1225.873
-15.677	29.717	1465.960	1224.737
-14.663	29.749	1464.829	1223.956
-13.648	29.648	1464.410	1222.888
-12.633	29.770	1462.674	1222.197
-11.619	29.734	1462.305	1221.600
-10.604	29.701	1461.304	1220.500
-9.590	29.697	1460.228	1219.528
-8.575	29.709	1459.418	1218.881
-7.560	29.782	1458.756	1218.765
-6.546	29.711	1457.646	1217.321
-5.531	29.766	1456.525	1216.692
-4.517	29.612	1456.172	1215.337
-3.502	29.768	1455.019	1215.356
-2.487	29.718	1453.555	1213.754
-1.473	29.720	1452.334	1212.700
-0.458	29.741	1451.679	1212.240
0.556	27.909	1442.157	1200.678
1.571	25.181	1417.383	1162.300
2.586	22.030	1357.386	1093.416
3.600	20.448	1275.935	1018.447
4.615	19.370	1230.117	975.690
5.629	16.855	1173.276	916.932
6.644	8.461	1087.569	807.617
7.659	1.493	1046.299	742.937
8.673	0.292	1041.023	733.284
9.688	0.192	1037.904	730.534
10.702	0.004	1036.382	728.489
11.717	-0.037	1034.607	726.976
12.731	2.773	1036.524	741.863
13.746	11.254	1048.098	791.401
14.761	17.326	1055.628	826.624
15.775	17.521	1054.955	826.971
16.790	16.533	1052.607	820.267
17.804	15.503	1050.356	813.454
18.819	14.496	1048.931	807.403
19.834	14.206	1047.581	804.891
20.848	13.841	1046.332	802.098
21.863	13.602	1045.831	800.489
22.877	13.382	1044.900	798.639
23.892	13.113	1044.484	796.956
24.907	13.165	1042.998	796.002
25.921	13.124	1042.447	795.311
26.936	13.185	1041.892	795.111
27.950	13.208	1041.554	794.896
28.965	13.137	1040.808	793.915
29.980	13.280	1039.529	793.555
30.994	13.329	1039.093	793.386
32.009	13.396	1037.504	792.424
33.023	13.415	1036.920	791.998
34.038	13.397	1036.031	791.165
35.053	13.326	1035.350	790.235
36.067	13.330	1034.819	789.775
37.082	13.394	1033.505	789.013
38.096	13.387	1033.037	788.549
39.111	13.386	1031.971	787.660
40.126	13.373	1031.309	787.026
41.140	13.249	1030.661	785.870
42.155	13.116	1029.546	784.322
43.169	13.182	1028.624	783.860
44.184	13.071	1027.582	782.472
45.199	12.996	1026.704	781.381
46.213	13.095	1025.707	781.021
47.228	13.152	1024.984	780.671
48.242	13.188	1023.490	779.633
49.257	13.305	1022.494	779.358
50.271	13.275	1021.806	778.623
51.286	13.177	1020.726	777.268
52.301	13.264	1020.275	777.264
53.315	13.216	1019.632	776.481
54.330	13.162	1018.836	775.555
55.344	13.138	1018.292	774.958
56.359	13.283	1016.374	774.109
57.374	13.159	1015.595	772.867
58.388	13.185	1014.914	772.402
59.403	13.165	1013.776	771.374
60.417	13.075	1013.582	770.736
61.432	13.168	1012.462	770.251
62.447	13.071	1011.704	769.153
63.461	13.105	1011.629	769.186
64.476	13.106	1010.204	768.039
65.490	13.017	1009.524	767.041
66.505	13.068	1008.764	766.635
67.520	13.016	1008.212	765.907
68.534	13.073	1007.103	765.257
69.549	13.015	1006.523	764.481
70.563	13.056	1005.785	764.043
71.578	13.060	1005.320	763.640
72.593	13.009	1003.932	762.286
73.607	12.981	1003.039	761.411
74.622	12.989	1001.969	760.565
75.636	12.949	1001.328	759.830
76.651	13.171	1000.357	760.048
77.666	12.996	999.853	758.792
78.680	13.057	998.806	758.209
79.695	13.050	998.538	757.909
80.709	13.175	997.852	757.894
81.724	13.062	997.300	756.888
82.739	13.158	996.328	756.523
83.753	13.067	995.802	755.639
84.768	13.329	995.094	756.236
85.782	13.299	994.055	755.240
86.797	13.331	993.512	754.905
87.812	13.308	992.442	753.923
88.826	13.176	991.651	752.654
89.841	13.304	990.775	752.505
90.855	13.319	990.108	752.002
91.870	13.196	989.782	751.127
92.884	13.449	988.599	751.310
93.899	13.376	988.187	750.599
94.914	13.281	987.240	749.386
95.928	13.412	986.805	749.583
96.943	13.378	985.651	748.482
97.957	13.375	984.961	747.879
98.972	13.368	984.089	747.121
99.987	13.229	983.307	745.833
101.001	13.325	982.782	745.802
102.016	13.332	981.768	744.997
103.030	13.464	980.633	744.666
104.045	13.298	980.156	743.490
105.060	13.476	978.732	743.146
106.074	13.228	978.408	741.721
107.089	13.314	977.238	741.153
108.103	13.251	976.442	740.201
109.118	13.182	975.316	738.973
110.133	13.058	974.715	737.900
111.147	13.086	974.156	737.535
112.162	13.026	973.460	736.674
113.176	13.226	972.321	736.638
114.191	13.127	971.727	735.682
115.206	13.260	970.744	735.467
116.220	13.207	969.925	734.544
117.235	13.297	968.969	734.153
118.249	13.205	967.743	732.752
119.264	13.280	966.672	732.208
120.279	13.298	965.869	731.618
121.293	13.198	965.622	730.924
122.308	13.083	964.984	729.866
123.322	13.179	964.026	729.499
124.337	13.222	962.735	728.649
125.352	13.183	961.811	727.713
126.366	13.131	960.730	726.603
127.381	13.051	959.674	725.388
128.395	13.140	959.151	725.318
129.410	13.158	957.869	724.364
130.424	13.148	957.073	723.652
131.439	13.219	956.052	723.130
132.454	13.323	955.099	722.798
133.468	13.265	954.674	722.162
134.483	13.311	954.095	721.861
135.497	13.221	953.397	720.874
136.512	13.249	952.449	720.215
137.527	13.223	951.675	719.454
138.541	13.144	951.067	718.586
139.556	13.212	950.582	718.454
140.570	13.244	949.488	717.703
141.585	13.335	948.622	717.379
142.600	13.381	948.033	717.067
143.614	13.435	947.400	716.762
144.629	13.444	946.370	715.955
145.643	13.519	945.793	715.782
146.658	13.545	944.458	714.817
147.673	13.414	943.484	713.454
148.687	13.402	943.017	712.986
149.702	13.349	942.072	711.982
150.716	13.320	941.606	711.440
151.731	13.258	940.815	710.514
152.746	13.276	939.938	709.865
153.760	13.261	939.219	709.193
154.775	13.349	938.794	709.191
155.789	13.281	937.854	708.125
156.804	13.349	937.088	707.774
157.819	13.547	936.177	707.872
158.833	13.532	935.648	707.345
159.848	13.564	935.487	707.295
160.862	13.509	934.453	706.216
161.877	13.503	933.677	705.544
162.892	13.428	932.939	704.604
163.906	13.379	931.789	703.466
164.921	13.420	930.800	702.828
165.935	13.445	930.045	702.303
166.950	13.493	929.212	701.816
167.964	13.439	928.679	701.122
168.979	13.481	927.423	700.289
169.994	13.464	926.194	699.227
171.008	13.545	925.577	699.043
172.023	13.535	925.077	698.562
173.037	13.553	924.259	697.957
174.052	13.669	923.463	697.784
175.067	13.588	922.727	696.823
176.081	13.571	921.771	695.969
177.096	13.595	920.886	695.340
178.110	13.437	920.615	694.411
179.125	13.630	919.404	694.243
180.140	13.532	918.793	693.313
181.154	13.611	918.301	693.209
182.169	13.651	917.597	692.782
183.183	13.655	916.774	692.119
184.198	13.627	916.125	691.447
185.213	13.707	915.801	691.476
186.227	13.713	914.905	690.764
187.242	13.677	914.768	690.450
188.256	13.837	913.503	690.099
189.271	13.796	913.184	689.627
190.286	13.836	911.960	688.807
191.300	13.747	911.135	687.753
192.315	13.521	910.735	686.457
193.329	13.493	910.109	685.806
194.344	13.658	909.296	685.816
195.359	13.616	909.197	685.506
196.373	13.820	908.103	685.465
197.388	13.768	907.629	684.830
198.402	13.834	907.277	684.776
199.417	13.950	906.748	684.795
200.432	13.867	906.324	684.072
201.446	13.848	906.036	683.716
202.461	14.035	905.288	683.860
203.475	14.096	905.049	683.871
204.490	14.074	904.596	683.378
205.504	13.886	903.355	681.609
206.519	14.014	902.116	681.138
207.534	14.062	901.534	680.836
208.548	13.938	901.136	679.965
209.563	13.928	900.494	679.382
210.577	13.941	899.726	678.795
211.592	14.114	899.024	678.909
212.607	14.122	898.560	678.531
213.621	14.212	897.894	678.338
214.636	14.226	896.922	677.601
215.650	14.145	896.623	676.982
216.665	14.117	896.061	676.387
217.680	14.237	895.680	676.525
218.694	14.172	895.119	675.778
219.709	14.163	894.766	675.414
220.723	14.208	893.821	674.824
221.738	14.087	893.236	673.831
222.753	14.187	892.630	673.721
223.767	14.299	891.814	673.500
224.782	14.292	890.838	672.673
225.796	14.114	890.491	671.635
226.811	14.345	889.726	671.931
227.826	14.252	889.207	671.104
228.840	14.530	888.136	671.355
229.855	14.353	887.754	670.296
230.869	14.244	887.134	669.328
231.884	14.309	886.265	668.875
232.899	14.200	885.663	667.925
233.913	14.211	885.077	667.467
234.928	14.255	884.249	666.960
235.942	14.458	883.278	666.979
236.957	14.307	882.711	665.889
237.972	14.312	882.269	665.519
238.986	14.239	881.132	664.310
240.001	14.288	880.796	664.194
241.015	14.273	880.187	663.613
242.030	14.322	879.782	663.445
243.045	14.430	878.786	663.066
244.059	14.395	878.241	662.455
245.074	14.460	877.701	662.248
246.088	14.343	877.144	661.307
247.103	14.348	876.798	661.008
248.117	14.503	876.151	661.074
249.132	14.565	875.393	660.691
250.147	14.538	875.138	660.330
251.161	14.658	874.161	660.012
252.176	14.789	873.655	660.088
253.190	14.679	873.278	659.309
254.205	14.778	872.435	659.006
255.220	14.795	871.860	658.581
256.234	14.906	871.255	658.503
257.249	14.862	870.329	657.573
258.263	14.767	870.038	656.920
259.278	14.930	868.890	656.636
260.293	15.044	868.477	656.714
261.307	15.048	868.132	656.408
262.322	14.777	867.935	655.138
263.336	14.940	866.988	655.003
264.351	14.974	866.506	654.715
265.366	14.975	865.834	654.155
266.380	14.932	865.026	653.316
267.395	15.102	864.424	653.470
268.409	15.028	863.958	652.768
269.424	15.119	863.115	652.431
270.439	14.999	862.553	651.479
271.453	15.003	861.723	650.809
272.468	15.138	860.486	650.343
273.482	14.972	860.179	649.411
274.497	14.989	860.222	649.452
275.512	15.208	858.595	649.011
276.526	15.012	858.284	647.962
277.541	15.124	857.821	647.986
278.555	15.151	857.538	647.822
279.570	15.120	856.801	647.086
280.585	15.105	856.530	646.768
281.599	15.248	855.637	646.586
282.614	15.235	854.937	645.952
283.628	15.098	854.621	645.126
284.643	15.080	854.029	644.555
285.657	15.219	853.355	644.522
286.672	15.183	853.086	644.124
287.687	15.238	852.153	643.576
288.701	15.308	851.984	643.658
289.716	15.440	851.080	643.424
290.730	15.298	850.609	642.467
291.745	15.314	850.317	642.251
292.760	15.342	849.146	641.416
293.774	15.378	848.699	641.162
294.789	15.260	848.592	640.571
295.803	15.518	847.300	640.523
296.818	15.452	846.844	639.870
297.833	15.460	846.313	639.443
298.847	15.390	845.803	638.737
299.862	15.488	844.848	638.329
300.876	15.405	844.236	637.496
301.891	15.424	843.611	637.040
302.906	15.519	843.220	637.048
303.920	15.483	842.673	636.444
304.935	15.565	841.800	636.037
305.949	15.623	841.243	635.781
306.964	15.521	840.762	634.974
307.979	15.689	840.089	635.044
308.993	15.452	839.754	633.839
310.008	15.686	839.072	634.151
311.022	15.627	838.996	633.816
312.037	15.739	838.090	633.498
313.052	15.693	837.302	632.673
314.066	15.698	836.865	632.305
315.081	15.610	836.115	631.351
316.095	15.682	835.915	631.415
317.110	15.700	835.743	631.299
318.125	15.586	834.784	630.089
319.139	15.532	834.606	629.698
320.154	15.561	833.706	629.073
321.168	15.779	833.253	629.488
322.183	15.745	832.737	628.916
323.197	15.622	831.809	627.701
324.212	15.772	831.739	628.153
325.227	15.922	830.817	627.959
326.241	15.762	830.660	627.189
327.256	15.697	830.282	626.605
328.270	15.797	829.246	626.142
329.285	15.904	828.885	626.213
330.300	15.692	828.356	624.967
331.314	15.753	827.793	624.713
332.329	15.875	826.810	624.370
333.343	15.708	826.757	623.655
334.358	15.800	825.985	623.359
335.373	15.975	825.594	623.657
336.387	15.929	824.812	622.838
337.402	16.013	824.302	622.711
338.416	15.910	823.879	621.957
339.431	15.960	823.332	621.671
340.446	16.023	822.512	621.229
341.460	16.113	821.883	621.032
342.475	16.060	821.636	620.595
343.489	16.168	821.077	620.515
344.504	16.094	820.626	619.846
345.519	16.209	820.197	619.892
346.533	16.186	819.632	619.323
347.548	16.137	819.275	618.821
348.562	16.094	818.853	618.290
349.577	16.063	818.065	617.524
350.592	16.204	817.323	617.426
351.606	16.043	817.336	616.794
352.621	16.142	816.641	616.575
353.635	16.157	816.516	616.480
354.650	16.228	815.982	616.282
355.665	16.321	815.263	616.026
356.679	16.280	814.803	615.473
357.694	16.266	814.255	614.953
358.708	16.270	813.671	614.474
359.723	16.424	812.708	614.252
360.738	16.428	812.309	613.909
361.752	16.240	812.169	613.066
362.767	16.293	811.893	612.999
363.781	16.331	811.462	612.757
364.796	16.554	810.715	612.945
365.810	16.487	810.503	612.488
366.825	16.544	809.674	612.015
367.840	16.475	809.622	611.670
368.854	16.683	809.264	612.097
369.869	16.541	808.784	611.167
370.883	16.646	807.687	610.663
371.898	16.647	807.028	610.113
372.913	16.582	806.988	609.797
373.927	16.598	806.217	609.219
374.942	16.573	805.481	608.519
375.956	16.538	805.144	608.083
376.971	16.787	804.635	608.541
377.986	16.661	804.113	607.638
379.000	16.756	803.423	607.403
380.015	16.720	803.219	607.066
381.029	16.731	802.575	606.567
382.044	16.806	801.916	606.281
383.059	16.937	801.274	606.211
384.073	16.767	800.933	605.292
385.088	16.853	800.509	605.225
386.102	16.880	799.710	604.665
387.117	16.939	799.109	604.367
388.132	16.663	799.290	603.468
389.146	16.751	798.244	602.938
390.161	16.764	798.242	602.927
391.175	16.839	797.538	602.608
392.190	16.925	797.434	602.782
393.205	16.839	796.910	602.028
394.219	16.795	796.615	601.597
395.234	16.888	795.771	601.234
396.248	16.760	795.473	600.503
397.263	16.909	794.769	600.448
398.278	16.770	794.207	599.477
399.292	16.801	793.689	599.142
400.307	16.778	793.771	599.071
401.321	16.833	793.075	598.687
402.336	16.877	792.445	598.313
403.350	16.940	792.370	598.424
404.365	16.889	792.025	597.932
405.380	16.963	791.255	597.557
406.394	17.136	790.973	597.902
407.409	17.010	790.598	597.123
408.423	17.088	790.015	596.904
409.438	17.324	789.379	597.200
410.453	17.105	789.436	596.418
411.467	17.190	788.957	596.305
412.482	17.275	788.293	596.048
413.496	17.252	788.102	595.770
414.511	17.229	787.598	595.254
415.526	17.383	787.151	595.403
416.540	17.255	786.965	594.761
417.555	17.284	786.330	594.330
418.569	17.290	786.103	594.128
419.584	17.238	785.334	593.313
420.599	17.333	785.012	593.349
421.613	108.682	1291.447	1468.790
422.628	93.070	1365.229	1468.893
