DTS Sentinel unit serial number:	SN413079Multiplexer serial number:	ORYXHardware model number:	OX4-SRSoftware version number:	ORYX F/W v4.00 Oryx Data Collector v3.7.2.0data status	okinstallation	princeton_trtdifferential loss correction	single-endedforward channel	channel 3reverse channel	N/Adate	2019/09/16time	01:48:35forward acquisition time	60.00reverse acquisition time	0.00gamma	496.2192k internal	0.2337k external	0.2337temperature offset calibration	0.9954default loss term (dB/km)	0.3790temperature slope calibration	1.0000multiplexer offset coefficient	1.0000multiplexer slope coefficient	1.0000fibre end	0.00T internal ref (°C)	27.37T ext. ref 1 (°C)	10.02T ext. ref 2 (°C)	22.25length (m)	temperature (°C)	Stokes	anti-Stokes-747.200	-96.104	-0.561	0.150
-746.185	7.718	-0.401	0.301
-745.171	68.481	-0.023	0.024
-744.156	800.000	-0.092	0.281
-743.142	-34.088	0.313	0.173
-742.127	800.000	-0.019	0.069
-741.112	-69.723	0.303	0.116
-740.098	-7.603	-0.234	0.159
-739.083	-81.623	-0.254	-0.084
-738.069	131.310	-0.097	0.125
-737.054	304.812	0.079	-0.147
-736.039	-125.914	-0.250	-0.038
-735.025	-101.526	0.336	0.082
-734.010	-198.923	-0.423	0.002
-732.996	321.956	0.043	-0.083
-731.981	-200.000	0.049	-0.431
-730.966	414.086	-0.220	-0.471
-729.952	-151.787	0.043	-0.003
-728.937	-85.357	-0.340	-0.106
-727.923	13.436	0.137	0.106
-726.908	-21.788	0.098	0.060
-725.894	-169.845	-0.137	-0.005
-724.879	-200.000	-0.030	-0.323
-723.864	43.169	0.159	-0.146
-722.850	-56.119	-0.206	-0.092
-721.835	333.636	0.112	-0.218
-720.821	79.491	-0.071	0.077
-719.806	-18.993	-0.249	-0.155
-718.791	166.897	0.030	0.042
-717.777	353.295	0.046	0.091
-716.762	278.482	0.142	0.253
-715.748	25.766	0.112	0.094
-714.733	27.663	0.243	0.205
-713.718	64.229	0.290	-0.293
-712.704	-17.903	0.144	0.091
-711.689	315.577	0.186	0.352
-710.675	-200.000	0.022	-0.159
-709.660	677.730	-0.077	-0.200
-708.645	-29.684	0.190	0.109
-707.631	800.000	0.054	0.217
-706.616	73.322	0.119	0.124
-705.602	-99.554	0.222	-0.056
-704.587	-25.211	-0.256	-0.152
-703.572	351.100	-0.127	-0.253
-702.558	-200.000	-0.072	0.417
-701.543	-121.533	0.302	-0.050
-700.529	99.227	-0.130	-0.151
-699.514	-139.747	-0.166	-0.018
-698.499	-200.000	-0.025	0.341
-697.485	800.000	0.119	0.404
-696.470	258.307	-0.222	0.382
-695.456	-92.722	-0.175	-0.049
-694.441	34.938	-0.041	-0.036
-693.426	800.000	-0.095	-0.370
-692.412	537.203	0.058	-0.137
-691.397	-109.842	0.473	0.100
-690.383	-154.487	-0.239	0.016
-689.368	261.556	-0.081	-0.141
-688.354	-200.000	-0.027	-0.311
-687.339	-73.632	-0.162	0.059
-686.324	62.016	0.173	-0.173
-685.310	90.981	-0.211	-0.237
-684.295	-108.746	-0.148	-0.032
-683.281	-115.243	-0.346	-0.066
-682.266	180.788	-0.016	0.023
-681.251	-79.595	-0.116	-0.039
-680.237	524.339	-0.091	0.215
-679.222	-100.527	-0.362	-0.090
-678.208	208.051	-0.191	0.298
-677.193	300.109	-0.069	-0.127
-676.178	-200.000	0.042	-0.232
-675.164	-61.196	-0.264	0.111
-674.149	103.686	-0.180	0.212
-673.135	800.000	-0.128	-0.368
-672.120	-37.412	-0.103	-0.055
-671.105	-200.000	-0.001	-0.290
-670.091	565.527	-0.053	0.128
-669.076	-152.802	-0.189	-0.013
-668.062	338.600	-0.129	-0.252
-667.047	-155.597	0.132	-0.009
-666.032	800.000	-0.075	-0.220
-665.018	800.000	-0.057	-0.188
-664.003	208.404	0.039	-0.061
-662.989	0.221	0.168	-0.120
-661.974	348.386	-0.238	-0.470
-660.959	235.326	-0.112	0.185
-659.945	-55.199	0.220	0.099
-658.930	-69.305	0.291	0.112
-657.916	-36.955	0.140	-0.075
-656.901	739.875	-0.092	-0.247
-655.886	55.612	0.084	-0.082
-654.872	374.052	0.126	0.257
-653.857	800.000	0.057	0.227
-652.843	118.298	-0.161	-0.198
-651.828	-200.000	0.022	0.439
-650.814	171.182	0.097	0.139
-649.799	383.762	-0.073	0.151
-648.784	-34.762	-0.355	-0.194
-647.770	-49.423	0.252	0.120
-646.755	-144.024	0.189	-0.018
-645.741	800.000	0.019	-0.060
-644.726	180.883	-0.165	-0.243
-643.711	362.069	0.171	0.343
-642.697	-55.573	0.390	0.175
-641.682	50.529	-0.313	-0.296
-640.668	-200.000	-0.029	-0.497
-639.653	-31.805	-0.267	0.150
-638.638	668.561	0.050	0.129
-637.624	-147.139	0.146	0.012
-636.609	250.664	0.175	0.298
-635.595	-120.151	-0.330	-0.056
-634.580	800.000	0.052	0.185
-633.565	-47.832	-0.276	0.134
-632.551	-144.963	0.080	-0.007
-631.536	244.207	0.058	0.097
-630.522	800.000	-0.042	0.159
-629.507	-58.837	-0.061	0.026
-628.492	-8.832	-0.320	-0.214
-627.478	-200.000	-0.043	-0.265
-626.463	-28.659	-0.172	0.099
-625.449	800.000	-0.063	-0.177
-624.434	-94.975	-0.269	-0.073
-623.419	19.059	0.151	-0.121
-622.405	-84.898	0.116	0.036
-621.390	-64.303	0.384	-0.156
-620.376	566.899	0.021	0.050
-619.361	-95.247	-0.263	0.071
-618.346	-179.441	-0.320	-0.007
-617.332	-90.383	-0.108	-0.031
-616.317	320.723	-0.208	0.395
-615.303	-168.874	-0.446	0.017
-614.288	-92.185	0.289	0.082
-613.273	-12.375	0.228	0.149
-612.259	21.925	0.085	0.069
-611.244	-62.918	0.051	0.021
-610.230	75.830	-0.036	0.038
-609.215	-40.345	0.288	0.150
-608.201	-49.216	0.342	-0.163
-607.186	-134.269	0.088	-0.011
-606.171	800.000	-0.015	-0.049
-605.157	191.450	0.188	0.282
-604.142	-152.624	0.128	-0.009
-603.128	800.000	-0.069	-0.242
-602.113	-200.000	-0.026	-0.196
-601.098	595.228	-0.059	0.147
-600.084	572.791	-0.079	-0.193
-599.069	18.051	-0.189	-0.151
-598.055	51.053	0.348	0.330
-597.040	-149.677	0.532	0.042
-596.025	-80.556	-0.215	0.072
-595.011	800.000	-0.105	0.352
-593.996	-42.422	-0.262	0.133
-592.982	-165.028	0.261	-0.012
-591.967	-19.368	-0.186	-0.115
-590.952	-200.000	0.049	-0.221
-589.938	101.727	-0.100	0.117
-588.923	-53.114	0.237	-0.109
-587.909	-103.435	-0.039	-0.009
-586.894	-74.711	-0.278	-0.100
-585.879	-73.260	0.058	0.021
-584.865	-114.541	0.078	0.015
-583.850	631.557	-0.082	-0.207
-582.836	-100.061	0.111	-0.027
-581.821	653.758	-0.026	-0.067
-580.806	-102.370	-0.304	-0.073
-579.792	-200.000	0.051	-0.347
-578.777	-170.234	-0.459	0.016
-577.763	-43.055	-0.207	0.105
-576.748	-82.885	-0.205	0.066
-575.733	800.000	0.066	-0.239
-574.719	800.000	0.047	0.173
-573.704	297.170	-0.159	-0.291
-572.690	-200.000	-0.006	-0.184
-571.675	113.609	-0.162	-0.197
-570.661	211.619	0.140	-0.220
-569.646	-93.061	-0.142	0.039
-568.631	243.457	0.108	0.181
-567.617	226.995	-0.090	-0.146
-566.602	-116.263	0.043	-0.008
-565.588	800.000	-0.073	-0.301
-564.573	-27.577	0.056	-0.032
-563.558	-89.381	0.326	-0.096
-562.544	356.939	0.133	-0.263
-561.529	433.391	0.013	-0.029
-560.515	-200.000	0.029	-0.339
-559.500	512.438	0.183	0.425
-558.485	-17.741	-0.273	0.171
-557.471	-200.000	0.012	-0.097
-556.456	21.952	-0.187	-0.152
-555.442	-200.000	-0.087	0.390
-554.427	800.000	0.074	-0.276
-553.412	46.337	0.352	-0.325
-552.398	-200.000	-0.040	-0.257
-551.383	-73.700	0.231	0.084
-550.369	-2.711	-0.044	-0.031
-549.354	732.715	0.078	-0.209
-548.339	376.519	-0.049	0.101
-547.325	800.000	0.029	-0.087
-546.310	-158.934	-0.170	0.010
-545.296	210.980	-0.203	-0.318
-544.281	25.725	-0.152	-0.126
-543.266	-120.955	-0.330	-0.055
-542.252	-200.000	-0.038	0.312
-541.237	323.508	-0.050	0.095
-540.223	29.045	-0.326	0.275
-539.208	-2.286	0.203	-0.142
-538.193	800.000	-0.093	0.261
-537.179	-95.341	-0.073	-0.020
-536.164	-180.664	0.319	0.007
-535.150	800.000	0.084	0.250
-534.135	313.836	0.296	0.554
-533.121	-128.747	0.037	-0.005
-532.106	-18.333	-0.344	0.214
-531.091	318.458	-0.164	-0.309
-530.077	297.691	0.127	-0.232
-529.062	-169.843	-0.223	0.008
-528.048	77.127	0.074	0.079
-527.033	-200.000	0.017	-0.104
-526.018	-20.771	-0.405	-0.248
-525.004	20.926	0.107	0.086
-523.989	-7.064	-0.242	-0.164
-522.975	-200.000	0.023	-0.196
-521.960	-61.190	0.318	-0.134
-520.945	455.604	0.084	-0.186
-519.931	-156.697	0.367	-0.023
-518.916	-147.095	-0.465	0.040
-517.902	800.000	0.158	-0.485
-516.887	144.664	-0.064	0.085
-515.872	800.000	0.061	-0.210
-514.858	-37.015	-0.153	0.081
-513.843	-200.000	0.000	-0.026
-512.829	-172.600	-0.259	0.008
-511.814	-200.000	-0.012	-0.255
-510.799	-200.000	-0.045	-0.235
-509.785	-63.829	-0.154	0.063
-508.770	-42.493	0.356	-0.180
-507.756	-20.506	0.303	0.185
-506.741	392.946	0.124	-0.256
-505.726	-109.128	0.350	0.074
-504.712	-200.000	0.006	0.065
-503.697	-5.824	0.059	-0.040
-502.683	-4.500	-0.160	0.110
-501.668	375.532	-0.135	0.273
-500.653	-110.718	0.177	-0.036
-499.639	127.796	-0.169	-0.213
-498.624	579.616	0.042	0.102
-497.610	-153.325	0.145	0.010
-496.595	800.000	0.157	-0.436
-495.581	800.000	-0.042	0.123
-494.566	500.856	-0.049	-0.112
-493.551	-88.503	-0.121	0.036
-492.537	-75.814	-0.145	-0.051
-491.522	-111.019	-0.143	0.029
-490.508	-200.000	-0.013	-0.135
-489.493	-163.991	0.179	0.008
-488.478	-96.797	-0.048	0.012
-487.464	-200.000	0.019	-0.275
-486.449	800.000	-0.056	-0.172
-485.435	-200.000	-0.016	-0.227
-484.420	800.000	0.097	0.276
-483.405	76.668	-0.111	0.117
-482.391	-125.907	0.073	0.011
-481.376	-0.124	0.094	0.066
-480.362	-159.472	0.425	-0.024
-479.347	-85.578	-0.215	0.066
-478.332	-165.646	0.122	-0.005
-477.318	-161.569	-0.266	-0.014
-476.303	1.419	0.261	0.186
-475.289	-102.781	-0.305	-0.072
-474.274	-126.999	-0.159	-0.023
-473.259	165.618	0.128	-0.180
-472.245	310.216	0.189	0.351
-471.230	-200.000	-0.007	-0.105
-470.216	514.332	0.034	0.079
-469.201	135.364	-0.127	-0.164
-468.186	143.372	-0.110	0.146
-467.172	-131.012	-0.135	0.018
-466.157	-200.000	0.031	0.136
-465.143	-159.010	0.319	0.018
-464.128	21.882	0.289	-0.234
-463.113	-108.481	0.208	-0.044
-462.099	-64.733	0.487	-0.196
-461.084	-200.000	-0.027	-0.125
-460.070	800.000	0.041	-0.151
-459.055	138.036	0.206	-0.268
-458.040	144.828	-0.110	-0.146
-457.026	-12.451	-0.084	0.055
-456.011	342.899	0.111	0.216
-454.997	-200.000	-0.006	0.147
-453.982	-25.346	-0.176	-0.103
-452.968	-98.345	0.288	0.073
-451.953	-148.152	0.456	-0.037
-450.938	205.949	-0.099	-0.153
-449.924	58.312	-0.336	0.327
-448.909	-95.312	0.256	0.068
-447.895	-35.118	-0.438	0.237
-446.880	251.980	-0.133	-0.225
-445.865	40.731	0.234	-0.209
-444.851	-125.978	-0.390	-0.058
-443.836	-111.383	0.165	-0.033
-442.822	19.793	-0.130	0.104
-441.807	-58.600	-0.328	-0.141
-440.792	196.193	-0.170	-0.257
-439.778	-87.918	0.092	0.027
-438.763	800.000	0.092	-0.332
-437.749	86.859	-0.274	-0.300
-436.734	-64.973	0.058	0.023
-435.719	384.318	-0.061	-0.126
-434.705	100.180	0.057	-0.065
-433.690	22.793	0.069	-0.056
-432.676	81.284	-0.252	0.270
-431.661	-23.316	0.078	-0.046
-430.646	26.518	-0.353	0.293
-429.632	112.739	-0.101	-0.122
-428.617	-129.956	-0.281	-0.038
-427.603	48.102	-0.042	0.039
-426.588	329.159	0.084	-0.161
-425.573	-117.187	0.325	0.059
-424.559	-67.660	-0.264	-0.102
-423.544	-127.777	-0.140	-0.020
-422.530	277.303	-0.062	-0.110
-421.515	305.540	-0.146	-0.268
-420.500	800.000	0.027	0.099
-419.486	-200.000	0.001	0.230
-418.471	-33.377	0.128	-0.070
-417.457	106.114	0.101	0.118
-416.442	131.317	0.134	0.170
-415.428	21.514	-0.260	-0.209
-414.413	601.948	-0.129	0.317
-413.398	41.507	0.198	0.178
-412.384	461.547	0.228	-0.504
-411.369	-200.000	0.012	-0.096
-410.355	654.511	-0.038	0.098
-409.340	-59.247	-0.131	0.056
-408.325	-200.000	-0.008	-0.301
-407.311	2.685	-0.065	0.046
-406.296	181.431	-0.086	-0.125
-405.282	-200.000	0.043	0.193
-404.267	-77.372	0.045	-0.015
-403.252	-200.000	-0.072	-0.338
-402.238	92.070	0.152	-0.170
-401.223	-200.000	-0.004	-0.156
-400.209	-9.899	-0.084	-0.055
-399.194	378.184	0.044	-0.089
-398.179	-19.326	0.304	-0.187
-397.165	522.739	-0.090	0.210
-396.150	36.922	-0.305	-0.267
-395.136	-101.341	0.059	-0.014
-394.121	-200.000	-0.026	0.405
-393.106	-78.115	-0.286	-0.097
-392.092	-79.377	-0.278	0.093
-391.077	145.436	0.157	0.208
-390.063	-200.000	-0.028	-0.423
-389.048	800.000	-0.099	0.354
-388.033	-200.000	0.020	0.122
-387.019	-200.000	0.012	0.315
-386.004	601.846	-0.093	0.229
-384.990	-200.000	-0.007	-0.193
-383.975	-93.643	0.039	0.011
-382.960	81.996	-0.266	-0.286
-381.946	133.589	0.030	-0.039
-380.931	208.226	-0.063	-0.098
-379.917	-13.095	-0.302	-0.195
-378.902	61.112	0.355	0.349
-377.888	-5.619	-0.145	0.098
-376.873	-200.000	-0.024	-0.246
-375.858	-200.000	0.008	0.066
-374.844	-91.888	0.093	0.026
-373.829	-149.793	0.297	-0.023
-372.815	800.000	-0.047	-0.196
-371.800	-200.000	0.027	-0.169
-370.785	-37.638	-0.257	0.135
-369.771	-7.847	0.039	0.026
-368.756	50.435	0.210	0.196
-367.742	-44.124	-0.283	-0.140
-366.727	-167.772	0.153	-0.006
-365.712	-89.352	0.358	0.104
-364.698	74.420	0.204	-0.212
-363.683	-2.899	-0.165	0.114
-362.669	4.914	0.156	-0.113
-361.654	-83.042	0.253	-0.081
-360.639	-200.000	-0.029	-0.193
-359.625	-114.535	0.152	0.029
-358.610	-200.000	-0.051	0.304
-357.596	-37.236	-0.171	0.090
-356.581	104.400	0.105	0.122
-355.566	25.799	0.115	0.095
-354.552	159.234	0.161	0.221
-353.537	-200.000	0.024	0.220
-352.523	516.476	-0.054	0.125
-351.508	163.388	-0.048	-0.066
-350.493	-7.558	0.243	0.162
-349.479	319.487	0.166	-0.311
-348.464	141.124	-0.187	-0.245
-347.450	-200.000	0.040	0.329
-346.435	-200.000	-0.001	-0.104
-345.420	800.000	-0.040	0.159
-344.406	-128.047	0.153	-0.022
-343.391	89.288	0.138	-0.152
-342.377	-60.920	-0.308	0.129
-341.362	58.575	0.239	0.232
-340.348	-28.862	0.140	0.080
-339.333	-200.000	0.001	0.138
-338.318	-172.910	-0.171	-0.005
-337.304	-200.000	-0.019	0.356
-336.289	-200.000	-0.015	0.492
-335.275	-0.055	0.177	-0.125
-334.260	-125.786	-0.222	-0.033
-333.245	373.495	0.112	0.226
-332.231	-102.569	0.203	-0.048
-331.216	-200.000	-0.039	0.219
-330.202	800.000	0.028	-0.107
-329.187	-85.792	0.293	-0.090
-328.172	142.730	0.032	0.042
-327.158	800.000	-0.054	0.188
-326.143	-172.422	0.320	0.010
-325.129	-200.000	0.012	-0.169
-324.114	-200.000	0.011	-0.077
-323.099	-43.098	0.214	-0.107
-322.085	-94.425	-0.157	-0.042
-321.070	-157.688	0.078	0.005
-320.056	-76.425	0.090	-0.031
-319.041	404.283	0.092	0.191
-318.026	-180.382	-0.046	-0.001
-317.012	-14.888	0.115	0.073
-315.997	-200.000	0.016	0.082
-314.983	-200.000	0.002	-0.022
-313.968	-200.000	-0.007	-0.112
-312.953	-200.000	0.036	0.213
-311.939	592.258	-0.035	-0.085
-310.924	-41.234	-0.345	-0.175
-309.910	-150.809	-0.259	0.019
-308.895	224.224	0.107	0.170
-307.880	800.000	-0.113	-0.458
-306.866	371.381	-0.038	-0.077
-305.851	800.000	0.112	0.317
-304.837	554.334	-0.042	0.100
-303.822	184.562	-0.078	0.113
-302.807	-140.447	-0.387	-0.040
-301.793	-117.417	-0.164	0.029
-300.778	-117.863	-0.191	-0.034
-299.764	800.000	0.006	-0.019
-298.749	-200.000	-0.016	0.124
-297.735	800.000	-0.072	0.217
-296.720	9.566	0.381	-0.285
-295.705	240.725	0.069	-0.113
-294.691	-89.304	0.140	0.041
-293.676	-46.719	0.075	-0.036
-292.662	2.331	-0.301	0.215
-291.647	293.735	0.135	0.243
-290.632	-56.906	0.288	0.126
-289.618	-4.050	0.272	0.186
-288.603	-74.845	-0.157	-0.056
-287.589	-53.355	0.069	0.031
-286.574	-200.000	-0.023	-0.118
-285.559	-77.770	0.224	0.076
-284.545	146.380	0.156	-0.207
-283.530	-54.480	-0.164	-0.073
-282.516	8.857	0.340	-0.253
-281.501	250.489	-0.098	-0.164
-280.486	68.476	-0.049	0.049
-279.472	-200.000	0.002	0.344
-278.457	-78.338	0.078	0.026
-277.443	-133.624	0.104	0.013
-276.428	-167.516	-0.180	0.007
-275.413	141.384	-0.053	-0.069
-274.399	-200.000	-0.015	0.156
-273.384	-10.723	-0.199	-0.130
-272.370	147.204	0.004	0.005
-271.355	5.300	0.227	0.165
-270.340	297.037	0.141	0.255
-269.326	397.304	-0.109	0.225
-268.311	-136.043	-0.360	0.042
-267.297	148.186	-0.082	0.109
-266.282	110.926	-0.014	-0.017
-265.267	-3.611	-0.358	-0.245
-264.253	-142.647	0.318	-0.031
-263.238	-129.943	0.152	-0.021
-262.224	-9.795	-0.232	0.152
-261.209	-84.443	-0.178	-0.055
-260.195	92.877	0.094	-0.105
-259.180	-103.986	0.237	-0.054
-258.165	292.633	0.122	-0.218
-257.151	-35.312	0.116	-0.062
-256.136	-117.740	0.431	0.076
-255.122	-21.641	0.240	0.144
-254.107	800.000	0.040	-0.134
-253.092	-200.000	0.024	0.236
-252.078	118.423	0.212	0.257
-251.063	52.024	0.023	-0.021
-250.049	59.836	-0.115	0.112
-249.034	-34.000	-0.104	-0.056
-248.019	-99.356	0.217	-0.054
-247.005	-72.771	0.413	-0.150
-245.990	224.485	-0.107	0.170
-244.976	17.133	-0.179	-0.139
-243.961	322.878	0.048	0.089
-242.946	-134.225	-0.223	-0.027
-241.932	800.000	-0.029	-0.120
-240.917	800.000	-0.076	0.214
-239.903	-109.322	-0.105	-0.022
-238.888	-200.000	0.228	-0.000
-237.873	-118.782	-0.029	-0.005
-236.859	-64.635	-0.296	-0.118
-235.844	118.999	-0.097	-0.117
-234.830	-94.130	0.146	-0.039
-233.815	107.094	0.035	-0.041
-232.800	18.823	0.098	0.077
-231.786	800.000	-0.072	0.206
-230.771	182.847	0.167	0.242
-229.757	115.217	-0.046	-0.055
-228.742	-200.000	0.025	0.332
-227.727	800.000	0.063	0.237
-226.713	-84.097	0.333	0.104
-225.698	-200.000	-0.009	0.112
-224.684	-200.000	0.014	-0.064
-223.669	77.323	0.261	-0.274
-222.655	-200.000	0.012	-0.218
-221.640	-115.763	0.157	-0.029
-220.625	-84.232	-0.090	0.028
-219.611	73.182	0.094	0.097
-218.596	-200.000	0.003	-0.302
-217.582	1.308	0.206	0.146
-216.567	800.000	-0.023	0.089
-215.552	220.920	-0.070	0.110
-214.538	-36.010	-0.478	-0.254
-213.523	310.328	0.108	-0.200
-212.509	-200.000	-0.016	0.247
-211.494	166.836	0.157	-0.219
-210.479	800.000	-0.066	-0.273
-209.465	448.116	0.116	0.252
-208.450	800.000	-0.080	0.246
-207.436	800.000	-0.075	0.269
-206.421	-10.917	-0.075	-0.049
-205.406	-96.993	-0.115	-0.030
-204.392	-176.883	0.205	-0.005
-203.377	199.133	0.172	0.260
-202.363	-91.273	0.128	0.036
-201.348	-200.000	-0.046	-0.427
-200.333	800.000	-0.101	0.284
-199.319	-148.973	0.212	0.017
-198.304	283.104	-0.136	-0.241
-197.290	-1.932	0.207	0.143
-196.275	-100.004	0.216	0.053
-195.260	-51.407	-0.233	0.107
-194.246	247.872	-0.098	-0.162
-193.231	-123.424	-0.089	0.014
-192.217	800.000	0.026	-0.107
-191.202	-200.000	-0.028	0.216
-190.187	-5.302	-0.068	-0.046
-189.173	-200.000	-0.027	0.140
-188.158	166.068	-0.191	0.266
-187.144	7.123	-0.049	0.036
-186.129	-36.437	-0.132	-0.070
-185.114	47.770	-0.258	-0.236
-184.100	-200.000	0.003	-0.034
-183.085	119.716	0.221	-0.268
-182.071	-200.000	0.013	-0.145
-181.056	-113.222	-0.108	-0.021
-180.042	151.223	0.104	0.139
-179.027	294.353	0.021	0.037
-178.012	-72.311	0.167	-0.061
-176.998	800.000	-0.105	0.286
-175.983	146.963	-0.095	-0.126
-174.969	130.981	-0.114	-0.144
-173.954	55.667	0.247	0.235
-172.939	20.211	-0.185	-0.147
-171.925	-105.492	0.143	-0.032
-170.910	-42.316	-0.306	-0.154
-169.896	-200.000	-0.069	0.366
-168.881	-25.741	0.108	0.063
-167.866	-33.432	-0.145	-0.079
-166.852	-26.901	-0.091	-0.052
-165.837	-141.876	-0.328	0.032
-164.823	-104.950	-0.339	-0.076
-163.808	119.632	0.179	0.218
-162.793	623.165	-0.159	0.392
-161.779	-26.451	-0.167	0.096
-160.764	317.372	-0.132	0.246
-159.750	-200.000	-0.072	0.352
-158.735	-83.723	0.302	0.095
-157.720	176.735	-0.219	0.312
-156.706	-40.903	0.117	0.059
-155.691	225.009	0.119	0.189
-154.677	360.929	-0.020	0.040
-153.662	-84.872	0.115	-0.036
-152.647	-48.800	0.080	-0.037
-151.633	800.000	0.042	0.153
-150.618	15.336	0.248	0.191
-149.604	100.433	-0.154	0.175
-148.589	144.638	-0.333	0.436
-147.574	800.000	0.050	0.168
-146.560	-200.000	-0.015	-0.133
-145.545	-200.000	-0.001	0.068
-144.531	215.146	-0.142	0.221
-143.516	-114.105	0.173	0.033
-142.502	429.631	-0.191	-0.406
-141.487	74.857	-0.217	0.224
-140.472	21.553	-0.077	0.062
-139.458	263.576	0.113	-0.192
-138.443	-96.624	0.126	0.033
-137.429	-115.920	0.177	0.032
-136.414	-47.420	0.049	-0.023
-135.399	791.400	0.160	0.432
-134.385	208.157	0.139	-0.214
-133.370	177.547	0.064	0.092
-132.356	594.537	0.095	-0.230
-131.341	101.660	-0.035	0.040
-130.326	282.588	-0.147	-0.258
-129.312	48.578	-0.207	-0.191
-128.297	87.631	-0.108	-0.117
-127.283	-103.811	0.201	0.046
-126.268	-200.000	-0.070	0.504
-125.253	-200.000	-0.060	0.318
-124.239	-156.808	0.217	-0.013
-123.224	800.000	-0.124	-0.339
-122.210	-104.363	-0.079	0.018
-121.195	-127.209	0.088	-0.013
-120.180	326.452	0.113	0.211
-119.166	19.979	-0.112	-0.088
-118.151	148.045	-0.141	-0.186
-117.137	390.712	0.076	-0.154
-116.122	9.894	-0.222	0.165
-115.107	163.712	0.098	0.136
-114.093	-138.575	-0.311	-0.033
-113.078	-156.082	0.097	-0.006
-112.064	100.140	-0.243	0.276
-111.049	-29.276	0.211	-0.118
-110.034	74.942	-0.150	-0.155
-109.020	-96.237	0.183	-0.047
-108.005	-108.579	0.164	0.034
-106.991	-11.881	-0.260	0.167
-105.976	150.156	-0.113	0.150
-104.962	-6.596	-0.148	0.099
-103.947	-132.573	-0.104	-0.013
-102.932	-200.000	-0.030	-0.315
-101.918	426.691	-0.142	-0.301
-100.903	42.908	-0.077	-0.069
-99.889	55.283	0.242	-0.229
-98.874	-200.000	0.064	-0.505
-97.859	-139.514	-0.373	0.039
-96.845	800.000	0.029	0.088
-95.830	-98.805	0.156	-0.039
-94.816	-99.624	-0.291	0.072
-93.801	-24.328	0.050	0.029
-92.786	-200.000	-0.014	0.113
-91.772	23.511	0.286	0.230
-90.757	45.019	0.319	-0.287
-89.743	467.272	-0.148	-0.325
-88.728	12.416	0.170	-0.128
-87.713	109.491	0.283	0.332
-86.699	-200.000	-0.006	-0.142
-85.684	46.942	-0.131	0.119
-84.670	587.612	-0.145	0.348
-83.655	565.017	-0.138	-0.328
-82.640	183.505	0.248	-0.358
-81.626	569.633	0.051	-0.122
-80.611	-27.679	0.236	-0.134
-79.597	183.839	-0.031	0.045
-78.582	-200.000	-0.014	-0.080
-77.567	30.010	0.113	0.094
-76.553	-200.000	-0.011	-0.136
-75.538	-16.197	0.334	0.208
-74.524	176.428	0.182	-0.259
-73.509	-200.000	0.009	0.111
-72.494	123.393	0.170	-0.208
-71.480	141.961	-0.126	0.163
-70.465	-95.624	0.156	0.041
-69.451	-153.688	-0.112	0.008
-68.436	-200.000	-0.093	-0.498
-67.422	144.759	-0.113	-0.147
-66.407	-200.000	-0.009	-0.195
-65.392	285.449	0.156	0.275
-64.378	239.167	0.100	0.163
-63.363	-200.000	-0.017	0.347
-62.349	62.695	0.304	0.298
-61.334	66.911	-0.996	-0.992
-60.319	40.630	0.426	0.375
-59.305	346.169	-0.576	-1.107
-58.290	249.124	0.836	1.385
-57.276	671.024	0.743	1.881
-56.261	-200.000	113.924	644.535
-55.246	477.578	1501.310	3319.548
-54.232	149.381	2663.617	3524.438
-53.217	102.848	2167.204	2479.595
-52.203	37.680	1697.132	1472.353
-51.188	30.388	1514.628	1264.531
-50.173	28.240	1490.357	1229.807
-49.159	52.182	1547.384	1441.277
-48.144	51.021	1563.353	1448.161
-47.130	30.684	1520.136	1270.952
-46.115	27.560	1505.648	1237.613
-45.100	27.518	1501.412	1233.794
-44.086	27.415	1499.254	1231.273
-43.071	27.353	1497.812	1229.621
-42.057	27.475	1496.133	1229.020
-41.042	27.348	1494.785	1227.006
-40.027	27.386	1493.363	1226.045
-39.013	27.393	1491.596	1224.593
-37.998	27.354	1490.360	1223.269
-36.984	27.304	1489.470	1222.152
-35.969	27.298	1488.322	1221.125
-34.954	27.315	1486.714	1219.872
-33.940	27.278	1485.854	1218.869
-32.925	27.378	1483.852	1217.843
-31.911	27.427	1482.315	1216.864
-30.896	27.376	1481.188	1215.553
-29.881	27.462	1480.154	1215.225
-28.867	27.438	1478.960	1214.042
-27.852	27.378	1477.891	1212.714
-26.838	27.402	1476.575	1211.745
-25.823	27.422	1474.622	1210.225
-24.809	27.391	1473.157	1208.768
-23.794	27.425	1471.391	1207.502
-22.779	27.358	1470.440	1206.230
-21.765	27.345	1469.724	1205.503
-20.750	27.502	1468.024	1205.101
-19.736	27.389	1467.104	1203.548
-18.721	27.433	1466.118	1202.987
-17.706	27.373	1464.991	1201.620
-16.692	27.366	1464.031	1200.735
-15.677	27.474	1463.093	1200.631
-14.663	27.356	1461.951	1198.869
-13.648	27.382	1461.294	1198.455
-12.633	27.341	1460.574	1197.546
-11.619	27.384	1459.897	1197.229
-10.604	27.428	1458.610	1196.414
-9.590	27.404	1457.253	1195.091
-8.575	27.331	1456.894	1194.275
-7.560	27.374	1456.143	1193.891
-6.546	27.345	1455.302	1192.969
-5.531	27.364	1454.187	1192.126
-4.517	27.401	1453.125	1191.450
-3.502	27.380	1452.169	1190.486
-2.487	27.314	1451.373	1189.353
-1.473	27.268	1450.507	1188.295
-0.458	27.331	1448.731	1187.206
0.556	25.810	1439.142	1176.587
1.571	22.982	1415.187	1138.709
2.586	19.784	1355.902	1071.131
3.600	18.460	1273.576	998.298
4.615	17.395	1228.635	957.000
5.629	16.542	1175.700	911.096
6.644	13.384	1098.651	835.391
7.659	10.537	1064.388	795.320
8.673	10.073	1059.373	789.238
9.688	10.044	1056.264	786.713
10.702	9.999	1054.781	785.318
11.717	9.955	1052.566	783.385
12.731	11.318	1052.185	789.636
13.746	14.491	1056.516	808.220
14.761	17.285	1059.551	824.035
15.775	17.901	1059.320	826.768
16.790	17.094	1057.026	821.000
17.804	16.006	1055.184	814.241
18.819	15.131	1053.336	808.522
19.834	14.589	1051.965	804.787
20.848	14.303	1051.145	802.709
21.863	14.066	1050.234	800.800
22.877	13.769	1049.664	798.863
23.892	13.549	1048.866	797.128
24.907	13.563	1047.925	796.411
25.921	13.589	1047.255	795.956
26.936	13.582	1046.495	795.275
27.950	13.483	1045.676	794.107
28.965	13.644	1043.999	793.534
29.980	13.650	1043.377	793.020
30.994	13.848	1041.797	792.696
32.009	13.713	1041.232	791.548
33.023	13.934	1040.053	791.639
34.038	13.792	1039.689	790.612
35.053	13.733	1038.419	789.297
36.067	13.684	1037.832	788.547
37.082	13.639	1036.998	787.628
38.096	13.630	1036.121	786.850
39.111	13.841	1034.893	786.849
40.126	13.813	1033.920	785.907
41.140	13.832	1032.668	784.976
42.155	13.649	1031.836	783.407
43.169	13.529	1031.044	782.171
44.184	13.442	1030.438	781.233
45.199	13.569	1029.295	780.895
46.213	13.581	1028.229	780.074
47.228	13.589	1027.024	779.130
48.242	13.564	1026.227	778.337
49.257	13.514	1025.604	777.562
50.271	13.567	1024.223	776.695
51.286	13.696	1023.160	776.424
52.301	13.819	1022.976	776.792
53.315	13.603	1022.168	775.098
54.330	13.501	1021.293	773.889
55.344	13.585	1019.962	773.207
56.359	13.550	1019.190	772.388
57.374	13.642	1017.875	771.750
58.388	13.631	1017.391	771.266
59.403	13.555	1016.552	770.210
60.417	13.561	1015.828	769.620
61.432	13.475	1015.267	768.725
62.447	13.363	1014.305	767.409
63.461	13.438	1013.558	767.124
64.476	13.410	1012.440	766.083
65.490	13.408	1011.294	765.139
66.505	13.518	1010.598	765.050
67.520	13.453	1010.178	764.363
68.534	13.559	1009.064	763.945
69.549	13.503	1008.421	763.132
70.563	13.360	1007.888	762.001
71.578	13.497	1007.123	761.987
72.593	13.377	1006.586	760.959
73.607	13.267	1005.432	759.518
74.622	13.445	1003.888	759.101
75.636	13.433	1003.374	758.587
76.651	13.369	1002.747	757.752
77.666	13.282	1002.139	756.828
78.680	13.352	1001.095	756.292
79.695	13.368	1001.039	756.259
80.709	13.469	999.643	755.595
81.724	13.507	999.059	755.262
82.739	13.553	998.127	754.699
83.753	13.596	997.328	754.225
84.768	13.551	997.171	753.833
85.782	13.622	996.727	753.753
86.797	13.883	995.218	753.733
87.812	13.803	994.680	752.895
88.826	13.716	993.732	751.717
89.841	13.659	993.193	750.985
90.855	13.635	992.700	750.439
91.870	13.776	990.983	749.707
92.884	13.756	990.866	749.464
93.899	13.765	990.183	748.921
94.914	13.800	989.192	748.265
95.928	13.830	988.407	747.737
96.943	13.797	987.941	747.172
97.957	13.681	986.896	745.795
98.972	13.662	986.348	745.229
99.987	13.679	985.727	744.771
101.001	13.866	984.470	744.595
102.016	13.836	983.290	743.500
103.030	13.691	983.233	742.740
104.045	13.709	981.754	741.640
105.060	13.809	981.087	741.517
106.074	13.712	980.385	740.489
107.089	13.739	979.140	739.600
108.103	13.460	978.658	737.927
109.118	13.675	977.476	737.926
110.133	13.630	976.826	737.174
111.147	13.581	975.818	736.129
112.162	13.492	975.468	735.404
113.176	13.748	974.225	735.538
114.191	13.641	973.589	734.517
115.206	13.552	972.508	733.245
116.220	13.615	971.884	732.986
117.235	13.669	971.357	732.762
118.249	13.592	970.293	731.558
119.264	13.656	969.256	730.994
120.279	13.616	968.518	730.195
121.293	13.473	967.841	728.992
122.308	13.512	967.266	728.664
123.322	13.508	965.739	727.433
124.337	13.577	965.149	727.224
125.352	13.383	964.082	725.509
126.366	13.486	962.411	724.634
127.381	13.410	961.924	723.874
128.395	13.428	961.125	723.285
129.410	13.511	959.845	722.622
130.424	13.526	959.230	722.159
131.439	13.597	958.259	721.676
132.454	13.568	957.270	720.740
133.468	13.603	956.485	720.235
134.483	13.576	955.773	719.520
135.497	13.588	955.532	719.326
136.512	13.539	954.722	718.442
137.527	13.594	953.966	718.047
138.541	13.677	952.782	717.452
139.556	13.568	952.458	716.674
140.570	13.715	951.760	716.717
141.585	13.683	951.009	715.950
142.600	13.738	950.524	715.759
143.614	13.799	949.510	715.197
144.629	13.836	949.017	714.919
145.643	14.018	947.823	714.742
146.658	13.972	947.018	713.875
147.673	13.883	946.203	712.816
148.687	13.694	945.875	711.693
149.702	13.738	944.599	710.859
150.716	13.643	943.742	709.742
151.731	13.691	943.054	709.368
152.746	13.650	942.126	708.432
153.760	13.746	941.419	708.250
154.775	13.825	940.820	708.071
155.789	13.799	939.938	707.237
156.804	13.785	939.250	706.593
157.819	13.875	938.380	706.261
158.833	13.904	937.769	705.860
159.848	14.030	936.920	705.694
160.862	14.002	936.356	705.091
161.877	13.908	936.046	704.395
162.892	13.867	935.025	703.391
163.906	13.856	934.013	702.520
164.921	13.793	933.455	701.773
165.935	13.832	932.398	701.078
166.950	13.780	931.320	699.990
167.964	13.768	930.613	699.342
168.979	13.934	929.178	698.903
169.994	13.909	928.825	698.472
171.008	13.907	927.658	697.521
172.023	13.771	927.339	696.649
173.037	13.911	926.537	696.574
174.052	14.009	925.632	696.243
175.067	13.992	925.082	695.694
176.081	13.974	924.271	694.948
177.096	13.919	923.182	693.836
178.110	13.885	922.408	693.053
179.125	13.912	921.617	692.510
180.140	13.916	921.009	692.008
181.154	13.908	920.481	691.517
182.169	14.048	919.675	691.431
183.183	14.074	919.008	690.977
184.198	14.020	918.820	690.551
185.213	14.125	917.622	690.025
186.227	14.251	916.605	689.720
187.242	14.122	916.655	689.163
188.256	14.261	915.316	688.672
189.271	14.199	914.971	688.093
190.286	14.205	914.084	687.393
191.300	14.145	913.497	686.640
192.315	14.074	912.490	685.533
193.329	13.934	912.031	684.547
194.344	13.976	911.684	684.399
195.359	13.976	910.966	683.799
196.373	14.072	910.470	683.763
197.388	14.033	910.027	683.209
198.402	14.169	909.383	683.223
199.417	14.222	909.174	683.223
200.432	14.358	908.656	683.332
201.446	14.312	908.134	682.690
202.461	14.500	907.524	682.941
203.475	14.521	906.580	682.256
204.490	14.609	906.155	682.237
205.504	14.429	905.306	680.803
206.519	14.395	904.588	680.062
207.534	14.430	903.653	679.441
208.548	14.384	902.901	678.631
209.563	14.362	902.539	678.209
210.577	14.419	901.940	677.928
211.592	14.290	901.502	677.015
212.607	14.480	900.800	677.202
213.621	14.513	900.083	676.735
214.636	14.620	899.471	676.650
215.650	14.464	899.158	675.721
216.665	14.560	898.416	675.494
217.680	14.623	898.006	675.382
218.694	14.625	897.004	674.577
219.709	14.648	896.666	674.353
220.723	14.621	896.303	673.913
221.738	14.619	895.604	673.318
222.753	14.540	894.835	672.364
223.767	14.799	893.638	672.445
224.782	14.841	892.916	672.014
225.796	14.760	892.764	671.512
226.811	14.817	891.987	671.100
227.826	14.773	891.007	670.125
228.840	14.658	890.714	669.382
229.855	14.755	889.762	668.997
230.869	14.705	889.245	668.351
231.884	14.762	888.630	668.055
232.899	14.665	888.345	667.396
233.913	14.725	887.153	666.681
234.928	14.634	886.691	665.909
235.942	14.539	885.803	664.807
236.957	14.582	885.107	664.396
237.972	14.702	884.571	664.414
238.986	14.778	883.958	664.198
240.001	14.619	883.398	663.085
241.015	14.742	882.333	662.714
242.030	14.730	881.750	662.171
243.045	14.806	881.264	662.047
244.059	14.753	880.576	661.265
245.074	14.950	879.908	661.483
246.088	14.791	879.522	660.504
247.103	14.944	878.749	660.471
248.117	14.909	878.365	659.987
249.132	14.904	878.146	659.741
250.147	14.954	877.451	659.360
251.161	15.151	876.612	659.447
252.176	15.249	876.032	659.337
253.190	15.297	875.149	658.804
254.205	15.338	874.234	658.216
255.220	15.280	874.208	657.910
256.234	15.172	873.349	656.784
257.249	15.385	872.730	657.094
258.263	15.291	872.389	656.410
259.278	15.352	871.743	656.105
260.293	15.313	871.081	655.396
261.307	15.245	870.709	654.793
262.322	15.479	869.675	654.871
263.336	15.365	869.320	654.099
264.351	15.281	868.697	653.245
265.366	15.458	868.053	653.395
266.380	15.501	867.199	652.858
267.395	15.544	866.690	652.587
268.409	15.504	865.957	651.823
269.424	15.519	865.156	651.219
270.439	15.356	864.937	650.363
271.453	15.441	863.979	649.916
272.468	15.460	862.916	649.132
273.482	15.481	862.487	648.831
274.497	15.593	861.503	648.468
275.512	15.562	861.199	648.063
276.526	15.441	860.744	647.195
277.541	15.511	860.046	646.884
278.555	15.559	859.422	646.541
279.570	15.600	858.928	646.270
280.585	15.510	858.444	645.502
281.599	15.733	857.582	645.652
282.614	15.698	857.023	645.040
283.628	15.644	856.806	644.615
284.643	15.553	856.425	643.920
285.657	15.582	855.468	643.257
286.672	15.594	855.153	643.008
287.687	15.563	854.651	642.454
288.701	15.581	854.450	642.316
289.716	15.619	853.869	641.969
290.730	15.568	853.200	641.215
291.745	15.684	852.170	640.823
292.760	15.648	851.622	640.220
293.774	15.763	851.043	640.166
294.789	15.920	850.723	640.465
295.803	15.773	850.019	639.317
296.818	15.777	848.850	638.398
297.833	15.892	848.206	638.294
298.847	15.840	847.902	637.813
299.862	15.858	846.823	637.009
300.876	15.914	846.379	636.832
301.891	15.947	845.688	636.381
302.906	15.984	845.032	635.971
303.920	16.011	844.670	635.746
304.935	16.071	843.865	635.309
305.949	15.959	843.443	634.513
306.964	16.072	842.787	634.387
307.979	16.098	842.037	633.864
308.993	16.074	841.821	633.557
310.008	16.038	841.179	632.883
311.022	16.060	840.866	632.673
312.037	16.204	840.252	632.695
313.052	16.146	839.564	631.905
314.066	16.081	838.918	631.119
315.081	16.051	838.253	630.449
316.095	16.078	837.720	630.094
317.110	16.012	837.494	629.623
318.125	16.029	836.951	629.221
319.139	16.086	836.114	628.750
320.154	16.053	835.778	628.319
321.168	16.017	835.669	628.045
322.183	16.046	834.900	627.522
323.197	16.166	834.119	627.325
324.212	16.223	833.439	626.969
325.227	16.262	833.108	626.809
326.241	16.300	832.311	626.296
327.256	16.176	832.274	625.752
328.270	16.174	831.274	624.936
329.285	16.035	831.328	624.409
330.300	16.308	830.300	624.590
331.314	16.193	829.857	623.776
332.329	16.126	829.491	623.200
333.343	16.134	828.847	622.690
334.358	16.260	828.169	622.591
335.373	16.372	827.444	622.401
336.387	16.466	826.694	622.129
337.402	16.556	826.454	622.225
338.416	16.460	826.188	621.616
339.431	16.386	825.476	620.753
340.446	16.468	824.889	620.559
341.460	16.540	823.963	620.069
342.475	16.670	823.727	620.314
343.489	16.708	823.158	619.969
344.504	16.650	823.196	619.733
345.519	16.548	822.814	619.015
346.533	16.688	821.763	618.681
347.548	16.688	821.350	618.316
348.562	16.724	820.481	617.738
349.577	16.536	820.370	616.914
350.592	16.636	819.622	616.661
351.606	16.541	819.522	616.185
352.621	16.499	818.925	615.531
353.635	16.608	818.243	615.359
354.650	16.533	818.121	614.941
355.665	16.698	817.576	615.077
356.679	16.599	817.426	614.550
357.694	16.645	816.498	613.965
358.708	16.634	816.140	613.599
359.723	16.702	815.105	613.015
360.738	16.648	815.132	612.786
361.752	16.746	814.056	612.278
362.767	16.689	814.296	612.196
363.781	16.749	813.883	612.050
364.796	17.011	812.971	612.255
365.810	16.875	812.750	611.541
366.825	16.985	812.408	611.629
367.840	16.931	812.100	611.149
368.854	17.156	811.407	611.380
369.869	16.911	810.990	610.133
370.883	17.053	810.497	610.218
371.898	17.096	809.721	609.735
372.913	16.980	809.239	608.902
373.927	16.864	808.987	608.243
374.942	17.114	807.886	608.254
375.956	16.879	807.709	607.226
376.971	17.128	806.795	607.375
377.986	17.133	806.152	606.856
379.000	16.961	806.212	606.235
380.015	17.239	805.570	606.687
381.029	17.302	805.088	606.496
382.044	17.324	804.353	605.967
383.059	17.214	803.668	605.008
384.073	17.332	802.983	604.859
385.088	17.206	803.005	604.372
386.102	17.113	802.316	603.470
387.117	17.100	801.751	602.945
388.132	17.143	801.368	602.755
389.146	17.124	800.679	602.116
390.161	17.366	800.214	602.573
391.175	17.273	800.152	602.144
392.190	17.261	799.670	601.683
393.205	17.310	798.958	601.270
394.219	17.437	798.523	601.338
395.234	17.240	797.996	600.190
396.248	17.232	797.674	599.866
397.263	17.211	796.967	599.207
398.278	17.130	797.106	598.975
399.292	17.104	796.360	598.268
400.307	17.320	795.916	598.644
401.321	17.306	795.585	598.291
402.336	17.233	794.986	597.532
403.350	17.275	795.012	597.646
404.365	17.351	794.138	597.202
405.380	17.344	794.011	597.030
406.394	17.485	793.427	597.034
407.409	17.581	792.908	596.927
408.423	17.588	792.438	596.544
409.438	17.628	791.886	596.217
410.453	17.567	791.556	595.700
411.467	17.483	791.495	595.308
412.482	17.717	790.484	595.314
413.496	17.699	790.011	594.842
414.511	17.730	789.592	594.581
415.526	17.644	789.687	594.301
416.540	17.709	789.510	594.343
417.555	17.649	788.861	593.591
418.569	17.695	788.270	593.255
419.584	17.759	787.722	593.013
420.599	17.702	787.646	592.703
421.613	111.909	1292.929	1476.790
422.628	96.089	1366.502	1476.855
