DTS Sentinel unit serial number:	SN413079Multiplexer serial number:	ORYXHardware model number:	OX4-SRSoftware version number:	ORYX F/W v4.00 Oryx Data Collector v3.7.2.0data status	okinstallation	princeton_trtdifferential loss correction	single-endedforward channel	channel 3reverse channel	N/Adate	2019/09/17time	20:44:35forward acquisition time	60.00reverse acquisition time	0.00gamma	496.2192k internal	0.2333k external	0.2333temperature offset calibration	0.9955default loss term (dB/km)	0.3790temperature slope calibration	1.0000multiplexer offset coefficient	1.0000multiplexer slope coefficient	1.0000fibre end	0.00T internal ref (°C)	29.62T ext. ref 1 (°C)	0.21T ext. ref 2 (°C)	20.82length (m)	temperature (°C)	Stokes	anti-Stokes-747.200	-102.503	0.334	0.080
-746.185	800.000	0.077	0.295
-745.171	-93.517	0.290	0.081
-744.156	-138.740	-0.549	0.060
-743.142	517.396	0.058	-0.137
-742.127	-162.913	-0.059	-0.003
-741.112	3.718	0.137	-0.101
-740.098	192.150	0.082	0.125
-739.083	-150.296	-0.215	-0.017
-738.069	800.000	-0.066	0.184
-737.054	54.930	0.042	-0.040
-736.039	-138.503	-0.155	-0.017
-735.025	800.000	0.056	0.220
-734.010	355.197	-0.117	-0.234
-732.996	-37.735	0.095	-0.051
-731.981	-40.805	0.102	-0.053
-730.966	800.000	0.033	-0.127
-729.952	121.541	-0.106	-0.133
-728.937	-64.162	0.322	0.132
-727.923	-6.180	-0.093	0.064
-726.908	-200.000	0.039	-0.270
-725.894	-200.000	0.022	-0.100
-724.879	48.183	-0.112	-0.105
-723.864	-200.000	-0.018	-0.150
-722.850	-200.000	-0.003	-0.155
-721.835	465.415	0.036	0.081
-720.821	-130.963	-0.347	-0.047
-719.806	-75.882	-0.180	-0.064
-718.791	-1.359	0.014	-0.010
-717.777	621.916	-0.135	0.342
-716.762	-200.000	-0.032	-0.253
-715.748	800.000	-0.105	-0.296
-714.733	-117.221	0.142	0.026
-713.718	-200.000	0.060	-0.330
-712.704	133.639	-0.162	0.211
-711.689	-149.502	0.308	0.025
-710.675	215.786	-0.116	-0.184
-709.660	28.330	0.071	0.060
-708.645	98.872	0.203	-0.235
-707.631	800.000	-0.064	-0.248
-706.616	81.369	0.127	0.138
-705.602	486.102	-0.164	0.374
-704.587	26.986	-0.213	-0.180
-703.572	-115.601	0.378	0.071
-702.558	58.383	0.178	-0.176
-701.543	-112.660	-0.132	0.026
-700.529	241.768	0.139	-0.233
-699.514	-41.370	0.070	-0.036
-698.499	-152.772	-0.168	0.012
-697.485	86.533	-0.027	-0.030
-696.470	254.845	0.157	-0.270
-695.456	266.743	0.159	-0.279
-694.441	46.031	-0.189	-0.175
-693.426	201.363	-0.221	0.342
-692.412	-145.929	0.202	-0.018
-691.397	325.223	0.222	-0.427
-690.383	-145.609	0.255	0.023
-689.368	-91.437	-0.351	0.100
-688.354	-52.754	-0.223	0.103
-687.339	201.461	0.146	0.225
-686.324	-25.429	-0.260	-0.154
-685.310	-200.000	-0.069	0.309
-684.295	-85.312	-0.141	0.044
-683.281	800.000	0.077	-0.313
-682.266	247.640	-0.148	0.250
-681.251	-20.174	0.289	0.179
-680.237	-112.282	-0.277	-0.056
-679.222	-70.105	-0.160	-0.061
-678.208	-200.000	0.002	-0.070
-677.193	-91.548	-0.183	0.052
-676.178	800.000	-0.071	0.221
-675.164	98.701	0.120	0.139
-674.149	-94.698	-0.186	-0.051
-673.135	47.595	-0.320	-0.299
-672.120	-200.000	-0.057	0.281
-671.105	-91.618	-0.098	-0.028
-670.091	800.000	-0.079	0.281
-669.076	178.401	-0.125	-0.183
-668.062	-200.000	-0.033	-0.171
-667.047	83.061	0.133	-0.145
-666.032	-41.699	0.091	-0.047
-665.018	-52.199	0.218	-0.101
-664.003	158.783	-0.128	0.178
-662.989	-200.000	0.058	-0.254
-661.974	-104.804	-0.330	-0.076
-660.959	-200.000	0.024	0.452
-659.945	-200.000	-0.005	0.431
-658.930	800.000	0.006	0.019
-657.916	-70.838	0.125	0.047
-656.901	-164.796	0.038	0.002
-655.886	-85.948	0.258	-0.080
-654.872	-30.741	0.175	0.099
-653.857	-98.382	-0.309	0.079
-652.843	157.512	-0.196	-0.272
-651.828	208.507	0.085	0.133
-650.814	-16.636	0.134	-0.085
-649.799	-96.408	-0.163	-0.043
-648.784	800.000	-0.103	-0.409
-647.770	800.000	-0.022	0.092
-646.755	739.017	0.012	0.033
-645.741	-16.175	0.066	0.042
-644.726	135.258	-0.099	-0.129
-643.711	-140.779	0.239	0.025
-642.697	800.000	0.129	-0.377
-641.682	-109.352	-0.421	0.089
-640.668	401.119	0.089	-0.187
-639.653	71.648	-0.233	-0.242
-638.638	26.803	0.296	0.248
-637.624	800.000	-0.017	-0.065
-636.609	36.532	0.346	0.306
-635.595	-132.547	-0.026	-0.003
-634.580	-200.000	0.006	0.101
-633.565	63.458	-0.347	-0.349
-632.551	-101.150	-0.357	-0.087
-631.536	-120.816	0.186	-0.031
-630.522	46.109	-0.194	-0.180
-629.507	-130.415	0.052	0.007
-628.492	800.000	0.015	0.062
-627.478	-200.000	0.032	-0.503
-626.463	183.864	0.160	-0.238
-625.449	28.340	-0.319	0.270
-624.434	17.485	-0.242	-0.193
-623.419	341.412	-0.065	0.127
-622.405	76.422	0.182	-0.193
-621.390	-52.885	-0.114	0.053
-620.376	745.603	-0.114	0.306
-619.361	53.234	-0.046	0.044
-618.346	330.438	-0.104	-0.201
-617.332	286.358	0.151	-0.272
-616.317	274.921	-0.024	0.043
-615.303	-168.993	0.086	0.003
-614.288	722.671	-0.042	-0.113
-613.273	-53.308	-0.102	-0.047
-612.259	800.000	-0.074	-0.263
-611.244	629.122	0.094	-0.237
-610.230	800.000	0.048	-0.165
-609.215	9.028	0.071	0.054
-608.201	126.393	-0.088	0.112
-607.186	-37.003	-0.114	-0.061
-606.171	800.000	0.033	0.124
-605.157	720.336	0.086	-0.230
-604.142	-200.000	0.066	-0.531
-603.128	-78.519	-0.332	0.114
-602.113	786.389	-0.078	-0.213
-601.098	85.875	0.247	-0.272
-600.084	220.308	-0.115	0.185
-599.069	-200.000	-0.016	-0.147
-598.055	78.477	-0.125	-0.134
-597.040	36.158	-0.217	0.192
-596.025	-131.874	0.246	0.032
-595.011	126.370	0.048	-0.061
-593.996	325.986	-0.136	0.261
-592.982	800.000	-0.016	-0.049
-591.967	117.183	-0.231	0.283
-590.952	-127.852	-0.203	-0.029
-589.938	31.520	-0.238	0.204
-588.923	-111.184	0.166	0.034
-587.909	-200.000	0.009	-0.129
-586.894	111.235	0.157	-0.189
-585.879	-51.064	-0.353	0.165
-584.865	-96.436	0.194	0.051
-583.850	39.470	0.168	0.151
-582.836	-104.998	-0.269	0.062
-581.821	139.566	0.109	-0.143
-580.806	800.000	-0.064	-0.207
-579.792	2.023	-0.145	-0.105
-578.777	-51.335	-0.168	-0.079
-577.763	314.794	-0.033	0.063
-576.748	-75.450	-0.149	-0.053
-575.733	-101.400	0.162	0.040
-574.719	800.000	0.042	-0.141
-573.704	-91.975	-0.243	-0.069
-572.690	-71.224	0.310	0.116
-571.675	138.963	0.151	0.198
-570.661	-164.029	-0.392	0.018
-569.646	458.153	-0.055	0.122
-568.631	10.920	-0.024	0.018
-567.617	-77.497	0.415	0.144
-566.602	-117.204	0.240	-0.044
-565.588	800.000	-0.062	0.231
-564.573	161.855	0.116	-0.162
-563.558	255.897	-0.121	-0.208
-562.544	-200.000	0.006	0.039
-561.529	-71.852	-0.377	-0.140
-560.515	697.919	0.073	0.192
-559.500	-135.960	0.209	-0.025
-558.485	-5.839	-0.085	0.058
-557.471	800.000	-0.050	-0.181
-556.456	-117.949	0.284	0.051
-555.442	136.982	-0.128	-0.168
-554.427	-67.546	-0.270	-0.106
-553.412	-175.236	-0.212	0.006
-552.398	618.719	-0.010	0.024
-551.383	-88.951	-0.280	0.083
-550.369	161.090	-0.108	-0.151
-549.354	149.015	0.095	0.128
-548.339	-200.000	-0.043	0.331
-547.325	-86.165	-0.212	0.065
-546.310	-36.743	0.192	-0.103
-545.296	146.603	-0.149	-0.200
-544.281	-119.645	0.370	0.064
-543.266	-22.198	-0.244	0.147
-542.252	800.000	-0.057	-0.188
-541.237	431.191	0.085	0.183
-540.223	-200.000	0.051	-0.318
-539.208	273.376	0.086	-0.152
-538.193	35.908	0.197	-0.173
-537.179	101.083	-0.028	-0.033
-536.164	0.016	0.247	-0.176
-535.150	-27.777	-0.110	-0.064
-534.135	-111.628	-0.180	0.036
-533.121	350.894	-0.035	-0.068
-532.106	-200.000	-0.031	-0.190
-531.091	-3.234	0.167	0.116
-530.077	-200.000	-0.035	0.254
-529.062	208.418	0.192	0.299
-528.048	24.237	-0.083	0.068
-527.033	-200.000	-0.010	-0.265
-526.018	-0.549	-0.147	0.104
-525.004	-12.489	0.061	-0.040
-523.989	-129.781	-0.023	-0.003
-522.975	-200.000	-0.017	0.261
-521.960	-200.000	0.006	-0.389
-520.945	-200.000	-0.009	-0.204
-519.931	-131.657	0.316	-0.041
-518.916	-200.000	-0.062	-0.336
-517.902	114.360	-0.116	-0.140
-516.887	-200.000	0.007	0.257
-515.872	800.000	0.083	0.229
-514.858	22.436	-0.153	-0.125
-513.843	-19.841	0.085	-0.052
-512.829	17.865	0.194	-0.154
-511.814	50.776	0.248	-0.235
-510.799	-26.259	0.214	-0.125
-509.785	800.000	0.069	0.205
-508.770	-200.000	0.030	0.204
-507.756	80.808	0.306	-0.329
-506.741	-117.528	0.086	-0.016
-505.726	-200.000	0.031	-0.292
-504.712	-29.546	-0.234	0.133
-503.697	-40.281	-0.299	0.155
-502.683	-200.000	-0.038	-0.173
-501.668	-130.572	0.118	0.016
-500.653	-133.492	-0.246	-0.031
-499.639	626.484	0.020	0.049
-498.624	168.409	0.059	-0.084
-497.610	-17.360	-0.321	-0.201
-496.595	-45.455	0.203	0.100
-495.581	-200.000	0.003	-0.316
-494.566	197.669	-0.176	0.268
-493.551	136.972	0.100	0.131
-492.537	800.000	-0.037	-0.109
-491.522	167.107	-0.144	0.204
-490.508	139.023	-0.151	0.198
-489.493	-200.000	0.001	0.120
-488.478	-200.000	0.034	-0.239
-487.464	-80.806	0.119	-0.039
-486.449	-66.132	-0.163	0.065
-485.435	-200.000	-0.006	0.036
-484.420	66.002	-0.190	-0.192
-483.405	603.862	-0.046	0.113
-482.391	88.973	0.167	0.185
-481.376	-200.000	0.050	0.336
-480.362	800.000	0.062	0.224
-479.347	-200.000	0.029	0.130
-478.332	-173.118	0.250	-0.008
-477.318	-200.000	0.016	0.072
-476.303	-64.278	0.071	0.029
-475.289	370.772	0.047	0.095
-474.274	-167.285	-0.289	0.012
-473.259	97.699	-0.269	-0.307
-472.245	-7.163	-0.264	0.178
-471.230	-200.000	0.055	0.265
-470.216	-46.094	-0.201	-0.099
-469.201	-200.000	0.001	-0.209
-468.186	338.157	0.066	-0.128
-467.172	-25.194	-0.140	-0.082
-466.157	800.000	-0.066	0.233
-465.143	-79.757	0.134	0.045
-464.128	-20.251	0.250	-0.153
-463.113	-200.000	-0.021	0.267
-462.099	79.157	0.211	0.225
-461.084	64.894	0.208	-0.209
-460.070	122.262	-0.147	0.182
-459.055	-73.404	0.297	-0.108
-458.040	340.128	-0.063	-0.121
-457.026	800.000	-0.069	0.278
-456.011	30.815	0.211	-0.180
-454.997	192.323	0.135	0.203
-453.982	42.524	0.023	0.021
-452.968	33.192	0.098	-0.085
-451.953	49.469	0.126	0.118
-450.938	800.000	-0.045	0.185
-449.924	-200.000	-0.003	0.048
-448.909	-23.612	-0.162	0.096
-447.895	-38.273	0.178	-0.094
-446.880	89.742	-0.150	-0.166
-445.865	-19.096	0.150	0.093
-444.851	26.267	-0.070	0.058
-443.836	-80.483	0.276	-0.091
-442.822	55.814	-0.060	0.058
-441.807	-200.000	-0.008	-0.075
-440.792	-200.000	0.035	0.266
-439.778	41.071	0.099	-0.089
-438.763	-30.014	-0.203	0.115
-437.749	196.766	-0.114	-0.173
-436.734	287.498	-0.064	0.116
-435.719	264.032	0.161	0.278
-434.705	-200.000	0.053	0.493
-433.690	642.121	0.051	-0.130
-432.676	-76.594	0.156	0.055
-431.661	-91.619	0.121	-0.034
-430.646	-92.466	0.150	0.042
-429.632	-80.828	-0.210	-0.069
-428.617	42.701	0.122	-0.110
-427.603	-108.054	0.268	-0.058
-426.588	-186.557	0.123	0.002
-425.573	97.408	0.070	-0.080
-424.559	-177.061	-0.270	-0.007
-423.544	164.819	-0.223	-0.313
-422.530	271.805	0.124	0.218
-421.515	8.115	0.120	0.089
-420.500	161.283	0.107	0.148
-419.486	-81.259	0.294	-0.096
-418.471	-14.830	-0.225	0.144
-417.457	48.446	-0.147	0.137
-416.442	13.107	-0.101	-0.078
-415.428	-86.274	0.310	-0.095
-414.413	15.812	-0.048	0.037
-413.398	7.928	0.058	-0.043
-412.384	-200.000	-0.030	-0.223
-411.369	19.272	-0.208	0.166
-410.355	168.261	-0.123	0.174
-409.340	-78.301	0.038	-0.013
-408.325	473.697	0.078	-0.175
-407.311	-56.261	-0.085	0.037
-406.296	-200.000	-0.054	-0.285
-405.282	17.192	-0.213	0.168
-404.267	284.122	-0.061	0.109
-403.252	496.906	-0.060	-0.137
-402.238	13.929	0.293	-0.226
-401.223	168.212	-0.025	-0.035
-400.209	-200.000	-0.029	-0.273
-399.194	336.195	0.123	0.237
-398.179	727.715	-0.047	0.125
-397.165	-117.949	-0.044	0.008
-396.150	-200.000	-0.021	0.177
-395.136	-114.422	-0.221	0.042
-394.121	-200.000	-0.007	-0.064
-393.106	-200.000	-0.007	-0.097
-392.092	-200.000	0.020	0.107
-391.077	3.688	-0.363	0.263
-390.063	65.651	0.133	0.133
-389.048	681.962	-0.015	-0.040
-388.033	800.000	0.095	0.306
-387.019	-200.000	0.045	-0.224
-386.004	-69.922	0.150	-0.057
-384.990	-112.118	0.103	0.021
-383.975	-89.276	0.081	0.024
-382.960	-127.447	-0.127	0.018
-381.946	77.469	0.061	-0.065
-380.931	-61.274	0.131	0.055
-379.917	-200.000	-0.042	-0.309
-378.902	-53.185	0.106	0.048
-377.888	-200.000	-0.003	0.321
-376.873	-45.379	0.370	0.182
-375.858	782.854	-0.033	-0.089
-374.844	-200.000	0.029	-0.255
-373.829	124.443	-0.112	0.140
-372.815	-52.442	0.514	0.236
-371.800	-54.880	-0.049	-0.022
-370.785	117.947	0.080	-0.097
-369.771	111.024	-0.024	-0.028
-368.756	-1.162	0.257	0.180
-367.742	61.478	0.074	-0.073
-366.727	453.606	-0.028	0.061
-365.712	-159.020	0.308	0.017
-364.698	-104.079	-0.268	-0.062
-363.683	166.950	0.189	-0.266
-362.669	-179.884	0.149	0.003
-361.654	94.196	-0.026	-0.029
-360.639	-53.490	-0.168	-0.076
-359.625	16.037	-0.046	-0.036
-358.610	7.610	-0.265	-0.196
-357.596	-68.985	0.293	0.112
-356.581	-167.351	-0.393	-0.016
-355.566	582.901	-0.176	-0.427
-354.552	140.816	-0.207	0.271
-353.537	800.000	0.038	0.142
-352.523	195.335	0.135	0.203
-351.508	-88.865	0.212	0.062
-350.493	-18.051	0.237	-0.147
-349.479	-147.107	-0.192	-0.016
-348.464	178.906	-0.147	-0.212
-347.450	-3.162	0.072	-0.050
-346.435	-101.047	0.178	-0.043
-345.420	490.820	0.035	0.079
-344.406	87.205	-0.117	0.128
-343.391	-148.615	-0.096	-0.008
-342.377	639.313	0.088	-0.222
-341.362	55.420	0.262	-0.251
-340.348	-102.281	-0.161	0.038
-339.333	-83.083	0.259	0.082
-338.318	800.000	-0.046	0.157
-337.304	86.423	-0.051	0.055
-336.289	24.268	-0.105	0.085
-335.275	-76.673	-0.241	-0.084
-334.260	-20.780	0.277	0.168
-333.245	186.765	-0.038	0.055
-332.231	-200.000	-0.052	0.244
-331.216	-200.000	-0.012	-0.056
-330.202	24.706	-0.207	-0.170
-329.187	72.337	0.171	-0.176
-328.172	800.000	0.066	-0.236
-327.158	152.737	-0.172	0.232
-326.143	102.841	-0.074	-0.085
-325.129	110.568	-0.151	0.180
-324.114	-101.601	-0.373	-0.090
-323.099	200.175	0.107	0.162
-322.085	-17.498	0.282	-0.176
-321.070	20.630	0.092	-0.074
-320.056	-106.939	-0.061	0.013
-319.041	-79.833	0.126	0.042
-318.026	-125.521	0.207	-0.031
-317.012	350.003	-0.028	-0.055
-315.997	-142.227	-0.126	0.012
-314.983	161.448	-0.212	0.294
-313.968	-200.000	0.006	-0.290
-312.953	176.957	-0.225	-0.324
-311.939	371.425	0.079	-0.158
-310.924	-52.424	0.209	-0.096
-309.910	800.000	-0.129	0.353
-308.895	299.886	-0.161	-0.293
-307.880	32.554	0.327	0.279
-306.866	63.932	0.224	-0.223
-305.851	-24.948	-0.442	0.259
-304.837	-87.882	0.268	0.080
-303.822	-200.000	0.001	-0.102
-302.807	86.230	0.127	0.138
-301.793	122.784	-0.121	0.149
-300.778	-27.049	-0.150	0.086
-299.764	-126.131	-0.148	0.022
-298.749	205.408	-0.207	0.318
-297.735	-79.207	0.382	-0.128
-296.720	237.794	-0.159	0.261
-295.705	-103.851	-0.336	-0.078
-294.691	-190.750	-0.089	-0.001
-293.676	-28.665	-0.195	0.111
-292.662	114.014	0.260	0.312
-291.647	-152.192	-0.177	-0.013
-290.632	-200.000	-0.015	0.065
-289.618	-157.819	-0.138	-0.008
-288.603	175.969	0.028	-0.040
-287.589	72.352	0.254	-0.262
-286.574	93.887	-0.040	0.045
-285.559	-200.000	0.016	-0.252
-284.545	-160.681	0.199	-0.010
-283.530	-39.686	0.252	0.130
-282.516	39.375	-0.143	-0.126
-281.501	139.561	-0.153	-0.199
-280.486	-200.000	0.002	0.464
-279.472	89.587	0.238	-0.262
-278.457	800.000	0.080	-0.327
-277.443	-200.000	-0.041	0.237
-276.428	-166.030	-0.178	0.008
-275.413	-200.000	0.002	0.303
-274.399	158.606	0.171	0.235
-273.384	-4.746	-0.333	-0.227
-272.370	343.791	0.234	-0.452
-271.355	630.397	-0.060	0.150
-270.340	163.878	-0.264	0.367
-269.326	21.135	-0.132	-0.106
-268.311	-57.942	-0.100	0.043
-267.297	94.529	-0.223	-0.250
-266.282	-29.688	0.026	-0.015
-265.267	-185.210	-0.228	-0.003
-264.253	762.245	0.147	-0.394
-263.238	2.432	0.145	-0.103
-262.224	-177.504	-0.041	0.001
-261.209	-200.000	0.007	0.185
-260.195	-88.927	-0.374	-0.109
-259.180	-81.882	0.235	-0.076
-258.165	-72.189	0.140	-0.051
-257.151	89.869	0.229	0.252
-256.136	58.496	-0.108	-0.105
-255.122	217.136	0.021	0.034
-254.107	133.833	0.187	0.239
-253.092	440.551	-0.076	0.164
-252.078	-106.778	0.173	0.038
-251.063	-35.297	0.404	0.217
-250.049	-138.776	0.093	-0.010
-249.034	428.913	0.117	0.250
-248.019	-200.000	0.025	-0.296
-247.005	-27.135	0.328	0.189
-245.990	-80.691	-0.125	0.041
-244.976	800.000	-0.036	0.131
-243.961	-73.492	-0.261	0.094
-242.946	-200.000	-0.054	0.396
-241.932	-200.000	-0.006	-0.055
-240.917	800.000	-0.115	-0.327
-239.903	-13.705	-0.154	0.098
-238.888	-79.702	0.088	0.029
-237.873	283.622	0.020	0.036
-236.859	18.991	-0.045	0.036
-235.844	-69.096	-0.285	0.108
-234.830	588.790	-0.063	0.154
-233.815	161.056	0.098	0.135
-232.800	-142.874	0.179	0.017
-231.786	298.453	0.087	-0.158
-230.771	-200.000	-0.013	0.372
-229.757	-13.054	-0.202	-0.129
-228.742	-200.000	-0.022	0.152
-227.727	714.265	-0.034	-0.088
-226.713	-131.133	-0.105	-0.014
-225.698	-200.000	-0.144	0.001
-224.684	197.174	0.325	-0.489
-223.669	-200.000	0.010	-0.115
-222.655	464.960	-0.082	-0.180
-221.640	-200.000	-0.014	0.167
-220.625	338.486	0.119	0.228
-219.611	800.000	-0.056	0.222
-218.596	800.000	-0.128	-0.382
-217.582	12.150	-0.141	0.107
-216.567	0.328	0.124	-0.087
-215.552	9.692	-0.233	-0.174
-214.538	800.000	0.030	0.102
-213.523	-121.500	0.212	-0.035
-212.509	-14.847	-0.134	-0.085
-211.494	10.407	-0.249	-0.186
-210.479	-140.974	-0.085	-0.009
-209.465	-143.591	-0.069	-0.006
-208.450	162.413	-0.133	-0.183
-207.436	-47.195	0.301	0.144
-206.421	-143.290	-0.253	0.024
-205.406	307.941	0.050	-0.091
-204.392	-200.000	0.029	-0.455
-203.377	800.000	0.071	-0.248
-202.363	-200.000	-0.018	0.282
-201.348	8.376	-0.277	0.205
-200.333	745.359	-0.025	-0.068
-199.319	-115.267	0.244	-0.045
-198.304	800.000	-0.071	0.196
-197.290	-42.332	0.201	0.101
-196.275	-72.265	0.383	-0.140
-195.260	-38.003	-0.511	0.267
-194.246	-200.000	-0.002	-0.129
-193.231	-188.247	-0.079	0.001
-192.217	49.440	-0.081	-0.075
-191.202	-50.239	0.230	-0.107
-190.187	-22.168	0.167	-0.099
-189.173	-31.533	0.200	-0.111
-188.158	-45.007	0.145	-0.071
-187.144	800.000	-0.048	0.187
-186.129	-42.116	0.204	-0.103
-185.114	206.710	-0.085	0.131
-184.100	-41.420	-0.180	0.091
-183.085	-200.000	0.023	0.127
-182.071	-74.436	0.365	0.130
-181.056	-200.000	0.016	0.265
-180.042	12.938	-0.165	0.126
-179.027	-98.039	0.165	0.042
-178.012	-101.374	0.089	0.021
-176.998	-65.861	-0.154	-0.061
-175.983	193.966	0.061	0.091
-174.969	-34.567	0.108	0.058
-173.954	96.387	0.078	-0.087
-172.939	321.037	-0.062	-0.116
-171.925	-66.172	-0.197	-0.077
-170.910	-200.000	0.177	-0.000
-169.896	-87.005	0.184	-0.055
-168.881	-123.674	0.452	0.070
-167.866	92.013	-0.082	0.091
-166.852	-200.000	0.025	0.314
-165.837	-77.733	0.297	0.101
-164.823	104.047	0.227	-0.263
-163.808	31.548	0.125	-0.106
-162.793	-200.000	-0.310	-0.001
-161.779	-143.804	0.184	-0.017
-160.764	128.513	0.098	-0.122
-159.750	16.102	0.098	-0.076
-158.735	-59.512	-0.181	-0.076
-157.720	-200.000	0.026	0.137
-156.706	48.808	-0.114	0.105
-155.691	800.000	-0.133	0.460
-154.677	-65.354	-0.368	0.145
-153.662	-200.000	-0.018	0.249
-152.647	-200.000	0.029	0.179
-151.633	296.548	0.047	0.085
-150.618	-200.000	0.020	0.296
-149.604	-150.213	0.282	0.021
-148.589	331.246	0.057	0.107
-147.574	800.000	-0.039	0.113
-146.560	-125.516	-0.460	0.069
-145.545	-171.944	-0.277	-0.009
-144.531	800.000	-0.043	-0.135
-143.516	-200.000	0.026	-0.145
-142.502	-4.744	-0.154	-0.104
-141.487	10.162	-0.048	0.036
-140.472	234.879	-0.032	-0.051
-139.458	322.834	-0.115	0.215
-138.443	33.856	0.219	0.188
-137.429	706.356	-0.058	0.150
-136.414	62.170	-0.103	-0.101
-135.399	-18.703	0.036	0.022
-134.385	800.000	-0.105	-0.369
-133.370	-200.000	0.077	-0.390
-132.356	-147.076	0.242	-0.020
-131.341	195.391	0.114	0.171
-130.326	800.000	0.072	-0.256
-129.312	37.980	-0.199	-0.174
-128.297	78.389	0.135	0.141
-127.283	76.026	0.233	-0.242
-126.268	466.266	-0.102	-0.224
-125.253	-200.000	0.035	0.151
-124.239	-188.926	0.091	-0.001
-123.224	28.252	-0.108	-0.089
-122.210	-200.000	0.014	-0.068
-121.195	389.778	0.053	0.107
-120.180	46.153	0.157	-0.143
-119.166	-200.000	-0.083	0.460
-118.151	-10.520	0.136	0.089
-117.137	-200.000	0.012	-0.111
-116.122	-143.012	0.307	0.029
-115.107	-78.581	0.409	-0.137
-114.093	-99.375	-0.030	-0.007
-113.078	315.444	-0.121	0.224
-112.064	522.459	-0.072	0.165
-111.049	-200.000	0.024	-0.206
-110.034	517.605	0.126	-0.290
-109.020	-80.514	0.109	0.036
-108.005	-200.000	0.005	0.304
-106.991	1.512	0.091	0.064
-105.976	-41.614	0.142	0.072
-104.962	-200.000	-0.003	0.034
-103.947	31.323	-0.093	-0.078
-102.932	-166.850	-0.472	0.019
-101.918	60.104	0.035	-0.034
-100.903	-200.000	-0.004	0.268
-99.889	800.000	0.058	-0.225
-98.874	158.557	0.166	0.226
-97.859	-200.000	-0.009	0.137
-96.845	-200.000	-0.020	-0.202
-95.830	100.547	-0.092	0.105
-94.816	800.000	-0.056	0.188
-93.801	-170.930	0.108	-0.004
-92.786	173.764	-0.081	-0.115
-91.772	435.909	-0.173	0.369
-90.757	47.927	0.304	-0.278
-89.743	-160.123	-0.244	0.013
-88.728	234.275	0.219	0.354
-87.713	-36.355	-0.175	0.093
-86.699	-177.855	0.223	0.005
-85.684	-69.886	-0.323	0.121
-84.670	-67.734	0.313	0.120
-83.655	189.954	0.147	0.217
-82.640	-70.218	0.162	-0.060
-81.626	-35.915	0.184	0.097
-80.611	-200.000	0.019	-0.178
-79.597	139.805	-0.308	-0.397
-78.582	-18.065	-0.334	0.205
-77.567	584.076	0.051	0.123
-76.553	24.932	0.261	0.212
-75.538	269.789	0.080	-0.138
-74.524	-72.212	0.220	0.080
-73.509	-3.339	0.072	-0.049
-72.494	800.000	0.118	-0.365
-71.480	-200.000	-0.025	-0.304
-70.465	413.964	-0.063	-0.131
-69.451	-72.462	0.283	-0.102
-68.436	800.000	-0.069	-0.213
-67.422	11.425	0.227	-0.170
-66.407	-200.000	-0.003	-0.214
-65.392	435.620	-0.079	0.169
-64.378	228.550	0.085	0.135
-63.363	343.179	0.077	0.147
-62.349	-190.344	-0.396	-0.004
-61.334	190.718	-0.745	-1.096
-60.319	174.843	0.488	0.691
-59.305	216.860	-0.638	-0.994
-58.290	397.798	0.620	1.269
-57.276	150.821	0.983	1.308
-56.261	-200.000	109.169	657.149
-55.246	503.423	1478.165	3346.693
-54.232	151.603	2641.000	3521.973
-53.217	108.606	2158.975	2524.083
-52.203	40.144	1699.722	1495.746
-51.188	32.803	1519.724	1287.431
-50.173	30.374	1495.678	1250.667
-49.159	54.541	1550.484	1462.572
-48.144	55.335	1566.818	1483.343
-47.130	33.091	1524.621	1293.343
-46.115	30.016	1510.054	1260.056
-45.100	29.589	1506.980	1254.539
-44.086	29.657	1504.718	1253.065
-43.071	29.580	1502.995	1251.064
-42.057	29.615	1501.009	1249.595
-41.042	29.533	1500.350	1248.447
-40.027	29.540	1498.584	1246.975
-39.013	29.521	1497.494	1245.889
-37.998	29.577	1496.003	1244.976
-36.984	29.588	1494.760	1243.966
-35.969	29.685	1493.156	1243.231
-34.954	29.601	1492.349	1241.951
-33.940	29.544	1491.350	1240.682
-32.925	29.632	1489.414	1239.614
-31.911	29.580	1488.184	1238.196
-30.896	29.625	1486.502	1237.047
-29.881	29.756	1485.864	1237.343
-28.867	29.669	1483.972	1235.135
-27.852	29.638	1482.722	1233.837
-26.838	29.780	1481.321	1233.570
-25.823	29.718	1479.643	1231.711
-24.809	29.676	1478.227	1230.204
-23.794	29.569	1477.156	1228.554
-22.779	29.616	1475.826	1227.715
-21.765	29.627	1475.060	1227.096
-20.750	29.699	1473.816	1226.495
-19.736	29.724	1472.446	1225.469
-18.721	29.654	1471.257	1223.966
-17.706	29.574	1470.441	1222.711
-16.692	29.635	1468.699	1221.614
-15.677	29.605	1468.752	1221.412
-14.663	29.725	1466.656	1220.413
-13.648	29.708	1465.569	1219.349
-12.633	29.689	1465.160	1218.835
-11.619	29.609	1464.687	1217.865
-10.604	29.676	1463.470	1217.246
-9.590	29.501	1463.241	1215.858
-8.575	29.520	1462.052	1214.946
-7.560	29.665	1460.710	1214.734
-6.546	29.478	1460.479	1213.262
-5.531	29.632	1459.231	1213.189
-4.517	29.585	1458.424	1212.165
-3.502	29.651	1457.345	1211.652
-2.487	29.689	1456.081	1210.801
-1.473	29.593	1455.592	1209.716
-0.458	29.477	1454.313	1207.849
0.556	27.645	1443.401	1194.038
1.571	23.404	1417.396	1145.086
2.586	18.858	1353.614	1065.343
3.600	16.488	1270.715	986.202
4.615	15.354	1225.030	944.281
5.629	13.273	1169.709	890.362
6.644	6.744	1088.381	795.576
7.659	1.159	1050.340	740.481
8.673	0.335	1044.035	731.971
9.688	0.240	1041.117	729.404
10.702	0.172	1039.461	727.848
11.717	0.083	1037.883	726.251
12.731	2.299	1039.164	737.782
13.746	9.222	1048.375	777.866
14.761	15.432	1056.203	813.807
15.775	17.089	1057.690	822.919
16.790	16.530	1056.046	818.858
17.804	15.505	1054.086	812.310
18.819	14.670	1052.220	806.766
19.834	14.294	1050.801	803.792
20.848	13.966	1049.388	801.060
21.863	13.753	1048.471	799.263
22.877	13.476	1048.236	797.676
23.892	13.269	1047.469	796.029
24.907	13.169	1046.755	794.935
25.921	13.118	1045.738	793.844
26.936	13.133	1045.467	793.641
27.950	13.238	1044.894	793.639
28.965	13.357	1043.471	793.059
29.980	13.277	1042.805	792.103
30.994	13.362	1041.809	791.683
32.009	13.387	1041.285	791.332
33.023	13.489	1040.522	791.172
34.038	13.446	1039.806	790.352
35.053	13.442	1038.775	789.480
36.067	13.397	1037.927	788.548
37.082	13.290	1037.356	787.537
38.096	13.420	1036.394	787.353
39.111	13.390	1035.869	786.745
40.126	13.286	1034.792	785.363
41.140	13.219	1034.011	784.382
42.155	13.366	1032.388	783.778
43.169	13.263	1032.101	783.002
44.184	13.181	1030.897	781.633
45.199	13.154	1029.466	780.349
46.213	13.181	1028.664	779.801
47.228	13.147	1027.834	778.944
48.242	13.262	1026.789	778.621
49.257	13.469	1025.708	778.710
50.271	13.419	1025.088	777.935
51.286	13.370	1024.185	776.949
52.301	13.415	1023.542	776.603
53.315	13.351	1022.757	775.638
54.330	13.266	1022.151	774.712
55.344	13.279	1021.238	774.013
56.359	13.256	1020.281	773.109
57.374	13.291	1018.981	772.223
58.388	13.205	1018.694	771.536
59.403	13.270	1017.709	771.025
60.417	13.320	1016.542	770.304
61.432	13.156	1016.477	769.422
62.447	13.146	1015.661	768.692
63.461	13.264	1014.570	768.346
64.476	13.202	1013.461	767.147
65.490	13.103	1013.100	766.348
66.505	13.134	1012.209	765.749
67.520	13.152	1011.154	764.967
68.534	13.292	1010.089	764.740
69.549	13.277	1009.607	764.242
70.563	13.203	1009.091	763.441
71.578	13.203	1008.418	762.864
72.593	13.176	1007.525	761.997
73.607	13.085	1006.601	760.809
74.622	13.082	1005.845	760.158
75.636	13.064	1004.822	759.234
76.651	13.108	1004.118	758.839
77.666	13.162	1003.117	758.264
78.680	13.018	1002.579	757.129
79.695	12.977	1002.761	757.008
80.709	13.135	1001.191	756.480
81.724	13.171	1000.394	755.977
82.739	13.221	999.786	755.680
83.753	13.218	998.875	754.912
84.768	13.272	998.019	754.444
85.782	13.236	997.243	753.627
86.797	13.387	996.614	753.773
87.812	13.404	995.724	753.107
88.826	13.226	995.273	751.890
89.841	13.287	994.126	751.235
90.855	13.366	993.179	750.811
91.870	13.337	992.517	750.114
92.884	13.417	991.810	749.874
93.899	13.445	991.148	749.438
94.914	13.484	990.210	748.837
95.928	13.366	989.666	747.824
96.943	13.488	988.722	747.598
97.957	13.379	988.104	746.570
98.972	13.407	987.216	745.961
99.987	13.391	986.263	745.103
101.001	13.373	985.759	744.573
102.016	13.407	985.033	744.115
103.030	13.345	983.987	742.980
104.045	13.425	983.322	742.768
105.060	13.535	981.898	742.120
106.074	13.456	981.135	741.124
107.089	13.369	979.943	739.773
108.103	13.309	979.444	739.061
109.118	13.320	978.207	738.112
110.133	13.181	977.836	737.147
111.147	13.288	976.773	736.756
112.162	13.209	975.951	735.718
113.176	13.179	975.274	735.011
114.191	13.341	974.074	734.758
115.206	13.369	973.209	734.168
116.220	13.335	972.909	733.725
117.235	13.293	971.889	732.705
118.249	13.325	970.741	731.916
119.264	13.267	970.088	731.104
120.279	13.281	968.994	730.275
121.293	13.309	968.716	730.124
122.308	13.310	967.779	729.359
123.322	13.250	966.758	728.260
124.337	13.270	965.561	727.380
125.352	13.191	964.671	726.299
126.366	13.251	963.478	725.599
127.381	13.310	962.469	725.036
128.395	13.172	961.572	723.692
129.410	13.266	960.690	723.373
130.424	13.194	959.975	722.459
131.439	13.181	959.316	721.843
132.454	13.283	958.143	721.340
133.468	13.236	957.187	720.353
134.483	13.362	956.512	720.329
135.497	13.372	955.629	719.643
136.512	13.279	955.359	718.971
137.527	13.278	954.559	718.299
138.541	13.317	953.784	717.823
139.556	13.375	952.732	717.221
140.570	13.215	952.532	716.314
141.585	13.333	951.417	715.924
142.600	13.473	950.368	715.674
143.614	13.319	950.185	714.808
144.629	13.476	949.436	714.860
145.643	13.285	949.156	713.758
146.658	13.562	947.352	713.533
147.673	13.417	946.762	712.400
148.687	13.341	945.840	711.319
149.702	13.359	945.148	710.812
150.716	13.404	944.459	710.426
151.731	13.408	943.376	709.563
152.746	13.460	942.275	708.894
153.760	13.495	941.566	708.448
154.775	13.416	940.928	707.567
155.789	13.503	940.341	707.437
156.804	13.440	939.613	706.558
157.819	13.450	938.867	705.975
158.833	13.532	938.013	705.620
159.848	13.585	937.614	705.483
160.862	13.571	936.730	704.697
161.877	13.548	936.121	704.078
162.892	13.650	935.278	703.817
163.906	13.520	934.468	702.594
164.921	13.554	933.499	701.945
165.935	13.566	932.423	701.127
166.950	13.490	931.515	700.059
167.964	13.541	930.835	699.701
168.979	13.539	930.023	699.022
169.994	13.612	928.803	698.350
171.008	13.545	928.163	697.523
172.023	13.477	927.733	696.855
173.037	13.648	926.443	696.541
174.052	13.581	925.689	695.634
175.067	13.712	924.999	695.600
176.081	13.745	924.058	694.973
177.096	13.730	923.093	694.121
178.110	13.641	922.738	693.419
179.125	13.565	921.950	692.447
180.140	13.586	921.223	691.928
181.154	13.663	920.334	691.522
182.169	13.728	920.007	691.487
183.183	13.714	919.578	691.043
184.198	13.756	919.056	690.764
185.213	13.801	918.072	690.154
186.227	13.872	917.844	690.214
187.242	13.885	916.945	689.529
188.256	13.801	916.496	688.786
189.271	13.894	915.906	688.664
190.286	13.900	915.067	687.997
191.300	13.777	913.976	686.609
192.315	13.644	913.333	685.515
193.329	13.687	912.617	685.095
194.344	13.700	911.861	684.521
195.359	13.649	911.446	683.938
196.373	13.708	911.144	683.893
197.388	13.702	910.691	683.469
198.402	13.819	910.364	683.645
199.417	13.971	909.654	683.677
200.432	14.001	909.271	683.452
201.446	14.109	908.343	683.137
202.461	14.080	908.098	682.773
203.475	14.125	907.476	682.429
204.490	14.230	906.637	682.168
205.504	14.073	906.067	681.038
206.519	14.093	905.142	680.364
207.534	14.120	904.715	680.092
208.548	14.096	903.988	679.386
209.563	14.015	903.212	678.414
210.577	13.953	902.701	677.717
211.592	14.123	901.371	677.351
212.607	14.266	901.359	677.865
213.621	14.155	901.144	677.192
214.636	14.226	900.188	676.700
215.650	14.072	899.911	675.807
216.665	14.218	898.795	675.502
217.680	14.202	898.419	675.094
218.694	14.321	897.499	674.825
219.709	14.282	897.556	674.652
220.723	14.264	896.664	673.849
221.738	14.359	895.814	673.532
222.753	14.278	895.604	672.987
223.767	14.332	894.291	672.160
224.782	14.394	893.629	671.852
225.796	14.330	892.944	671.019
226.811	14.361	892.248	670.563
227.826	14.310	892.076	670.169
228.840	14.361	891.156	669.623
229.855	14.429	890.458	669.313
230.869	14.291	889.610	668.061
231.884	14.400	889.137	668.087
232.899	14.234	888.710	667.038
233.913	14.234	887.760	666.270
234.928	14.296	887.062	665.934
235.942	14.440	886.299	665.878
236.957	14.316	885.747	664.908
237.972	14.485	884.634	664.689
238.986	14.405	884.091	663.903
240.001	14.408	883.677	663.546
241.015	14.381	883.088	662.938
242.030	14.475	882.341	662.691
243.045	14.509	881.610	662.218
244.059	14.540	881.058	661.870
245.074	14.449	880.381	660.941
246.088	14.535	879.797	660.782
247.103	14.592	879.125	660.446
248.117	14.606	879.134	660.451
249.132	14.632	878.411	659.952
250.147	14.653	877.691	659.437
251.161	14.809	876.910	659.406
252.176	14.733	876.110	658.445
253.190	14.840	875.397	658.273
254.205	14.772	875.039	657.678
255.220	14.839	874.549	657.514
256.234	14.881	873.866	657.109
257.249	15.022	873.342	657.209
258.263	14.884	872.677	656.111
259.278	14.801	872.141	655.325
260.293	14.923	871.642	655.370
261.307	14.855	871.187	654.703
262.322	14.996	870.294	654.527
263.336	14.935	869.979	653.992
264.351	15.044	869.416	653.934
265.366	15.041	868.452	653.141
266.380	14.963	867.893	652.361
267.395	15.039	867.356	652.196
268.409	15.044	866.197	651.285
269.424	15.185	865.753	651.442
270.439	15.074	864.968	650.360
271.453	15.070	864.549	649.975
272.468	15.064	863.412	649.036
273.482	15.120	862.883	648.801
274.497	15.211	862.110	648.516
275.512	15.300	861.338	648.219
276.526	15.170	860.709	647.185
277.541	15.172	860.049	646.639
278.555	15.203	859.614	646.376
279.570	15.262	859.136	646.185
280.585	15.349	858.784	646.199
281.599	15.281	858.138	645.393
282.614	15.328	857.335	644.916
283.628	15.427	856.714	644.772
284.643	15.299	856.174	643.816
285.657	15.291	855.971	643.575
286.672	15.264	855.694	643.208
287.687	15.366	854.595	642.714
288.701	15.332	854.141	642.185
289.716	15.379	853.743	642.012
290.730	15.402	853.286	641.697
291.745	15.453	852.424	641.188
292.760	15.406	851.687	640.397
293.774	15.332	851.363	639.814
294.789	15.487	850.692	639.844
295.803	15.511	849.566	639.031
296.818	15.395	849.405	638.411
297.833	15.428	848.734	637.980
298.847	15.572	848.212	638.075
299.862	15.530	847.200	637.098
300.876	15.438	847.037	636.571
301.891	15.519	846.124	636.136
302.906	15.704	845.600	636.387
303.920	15.660	844.889	635.627
304.935	15.617	844.508	635.121
305.949	15.877	843.544	635.323
306.964	15.788	843.083	634.584
307.979	15.807	842.240	633.965
308.993	15.699	841.919	633.259
310.008	15.727	841.342	632.876
311.022	15.663	841.137	632.423
312.037	15.797	840.388	632.310
313.052	15.751	839.894	631.707
314.066	15.622	839.112	630.579
315.081	15.651	838.714	630.333
316.095	15.777	837.577	629.896
317.110	15.734	837.777	629.829
318.125	15.636	837.118	628.911
319.139	15.733	836.638	628.858
320.154	15.928	835.966	629.026
321.168	15.873	835.272	628.243
322.183	15.890	835.073	628.102
323.197	15.874	834.458	627.522
324.212	15.794	833.937	626.779
325.227	15.778	833.544	626.365
326.241	15.909	832.518	626.029
327.256	15.998	831.751	625.727
328.270	15.863	831.392	624.899
329.285	15.885	831.067	624.680
330.300	15.938	830.438	624.349
331.314	15.855	830.045	623.692
332.329	15.939	829.318	623.400
333.343	15.995	828.721	623.104
334.358	16.051	827.983	622.702
335.373	16.130	827.165	622.322
336.387	15.937	827.092	621.501
337.402	16.011	826.536	621.300
338.416	15.997	825.982	620.776
339.431	16.103	825.336	620.627
340.446	16.055	825.227	620.312
341.460	16.193	824.276	620.052
342.475	16.237	823.931	619.897
343.489	16.253	823.119	619.291
344.504	16.284	822.587	618.950
345.519	16.297	822.219	618.665
346.533	16.348	821.640	618.362
347.548	16.323	821.070	617.787
348.562	16.352	820.455	617.376
349.577	16.188	820.549	616.790
350.592	16.240	819.523	616.157
351.606	16.247	819.006	615.737
352.621	16.256	818.660	615.455
353.635	16.225	818.261	614.989
354.650	16.218	818.063	614.761
355.665	16.231	818.039	614.734
356.679	16.246	817.075	614.012
357.694	16.461	816.437	614.258
358.708	16.463	815.894	613.805
359.723	16.359	815.592	613.145
360.738	16.344	815.047	612.624
361.752	16.571	814.140	612.711
362.767	16.481	813.946	612.185
363.781	16.380	813.905	611.736
364.796	16.576	812.879	611.620
365.810	16.422	812.935	611.050
366.825	16.529	812.313	610.915
367.840	16.585	811.905	610.755
368.854	16.628	811.577	610.612
369.869	16.596	810.980	609.991
370.883	16.638	810.305	609.583
371.898	16.527	810.051	608.938
372.913	16.609	809.244	608.570
373.927	16.730	808.663	608.516
374.942	16.653	808.097	607.760
375.956	16.623	807.490	607.141
376.971	16.749	806.853	607.058
377.986	16.803	806.581	606.996
379.000	16.882	805.851	606.675
380.015	16.932	805.175	606.291
381.029	16.961	804.854	606.099
382.044	16.941	803.956	605.299
383.059	16.879	803.905	604.984
384.073	16.927	803.002	604.423
385.088	16.906	802.743	604.100
386.102	16.834	802.080	603.290
387.117	16.751	801.699	602.656
388.132	16.867	801.234	602.665
389.146	16.845	800.924	602.301
390.161	16.871	800.294	601.867
391.175	17.014	799.761	601.921
392.190	16.882	800.114	601.663
393.205	16.878	799.306	600.988
394.219	16.924	798.912	600.802
395.234	17.012	798.192	600.519
396.248	16.824	797.872	599.561
397.263	16.866	797.383	599.286
398.278	16.818	797.221	598.944
399.292	16.947	796.833	599.054
400.307	16.904	796.152	598.337
401.321	16.970	795.572	598.081
402.336	17.037	795.206	597.990
403.350	17.037	794.674	597.536
404.365	17.105	794.427	597.536
405.380	17.140	793.894	597.206
406.394	17.174	793.421	596.919
407.409	17.200	793.095	596.712
408.423	17.393	792.454	596.853
409.438	17.180	792.137	595.814
410.453	17.262	791.825	595.813
411.467	17.257	791.642	595.608
412.482	17.355	790.572	595.090
413.496	17.386	790.016	594.730
414.511	17.411	789.937	594.704
415.526	17.378	789.952	594.547
416.540	17.294	789.218	593.650
417.555	17.408	788.606	593.534
418.569	17.381	788.073	592.985
419.584	17.475	787.824	593.073
420.599	17.258	787.447	591.983
421.613	110.831	1293.095	1474.065
422.628	95.089	1366.742	1474.149
