DTS Sentinel unit serial number:	SN413079Multiplexer serial number:	ORYXHardware model number:	OX4-SRSoftware version number:	ORYX F/W v4.00 Oryx Data Collector v3.7.2.0data status	okinstallation	princeton_trtdifferential loss correction	single-endedforward channel	channel 3reverse channel	N/Adate	2019/09/10time	16:46:11forward acquisition time	60.00reverse acquisition time	0.00gamma	496.2192k internal	0.2300k external	0.2300temperature offset calibration	0.9905default loss term (dB/km)	0.3790temperature slope calibration	1.0000multiplexer offset coefficient	1.0000multiplexer slope coefficient	1.0000fibre end	0.00T internal ref (°C)	37.69T ext. ref 1 (°C)	-0.31T ext. ref 2 (°C)	30.69length (m)	temperature (°C)	Stokes	anti-Stokes-747.200	-103.462	-0.555	-0.133
-746.185	-200.000	0.045	0.213
-745.171	376.048	0.177	-0.368
-744.156	-200.000	0.028	0.199
-743.142	-200.000	0.031	-0.322
-742.127	-110.488	0.409	0.087
-741.112	-119.136	0.207	-0.037
-740.098	181.577	-0.175	0.262
-739.083	-53.631	0.289	0.135
-738.069	107.526	-0.137	0.166
-737.054	28.341	0.058	-0.050
-736.039	99.505	-0.152	-0.180
-735.025	35.538	0.142	0.127
-734.010	40.177	-0.194	0.177
-732.996	-48.503	-0.439	0.215
-731.981	13.000	-0.157	0.124
-730.966	-200.000	-0.016	-0.272
-729.952	-200.000	0.076	0.353
-728.937	62.623	-0.177	0.181
-727.923	-79.651	-0.157	0.054
-726.908	-200.000	-0.066	0.358
-725.894	6.331	0.280	0.212
-724.879	-29.743	-0.072	0.042
-723.864	-82.746	-0.160	-0.053
-722.850	153.518	-0.222	0.310
-721.835	-87.149	0.145	-0.045
-720.821	-59.641	-0.063	0.028
-719.806	564.396	-0.037	-0.091
-718.791	-200.000	-0.053	0.277
-717.777	80.922	0.051	0.056
-716.762	-180.439	-0.152	0.003
-715.748	660.554	-0.116	0.305
-714.733	213.028	0.099	-0.159
-713.718	-94.448	-0.272	0.075
-712.704	800.000	0.091	-0.316
-711.689	-92.837	-0.194	-0.055
-710.675	353.080	0.120	0.243
-709.660	-139.035	0.196	0.022
-708.645	2.027	-0.095	0.070
-707.631	-200.000	-0.030	0.291
-706.616	-124.070	0.127	-0.020
-705.602	-56.600	-0.056	0.025
-704.587	-6.465	0.042	-0.029
-703.572	-134.038	-0.166	0.021
-702.558	112.719	0.020	0.025
-701.543	-103.196	0.240	0.058
-700.529	-200.000	-0.002	-0.102
-699.514	695.742	0.062	0.165
-698.499	-200.000	0.027	0.150
-697.485	-65.402	0.147	0.060
-696.470	-42.593	0.162	0.084
-695.456	432.465	-0.221	-0.487
-694.441	-200.000	0.088	-0.411
-693.426	-16.206	-0.122	-0.079
-692.412	87.953	0.034	0.039
-691.397	163.516	-0.138	-0.197
-690.383	-200.000	-0.017	-0.088
-689.368	33.932	0.151	-0.134
-688.354	-60.932	0.370	-0.159
-687.339	13.602	0.308	-0.244
-686.324	71.460	-0.191	0.201
-685.310	87.242	0.074	-0.084
-684.295	-200.000	-0.000	-0.026
-683.281	50.442	0.342	0.329
-682.266	-200.000	-0.012	-0.137
-681.251	701.258	-0.052	-0.140
-680.237	-200.000	-0.023	0.117
-679.222	114.591	0.064	0.079
-678.208	102.812	0.157	0.188
-677.193	-200.000	0.035	-0.306
-676.178	100.366	0.248	-0.292
-675.164	-200.000	0.131	0.586
-674.149	284.277	-0.121	-0.221
-673.135	531.171	-0.059	0.141
-672.120	-17.869	-0.259	0.165
-671.105	-30.590	0.139	-0.080
-670.091	84.832	-0.163	-0.181
-669.076	-200.000	-0.012	-0.156
-668.062	-114.872	-0.168	-0.033
-667.047	800.000	-0.042	-0.152
-666.032	-22.516	0.223	-0.137
-665.018	62.290	0.154	0.156
-664.003	800.000	0.071	-0.310
-662.989	-18.148	-0.272	0.173
-661.974	156.338	-0.200	-0.280
-660.959	-149.204	0.237	-0.019
-659.945	-200.000	0.033	-0.235
-658.930	190.715	-0.103	0.157
-657.916	465.727	-0.020	0.046
-656.901	-72.910	0.246	0.092
-655.886	32.738	0.287	-0.252
-654.872	-85.375	-0.109	-0.034
-653.857	0.185	0.254	-0.184
-652.843	-140.948	0.159	0.017
-651.828	800.000	0.091	0.301
-650.814	454.097	0.071	-0.159
-649.799	-200.000	-0.044	0.221
-648.784	-111.844	-0.250	0.051
-647.770	800.000	-0.045	0.129
-646.755	-200.000	-0.189	0.000
-645.741	-200.000	0.051	-0.261
-644.726	222.715	0.042	0.069
-643.711	-200.000	0.001	-0.078
-642.697	-102.410	-0.170	0.041
-641.682	-162.343	0.136	-0.007
-640.668	79.393	-0.190	-0.207
-639.653	389.196	0.117	0.245
-638.638	-39.342	0.317	-0.169
-637.624	-200.000	-0.010	-0.299
-636.609	34.045	0.071	-0.063
-635.595	-116.170	-0.200	0.038
-634.580	416.494	0.030	0.065
-633.565	-75.811	0.281	-0.101
-632.551	800.000	-0.075	-0.252
-631.536	275.239	-0.083	-0.149
-630.522	184.083	0.206	-0.309
-629.507	-200.000	0.049	0.317
-628.492	800.000	-0.018	-0.069
-627.478	-47.458	0.342	0.169
-626.463	-129.126	0.322	-0.046
-625.449	-200.000	-0.004	-0.134
-624.434	-170.157	0.153	-0.006
-623.419	265.648	-0.157	-0.278
-622.405	164.025	0.128	0.183
-621.390	102.219	-0.022	-0.026
-620.376	-200.000	-0.034	0.211
-619.361	-97.783	-0.247	0.065
-618.346	-116.931	0.065	0.012
-617.332	-90.234	0.121	0.036
-616.317	156.042	0.159	0.223
-615.303	-200.000	0.085	-0.637
-614.288	-147.549	-0.135	0.012
-613.273	-141.419	0.366	0.038
-612.259	518.363	0.084	-0.198
-611.244	167.617	-0.138	-0.198
-610.230	93.183	0.089	0.102
-609.215	337.591	0.084	-0.165
-608.201	800.000	0.071	-0.255
-607.186	-96.644	-0.016	0.004
-606.171	110.095	-0.031	-0.038
-605.157	-82.645	0.122	-0.040
-604.142	-200.000	-0.013	-0.172
-603.128	62.065	0.045	-0.046
-602.113	534.749	-0.105	-0.253
-601.098	30.579	0.140	-0.122
-600.084	800.000	0.056	0.208
-599.069	29.403	-0.477	-0.411
-598.055	-82.082	-0.190	-0.063
-597.040	-200.000	-0.002	-0.175
-596.025	-200.000	0.009	-0.225
-595.011	52.457	-0.316	0.305
-593.996	-102.964	-0.140	0.034
-592.982	183.539	-0.087	-0.130
-591.967	-200.000	0.006	0.512
-590.952	53.697	-0.098	-0.096
-589.938	800.000	0.047	0.135
-588.923	-124.360	-0.173	0.027
-587.909	800.000	-0.085	-0.290
-586.894	199.451	0.145	0.226
-585.879	360.355	0.098	-0.199
-584.865	800.000	0.063	0.241
-583.850	-22.723	-0.156	0.095
-582.836	800.000	0.080	0.244
-581.821	-145.557	-0.246	0.022
-580.806	222.954	0.029	0.048
-579.792	-101.027	-0.145	-0.036
-578.777	54.207	0.091	0.089
-577.763	232.890	-0.084	-0.140
-576.748	-200.000	-0.010	-0.303
-575.733	208.301	0.028	-0.045
-574.719	-2.106	0.148	-0.105
-573.704	-33.080	0.381	-0.214
-572.690	-200.000	0.068	-0.420
-571.675	800.000	-0.012	0.039
-570.661	-70.034	-0.228	0.088
-569.646	-168.222	-0.201	-0.008
-568.631	-200.000	-0.013	-0.148
-567.617	277.629	-0.164	-0.295
-566.602	-21.120	-0.189	-0.117
-565.588	44.639	-0.186	-0.173
-564.573	76.776	0.112	-0.120
-563.558	-7.156	0.186	0.128
-562.544	-7.432	-0.088	0.060
-561.529	306.108	-0.077	0.145
-560.515	95.623	0.191	-0.221
-559.500	800.000	-0.045	0.143
-558.485	375.258	-0.166	-0.342
-557.471	18.672	0.230	0.186
-556.456	-102.381	-0.322	-0.078
-555.442	-200.000	-0.017	-0.206
-554.427	172.057	-0.156	-0.227
-553.412	-93.858	-0.513	0.143
-552.398	14.310	-0.109	0.086
-551.383	-62.491	0.091	-0.038
-550.369	800.000	0.117	-0.369
-549.354	15.281	0.228	0.181
-548.339	102.614	-0.082	-0.098
-547.325	180.818	-0.104	0.155
-546.310	170.398	0.311	0.451
-545.296	-34.883	0.173	0.095
-544.281	-200.000	0.019	-0.108
-543.266	1.804	-0.407	-0.297
-542.252	-140.569	0.402	0.042
-541.237	-47.979	0.217	-0.106
-540.223	-57.822	-0.588	0.260
-539.208	-88.949	0.131	0.039
-538.193	-111.515	0.242	0.050
-537.179	3.934	0.121	-0.090
-536.164	-28.255	0.293	0.171
-535.150	-200.000	0.050	0.230
-534.135	-70.888	-0.281	-0.107
-533.121	-52.236	-0.155	0.073
-532.106	800.000	-0.157	0.495
-531.091	-30.257	0.208	-0.119
-530.077	312.399	-0.105	-0.200
-529.062	-79.759	-0.334	0.114
-528.048	800.000	0.061	-0.200
-527.033	10.408	0.004	0.003
-526.018	-200.000	-0.033	-0.187
-525.004	338.941	0.083	0.164
-523.989	800.000	0.076	-0.271
-522.975	475.593	-0.184	-0.420
-521.960	-200.000	0.021	0.121
-520.945	34.829	0.023	0.020
-519.931	-44.720	0.294	0.148
-518.916	800.000	-0.046	0.183
-517.902	-200.000	-0.035	0.213
-516.887	49.634	0.191	0.182
-515.872	-112.248	-0.248	0.050
-514.858	-72.675	-0.264	-0.098
-513.843	144.686	0.322	0.435
-512.829	-200.000	-0.013	0.088
-511.814	-98.899	0.135	-0.035
-510.799	-123.610	-0.324	0.052
-509.785	-96.144	-0.205	0.055
-508.770	363.075	-0.164	-0.333
-507.756	-135.480	-0.232	-0.028
-506.741	-73.219	-0.349	-0.129
-505.726	-107.749	-0.078	-0.017
-504.712	-69.157	-0.241	-0.094
-503.697	-200.000	-0.015	0.068
-502.683	-85.155	0.297	0.094
-501.668	24.679	0.229	-0.192
-500.653	150.491	-0.116	0.160
-499.639	73.988	-0.152	-0.161
-498.624	-56.232	-0.115	0.052
-497.610	-119.825	0.314	0.055
-496.595	369.757	-0.143	0.292
-495.581	-200.000	0.033	0.201
-494.566	360.553	-0.077	0.156
-493.551	800.000	-0.092	-0.314
-492.537	89.935	-0.352	-0.398
-491.522	70.109	-0.197	-0.205
-490.508	-134.473	0.204	-0.025
-489.493	125.729	-0.134	0.171
-488.478	147.572	-0.158	0.215
-487.464	72.966	0.264	0.279
-486.449	-66.953	-0.167	-0.067
-485.435	-200.000	0.006	-0.178
-484.420	-114.309	-0.193	0.038
-483.405	-110.713	-0.143	0.030
-482.391	80.430	0.067	0.073
-481.376	-200.000	-0.002	0.117
-480.362	800.000	0.057	-0.232
-479.347	14.012	-0.199	-0.156
-478.332	800.000	0.081	0.232
-477.318	800.000	-0.063	0.265
-476.303	-134.625	0.381	0.047
-475.289	-132.711	-0.303	0.039
-474.274	-29.211	-0.223	0.129
-473.259	-153.746	-0.442	-0.031
-472.245	374.466	-0.024	-0.050
-471.230	-200.000	0.030	0.233
-470.216	-165.870	-0.458	0.020
-469.201	-200.000	-0.018	0.162
-468.186	-113.355	-0.258	-0.051
-467.172	104.205	0.096	0.114
-466.157	-111.500	-0.306	-0.063
-465.143	190.761	0.113	0.171
-464.128	-165.333	-0.205	-0.009
-463.113	229.687	-0.009	0.015
-462.099	40.082	-0.099	-0.090
-461.084	-106.671	0.099	0.022
-460.070	27.843	0.111	0.095
-459.055	100.856	0.202	0.236
-458.040	54.514	0.104	0.101
-457.026	-200.000	-0.003	0.130
-456.011	44.905	0.117	0.109
-454.997	-200.000	-0.049	0.249
-453.982	-45.980	-0.306	-0.152
-452.968	571.661	0.122	-0.299
-451.953	-200.000	-0.007	-0.169
-450.938	-25.701	-0.191	0.114
-449.924	-122.358	0.237	-0.039
-448.909	800.000	-0.063	0.259
-447.895	52.525	0.133	0.128
-446.880	91.228	-0.163	0.184
-445.865	-130.486	-0.262	0.036
-444.851	596.368	-0.049	-0.122
-443.836	415.676	-0.134	-0.289
-442.822	800.000	0.067	-0.262
-441.807	-97.115	-0.225	-0.059
-440.792	239.298	0.012	-0.020
-439.778	-70.456	0.482	-0.184
-438.763	-83.175	0.217	-0.070
-437.749	454.682	-0.096	0.214
-436.734	-154.309	-0.393	0.027
-435.719	-193.884	0.531	-0.004
-434.705	704.008	-0.079	-0.209
-433.690	376.808	0.082	0.169
-432.676	-25.622	-0.201	0.119
-431.661	218.369	0.144	-0.232
-430.646	-171.219	-0.185	-0.006
-429.632	123.723	0.038	-0.048
-428.617	36.926	-0.181	0.162
-427.603	314.810	0.122	0.232
-426.588	800.000	-0.102	-0.299
-425.573	-102.714	0.350	-0.084
-424.559	388.151	-0.062	-0.130
-423.544	-161.343	-0.264	0.014
-422.530	134.716	0.219	-0.286
-421.515	52.601	-0.054	0.052
-420.500	5.815	0.308	0.230
-419.486	164.169	0.049	-0.070
-418.471	-200.000	0.029	-0.190
-417.457	240.246	-0.096	-0.162
-416.442	190.489	-0.247	0.374
-415.428	-200.000	-0.006	-0.070
-414.413	-32.485	-0.100	0.056
-413.398	99.729	0.173	0.202
-412.384	-200.000	0.016	0.452
-411.369	-187.674	0.281	-0.004
-410.355	-90.377	-0.334	-0.097
-409.340	-108.845	0.159	0.034
-408.325	-200.000	-0.015	0.403
-407.311	800.000	0.091	0.351
-406.296	31.173	-0.329	0.284
-405.282	33.381	-0.304	-0.265
-404.267	-200.000	0.016	-0.142
-403.252	-125.640	-0.378	0.058
-402.238	326.887	0.144	0.277
-401.223	-18.682	-0.166	-0.104
-400.209	312.097	-0.155	-0.293
-399.194	-59.539	0.220	0.095
-398.179	-200.000	0.003	0.142
-397.165	194.507	-0.095	0.145
-396.150	504.215	-0.023	-0.054
-395.136	-200.000	-0.006	0.271
-394.121	678.914	0.051	-0.132
-393.106	444.551	-0.087	0.192
-392.092	-160.244	0.317	-0.017
-391.077	61.307	0.259	0.259
-390.063	-178.073	0.153	0.004
-389.048	451.368	-0.031	-0.068
-388.033	351.155	-0.117	0.232
-387.019	800.000	0.069	-0.228
-386.004	800.000	0.053	-0.153
-384.990	-118.282	0.220	0.039
-383.975	136.394	0.087	0.114
-382.960	-155.736	0.277	-0.018
-381.946	-200.000	0.001	-0.041
-380.931	-18.818	-0.156	-0.097
-379.917	52.530	-0.087	0.084
-378.902	-32.113	-0.142	0.080
-377.888	32.400	0.098	0.085
-376.873	-53.655	0.228	-0.105
-375.858	800.000	-0.053	-0.148
-374.844	-28.968	-0.388	0.224
-373.829	501.715	0.102	-0.237
-372.815	248.505	-0.150	0.254
-371.800	800.000	0.092	0.302
-370.785	-131.423	0.213	-0.028
-369.771	-200.000	-0.022	-0.246
-368.756	-20.465	-0.080	0.049
-367.742	184.614	0.119	-0.178
-366.727	-200.000	0.002	-0.150
-365.712	-52.799	0.239	0.111
-364.698	-200.000	0.026	0.635
-363.683	-105.358	0.072	-0.017
-362.669	605.635	0.078	-0.195
-361.654	-200.000	0.004	-0.123
-360.639	2.693	0.241	0.176
-359.625	65.875	0.229	0.233
-358.610	-150.424	0.367	0.028
-357.596	800.000	-0.051	-0.148
-356.581	-135.086	-0.125	0.015
-355.566	137.503	-0.067	0.088
-354.552	96.849	-0.143	-0.164
-353.537	287.550	0.199	0.361
-352.523	-82.066	-0.118	-0.039
-351.508	-93.371	-0.265	-0.074
-350.493	8.982	0.214	0.162
-349.479	-25.469	-0.160	-0.095
-348.464	-200.000	0.041	-0.379
-347.450	65.523	-0.247	0.251
-346.435	17.805	-0.247	0.198
-345.420	-200.000	0.020	0.208
-344.406	-200.000	0.034	-0.252
-343.391	-200.000	-0.010	-0.328
-342.377	5.799	-0.197	-0.147
-341.362	-200.000	0.022	-0.137
-340.348	159.670	0.195	-0.272
-339.333	-146.533	-0.274	0.024
-338.318	-34.736	-0.198	0.109
-337.304	68.007	-0.194	-0.199
-336.289	49.317	0.184	0.174
-335.275	133.048	0.057	-0.074
-334.260	800.000	0.061	0.202
-333.245	-21.533	0.182	0.111
-332.231	-200.000	0.013	-0.109
-331.216	-21.515	-0.251	-0.154
-330.202	201.604	0.126	0.195
-329.187	93.582	-0.036	0.041
-328.172	800.000	-0.022	-0.071
-327.158	141.388	-0.118	0.156
-326.143	-134.838	0.344	-0.042
-325.129	65.525	-0.012	-0.013
-324.114	-111.788	-0.339	-0.069
-323.099	-130.301	0.097	-0.013
-322.085	-121.570	-0.431	0.072
-321.070	800.000	-0.036	0.107
-320.056	81.797	-0.135	0.146
-319.041	-40.131	0.215	0.112
-318.026	-103.026	-0.417	0.099
-317.012	-140.406	0.110	-0.011
-315.997	-168.957	0.134	0.005
-314.983	-200.000	0.033	0.209
-313.968	-11.903	0.068	0.045
-312.953	601.813	0.163	0.406
-311.939	800.000	0.103	0.330
-310.924	-82.039	-0.092	-0.030
-309.910	7.346	0.275	0.206
-308.895	-82.290	0.121	0.039
-307.880	800.000	0.043	0.176
-306.866	6.557	0.259	0.193
-305.851	-200.000	-0.012	0.145
-304.837	8.929	0.097	0.073
-303.822	64.720	-0.121	0.123
-302.807	32.877	0.177	-0.154
-301.793	800.000	0.017	-0.061
-300.778	-57.341	0.186	-0.082
-299.764	-55.053	0.207	-0.094
-298.749	370.559	0.026	-0.053
-297.735	-39.430	0.469	-0.246
-296.720	631.419	0.058	-0.147
-295.705	31.359	0.106	-0.091
-294.691	-66.482	-0.158	0.063
-293.676	-58.950	-0.153	-0.066
-292.662	247.817	0.090	-0.153
-291.647	800.000	0.011	0.042
-290.632	4.826	0.305	0.224
-289.618	-63.405	0.111	-0.046
-288.603	-146.749	0.391	0.034
-287.589	-200.000	-0.012	0.240
-286.574	-64.524	0.256	0.104
-285.559	800.000	-0.089	-0.381
-284.545	66.823	0.148	0.151
-283.530	65.098	0.102	0.104
-282.516	-146.061	0.331	-0.029
-281.501	-200.000	0.050	0.392
-280.486	107.066	0.054	0.065
-279.472	94.734	-0.161	0.184
-278.457	-200.000	-0.011	0.074
-277.443	-200.000	0.016	-0.199
-276.428	-26.739	-0.131	0.077
-275.413	157.391	0.029	0.040
-274.399	800.000	-0.034	-0.143
-273.384	686.603	-0.034	0.090
-272.370	-142.123	0.454	-0.045
-271.355	42.628	0.276	-0.252
-270.340	48.064	-0.416	-0.389
-269.326	148.782	-0.036	-0.048
-268.311	-9.467	0.177	0.118
-267.297	546.626	-0.122	0.291
-266.282	76.460	-0.165	0.175
-265.267	-200.000	-0.094	-0.717
-264.253	143.480	0.087	0.116
-263.238	-200.000	0.032	0.256
-262.224	24.083	0.137	0.114
-261.209	-200.000	-0.036	0.305
-260.195	-36.615	-0.148	0.080
-259.180	65.141	-0.204	-0.206
-258.165	-144.137	0.164	-0.015
-257.151	-93.127	-0.042	0.012
-256.136	-200.000	-0.030	-0.302
-255.122	232.631	0.198	-0.326
-254.107	40.576	0.097	-0.088
-253.092	-30.755	-0.096	-0.055
-252.078	-191.762	0.337	-0.003
-251.063	197.141	-0.193	0.295
-250.049	-200.000	-0.013	0.244
-249.034	-200.000	-0.016	-0.427
-248.019	324.583	0.169	-0.322
-247.005	-83.172	0.037	-0.012
-245.990	66.298	-0.059	-0.060
-244.976	414.124	0.146	0.311
-243.961	15.130	-0.157	0.123
-242.946	-122.784	0.360	0.058
-241.932	-126.673	0.236	-0.035
-240.917	-137.252	0.131	0.015
-239.903	-200.000	-0.020	-0.138
-238.888	-149.607	-0.188	0.015
-237.873	-150.249	-0.375	-0.029
-236.859	-138.531	-0.216	-0.024
-235.844	115.462	0.028	0.034
-234.830	-41.309	-0.370	0.191
-233.815	-200.000	0.009	-0.144
-232.800	189.060	0.042	0.064
-231.786	-138.593	0.049	-0.005
-230.771	-200.000	0.003	-0.091
-229.757	800.000	-0.014	-0.040
-228.742	-91.158	0.209	0.060
-227.727	-54.793	-0.157	0.071
-226.713	-200.000	-0.060	-0.289
-225.698	-200.000	-0.002	0.077
-224.684	-15.646	0.160	-0.102
-223.669	-70.505	-0.248	0.094
-222.655	-37.904	0.024	0.013
-221.640	-187.118	-0.383	-0.005
-220.625	241.370	-0.055	0.092
-219.611	-81.079	0.318	-0.105
-218.596	175.980	-0.128	0.186
-217.582	-50.512	0.139	0.065
-216.567	376.458	-0.136	-0.277
-215.552	155.817	0.200	-0.276
-214.538	800.000	0.045	-0.166
-213.523	11.147	0.291	0.223
-212.509	-200.000	0.055	-0.286
-211.494	183.906	0.137	-0.203
-210.479	104.120	0.181	-0.212
-209.465	68.649	0.160	0.164
-208.450	-200.000	0.026	0.165
-207.436	87.294	-0.073	0.081
-206.421	547.260	0.009	-0.022
-205.406	-200.000	0.020	0.186
-204.392	125.315	0.130	0.164
-203.377	-11.958	-0.256	-0.168
-202.363	-87.965	0.302	0.091
-201.348	24.935	0.151	0.125
-200.333	496.946	0.063	-0.144
-199.319	-126.827	0.152	-0.022
-198.304	-200.000	0.003	0.100
-197.290	31.891	0.187	0.160
-196.275	5.894	-0.117	-0.086
-195.260	420.108	0.053	-0.114
-194.246	-29.687	-0.175	-0.100
-193.231	-52.072	-0.044	0.021
-192.217	226.808	0.073	0.119
-191.202	-169.736	0.125	-0.005
-190.187	-90.896	-0.141	0.040
-189.173	800.000	0.018	-0.067
-188.158	-200.000	0.025	-0.115
-187.144	30.316	-0.077	-0.066
-186.129	-73.569	-0.167	0.061
-185.114	212.425	-0.171	-0.269
-184.100	60.352	-0.239	-0.236
-183.085	-200.000	0.023	0.111
-182.071	-188.253	0.197	0.002
-181.056	-20.854	-0.238	-0.145
-180.042	289.881	-0.044	-0.079
-179.027	-200.000	-0.027	0.185
-178.012	51.275	0.510	0.483
-176.998	-200.000	-0.247	0.000
-175.983	-32.819	0.020	-0.011
-174.969	-81.258	-0.314	0.103
-173.954	800.000	-0.109	0.370
-172.939	-176.521	-0.244	-0.006
-171.925	-9.100	0.218	-0.145
-170.910	-101.829	-0.160	0.039
-169.896	-75.754	-0.058	0.020
-168.881	212.267	0.091	-0.142
-167.866	158.784	0.101	0.140
-166.852	-128.968	0.104	0.014
-165.837	-200.000	0.025	-0.179
-164.823	316.311	-0.098	0.184
-163.808	-113.730	0.337	-0.065
-162.793	-200.000	0.010	-0.196
-161.779	34.356	0.202	-0.176
-160.764	800.000	-0.072	-0.210
-159.750	298.680	0.058	-0.106
-158.735	-68.634	-0.110	0.042
-157.720	20.507	0.252	-0.203
-156.706	-26.481	0.159	0.093
-155.691	-19.800	0.116	-0.072
-154.677	701.672	-0.145	-0.380
-153.662	87.793	0.046	0.051
-152.647	-37.845	-0.175	-0.093
-151.633	-200.000	0.028	-0.124
-150.618	-53.853	0.098	-0.044
-149.604	-84.032	-0.269	-0.085
-148.589	800.000	-0.054	-0.233
-147.574	500.662	0.079	-0.181
-146.560	-106.743	-0.262	0.058
-145.545	-110.682	-0.301	-0.062
-144.531	103.922	0.181	0.212
-143.516	-28.232	-0.167	0.096
-142.502	-133.857	0.172	-0.021
-141.487	-105.529	-0.120	0.027
-140.472	201.532	0.175	-0.268
-139.458	-49.711	0.353	0.167
-138.443	24.528	0.077	0.063
-137.429	604.999	0.043	0.106
-136.414	186.275	0.167	-0.247
-135.399	-30.840	0.585	0.329
-134.385	-101.812	0.151	0.036
-133.370	226.518	0.085	0.137
-132.356	-128.972	0.130	0.018
-131.341	-87.852	-0.331	0.099
-130.326	-91.880	-0.230	0.065
-129.312	278.804	0.081	0.143
-128.297	126.159	-0.169	0.213
-127.283	88.442	0.335	0.371
-126.268	800.000	0.022	0.063
-125.253	72.244	-0.226	0.234
-124.239	67.680	0.125	-0.128
-123.224	364.424	-0.089	0.179
-122.210	177.569	-0.121	0.176
-121.195	-162.169	-0.203	-0.010
-120.180	48.492	-0.218	-0.204
-119.166	-50.894	0.149	0.070
-118.151	800.000	0.116	-0.410
-117.137	-48.212	-0.162	-0.078
-116.122	-200.000	0.014	-0.132
-115.107	-56.852	-0.184	0.081
-114.093	41.894	-0.133	-0.120
-113.078	417.616	-0.024	-0.050
-112.064	-94.874	-0.177	-0.048
-111.049	120.902	-0.089	-0.110
-110.034	191.398	0.075	-0.112
-109.020	150.013	0.129	0.174
-108.005	-106.294	0.115	0.026
-106.991	536.621	0.071	-0.167
-105.976	-200.000	-0.028	-0.419
-104.962	-127.845	0.390	-0.056
-103.947	25.381	0.114	0.094
-102.932	-153.457	0.129	-0.009
-101.918	800.000	-0.048	0.192
-100.903	-30.137	0.080	-0.045
-99.889	260.826	-0.020	-0.034
-98.874	-132.088	-0.013	-0.002
-97.859	-131.787	0.450	-0.059
-96.845	61.541	-0.038	0.038
-95.830	-200.000	-0.008	0.074
-94.816	-200.000	-0.009	0.165
-93.801	-200.000	-0.035	0.285
-92.786	40.106	-0.189	0.169
-91.772	115.756	-0.329	0.400
-90.757	40.181	0.168	-0.150
-89.743	-99.495	-0.237	-0.059
-88.728	-94.266	-0.117	-0.032
-87.713	136.439	-0.052	-0.067
-86.699	-200.000	-0.094	0.568
-85.684	-30.672	-0.344	-0.194
-84.670	-150.341	-0.036	0.003
-83.655	293.158	-0.044	0.080
-82.640	29.241	0.206	0.174
-81.626	-64.285	-0.088	0.036
-80.611	800.000	0.069	-0.224
-79.597	-200.000	-0.004	-0.067
-78.582	-16.062	-0.293	-0.185
-77.567	643.980	0.101	-0.257
-76.553	-200.000	0.015	0.088
-75.538	-50.062	0.097	-0.046
-74.524	-200.000	-0.004	-0.083
-73.509	-51.574	-0.209	-0.097
-72.494	391.582	0.064	-0.132
-71.480	-4.826	0.408	-0.280
-70.465	800.000	0.054	-0.172
-69.451	76.424	-0.196	-0.206
-68.436	-103.441	0.223	0.052
-67.422	40.364	0.072	-0.064
-66.407	-200.000	-0.013	0.164
-65.392	-43.172	-0.200	0.101
-64.378	-162.933	-0.338	0.016
-63.363	390.430	-0.162	0.334
-62.349	-200.000	-0.044	0.283
-61.334	31.582	-0.813	-0.694
-60.319	800.000	0.223	0.629
-59.305	800.000	-0.307	-0.848
-58.290	127.287	0.354	0.446
-57.276	411.315	0.754	1.588
-56.261	-200.000	86.588	502.850
-55.246	539.170	1382.216	3264.084
-54.232	178.847	2637.366	3826.920
-53.217	117.075	2276.810	2776.611
-52.203	47.388	1802.396	1667.079
-51.188	40.666	1608.277	1438.959
-50.173	38.168	1580.272	1396.021
-49.159	54.752	1624.389	1555.406
-48.144	58.811	1644.142	1603.655
-47.130	41.151	1602.999	1437.514
-46.115	37.927	1588.337	1401.192
-45.100	37.761	1584.535	1396.592
-44.086	37.670	1582.913	1394.458
-43.071	37.606	1580.914	1392.182
-42.057	37.713	1578.889	1391.109
-41.042	37.628	1577.684	1389.383
-40.027	37.616	1576.029	1387.784
-39.013	37.661	1574.351	1386.572
-37.998	37.652	1573.130	1385.379
-36.984	37.726	1571.716	1384.606
-35.969	37.709	1570.255	1383.140
-34.954	37.674	1569.009	1381.738
-33.940	37.661	1567.678	1380.422
-32.925	37.762	1565.888	1379.507
-31.911	37.765	1564.370	1378.132
-30.896	37.812	1563.074	1377.273
-29.881	37.793	1562.164	1376.279
-28.867	37.772	1560.994	1375.048
-27.852	37.654	1559.270	1372.640
-26.838	37.645	1558.002	1371.407
-25.823	37.701	1556.404	1370.340
-24.809	37.729	1553.885	1368.267
-23.794	37.703	1552.767	1367.047
-22.779	37.732	1551.710	1366.261
-21.765	37.683	1550.686	1364.960
-20.750	37.821	1548.826	1364.240
-19.736	37.788	1548.393	1363.572
-18.721	37.655	1547.334	1361.652
-17.706	37.777	1545.368	1360.719
-16.692	37.721	1544.507	1359.518
-15.677	37.602	1544.090	1358.267
-14.663	37.684	1542.389	1357.289
-13.648	37.605	1541.516	1355.917
-12.633	37.616	1540.379	1354.937
-11.619	37.729	1539.204	1354.641
-10.604	37.635	1538.617	1353.417
-9.590	37.611	1537.939	1352.595
-8.575	37.709	1536.855	1352.270
-7.560	37.677	1535.877	1351.136
-6.546	37.599	1535.492	1350.203
-5.531	37.547	1534.857	1349.231
-4.517	37.553	1533.153	1347.718
-3.502	37.656	1532.376	1347.696
-2.487	37.565	1531.420	1346.171
-1.473	37.600	1529.912	1345.036
-0.458	37.675	1528.296	1344.076
0.556	35.159	1518.157	1332.453
1.571	32.052	1489.629	1286.055
2.586	28.092	1424.850	1204.011
3.600	26.277	1338.483	1119.690
4.615	24.921	1290.881	1071.664
5.629	21.279	1232.652	1002.380
6.644	10.581	1139.815	869.737
7.659	1.380	1092.065	785.793
8.673	-0.089	1085.408	773.378
9.688	-0.272	1082.449	770.264
10.702	-0.453	1080.990	768.226
11.717	-0.446	1079.310	767.003
12.731	2.797	1083.055	786.228
13.746	12.377	1096.880	845.711
14.761	17.234	1102.749	875.237
15.775	15.352	1098.989	862.506
16.790	14.370	1096.702	855.597
17.804	13.866	1095.648	852.112
18.819	13.742	1094.785	850.728
19.834	13.828	1093.739	850.279
20.848	13.645	1093.251	848.887
21.863	13.560	1092.783	848.015
22.877	13.590	1092.111	847.570
23.892	13.387	1091.605	846.067
24.907	13.362	1090.597	845.082
25.921	13.349	1090.168	844.610
26.936	13.440	1089.483	844.467
27.950	13.414	1088.104	843.192
28.965	13.523	1086.997	842.812
29.980	13.400	1085.418	840.890
30.994	13.443	1083.864	839.829
32.009	13.365	1082.745	838.493
33.023	13.507	1081.678	838.310
34.038	13.390	1080.307	836.583
35.053	13.383	1079.432	835.798
36.067	13.416	1079.058	835.601
37.082	13.575	1077.670	835.253
38.096	13.460	1077.171	834.213
39.111	13.634	1075.684	833.865
40.126	13.630	1074.926	833.181
41.140	13.685	1073.504	832.282
42.155	13.409	1072.352	829.932
43.169	13.367	1071.471	828.968
44.184	13.383	1069.678	827.586
45.199	13.442	1068.765	827.102
46.213	13.500	1067.389	826.250
47.228	13.402	1066.616	825.092
48.242	13.413	1065.492	824.203
49.257	13.253	1064.490	822.558
50.271	13.339	1062.907	821.691
51.286	13.431	1062.179	821.512
52.301	13.431	1061.185	820.672
53.315	13.501	1060.545	820.448
54.330	13.506	1059.393	819.513
55.344	13.572	1058.199	818.843
56.359	13.478	1057.940	818.102
57.374	13.525	1056.430	817.096
58.388	13.492	1055.311	815.993
59.403	13.298	1054.869	814.625
60.417	13.487	1053.951	814.775
61.432	13.285	1053.251	813.169
62.447	13.371	1052.514	812.950
63.461	13.407	1051.437	812.224
64.476	13.386	1050.901	811.633
65.490	13.396	1049.760	810.730
66.505	13.533	1048.450	810.319
67.520	13.491	1047.726	809.482
68.534	13.424	1046.983	808.509
69.549	13.419	1045.961	807.620
70.563	13.272	1045.256	806.291
71.578	13.286	1044.539	805.735
72.593	13.377	1043.425	805.247
73.607	13.365	1042.492	804.395
74.622	13.400	1041.290	803.567
75.636	13.409	1040.520	802.948
76.651	13.390	1040.045	802.414
77.666	13.432	1038.390	801.274
78.680	13.230	1037.834	799.795
79.695	13.302	1037.658	799.939
80.709	13.366	1037.276	799.882
81.724	13.385	1036.237	799.101
82.739	13.332	1035.288	798.040
83.753	13.346	1034.497	797.427
84.768	13.367	1033.319	796.550
85.782	13.370	1032.658	795.984
86.797	13.464	1031.552	795.516
87.812	13.565	1030.404	795.043
88.826	13.446	1029.640	793.812
89.841	13.472	1028.901	793.300
90.855	13.381	1028.076	792.155
91.870	13.580	1026.884	792.121
92.884	13.485	1026.172	791.044
93.899	13.433	1025.235	790.003
94.914	13.393	1024.297	789.022
95.928	13.412	1023.667	788.558
96.943	13.444	1022.730	787.917
97.957	13.324	1021.785	786.551
98.972	13.330	1020.845	785.783
99.987	13.083	1019.917	783.827
101.001	13.191	1018.906	783.497
102.016	13.287	1018.492	783.562
103.030	13.416	1017.551	783.377
104.045	13.302	1016.277	781.789
105.060	13.241	1014.844	780.330
106.074	13.169	1013.533	778.915
107.089	13.207	1012.648	778.346
108.103	13.338	1012.680	778.918
109.118	13.445	1011.504	778.448
110.133	13.379	1010.529	777.319
111.147	13.308	1009.755	776.319
112.162	13.466	1008.494	776.023
113.176	13.399	1007.389	774.788
114.191	13.292	1006.647	773.651
115.206	13.345	1005.527	772.966
116.220	13.280	1004.655	771.928
117.235	13.248	1003.346	770.705
118.249	13.242	1002.798	770.186
119.264	13.272	1001.772	769.471
120.279	13.321	1000.632	768.754
121.293	13.275	999.744	767.792
122.308	13.394	998.837	767.575
123.322	13.324	998.218	766.711
124.337	13.373	997.020	765.946
125.352	13.332	995.453	764.488
126.366	13.249	993.822	762.782
127.381	13.032	992.716	760.867
128.395	13.247	991.545	760.892
129.410	13.351	990.871	760.786
130.424	13.413	990.080	760.396
131.439	13.405	988.835	759.337
132.454	13.379	988.545	758.925
133.468	13.333	987.309	757.700
134.483	13.343	986.607	757.141
135.497	13.369	985.680	756.479
136.512	13.452	984.940	756.224
137.527	13.377	984.515	755.491
138.541	13.472	983.315	754.937
139.556	13.543	982.179	754.318
140.570	13.437	981.277	753.078
141.585	13.505	980.380	752.632
142.600	13.394	979.753	751.578
143.614	13.374	978.542	750.493
144.629	13.304	978.275	749.905
145.643	13.412	977.254	749.546
146.658	13.457	976.090	748.791
147.673	13.362	975.177	747.592
148.687	13.448	974.274	747.223
149.702	13.363	973.483	746.167
150.716	13.320	972.755	745.349
151.731	13.292	971.630	744.295
152.746	13.462	970.627	744.226
153.760	13.435	969.924	743.500
154.775	13.467	968.894	742.789
155.789	13.440	968.010	741.925
156.804	13.302	967.546	740.883
157.819	13.415	966.462	740.495
158.833	13.454	965.807	740.100
159.848	13.492	964.937	739.537
160.862	13.404	964.304	738.596
161.877	13.413	962.762	737.389
162.892	13.349	962.280	736.668
163.906	13.493	961.578	736.706
164.921	13.540	960.759	736.223
165.935	13.420	959.887	734.957
166.950	13.554	958.277	734.253
167.964	13.586	957.146	733.465
168.979	13.545	955.857	732.232
169.994	13.400	955.469	731.226
171.008	13.229	954.333	729.537
172.023	13.537	952.960	729.784
173.037	13.484	952.497	729.129
174.052	13.317	951.477	727.551
175.067	13.364	950.501	726.946
176.081	13.309	949.676	726.010
177.096	13.429	948.695	725.719
178.110	13.330	947.962	724.664
179.125	13.398	947.115	724.248
180.140	13.377	946.424	723.565
181.154	13.218	945.552	722.137
182.169	13.347	944.796	722.061
183.183	13.338	944.077	721.408
184.198	13.523	943.077	721.385
185.213	13.495	942.307	720.613
186.227	13.426	941.649	719.744
187.242	13.514	941.356	719.837
188.256	13.506	940.556	719.130
189.271	13.394	940.119	718.243
190.286	13.533	938.760	717.744
191.300	13.448	938.126	716.827
192.315	13.322	937.398	715.665
193.329	13.223	936.115	714.195
194.344	13.178	935.323	713.331
195.359	13.257	934.892	713.281
196.373	13.455	934.480	713.756
197.388	13.493	934.068	713.543
198.402	13.417	933.030	712.361
199.417	13.440	932.371	711.891
200.432	13.351	932.043	711.197
201.446	13.285	931.585	710.500
202.461	13.267	931.034	709.939
203.475	13.278	930.055	709.178
204.490	13.369	928.851	708.588
205.504	12.967	928.294	706.379
206.519	13.090	927.389	706.152
207.534	13.396	926.797	706.948
208.548	13.390	926.294	706.476
209.563	13.327	925.794	705.764
210.577	13.452	925.055	705.670
211.592	13.369	924.258	704.644
212.607	13.518	923.834	704.895
213.621	13.470	922.984	703.980
214.636	13.458	922.218	703.283
215.650	13.606	921.352	703.186
216.665	13.525	921.023	702.533
217.680	13.441	920.387	701.626
218.694	13.510	919.982	701.549
219.709	13.408	919.032	700.330
220.723	13.319	918.372	699.392
221.738	13.362	917.803	699.076
222.753	13.450	916.863	698.670
223.767	13.507	916.023	698.207
224.782	13.525	915.175	697.576
225.796	13.625	913.868	696.939
226.811	13.631	913.352	696.507
227.826	13.528	913.055	695.787
228.840	13.373	911.747	694.081
229.855	13.217	911.806	693.410
230.869	13.370	910.720	693.163
231.884	13.418	909.891	692.672
232.899	13.439	909.334	692.275
233.913	13.441	909.090	692.034
234.928	13.569	907.766	691.502
235.942	13.433	907.435	690.621
236.957	13.509	906.772	690.368
237.972	13.482	905.783	689.442
238.986	13.654	904.891	689.419
240.001	13.534	904.247	688.368
241.015	13.669	903.380	688.209
242.030	13.623	902.646	687.398
243.045	13.593	901.965	686.693
244.059	13.614	901.646	686.479
245.074	13.642	900.944	685.998
246.088	13.726	899.924	685.509
247.103	13.535	899.320	684.197
248.117	13.386	898.725	683.070
249.132	13.661	897.815	683.453
250.147	13.708	897.132	683.064
251.161	13.638	896.524	682.252
252.176	13.627	895.534	681.393
253.190	13.732	894.446	680.939
254.205	13.684	894.292	680.563
255.220	13.703	893.632	680.080
256.234	13.680	892.558	679.106
257.249	13.710	892.338	679.001
258.263	13.593	891.947	678.167
259.278	13.704	891.177	677.972
260.293	13.731	890.403	677.434
261.307	13.758	889.703	676.954
262.322	13.738	888.794	676.119
263.336	13.696	887.973	675.264
264.351	13.693	887.539	674.864
265.366	13.463	886.921	673.396
266.380	13.477	886.082	672.759
267.395	13.591	885.522	672.734
268.409	13.655	884.784	672.375
269.424	13.757	884.057	672.178
270.439	13.653	883.575	671.330
271.453	13.758	882.423	670.819
272.468	13.743	881.491	669.990
273.482	13.790	880.952	669.714
274.497	13.855	879.891	669.108
275.512	13.681	879.482	668.039
276.526	13.654	878.407	667.052
277.541	13.691	877.803	666.682
278.555	13.783	877.069	666.437
279.570	13.760	876.138	665.578
280.585	13.696	875.699	664.927
281.599	13.782	874.731	664.478
282.614	13.622	874.879	663.894
283.628	13.799	873.355	663.385
284.643	13.898	872.764	663.271
285.657	13.772	872.656	662.629
286.672	13.760	871.788	661.865
287.687	13.770	871.592	661.695
288.701	13.794	870.923	661.227
289.716	13.888	870.233	661.016
290.730	13.670	869.677	659.669
291.745	13.792	869.152	659.696
292.760	13.751	868.231	658.776
293.774	13.744	867.974	658.495
294.789	13.829	867.186	658.176
295.803	13.899	866.108	657.578
296.818	13.894	865.680	657.173
297.833	13.891	864.862	656.484
298.847	13.903	864.420	656.136
299.862	13.883	863.325	655.169
300.876	13.893	862.772	654.734
301.891	13.868	862.218	654.154
302.906	13.895	861.436	653.610
303.920	13.820	860.967	652.902
304.935	13.883	859.964	652.329
305.949	13.904	859.220	651.789
306.964	13.911	858.588	651.282
307.979	13.908	858.420	651.083
308.993	13.939	857.698	650.601
310.008	13.999	856.791	650.089
311.022	14.004	855.977	649.433
312.037	13.899	855.562	648.650
313.052	13.846	855.225	648.133
314.066	14.024	854.766	648.421
315.081	13.906	854.019	647.338
316.095	13.963	853.340	646.988
317.110	13.885	852.905	646.296
318.125	13.869	852.477	645.854
319.139	13.934	851.913	645.621
320.154	14.149	851.104	645.785
321.168	14.109	850.612	645.201
322.183	14.065	849.982	644.494
323.197	13.984	849.506	643.761
324.212	14.033	848.776	643.342
325.227	14.045	848.273	642.950
326.241	14.046	847.755	642.505
327.256	13.885	847.111	641.337
328.270	14.065	846.462	641.486
329.285	14.005	845.990	640.839
330.300	14.051	845.343	640.469
331.314	14.002	844.896	639.885
332.329	14.084	844.001	639.467
333.343	14.075	843.390	638.910
334.358	14.015	842.591	638.021
335.373	14.005	842.221	637.645
336.387	14.001	842.106	637.486
337.402	13.928	841.263	636.513
338.416	14.068	840.431	636.363
339.431	13.990	840.091	635.749
340.446	14.083	839.414	635.538
341.460	14.035	838.868	634.882
342.475	14.148	837.645	634.332
343.489	14.030	837.023	633.357
344.504	14.085	836.820	633.356
345.519	14.022	836.144	632.548
346.533	13.968	835.618	631.889
347.548	14.016	835.107	631.628
348.562	14.107	834.785	631.675
349.577	14.059	834.129	630.942
350.592	13.963	833.895	630.345
351.606	14.105	833.248	630.337
352.621	14.089	832.976	630.013
353.635	14.186	832.242	629.773
354.650	14.147	831.943	629.341
355.665	14.025	831.808	628.723
356.679	14.150	831.503	628.907
357.694	14.137	831.032	628.447
358.708	14.080	830.234	627.575
359.723	14.235	829.359	627.442
360.738	14.193	828.552	626.616
361.752	14.174	827.968	626.048
362.767	14.111	827.600	625.478
363.781	14.090	827.369	625.168
364.796	14.035	826.604	624.329
365.810	14.200	826.208	624.595
366.825	14.088	825.792	623.805
367.840	14.119	825.463	623.617
368.854	14.190	824.870	623.381
369.869	14.296	824.025	623.082
370.883	14.185	823.578	622.274
371.898	14.270	823.064	622.150
372.913	14.175	822.537	621.340
373.927	14.106	821.873	620.527
374.942	14.372	821.110	620.886
375.956	14.433	820.557	620.641
376.971	14.403	819.768	619.878
377.986	14.318	819.176	619.058
379.000	14.340	818.687	618.716
380.015	14.250	818.298	618.033
381.029	14.334	817.555	617.728
382.044	14.236	817.327	617.139
383.059	14.323	816.812	617.016
384.073	14.323	816.276	616.559
385.088	14.344	815.250	615.805
386.102	14.405	815.081	615.849
387.117	14.356	814.816	615.414
388.132	14.534	814.172	615.530
389.146	14.537	814.272	615.561
390.161	14.551	813.029	614.619
391.175	14.574	812.702	614.402
392.190	14.346	812.050	613.015
393.205	14.356	812.114	613.045
394.219	14.623	811.644	613.621
395.234	14.940	811.543	614.656
396.248	15.115	810.912	614.766
397.263	14.794	810.736	613.398
398.278	14.429	810.157	611.567
399.292	14.574	809.404	611.476
400.307	14.663	809.014	611.455
401.321	14.750	808.116	611.038
402.336	14.896	807.890	611.349
403.350	14.788	807.616	610.693
404.365	14.541	807.133	609.369
405.380	14.468	806.330	608.443
406.394	14.571	805.646	608.248
407.409	14.544	805.459	607.956
408.423	14.626	804.691	607.620
409.438	14.551	804.218	606.938
410.453	14.556	803.556	606.403
411.467	14.762	803.070	606.728
412.482	14.651	803.335	606.472
413.496	14.865	802.390	606.481
414.511	14.805	802.158	606.035
415.526	14.782	801.665	605.528
416.540	14.703	801.530	605.083
417.555	14.924	800.692	605.198
418.569	14.655	800.457	603.994
419.584	14.856	799.758	604.141
420.599	14.892	799.208	603.802
421.613	150.880	1355.794	1779.634
422.628	130.870	1436.921	1779.754
