DTS Sentinel unit serial number:	SN413079Multiplexer serial number:	ORYXHardware model number:	OX4-SRSoftware version number:	ORYX F/W v4.00 Oryx Data Collector v3.7.2.0data status	okinstallation	princeton_trtdifferential loss correction	single-endedforward channel	channel 3reverse channel	N/Adate	2019/09/13time	09:20:34forward acquisition time	60.00reverse acquisition time	0.00gamma	496.2192k internal	0.2325k external	0.2325temperature offset calibration	1.0135default loss term (dB/km)	0.3790temperature slope calibration	1.0000multiplexer offset coefficient	1.0000multiplexer slope coefficient	1.0000fibre end	0.00T internal ref (°C)	29.17T ext. ref 1 (°C)	4.39T ext. ref 2 (°C)	26.28length (m)	temperature (°C)	Stokes	anti-Stokes-747.200	-71.321	-0.125	0.047
-746.185	-37.827	-0.184	0.099
-745.171	103.890	-0.227	-0.269
-744.156	17.762	0.102	-0.082
-743.142	199.462	0.148	0.229
-742.127	800.000	0.114	0.319
-741.112	800.000	0.010	-0.028
-740.098	263.809	0.095	0.167
-739.083	-20.559	0.426	0.264
-738.069	-20.982	-0.219	0.135
-737.054	103.050	0.148	-0.174
-736.039	-128.087	-0.080	-0.012
-735.025	-170.450	0.241	0.008
-734.010	76.521	-0.292	-0.313
-732.996	-200.000	-0.016	-0.139
-731.981	-175.689	-0.167	0.005
-730.966	-200.000	0.011	-0.105
-729.952	800.000	-0.017	0.066
-728.937	150.279	0.050	-0.068
-727.923	130.305	0.062	-0.080
-726.908	-35.469	0.287	0.157
-725.894	-200.000	-0.014	-0.204
-724.879	207.191	0.137	-0.216
-723.864	574.164	-0.021	0.051
-722.850	70.902	-0.148	0.155
-721.835	-115.114	-0.140	-0.027
-720.821	115.358	-0.252	-0.311
-719.806	69.828	-0.170	-0.177
-718.791	-105.493	0.285	-0.065
-717.777	-24.090	0.197	0.119
-716.762	92.412	0.062	0.071
-715.748	-71.756	0.142	-0.053
-714.733	-69.888	0.280	0.108
-713.718	-200.000	0.045	0.300
-712.704	-119.411	-0.331	0.058
-711.689	45.965	0.254	-0.236
-710.675	-37.967	-0.133	0.071
-709.660	-113.451	0.447	0.088
-708.645	76.722	0.211	-0.225
-707.631	537.807	0.092	-0.220
-706.616	115.389	-0.125	-0.154
-705.602	-200.000	0.003	-0.284
-704.587	-56.004	-0.134	-0.060
-703.572	-200.000	0.001	0.046
-702.558	-51.165	-0.262	-0.123
-701.543	746.219	0.134	-0.364
-700.529	-163.650	-0.349	-0.017
-699.514	-15.203	0.234	0.151
-698.499	800.000	0.091	0.271
-697.485	-163.725	-0.074	0.004
-696.470	142.425	-0.051	-0.069
-695.456	261.311	0.218	-0.380
-694.441	-172.430	0.303	0.010
-693.426	800.000	0.066	-0.233
-692.412	800.000	0.119	-0.355
-691.397	42.585	-0.089	0.082
-690.383	14.697	-0.230	-0.181
-689.368	-119.314	-0.172	0.030
-688.354	800.000	0.071	-0.261
-687.339	-200.000	-0.021	0.133
-686.324	-200.000	0.008	-0.446
-685.310	-70.087	0.402	0.154
-684.295	22.799	0.298	-0.246
-683.281	227.923	0.178	-0.291
-682.266	-134.087	-0.383	0.048
-681.251	-22.729	-0.423	0.257
-680.237	-123.600	-0.290	0.046
-679.222	127.599	-0.185	0.236
-678.208	112.005	-0.322	-0.392
-677.193	-174.262	-0.154	-0.004
-676.178	-200.000	0.025	0.235
-675.164	-200.000	-0.057	-0.342
-674.149	-56.206	0.360	0.161
-673.135	93.745	-0.041	0.047
-672.120	-119.153	0.081	0.014
-671.105	800.000	-0.039	-0.144
-670.091	-51.990	-0.093	-0.043
-669.076	56.723	-0.400	-0.392
-668.062	800.000	-0.097	-0.288
-667.047	-200.000	-0.003	-0.357
-666.032	0.246	0.255	-0.183
-665.018	324.816	-0.143	-0.274
-664.003	-200.000	0.030	0.314
-662.989	139.941	0.073	0.096
-661.974	11.600	-0.176	-0.136
-660.959	-136.507	0.214	0.025
-659.945	-21.321	-0.201	0.123
-658.930	275.954	-0.124	-0.221
-657.916	-200.000	-0.052	-0.394
-656.901	-28.272	-0.175	-0.102
-655.886	-200.000	0.051	-0.318
-654.872	-133.298	-0.160	0.020
-653.857	-33.059	0.079	0.044
-652.843	-200.000	-0.033	-0.155
-651.828	-43.458	0.178	0.090
-650.814	116.740	0.294	-0.362
-649.799	64.193	-0.154	0.156
-648.784	238.290	0.034	-0.057
-647.770	98.575	-0.109	-0.126
-646.755	227.634	0.111	0.181
-645.741	536.677	0.057	0.135
-644.726	-178.215	-0.362	0.009
-643.711	85.579	-0.120	0.132
-642.697	-200.000	-0.011	0.165
-641.682	-50.449	0.191	0.091
-640.668	212.041	0.135	-0.214
-639.653	-107.627	-0.307	-0.067
-638.638	-15.067	-0.091	0.059
-637.624	800.000	0.066	0.210
-636.609	483.403	-0.023	-0.054
-635.595	-200.000	0.019	-0.385
-634.580	312.979	-0.131	-0.247
-633.565	-164.109	0.210	-0.010
-632.551	-200.000	-0.016	0.459
-631.536	218.144	-0.115	0.185
-630.522	86.314	0.144	0.160
-629.507	-125.578	-0.141	-0.021
-628.492	244.888	-0.143	0.241
-627.478	-55.592	0.144	0.065
-626.463	-200.000	-0.004	0.034
-625.449	-67.383	0.205	0.081
-624.434	2.162	-0.150	0.109
-623.419	-125.077	-0.389	0.060
-622.405	316.839	0.064	0.121
-621.390	-55.044	0.193	-0.087
-620.376	259.450	0.325	-0.564
-619.361	517.822	0.115	-0.270
-618.346	158.469	-0.087	-0.121
-617.332	-105.970	-0.428	0.097
-616.317	800.000	0.118	-0.511
-615.303	109.379	-0.112	0.134
-614.288	182.884	-0.237	-0.350
-613.273	-200.000	0.010	-0.285
-612.259	35.751	0.211	0.186
-611.244	219.224	-0.218	-0.351
-610.230	54.790	0.264	0.255
-609.215	28.849	-0.164	0.140
-608.201	113.875	-0.087	-0.106
-607.186	-200.000	-0.003	0.156
-606.171	800.000	-0.046	0.189
-605.157	59.029	-0.085	-0.084
-604.142	50.903	-0.035	0.033
-603.128	-74.969	-0.206	-0.074
-602.113	118.641	-0.093	0.116
-601.098	3.903	0.207	-0.152
-600.084	-8.715	-0.144	0.097
-599.069	-28.074	-0.237	0.137
-598.055	-200.000	0.019	0.141
-597.040	73.280	0.108	-0.113
-596.025	-123.051	0.236	0.038
-595.011	47.088	-0.096	-0.090
-593.996	183.351	0.078	-0.116
-592.982	-81.363	0.103	-0.034
-591.967	-3.523	-0.247	0.172
-590.952	-1.175	0.322	0.228
-589.938	241.458	0.039	-0.065
-588.923	436.563	0.128	-0.280
-587.909	347.651	-0.170	-0.336
-586.894	34.637	0.116	0.101
-585.879	326.512	-0.193	0.371
-584.865	-32.661	0.145	-0.081
-583.850	-2.287	-0.086	-0.060
-582.836	-200.000	-0.015	0.129
-581.821	-151.427	0.430	-0.032
-580.806	73.306	0.025	0.027
-579.792	-200.000	-0.002	0.180
-578.777	-200.000	-0.005	-0.129
-577.763	-57.295	-0.016	0.007
-576.748	-111.113	0.423	0.087
-575.733	-200.000	0.051	0.000
-574.719	-31.596	-0.168	0.095
-573.704	-111.251	-0.190	0.039
-572.690	-7.554	0.057	0.039
-571.675	0.713	0.163	0.117
-570.661	55.460	-0.381	-0.370
-569.646	-200.000	-0.007	-0.066
-568.631	-12.369	-0.163	-0.107
-567.617	-200.000	0.004	-0.108
-566.602	-111.136	-0.205	0.042
-565.588	-200.000	-0.009	-0.357
-564.573	-200.000	0.049	0.255
-563.558	800.000	0.024	0.088
-562.544	-152.750	-0.378	-0.027
-561.529	-93.904	-0.103	0.028
-560.515	-200.000	-0.000	-0.111
-559.500	-179.580	-0.152	-0.003
-558.485	-97.328	0.458	-0.120
-557.471	-200.000	0.065	-0.312
-556.456	392.725	0.048	-0.100
-555.442	411.321	0.060	-0.127
-554.427	10.384	-0.073	-0.056
-553.412	800.000	-0.102	0.301
-552.398	-160.821	0.144	0.008
-551.383	-124.672	-0.224	-0.035
-550.369	-79.711	0.231	0.078
-549.354	362.498	-0.188	0.377
-548.339	4.534	-0.267	-0.196
-547.325	-200.000	-0.060	-0.273
-546.310	115.011	0.036	0.044
-545.296	171.102	0.124	-0.178
-544.281	12.796	-0.069	0.054
-543.266	-63.411	0.208	-0.085
-542.252	-200.000	-0.002	0.023
-541.237	140.324	-0.267	0.352
-540.223	363.225	0.089	0.178
-539.208	140.828	0.034	-0.045
-538.193	-113.511	-0.273	0.053
-537.179	-100.130	0.175	0.044
-536.164	-151.388	-0.242	-0.018
-535.150	-136.693	0.296	-0.034
-534.135	92.306	-0.005	-0.006
-533.121	-4.299	-0.217	-0.150
-532.106	-168.696	-0.079	0.003
-531.091	9.608	-0.114	-0.086
-530.077	10.976	0.177	-0.135
-529.062	-200.000	0.054	0.404
-528.048	-200.000	0.036	0.185
-527.033	346.787	-0.033	-0.065
-526.018	-95.896	0.136	-0.036
-525.004	-200.000	-0.030	0.145
-523.989	71.646	0.051	0.053
-522.975	-200.000	0.067	0.421
-521.960	800.000	0.108	0.391
-520.945	-84.878	-0.188	0.059
-519.931	-40.652	0.095	0.049
-518.916	-149.280	0.315	0.025
-517.902	800.000	0.058	0.244
-516.887	-169.169	0.117	-0.004
-515.872	27.288	-0.080	-0.067
-514.858	229.175	0.090	0.147
-513.843	88.062	0.206	-0.229
-512.829	-200.000	0.023	0.127
-511.814	-32.932	-0.293	-0.163
-510.799	13.388	-0.169	-0.131
-509.785	-38.398	-0.218	0.115
-508.770	218.560	-0.094	-0.151
-507.756	-97.199	-0.080	-0.021
-506.741	253.803	0.057	-0.097
-505.726	284.185	-0.047	-0.085
-504.712	174.388	-0.237	-0.343
-503.697	-27.064	-0.005	-0.003
-502.683	35.413	-0.387	-0.339
-501.668	-57.547	-0.162	0.071
-500.653	-153.514	0.436	-0.030
-499.639	-124.917	-0.114	0.018
-498.624	-1.448	0.181	-0.128
-497.610	800.000	-0.110	-0.340
-496.595	-200.000	0.016	-0.146
-495.581	-91.276	-0.291	0.083
-494.566	-200.000	0.068	0.324
-493.551	-116.376	-0.067	-0.012
-492.537	179.722	-0.070	-0.103
-491.522	-181.372	0.255	-0.005
-490.508	-200.000	0.006	-0.233
-489.493	-167.313	0.093	0.004
-488.478	-88.742	-0.298	0.088
-487.464	-21.916	-0.322	-0.195
-486.449	-118.017	-0.304	0.054
-485.435	39.430	0.256	0.229
-484.420	-109.161	0.409	0.087
-483.405	527.770	-0.095	-0.223
-482.391	-49.591	0.219	0.104
-481.376	-200.000	0.001	0.362
-480.362	-39.166	-0.105	0.055
-479.347	-93.470	-0.158	-0.044
-478.332	170.039	-0.112	-0.160
-477.318	-200.000	0.027	-0.440
-476.303	173.569	0.097	-0.140
-475.289	-15.307	0.211	-0.135
-474.274	78.902	0.155	-0.165
-473.259	104.352	-0.024	0.028
-472.245	-200.000	0.023	0.670
-471.230	115.327	-0.128	-0.156
-470.216	-200.000	-0.002	-0.194
-469.201	-200.000	-0.007	0.094
-468.186	-99.091	-0.285	-0.072
-467.172	66.241	0.053	-0.054
-466.157	51.342	0.242	-0.229
-465.143	105.391	-0.256	0.302
-464.128	-200.000	-0.000	-0.194
-463.113	-95.042	0.198	-0.053
-462.099	137.925	0.278	-0.364
-461.084	-56.574	-0.169	-0.075
-460.070	243.971	-0.057	-0.095
-459.055	-132.107	0.138	0.018
-458.040	-66.614	0.049	0.019
-457.026	-200.000	-0.010	0.178
-456.011	-62.820	0.120	-0.050
-454.997	-91.559	-0.125	-0.036
-453.982	-107.899	0.059	0.013
-452.968	-200.000	-0.043	-0.266
-451.953	-26.841	0.113	-0.066
-450.938	319.714	-0.093	-0.176
-449.924	32.698	0.298	0.257
-448.909	-87.753	-0.147	0.044
-447.895	-25.888	-0.225	-0.132
-446.880	-200.000	-0.046	0.272
-445.865	178.003	-0.244	0.354
-444.851	270.038	0.082	-0.144
-443.836	104.526	-0.071	-0.083
-442.822	-200.000	-0.001	-0.067
-441.807	-200.000	-0.011	-0.080
-440.792	42.035	0.113	-0.102
-439.778	-27.144	0.558	0.324
-438.763	159.921	0.090	-0.125
-437.749	-200.000	-0.007	0.207
-436.734	165.247	-0.099	0.140
-435.719	15.071	0.153	-0.119
-434.705	-42.043	-0.308	-0.157
-433.690	-200.000	-0.023	-0.276
-432.676	121.814	0.365	0.454
-431.661	121.911	0.191	-0.237
-430.646	-34.228	0.382	-0.209
-429.632	65.017	-0.272	-0.274
-428.617	223.723	0.121	-0.194
-427.603	72.797	0.165	0.172
-426.588	-63.549	-0.127	-0.052
-425.573	-200.000	0.020	-0.474
-424.559	243.372	-0.087	-0.145
-423.544	-14.539	0.315	0.202
-422.530	-69.002	0.056	0.022
-421.515	-161.808	0.090	0.005
-420.500	-78.047	-0.242	0.083
-419.486	58.573	0.326	-0.319
-418.471	52.440	-0.203	-0.193
-417.457	-71.874	-0.266	-0.099
-416.442	-68.120	0.270	0.105
-415.428	93.169	-0.159	0.179
-414.413	64.429	-0.283	-0.284
-413.398	75.634	-0.317	-0.334
-412.384	-139.918	-0.123	0.013
-411.369	-200.000	-0.031	-0.218
-410.355	800.000	-0.043	-0.173
-409.340	-108.137	0.334	0.072
-408.325	402.362	-0.017	-0.035
-407.311	-200.000	-0.001	-0.157
-406.296	396.874	0.064	0.133
-405.282	-35.375	0.178	-0.096
-404.267	64.622	0.242	0.243
-403.252	-87.552	-0.080	0.024
-402.238	-200.000	-0.010	0.435
-401.223	-200.000	-0.022	-0.098
-400.209	0.873	0.238	0.170
-399.194	-45.083	-0.281	-0.139
-398.179	20.932	-0.220	0.178
-397.165	-95.189	-0.052	0.014
-396.150	800.000	0.073	-0.262
-395.136	-76.883	-0.287	-0.100
-394.121	-122.416	-0.100	0.016
-393.106	800.000	0.020	0.060
-392.092	-200.000	-0.012	0.235
-391.077	210.442	-0.170	-0.265
-390.063	-200.000	-0.080	0.384
-389.048	-21.062	-0.269	-0.164
-388.033	-73.339	-0.105	-0.038
-387.019	30.099	-0.134	0.114
-386.004	47.385	0.191	-0.177
-384.990	90.231	-0.063	0.070
-383.975	380.852	0.126	-0.258
-382.960	-29.606	0.102	0.058
-381.946	605.873	0.062	-0.154
-380.931	-112.612	0.054	0.011
-379.917	-200.000	0.013	-0.086
-378.902	-200.000	-0.024	0.277
-377.888	-83.412	0.234	0.075
-376.873	-81.636	-0.323	-0.105
-375.858	223.114	-0.043	0.069
-374.844	800.000	0.103	-0.441
-373.829	-5.230	0.126	-0.086
-372.815	-4.938	-0.255	0.175
-371.800	-117.264	0.294	0.053
-370.785	-1.379	0.305	0.214
-369.771	140.139	-0.064	0.084
-368.756	25.489	-0.049	0.041
-367.742	38.154	-0.125	-0.111
-366.727	399.639	0.062	0.130
-365.712	-113.404	-0.412	0.080
-364.698	-78.452	0.042	-0.014
-363.683	-200.000	0.012	-0.109
-362.669	215.989	0.101	-0.160
-361.654	49.340	0.080	-0.075
-360.639	-93.073	0.317	0.088
-359.625	248.836	-0.046	0.078
-358.610	800.000	-0.029	0.093
-357.596	18.211	-0.257	-0.204
-356.581	428.871	0.069	0.149
-355.566	-177.828	0.153	-0.004
-354.552	-170.208	-0.263	-0.009
-353.537	84.814	0.187	0.203
-352.523	62.573	0.074	-0.073
-351.508	-107.587	0.174	-0.038
-350.493	-114.127	0.265	-0.051
-349.479	-78.424	-0.317	0.108
-348.464	-75.602	0.221	-0.078
-347.450	47.282	-0.084	-0.078
-346.435	302.651	-0.039	-0.073
-345.420	-161.126	0.148	-0.008
-344.406	-5.447	-0.282	-0.193
-343.391	454.567	0.027	0.059
-342.377	800.000	0.086	-0.265
-341.362	-9.973	0.099	-0.066
-340.348	267.284	0.169	0.294
-339.333	313.687	-0.210	0.392
-338.318	-61.614	-0.025	-0.011
-337.304	486.261	0.147	-0.332
-336.289	-43.247	-0.064	0.032
-335.275	198.262	0.124	0.189
-334.260	-92.040	-0.120	-0.034
-333.245	-19.233	-0.024	0.015
-332.231	-50.355	-0.246	0.115
-331.216	132.516	0.012	-0.015
-330.202	800.000	-0.084	-0.279
-329.187	-200.000	-0.018	-0.155
-328.172	286.576	-0.053	-0.095
-327.158	691.555	0.093	0.241
-326.143	-200.000	0.039	0.291
-325.129	-34.022	0.338	-0.185
-324.114	-109.697	-0.221	0.046
-323.099	86.589	-0.064	-0.070
-322.085	116.069	-0.060	0.072
-321.070	444.766	0.055	0.120
-320.056	-200.000	0.008	0.099
-319.041	-10.967	0.020	-0.013
-318.026	27.839	-0.198	-0.166
-317.012	-61.742	0.620	0.258
-315.997	-200.000	0.026	0.152
-314.983	59.671	0.134	-0.131
-313.968	732.872	0.096	-0.254
-312.953	0.116	-0.240	-0.170
-311.939	19.676	0.126	0.100
-310.924	-37.817	-0.247	-0.130
-309.910	-113.796	0.494	-0.095
-308.895	-133.941	0.190	-0.023
-307.880	-48.381	0.042	0.020
-306.866	104.936	-0.202	-0.236
-305.851	-45.239	0.145	0.071
-304.837	245.733	0.096	0.161
-303.822	-200.000	-0.033	-0.377
-302.807	800.000	0.069	0.227
-301.793	96.473	-0.232	-0.264
-300.778	715.984	0.051	-0.134
-299.764	-5.114	-0.129	0.088
-298.749	800.000	0.018	-0.053
-297.735	-158.964	-0.252	0.014
-296.720	-123.354	-0.326	0.052
-295.705	60.301	0.102	0.100
-294.691	113.784	-0.019	-0.022
-293.676	147.826	-0.155	0.207
-292.662	111.858	-0.021	0.025
-291.647	36.163	-0.303	0.265
-290.632	55.090	-0.061	-0.058
-289.618	83.851	0.174	0.188
-288.603	-95.009	0.199	-0.053
-287.589	-200.000	0.011	-0.201
-286.574	-28.722	-0.147	-0.084
-285.559	187.525	0.143	-0.211
-284.545	551.728	0.086	0.204
-283.530	148.402	-0.356	-0.477
-282.516	-98.331	0.204	0.052
-281.501	107.670	0.100	0.118
-280.486	-92.198	-0.397	0.111
-279.472	-40.829	-0.151	0.078
-278.457	-200.000	0.011	-0.164
-277.443	-110.989	0.156	0.032
-276.428	-200.000	-0.004	0.072
-275.413	114.998	0.087	0.105
-274.399	-200.000	0.004	-0.092
-273.384	74.416	-0.024	0.025
-272.370	-200.000	0.022	-0.099
-271.355	-51.343	-0.297	0.137
-270.340	800.000	0.044	0.125
-269.326	164.006	-0.112	-0.157
-268.311	-44.669	-0.211	0.104
-267.297	124.484	-0.229	-0.285
-266.282	-200.000	0.037	-0.483
-265.267	717.116	-0.052	0.137
-264.253	-200.000	0.063	0.295
-263.238	24.129	0.142	0.116
-262.224	73.545	0.134	0.139
-261.209	156.030	0.160	0.218
-260.195	-200.000	-0.033	-0.277
-259.180	95.848	0.055	-0.062
-258.165	-67.609	-0.176	0.068
-257.151	-36.744	0.144	0.077
-256.136	289.735	0.073	-0.131
-255.122	-107.542	0.358	-0.078
-254.107	-200.000	0.030	0.195
-253.092	-81.660	-0.200	-0.065
-252.078	239.475	-0.034	-0.056
-251.063	675.564	0.138	0.354
-250.049	242.934	0.186	0.309
-249.034	-200.000	-0.022	0.105
-248.019	800.000	-0.119	0.502
-247.005	-58.272	0.196	0.084
-245.990	-117.867	-0.344	0.061
-244.976	744.751	0.068	0.181
-243.961	90.596	-0.108	-0.120
-242.946	-200.000	-0.127	0.000
-241.932	-200.000	0.460	-0.000
-240.917	31.584	0.095	0.081
-239.903	84.074	-0.056	-0.061
-238.888	260.972	0.261	-0.447
-237.873	-200.000	0.009	-0.247
-236.859	412.443	-0.074	0.155
-235.844	-200.000	-0.024	-0.156
-234.830	-54.610	-0.224	0.100
-233.815	-8.595	0.285	0.190
-232.800	-200.000	-0.007	0.366
-231.786	-26.598	-0.219	-0.127
-230.771	-96.424	-0.088	-0.023
-229.757	800.000	0.018	-0.063
-228.742	95.768	0.275	0.311
-227.727	161.971	-0.184	-0.254
-226.713	-123.680	0.108	-0.017
-225.698	-200.000	-0.035	0.273
-224.684	251.394	0.080	-0.134
-223.669	308.884	0.098	0.181
-222.655	189.303	0.154	-0.228
-221.640	99.320	-0.048	-0.055
-220.625	-68.629	0.211	-0.081
-219.611	306.680	0.157	0.290
-218.596	-116.112	-0.189	-0.035
-217.582	-57.300	0.168	-0.073
-216.567	-42.800	-0.144	-0.073
-215.552	800.000	0.077	-0.251
-214.538	800.000	-0.101	0.275
-213.523	427.632	-0.111	0.236
-212.509	-200.000	0.041	0.269
-211.494	-120.521	0.264	0.044
-210.479	-200.000	0.014	-0.127
-209.465	-10.280	0.208	0.136
-208.450	61.436	-0.066	-0.065
-207.436	-161.152	-0.126	-0.006
-206.421	800.000	0.055	0.157
-205.406	-103.846	-0.192	0.044
-204.392	-96.560	0.306	-0.080
-203.377	379.405	-0.118	-0.239
-202.363	660.671	0.090	0.228
-201.348	-81.100	0.298	0.097
-200.333	-24.779	0.072	-0.042
-199.319	572.131	0.084	-0.203
-198.304	34.583	0.203	-0.175
-197.290	25.875	0.175	0.144
-196.275	-140.344	0.117	0.012
-195.260	517.820	0.109	0.252
-194.246	-200.000	0.005	-0.243
-193.231	800.000	-0.067	-0.278
-192.217	-15.549	-0.119	0.075
-191.202	73.717	0.036	0.037
-190.187	181.844	0.054	-0.079
-189.173	3.021	0.094	0.067
-188.158	21.403	0.174	-0.139
-187.144	302.920	-0.096	0.175
-186.129	-200.000	-0.004	0.158
-185.114	-41.600	0.117	-0.059
-184.100	-130.248	-0.189	-0.025
-183.085	-30.464	0.108	0.060
-182.071	-10.464	0.181	0.119
-181.056	-10.112	-0.174	-0.114
-180.042	-170.627	0.281	0.010
-179.027	1.465	0.172	0.122
-178.012	58.560	-0.132	-0.128
-176.998	-74.297	0.271	-0.097
-175.983	-96.031	-0.138	0.036
-174.969	-200.000	0.022	-0.173
-173.954	18.570	-0.126	-0.100
-172.939	90.791	-0.023	0.025
-171.925	361.172	0.045	0.090
-170.910	-87.139	-0.186	0.056
-169.896	105.087	0.196	0.228
-168.881	-144.582	-0.287	0.026
-167.866	-20.365	-0.429	0.261
-166.852	800.000	0.032	0.100
-165.837	-114.464	-0.420	0.080
-164.823	-200.000	-0.062	-0.407
-163.808	-146.601	0.221	0.019
-162.793	-125.495	0.060	0.009
-161.779	-200.000	0.044	-0.210
-160.764	253.952	-0.166	0.280
-159.750	-98.976	0.177	0.044
-158.735	308.129	-0.117	-0.216
-157.720	360.482	-0.194	0.383
-156.706	654.584	0.102	0.259
-155.691	-20.710	-0.170	0.103
-154.677	-157.834	0.201	0.012
-153.662	-26.500	-0.357	0.206
-152.647	52.716	0.301	0.284
-151.633	800.000	-0.152	0.492
-150.618	600.632	0.044	0.107
-149.604	-60.163	0.267	-0.112
-148.589	-135.547	0.039	-0.005
-147.574	-56.253	-0.149	0.065
-146.560	-145.909	-0.140	-0.012
-145.545	93.672	-0.144	-0.161
-144.531	-27.423	0.175	-0.100
-143.516	27.503	0.079	-0.066
-142.502	800.000	-0.100	-0.313
-141.487	-70.322	0.352	0.132
-140.472	-200.000	-0.059	-0.267
-139.458	-112.082	-0.197	-0.039
-138.443	467.996	0.148	-0.327
-137.429	-3.593	0.136	0.093
-136.414	-105.797	-0.067	0.015
-135.399	-150.334	0.331	-0.025
-134.385	281.088	0.199	0.352
-133.370	436.748	0.028	-0.060
-132.356	33.952	0.164	0.141
-131.341	87.309	0.053	0.057
-130.326	627.914	0.044	0.108
-129.312	-13.458	0.084	0.053
-128.297	800.000	0.088	-0.290
-127.283	-75.174	-0.047	-0.017
-126.268	-91.786	-0.217	-0.061
-125.253	-128.239	0.120	0.017
-124.239	-0.258	-0.345	-0.241
-123.224	-170.751	0.041	-0.001
-122.210	567.000	-0.110	0.263
-121.195	29.830	0.031	0.026
-120.180	-26.321	0.307	0.177
-119.166	800.000	-0.112	0.369
-118.151	-164.663	-0.148	0.007
-117.137	120.566	-0.077	-0.094
-116.122	800.000	0.051	0.167
-115.107	-200.000	0.004	-0.223
-114.093	-44.268	0.378	-0.186
-113.078	-200.000	0.004	0.193
-112.064	77.657	-0.048	-0.050
-111.049	800.000	-0.091	0.252
-110.034	156.813	0.183	0.249
-109.020	15.985	-0.238	0.185
-108.005	564.347	-0.083	0.197
-106.991	-77.487	-0.159	0.054
-105.976	-70.338	0.196	-0.073
-104.962	39.452	-0.178	-0.157
-103.947	349.008	0.141	-0.273
-102.932	-85.741	0.421	0.128
-101.918	176.334	-0.203	0.290
-100.903	428.058	-0.089	0.188
-99.889	-3.705	-0.179	-0.122
-98.874	-80.054	-0.134	0.044
-97.859	800.000	0.053	0.194
-96.845	-115.741	0.459	0.084
-95.830	162.457	0.139	0.192
-94.816	-200.000	-0.006	0.045
-93.801	200.860	-0.180	-0.272
-92.786	513.780	-0.018	-0.041
-91.772	-63.832	-0.095	0.038
-90.757	220.500	0.082	0.129
-89.743	229.035	-0.055	0.088
-88.728	-200.000	-0.037	-0.255
-87.713	-200.000	0.025	-0.311
-86.699	122.884	0.073	-0.090
-85.684	-178.669	-0.195	-0.004
-84.670	348.213	-0.050	0.096
-83.655	800.000	-0.069	-0.204
-82.640	-200.000	0.031	-0.147
-81.626	-47.976	-0.147	-0.070
-80.611	800.000	-0.037	0.140
-79.597	800.000	0.059	0.186
-78.582	-200.000	-0.010	-0.045
-77.567	800.000	0.092	-0.284
-76.553	800.000	-0.042	0.116
-75.538	225.725	0.081	0.128
-74.524	-13.815	0.272	0.173
-73.509	-95.830	-0.299	0.078
-72.494	421.970	0.192	-0.404
-71.480	-101.494	-0.045	-0.011
-70.465	-74.519	-0.617	0.219
-69.451	54.292	0.253	-0.239
-68.436	800.000	0.080	-0.257
-67.422	-200.000	0.004	-0.137
-66.407	-65.273	-0.371	0.147
-65.392	699.165	0.056	0.146
-64.378	49.753	0.114	0.106
-63.363	-104.897	0.273	0.062
-62.349	72.946	-0.190	0.195
-61.334	43.141	-1.131	-1.014
-60.319	-71.910	0.590	0.216
-59.305	158.417	-0.770	-1.049
-58.290	268.405	0.576	0.991
-57.276	611.524	0.747	1.834
-56.261	-200.000	105.799	587.088
-55.246	505.821	1483.636	3376.401
-54.232	177.191	2687.404	3842.006
-53.217	110.246	2193.944	2587.469
-52.203	39.591	1716.004	1510.645
-51.188	32.260	1527.262	1294.191
-50.173	29.930	1500.691	1255.838
-49.159	50.925	1555.255	1447.081
-48.144	51.075	1572.234	1463.861
-47.130	32.481	1528.849	1296.852
-46.115	29.544	1513.591	1263.795
-45.100	29.306	1510.303	1259.374
-44.086	29.276	1507.995	1257.194
-43.071	29.163	1506.216	1254.891
-42.057	29.179	1504.374	1253.413
-41.042	29.150	1503.545	1252.477
-40.027	29.206	1501.421	1251.039
-39.013	29.190	1499.658	1249.408
-37.998	29.061	1498.849	1247.810
-36.984	29.163	1497.283	1247.154
-35.969	29.154	1495.940	1245.922
-34.954	29.161	1494.667	1244.858
-33.940	29.099	1493.369	1243.309
-32.925	29.161	1491.912	1242.464
-31.911	29.215	1490.387	1241.512
-30.896	29.278	1488.767	1240.536
-29.881	29.251	1488.146	1239.788
-28.867	29.236	1486.950	1238.638
-27.852	29.199	1485.646	1237.255
-26.838	29.185	1484.196	1235.910
-25.823	29.209	1482.517	1234.618
-24.809	29.220	1480.937	1233.332
-23.794	29.191	1479.665	1232.027
-22.779	29.118	1478.837	1230.799
-21.765	29.227	1477.403	1230.287
-20.750	29.211	1476.740	1229.577
-19.736	29.238	1474.942	1228.212
-18.721	29.237	1473.923	1227.307
-17.706	29.104	1473.114	1225.702
-16.692	29.129	1472.044	1224.926
-15.677	29.232	1470.415	1224.208
-14.663	29.202	1469.598	1223.284
-13.648	29.191	1468.835	1222.525
-12.633	29.156	1468.030	1221.576
-11.619	29.184	1467.126	1220.959
-10.604	29.213	1465.880	1220.067
-9.590	29.143	1464.736	1218.601
-8.575	29.122	1464.589	1218.292
-7.560	29.139	1463.375	1217.343
-6.546	29.148	1462.274	1216.443
-5.531	29.108	1461.718	1215.667
-4.517	29.105	1460.647	1214.710
-3.502	29.164	1459.558	1214.140
-2.487	29.122	1458.513	1212.948
-1.473	29.127	1457.104	1211.761
-0.458	29.048	1456.486	1210.677
0.556	31.119	1447.259	1202.152
1.571	28.307	1421.534	1162.853
2.586	24.936	1359.485	1091.489
3.600	23.284	1277.476	1016.087
4.615	21.636	1231.683	970.452
5.629	18.678	1174.816	909.909
6.644	11.199	1091.785	808.540
7.659	5.490	1052.877	752.273
8.673	4.687	1047.752	744.704
9.688	4.399	1044.548	740.983
10.702	4.204	1042.903	738.825
11.717	4.281	1041.058	737.817
12.731	6.997	1043.877	752.691
13.746	14.753	1054.258	797.257
14.761	20.770	1061.680	831.629
15.775	22.072	1062.567	838.472
16.790	21.707	1061.185	835.568
17.804	20.665	1059.277	829.029
18.819	19.694	1057.746	823.134
19.834	19.533	1055.904	820.864
20.848	19.183	1055.500	818.811
21.863	19.260	1055.025	818.734
22.877	19.035	1054.206	816.963
23.892	18.867	1053.324	815.406
24.907	18.816	1052.299	814.298
25.921	18.765	1051.796	813.598
26.936	18.795	1050.838	812.925
27.950	18.809	1049.626	811.981
28.965	18.827	1048.867	811.411
29.980	18.822	1047.742	810.443
30.994	18.924	1046.686	810.038
32.009	19.001	1046.424	810.122
33.023	19.211	1045.485	810.312
34.038	19.245	1044.889	809.938
35.053	19.012	1043.621	807.791
36.067	18.909	1042.489	806.361
37.082	18.844	1041.747	805.407
38.096	18.931	1041.141	805.276
39.111	18.996	1040.162	804.754
40.126	19.080	1039.716	804.728
41.140	19.025	1037.753	802.883
42.155	18.664	1036.958	800.514
43.169	18.518	1035.690	798.785
44.184	18.395	1034.494	797.217
45.199	18.434	1033.043	796.208
46.213	18.339	1032.725	795.454
47.228	18.576	1032.431	796.255
48.242	18.870	1031.123	796.541
49.257	18.794	1030.406	795.564
50.271	18.913	1029.732	795.523
51.286	18.927	1028.908	794.881
52.301	18.956	1028.181	794.386
53.315	19.003	1027.197	793.770
54.330	18.851	1026.433	792.409
55.344	18.597	1025.436	790.399
56.359	18.638	1024.030	789.433
57.374	18.663	1023.571	789.125
58.388	18.574	1022.919	788.142
59.403	18.459	1021.949	786.796
60.417	18.302	1021.195	785.426
61.432	18.304	1020.545	784.868
62.447	18.292	1019.240	783.740
63.461	18.192	1018.825	782.895
64.476	18.225	1017.457	781.923
65.490	18.218	1016.418	781.024
66.505	18.145	1015.857	780.192
67.520	18.157	1015.490	779.897
68.534	18.280	1014.284	779.458
69.549	18.218	1013.676	778.642
70.563	18.258	1012.983	778.224
71.578	18.282	1012.214	777.670
72.593	18.050	1010.976	775.598
73.607	17.936	1010.688	774.791
74.622	17.885	1009.830	773.832
75.636	17.982	1008.636	773.293
76.651	18.143	1007.679	773.215
77.666	18.092	1006.921	772.336
78.680	18.120	1006.333	771.943
79.695	18.080	1006.314	771.681
80.709	18.124	1005.188	770.944
81.724	18.342	1004.462	771.305
82.739	18.468	1003.961	771.420
83.753	18.504	1003.238	770.955
84.768	18.647	1002.425	770.904
85.782	19.057	1001.967	772.326
86.797	19.285	1001.503	772.924
87.812	19.147	1000.991	771.840
88.826	18.931	1000.033	770.065
89.841	18.906	999.187	769.235
90.855	19.016	998.290	768.969
91.870	19.049	997.435	768.388
92.884	19.216	996.933	768.678
93.899	19.238	996.041	768.022
94.914	19.146	995.335	766.999
95.928	19.185	994.619	766.551
96.943	19.312	993.751	766.383
97.957	19.087	992.987	764.724
98.972	18.929	992.082	763.260
99.987	18.956	991.134	762.582
101.001	19.096	990.690	762.792
102.016	19.124	990.265	762.521
103.030	18.918	988.919	760.507
104.045	19.084	987.839	760.340
105.060	19.124	987.343	760.072
106.074	18.905	986.288	758.226
107.089	18.734	984.837	756.291
108.103	18.485	983.829	754.352
109.118	18.259	982.700	752.427
110.133	18.316	981.868	751.971
111.147	18.225	981.028	750.863
112.162	18.184	980.425	750.158
113.176	18.254	979.231	749.482
114.191	18.337	978.955	749.569
115.206	18.557	977.482	749.334
116.220	18.473	977.045	748.568
117.235	18.375	976.401	747.579
118.249	18.490	975.317	747.187
119.264	18.350	974.407	745.810
120.279	18.221	973.390	744.405
121.293	18.141	972.754	743.508
122.308	18.153	971.934	742.868
123.322	18.091	970.817	741.680
124.337	18.058	969.685	740.605
125.352	18.051	969.057	740.028
126.366	18.052	967.664	738.902
127.381	17.982	966.800	737.878
128.395	17.996	965.754	737.072
129.410	18.052	964.838	736.551
130.424	18.084	964.409	736.296
131.439	18.168	963.335	735.771
132.454	18.300	962.556	735.678
133.468	18.347	962.218	735.557
134.483	18.436	960.967	734.916
135.497	18.453	960.539	734.598
136.512	18.486	959.783	734.096
137.527	18.436	959.106	733.302
138.541	18.601	958.075	733.152
139.556	18.370	958.004	732.044
140.570	18.538	956.892	731.851
141.585	18.516	956.329	731.260
142.600	18.795	956.115	732.221
143.614	18.911	955.204	731.951
144.629	18.991	954.501	731.688
145.643	19.207	953.779	731.989
146.658	18.893	953.323	730.242
147.673	18.842	951.738	728.747
148.687	18.564	951.045	726.973
149.702	18.537	949.838	725.869
150.716	18.427	948.591	724.387
151.731	18.474	947.642	723.800
152.746	18.432	947.438	723.399
153.760	18.542	946.569	723.138
154.775	18.619	945.660	722.702
155.789	18.703	945.404	722.797
156.804	18.745	944.396	722.141
157.819	18.829	943.568	721.794
158.833	18.967	942.871	721.777
159.848	18.958	942.652	721.509
160.862	19.224	941.677	721.812
161.877	19.073	941.340	720.859
162.892	18.731	939.884	718.248
163.906	18.523	938.821	716.505
164.921	18.395	938.301	715.509
165.935	18.406	937.355	714.772
166.950	18.441	936.601	714.277
167.964	18.783	935.095	714.489
168.979	18.702	934.510	713.642
169.994	18.554	933.614	712.279
171.008	18.507	932.484	711.161
172.023	18.733	931.696	711.432
173.037	18.851	931.353	711.599
174.052	18.996	930.748	711.672
175.067	19.054	929.930	711.223
176.081	18.771	928.902	709.204
177.096	18.483	927.822	707.129
178.110	18.499	927.098	706.582
179.125	18.398	926.653	705.763
180.140	18.587	925.555	705.642
181.154	18.539	925.187	705.102
182.169	18.771	924.821	705.713
183.183	18.897	924.290	705.762
184.198	18.910	924.077	705.593
185.213	19.102	923.030	705.517
186.227	18.971	922.964	704.867
187.242	19.011	922.314	704.471
188.256	19.123	921.298	704.092
189.271	19.179	920.760	703.849
190.286	19.306	919.932	703.670
191.300	19.167	918.666	702.073
192.315	18.554	917.445	698.584
193.329	18.374	916.467	697.045
194.344	18.377	916.438	696.970
195.359	18.476	916.104	697.058
196.373	18.700	915.289	697.288
197.388	18.857	914.916	697.577
198.402	19.053	914.843	698.257
199.417	19.158	914.609	698.442
200.432	19.347	913.941	698.638
201.446	19.412	913.777	698.714
202.461	19.482	913.457	698.691
203.475	19.536	912.900	698.419
204.490	19.481	912.370	697.728
205.504	19.311	911.132	696.036
206.519	19.173	909.822	694.414
207.534	19.091	909.310	693.634
208.548	19.136	908.254	692.949
209.563	19.017	908.135	692.317
210.577	19.169	907.105	692.081
211.592	19.180	906.990	691.978
212.607	19.316	906.416	692.024
213.621	19.479	905.888	692.212
214.636	19.287	905.245	690.891
215.650	19.427	904.004	690.444
216.665	19.311	903.598	689.610
217.680	19.486	903.210	689.948
218.694	19.585	903.113	690.212
219.709	19.586	902.431	689.632
220.723	19.503	901.872	688.815
221.738	19.502	900.982	688.068
222.753	19.487	900.324	687.447
223.767	19.399	899.952	686.752
224.782	19.509	899.095	686.475
225.796	19.654	898.257	686.349
226.811	19.669	897.765	685.971
227.826	19.596	897.020	685.053
228.840	19.640	895.805	684.240
229.855	19.400	895.378	682.903
230.869	19.404	894.725	682.360
231.884	19.419	894.249	681.992
232.899	19.331	893.249	680.824
233.913	19.267	892.910	680.252
234.928	19.253	891.793	679.284
235.942	19.125	891.166	678.243
236.957	19.080	890.600	677.577
237.972	19.084	889.777	676.907
238.986	19.051	889.110	676.208
240.001	19.162	888.757	676.317
241.015	19.115	887.775	675.326
242.030	19.279	887.367	675.600
243.045	19.259	887.012	675.190
244.059	19.522	886.341	675.648
245.074	19.398	885.503	674.464
246.088	19.466	885.290	674.508
247.103	19.576	884.822	674.522
248.117	19.574	884.078	673.887
249.132	19.766	884.225	674.691
250.147	20.175	883.492	675.664
251.161	20.339	883.304	676.101
252.176	20.245	882.545	675.092
253.190	20.435	881.892	675.274
254.205	20.545	881.238	675.138
255.220	20.678	880.422	674.971
256.234	20.414	880.082	673.628
257.249	20.466	879.383	673.233
258.263	20.305	878.867	672.154
259.278	20.532	877.841	672.188
260.293	20.357	877.855	671.465
261.307	20.337	877.394	670.973
262.322	20.589	876.059	670.864
263.336	20.522	876.095	670.575
264.351	20.756	875.165	670.708
265.366	20.678	874.656	669.958
266.380	20.573	874.463	669.346
267.395	20.626	873.853	669.021
268.409	20.403	872.580	667.132
269.424	20.421	871.567	666.368
270.439	20.345	871.400	665.888
271.453	20.450	870.554	665.588
272.468	20.195	869.922	664.070
273.482	20.103	869.123	663.048
274.497	20.256	868.695	663.250
275.512	19.950	868.267	661.692
276.526	20.131	867.315	661.601
277.541	20.229	866.343	661.173
278.555	20.313	866.055	661.216
279.570	20.387	865.556	661.055
280.585	20.544	865.341	661.432
281.599	20.650	864.981	661.503
282.614	20.445	863.664	659.658
283.628	20.266	863.324	658.659
284.643	20.125	862.837	657.695
285.657	20.328	861.999	657.768
286.672	20.228	861.657	657.071
287.687	20.353	860.889	656.900
288.701	20.493	860.664	657.197
289.716	20.383	860.194	656.368
290.730	20.305	859.653	655.601
291.745	20.491	859.042	655.779
292.760	20.479	858.377	655.165
293.774	20.413	857.744	654.377
294.789	20.658	857.307	654.910
295.803	20.655	857.071	654.658
296.818	20.382	856.213	652.918
297.833	20.549	854.928	652.508
298.847	20.452	854.370	651.659
299.862	20.329	853.991	650.853
300.876	20.526	853.022	650.795
301.891	20.694	852.546	651.003
302.906	20.838	852.185	651.207
303.920	20.803	851.868	650.779
304.935	21.001	851.081	650.858
305.949	21.134	850.485	650.841
306.964	21.117	849.784	650.182
307.979	20.842	849.191	648.648
308.993	20.819	848.744	648.164
310.008	20.798	848.243	647.646
311.022	20.950	847.807	647.819
312.037	20.900	847.295	647.184
313.052	20.809	846.387	646.097
314.066	20.647	845.626	644.858
315.081	20.464	844.891	643.563
316.095	20.520	844.504	643.417
317.110	20.478	844.099	642.900
318.125	20.616	843.503	642.898
319.139	20.418	843.157	641.846
320.154	20.423	842.459	641.276
321.168	20.404	841.624	640.514
322.183	20.529	841.288	640.661
323.197	20.541	840.829	640.299
324.212	20.870	839.656	640.561
325.227	20.771	839.695	640.167
326.241	20.558	839.234	638.977
327.256	20.605	838.998	638.914
328.270	20.655	837.703	638.056
329.285	20.672	837.325	637.774
330.300	20.552	836.779	636.861
331.314	20.611	836.372	636.710
332.329	20.637	835.779	636.298
333.343	20.688	835.365	636.114
334.358	20.866	834.784	636.264
335.373	20.931	834.184	635.987
336.387	20.911	833.759	635.533
337.402	20.952	833.421	635.370
338.416	21.100	832.545	635.185
339.431	21.326	831.575	635.212
340.446	21.413	831.565	635.465
341.460	21.433	831.398	635.353
342.475	21.399	830.609	634.571
343.489	21.518	830.342	634.739
344.504	21.562	829.891	634.497
345.519	21.699	829.164	634.385
346.533	21.623	829.105	634.007
347.548	21.609	828.434	633.388
348.562	21.515	827.604	632.358
349.577	21.261	826.525	630.558
350.592	20.957	826.335	629.262
351.606	21.022	825.473	628.785
352.621	21.004	825.009	628.308
353.635	20.996	824.971	628.198
354.650	21.003	824.498	627.806
355.665	21.136	824.199	628.000
356.679	21.280	823.566	627.982
357.694	21.372	822.994	627.821
358.708	21.332	822.798	627.472
359.723	21.399	821.893	626.968
360.738	21.181	821.569	625.880
361.752	21.220	821.275	625.744
362.767	21.303	820.893	625.693
363.781	21.490	820.399	625.932
364.796	21.606	819.891	625.902
365.810	21.720	819.415	625.891
366.825	21.867	819.580	626.487
367.840	22.045	819.217	626.788
368.854	21.897	818.630	625.757
369.869	21.725	818.064	624.653
370.883	21.634	817.081	623.524
371.898	21.802	816.224	623.412
372.913	21.657	816.276	622.883
373.927	21.874	815.610	623.091
374.942	21.959	814.771	622.696
375.956	21.581	814.927	621.418
376.971	21.762	813.842	621.178
377.986	21.879	813.486	621.267
379.000	21.919	813.130	621.081
380.015	22.228	812.183	621.392
381.029	22.132	811.848	620.744
382.044	21.978	811.147	619.607
383.059	21.950	810.534	618.988
384.073	22.176	809.942	619.275
385.088	21.902	809.546	617.954
386.102	21.849	808.604	616.993
387.117	21.678	808.079	615.937
388.132	21.724	807.579	615.664
389.146	21.506	807.249	614.590
390.161	21.797	806.683	615.127
391.175	21.859	806.860	615.425
392.190	22.096	806.299	615.774
393.205	21.901	805.977	614.791
394.219	21.794	805.400	613.922
395.234	21.670	804.583	612.811
396.248	21.649	804.117	612.327
397.263	21.517	803.998	611.723
398.278	21.574	803.168	611.237
399.292	21.550	802.388	610.502
400.307	21.476	801.934	609.846
401.321	21.481	801.886	609.772
402.336	21.531	801.560	609.647
403.350	21.633	801.385	609.814
404.365	21.669	800.730	609.388
405.380	21.730	800.582	609.432
406.394	22.020	799.904	609.870
407.409	22.337	799.049	610.262
408.423	22.241	799.375	610.127
409.438	22.242	798.777	609.618
410.453	22.399	798.089	609.582
411.467	22.559	797.969	609.991
412.482	22.336	797.526	608.826
413.496	22.317	797.266	608.508
414.511	22.585	796.603	608.873
415.526	22.468	796.644	608.450
416.540	22.452	796.037	607.877
417.555	22.270	795.481	606.767
418.569	22.422	794.634	606.594
419.584	22.409	794.231	606.186
420.599	22.451	794.087	606.167
421.613	163.242	1368.727	1795.605
422.628	141.646	1452.423	1795.715
