DTS Sentinel unit serial number:	SN413079Multiplexer serial number:	ORYXHardware model number:	OX4-SRSoftware version number:	ORYX F/W v4.00 Oryx Data Collector v3.7.2.0data status	okinstallation	princeton_trtdifferential loss correction	single-endedforward channel	channel 3reverse channel	N/Adate	2019/09/15time	06:08:35forward acquisition time	60.00reverse acquisition time	0.00gamma	496.2192k internal	0.2324k external	0.2324temperature offset calibration	0.9977default loss term (dB/km)	0.3790temperature slope calibration	1.0000multiplexer offset coefficient	1.0000multiplexer slope coefficient	1.0000fibre end	0.00T internal ref (°C)	30.56T ext. ref 1 (°C)	4.82T ext. ref 2 (°C)	25.09length (m)	temperature (°C)	Stokes	anti-Stokes-747.200	14.968	-0.272	0.215
-746.185	471.128	0.145	0.329
-745.171	-38.788	-0.178	0.095
-744.156	443.112	0.139	0.307
-743.142	-90.120	-0.250	0.073
-742.127	140.926	-0.228	0.305
-741.112	316.096	0.142	-0.270
-740.098	-126.902	-0.259	0.038
-739.083	-200.000	-0.011	0.056
-738.069	-93.435	-0.293	0.082
-737.054	184.996	-0.167	-0.249
-736.039	-54.001	-0.291	0.134
-735.025	-200.000	0.451	0.002
-734.010	89.605	-0.216	-0.243
-732.996	387.478	-0.139	0.290
-731.981	-200.000	0.016	-0.181
-730.966	-83.305	0.242	0.078
-729.952	70.989	0.052	0.055
-728.937	-200.000	-0.028	-0.164
-727.923	-72.195	-0.353	-0.132
-726.908	-28.851	0.058	0.034
-725.894	-200.000	-0.067	-0.496
-724.879	-200.000	-0.032	-0.172
-723.864	-61.253	-0.148	-0.063
-722.850	455.274	-0.025	-0.055
-721.835	63.833	-0.062	0.062
-720.821	800.000	-0.134	-0.436
-719.806	173.816	-0.154	0.224
-718.791	-200.000	-0.015	-0.300
-717.777	800.000	0.033	0.107
-716.762	-200.000	-0.006	-0.336
-715.748	47.328	-0.091	0.086
-714.733	588.213	0.086	0.214
-713.718	-132.075	0.146	0.019
-712.704	800.000	-0.046	-0.154
-711.689	176.773	-0.319	0.467
-710.675	519.881	0.045	0.105
-709.660	303.885	0.124	-0.231
-708.645	-200.000	0.009	-0.354
-707.631	-55.669	-0.183	0.083
-706.616	800.000	0.034	0.143
-705.602	-58.459	0.136	-0.059
-704.587	-200.000	-0.037	0.176
-703.572	-8.283	-0.238	-0.161
-702.558	-200.000	-0.002	0.133
-701.543	-136.688	0.387	-0.045
-700.529	-97.469	-0.103	-0.027
-699.514	-200.000	-0.084	-0.391
-698.499	-144.326	-0.262	-0.025
-697.485	-200.000	-0.028	0.274
-696.470	-114.304	-0.192	0.037
-695.456	-36.865	0.544	0.294
-694.441	11.914	-0.260	-0.201
-693.426	13.454	-0.113	-0.088
-692.412	-43.011	-0.200	0.102
-691.397	118.770	0.087	0.108
-690.383	61.030	-0.445	0.444
-689.368	-41.212	-0.155	0.081
-688.354	800.000	0.107	-0.299
-687.339	-53.323	-0.158	-0.073
-686.324	118.038	-0.201	-0.250
-685.310	341.545	0.169	-0.332
-684.295	275.193	0.194	-0.346
-683.281	-200.000	-0.012	-0.057
-682.266	160.707	-0.123	-0.173
-681.251	28.498	-0.381	-0.324
-680.237	-136.249	-0.178	0.021
-679.222	203.230	-0.065	0.101
-678.208	-156.664	-0.775	0.048
-677.193	-88.652	-0.145	0.043
-676.178	54.991	-0.046	0.045
-675.164	6.783	0.442	0.331
-674.149	187.305	-0.109	0.164
-673.135	-72.669	-0.279	0.103
-672.120	-173.116	0.232	0.007
-671.105	800.000	0.032	0.125
-670.091	-123.247	0.143	0.023
-669.076	419.777	-0.077	0.165
-668.062	771.475	-0.096	0.264
-667.047	-161.516	-0.128	-0.007
-666.032	-200.000	-0.005	-0.120
-665.018	-96.708	-0.239	0.063
-664.003	-200.000	0.020	-0.153
-662.989	698.229	0.024	0.064
-661.974	-143.389	0.139	0.013
-660.959	63.727	0.146	-0.147
-659.945	50.262	0.394	-0.374
-658.930	-116.052	-0.159	-0.030
-657.916	196.470	0.018	-0.028
-656.901	441.698	0.059	0.129
-655.886	800.000	-0.026	-0.087
-654.872	306.588	-0.138	0.258
-653.857	-14.588	-0.115	-0.074
-652.843	61.407	0.150	0.150
-651.828	277.904	0.180	0.323
-650.814	-34.275	-0.328	-0.181
-649.799	402.311	-0.016	-0.034
-648.784	-200.000	-0.023	0.271
-647.770	0.496	-0.421	-0.303
-646.755	7.991	0.279	-0.210
-645.741	-127.373	0.042	-0.006
-644.726	-200.000	-0.025	-0.265
-643.711	183.109	-0.136	-0.202
-642.697	285.077	-0.159	0.287
-641.682	64.435	0.144	-0.146
-640.668	-49.412	0.075	-0.036
-639.653	323.085	-0.088	0.168
-638.638	490.213	0.128	-0.294
-637.624	-135.520	-0.237	-0.028
-636.609	800.000	0.021	-0.088
-635.595	-103.354	-0.067	-0.016
-634.580	358.757	0.031	0.063
-633.565	-107.530	-0.130	-0.029
-632.551	-200.000	0.014	-0.205
-631.536	8.111	-0.124	-0.094
-630.522	-200.000	0.035	0.191
-629.507	-200.000	0.003	0.108
-628.492	69.881	0.136	-0.141
-627.478	-200.000	-0.015	-0.200
-626.463	207.935	-0.107	-0.168
-625.449	13.059	-0.125	-0.097
-624.434	132.503	-0.089	0.115
-623.419	-90.853	-0.085	-0.025
-622.405	-94.502	-0.061	-0.017
-621.390	42.293	-0.307	-0.280
-620.376	1.493	-0.118	0.085
-619.361	-194.254	-0.087	-0.001
-618.346	-155.765	-0.256	-0.016
-617.332	-200.000	0.014	0.137
-616.317	33.331	-0.218	0.190
-615.303	219.406	0.166	0.266
-614.288	10.300	0.049	-0.038
-613.273	-50.488	0.300	0.142
-612.259	151.214	0.046	0.063
-611.244	228.525	-0.159	-0.261
-610.230	103.746	0.110	-0.129
-609.215	366.247	-0.004	0.007
-608.201	-122.449	0.188	0.031
-607.186	-105.138	0.040	-0.009
-606.171	-200.000	0.017	-0.367
-605.157	-29.812	0.250	0.143
-604.142	-76.057	0.138	0.049
-603.128	-200.000	0.022	-0.320
-602.113	103.639	0.128	-0.150
-601.098	800.000	0.092	-0.280
-600.084	439.380	-0.150	-0.329
-599.069	-96.555	0.213	0.056
-598.055	-18.836	0.252	0.157
-597.040	-103.827	-0.186	0.044
-596.025	-61.584	-0.193	-0.081
-595.011	56.606	-0.189	-0.185
-593.996	287.397	-0.117	0.212
-592.982	-10.058	-0.024	0.016
-591.967	-145.421	0.096	0.009
-590.952	-127.779	-0.118	-0.017
-589.938	-37.358	0.296	0.159
-588.923	-22.474	0.197	-0.120
-587.909	77.699	-0.052	-0.055
-586.894	-103.395	0.296	-0.070
-585.879	253.450	-0.113	0.194
-584.865	-78.567	-0.302	0.104
-583.850	14.982	-0.187	-0.147
-582.836	-200.000	0.017	-0.274
-581.821	-91.426	0.181	-0.052
-580.806	6.338	0.112	0.083
-579.792	-148.468	0.111	-0.009
-578.777	-172.811	0.317	-0.010
-577.763	-200.000	0.004	0.030
-576.748	-2.327	-0.203	0.143
-575.733	-120.171	0.207	-0.035
-574.719	800.000	0.108	-0.333
-573.704	-29.049	0.091	0.052
-572.690	-45.188	-0.138	-0.069
-571.675	102.371	-0.029	-0.034
-570.661	241.697	-0.062	-0.104
-569.646	-126.707	-0.324	-0.048
-568.631	-200.000	0.027	-0.249
-567.617	800.000	-0.049	-0.156
-566.602	-23.668	-0.139	0.084
-565.588	-40.193	-0.182	-0.095
-564.573	-21.545	-0.369	-0.226
-563.558	37.051	0.366	0.325
-562.544	215.727	0.212	-0.337
-561.529	800.000	0.071	0.234
-560.515	-16.737	0.244	0.155
-559.500	800.000	-0.058	0.183
-558.485	159.719	-0.173	-0.241
-557.471	-5.510	-0.304	0.209
-556.456	35.483	-0.230	-0.203
-555.442	29.665	0.062	-0.053
-554.427	112.942	0.207	-0.252
-553.412	-200.000	-0.010	0.134
-552.398	-44.353	-0.313	0.157
-551.383	-35.440	-0.223	0.121
-550.369	-72.787	-0.125	0.046
-549.354	-200.000	0.020	-0.118
-548.339	-87.461	-0.183	-0.056
-547.325	76.123	-0.226	0.240
-546.310	-47.562	0.119	-0.058
-545.296	443.159	0.035	-0.077
-544.281	800.000	-0.052	0.155
-543.266	-46.893	0.240	0.117
-542.252	-83.936	0.290	-0.092
-541.237	-200.000	-0.026	-0.226
-540.223	800.000	0.092	-0.369
-539.208	-92.369	-0.720	0.203
-538.193	20.019	0.169	0.136
-537.179	-200.000	-0.076	0.351
-536.164	157.059	-0.308	-0.427
-535.150	-120.152	0.140	-0.024
-534.135	800.000	-0.036	-0.117
-533.121	-200.000	0.080	0.425
-532.106	-13.627	-0.146	-0.094
-531.091	-200.000	0.000	-0.178
-530.077	-88.685	0.216	0.064
-529.062	358.703	-0.084	0.168
-528.048	118.924	0.257	-0.318
-527.033	-25.612	-0.134	0.079
-526.018	-134.990	-0.434	-0.052
-525.004	800.000	-0.069	0.221
-523.989	-188.613	-0.159	0.002
-522.975	25.670	-0.080	-0.067
-521.960	-200.000	0.002	-0.037
-520.945	-200.000	0.033	0.294
-519.931	42.281	-0.191	-0.174
-518.916	-200.000	0.039	-0.334
-517.902	-108.999	0.145	0.031
-516.887	361.400	0.100	0.201
-515.872	-117.923	0.423	-0.076
-514.858	134.574	-0.074	-0.096
-513.843	-200.000	-0.047	-0.293
-512.829	-62.120	0.085	0.036
-511.814	-200.000	0.040	0.227
-510.799	-200.000	0.027	0.193
-509.785	-38.116	0.248	0.131
-508.770	-34.963	-0.125	0.068
-507.756	-200.000	-0.048	0.221
-506.741	-200.000	-0.024	-0.160
-505.726	118.519	0.118	0.146
-504.712	-39.083	0.361	0.190
-503.697	-200.000	0.009	-0.065
-502.683	-119.561	0.306	0.053
-501.668	-116.842	0.249	-0.046
-500.653	-18.742	-0.277	-0.172
-499.639	-45.267	-0.237	0.117
-498.624	-140.190	-0.065	-0.007
-497.610	-1.913	-0.120	0.084
-496.595	40.626	-0.090	-0.081
-495.581	-200.000	0.053	0.350
-494.566	-51.591	0.189	0.088
-493.551	167.931	0.153	0.218
-492.537	-143.658	-0.182	0.017
-491.522	-167.402	0.180	-0.007
-490.508	212.790	-0.105	-0.165
-489.493	-200.000	0.004	-0.075
-488.478	17.362	0.136	-0.108
-487.464	-122.003	-0.272	0.045
-486.449	-114.502	0.137	-0.026
-485.435	-77.170	-0.005	-0.002
-484.420	-62.096	-0.157	0.065
-483.405	-66.728	0.180	-0.071
-482.391	800.000	-0.059	-0.220
-481.376	-125.226	0.374	-0.057
-480.362	371.426	0.015	0.030
-479.347	20.201	-0.032	0.026
-478.332	65.462	0.127	-0.128
-477.318	361.735	0.064	-0.127
-476.303	-176.449	0.237	0.006
-475.289	-77.031	-0.181	0.063
-474.274	346.656	-0.142	0.278
-473.259	800.000	0.057	-0.184
-472.245	284.527	0.036	-0.064
-471.230	-200.000	-0.030	0.172
-470.216	-200.000	0.025	-0.146
-469.201	-18.570	-0.344	0.214
-468.186	505.168	0.111	0.256
-467.172	-81.726	0.160	-0.052
-466.157	-126.974	0.312	0.046
-465.143	539.617	-0.078	0.185
-464.128	-30.180	-0.304	-0.173
-463.113	38.228	-0.174	0.155
-462.099	-200.000	-0.017	-0.144
-461.084	-128.036	-0.320	-0.046
-460.070	-162.141	0.298	-0.015
-459.055	65.652	-0.193	0.195
-458.040	694.499	-0.057	-0.148
-457.026	-200.000	0.014	0.260
-456.011	310.189	-0.064	-0.119
-454.997	-57.699	-0.155	-0.068
-453.982	-35.529	0.194	0.105
-452.968	-200.000	-0.018	0.316
-451.953	111.649	-0.150	-0.181
-450.938	591.432	0.085	0.210
-449.924	321.033	0.149	-0.283
-448.909	186.110	0.186	0.277
-447.895	800.000	0.031	-0.088
-446.880	80.880	-0.154	-0.165
-445.865	800.000	0.088	-0.324
-444.851	-200.000	-0.053	0.236
-443.836	238.911	-0.145	0.241
-442.822	-14.724	0.161	0.103
-441.807	-8.178	0.099	0.067
-440.792	-97.674	-0.180	0.046
-439.778	-64.309	-0.083	-0.034
-438.763	-1.125	-0.408	-0.288
-437.749	800.000	-0.051	0.144
-436.734	770.475	-0.054	0.147
-435.719	-200.000	0.002	-0.180
-434.705	446.336	0.066	0.145
-433.690	-200.000	0.014	-0.131
-432.676	800.000	0.052	0.146
-431.661	-138.386	0.181	0.020
-430.646	-200.000	-0.002	-0.120
-429.632	-200.000	-0.005	-0.222
-428.617	293.393	0.068	0.123
-427.603	-88.662	0.469	0.139
-426.588	648.968	-0.123	-0.314
-425.573	-200.000	0.010	0.085
-424.559	-91.300	-0.143	-0.041
-423.544	-197.389	0.183	-0.001
-422.530	-176.965	-0.288	-0.007
-421.515	-200.000	-0.004	-0.084
-420.500	591.177	-0.084	0.206
-419.486	546.961	0.015	0.037
-418.471	-77.203	-0.274	0.095
-417.457	550.126	0.032	-0.077
-416.442	365.371	-0.164	-0.329
-415.428	-125.739	-0.213	-0.032
-414.413	800.000	0.101	-0.368
-413.398	800.000	0.045	-0.140
-412.384	-47.628	0.134	0.065
-411.369	209.933	-0.170	-0.266
-410.355	-22.280	-0.138	-0.084
-409.340	-110.219	0.047	0.010
-408.325	-200.000	0.056	-0.355
-407.311	-21.849	-0.187	0.113
-406.296	689.143	0.103	0.268
-405.282	-129.503	0.045	-0.006
-404.267	464.591	-0.071	-0.159
-403.252	-200.000	-0.030	-0.230
-402.238	-200.000	-0.024	0.192
-401.223	59.673	-0.123	0.121
-400.209	64.939	0.226	-0.227
-399.194	250.051	-0.075	-0.126
-398.179	574.126	0.072	0.175
-397.165	800.000	0.001	0.002
-396.150	44.161	0.139	0.127
-395.136	-121.272	-0.185	0.031
-394.121	-153.380	-0.137	-0.009
-393.106	-0.781	-0.035	0.025
-392.092	-72.630	0.170	0.062
-391.077	-200.000	0.091	-0.434
-390.063	190.937	-0.109	-0.163
-389.048	-72.611	0.211	-0.077
-388.033	-152.590	-0.353	0.025
-387.019	-71.968	0.167	-0.062
-386.004	-200.000	0.013	0.110
-384.990	85.126	-0.292	0.319
-383.975	-132.619	-0.093	-0.012
-382.960	247.613	-0.080	0.135
-381.946	123.509	0.134	-0.168
-380.931	782.086	-0.036	0.098
-379.917	-93.680	-0.122	0.034
-378.902	800.000	0.019	0.075
-377.888	36.790	0.186	-0.164
-376.873	-66.253	0.255	-0.101
-375.858	-179.707	0.008	0.000
-374.844	-66.886	-0.175	-0.069
-373.829	-93.290	-0.230	0.063
-372.815	800.000	0.055	0.208
-371.800	-97.454	0.306	0.079
-370.785	-39.801	0.121	0.063
-369.771	-9.037	0.227	0.151
-368.756	800.000	0.063	0.204
-367.742	-69.623	-0.264	0.100
-366.727	-200.000	-0.069	-0.312
-365.712	784.204	-0.086	-0.235
-364.698	800.000	-0.040	0.154
-363.683	73.712	-0.222	-0.231
-362.669	-63.959	-0.124	-0.050
-361.654	-114.157	-0.223	0.043
-360.639	113.016	0.114	-0.138
-359.625	-11.497	-0.013	-0.008
-358.610	800.000	-0.015	-0.044
-357.596	-29.405	0.354	0.201
-356.581	-40.633	-0.065	-0.034
-355.566	117.363	-0.235	-0.287
-354.552	211.192	-0.043	-0.068
-353.537	-92.861	-0.274	-0.076
-352.523	-167.786	0.224	0.009
-351.508	-141.329	-0.084	0.008
-350.493	85.532	0.065	0.071
-349.479	-200.000	-0.002	-0.117
-348.464	73.556	0.288	-0.300
-347.450	-200.000	0.002	0.175
-346.435	458.184	-0.094	-0.207
-345.420	428.801	0.045	0.097
-344.406	-200.000	-0.019	0.222
-343.391	-200.000	-0.017	0.128
-342.377	-200.000	0.017	-0.081
-341.362	209.748	0.133	-0.207
-340.348	-109.756	0.071	-0.015
-339.333	-185.462	-0.129	0.002
-338.318	-200.000	-0.082	0.377
-337.304	-200.000	0.041	0.460
-336.289	-200.000	-0.029	0.236
-335.275	800.000	0.182	-0.508
-334.260	-99.980	-0.122	-0.030
-333.245	-59.426	-0.172	-0.073
-332.231	142.730	0.100	0.132
-331.216	43.222	0.126	0.114
-330.202	37.704	-0.171	0.151
-329.187	-28.897	-0.049	-0.028
-328.172	480.459	-0.114	0.257
-327.158	253.555	-0.081	-0.137
-326.143	328.787	0.068	-0.129
-325.129	-200.000	-0.038	-0.376
-324.114	-200.000	0.046	0.320
-323.099	114.690	-0.072	-0.087
-322.085	-162.965	-0.309	0.015
-321.070	800.000	0.014	0.054
-320.056	114.880	-0.136	-0.165
-319.041	288.058	0.059	0.106
-318.026	-200.000	-0.019	-0.330
-317.012	-66.658	-0.080	-0.031
-315.997	-73.946	-0.267	-0.096
-314.983	132.761	0.184	-0.236
-313.968	15.988	-0.101	-0.079
-312.953	-200.000	-0.007	0.140
-311.939	-99.261	0.324	-0.081
-310.924	120.229	0.203	-0.250
-309.910	-191.746	0.298	-0.003
-308.895	217.180	-0.090	0.143
-307.880	-48.527	-0.231	-0.110
-306.866	36.678	0.373	0.327
-305.851	319.267	-0.034	0.064
-304.837	66.834	-0.241	0.243
-303.822	800.000	-0.025	0.094
-302.807	-142.106	0.112	0.011
-301.793	124.349	-0.123	0.154
-300.778	-200.000	-0.015	-0.141
-299.764	800.000	-0.035	-0.141
-298.749	240.335	0.066	0.109
-297.735	-106.926	0.159	-0.035
-296.720	-1.847	0.042	0.029
-295.705	-200.000	-0.130	0.595
-294.691	103.067	0.184	0.214
-293.676	-200.000	-0.072	0.000
-292.662	300.739	-0.075	-0.137
-291.647	-83.665	-0.282	-0.089
-290.632	-128.251	0.307	-0.043
-289.618	-66.214	-0.212	-0.084
-288.603	-168.070	-0.162	0.006
-287.589	20.482	0.058	-0.047
-286.574	-108.698	-0.388	0.083
-285.559	800.000	0.021	0.065
-284.545	316.069	-0.081	-0.151
-283.530	-44.391	0.387	-0.192
-282.516	752.619	-0.039	-0.106
-281.501	-119.151	0.163	-0.028
-280.486	-200.000	-0.025	-0.138
-279.472	-1.082	0.195	-0.137
-278.457	-111.320	0.185	-0.037
-277.443	-2.565	0.155	0.107
-276.428	-200.000	-0.020	-0.408
-275.413	66.032	0.190	0.191
-274.399	-114.549	0.366	-0.070
-273.384	-134.674	0.215	-0.026
-272.370	800.000	0.071	0.224
-271.355	3.663	-0.106	0.076
-270.340	-200.000	-0.018	-0.112
-269.326	-26.645	-0.356	0.207
-268.311	-169.064	0.108	-0.004
-267.297	-200.000	-0.023	-0.132
-266.282	569.645	-0.053	0.127
-265.267	462.632	0.190	-0.421
-264.253	-100.939	0.178	-0.043
-263.238	-71.586	0.544	0.201
-262.224	-3.104	0.191	-0.132
-261.209	39.869	0.180	-0.160
-260.195	233.917	0.069	-0.113
-259.180	19.183	0.228	-0.181
-258.165	-96.135	-0.405	0.106
-257.151	-14.290	-0.140	0.089
-256.136	2.561	-0.173	0.124
-255.122	-32.253	0.172	0.095
-254.107	-6.100	0.145	0.098
-253.092	-17.611	0.132	0.082
-252.078	-3.170	0.119	0.082
-251.063	-20.042	-0.238	0.145
-250.049	503.615	0.112	0.256
-249.034	-63.823	0.268	0.109
-248.019	169.889	0.046	-0.065
-247.005	2.960	-0.101	0.072
-245.990	-200.000	0.094	0.586
-244.976	-53.667	-0.046	-0.021
-243.961	-200.000	-0.009	0.333
-242.946	401.092	-0.147	0.305
-241.932	-105.304	0.237	0.053
-240.917	-200.000	0.036	0.258
-239.903	-200.000	0.049	0.289
-238.888	29.441	-0.213	0.180
-237.873	167.326	0.074	0.104
-236.859	582.978	0.059	0.144
-235.844	46.391	-0.174	0.160
-234.830	-157.910	-0.349	-0.020
-233.815	-81.039	-0.294	-0.096
-232.800	90.850	-0.159	0.176
-231.786	-200.000	0.027	-0.135
-230.771	-96.149	0.186	-0.049
-229.757	157.857	0.096	-0.131
-228.742	222.427	0.146	-0.233
-227.727	-200.000	-0.013	0.355
-226.713	194.449	0.179	-0.269
-225.698	-23.372	0.020	-0.012
-224.684	-141.192	0.064	0.006
-223.669	-32.092	-0.188	-0.104
-222.655	-40.613	0.121	-0.062
-221.640	800.000	-0.074	-0.312
-220.625	800.000	0.073	0.251
-219.611	-200.000	0.003	0.664
-218.596	-109.361	-0.160	-0.033
-217.582	328.223	-0.142	-0.269
-216.567	762.629	0.064	0.172
-215.552	-78.556	-0.235	-0.080
-214.538	800.000	-0.080	0.283
-213.523	800.000	0.091	0.328
-212.509	800.000	0.038	0.146
-211.494	-134.479	0.224	-0.027
-210.479	-15.901	-0.042	0.026
-209.465	205.322	0.122	-0.187
-208.450	306.612	0.045	0.083
-207.436	-112.210	0.056	0.011
-206.421	37.921	-0.034	-0.030
-205.406	177.249	0.054	-0.077
-204.392	-134.601	-0.375	0.045
-203.377	587.796	0.058	-0.142
-202.363	-50.240	-0.201	-0.094
-201.348	-47.215	0.212	0.102
-200.333	-169.896	0.274	0.010
-199.319	-5.625	0.146	-0.099
-198.304	-44.335	-0.283	0.140
-197.290	-49.170	0.447	0.211
-196.275	-137.477	-0.277	-0.031
-195.260	-108.562	-0.278	0.059
-194.246	-28.778	-0.065	-0.037
-193.231	-164.978	-0.028	0.001
-192.217	-97.306	-0.309	0.080
-191.202	800.000	0.043	0.139
-190.187	-200.000	-0.041	-0.278
-189.173	-127.656	0.163	0.023
-188.158	62.047	0.191	-0.188
-187.144	800.000	0.061	0.233
-186.129	-86.295	0.307	-0.093
-185.114	-10.979	0.147	0.096
-184.100	85.533	-0.075	-0.082
-183.085	-200.000	-0.012	-0.145
-182.071	762.757	0.048	-0.128
-181.056	115.832	-0.056	0.068
-180.042	781.475	-0.057	0.153
-179.027	-117.957	0.171	0.030
-178.012	-111.624	0.090	0.018
-176.998	-129.733	0.162	-0.022
-175.983	-177.895	-0.174	-0.004
-174.969	-78.445	0.106	0.036
-173.954	83.333	-0.191	0.205
-172.939	282.676	0.106	0.187
-171.925	-200.000	0.020	-0.128
-170.910	182.048	0.258	0.375
-169.896	126.861	-0.190	-0.238
-168.881	375.450	0.157	0.315
-167.866	-45.392	-0.170	0.083
-166.852	-118.656	0.321	-0.056
-165.837	800.000	0.130	-0.468
-164.823	81.104	-0.260	0.276
-163.808	122.846	0.181	-0.223
-162.793	280.911	-0.051	0.090
-161.779	800.000	0.065	-0.190
-160.764	-109.355	0.207	-0.043
-159.750	218.411	-0.138	0.218
-158.735	-42.185	0.144	-0.073
-157.720	-8.975	0.103	-0.068
-156.706	740.549	-0.065	0.172
-155.691	800.000	0.087	-0.325
-154.677	541.481	-0.029	0.068
-153.662	82.301	-0.018	0.019
-152.647	85.063	0.077	-0.084
-151.633	-72.262	-0.230	0.084
-150.618	-200.000	0.009	0.230
-149.604	-200.000	0.002	0.014
-148.589	-109.275	0.165	0.034
-147.574	-200.000	0.023	0.130
-146.560	239.767	0.043	0.070
-145.545	-21.705	0.181	-0.109
-144.531	328.117	-0.078	0.148
-143.516	-84.521	0.157	-0.049
-142.502	-102.973	0.142	0.033
-141.487	-18.012	0.183	-0.113
-140.472	-163.793	-0.287	0.013
-139.458	-200.000	0.059	0.316
-138.443	-200.000	0.017	0.181
-137.429	-128.800	-0.146	-0.020
-136.414	-148.058	0.122	0.010
-135.399	42.373	-0.134	-0.120
-134.385	619.260	0.068	0.169
-133.370	486.174	0.068	0.154
-132.356	54.478	-0.031	0.030
-131.341	49.673	0.085	0.079
-130.326	149.760	-0.116	0.155
-129.312	-200.000	0.089	0.463
-128.297	252.415	0.030	0.050
-127.283	53.749	-0.260	0.246
-126.268	-19.532	-0.034	0.021
-125.253	-200.000	-0.011	0.195
-124.239	-200.000	-0.017	0.376
-123.224	19.856	-0.020	0.016
-122.210	-70.605	-0.251	0.094
-121.195	34.821	0.346	0.298
-120.180	-60.271	0.401	0.168
-119.166	199.645	0.084	-0.127
-118.151	-124.175	0.314	-0.048
-117.137	18.496	0.239	0.188
-116.122	-80.545	-0.126	0.041
-115.107	-56.125	-0.034	0.015
-114.093	-136.982	0.201	-0.023
-113.078	1.385	0.176	-0.124
-112.064	29.738	0.362	0.303
-111.049	327.275	-0.154	0.291
-110.034	100.758	-0.156	0.178
-109.020	-118.180	0.316	-0.055
-108.005	-76.952	0.319	0.110
-106.991	-200.000	-0.004	0.346
-105.976	227.199	0.085	-0.136
-104.962	479.147	-0.075	-0.167
-103.947	-112.141	-0.263	-0.052
-102.932	122.744	0.119	0.147
-101.918	-85.831	-0.078	-0.024
-100.903	-90.290	0.358	0.102
-99.889	637.905	0.028	-0.069
-98.874	800.000	0.032	0.089
-97.859	584.878	-0.015	0.037
-96.845	402.085	0.131	-0.271
-95.830	108.789	-0.269	0.317
-94.816	-200.000	0.021	-0.277
-93.801	-169.247	0.168	0.006
-92.786	403.268	-0.166	0.345
-91.772	142.500	-0.070	-0.092
-90.757	4.429	0.037	0.027
-89.743	126.082	0.122	0.151
-88.728	-111.793	-0.259	-0.052
-87.713	-136.742	0.362	-0.041
-86.699	-4.603	0.052	0.036
-85.684	-200.000	-0.010	-0.119
-84.670	-132.800	-0.302	-0.038
-83.655	337.607	-0.113	0.216
-82.640	256.883	0.148	0.249
-81.626	-177.282	-0.209	0.005
-80.611	-200.000	0.047	0.316
-79.597	-165.525	0.370	-0.016
-78.582	-139.001	-0.092	0.010
-77.567	-118.542	-0.243	-0.042
-76.553	14.295	-0.178	0.136
-75.538	-50.116	0.079	-0.037
-74.524	-152.603	0.263	-0.019
-73.509	586.383	-0.093	0.224
-72.494	-112.951	-0.138	0.027
-71.480	-200.000	0.003	0.171
-70.465	-9.360	-0.262	-0.172
-69.451	-103.191	-0.025	-0.006
-68.436	-200.000	-0.005	0.046
-67.422	-152.256	0.582	-0.041
-66.407	-159.012	0.150	0.008
-65.392	177.601	-0.073	-0.105
-64.378	800.000	-0.063	-0.191
-63.363	-70.750	-0.165	0.061
-62.349	155.273	0.132	0.178
-61.334	31.233	-1.026	-0.866
-60.319	-74.519	0.552	0.195
-59.305	-200.000	-0.056	-0.865
-58.290	219.102	0.588	0.924
-57.276	800.000	0.511	1.602
-56.261	-200.000	102.988	589.774
-55.246	551.960	1437.223	3391.074
-54.232	186.463	2627.317	3842.446
-53.217	115.738	2168.664	2606.136
-52.203	41.321	1697.341	1508.064
-51.188	33.607	1506.908	1286.729
-50.173	31.270	1480.138	1248.220
-49.159	52.224	1533.485	1436.290
-48.144	53.024	1550.863	1457.952
-47.130	33.971	1507.602	1289.588
-46.115	30.802	1493.101	1255.802
-45.100	30.702	1489.469	1252.022
-44.086	30.684	1487.342	1250.063
-43.071	30.638	1485.232	1247.934
-42.057	30.546	1483.981	1246.216
-41.042	30.548	1482.478	1244.913
-40.027	30.546	1481.058	1243.657
-39.013	30.513	1479.563	1242.132
-37.998	30.545	1478.484	1241.395
-36.984	30.483	1477.225	1239.871
-35.969	30.513	1475.485	1238.565
-34.954	30.477	1474.146	1237.153
-33.940	30.465	1473.111	1236.156
-32.925	30.604	1471.548	1235.713
-31.911	30.669	1470.016	1234.815
-30.896	30.712	1469.019	1234.210
-29.881	30.689	1467.621	1232.834
-28.867	30.632	1466.337	1231.333
-27.852	30.610	1464.966	1229.984
-26.838	30.671	1463.364	1228.994
-25.823	30.725	1461.989	1228.145
-24.809	30.593	1460.727	1226.167
-23.794	30.594	1459.067	1224.735
-22.779	30.573	1458.120	1223.751
-21.765	30.621	1456.995	1223.070
-20.750	30.569	1456.036	1221.880
-19.736	30.538	1455.091	1220.832
-18.721	30.554	1453.922	1219.907
-17.706	30.625	1452.294	1218.957
-16.692	30.565	1451.176	1217.577
-15.677	30.537	1450.063	1216.417
-14.663	30.536	1449.287	1215.707
-13.648	30.466	1448.840	1214.828
-12.633	30.587	1447.583	1214.519
-11.619	30.512	1446.895	1213.401
-10.604	30.512	1445.840	1212.465
-9.590	30.569	1444.996	1212.086
-8.575	30.476	1444.251	1210.804
-7.560	30.565	1443.382	1210.611
-6.546	30.578	1441.896	1209.400
-5.531	30.473	1442.225	1208.941
-4.517	30.513	1441.088	1208.202
-3.502	30.578	1439.476	1207.223
-2.487	30.585	1438.649	1206.529
-1.473	30.594	1437.499	1205.577
-0.458	30.573	1436.017	1204.147
0.556	29.332	1426.868	1192.999
1.571	26.463	1402.104	1153.925
2.586	23.013	1344.257	1085.079
3.600	21.241	1264.462	1010.335
4.615	20.062	1218.497	966.950
5.629	17.638	1163.128	909.998
6.644	10.767	1082.326	812.453
7.659	5.615	1044.308	758.928
8.673	4.933	1038.803	751.575
9.688	4.855	1036.044	749.137
10.702	4.773	1034.209	747.350
11.717	4.739	1032.282	745.725
12.731	6.711	1033.469	755.973
13.746	13.081	1042.730	793.374
14.761	18.132	1048.295	821.880
15.775	18.408	1047.796	822.740
16.790	17.430	1046.088	816.636
17.804	16.357	1043.736	809.585
18.819	15.477	1042.049	803.991
19.834	14.958	1040.805	800.482
20.848	14.787	1039.740	798.774
21.863	14.560	1038.670	796.794
22.877	14.302	1038.282	795.197
23.892	14.190	1037.474	793.971
24.907	14.117	1036.530	792.833
25.921	14.068	1035.710	791.900
26.936	14.036	1035.085	791.202
27.950	14.081	1033.991	790.510
28.965	14.197	1032.777	790.062
29.980	14.288	1031.624	789.543
30.994	14.284	1030.686	788.735
32.009	14.424	1029.635	788.520
33.023	14.420	1029.329	788.200
34.038	14.478	1027.870	787.286
35.053	14.245	1027.460	785.805
36.067	14.259	1026.080	784.746
37.082	14.240	1025.207	783.916
38.096	14.201	1025.010	783.512
39.111	14.247	1023.843	782.771
40.126	14.399	1022.655	782.506
41.140	14.197	1021.987	780.976
42.155	14.177	1020.275	779.508
43.169	14.036	1019.409	778.113
44.184	14.001	1018.671	777.319
45.199	13.968	1017.436	776.155
46.213	13.868	1016.783	775.120
47.228	13.981	1015.899	774.904
48.242	14.153	1015.074	775.010
49.257	14.224	1013.868	774.352
50.271	14.201	1013.133	773.613
51.286	14.085	1012.259	772.338
52.301	14.385	1010.922	772.641
53.315	14.303	1010.590	771.936
54.330	14.135	1010.133	770.745
55.344	14.025	1008.930	769.246
56.359	13.998	1007.864	768.244
57.374	14.053	1007.008	767.774
58.388	14.023	1006.073	766.857
59.403	13.871	1005.504	765.654
60.417	13.998	1004.497	765.404
61.432	14.016	1004.045	765.073
62.447	13.949	1003.141	764.011
63.461	14.001	1002.183	763.453
64.476	13.784	1001.662	761.993
65.490	13.813	1000.773	761.381
66.505	13.868	999.800	760.826
67.520	13.932	998.826	760.311
68.534	13.871	998.370	759.614
69.549	13.908	997.327	758.926
70.563	13.951	996.562	758.472
71.578	13.948	996.162	758.087
72.593	13.739	995.014	756.194
73.607	13.784	994.044	755.594
74.622	13.750	993.349	754.845
75.636	13.702	992.556	753.958
76.651	13.785	991.776	753.674
77.666	13.819	990.930	753.118
78.680	13.838	990.131	752.529
79.695	13.844	989.808	752.247
80.709	13.889	989.145	751.879
81.724	13.899	988.124	751.084
82.739	14.024	987.769	751.310
83.753	14.104	986.596	750.713
84.768	14.122	986.160	750.395
85.782	14.237	985.553	750.388
86.797	14.352	985.208	750.574
87.812	14.342	984.140	749.653
88.826	14.175	983.211	748.126
89.841	14.168	982.418	747.427
90.855	14.147	981.738	746.747
91.870	14.252	980.669	746.337
92.884	14.297	980.095	746.036
93.899	14.205	979.644	745.216
94.914	14.381	978.595	745.138
95.928	14.378	977.987	744.598
96.943	14.354	977.634	744.157
97.957	14.223	976.600	742.718
98.972	14.315	975.582	742.289
99.987	14.217	974.941	741.296
101.001	14.233	974.345	740.850
102.016	14.329	973.262	740.388
103.030	14.269	972.528	739.497
104.045	14.326	971.327	738.771
105.060	14.239	970.977	738.053
106.074	14.306	969.622	737.255
107.089	14.053	969.326	735.847
108.103	13.983	968.189	734.606
109.118	13.877	967.311	733.411
110.133	14.037	966.360	733.329
111.147	13.964	965.739	732.472
112.162	13.913	965.034	731.647
113.176	14.032	963.565	730.992
114.191	13.904	963.339	730.193
115.206	14.146	962.240	730.359
116.220	14.004	961.758	729.303
117.235	14.243	959.959	728.922
118.249	14.086	959.770	728.026
119.264	14.039	959.356	727.443
120.279	13.945	958.393	726.236
121.293	14.040	957.509	725.919
122.308	13.966	956.925	725.087
123.322	13.991	956.049	724.470
124.337	13.911	954.657	723.004
125.352	13.890	953.718	722.134
126.366	13.977	952.727	721.698
127.381	13.966	951.834	720.913
128.395	14.016	950.652	720.170
129.410	13.918	950.219	719.354
130.424	14.024	949.134	718.929
131.439	13.875	948.151	717.474
132.454	14.001	947.534	717.486
133.468	14.148	946.628	717.373
134.483	14.058	946.508	716.829
135.497	14.057	945.505	716.005
136.512	14.069	944.705	715.387
137.527	14.144	943.596	714.806
138.541	14.235	942.827	714.548
139.556	14.074	942.585	713.611
140.570	14.070	941.402	712.637
141.585	14.094	941.142	712.477
142.600	14.224	940.339	712.364
143.614	14.336	939.377	712.051
144.629	14.216	938.784	711.028
145.643	14.406	938.045	711.215
146.658	14.405	937.236	710.533
147.673	14.320	936.139	709.278
148.687	14.114	936.107	708.312
149.702	14.108	934.814	707.245
150.716	13.950	934.612	706.360
151.731	14.148	932.979	705.903
152.746	14.229	931.886	705.357
153.760	14.157	931.616	704.784
154.775	14.111	931.196	704.209
155.789	14.248	930.107	703.902
156.804	14.186	929.809	703.353
157.819	14.317	928.696	703.004
158.833	14.293	928.244	702.497
159.848	14.318	927.737	702.158
160.862	14.552	926.868	702.423
161.877	14.430	926.012	701.198
162.892	14.294	925.407	700.105
163.906	14.275	924.281	699.111
164.921	14.243	923.690	698.468
165.935	14.217	922.658	697.520
166.950	14.146	921.957	696.631
167.964	14.356	920.572	696.399
168.979	14.387	919.462	695.627
169.994	14.324	918.650	694.691
171.008	14.323	917.713	693.914
172.023	14.441	917.108	693.887
173.037	14.514	916.456	693.636
174.052	14.522	915.867	693.163
175.067	14.425	915.066	692.094
176.081	14.306	914.735	691.286
177.096	14.259	913.562	690.145
178.110	14.314	912.692	689.654
179.125	14.331	911.935	689.091
180.140	14.318	911.101	688.348
181.154	14.269	910.843	687.886
182.169	14.452	910.193	688.093
183.183	14.480	909.312	687.480
184.198	14.513	908.776	687.148
185.213	14.446	908.180	686.361
186.227	14.648	907.141	686.346
187.242	14.628	906.866	685.995
188.256	14.595	906.345	685.408
189.271	14.691	905.257	684.916
190.286	14.744	904.611	684.585
191.300	14.648	903.559	683.335
192.315	14.350	902.996	681.630
193.329	14.346	902.066	680.848
194.344	14.323	901.549	680.306
195.359	14.480	900.969	680.449
196.373	14.414	900.699	679.917
197.388	14.549	899.994	679.874
198.402	14.754	899.610	680.356
199.417	14.642	899.662	679.881
200.432	14.794	898.948	679.898
201.446	14.913	898.270	679.812
202.461	14.958	897.919	679.670
203.475	14.993	897.695	679.580
204.490	14.928	897.206	678.888
205.504	14.903	896.125	677.909
206.519	14.828	895.106	676.772
207.534	14.824	894.323	676.104
208.548	14.845	893.349	675.394
209.563	14.769	893.026	674.781
210.577	14.886	892.381	674.706
211.592	14.871	891.641	674.028
212.607	14.922	891.494	674.062
213.621	15.104	890.744	674.166
214.636	14.985	890.119	673.158
215.650	14.920	889.237	672.168
216.665	15.023	888.631	672.067
217.680	14.938	888.523	671.584
218.694	15.092	888.273	671.953
219.709	15.085	887.731	671.455
220.723	15.147	886.481	670.700
221.738	15.092	885.946	670.015
222.753	15.076	885.355	669.444
223.767	15.003	884.644	668.557
224.782	15.174	883.798	668.540
225.796	15.173	883.334	668.126
226.811	15.174	882.824	667.683
227.826	15.251	881.858	667.202
228.840	15.175	881.043	666.225
229.855	15.094	880.568	665.484
230.869	15.075	880.106	665.001
231.884	15.123	879.233	664.473
232.899	15.208	878.353	664.085
233.913	15.095	877.838	663.191
234.928	14.872	877.629	662.090
235.942	14.932	876.880	661.703
236.957	14.966	876.245	661.301
237.972	14.976	875.594	660.789
238.986	15.116	874.826	660.702
240.001	15.092	873.749	659.738
241.015	15.136	873.466	659.637
242.030	15.164	872.832	659.213
243.045	15.226	872.177	658.904
244.059	15.211	871.766	658.474
245.074	15.165	870.927	657.601
246.088	15.170	870.327	657.111
247.103	15.298	869.675	657.063
248.117	15.414	869.237	657.126
249.132	15.332	868.758	656.385
250.147	15.610	867.955	656.810
251.161	15.753	867.253	656.776
252.176	15.687	866.805	656.121
253.190	15.698	866.353	655.763
254.205	15.656	865.793	655.120
255.220	15.749	865.271	655.027
256.234	15.739	864.400	654.273
257.249	15.652	863.805	653.426
258.263	15.715	863.835	653.635
259.278	15.788	862.687	652.992
260.293	15.843	862.282	652.843
261.307	15.792	861.928	652.316
262.322	15.799	861.427	651.907
263.336	15.923	860.473	651.607
264.351	15.985	859.912	651.367
265.366	15.822	859.534	650.393
266.380	15.876	858.935	650.090
267.395	15.926	858.075	649.574
268.409	15.931	857.539	649.130
269.424	15.960	856.973	648.756
270.439	15.804	856.198	647.509
271.453	15.892	855.240	647.066
272.468	15.785	854.433	645.989
273.482	15.838	854.180	645.944
274.497	15.892	853.324	645.446
275.512	15.918	852.528	644.885
276.526	15.771	851.898	643.793
277.541	15.960	851.226	643.948
278.555	15.860	850.976	643.321
279.570	15.771	850.480	642.549
280.585	16.034	849.636	642.856
281.599	16.178	849.430	643.193
282.614	16.026	848.958	642.202
283.628	16.009	848.232	641.528
284.643	16.003	847.424	640.840
285.657	15.887	847.096	640.094
286.672	15.989	846.749	640.162
287.687	16.138	845.879	640.013
288.701	16.076	845.581	639.496
289.716	16.059	844.797	638.784
290.730	16.131	844.414	638.707
291.745	16.137	843.496	637.979
292.760	16.201	842.787	637.629
293.774	16.339	842.278	637.709
294.789	16.266	841.820	637.032
295.803	16.295	841.340	636.721
296.818	16.142	840.449	635.412
297.833	16.207	839.947	635.221
298.847	16.184	839.488	634.733
299.862	16.124	838.756	633.896
300.876	16.164	838.044	633.454
301.891	16.171	837.382	632.922
302.906	16.248	836.486	632.480
303.920	16.343	835.875	632.317
304.935	16.421	835.789	632.489
305.949	16.362	835.293	631.834
306.964	16.588	834.065	631.694
307.979	16.466	833.609	630.837
308.993	16.446	833.487	630.615
310.008	16.560	832.993	630.609
311.022	16.497	832.427	629.893
312.037	16.454	831.830	629.224
313.052	16.481	831.457	628.987
314.066	16.371	830.683	627.937
315.081	16.478	829.890	627.679
316.095	16.313	829.387	626.632
317.110	16.353	829.235	626.608
318.125	16.201	828.332	625.309
319.139	16.365	827.908	625.538
320.154	16.495	827.450	625.621
321.168	16.437	826.960	624.980
322.183	16.434	826.326	624.434
323.197	16.386	825.996	623.952
324.212	16.541	825.045	623.750
325.227	16.621	824.446	623.537
326.241	16.687	824.001	623.389
327.256	16.503	823.943	622.612
328.270	16.478	823.412	622.062
329.285	16.480	822.666	621.451
330.300	16.368	822.341	620.740
331.314	16.589	821.233	620.660
332.329	16.552	820.789	620.132
333.343	16.706	820.134	620.147
334.358	16.594	819.817	619.442
335.373	16.598	819.092	618.856
336.387	16.772	818.266	618.811
337.402	16.713	818.420	618.658
338.416	16.791	817.624	618.285
339.431	16.848	817.020	617.983
340.446	16.954	816.374	617.826
341.460	16.992	816.017	617.638
342.475	16.965	815.587	617.159
343.489	16.982	815.307	616.956
344.504	16.992	814.597	616.401
345.519	16.946	814.243	615.911
346.533	17.172	813.584	616.179
347.548	17.049	813.229	615.407
348.562	17.030	812.459	614.703
349.577	16.959	811.875	613.949
350.592	16.870	811.415	613.226
351.606	16.882	810.584	612.586
352.621	16.802	810.305	612.032
353.635	16.781	810.174	611.804
354.650	16.861	809.617	611.619
355.665	17.065	809.067	611.885
356.679	17.181	808.493	611.811
357.694	17.065	807.960	610.937
358.708	17.084	807.467	610.578
359.723	16.946	806.770	609.503
360.738	17.024	806.799	609.750
361.752	17.047	806.366	609.452
362.767	17.046	805.909	609.047
363.781	17.128	805.589	609.047
364.796	17.203	804.872	608.721
365.810	17.378	804.183	608.770
366.825	17.358	803.997	608.505
367.840	17.298	803.623	607.955
368.854	17.430	803.182	608.038
369.869	17.346	802.780	607.381
370.883	17.410	802.343	607.222
371.898	17.360	801.920	606.670
372.913	17.405	801.327	606.328
373.927	17.428	800.897	606.031
374.942	17.403	799.674	604.964
375.956	17.495	799.226	604.898
376.971	17.415	798.733	604.189
377.986	17.399	798.238	603.704
379.000	17.564	797.751	603.868
380.015	17.722	797.183	603.942
381.029	17.588	796.888	603.190
382.044	17.594	796.416	602.802
383.059	17.627	795.568	602.226
384.073	17.740	795.177	602.275
385.088	17.610	794.643	601.356
386.102	17.507	794.047	600.489
387.117	17.481	793.440	599.886
388.132	17.438	792.828	599.220
389.146	17.452	792.578	599.024
390.161	17.596	792.391	599.339
391.175	17.549	791.978	598.810
392.190	17.615	791.531	598.650
393.205	17.633	791.155	598.375
394.219	17.532	790.507	597.476
395.234	17.491	790.215	597.058
396.248	17.540	789.722	596.807
397.263	17.401	789.342	595.979
398.278	17.308	788.802	595.194
399.292	17.488	788.332	595.414
400.307	17.536	787.884	595.193
401.321	17.567	787.607	595.040
402.336	17.531	786.903	594.329
403.350	17.511	786.880	594.189
404.365	17.600	786.285	593.996
405.380	17.641	785.731	593.669
406.394	17.738	785.320	593.643
407.409	17.875	784.885	593.738
408.423	17.917	784.568	593.592
409.438	17.848	784.388	593.165
410.453	17.937	784.018	593.140
411.467	18.044	783.057	592.732
412.482	18.033	782.895	592.519
413.496	18.169	782.250	592.449
414.511	18.245	781.961	592.441
415.526	18.121	781.829	591.858
416.540	18.071	781.312	591.241
417.555	18.105	780.745	590.879
418.569	17.976	780.429	590.142
419.584	18.053	779.852	589.921
420.599	17.984	779.588	589.429
421.613	156.626	1370.350	1795.355
422.628	135.129	1456.442	1795.445
