DTS Sentinel unit serial number:	SN413079Multiplexer serial number:	ORYXHardware model number:	OX4-SRSoftware version number:	ORYX F/W v4.00 Oryx Data Collector v3.7.2.0data status	okinstallation	princeton_trtdifferential loss correction	single-endedforward channel	channel 3reverse channel	N/Adate	2019/09/16time	10:08:35forward acquisition time	60.00reverse acquisition time	0.00gamma	496.2192k internal	0.2313k external	0.2313temperature offset calibration	0.9943default loss term (dB/km)	0.3790temperature slope calibration	1.0000multiplexer offset coefficient	1.0000multiplexer slope coefficient	1.0000fibre end	0.00T internal ref (°C)	33.95T ext. ref 1 (°C)	12.43T ext. ref 2 (°C)	32.82length (m)	temperature (°C)	Stokes	anti-Stokes-747.200	800.000	-0.080	-0.258
-746.185	380.559	-0.061	0.127
-745.171	70.306	0.142	0.149
-744.156	-200.000	0.054	0.317
-743.142	-103.018	0.212	-0.051
-742.127	43.508	-0.080	-0.074
-741.112	386.101	0.135	0.282
-740.098	72.189	0.167	0.176
-739.083	-148.763	0.087	-0.007
-738.069	-144.802	-0.288	-0.027
-737.054	37.174	0.032	-0.029
-736.039	-83.489	-0.242	0.078
-735.025	-200.000	0.006	0.246
-734.010	19.442	-0.197	0.160
-732.996	-52.175	-0.430	-0.202
-731.981	492.233	-0.115	-0.267
-730.966	-21.563	-0.106	0.066
-729.952	153.411	-0.122	-0.170
-728.937	30.815	-0.571	-0.495
-727.923	58.913	-0.053	0.053
-726.908	12.202	-0.136	0.107
-725.894	-106.435	-0.005	0.001
-724.879	-80.015	0.204	0.069
-723.864	-28.001	-0.240	0.141
-722.850	-200.000	-0.045	0.202
-721.835	800.000	-0.052	-0.151
-720.821	-200.000	0.023	-0.476
-719.806	-128.117	-0.125	-0.018
-718.791	207.276	-0.282	-0.446
-717.777	93.170	-0.104	-0.119
-716.762	35.883	-0.083	-0.074
-715.748	127.299	-0.079	-0.101
-714.733	-105.214	-0.144	0.033
-713.718	-200.000	0.032	0.197
-712.704	-70.466	-0.252	-0.097
-711.689	-73.387	-0.309	-0.114
-710.675	214.511	0.108	0.173
-709.660	-200.000	0.011	-0.162
-708.645	258.486	0.193	-0.337
-707.631	-200.000	-0.016	-0.279
-706.616	104.120	-0.023	0.028
-705.602	800.000	0.076	-0.290
-704.587	-117.427	0.227	-0.042
-703.572	75.339	0.215	0.230
-702.558	-113.511	0.100	0.020
-701.543	0.487	0.295	-0.214
-700.529	800.000	-0.085	-0.319
-699.514	-141.582	-0.209	-0.021
-698.499	-88.853	-0.041	-0.012
-697.485	132.026	0.109	0.142
-696.470	78.370	-0.254	-0.275
-695.456	-200.000	0.010	0.238
-694.441	168.307	0.301	-0.434
-693.426	122.415	-0.080	0.101
-692.412	-200.000	0.072	-0.355
-691.397	89.561	-0.191	-0.216
-690.383	800.000	-0.060	-0.172
-689.368	17.880	-0.115	0.093
-688.354	110.834	-0.174	0.212
-687.339	-200.000	-0.016	0.543
-686.324	-123.973	0.460	0.073
-685.310	-30.101	-0.209	0.121
-684.295	113.000	-0.201	-0.246
-683.281	60.349	0.134	-0.134
-682.266	-38.368	-0.396	-0.212
-681.251	800.000	-0.139	-0.501
-680.237	47.315	-0.110	0.104
-679.222	24.232	-0.175	0.146
-678.208	120.946	-0.148	0.186
-677.193	-64.824	-0.279	0.114
-676.178	-31.478	-0.299	-0.170
-675.164	538.764	-0.136	-0.328
-674.149	-200.000	-0.007	-0.075
-673.135	-77.599	-0.198	-0.069
-672.120	567.988	-0.049	-0.120
-671.105	75.587	-0.052	0.055
-670.091	800.000	-0.089	-0.271
-669.076	14.757	0.172	0.136
-668.062	-200.000	0.009	0.075
-667.047	-200.000	-0.027	0.172
-666.032	-114.491	0.163	0.032
-665.018	11.594	0.199	0.155
-664.003	800.000	-0.041	0.179
-662.989	-142.097	-0.214	-0.021
-661.974	-81.884	0.268	-0.089
-660.959	309.303	-0.118	-0.223
-659.945	76.640	-0.173	-0.186
-658.930	71.279	-0.198	-0.208
-657.916	26.016	-0.141	0.119
-656.901	666.822	0.105	0.275
-655.886	-78.809	-0.119	0.041
-654.872	-100.578	0.286	-0.072
-653.857	-146.656	0.117	-0.010
-652.843	186.435	-0.112	-0.169
-651.828	343.156	0.198	0.391
-650.814	-125.700	0.375	0.057
-649.799	-200.000	-0.005	0.056
-648.784	-68.794	0.318	-0.124
-647.770	-93.379	-0.425	0.119
-646.755	329.954	0.218	-0.423
-645.741	167.752	-0.146	0.210
-644.726	-200.000	-0.077	-0.388
-643.711	499.199	0.051	-0.120
-642.697	-137.204	0.092	0.011
-641.682	-106.611	-0.104	-0.023
-640.668	-152.454	-0.218	0.016
-639.653	-33.679	-0.377	-0.210
-638.638	-72.505	0.335	-0.125
-637.624	-85.964	0.194	0.061
-636.609	-200.000	0.007	0.257
-635.595	259.339	0.082	0.142
-634.580	-200.000	0.024	-0.425
-633.565	220.218	-0.154	-0.249
-632.551	414.976	-0.229	-0.493
-631.536	-200.000	0.010	0.155
-630.522	41.430	-0.222	0.203
-629.507	-101.590	-0.269	-0.066
-628.492	488.856	-0.105	0.241
-627.478	-68.127	-0.349	-0.137
-626.463	800.000	0.076	-0.218
-625.449	463.112	0.079	0.177
-624.434	-130.613	0.239	-0.032
-623.419	-106.945	0.253	-0.057
-622.405	-99.305	-0.187	0.048
-621.390	-63.460	0.260	0.108
-620.376	800.000	-0.027	-0.102
-619.361	30.989	0.068	-0.059
-618.346	-35.808	-0.325	0.178
-617.332	-200.000	-0.003	0.079
-616.317	-200.000	-0.091	0.455
-615.303	95.631	-0.055	0.063
-614.288	293.103	0.056	-0.103
-613.273	26.848	-0.082	0.069
-612.259	-3.515	-0.066	0.046
-611.244	-200.000	0.010	0.068
-610.230	-180.048	-0.129	-0.003
-609.215	49.807	-0.033	-0.031
-608.201	-119.136	0.230	-0.040
-607.186	-200.000	-0.013	0.249
-606.171	-200.000	0.057	-0.268
-605.157	475.884	-0.143	0.326
-604.142	-200.000	0.033	-0.367
-603.128	800.000	0.040	0.161
-602.113	-26.802	-0.228	-0.135
-601.098	-37.388	0.042	-0.023
-600.084	-91.387	-0.165	0.048
-599.069	-2.829	-0.096	-0.068
-598.055	-112.350	0.227	0.046
-597.040	371.021	0.035	-0.072
-596.025	-154.600	0.072	-0.005
-595.011	-72.494	-0.089	0.033
-593.996	-30.253	0.237	-0.136
-592.982	-200.000	0.063	0.321
-591.967	106.680	0.183	0.219
-590.952	113.574	-0.301	0.369
-589.938	-110.745	-0.164	-0.034
-588.923	-28.301	0.116	-0.067
-587.909	-156.895	-0.066	-0.004
-586.894	161.053	0.104	0.146
-585.879	-200.000	-0.004	0.308
-584.865	-85.462	0.157	-0.049
-583.850	39.270	0.246	0.222
-582.836	152.727	-0.293	0.404
-581.821	147.539	0.147	-0.200
-580.806	-200.000	0.003	-0.080
-579.792	800.000	0.027	0.089
-578.777	139.969	-0.076	-0.102
-577.763	28.173	0.212	-0.180
-576.748	-89.239	0.077	0.023
-575.733	-38.378	0.152	0.081
-574.719	-200.000	-0.019	-0.186
-573.704	10.045	0.104	-0.079
-572.690	800.000	-0.084	0.290
-571.675	192.629	-0.086	-0.131
-570.661	156.757	0.086	0.120
-569.646	271.959	0.140	-0.248
-568.631	169.550	0.157	-0.226
-567.617	-200.000	0.031	-0.233
-566.602	800.000	-0.014	-0.048
-565.588	-200.000	0.044	-0.337
-564.573	-200.000	-0.012	0.219
-563.558	99.695	-0.206	0.241
-562.544	-13.242	-0.385	-0.252
-561.529	-79.233	0.106	-0.036
-560.515	-130.041	0.140	-0.019
-559.500	310.768	-0.151	-0.285
-558.485	800.000	0.078	-0.334
-557.471	-56.598	0.185	-0.083
-556.456	23.769	0.250	-0.207
-555.442	800.000	-0.054	0.212
-554.427	800.000	0.048	0.164
-553.412	-33.995	-0.337	-0.187
-552.398	-84.656	-0.082	-0.026
-551.383	51.712	-0.318	-0.305
-550.369	156.082	0.168	0.233
-549.354	119.736	-0.185	0.231
-548.339	-115.524	-0.159	-0.030
-547.325	227.017	-0.106	-0.173
-546.310	-200.000	-0.072	0.395
-545.296	-100.909	0.468	-0.116
-544.281	-124.714	-0.221	-0.034
-543.266	2.877	-0.121	-0.088
-542.252	-57.375	-0.293	-0.130
-541.237	123.884	-0.076	-0.096
-540.223	34.604	-0.096	-0.084
-539.208	-124.564	0.193	-0.030
-538.193	-8.793	-0.242	-0.163
-537.179	224.837	-0.215	0.350
-536.164	-99.814	-0.211	-0.053
-535.150	-88.983	0.125	0.037
-534.135	140.446	0.061	-0.081
-533.121	176.643	0.036	-0.052
-532.106	105.147	0.035	-0.041
-531.091	-43.076	-0.196	0.100
-530.077	74.072	0.227	0.239
-529.062	145.197	-0.263	0.354
-528.048	-200.000	0.025	-0.277
-527.033	375.077	-0.154	-0.316
-526.018	-200.000	-0.016	0.110
-525.004	44.346	0.192	0.177
-523.989	584.960	-0.102	0.251
-522.975	-90.122	-0.225	0.066
-521.960	-8.116	0.076	-0.052
-520.945	-156.576	-0.194	-0.012
-519.931	56.953	0.075	-0.073
-518.916	658.026	0.030	0.078
-517.902	91.404	-0.133	-0.151
-516.887	38.897	-0.066	0.059
-515.872	-172.566	0.342	0.011
-514.858	800.000	-0.099	0.305
-513.843	-76.362	-0.303	0.107
-512.829	-0.719	0.093	0.066
-511.814	119.318	0.135	0.168
-510.799	-200.000	-0.032	0.203
-509.785	-200.000	-0.031	0.172
-508.770	-129.600	0.064	-0.009
-507.756	728.521	0.105	-0.281
-506.741	800.000	0.016	0.048
-505.726	28.220	-0.068	-0.057
-504.712	193.751	0.039	-0.059
-503.697	-200.000	0.030	-0.266
-502.683	19.107	-0.039	-0.031
-501.668	-200.000	0.035	0.289
-500.653	347.683	-0.062	-0.122
-499.639	-200.000	0.039	-0.282
-498.624	5.492	-0.126	0.093
-497.610	93.731	-0.165	-0.187
-496.595	-65.104	-0.485	-0.196
-495.581	577.829	0.118	-0.289
-494.566	-101.547	-0.058	0.014
-493.551	-200.000	0.037	0.167
-492.537	-31.601	0.270	-0.152
-491.522	800.000	-0.085	-0.267
-490.508	-69.796	0.131	-0.050
-489.493	-200.000	-0.014	-0.256
-488.478	19.677	0.176	-0.142
-487.464	-105.921	0.198	-0.045
-486.449	-200.000	0.006	0.210
-485.435	38.480	0.230	0.205
-484.420	-200.000	0.005	0.197
-483.405	455.172	-0.109	-0.242
-482.391	-200.000	-0.002	0.200
-481.376	479.352	-0.133	-0.303
-480.362	-71.422	-0.244	-0.092
-479.347	139.585	-0.058	-0.077
-478.332	-75.382	0.172	0.061
-477.318	-160.321	-0.230	-0.012
-476.303	29.705	-0.188	-0.160
-475.289	-65.634	0.199	-0.080
-474.274	121.557	0.136	-0.170
-473.259	-93.692	0.323	0.089
-472.245	159.493	0.237	0.331
-471.230	167.815	-0.165	0.235
-470.216	-87.440	0.092	-0.028
-469.201	800.000	0.107	0.305
-468.186	78.847	-0.209	0.225
-467.172	136.085	0.208	-0.271
-466.157	-62.242	-0.092	-0.038
-465.143	-20.441	-0.074	0.046
-464.128	92.916	-0.255	0.289
-463.113	-117.894	-0.362	-0.065
-462.099	32.608	0.174	-0.151
-461.084	-200.000	-0.040	0.313
-460.070	399.751	-0.054	0.114
-459.055	-25.937	0.066	0.039
-458.040	-200.000	0.095	-0.528
-457.026	108.249	0.172	0.205
-456.011	-200.000	-0.004	-0.410
-454.997	-96.102	0.220	-0.059
-453.982	-147.680	0.202	-0.017
-452.968	-5.767	-0.282	-0.194
-451.953	-169.035	-0.156	0.006
-450.938	183.676	0.067	-0.099
-449.924	-200.000	-0.017	0.077
-448.909	-55.979	0.364	0.163
-447.895	23.715	0.133	0.110
-446.880	-116.717	0.306	-0.056
-445.865	24.175	0.040	0.033
-444.851	800.000	0.132	0.403
-443.836	438.318	0.074	0.161
-442.822	-61.937	0.085	-0.035
-441.807	-200.000	0.043	-0.306
-440.792	800.000	-0.048	0.171
-439.778	-140.213	0.301	-0.032
-438.763	-200.000	0.016	0.214
-437.749	-80.350	-0.348	0.117
-436.734	7.271	0.251	-0.188
-435.719	-81.580	0.140	0.046
-434.705	-51.962	-0.091	0.042
-433.690	395.533	0.085	0.177
-432.676	340.308	-0.089	-0.174
-431.661	43.604	0.176	-0.161
-430.646	-35.343	-0.333	-0.181
-429.632	753.359	-0.028	-0.077
-428.617	-47.341	0.037	-0.018
-427.603	-109.463	0.160	0.034
-426.588	-51.193	-0.177	-0.083
-425.573	60.819	-0.312	-0.310
-424.559	676.693	-0.054	-0.140
-423.544	-106.797	0.261	-0.058
-422.530	59.982	-0.311	-0.308
-421.515	800.000	-0.049	-0.182
-420.500	-118.901	-0.132	-0.023
-419.486	-126.965	0.111	-0.016
-418.471	185.842	-0.056	-0.083
-417.457	-122.217	0.230	0.038
-416.442	67.348	-0.172	-0.176
-415.428	429.227	-0.065	0.141
-414.413	-200.000	-0.006	0.247
-413.398	-20.041	0.365	-0.225
-412.384	-11.996	0.310	0.203
-411.369	163.417	0.159	-0.223
-410.355	80.941	0.348	-0.376
-409.340	-23.073	0.154	-0.093
-408.325	186.123	-0.131	0.195
-407.311	-121.536	-0.319	-0.053
-406.296	-63.346	-0.206	-0.085
-405.282	17.781	0.195	-0.155
-404.267	63.030	-0.137	-0.138
-403.252	-34.339	0.179	0.098
-402.238	-51.190	-0.508	-0.238
-401.223	423.474	-0.139	-0.300
-400.209	27.328	0.320	-0.269
-399.194	274.315	-0.206	-0.365
-398.179	-50.230	-0.128	-0.061
-397.165	-192.082	0.071	-0.001
-396.150	-102.410	0.448	0.107
-395.136	431.538	-0.052	0.114
-394.121	800.000	0.076	-0.219
-393.106	800.000	-0.089	-0.386
-392.092	41.761	-0.094	0.085
-391.077	114.572	-0.296	0.360
-390.063	421.574	-0.140	0.300
-389.048	-115.742	0.293	0.055
-388.033	476.628	-0.054	-0.121
-387.019	-104.413	-0.207	-0.048
-386.004	73.212	0.041	-0.043
-384.990	28.584	0.035	0.029
-383.975	-189.029	-0.248	0.003
-382.960	284.729	-0.123	0.221
-381.946	11.899	-0.031	-0.024
-380.931	-83.550	0.260	-0.083
-379.917	-73.553	-0.183	-0.067
-378.902	-131.445	-0.335	-0.044
-377.888	-185.304	-0.154	-0.002
-376.873	428.155	-0.050	0.107
-375.858	-145.302	-0.036	0.003
-374.844	-200.000	0.029	0.331
-373.829	19.680	-0.307	-0.247
-372.815	6.518	-0.032	0.024
-371.800	-113.604	0.408	-0.080
-370.785	341.814	-0.126	-0.245
-369.771	-200.000	0.003	-0.405
-368.756	20.603	0.205	0.166
-367.742	-48.219	0.152	-0.073
-366.727	800.000	-0.042	0.118
-365.712	-93.931	0.244	-0.067
-364.698	-66.791	0.194	0.077
-363.683	-35.729	0.261	-0.141
-362.669	-103.790	0.160	0.037
-361.654	-200.000	0.035	-0.209
-360.639	-200.000	0.022	0.119
-359.625	206.730	0.128	0.199
-358.610	-9.209	-0.103	-0.069
-357.596	85.732	0.010	0.011
-356.581	-17.818	0.263	-0.165
-355.566	90.548	-0.039	0.044
-354.552	11.457	-0.081	0.062
-353.537	-82.459	0.112	-0.036
-352.523	153.096	0.072	-0.099
-351.508	-137.809	0.066	0.007
-350.493	-200.000	-0.355	0.002
-349.479	320.065	-0.090	-0.170
-348.464	231.635	0.019	0.031
-347.450	205.871	0.147	0.228
-346.435	-11.200	0.127	0.084
-345.420	-66.650	0.182	0.072
-344.406	-16.110	-0.101	-0.064
-343.391	364.651	-0.097	-0.194
-342.377	-163.160	-0.225	-0.011
-341.362	245.183	0.085	-0.143
-340.348	-64.724	0.026	0.011
-339.333	-173.481	0.350	0.011
-338.318	-8.901	-0.148	-0.099
-337.304	-10.109	-0.265	-0.175
-336.289	-135.328	0.095	-0.011
-335.275	-57.721	-0.165	0.072
-334.260	800.000	-0.146	0.409
-333.245	800.000	0.091	0.273
-332.231	-200.000	0.055	0.388
-331.216	-200.000	0.043	-0.211
-330.202	-30.732	0.267	0.151
-329.187	113.266	-0.168	-0.203
-328.172	-9.231	-0.448	-0.299
-327.158	31.478	-0.122	-0.105
-326.143	-82.917	0.399	0.128
-325.129	97.500	-0.250	0.287
-324.114	-41.109	-0.202	0.104
-323.099	800.000	-0.085	0.238
-322.085	-107.549	0.262	0.057
-321.070	142.645	0.103	-0.136
-320.056	-30.152	0.362	0.205
-319.041	108.077	-0.115	-0.136
-318.026	384.151	0.027	-0.055
-317.012	-200.000	0.015	0.161
-315.997	360.986	-0.143	-0.286
-314.983	516.171	0.113	-0.263
-313.968	204.255	-0.052	0.081
-312.953	-200.000	0.059	0.412
-311.939	-127.364	0.227	-0.033
-310.924	656.144	0.076	-0.195
-309.910	-75.083	0.109	0.039
-308.895	-27.184	-0.334	-0.194
-307.880	22.204	0.289	-0.236
-306.866	-128.471	0.142	0.020
-305.851	800.000	0.019	0.061
-304.837	148.522	0.132	0.178
-303.822	40.405	-0.123	-0.110
-302.807	83.073	0.119	0.129
-301.793	-184.247	-0.175	0.003
-300.778	800.000	-0.110	0.472
-299.764	800.000	-0.020	-0.059
-298.749	-200.000	0.072	0.411
-297.735	-162.419	-0.053	-0.003
-296.720	-37.881	0.178	-0.094
-295.705	800.000	-0.055	-0.162
-294.691	800.000	0.068	0.260
-293.676	185.023	-0.196	0.290
-292.662	-200.000	-0.015	0.297
-291.647	-200.000	0.032	-0.468
-290.632	141.823	0.181	0.239
-289.618	-88.959	0.378	-0.112
-288.603	327.603	-0.103	0.198
-287.589	-150.747	-0.261	0.020
-286.574	192.426	-0.273	0.411
-285.559	-26.967	0.089	-0.052
-284.545	-200.000	0.004	0.049
-283.530	-89.154	0.138	0.041
-282.516	-10.450	-0.112	-0.074
-281.501	-27.570	-0.162	-0.094
-280.486	790.816	0.113	-0.309
-279.472	549.777	0.064	-0.153
-278.457	32.686	-0.066	-0.057
-277.443	124.756	0.202	0.253
-276.428	-35.077	0.256	-0.139
-275.413	-109.926	-0.284	0.059
-274.399	-57.254	0.191	-0.084
-273.384	-200.000	0.222	0.000
-272.370	800.000	-0.061	-0.208
-271.355	-63.916	0.165	0.067
-270.340	133.313	-0.182	0.234
-269.326	216.385	-0.131	0.208
-268.311	-32.250	0.065	-0.036
-267.297	-27.080	-0.141	-0.082
-266.282	26.018	-0.062	0.052
-265.267	-67.540	0.149	0.058
-264.253	800.000	-0.027	0.101
-263.238	-107.789	0.190	0.041
-262.224	-139.829	0.256	-0.027
-261.209	471.653	-0.099	0.222
-260.195	15.655	-0.241	0.188
-259.180	-20.249	0.228	0.140
-258.165	-200.000	0.009	-0.108
-257.151	-200.000	0.023	0.322
-256.136	800.000	-0.039	-0.142
-255.122	192.674	-0.113	0.169
-254.107	-149.854	0.271	-0.021
-253.092	-200.000	0.009	-0.206
-252.078	-67.245	0.097	-0.038
-251.063	-103.123	0.286	-0.067
-250.049	-200.000	0.009	-0.045
-249.034	-200.000	-0.037	0.183
-248.019	-200.000	0.005	0.146
-247.005	-66.516	-0.340	-0.134
-245.990	269.539	0.207	-0.361
-244.976	-200.000	0.016	0.164
-243.961	297.228	-0.069	-0.126
-242.946	443.163	-0.104	-0.226
-241.932	199.750	-0.013	0.019
-240.917	461.322	0.035	0.077
-239.903	-95.122	-0.222	-0.060
-238.888	-76.579	0.075	0.026
-237.873	-200.000	-0.015	0.249
-236.859	-200.000	0.037	0.167
-235.844	800.000	0.068	0.192
-234.830	-54.658	-0.247	0.111
-233.815	-56.190	-0.259	-0.115
-232.800	800.000	-0.076	0.269
-231.786	-110.429	0.102	0.021
-230.771	136.129	0.295	0.382
-229.757	-172.753	-0.163	0.005
-228.742	800.000	0.048	0.195
-227.727	141.829	0.119	0.157
-226.713	-60.848	-0.188	-0.079
-225.698	548.342	0.071	0.168
-224.684	-29.269	-0.185	0.105
-223.669	-200.000	0.014	0.304
-222.655	133.455	0.141	0.181
-221.640	34.595	0.079	0.069
-220.625	51.526	-0.219	-0.207
-219.611	-75.894	0.059	0.021
-218.596	600.372	0.085	-0.210
-217.582	249.346	0.128	0.216
-216.567	-16.914	0.087	-0.054
-215.552	-140.369	-0.127	-0.013
-214.538	-200.000	0.016	0.154
-213.523	21.284	-0.228	-0.184
-212.509	-200.000	-0.031	0.277
-211.494	-123.354	-0.122	-0.019
-210.479	277.746	0.066	-0.117
-209.465	-148.120	0.074	-0.006
-208.450	350.062	-0.155	0.305
-207.436	-200.000	-0.015	-0.182
-206.421	190.119	-0.041	0.061
-205.406	-103.819	0.293	0.068
-204.392	452.810	-0.122	0.267
-203.377	-116.792	0.250	-0.045
-202.363	92.904	0.234	0.263
-201.348	-112.144	0.226	-0.045
-200.333	-200.000	-0.035	-0.192
-199.319	-200.000	0.002	0.084
-198.304	800.000	-0.103	-0.354
-197.290	674.085	-0.075	-0.192
-196.275	-200.000	-0.041	0.196
-195.260	-43.584	0.154	-0.077
-194.246	-138.655	-0.096	0.010
-193.231	-82.763	-0.108	-0.035
-192.217	121.246	-0.191	-0.237
-191.202	-148.320	-0.202	-0.016
-190.187	58.499	-0.057	-0.055
-189.173	72.036	0.103	-0.106
-188.158	-200.000	0.042	0.196
-187.144	-58.582	-0.112	-0.048
-186.129	-200.000	-0.009	0.169
-185.114	672.152	0.102	-0.262
-184.100	18.580	0.108	-0.086
-183.085	70.282	0.112	0.115
-182.071	-164.228	0.024	0.001
-181.056	89.480	0.240	0.265
-180.042	698.040	-0.061	-0.160
-179.027	184.152	0.189	0.277
-178.012	134.305	-0.176	-0.226
-176.998	-69.708	-0.122	0.046
-175.983	397.030	0.133	0.277
-174.969	-43.150	-0.213	0.107
-173.954	88.849	-0.169	0.186
-172.939	-67.817	-0.034	-0.013
-171.925	-175.638	0.125	-0.003
-170.910	-200.000	0.033	-0.203
-169.896	-65.228	-0.266	-0.106
-168.881	-74.129	0.163	-0.059
-167.866	329.750	-0.138	0.264
-166.852	69.209	0.052	0.053
-165.837	107.200	-0.142	-0.168
-164.823	32.296	-0.058	-0.049
-163.808	141.155	0.067	0.088
-162.793	-200.000	0.028	-0.475
-161.779	-73.599	0.093	0.034
-160.764	379.539	0.066	0.134
-159.750	800.000	-0.009	-0.036
-158.735	30.652	0.135	-0.115
-157.720	800.000	-0.029	-0.080
-156.706	130.922	-0.217	0.277
-155.691	52.841	0.111	0.105
-154.677	95.625	-0.184	-0.208
-153.662	-106.022	-0.095	-0.021
-152.647	-169.838	0.321	0.011
-151.633	279.327	-0.076	0.135
-150.618	-7.969	0.194	0.130
-149.604	-65.075	-0.127	0.051
-148.589	800.000	-0.083	-0.317
-147.574	-200.000	-0.067	0.337
-146.560	155.038	0.157	0.214
-145.545	57.039	0.057	0.055
-144.531	800.000	0.074	-0.235
-143.516	-156.113	0.098	0.006
-142.502	-200.000	-0.064	0.279
-141.487	24.187	0.361	0.295
-140.472	800.000	0.048	0.149
-139.458	209.660	0.107	0.166
-138.443	800.000	-0.054	-0.190
-137.429	-200.000	0.013	0.138
-136.414	-200.000	0.018	0.140
-135.399	-82.202	-0.111	-0.036
-134.385	312.379	0.105	0.195
-133.370	-153.066	-0.067	0.005
-132.356	-125.320	-0.189	0.029
-131.341	-120.725	0.127	-0.021
-130.326	-21.771	0.164	0.099
-129.312	800.000	-0.041	0.119
-128.297	140.393	-0.070	0.091
-127.283	555.061	-0.162	-0.385
-126.268	137.804	-0.081	0.105
-125.253	-26.012	0.166	-0.097
-124.239	294.737	0.145	0.263
-123.224	-109.024	0.183	-0.039
-122.210	-75.654	0.236	0.083
-121.195	-200.000	0.001	0.087
-120.180	-103.548	0.032	0.007
-119.166	32.320	-0.183	-0.156
-118.151	-113.858	0.200	0.038
-117.137	70.531	-0.207	0.212
-116.122	66.979	0.180	0.182
-115.107	800.000	-0.071	-0.240
-114.093	-17.758	-0.211	-0.131
-113.078	671.312	-0.183	-0.469
-112.064	-42.646	-0.347	-0.175
-111.049	12.172	0.189	-0.144
-110.034	-146.782	-0.191	0.016
-109.020	-137.167	0.339	-0.038
-108.005	800.000	0.042	0.118
-106.991	-15.215	-0.227	0.144
-105.976	800.000	0.037	0.103
-104.962	-114.749	0.304	0.057
-103.947	800.000	-0.007	0.025
-102.932	118.937	-0.199	0.244
-101.918	-92.057	-0.379	0.106
-100.903	-95.476	0.145	0.038
-99.889	800.000	0.087	0.254
-98.874	19.517	-0.094	-0.075
-97.859	307.506	0.090	-0.165
-96.845	-67.586	0.072	-0.028
-95.830	42.264	-0.137	0.123
-94.816	800.000	0.039	0.164
-93.801	-163.513	-0.260	-0.012
-92.786	-200.000	-0.007	-0.257
-91.772	-112.994	-0.204	-0.040
-90.757	154.010	0.124	0.169
-89.743	-87.188	-0.116	0.035
-88.728	-86.859	-0.154	-0.046
-87.713	169.167	-0.267	0.377
-86.699	-53.894	0.173	-0.078
-85.684	-96.873	0.326	0.085
-84.670	800.000	-0.029	-0.111
-83.655	7.202	0.222	-0.164
-82.640	-84.063	-0.336	-0.106
-81.626	56.687	-0.089	0.086
-80.611	-79.510	-0.381	-0.127
-79.597	-200.000	0.051	0.337
-78.582	148.182	-0.198	0.264
-77.567	120.512	-0.047	-0.058
-76.553	-200.000	-0.032	-0.178
-75.538	-61.833	0.185	0.076
-74.524	-78.926	-0.171	0.057
-73.509	-200.000	0.040	0.230
-72.494	-1.171	-0.252	0.176
-71.480	28.733	-0.218	-0.182
-70.465	-18.912	-0.320	0.197
-69.451	-93.750	0.455	-0.124
-68.436	-12.406	-0.170	-0.110
-67.422	54.518	0.276	-0.262
-66.407	219.637	0.115	-0.182
-65.392	29.604	0.143	0.120
-64.378	-22.472	-0.076	-0.045
-63.363	-135.696	0.190	-0.022
-62.349	-200.000	-0.005	0.100
-61.334	54.685	-1.152	-1.097
-60.319	7.941	0.412	0.305
-59.305	-200.000	-0.009	-0.938
-58.290	800.000	0.425	1.293
-57.276	339.583	0.863	1.662
-56.261	-200.000	95.318	550.491
-55.246	514.239	1410.594	3249.385
-54.232	146.340	2635.094	3492.546
-53.217	109.497	2235.956	2644.400
-52.203	44.181	1761.783	1595.427
-51.188	37.007	1570.635	1371.751
-50.173	34.625	1543.851	1331.709
-49.159	51.480	1594.386	1495.325
-48.144	54.555	1612.887	1534.472
-47.130	37.336	1568.405	1371.908
-46.115	34.283	1552.660	1336.698
-45.100	34.033	1549.128	1331.855
-44.086	34.068	1547.343	1330.511
-43.071	33.950	1545.917	1328.409
-42.057	33.939	1543.703	1326.375
-41.042	33.937	1542.349	1325.144
-40.027	34.014	1541.056	1324.517
-39.013	33.920	1539.848	1322.773
-37.998	33.922	1538.121	1321.252
-36.984	33.997	1536.859	1320.635
-35.969	34.006	1535.765	1319.706
-34.954	33.972	1534.102	1317.986
-33.940	34.008	1532.739	1317.013
-32.925	33.952	1531.604	1315.601
-31.911	33.999	1530.504	1314.926
-30.896	33.976	1529.113	1313.523
-29.881	34.058	1527.389	1312.556
-28.867	34.051	1526.271	1311.495
-27.852	33.967	1524.779	1309.583
-26.838	34.064	1523.312	1308.933
-25.823	33.998	1521.821	1307.152
-24.809	33.995	1520.141	1305.631
-23.794	33.971	1518.724	1304.202
-22.779	33.932	1517.978	1303.239
-21.765	34.074	1516.233	1302.660
-20.750	33.937	1515.516	1301.057
-19.736	34.042	1513.826	1300.272
-18.721	33.871	1513.830	1299.056
-17.706	33.962	1512.091	1298.130
-16.692	33.844	1510.950	1296.295
-15.677	33.833	1509.869	1295.240
-14.663	33.903	1508.768	1294.727
-13.648	33.906	1507.871	1293.925
-12.633	34.004	1506.553	1293.410
-11.619	33.835	1505.991	1291.722
-10.604	33.956	1504.484	1291.206
-9.590	33.858	1504.309	1290.338
-8.575	34.034	1502.472	1289.904
-7.560	33.903	1502.430	1288.925
-6.546	34.035	1501.374	1288.861
-5.531	33.855	1500.477	1286.823
-4.517	33.882	1499.645	1286.240
-3.502	33.932	1498.461	1285.513
-2.487	33.937	1497.712	1284.852
-1.473	33.864	1496.460	1283.238
-0.458	33.909	1495.355	1282.541
0.556	32.543	1486.678	1275.068
1.571	30.500	1462.061	1240.223
2.586	27.721	1400.711	1170.276
3.600	26.293	1316.758	1091.418
4.615	24.669	1269.431	1042.637
5.629	22.513	1214.507	985.390
6.644	17.555	1132.270	892.666
7.659	13.155	1093.036	839.347
8.673	12.395	1087.900	831.484
9.688	12.469	1084.534	829.214
10.702	12.373	1083.003	827.487
11.717	12.492	1080.831	826.350
12.731	14.343	1083.197	837.400
13.746	18.850	1088.968	864.515
14.761	20.190	1089.338	871.472
15.775	18.356	1085.752	859.329
16.790	17.085	1082.784	850.542
17.804	16.003	1080.272	843.083
18.819	14.990	1078.973	836.930
19.834	14.466	1077.202	832.864
20.848	14.202	1076.260	830.742
21.863	13.894	1075.180	828.301
22.877	13.544	1074.927	826.288
23.892	13.498	1073.745	825.077
24.907	13.316	1072.856	823.412
25.921	13.304	1072.404	822.934
26.936	13.393	1071.570	822.665
27.950	13.410	1070.655	821.971
28.965	13.362	1069.947	821.121
29.980	13.520	1068.203	820.491
30.994	13.654	1066.713	819.937
32.009	13.715	1065.634	819.337
33.023	13.693	1065.067	818.719
34.038	13.602	1064.358	817.653
35.053	13.546	1063.484	816.631
36.067	13.602	1062.572	816.136
37.082	13.478	1061.838	814.887
38.096	13.597	1060.783	814.592
39.111	13.571	1060.279	814.007
40.126	13.649	1059.090	813.402
41.140	13.491	1057.939	811.672
42.155	13.455	1057.012	810.714
43.169	13.463	1056.256	810.102
44.184	13.317	1055.002	808.354
45.199	13.367	1054.097	807.833
46.213	13.282	1052.853	806.394
47.228	13.326	1051.843	805.763
48.242	13.449	1051.075	805.704
49.257	13.463	1049.984	804.865
50.271	13.520	1048.362	803.825
51.286	13.469	1047.593	802.919
52.301	13.531	1046.886	802.605
53.315	13.484	1046.373	801.912
54.330	13.477	1045.780	801.355
55.344	13.409	1044.660	800.095
56.359	13.404	1043.238	798.912
57.374	13.322	1042.890	798.177
58.388	13.411	1042.287	798.074
59.403	13.434	1041.292	797.354
60.417	13.235	1040.444	795.678
61.432	13.271	1039.852	795.327
62.447	13.417	1039.028	795.328
63.461	13.228	1038.489	793.935
64.476	13.230	1037.238	792.918
65.490	13.231	1036.148	792.023
66.505	13.111	1035.584	790.946
67.520	13.273	1034.567	790.872
68.534	13.349	1033.999	790.732
69.549	13.315	1033.375	790.021
70.563	13.462	1031.958	789.570
71.578	13.250	1031.665	788.267
72.593	13.196	1030.867	787.330
73.607	13.259	1029.689	786.657
74.622	13.163	1028.868	785.508
75.636	13.189	1028.048	784.936
76.651	13.207	1027.332	784.403
77.666	13.254	1026.417	783.857
78.680	13.259	1025.655	783.233
79.695	13.129	1025.559	782.473
80.709	13.234	1024.788	782.312
81.724	13.444	1023.586	782.316
82.739	13.348	1022.945	781.306
83.753	13.330	1022.309	780.665
84.768	13.370	1021.713	780.331
85.782	13.540	1020.703	780.292
86.797	13.530	1020.078	779.695
87.812	13.452	1019.041	778.470
88.826	13.477	1018.086	777.790
89.841	13.454	1017.262	776.982
90.855	13.547	1016.366	776.665
91.870	13.560	1015.520	776.010
92.884	13.588	1015.155	775.795
93.899	13.434	1014.375	774.410
94.914	13.479	1013.651	773.996
95.928	13.555	1012.904	773.711
96.943	13.645	1012.065	773.426
97.957	13.637	1011.173	772.637
98.972	13.547	1010.749	771.826
99.987	13.525	1009.769	770.906
101.001	13.641	1008.458	770.378
102.016	13.521	1008.416	769.717
103.030	13.506	1007.314	768.741
104.045	13.630	1006.065	768.291
105.060	13.519	1004.848	766.783
106.074	13.485	1004.293	766.133
107.089	13.483	1003.185	765.211
108.103	13.347	1002.568	764.046
109.118	13.400	1001.145	763.137
110.133	13.290	1000.437	762.024
111.147	13.368	999.856	761.873
112.162	13.325	999.121	761.049
113.176	13.406	997.909	760.429
114.191	13.401	997.394	759.944
115.206	13.430	996.487	759.320
116.220	13.496	995.580	758.863
117.235	13.479	994.803	758.126
118.249	13.370	994.390	757.246
119.264	13.265	993.247	755.828
120.279	13.288	992.585	755.363
121.293	13.334	991.700	754.832
122.308	13.330	990.924	754.158
123.322	13.386	989.989	753.632
124.337	13.323	988.846	752.410
125.352	13.318	987.759	751.497
126.366	13.391	986.488	750.792
127.381	13.493	985.202	750.211
128.395	13.303	984.906	749.055
129.410	13.381	983.451	748.236
130.424	13.495	982.448	747.923
131.439	13.348	981.675	746.605
132.454	13.344	981.171	746.138
133.468	13.364	980.416	745.585
134.483	13.416	979.702	745.212
135.497	13.642	978.723	745.420
136.512	13.448	978.448	744.270
137.527	13.459	977.245	743.338
138.541	13.420	977.147	743.023
139.556	13.382	976.113	742.002
140.570	13.499	975.097	741.688
141.585	13.508	974.449	741.170
142.600	13.621	973.737	741.068
143.614	13.667	972.654	740.384
144.629	13.525	972.206	739.343
145.643	13.631	971.361	739.108
146.658	13.701	970.203	738.474
147.673	13.627	969.448	737.503
148.687	13.614	968.414	736.593
149.702	13.536	967.743	735.672
150.716	13.528	966.703	734.781
151.731	13.453	966.103	733.928
152.746	13.414	965.700	733.384
153.760	13.561	964.817	733.300
154.775	13.565	963.861	732.525
155.789	13.674	963.010	732.295
156.804	13.676	962.417	731.789
157.819	13.516	961.952	730.662
158.833	13.600	961.195	730.395
159.848	13.656	960.445	730.006
160.862	13.754	959.511	729.662
161.877	13.782	958.537	728.979
162.892	13.578	957.665	727.358
163.906	13.612	956.758	726.755
164.921	13.604	956.027	726.099
165.935	13.614	955.270	725.503
166.950	13.672	954.352	724.996
167.964	13.695	953.510	724.393
168.979	13.659	952.165	723.149
169.994	13.708	951.441	722.750
171.008	13.630	950.414	721.563
172.023	13.728	949.616	721.321
173.037	13.566	949.717	720.629
174.052	13.740	948.399	720.321
175.067	13.722	947.633	719.600
176.081	13.794	946.747	719.175
177.096	13.602	945.880	717.620
178.110	13.733	945.143	717.565
179.125	13.666	944.551	716.761
180.140	13.734	943.474	716.175
181.154	13.740	942.906	715.707
182.169	13.769	942.406	715.390
183.183	13.873	941.424	715.028
184.198	13.872	940.913	714.573
185.213	13.824	940.046	713.645
186.227	14.027	939.458	714.008
187.242	13.900	939.427	713.376
188.256	13.856	938.679	712.556
189.271	13.967	937.635	712.176
190.286	14.027	936.534	711.534
191.300	13.893	936.262	710.688
192.315	13.694	935.497	709.193
193.329	13.619	934.723	708.224
194.344	13.747	933.861	708.056
195.359	13.776	933.539	707.871
196.373	13.843	933.109	707.770
197.388	13.895	932.579	707.526
198.402	13.980	932.031	707.409
199.417	14.098	931.548	707.483
200.432	14.001	930.845	706.473
201.446	14.125	930.693	706.822
202.461	14.190	929.985	706.500
203.475	14.303	929.498	706.543
204.490	14.217	928.815	705.600
205.504	14.171	928.017	704.736
206.519	14.205	927.225	704.217
207.534	14.151	926.168	703.121
208.548	14.182	925.803	702.914
209.563	14.081	925.278	702.028
210.577	14.168	924.390	701.660
211.592	14.174	923.659	701.065
212.607	14.190	923.231	700.747
213.621	14.488	922.330	701.255
214.636	14.231	922.036	699.888
215.650	14.356	921.145	699.677
216.665	14.357	920.525	699.146
217.680	14.349	920.375	698.938
218.694	14.334	919.850	698.415
219.709	14.359	919.017	697.823
220.723	14.447	918.306	697.592
221.738	14.399	917.795	696.942
222.753	14.217	917.222	695.682
223.767	14.474	915.773	695.593
224.782	14.498	915.206	695.204
225.796	14.592	914.213	694.780
226.811	14.465	914.107	694.107
227.826	14.564	913.245	693.805
228.840	14.450	912.524	692.718
229.855	14.458	912.127	692.391
230.869	14.548	910.944	691.807
231.884	14.519	910.537	691.314
232.899	14.403	909.814	690.223
233.913	14.381	909.202	689.606
234.928	14.380	908.568	689.061
235.942	14.470	907.872	688.845
236.957	14.433	907.050	688.005
237.972	14.383	906.555	687.365
238.986	14.459	905.801	687.045
240.001	14.537	904.985	686.688
241.015	14.448	904.326	685.761
242.030	14.476	903.453	685.152
243.045	14.657	903.098	685.566
244.059	14.681	902.686	685.293
245.074	14.672	901.672	684.423
246.088	14.601	901.325	683.810
247.103	14.722	900.478	683.599
248.117	14.560	900.272	682.719
249.132	14.763	899.289	682.746
250.147	14.741	899.473	682.733
251.161	14.986	898.054	682.598
252.176	15.007	897.318	682.063
253.190	14.954	896.584	681.228
254.205	15.010	896.303	681.184
255.220	15.053	895.607	680.769
256.234	15.075	894.639	680.061
257.249	15.076	894.096	679.591
258.263	15.068	893.742	679.231
259.278	14.980	893.218	678.416
260.293	14.996	892.782	678.088
261.307	15.090	892.328	678.064
262.322	15.288	891.197	677.945
263.336	15.111	890.962	676.991
264.351	15.240	890.132	676.824
265.366	15.240	889.737	676.464
266.380	15.269	889.178	676.095
267.395	15.104	888.572	674.910
268.409	15.161	887.773	674.471
269.424	15.177	886.927	673.836
270.439	15.269	885.909	673.369
271.453	15.193	885.337	672.573
272.468	15.165	884.594	671.834
273.482	15.182	883.972	671.369
274.497	15.118	883.648	670.811
275.512	15.222	882.446	670.255
276.526	15.309	881.861	670.099
277.541	15.219	881.650	669.518
278.555	15.285	880.888	669.145
279.570	15.266	879.957	668.302
280.585	15.310	880.096	668.524
281.599	15.470	879.261	668.469
282.614	15.487	878.719	668.065
283.628	15.352	878.122	667.015
284.643	15.387	877.530	666.642
285.657	15.418	876.614	666.012
286.672	15.339	876.244	665.357
287.687	15.520	875.472	665.433
288.701	15.392	875.178	664.641
289.716	15.476	874.632	664.500
290.730	15.496	873.814	663.898
291.745	15.589	873.088	663.655
292.760	15.515	872.494	662.854
293.774	15.423	872.255	662.251
294.789	15.624	871.090	662.100
295.803	15.637	870.696	661.794
296.818	15.583	870.295	661.219
297.833	15.488	869.611	660.267
298.847	15.519	868.965	659.839
299.862	15.579	868.349	659.549
300.876	15.633	867.644	659.165
301.891	15.555	867.260	658.510
302.906	15.566	866.614	658.005
303.920	15.782	865.533	657.969
304.935	15.766	864.975	657.426
305.949	15.816	864.424	657.142
306.964	15.836	863.758	656.656
307.979	15.760	863.588	656.171
308.993	15.754	863.086	655.711
310.008	15.850	862.192	655.348
311.022	15.922	861.516	655.056
312.037	15.965	860.948	654.731
313.052	15.915	860.453	654.104
314.066	15.800	859.746	653.063
315.081	15.856	859.325	652.901
316.095	15.627	858.986	651.700
317.110	15.845	858.414	652.050
318.125	15.843	857.559	651.337
319.139	15.825	857.397	651.089
320.154	15.913	856.763	650.887
321.168	15.787	856.225	649.935
322.183	15.935	855.490	649.892
323.197	15.914	855.056	649.423
324.212	15.844	854.191	648.436
325.227	16.049	853.795	648.870
326.241	16.062	853.058	648.303
327.256	15.867	852.545	647.106
328.270	16.084	852.041	647.497
329.285	15.933	851.680	646.588
330.300	16.068	850.880	646.440
331.314	15.944	850.391	645.538
332.329	15.965	849.963	645.237
333.343	16.001	849.321	644.829
334.358	16.168	848.512	644.796
335.373	16.053	848.330	644.161
336.387	16.205	847.365	643.950
337.402	16.303	846.841	643.870
338.416	16.141	846.440	642.891
339.431	16.328	845.939	643.166
340.446	16.238	845.592	642.502
341.460	16.335	844.612	642.071
342.475	16.160	844.441	641.216
343.489	16.371	843.820	641.490
344.504	16.356	843.283	640.968
345.519	16.423	842.920	640.892
346.533	16.526	841.940	640.478
347.548	16.432	841.752	639.922
348.562	16.359	841.332	639.272
349.577	16.245	841.018	638.546
350.592	16.310	840.207	638.118
351.606	16.230	839.551	637.260
352.621	16.235	839.101	636.883
353.635	16.519	838.423	637.379
354.650	16.295	838.293	636.381
355.665	16.374	837.580	636.082
356.679	16.522	837.054	636.181
357.694	16.419	836.457	635.284
358.708	16.393	836.160	634.906
359.723	16.396	835.257	634.178
360.738	16.495	834.923	634.237
361.752	16.400	834.700	633.655
362.767	16.616	834.176	634.011
363.781	16.662	833.510	633.622
364.796	16.553	833.528	633.172
365.810	16.576	833.064	632.848
366.825	16.713	832.215	632.659
367.840	16.799	832.013	632.772
368.854	16.827	831.373	632.331
369.869	16.701	831.163	631.645
370.883	16.787	830.567	631.457
371.898	16.733	829.663	630.515
372.913	16.767	829.267	630.285
373.927	16.788	828.522	629.739
374.942	16.713	828.113	629.097
375.956	16.864	827.031	628.778
376.971	16.884	826.716	628.555
377.986	16.854	826.278	628.056
379.000	17.037	825.652	628.201
380.015	16.972	825.315	627.652
381.029	16.807	824.921	626.686
382.044	17.015	824.103	626.778
383.059	17.143	823.473	626.716
384.073	16.988	823.063	625.774
385.088	16.950	822.833	625.403
386.102	16.862	822.226	624.563
387.117	16.918	821.469	624.140
388.132	16.855	821.059	623.540
389.146	16.936	820.539	623.387
390.161	16.975	819.776	622.899
391.175	16.955	820.065	622.987
392.190	17.040	819.672	622.946
393.205	17.140	818.682	622.508
394.219	17.206	818.304	622.406
395.234	16.960	817.853	621.105
396.248	16.914	817.311	620.471
397.263	16.916	816.885	620.098
398.278	17.018	816.557	620.171
399.292	16.873	815.721	618.950
400.307	17.065	815.166	619.174
401.321	16.883	815.314	618.569
402.336	17.062	814.613	618.633
403.350	17.021	814.470	618.323
404.365	16.940	814.272	617.822
405.380	17.079	813.817	617.926
406.394	17.114	813.219	617.547
407.409	17.361	812.549	617.880
408.423	17.334	811.911	617.243
409.438	17.343	811.512	616.916
410.453	17.374	811.076	616.644
411.467	17.391	810.606	616.294
412.482	17.314	810.548	615.914
413.496	17.549	809.727	616.086
414.511	17.523	809.368	615.665
415.526	17.572	809.075	615.566
416.540	17.475	808.782	614.936
417.555	17.487	807.981	614.319
418.569	17.515	807.627	614.094
419.584	17.352	807.431	613.302
420.599	17.489	806.656	613.153
421.613	103.857	1285.351	1444.542
422.628	89.344	1355.107	1444.637
