DTS Sentinel unit serial number:	SN413079Multiplexer serial number:	ORYXHardware model number:	OX4-SRSoftware version number:	ORYX F/W v4.00 Oryx Data Collector v3.7.2.0data status	okinstallation	princeton_trtdifferential loss correction	single-endedforward channel	channel 3reverse channel	N/Adate	2019/09/12time	18:40:03forward acquisition time	15.00reverse acquisition time	0.00gamma	496.2192k internal	0.2318k external	0.2318temperature offset calibration	1.0101default loss term (dB/km)	0.3790temperature slope calibration	1.0000multiplexer offset coefficient	1.0000multiplexer slope coefficient	1.0000fibre end	0.00T internal ref (°C)	33.06T ext. ref 1 (°C)	2.94T ext. ref 2 (°C)	27.62length (m)	temperature (°C)	Stokes	anti-Stokes-747.200	-113.090	-0.292	0.058
-746.185	-114.011	-0.647	-0.127
-745.171	535.533	-0.185	-0.445
-744.156	-129.737	0.542	0.076
-743.142	65.594	-0.481	0.493
-742.127	800.000	0.116	0.382
-741.112	11.911	-0.464	-0.361
-740.098	3.955	-0.537	0.397
-739.083	800.000	0.097	-0.402
-738.069	-34.685	0.390	0.216
-737.054	800.000	0.111	0.449
-736.039	-36.557	0.163	-0.088
-735.025	-157.994	0.671	-0.040
-734.010	-148.223	0.404	-0.034
-732.996	-200.000	-0.179	1.078
-731.981	283.966	-0.256	-0.466
-730.966	-79.754	0.634	0.216
-729.952	429.416	-0.431	0.942
-728.937	108.617	-0.382	-0.462
-727.923	573.448	0.194	-0.479
-726.908	-200.000	0.067	0.505
-725.894	-200.000	0.002	0.287
-724.879	-113.730	0.447	-0.088
-723.864	-135.033	-0.584	-0.071
-722.850	800.000	0.048	0.142
-721.835	-91.919	-1.012	0.290
-720.821	626.693	-0.093	-0.238
-719.806	-48.248	-0.604	0.295
-718.791	-200.000	0.007	-0.365
-717.777	40.394	-0.410	0.373
-716.762	187.297	0.471	-0.710
-715.748	-83.765	0.427	0.138
-714.733	206.558	0.566	-0.891
-713.718	800.000	-0.132	0.477
-712.704	664.688	0.151	0.393
-711.689	108.785	-0.527	-0.637
-710.675	18.598	0.506	-0.409
-709.660	20.028	0.130	-0.106
-708.645	234.816	-0.375	0.626
-707.631	-80.347	-1.020	-0.344
-706.616	223.194	-0.068	0.112
-705.602	90.563	0.202	0.229
-704.587	204.326	-0.077	0.121
-703.572	58.986	0.339	-0.337
-702.558	-94.790	-0.314	0.086
-701.543	69.057	-0.654	-0.679
-700.529	-101.666	0.741	-0.182
-699.514	-0.854	-0.508	-0.364
-698.499	259.372	-0.534	-0.931
-697.485	27.331	0.370	-0.314
-696.470	444.128	0.240	0.531
-695.456	-144.111	-0.725	0.069
-694.441	90.681	0.884	-1.001
-693.426	-17.134	0.128	-0.082
-692.412	-109.752	-0.198	0.042
-691.397	-200.000	-0.063	0.566
-690.383	-54.267	0.279	0.128
-689.368	76.255	-0.336	0.360
-688.354	-159.829	1.113	0.062
-687.339	179.411	0.092	0.137
-686.324	118.557	-0.443	-0.552
-685.310	6.845	0.786	0.591
-684.295	401.582	0.272	-0.577
-683.281	-42.762	0.090	-0.046
-682.266	-107.918	0.242	0.053
-681.251	369.167	-0.293	0.599
-680.237	242.224	-0.406	0.685
-679.222	45.444	-0.272	-0.253
-678.208	-114.091	0.840	0.164
-677.193	800.000	0.209	0.744
-676.178	-75.525	-0.668	-0.240
-675.164	-67.129	-0.907	-0.361
-674.149	-200.000	0.111	-0.702
-673.135	-140.902	-0.396	-0.041
-672.120	-200.000	-0.134	-0.640
-671.105	-118.527	-0.578	-0.103
-670.091	254.643	0.214	-0.370
-669.076	-66.167	0.522	0.210
-668.062	800.000	-0.261	0.780
-667.047	-200.000	0.006	0.310
-666.032	-192.564	-0.038	-0.000
-665.018	-200.000	-0.009	0.382
-664.003	175.225	-0.166	-0.243
-662.989	48.106	-0.297	0.280
-661.974	-6.796	0.477	0.327
-660.959	-40.857	-1.050	-0.548
-659.945	652.689	0.276	-0.713
-658.930	-108.422	0.391	0.085
-657.916	9.142	0.471	-0.359
-656.901	800.000	-0.178	-0.706
-655.886	25.997	-0.150	-0.126
-654.872	259.689	-0.304	0.530
-653.857	-126.463	-0.088	-0.013
-652.843	38.384	-0.619	0.556
-651.828	-69.982	-0.427	0.164
-650.814	-15.466	0.596	-0.384
-649.799	-200.000	0.466	-0.000
-648.784	-200.000	0.006	-0.917
-647.770	-89.973	0.375	-0.110
-646.755	-27.598	0.272	0.160
-645.741	-40.545	0.120	-0.063
-644.726	-39.915	0.334	0.176
-643.711	800.000	-0.170	-0.569
-642.697	23.570	-0.055	0.046
-641.682	-85.624	-0.240	0.075
-640.668	800.000	-0.061	-0.245
-639.653	173.658	-0.251	-0.366
-638.638	-115.528	-0.617	-0.117
-637.624	-104.029	0.507	-0.119
-636.609	800.000	0.026	0.113
-635.595	-148.063	-0.533	-0.045
-634.580	-66.371	0.726	-0.291
-633.565	-200.000	-0.004	-0.393
-632.551	-143.141	0.902	-0.088
-631.536	-107.586	-0.808	-0.178
-630.522	-123.154	0.352	0.057
-629.507	-162.281	-0.656	-0.033
-628.492	11.026	-0.235	-0.181
-627.478	50.782	-0.275	0.262
-626.463	102.176	-0.520	-0.612
-625.449	274.406	-0.080	0.143
-624.434	140.257	-0.067	0.089
-623.419	-200.000	0.019	-0.118
-622.405	275.407	-0.127	0.226
-621.390	-54.479	0.539	0.246
-620.376	-200.000	0.045	-0.271
-619.361	217.062	0.375	0.602
-618.346	225.542	0.438	0.714
-617.332	247.358	0.269	0.457
-616.317	-104.561	-0.306	0.071
-615.303	-117.474	-0.791	-0.144
-614.288	-180.043	0.369	-0.008
-613.273	800.000	0.149	-0.530
-612.259	-200.000	0.050	-0.707
-611.244	17.699	0.209	0.167
-610.230	36.713	-0.347	-0.308
-609.215	-115.450	-0.097	0.018
-608.201	46.868	0.248	-0.233
-607.186	241.245	-0.210	-0.353
-606.171	-200.000	0.032	0.800
-605.157	-140.447	0.829	0.087
-604.142	-15.332	0.161	-0.103
-603.128	241.918	0.362	-0.609
-602.113	800.000	-0.230	1.002
-601.098	340.744	0.141	0.277
-600.084	135.572	0.333	-0.436
-599.069	-200.000	0.038	0.403
-598.055	-47.152	-0.483	-0.237
-597.040	-107.776	1.395	0.306
-596.025	338.345	-0.472	0.925
-595.011	136.410	-0.437	0.574
-593.996	-77.530	0.298	0.104
-592.982	89.930	-0.396	0.446
-591.967	-2.891	-0.614	-0.432
-590.952	-66.974	0.924	-0.367
-589.938	82.370	0.296	-0.323
-588.923	-1.120	0.615	0.438
-587.909	-63.837	0.105	0.043
-586.894	306.063	-0.224	-0.419
-585.879	736.137	-0.206	-0.557
-584.865	800.000	-0.149	0.586
-583.850	-80.610	1.018	0.341
-582.836	-200.000	0.510	0.002
-581.821	229.592	-0.159	0.261
-580.806	-46.894	-0.309	-0.152
-579.792	-42.854	-0.511	0.261
-578.777	408.489	-0.378	0.804
-577.763	-85.585	0.782	-0.244
-576.748	-63.827	-0.098	0.040
-575.733	427.014	0.130	0.281
-574.719	-200.000	-0.811	0.004
-573.704	-116.230	0.113	-0.021
-572.690	-64.288	0.879	0.360
-571.675	-200.000	0.001	-0.041
-570.661	-46.838	1.057	-0.520
-569.646	-168.522	0.324	-0.012
-568.631	29.687	-0.163	0.139
-567.617	1.446	-0.795	0.575
-566.602	145.713	0.390	0.526
-565.588	-200.000	0.016	0.260
-564.573	-8.165	-0.734	0.497
-563.558	-200.000	0.009	-0.447
-562.544	-154.653	0.140	-0.009
-561.529	-165.616	-0.495	-0.022
-560.515	88.526	-0.154	0.172
-559.500	76.515	-0.092	0.098
-558.485	620.309	-0.071	0.179
-557.471	-147.876	0.855	-0.072
-556.456	800.000	-0.178	0.545
-555.442	-200.000	-0.191	0.873
-554.427	5.763	-0.540	0.401
-553.412	-200.000	-0.113	-0.595
-552.398	-157.101	0.297	-0.018
-551.383	106.356	-0.256	-0.305
-550.369	-200.000	-0.063	-0.361
-549.354	3.177	0.198	0.145
-548.339	-200.000	0.001	0.569
-547.325	89.118	-0.248	-0.277
-546.310	354.509	0.369	-0.738
-545.296	-10.397	0.292	-0.194
-544.281	-23.817	-0.546	0.329
-543.266	562.340	0.235	0.571
-542.252	-200.000	-0.180	0.001
-541.237	56.577	0.098	-0.095
-540.223	24.811	-0.317	-0.264
-539.208	63.473	0.368	-0.370
-538.193	74.723	0.414	0.437
-537.179	-200.000	0.118	0.937
-536.164	12.219	0.551	-0.426
-535.150	25.989	-0.183	-0.153
-534.135	-59.178	0.395	0.171
-533.121	-74.081	-0.432	-0.157
-532.106	-136.367	-0.574	0.067
-531.091	-39.455	-0.314	-0.165
-530.077	-3.463	-0.292	0.204
-529.062	-161.104	-0.490	0.026
-528.048	-200.000	-0.029	0.271
-527.033	-126.575	0.511	0.076
-526.018	58.047	0.297	0.292
-525.004	-135.279	0.813	0.098
-523.989	31.034	-0.272	0.234
-522.975	800.000	-0.063	-0.206
-521.960	-121.707	0.694	0.115
-520.945	-55.881	-0.552	0.247
-519.931	-51.834	0.747	-0.349
-518.916	-117.049	1.270	-0.233
-517.902	615.168	-0.163	0.410
-516.887	-171.891	0.341	0.011
-515.872	242.414	0.241	-0.405
-514.858	-200.000	0.080	0.570
-513.843	800.000	-0.131	0.408
-512.829	103.407	-0.111	-0.131
-511.814	800.000	0.168	-0.683
-510.799	-115.006	-0.256	-0.049
-509.785	33.796	-0.871	0.760
-508.770	46.870	-0.192	-0.179
-507.756	-200.000	0.034	-0.320
-506.741	-78.598	-0.575	-0.197
-505.726	45.745	0.487	-0.451
-504.712	-127.617	-0.356	-0.052
-503.697	105.736	0.427	0.506
-502.683	-11.510	0.249	0.164
-501.668	1.222	0.370	0.267
-500.653	800.000	-0.069	0.262
-499.639	327.747	0.074	0.142
-498.624	-200.000	-0.057	0.547
-497.610	-200.000	0.136	-0.804
-496.595	-124.418	0.905	-0.141
-495.581	-200.000	-0.038	-0.810
-494.566	46.897	0.428	0.398
-493.551	-22.501	-0.762	-0.462
-492.537	-136.602	0.732	-0.085
-491.522	-200.000	0.028	0.642
-490.508	-200.000	0.026	0.267
-489.493	-89.218	-0.187	0.055
-488.478	-19.774	0.330	0.205
-487.464	-72.699	-0.692	0.255
-486.449	241.450	-0.451	0.755
-485.435	-99.923	1.092	0.273
-484.420	-16.938	-0.392	-0.248
-483.405	469.934	0.129	-0.291
-482.391	-8.924	0.165	0.110
-481.376	-89.784	0.901	-0.264
-480.362	11.456	-0.350	-0.269
-479.347	-59.995	-0.797	-0.341
-478.332	800.000	-0.183	-0.754
-477.318	-4.235	-0.290	-0.201
-476.303	177.505	0.068	-0.099
-475.289	-200.000	-0.050	-0.353
-474.274	724.929	-0.039	0.104
-473.259	800.000	-0.027	0.097
-472.245	800.000	-0.140	-0.551
-471.230	-200.000	-0.070	-0.443
-470.216	-78.139	-1.092	0.376
-469.201	-59.170	0.448	0.194
-468.186	54.438	-0.264	0.255
-467.172	800.000	-0.182	0.686
-466.157	-39.344	0.466	-0.245
-465.143	-35.272	0.460	-0.250
-464.128	78.015	-0.869	0.928
-463.113	18.293	-0.218	0.175
-462.099	-22.740	0.657	-0.397
-461.084	0.494	0.300	-0.214
-460.070	-48.251	-1.049	-0.507
-459.055	123.028	-0.423	-0.531
-458.040	127.981	0.333	0.424
-457.026	-95.519	-0.846	0.227
-456.011	-61.979	-0.589	0.246
-454.997	-74.292	0.492	-0.178
-453.982	789.426	0.156	-0.428
-452.968	-200.000	0.035	-0.918
-451.953	67.795	0.400	-0.410
-450.938	50.476	0.519	0.492
-449.924	683.307	0.119	-0.310
-448.909	-200.000	-0.012	0.672
-447.895	434.800	-0.337	-0.734
-446.880	-200.000	0.025	-0.111
-445.865	272.656	0.102	0.180
-444.851	-147.359	-0.959	-0.081
-443.836	-200.000	-0.031	-0.294
-442.822	-200.000	-0.126	-0.729
-441.807	-200.000	0.031	1.020
-440.792	800.000	-0.198	-0.801
-439.778	-200.000	0.046	-0.359
-438.763	56.172	0.246	0.239
-437.749	244.777	-0.389	-0.655
-436.734	28.895	0.677	0.574
-435.719	91.119	0.524	0.588
-434.705	760.182	-0.379	-1.027
-433.690	800.000	0.149	-0.489
-432.676	-200.000	0.079	-0.767
-431.661	-156.353	-0.476	-0.030
-430.646	-101.496	-0.064	0.016
-429.632	-10.258	0.301	0.200
-428.617	189.358	-0.162	-0.242
-427.603	-49.107	-0.232	0.111
-426.588	-98.284	-0.358	-0.092
-425.573	83.849	0.438	0.477
-424.559	-135.294	0.425	-0.051
-423.544	46.443	-0.013	0.012
-422.530	-22.789	0.565	-0.341
-421.515	-1.364	0.617	-0.435
-420.500	-94.060	-0.637	0.175
-419.486	134.725	0.435	-0.564
-418.471	-175.494	-0.462	0.013
-417.457	-200.000	-0.052	-0.699
-416.442	-125.826	0.307	0.046
-415.428	73.926	-0.299	0.313
-414.413	-47.342	-1.097	0.534
-413.398	-200.000	0.180	0.947
-412.384	-200.000	-0.195	0.984
-411.369	346.085	0.274	-0.538
-410.355	104.869	0.536	-0.632
-409.340	81.335	0.404	0.436
-408.325	80.388	-0.198	-0.213
-407.311	-30.585	-0.422	0.239
-406.296	695.973	0.166	0.435
-405.282	-200.000	0.084	0.404
-404.267	502.016	0.396	-0.913
-403.252	47.161	0.494	-0.459
-402.238	391.739	0.254	0.528
-401.223	10.354	0.210	-0.160
-400.209	-94.606	0.224	0.061
-399.194	-200.000	0.052	0.805
-398.179	-200.000	-0.004	-0.527
-397.165	-200.000	0.022	0.287
-396.150	800.000	-0.133	0.488
-395.136	137.720	0.257	0.336
-394.121	-51.519	-0.429	0.200
-393.106	-104.011	-0.192	0.045
-392.092	143.075	0.204	-0.271
-391.077	-166.663	0.186	0.008
-390.063	-19.279	0.222	-0.137
-389.048	427.250	0.291	-0.626
-388.033	743.966	-0.069	-0.186
-387.019	77.798	0.328	-0.349
-386.004	-10.414	-0.324	0.214
-384.990	208.049	-0.591	-0.922
-383.975	21.219	0.375	-0.304
-382.960	-200.000	-0.001	0.448
-381.946	-15.371	-0.482	-0.308
-380.931	-169.936	1.084	-0.039
-379.917	-57.424	-0.653	-0.286
-378.902	-200.000	0.058	-0.485
-377.888	51.607	-0.220	-0.209
-376.873	20.904	0.413	-0.334
-375.858	-60.579	0.466	0.197
-374.844	70.777	-0.416	-0.430
-373.829	-200.000	-0.001	-0.408
-372.815	145.285	0.372	0.497
-371.800	-200.000	-0.008	0.232
-370.785	-200.000	0.274	0.000
-369.771	19.438	-1.132	-0.908
-368.756	-44.206	0.729	0.365
-367.742	280.715	0.111	-0.197
-366.727	-150.233	0.264	0.020
-365.712	-155.671	-0.874	-0.056
-364.698	-200.000	-0.176	-0.806
-363.683	-3.406	-0.212	0.147
-362.669	299.305	-0.162	0.297
-361.654	-87.489	-0.569	0.172
-360.639	-41.355	0.076	-0.039
-359.625	-200.000	-0.071	-0.351
-358.610	2.990	0.495	0.358
-357.596	223.889	-0.272	-0.438
-356.581	-93.674	-1.281	-0.352
-355.566	-44.384	-0.365	0.182
-354.552	99.772	-0.218	0.251
-353.537	-200.000	-0.032	-0.827
-352.523	800.000	-0.174	-0.505
-351.508	-120.354	0.467	-0.079
-350.493	-200.000	0.057	0.266
-349.479	-109.913	1.202	0.251
-348.464	-161.286	0.759	-0.039
-347.450	-161.352	0.854	0.044
-346.435	800.000	-0.067	0.211
-345.420	-77.216	0.589	0.204
-344.406	800.000	0.113	-0.430
-343.391	-90.571	-0.225	-0.065
-342.377	-167.941	0.322	0.013
-341.362	38.954	0.405	0.360
-340.348	94.120	0.096	-0.109
-339.333	-200.000	0.051	0.257
-338.318	-1.759	0.613	-0.430
-337.304	28.050	-0.474	-0.399
-336.289	125.017	-0.679	-0.853
-335.275	-122.391	0.655	0.106
-334.260	-118.333	0.472	0.083
-333.245	-113.948	-0.276	-0.053
-332.231	166.478	-0.091	-0.129
-331.216	135.343	-0.543	0.703
-330.202	349.632	-0.400	0.787
-329.187	800.000	-0.077	0.334
-328.172	800.000	0.146	0.437
-327.158	-27.117	-0.435	0.253
-326.143	-200.000	-0.007	-0.457
-325.129	-200.000	-0.050	0.371
-324.114	3.379	0.349	-0.253
-323.099	-161.704	0.201	0.010
-322.085	-200.000	0.023	0.354
-321.070	-200.000	-0.043	0.229
-320.056	800.000	-0.131	-0.366
-319.041	-200.000	-0.058	0.346
-318.026	107.222	-0.465	-0.550
-317.012	800.000	0.221	0.679
-315.997	106.716	-0.251	0.297
-314.983	-82.610	-0.486	-0.157
-313.968	-23.691	-0.863	-0.515
-312.953	453.859	-0.235	-0.517
-311.939	150.493	0.212	0.287
-310.924	625.326	0.143	0.358
-309.910	-10.853	0.289	0.190
-308.895	100.077	-0.866	1.000
-307.880	81.892	0.228	0.245
-306.866	170.408	0.251	0.357
-305.851	9.243	-0.273	-0.205
-304.837	-200.000	-0.015	-0.720
-303.822	277.012	0.336	-0.595
-302.807	-38.078	-0.492	-0.260
-301.793	800.000	0.116	-0.486
-300.778	-162.989	0.206	-0.010
-299.764	-53.502	-0.248	-0.113
-298.749	-104.846	0.373	0.085
-297.735	800.000	0.121	0.512
-296.720	23.795	0.126	0.103
-295.705	-9.586	0.630	0.418
-294.691	98.497	-0.201	-0.230
-293.676	-116.763	0.337	-0.061
-292.662	-31.874	0.752	-0.419
-291.647	-200.000	0.076	-0.443
-290.632	800.000	0.085	-0.250
-289.618	671.064	0.037	-0.095
-288.603	-116.714	0.168	-0.031
-287.589	800.000	-0.061	0.177
-286.574	-31.799	-0.487	-0.271
-285.559	-34.234	-0.574	-0.314
-284.545	-96.460	0.675	0.177
-283.530	-119.899	-0.289	0.049
-282.516	115.997	0.082	-0.099
-281.501	419.531	-0.165	0.351
-280.486	800.000	0.015	-0.060
-279.472	-21.539	-0.864	0.523
-278.457	95.835	0.342	0.388
-277.443	-45.553	-0.443	-0.218
-276.428	800.000	-0.151	0.557
-275.413	-109.026	-0.619	-0.131
-274.399	3.405	0.764	0.553
-273.384	-110.815	-0.643	-0.132
-272.370	-100.634	-0.525	0.129
-271.355	56.732	0.233	-0.225
-270.340	203.483	-0.158	0.242
-269.326	86.625	0.383	0.420
-268.311	-116.399	-0.447	0.082
-267.297	165.818	-0.469	-0.659
-266.282	-95.299	-0.530	0.142
-265.267	35.086	-0.695	0.605
-264.253	-120.931	0.394	0.066
-263.238	-63.757	-0.924	-0.376
-262.224	-200.000	-0.002	0.194
-261.209	-200.000	0.084	0.738
-260.195	800.000	0.069	0.213
-259.180	739.360	-0.040	-0.107
-258.165	-200.000	-0.075	0.695
-257.151	256.374	-0.188	-0.320
-256.136	-166.431	-0.139	0.006
-255.122	-13.093	-0.528	-0.341
-254.107	-123.933	0.732	-0.114
-253.092	158.221	-0.263	0.362
-252.078	262.599	-0.403	-0.694
-251.063	118.121	-0.527	0.645
-250.049	164.064	0.082	-0.115
-249.034	-30.206	0.126	-0.071
-248.019	800.000	0.085	-0.329
-247.005	287.262	-0.103	0.185
-245.990	148.258	0.161	-0.216
-244.976	568.237	0.267	0.644
-243.961	45.511	-0.361	-0.331
-242.946	154.287	-0.445	0.606
-241.932	511.638	0.405	-0.936
-240.917	401.286	-0.168	0.350
-239.903	-103.392	0.544	-0.127
-238.888	800.000	-0.224	-0.683
-237.873	429.182	0.291	-0.624
-236.859	199.205	-0.265	-0.403
-235.844	-200.000	0.040	0.311
-234.830	502.179	-0.307	-0.705
-233.815	-150.819	-0.523	0.039
-232.800	86.763	0.257	0.282
-231.786	-100.898	-0.601	-0.147
-230.771	-114.257	0.152	-0.029
-229.757	361.280	-0.227	0.451
-228.742	62.579	-0.375	0.371
-227.727	800.000	0.103	-0.432
-226.713	800.000	0.074	0.312
-225.698	190.374	-0.159	0.237
-224.684	77.179	0.129	0.136
-223.669	-73.769	-0.629	0.227
-222.655	159.352	-0.200	-0.276
-221.640	563.313	-0.130	-0.312
-220.625	-14.755	-0.202	-0.128
-219.611	-146.960	-0.625	0.053
-218.596	-141.337	0.246	-0.025
-217.582	112.083	0.166	0.199
-216.567	0.238	-0.329	0.233
-215.552	-200.000	0.013	-0.322
-214.538	-200.000	0.014	0.537
-213.523	737.302	0.276	0.734
-212.509	55.266	0.238	-0.228
-211.494	-15.148	0.355	0.225
-210.479	390.464	-0.070	0.143
-209.465	-147.585	0.812	0.068
-208.450	-84.254	0.181	-0.057
-207.436	-200.000	0.053	0.959
-206.421	231.098	-0.160	0.260
-205.406	23.528	-0.302	0.246
-204.392	-143.787	-0.267	0.025
-203.377	345.506	0.283	-0.551
-202.363	-159.604	0.671	-0.037
-201.348	389.209	0.065	-0.133
-200.333	9.635	0.601	-0.451
-199.319	-170.629	0.182	-0.006
-198.304	39.527	-0.048	0.042
-197.290	194.808	0.217	0.326
-196.275	203.793	0.036	0.056
-195.260	-200.000	0.003	-0.028
-194.246	800.000	-0.119	0.351
-193.231	364.978	-0.251	-0.501
-192.217	-102.799	0.068	0.016
-191.202	180.791	0.260	0.378
-190.187	790.452	-0.361	0.983
-189.173	340.384	0.059	0.115
-188.158	408.359	0.091	-0.190
-187.144	800.000	-0.192	0.665
-186.129	368.759	-0.044	0.089
-185.114	-200.000	0.070	-0.530
-184.100	21.023	-0.159	0.128
-183.085	75.896	-0.273	-0.286
-182.071	-200.000	0.070	0.357
-181.056	107.742	-0.428	-0.505
-180.042	-34.045	0.302	-0.164
-179.027	-200.000	-0.080	0.756
-178.012	195.666	-0.293	-0.441
-176.998	94.757	-0.244	-0.275
-175.983	731.345	-0.335	-0.887
-174.969	-31.446	0.067	-0.037
-173.954	91.633	0.511	0.568
-172.939	800.000	0.217	-0.695
-171.925	51.982	0.191	-0.180
-170.910	-127.416	0.808	-0.116
-169.896	43.176	-0.362	-0.327
-168.881	284.831	0.131	0.234
-167.866	17.786	0.437	-0.344
-166.852	-200.000	0.088	-0.536
-165.837	-11.061	-0.394	-0.257
-164.823	-4.477	0.198	0.135
-163.808	-175.807	-0.160	0.004
-162.793	-200.000	-0.085	-0.609
-161.779	-200.000	-0.043	0.724
-160.764	-125.899	-0.373	-0.056
-159.750	-200.000	0.108	0.591
-158.735	-200.000	-0.122	-0.830
-157.720	57.265	0.677	0.653
-156.706	171.818	-0.285	0.405
-155.691	95.366	-0.550	-0.620
-154.677	734.804	-0.259	0.686
-153.662	-67.644	0.463	0.179
-152.647	61.288	-0.526	0.517
-151.633	-14.567	-0.241	-0.153
-150.618	-126.312	-0.295	-0.044
-149.604	-37.500	0.875	0.462
-148.589	71.552	-0.544	-0.559
-147.574	255.332	0.191	-0.323
-146.560	90.187	0.545	0.602
-145.545	448.042	0.073	-0.159
-144.531	-200.000	-0.012	0.249
-143.516	-57.089	-0.392	0.171
-142.502	-115.939	-0.868	0.160
-141.487	-122.187	-0.964	-0.156
-140.472	173.711	-0.258	0.368
-139.458	-138.358	-0.319	0.035
-138.443	-200.000	-0.049	0.504
-137.429	-200.000	-0.021	-0.194
-136.414	161.749	-0.283	-0.391
-135.399	-163.192	1.085	0.052
-134.385	-100.434	0.804	0.197
-133.370	461.225	0.392	0.863
-132.356	710.058	0.412	1.076
-131.341	-200.000	-0.081	0.469
-130.326	32.977	-0.132	0.113
-129.312	-200.000	0.062	0.354
-128.297	1.365	0.708	-0.503
-127.283	-200.000	0.017	0.190
-126.268	-151.560	-0.160	-0.012
-125.253	231.720	-0.558	-0.903
-124.239	139.292	0.532	-0.691
-123.224	-80.717	-0.377	0.124
-122.210	141.583	0.181	0.237
-121.195	-200.000	-0.084	-0.743
-120.180	-21.185	0.302	-0.183
-119.166	-200.000	0.058	-0.887
-118.151	-28.115	0.643	0.367
-117.137	-88.381	-0.864	0.255
-116.122	-74.351	-0.401	-0.143
-115.107	305.337	-0.194	0.357
-114.093	442.974	0.379	-0.821
-113.078	37.336	-0.765	-0.670
-112.064	-136.289	-0.325	-0.037
-111.049	139.850	-0.253	-0.330
-110.034	256.395	-0.086	-0.146
-109.020	-62.474	-0.408	-0.167
-108.005	-14.222	-0.441	-0.280
-106.991	120.820	0.486	-0.597
-105.976	60.551	0.508	-0.497
-104.962	-200.000	-0.080	0.383
-103.947	800.000	0.094	-0.292
-102.932	137.652	0.520	-0.673
-101.918	123.053	-0.221	-0.274
-100.903	96.130	-0.134	-0.152
-99.889	-111.155	-0.502	0.101
-98.874	-129.821	-1.150	-0.156
-97.859	-81.128	0.507	0.166
-96.845	-83.021	0.375	0.119
-95.830	5.075	0.169	-0.123
-94.816	78.662	-0.180	0.190
-93.801	-86.793	0.399	0.120
-92.786	-101.713	-0.365	-0.087
-91.772	-85.882	0.481	-0.147
-90.757	210.718	0.578	-0.896
-89.743	800.000	-0.236	0.730
-88.728	-200.000	-0.029	-0.294
-87.713	-30.408	0.325	0.182
-86.699	26.623	1.005	0.830
-85.684	-17.354	0.427	-0.265
-84.670	593.733	0.324	-0.789
-83.655	-142.132	1.022	0.100
-82.640	242.349	0.080	-0.132
-81.626	-200.000	0.208	1.193
-80.611	589.605	-0.261	0.634
-79.597	-43.132	0.334	0.167
-78.582	-200.000	-0.035	0.684
-77.567	-193.174	0.367	0.003
-76.553	84.056	-1.014	-1.092
-75.538	800.000	0.050	0.139
-74.524	681.742	-0.240	0.616
-73.509	226.260	-0.261	0.418
-72.494	321.850	-0.092	0.172
-71.480	-28.129	0.587	-0.335
-70.465	-76.022	-0.538	0.187
-69.451	288.458	-0.187	0.333
-68.436	-11.173	0.205	0.133
-67.422	-98.366	-0.315	0.079
-66.407	-200.000	-0.034	-0.278
-65.392	800.000	-0.235	0.845
-64.378	-102.676	-0.027	-0.006
-63.363	122.417	-0.525	-0.647
-62.349	-168.696	0.307	-0.011
-61.334	21.898	-0.688	-0.553
-60.319	-200.000	0.039	0.624
-59.305	-200.000	-0.237	-1.101
-58.290	294.028	0.563	1.013
-57.276	469.826	0.758	1.677
-56.261	-200.000	95.425	571.826
-55.246	640.424	1365.934	3425.760
-54.232	201.352	2530.266	3838.815
-53.217	116.356	2148.312	2594.207
-52.203	43.296	1698.448	1528.276
-51.188	35.994	1513.381	1312.189
-50.173	33.828	1486.017	1273.900
-49.159	53.831	1536.997	1454.498
-48.144	54.604	1554.941	1476.694
-47.130	36.414	1513.393	1314.849
-46.115	33.107	1498.439	1279.470
-45.100	32.971	1496.278	1276.649
-44.086	33.067	1493.623	1274.985
-43.071	33.205	1491.356	1273.928
-42.057	32.920	1491.306	1271.916
-41.042	32.984	1489.273	1270.559
-40.027	33.066	1486.717	1268.881
-39.013	33.055	1485.453	1267.676
-37.998	32.937	1484.229	1265.790
-36.984	33.164	1483.214	1266.398
-35.969	33.320	1481.506	1265.934
-34.954	33.118	1480.454	1263.631
-33.940	33.024	1479.262	1261.936
-32.925	33.205	1477.089	1261.240
-31.911	33.035	1475.685	1258.857
-30.896	33.060	1475.035	1258.419
-29.881	33.289	1473.174	1258.305
-28.867	33.151	1472.983	1257.173
-27.852	33.187	1470.295	1255.071
-26.838	33.040	1470.201	1253.964
-25.823	32.992	1469.024	1252.589
-24.809	33.031	1466.238	1250.425
-23.794	33.188	1465.031	1250.385
-22.779	33.163	1463.888	1249.196
-21.765	33.218	1462.500	1248.321
-20.750	33.057	1461.601	1246.444
-19.736	33.086	1460.549	1245.690
-18.721	32.981	1460.239	1244.683
-17.706	32.919	1459.299	1243.424
-16.692	32.990	1457.890	1242.643
-15.677	32.971	1456.565	1241.339
-14.663	33.277	1455.587	1242.465
-13.648	33.146	1453.890	1240.109
-12.633	33.175	1452.958	1239.454
-11.619	33.080	1452.608	1238.483
-10.604	32.822	1451.509	1235.809
-9.590	32.810	1451.843	1235.961
-8.575	32.907	1450.564	1235.462
-7.560	32.984	1448.912	1234.506
-6.546	32.899	1449.048	1234.018
-5.531	33.065	1447.864	1234.048
-4.517	32.901	1446.464	1231.734
-3.502	33.084	1445.660	1232.191
-2.487	32.856	1444.459	1229.635
-1.473	33.130	1442.691	1229.865
-0.458	32.985	1441.829	1228.139
0.556	34.111	1432.890	1217.375
1.571	31.166	1406.222	1176.091
2.586	27.491	1346.799	1104.066
3.600	25.230	1267.805	1026.299
4.615	24.167	1219.917	981.591
5.629	20.837	1165.343	920.034
6.644	11.673	1079.999	807.513
7.659	4.266	1038.372	741.039
8.673	3.120	1033.634	732.136
9.688	3.107	1029.097	728.799
10.702	2.745	1027.282	725.736
11.717	2.789	1025.130	724.362
12.731	6.187	1029.037	743.137
13.746	15.373	1042.069	796.267
14.761	23.255	1051.150	840.719
15.775	24.811	1053.610	850.008
16.790	25.208	1051.913	850.447
17.804	24.706	1053.087	848.938
18.819	24.604	1051.196	846.857
19.834	24.943	1050.766	848.040
20.848	24.982	1050.406	847.859
21.863	24.859	1049.714	846.642
22.877	24.821	1048.950	845.774
23.892	25.029	1048.302	846.159
24.907	24.742	1047.978	844.467
25.921	24.854	1047.411	844.463
26.936	24.806	1046.194	843.181
27.950	24.906	1045.278	842.837
28.965	24.781	1044.425	841.488
29.980	24.818	1041.921	839.572
30.994	24.973	1041.439	839.833
32.009	24.934	1040.242	838.612
33.023	24.777	1040.560	838.060
34.038	25.041	1039.529	838.392
35.053	24.746	1038.541	836.141
36.067	24.994	1037.461	836.353
37.082	25.141	1036.262	836.001
38.096	25.039	1035.875	835.136
39.111	25.146	1035.392	835.174
40.126	25.186	1034.718	834.744
41.140	25.126	1033.250	833.206
42.155	24.871	1031.624	830.638
43.169	24.733	1031.012	829.428
44.184	24.669	1030.413	828.578
45.199	24.378	1030.414	827.156
46.213	24.627	1028.749	826.901
47.228	24.372	1027.707	824.810
48.242	24.863	1026.827	826.297
49.257	25.119	1025.826	826.600
50.271	24.906	1025.612	825.374
51.286	24.749	1025.013	824.094
52.301	24.926	1024.626	824.525
53.315	24.863	1024.341	823.935
54.330	24.828	1022.554	822.262
55.344	24.875	1023.002	822.767
56.359	24.956	1019.815	820.502
57.374	24.543	1020.207	818.852
58.388	25.008	1019.372	820.236
59.403	24.900	1019.450	819.734
60.417	24.688	1018.512	817.935
61.432	24.633	1017.553	816.843
62.447	24.608	1017.039	816.244
63.461	24.889	1016.121	816.718
64.476	24.986	1014.363	815.673
65.490	24.970	1013.979	815.217
66.505	24.386	1013.994	812.500
67.520	24.764	1012.005	812.553
68.534	24.749	1012.089	812.480
69.549	24.646	1010.982	811.051
70.563	24.788	1009.577	810.496
71.578	24.234	1009.932	808.197
72.593	24.466	1009.179	808.576
73.607	24.128	1008.193	806.184
74.622	24.034	1007.001	804.733
75.636	24.418	1005.780	805.420
76.651	24.668	1004.799	805.690
77.666	24.418	1005.092	804.729
78.680	24.385	1004.853	804.316
79.695	24.605	1003.442	804.107
80.709	24.371	1003.631	803.134
81.724	24.636	1002.133	803.052
82.739	24.620	1001.152	802.126
83.753	24.840	1000.361	802.407
84.768	24.680	1000.764	801.941
85.782	25.289	999.545	803.620
86.797	25.223	999.402	803.141
87.812	25.708	997.280	803.531
88.826	25.408	996.312	801.341
89.841	24.978	996.901	799.821
90.855	25.343	995.083	799.920
91.870	25.463	994.297	799.751
92.884	25.372	994.002	799.039
93.899	25.164	994.301	798.281
94.914	25.100	992.734	796.669
95.928	25.149	991.994	796.223
96.943	25.233	990.993	795.719
97.957	24.881	989.991	793.287
98.972	25.092	988.274	792.773
99.987	24.870	987.804	791.344
101.001	24.928	987.604	791.370
102.016	24.788	988.353	791.283
103.030	25.136	985.605	790.546
104.045	25.160	984.343	789.571
105.060	25.031	984.456	789.022
106.074	24.912	983.265	787.477
107.089	24.813	982.735	786.546
108.103	24.977	982.237	786.800
109.118	25.214	980.378	786.276
110.133	25.097	979.433	784.940
111.147	24.917	978.219	783.111
112.162	24.779	977.882	782.164
113.176	24.327	977.151	779.539
114.191	24.540	975.947	779.437
115.206	24.797	974.471	779.310
116.220	24.674	973.443	777.886
117.235	24.207	974.675	776.765
118.249	24.514	973.151	776.816
119.264	24.379	972.905	775.965
120.279	24.555	970.306	774.585
121.293	24.077	971.168	773.133
122.308	24.393	969.605	773.188
123.322	24.545	969.393	773.609
124.337	24.137	968.203	770.824
125.352	24.504	966.414	770.916
126.366	23.984	965.610	767.964
127.381	24.156	963.782	767.185
128.395	24.585	964.185	769.284
129.410	24.879	964.309	770.583
130.424	25.028	962.860	769.995
131.439	24.614	962.435	767.808
132.454	24.874	962.319	768.763
133.468	24.942	961.215	768.105
134.483	24.658	961.111	766.735
135.497	24.908	959.204	766.219
136.512	25.076	958.302	766.147
137.527	25.277	957.967	766.672
138.541	25.101	957.902	765.801
139.556	25.174	956.328	764.786
140.570	25.303	954.930	764.150
141.585	25.149	955.321	763.736
142.600	25.396	954.129	763.768
143.614	25.264	953.124	762.333
144.629	25.141	953.776	762.265
145.643	25.412	952.592	762.401
146.658	25.613	950.332	761.376
147.673	25.222	950.179	759.532
148.687	24.828	948.776	756.680
149.702	24.581	948.835	755.615
150.716	25.379	946.638	757.162
151.731	24.885	945.599	754.182
152.746	24.949	945.431	754.253
153.760	24.919	944.850	753.594
154.775	25.113	943.342	753.141
155.789	25.552	942.049	753.884
156.804	25.043	941.929	751.586
157.819	25.061	942.396	751.971
158.833	25.209	940.504	751.013
159.848	25.316	940.731	751.577
160.862	25.680	939.079	751.712
161.877	25.339	938.055	749.402
162.892	25.190	937.351	748.152
163.906	25.710	935.997	749.170
164.921	25.163	935.784	746.655
165.935	25.118	935.243	745.971
166.950	25.359	934.048	745.953
167.964	25.155	932.879	744.106
168.979	25.233	932.510	744.069
169.994	25.163	930.721	742.287
171.008	25.039	930.038	741.163
172.023	25.481	928.925	742.037
173.037	25.465	927.891	741.079
174.052	25.618	926.415	740.465
175.067	25.387	926.333	739.383
176.081	25.055	926.001	737.686
177.096	25.317	923.911	737.031
178.110	24.931	924.499	735.851
179.125	24.749	922.985	733.834
180.140	24.844	921.611	733.063
181.154	24.633	921.949	732.402
182.169	24.692	922.255	732.823
183.183	25.454	920.445	734.435
184.198	25.558	920.453	734.804
185.213	25.378	919.835	733.508
186.227	25.204	918.793	731.904
187.242	25.281	918.573	731.979
188.256	24.953	918.049	730.160
189.271	25.459	917.741	731.911
190.286	25.323	917.328	730.963
191.300	25.386	915.936	730.047
192.315	24.908	914.225	726.675
193.329	24.246	913.806	723.595
194.344	24.059	912.370	721.635
195.359	24.604	912.604	723.964
196.373	24.976	912.623	725.421
197.388	25.658	912.057	727.667
198.402	25.657	910.797	726.595
199.417	25.209	910.946	724.837
200.432	25.337	910.615	725.030
201.446	25.685	910.089	725.947
202.461	25.590	909.270	724.847
203.475	25.517	909.266	724.488
204.490	25.379	908.095	722.932
205.504	24.633	906.027	718.229
206.519	24.534	905.300	717.190
207.534	25.111	905.456	719.565
208.548	25.361	904.468	719.718
209.563	25.476	905.129	720.644
210.577	25.488	903.602	719.414
211.592	25.147	903.549	717.939
212.607	25.573	904.304	720.182
213.621	25.814	902.723	719.823
214.636	25.106	902.568	716.805
215.650	25.362	901.786	717.145
216.665	25.614	900.931	717.405
217.680	25.511	900.628	716.692
218.694	25.408	900.281	715.943
219.709	25.052	900.276	714.455
220.723	25.353	898.567	714.231
221.738	25.412	898.158	714.077
222.753	25.340	896.922	712.748
223.767	25.261	896.724	712.214
224.782	25.597	894.820	711.969
225.796	25.611	895.390	712.415
226.811	25.945	894.432	712.908
227.826	25.672	893.973	711.402
228.840	24.904	892.171	706.874
229.855	24.913	892.357	706.996
230.869	24.885	892.004	706.542
231.884	25.061	889.848	705.465
232.899	24.851	890.017	704.709
233.913	25.134	890.239	705.937
234.928	25.513	888.364	705.878
235.942	25.117	888.796	704.603
236.957	25.026	887.938	703.503
237.972	25.015	887.194	702.807
238.986	25.001	886.083	701.809
240.001	24.850	885.802	700.932
241.015	25.155	885.867	702.117
242.030	25.145	884.820	701.188
243.045	25.149	884.068	700.545
244.059	25.360	883.234	700.644
245.074	25.111	883.677	699.963
246.088	25.171	883.081	699.661
247.103	25.599	881.542	700.048
248.117	25.350	881.408	698.908
249.132	25.811	881.798	700.950
250.147	26.076	881.134	701.390
251.161	26.101	880.625	701.021
252.176	26.342	879.818	701.251
253.190	26.462	878.803	700.847
254.205	26.450	878.559	700.542
255.220	26.650	878.163	700.938
256.234	26.019	877.882	698.210
257.249	26.302	876.818	698.397
258.263	26.160	876.776	697.752
259.278	25.769	876.678	696.101
260.293	26.122	876.182	697.010
261.307	26.373	874.564	696.630
262.322	26.318	874.073	695.963
263.336	26.223	873.855	695.364
264.351	26.075	872.985	694.040
265.366	25.372	872.109	690.582
266.380	25.289	871.122	689.419
267.395	25.992	869.804	691.010
268.409	26.239	869.898	691.969
269.424	26.108	869.979	691.470
270.439	26.110	869.046	690.674
271.453	25.939	869.232	690.108
272.468	25.795	869.003	689.313
273.482	25.982	867.633	688.881
274.497	26.063	867.673	689.161
275.512	25.626	866.742	686.694
276.526	25.869	865.096	686.253
277.541	26.116	865.094	687.132
278.555	26.210	864.540	686.990
279.570	26.015	864.207	685.920
280.585	26.294	862.905	685.889
281.599	26.437	862.495	686.042
282.614	26.014	862.431	684.327
283.628	25.436	861.490	681.328
284.643	25.302	861.083	680.436
285.657	25.823	860.161	681.622
286.672	25.923	859.834	681.680
287.687	25.297	858.883	678.500
288.701	25.647	857.987	679.054
289.716	26.018	858.478	680.783
290.730	25.558	858.430	678.948
291.745	25.939	857.056	679.238
292.760	25.538	856.445	677.184
293.774	25.160	856.626	675.841
294.789	26.179	855.617	678.818
295.803	26.479	855.412	679.722
296.818	26.112	855.642	678.466
297.833	26.152	854.529	677.674
298.847	25.863	853.972	676.089
299.862	25.999	851.791	674.812
300.876	25.955	851.580	674.421
301.891	26.231	852.378	676.026
302.906	26.546	851.468	676.422
303.920	26.513	850.626	675.568
304.935	26.563	849.469	674.776
305.949	26.444	849.199	674.060
306.964	26.436	848.957	673.778
307.979	26.110	847.545	671.384
308.993	26.087	848.093	671.675
310.008	26.525	846.622	672.077
311.022	26.585	846.285	671.973
312.037	26.168	846.637	670.643
313.052	26.673	844.983	671.144
314.066	26.344	844.521	669.500
315.081	26.087	843.371	667.581
316.095	25.451	841.983	664.073
317.110	25.586	842.869	665.211
318.125	25.691	842.957	665.610
319.139	26.309	841.687	666.830
320.154	25.179	841.188	662.208
321.168	24.959	840.523	660.812
322.183	25.367	839.932	661.793
323.197	25.913	839.489	663.396
324.212	25.939	840.171	663.970
325.227	26.162	839.108	663.894
326.241	25.724	838.819	661.996
327.256	26.095	837.009	661.869
328.270	26.072	837.001	661.719
329.285	25.845	836.796	660.666
330.300	25.804	835.588	659.505
331.314	25.602	835.116	658.335
332.329	25.434	835.114	657.661
333.343	25.693	834.139	657.781
334.358	26.404	833.227	659.599
335.373	26.330	832.816	658.945
336.387	26.289	833.034	658.908
337.402	26.498	832.316	659.042
338.416	26.192	831.789	657.455
339.431	26.490	831.412	658.184
340.446	26.513	830.492	657.478
341.460	26.982	830.294	658.967
342.475	26.822	830.027	658.115
343.489	26.886	829.188	657.627
344.504	26.756	829.191	657.097
345.519	26.970	828.506	657.273
346.533	27.025	827.762	656.823
347.548	26.808	828.047	656.206
348.562	26.793	827.585	655.726
349.577	26.613	826.606	654.244
350.592	26.420	825.397	652.532
351.606	26.620	824.896	652.800
352.621	26.449	825.103	652.288
353.635	26.463	824.414	651.735
354.650	26.633	824.166	652.096
355.665	26.422	823.389	650.664
356.679	25.684	822.655	647.373
357.694	26.062	821.907	648.084
358.708	26.354	821.684	648.901
359.723	26.085	821.425	647.672
360.738	26.058	819.806	646.243
361.752	26.329	819.703	647.074
362.767	26.431	819.218	646.999
363.781	26.606	819.711	647.957
364.796	26.504	819.678	647.508
365.810	26.722	819.075	647.754
366.825	26.867	818.499	647.758
367.840	26.869	817.512	646.929
368.854	26.993	816.873	646.807
369.869	26.744	815.741	644.967
370.883	26.733	815.539	644.711
371.898	26.646	815.414	644.247
372.913	26.800	814.795	644.248
373.927	26.672	814.722	643.678
374.942	26.810	813.305	642.992
375.956	26.460	813.450	641.805
376.971	26.647	812.130	641.371
377.986	26.502	812.170	640.831
379.000	26.987	811.523	641.982
380.015	27.167	810.471	641.728
381.029	26.873	810.496	640.651
382.044	26.735	810.433	640.058
383.059	27.108	809.247	640.379
384.073	27.231	807.501	639.373
385.088	26.834	808.718	638.882
386.102	26.774	807.623	637.750
387.117	26.554	807.004	636.432
388.132	26.449	806.046	635.251
389.146	26.209	805.988	634.308
390.161	26.537	804.530	634.253
391.175	26.091	805.266	633.212
392.190	27.002	805.113	636.229
393.205	27.101	804.537	636.064
394.219	26.363	802.842	632.091
395.234	25.256	801.457	627.076
396.248	25.151	800.370	625.804
397.263	25.173	801.570	626.764
398.278	26.265	800.992	630.066
399.292	26.156	800.844	629.517
400.307	26.181	799.981	628.869
401.321	26.077	799.046	627.717
402.336	26.101	799.511	628.110
403.350	26.397	798.327	628.151
404.365	26.895	798.995	630.352
405.380	26.957	798.689	630.272
406.394	27.238	798.559	631.087
407.409	26.991	798.008	629.738
408.423	27.050	797.910	629.813
409.438	26.690	798.258	628.782
410.453	27.294	796.369	629.327
411.467	27.338	796.131	629.238
412.482	26.922	795.805	627.486
413.496	27.020	794.740	626.927
414.511	26.968	794.649	626.620
415.526	26.814	794.028	625.546
416.540	26.861	793.778	625.453
417.555	26.795	793.387	624.863
418.569	27.047	793.432	625.711
419.584	26.962	792.906	624.951
420.599	26.885	791.846	623.795
421.613	159.859	1369.609	1792.808
422.628	138.489	1453.775	1792.909
