DTS Sentinel unit serial number:	SN413079Multiplexer serial number:	ORYXHardware model number:	OX4-SRSoftware version number:	ORYX F/W v4.00 Oryx Data Collector v3.7.2.0data status	okinstallation	princeton_trtdifferential loss correction	single-endedforward channel	channel 3reverse channel	N/Adate	2019/09/18time	11:40:34forward acquisition time	60.00reverse acquisition time	0.00gamma	496.2192k internal	0.2324k external	0.2324temperature offset calibration	0.9959default loss term (dB/km)	0.3790temperature slope calibration	1.0000multiplexer offset coefficient	1.0000multiplexer slope coefficient	1.0000fibre end	0.00T internal ref (°C)	30.87T ext. ref 1 (°C)	0.44T ext. ref 2 (°C)	27.88length (m)	temperature (°C)	Stokes	anti-Stokes-747.200	-79.841	0.086	-0.029
-746.185	209.417	0.079	-0.125
-745.171	-158.387	0.468	0.027
-744.156	-94.485	-0.266	0.073
-743.142	-200.000	-0.067	0.411
-742.127	455.268	-0.038	0.084
-741.112	735.048	0.098	-0.265
-740.098	-103.921	0.204	0.048
-739.083	36.199	-0.040	-0.036
-738.069	-9.856	-0.056	0.038
-737.054	-167.003	0.256	-0.011
-736.039	-200.000	-0.027	0.172
-735.025	272.817	0.166	0.295
-734.010	-55.688	-0.113	-0.051
-732.996	-59.944	0.250	0.108
-731.981	90.084	-0.191	-0.216
-730.966	24.754	-0.174	-0.146
-729.952	-200.000	-0.015	-0.138
-728.937	-167.312	0.215	0.009
-727.923	-132.683	0.056	0.007
-726.908	271.552	0.058	-0.102
-725.894	-200.000	-0.062	-0.394
-724.879	-127.433	0.225	-0.033
-723.864	-106.098	-0.124	0.028
-722.850	-156.835	-0.132	-0.008
-721.835	302.844	-0.052	0.098
-720.821	-121.085	-0.320	-0.054
-719.806	-200.000	-0.094	-0.566
-718.791	-200.000	0.053	-0.255
-717.777	458.916	0.019	0.043
-716.762	12.439	-0.074	0.058
-715.748	-66.798	0.154	-0.061
-714.733	-72.749	0.075	-0.028
-713.718	800.000	-0.042	0.139
-712.704	114.788	-0.181	0.223
-711.689	44.400	-0.156	0.144
-710.675	-175.627	0.235	-0.006
-709.660	-4.305	-0.142	-0.099
-708.645	39.140	-0.122	-0.110
-707.631	-34.454	0.271	-0.150
-706.616	666.327	-0.050	-0.131
-705.602	-200.000	0.007	-0.226
-704.587	57.850	0.054	0.053
-703.572	-68.082	0.129	0.051
-702.558	-169.591	-0.149	0.005
-701.543	800.000	0.055	0.166
-700.529	-200.000	0.042	-0.264
-699.514	19.309	-0.189	-0.153
-698.499	121.081	0.205	0.257
-697.485	-45.856	-0.008	-0.004
-696.470	760.542	-0.016	-0.044
-695.456	75.040	-0.067	0.071
-694.441	101.581	-0.127	0.150
-693.426	47.009	-0.144	0.135
-692.412	121.740	-0.144	-0.181
-691.397	799.910	-0.007	0.020
-690.383	-200.000	0.003	0.085
-689.368	800.000	-0.060	-0.205
-688.354	-200.000	0.001	0.010
-687.339	-72.533	-0.099	-0.037
-686.324	-59.601	0.270	-0.117
-685.310	88.284	0.104	0.116
-684.295	106.987	0.205	-0.246
-683.281	112.698	-0.249	-0.303
-682.266	244.214	-0.172	0.291
-681.251	325.423	-0.086	0.165
-680.237	800.000	-0.026	0.088
-679.222	87.290	-0.230	0.256
-678.208	47.909	0.235	-0.221
-677.193	446.570	-0.139	0.308
-676.178	-37.626	-0.072	0.039
-675.164	294.510	0.173	0.319
-674.149	-200.000	-0.016	-0.088
-673.135	64.974	-0.247	-0.251
-672.120	157.861	-0.192	0.268
-671.105	618.610	0.175	-0.443
-670.091	800.000	-0.138	-0.479
-669.076	-200.000	-0.020	0.222
-668.062	-182.888	-0.220	0.004
-667.047	-44.094	-0.236	-0.119
-666.032	-153.897	-0.189	0.013
-665.018	558.077	-0.078	-0.189
-664.003	-23.050	0.209	-0.126
-662.989	-111.060	-0.351	0.072
-661.974	-61.067	-0.012	-0.005
-660.959	213.967	-0.145	0.231
-659.945	800.000	0.102	0.399
-658.930	-200.000	0.030	0.197
-657.916	753.506	-0.027	-0.073
-656.901	531.398	-0.206	-0.489
-655.886	-91.278	-0.450	0.130
-654.872	133.637	-0.122	0.159
-653.857	-154.693	0.073	0.005
-652.843	-123.671	0.203	0.032
-651.828	733.427	-0.110	0.295
-650.814	29.221	0.240	-0.205
-649.799	479.000	0.058	0.133
-648.784	-200.000	0.008	0.043
-647.770	-44.243	-0.222	0.112
-646.755	800.000	-0.012	0.048
-645.741	538.541	-0.010	-0.023
-644.726	-71.331	0.189	-0.071
-643.711	218.365	0.020	-0.033
-642.697	-162.876	-0.178	0.009
-641.682	-123.690	0.127	0.020
-640.668	-31.338	0.173	0.098
-639.653	-30.317	-0.067	-0.038
-638.638	98.330	0.073	-0.085
-637.624	-78.284	0.096	-0.033
-636.609	73.617	-0.307	-0.324
-635.595	-200.000	-0.017	-0.195
-634.580	800.000	-0.034	-0.100
-633.565	-200.000	0.012	-0.070
-632.551	-200.000	-0.029	0.163
-631.536	465.351	-0.135	-0.303
-630.522	75.799	0.207	0.220
-629.507	-110.481	0.273	0.057
-628.492	-200.000	-0.036	0.340
-627.478	-153.764	-0.147	-0.010
-626.463	-28.684	-0.371	-0.215
-625.449	463.523	-0.116	0.259
-624.434	-18.699	0.370	0.232
-623.419	-5.773	0.136	0.094
-622.405	261.966	0.039	0.069
-621.390	132.340	-0.082	-0.106
-620.376	800.000	-0.055	0.194
-619.361	-148.739	-0.444	-0.036
-618.346	-24.503	-0.270	0.162
-617.332	-200.000	-0.022	-0.110
-616.317	-55.287	0.150	0.068
-615.303	309.668	0.185	0.347
-614.288	-175.962	-0.152	-0.004
-613.273	-13.213	0.148	0.096
-612.259	-200.000	-0.055	0.373
-611.244	-185.630	0.272	0.004
-610.230	159.948	-0.120	-0.168
-609.215	-162.541	-0.393	-0.019
-608.201	800.000	-0.031	0.104
-607.186	-65.265	0.183	0.074
-606.171	290.064	0.161	-0.293
-605.157	12.350	-0.205	0.158
-604.142	800.000	-0.098	0.323
-603.128	-70.027	-0.157	-0.060
-602.113	204.679	0.108	0.169
-601.098	-24.349	0.028	-0.016
-600.084	-200.000	0.318	0.001
-599.069	528.292	-0.104	0.247
-598.055	-53.646	0.098	0.045
-597.040	-200.000	0.016	-0.082
-596.025	-51.163	-0.408	0.192
-595.011	105.223	-0.031	0.037
-593.996	-200.000	-0.031	-0.144
-592.982	-78.579	-0.333	0.114
-591.967	-33.307	0.090	-0.050
-590.952	83.707	-0.299	-0.327
-589.938	-77.784	-0.093	-0.032
-588.923	731.843	0.095	0.254
-587.909	134.318	-0.088	-0.115
-586.894	141.392	0.061	0.081
-585.879	-127.433	-0.085	-0.012
-584.865	287.679	0.256	0.465
-583.850	56.552	-0.399	-0.390
-582.836	-67.401	-0.185	-0.073
-581.821	476.770	-0.040	-0.090
-580.806	-200.000	0.011	-0.075
-579.792	-113.996	0.154	-0.030
-578.777	-52.299	0.097	-0.045
-577.763	-74.750	0.338	0.122
-576.748	301.616	-0.146	-0.271
-575.733	315.606	0.108	-0.204
-574.719	-107.287	-0.286	0.063
-573.704	302.607	0.118	-0.219
-572.690	-98.407	0.129	0.033
-571.675	382.039	-0.056	-0.116
-570.661	-200.000	0.007	-0.203
-569.646	114.820	0.304	0.371
-568.631	-200.000	0.034	-0.263
-567.617	-200.000	0.009	0.118
-566.602	-0.245	-0.233	0.166
-565.588	21.034	-0.257	-0.209
-564.573	601.451	-0.069	0.172
-563.558	3.131	-0.067	0.049
-562.544	-68.972	0.120	0.046
-561.529	-130.446	0.268	0.036
-560.515	-89.258	0.125	0.037
-559.500	133.881	-0.250	0.325
-558.485	81.036	0.271	0.293
-557.471	1.092	0.213	-0.153
-556.456	17.987	-0.148	0.118
-555.442	201.812	0.097	-0.150
-554.427	-127.350	-0.299	-0.044
-553.412	-98.468	-0.273	-0.070
-552.398	182.253	-0.119	0.175
-551.383	52.361	0.216	0.206
-550.369	-58.876	-0.218	-0.095
-549.354	-200.000	-0.011	-0.300
-548.339	41.147	0.168	-0.152
-547.325	800.000	0.054	0.149
-546.310	-101.261	-0.086	-0.021
-545.296	-200.000	-0.254	0.000
-544.281	-49.456	0.031	-0.015
-543.266	411.000	0.150	-0.319
-542.252	205.073	-0.180	-0.279
-541.237	28.152	-0.305	-0.258
-540.223	60.873	-0.237	-0.235
-539.208	541.599	0.080	-0.190
-538.193	349.531	0.133	-0.263
-537.179	627.905	0.068	-0.172
-536.164	36.088	0.060	-0.053
-535.150	55.738	0.387	-0.376
-534.135	-154.126	0.262	0.018
-533.121	16.531	-0.202	0.159
-532.106	90.646	0.111	0.125
-531.091	-113.447	0.122	-0.024
-530.077	-200.000	-0.006	0.291
-529.062	-109.661	0.323	-0.068
-528.048	63.257	0.159	-0.159
-527.033	233.064	-0.251	-0.413
-526.018	21.384	-0.145	-0.118
-525.004	136.688	-0.108	-0.141
-523.989	418.458	-0.090	-0.193
-522.975	-36.907	-0.095	-0.051
-521.960	-57.219	-0.219	0.096
-520.945	800.000	0.082	-0.234
-519.931	-200.000	-0.022	0.107
-518.916	214.424	-0.115	0.183
-517.902	-200.000	0.005	0.286
-516.887	43.890	-0.165	0.151
-515.872	62.917	0.121	0.121
-514.858	-152.458	-0.090	0.006
-513.843	4.560	0.341	-0.250
-512.829	-200.000	0.031	0.335
-511.814	75.610	0.146	-0.154
-510.799	223.377	-0.094	-0.152
-509.785	-44.187	-0.141	-0.071
-508.770	252.088	-0.101	0.171
-507.756	-61.347	-0.245	-0.103
-506.741	271.797	-0.110	-0.193
-505.726	107.070	-0.119	0.141
-504.712	-136.282	-0.241	0.028
-503.697	243.341	0.169	-0.284
-502.683	-69.977	0.098	0.037
-501.668	-55.956	0.190	-0.085
-500.653	49.656	-0.220	-0.207
-499.639	674.068	0.104	0.269
-498.624	-144.171	-0.345	-0.032
-497.610	800.000	0.027	0.118
-496.595	41.731	0.053	0.048
-495.581	-40.883	-0.210	0.108
-494.566	800.000	-0.066	-0.235
-493.551	-33.635	-0.184	-0.102
-492.537	-33.565	0.179	0.099
-491.522	800.000	0.095	-0.283
-490.508	640.803	-0.058	0.146
-489.493	-200.000	-0.015	0.332
-488.478	-15.174	-0.157	-0.100
-487.464	-200.000	-0.048	0.409
-486.449	800.000	0.091	0.277
-485.435	-200.000	0.011	0.263
-484.420	-64.155	-0.138	-0.056
-483.405	-25.321	-0.238	-0.141
-482.391	800.000	-0.032	-0.114
-481.376	800.000	-0.052	0.184
-480.362	559.364	0.101	0.244
-479.347	-24.918	-0.245	0.146
-478.332	800.000	0.139	-0.465
-477.318	-106.061	0.691	0.155
-476.303	-159.187	-0.301	-0.017
-475.289	800.000	-0.022	0.094
-474.274	48.889	0.092	-0.086
-473.259	113.296	-0.160	-0.194
-472.245	800.000	-0.022	-0.071
-471.230	-88.487	0.389	-0.116
-470.216	-22.502	-0.204	0.123
-469.201	-85.108	-0.116	0.036
-468.186	141.274	0.152	0.201
-467.172	-19.868	-0.228	0.140
-466.157	-200.000	-0.005	-0.160
-465.143	493.615	0.138	0.315
-464.128	-31.832	-0.108	-0.060
-463.113	800.000	0.054	-0.217
-462.099	46.574	0.262	-0.243
-461.084	-103.984	0.199	0.046
-460.070	-200.000	0.016	-0.126
-459.055	-200.000	-0.007	-0.045
-458.040	99.334	0.168	-0.194
-457.026	122.960	0.130	0.163
-456.011	-69.029	-0.168	-0.065
-454.997	560.681	0.067	0.163
-453.982	-52.364	0.083	0.039
-452.968	119.480	-0.140	0.173
-451.953	-200.000	0.004	-0.063
-450.938	800.000	-0.048	-0.151
-449.924	-119.947	0.215	0.037
-448.909	53.509	0.193	0.185
-447.895	-200.000	-0.011	-0.261
-446.880	-44.592	-0.287	0.143
-445.865	68.878	0.140	-0.144
-444.851	800.000	-0.055	-0.201
-443.836	800.000	-0.058	0.188
-442.822	800.000	0.091	0.319
-441.807	-71.296	0.267	-0.100
-440.792	-60.148	-0.119	-0.051
-439.778	-27.735	0.238	-0.138
-438.763	-113.632	0.276	0.054
-437.749	14.303	0.056	0.043
-436.734	-200.000	-0.043	-0.237
-435.719	142.642	-0.110	0.145
-434.705	-73.069	-0.238	0.087
-433.690	-200.000	0.019	0.321
-432.676	102.114	-0.203	-0.237
-431.661	30.744	-0.099	-0.084
-430.646	-169.604	0.343	0.012
-429.632	-200.000	0.014	-0.111
-428.617	-131.151	-0.004	-0.000
-427.603	-200.000	0.019	-0.092
-426.588	-200.000	0.023	-0.227
-425.573	66.050	-0.189	-0.191
-424.559	60.487	-0.118	0.117
-423.544	-177.211	-0.301	-0.007
-422.530	-81.181	-0.301	-0.099
-421.515	39.638	-0.298	-0.266
-420.500	-200.000	-0.041	-0.243
-419.486	-99.953	-0.030	0.007
-418.471	254.713	0.177	0.302
-417.457	131.351	-0.184	0.236
-416.442	-154.905	-0.154	-0.010
-415.428	800.000	0.031	0.097
-414.413	-200.000	0.009	0.239
-413.398	29.802	0.156	-0.132
-412.384	11.854	-0.108	0.082
-411.369	463.215	0.142	-0.315
-410.355	-82.884	0.381	0.123
-409.340	800.000	0.136	0.426
-408.325	800.000	-0.034	0.111
-407.311	-29.713	0.118	-0.067
-406.296	96.194	-0.217	-0.247
-405.282	-133.109	-0.163	-0.021
-404.267	51.726	0.102	0.096
-403.252	800.000	-0.045	0.161
-402.238	-139.724	0.193	0.020
-401.223	-200.000	-0.038	-0.176
-400.209	-200.000	-0.012	-0.106
-399.194	684.038	-0.158	-0.412
-398.179	-141.100	0.257	-0.026
-397.165	-136.317	0.372	0.043
-396.150	-151.912	0.392	-0.029
-395.136	-116.841	-0.269	-0.049
-394.121	95.613	-0.243	0.276
-393.106	72.647	0.108	-0.112
-392.092	-104.868	-0.331	0.076
-391.077	246.487	0.097	0.163
-390.063	800.000	-0.011	-0.030
-389.048	29.128	0.156	0.132
-388.033	-166.967	-0.061	0.002
-387.019	24.098	-0.155	-0.127
-386.004	244.998	0.088	0.147
-384.990	-6.855	0.068	-0.046
-383.975	18.308	0.138	-0.109
-382.960	-66.119	-0.345	0.137
-381.946	800.000	0.116	0.379
-380.931	84.584	-0.075	0.081
-379.917	-11.482	0.061	-0.040
-378.902	800.000	0.046	-0.170
-377.888	-10.262	-0.244	0.161
-376.873	-29.877	-0.092	0.052
-375.858	800.000	-0.044	-0.154
-374.844	-64.561	-0.075	-0.030
-373.829	621.535	0.125	-0.314
-372.815	182.927	-0.178	-0.261
-371.800	-30.066	0.393	0.223
-370.785	198.873	0.227	0.346
-369.771	-137.309	-0.126	0.014
-368.756	-93.247	0.277	0.077
-367.742	136.070	0.131	0.170
-366.727	20.206	0.187	-0.150
-365.712	26.810	-0.199	-0.166
-364.698	28.391	-0.319	0.268
-363.683	-63.913	-0.283	0.115
-362.669	258.594	0.027	0.046
-361.654	67.462	0.029	0.030
-360.639	-200.000	-0.001	0.159
-359.625	-86.420	-0.694	-0.212
-358.610	610.510	-0.108	0.269
-357.596	-82.840	0.330	0.106
-356.581	-152.074	0.108	0.008
-355.566	-200.000	-0.007	-0.204
-354.552	-94.400	0.319	-0.087
-353.537	-120.273	-0.192	0.033
-352.523	22.416	0.141	-0.114
-351.508	155.542	-0.187	0.256
-350.493	17.040	0.144	0.114
-349.479	-200.000	-0.015	0.126
-348.464	-60.613	-0.278	-0.117
-347.450	101.654	-0.089	-0.103
-346.435	800.000	-0.045	-0.167
-345.420	-105.113	0.546	0.124
-344.406	-123.190	-0.133	0.021
-343.391	-183.224	-0.185	0.003
-342.377	226.967	-0.092	-0.149
-341.362	-13.700	0.178	0.114
-340.348	800.000	-0.028	0.116
-339.333	120.506	0.081	0.100
-338.318	599.839	-0.098	0.242
-337.304	-200.000	0.004	-0.083
-336.289	-85.348	-0.240	-0.075
-335.275	-108.912	-0.446	-0.095
-334.260	37.124	-0.052	0.046
-333.245	123.008	-0.192	-0.239
-332.231	-200.000	-0.030	-0.156
-331.216	-32.191	0.373	-0.207
-330.202	-21.638	-0.076	-0.046
-329.187	188.955	0.061	0.091
-328.172	800.000	-0.160	0.509
-327.158	-200.000	-0.013	-0.083
-326.143	56.921	-0.142	0.137
-325.129	800.000	0.100	0.332
-324.114	5.395	0.401	0.294
-323.099	-200.000	-0.023	-0.225
-322.085	-200.000	-0.008	-0.046
-321.070	86.224	-0.160	-0.175
-320.056	67.624	0.323	0.328
-319.041	-200.000	-0.035	0.454
-318.026	-50.219	-0.267	0.125
-317.012	-116.958	0.225	0.041
-315.997	-84.439	0.256	0.080
-314.983	-23.986	0.154	0.091
-313.968	-0.094	0.269	-0.190
-312.953	-53.917	0.229	-0.103
-311.939	-68.416	0.316	0.122
-310.924	-14.819	0.141	-0.090
-309.910	-200.000	0.000	0.139
-308.895	310.064	0.105	-0.195
-307.880	-75.098	-0.299	0.106
-306.866	45.289	-0.217	-0.198
-305.851	-200.000	-0.032	0.335
-304.837	48.973	-0.233	0.217
-303.822	-62.530	0.507	0.209
-302.807	-66.949	-0.077	0.030
-301.793	-102.225	-0.153	-0.036
-300.778	-31.820	0.121	-0.067
-299.764	-116.957	-0.421	-0.076
-298.749	201.561	-0.031	-0.048
-297.735	-30.563	0.205	-0.115
-296.720	-200.000	-0.021	0.182
-295.705	-200.000	-0.002	0.060
-294.691	-184.210	0.116	0.002
-293.676	800.000	0.043	0.134
-292.662	256.737	-0.205	-0.349
-291.647	-166.890	-0.312	0.013
-290.632	-49.886	-0.146	0.069
-289.618	208.738	0.094	-0.146
-288.603	800.000	-0.132	-0.433
-287.589	-35.699	-0.200	-0.107
-286.574	38.019	0.010	0.009
-285.559	88.510	-0.070	0.077
-284.545	-96.976	-0.078	-0.020
-283.530	-147.084	-0.072	-0.006
-282.516	-200.000	0.013	-0.148
-281.501	-102.977	0.186	0.044
-280.486	-200.000	-0.042	0.241
-279.472	46.117	-0.346	-0.317
-278.457	-200.000	0.008	-0.119
-277.443	-28.209	0.212	-0.121
-276.428	-200.000	0.038	-0.175
-275.413	-200.000	0.002	-0.051
-274.399	-81.291	0.194	-0.063
-273.384	220.772	0.058	-0.092
-272.370	565.709	-0.029	0.069
-271.355	-200.000	0.061	-0.273
-270.340	439.116	-0.122	0.265
-269.326	800.000	0.046	-0.166
-268.311	-130.994	-0.321	-0.042
-267.297	434.032	-0.131	0.282
-266.282	360.873	0.118	-0.235
-265.267	182.801	0.262	0.383
-264.253	-122.103	-0.097	0.016
-263.238	10.369	0.189	0.143
-262.224	-56.388	-0.209	-0.092
-261.209	-200.000	0.042	0.459
-260.195	-149.062	-0.192	-0.015
-259.180	-14.476	-0.269	-0.171
-258.165	-86.178	-0.049	-0.015
-257.151	18.546	0.223	0.176
-256.136	-84.224	-0.182	0.057
-255.122	1.602	-0.191	-0.136
-254.107	-110.437	0.329	-0.068
-253.092	106.122	-0.085	-0.099
-252.078	800.000	-0.024	-0.077
-251.063	-200.000	-0.005	-0.086
-250.049	-138.365	0.193	-0.021
-249.034	800.000	0.089	-0.277
-248.019	-82.603	0.174	-0.056
-247.005	787.031	0.096	-0.260
-245.990	233.737	0.066	0.108
-244.976	108.907	-0.092	-0.109
-243.961	800.000	-0.057	-0.182
-242.946	-42.033	0.059	0.030
-241.932	-35.874	-0.132	-0.071
-240.917	800.000	0.018	-0.052
-239.903	-58.473	0.288	0.124
-238.888	-57.728	-0.044	0.019
-237.873	-89.498	0.091	0.027
-236.859	118.707	-0.203	0.248
-235.844	800.000	-0.045	-0.135
-234.830	-200.000	-0.048	0.325
-233.815	154.049	-0.043	0.059
-232.800	107.869	-0.153	-0.181
-231.786	800.000	-0.082	-0.338
-230.771	-71.547	0.261	-0.097
-229.757	-200.000	-0.013	0.331
-228.742	-21.749	0.210	-0.126
-227.727	322.343	0.146	-0.275
-226.713	-58.724	-0.265	0.113
-225.698	-200.000	0.067	-0.350
-224.684	356.877	0.176	-0.348
-223.669	800.000	0.021	0.083
-222.655	-151.029	-0.184	-0.014
-221.640	546.729	-0.185	-0.438
-220.625	660.493	0.033	-0.084
-219.611	57.433	-0.190	-0.184
-218.596	58.159	-0.055	-0.053
-217.582	15.699	0.072	-0.056
-216.567	-169.481	0.114	0.004
-215.552	-200.000	-0.006	-0.160
-214.538	133.420	0.204	-0.261
-213.523	-126.841	-0.286	0.042
-212.509	379.190	-0.083	-0.169
-211.494	-0.651	0.230	-0.161
-210.479	800.000	0.045	0.160
-209.465	-195.931	0.271	0.002
-208.450	-31.797	-0.198	-0.110
-207.436	24.380	-0.282	0.230
-206.421	6.497	0.172	0.126
-205.406	82.912	0.102	-0.110
-204.392	52.775	-0.319	0.302
-203.377	-15.635	0.167	0.105
-202.363	-115.579	-0.235	-0.044
-201.348	-189.354	0.125	0.001
-200.333	800.000	-0.053	0.164
-199.319	-92.274	0.291	0.081
-198.304	646.005	0.015	0.037
-197.290	-200.000	0.020	-0.208
-196.275	-3.677	0.189	0.130
-195.260	-200.000	0.012	-0.180
-194.246	-106.137	0.150	0.033
-193.231	317.475	-0.119	-0.223
-192.217	579.190	-0.200	0.484
-191.202	21.255	0.079	0.063
-190.187	800.000	-0.104	-0.382
-189.173	210.368	-0.069	0.107
-188.158	-200.000	0.031	0.238
-187.144	-154.146	0.286	0.019
-186.129	217.570	0.141	0.222
-185.114	-13.195	0.208	0.134
-184.100	-3.560	0.150	0.103
-183.085	-112.593	0.134	-0.026
-182.071	47.515	0.156	0.143
-181.056	-200.000	0.016	0.536
-180.042	121.877	0.058	-0.072
-179.027	-163.915	-0.254	0.012
-178.012	-74.041	0.078	-0.028
-176.998	-63.405	0.224	-0.091
-175.983	37.977	-0.172	0.151
-174.969	-191.740	0.149	0.001
-173.954	800.000	-0.081	0.259
-172.939	218.803	0.211	-0.333
-171.925	111.098	0.048	0.058
-170.910	374.330	0.025	-0.050
-169.896	188.605	0.097	0.144
-168.881	303.165	0.172	0.315
-167.866	783.370	0.121	-0.327
-166.852	-200.000	0.040	-0.378
-165.837	636.201	-0.061	0.154
-164.823	-145.293	-0.582	0.052
-163.808	-200.000	-0.013	0.088
-162.793	-96.522	0.447	0.116
-161.779	-139.302	0.255	-0.027
-160.764	-39.547	0.190	-0.098
-159.750	-132.670	0.440	0.056
-158.735	137.266	-0.223	0.288
-157.720	-84.751	0.269	-0.084
-156.706	-46.530	-0.100	-0.048
-155.691	24.696	0.168	-0.137
-154.677	-119.313	0.272	-0.047
-153.662	334.596	-0.102	0.195
-152.647	108.583	0.137	-0.162
-151.633	-200.000	0.054	-0.319
-150.618	257.279	0.166	0.281
-149.604	-26.027	0.074	0.043
-148.589	-69.511	0.386	-0.146
-147.574	-30.566	-0.258	-0.144
-146.560	-200.000	-0.002	0.162
-145.545	-117.860	0.138	0.024
-144.531	-81.824	0.121	0.039
-143.516	57.520	0.116	-0.112
-142.502	22.686	-0.200	0.161
-141.487	794.278	-0.094	0.254
-140.472	-39.318	0.157	-0.081
-139.458	19.633	0.164	-0.130
-138.443	79.980	0.065	0.069
-137.429	-154.812	0.296	-0.019
-136.414	-144.990	0.284	0.025
-135.399	-103.653	-0.192	-0.044
-134.385	-200.000	0.000	-0.204
-133.370	800.000	-0.020	0.079
-132.356	366.956	-0.068	-0.135
-131.341	-138.780	-0.079	-0.008
-130.326	-39.832	0.195	-0.100
-129.312	-66.628	-0.177	-0.069
-128.297	-200.000	0.024	-0.564
-127.283	50.458	-0.257	-0.240
-126.268	143.029	-0.030	-0.039
-125.253	-60.804	0.291	-0.122
-124.239	-123.292	-0.236	0.037
-123.224	-27.041	-0.140	-0.080
-122.210	800.000	-0.033	0.095
-121.195	53.226	-0.169	0.159
-120.180	800.000	-0.045	-0.189
-119.166	-107.756	0.151	-0.032
-118.151	-92.608	0.346	0.096
-117.137	-8.626	0.280	0.185
-116.122	-12.226	0.128	0.083
-115.107	-167.207	-0.044	0.002
-114.093	102.271	0.071	-0.082
-113.078	34.982	-0.216	-0.186
-112.064	-93.624	0.353	-0.096
-111.049	-200.000	0.090	0.457
-110.034	-190.882	-0.326	0.003
-109.020	74.071	0.083	0.086
-108.005	-172.917	-0.252	0.008
-106.991	204.155	-0.136	-0.207
-105.976	-103.294	0.396	-0.092
-104.962	-200.000	0.069	0.327
-103.947	199.128	0.254	0.384
-102.932	-200.000	-0.071	0.346
-101.918	106.318	-0.152	-0.177
-100.903	525.405	-0.074	-0.171
-99.889	-200.000	0.011	-0.206
-98.874	106.046	-0.160	-0.187
-97.859	800.000	-0.042	-0.131
-96.845	-55.488	0.234	-0.103
-95.830	765.767	0.116	0.311
-94.816	50.986	0.206	0.192
-93.801	-200.000	0.031	-0.190
-92.786	193.132	-0.181	-0.269
-91.772	-20.241	0.449	0.272
-90.757	-200.000	0.002	-0.132
-89.743	-200.000	0.018	0.228
-88.728	800.000	0.073	-0.243
-87.713	262.072	0.071	-0.121
-86.699	-200.000	0.016	0.241
-85.684	-200.000	-0.009	-0.040
-84.670	98.128	0.341	0.386
-83.655	159.631	0.046	-0.063
-82.640	35.122	0.165	0.142
-81.626	-158.385	0.259	0.015
-80.611	232.121	0.179	0.288
-79.597	-59.788	0.151	0.064
-78.582	-200.000	-0.040	-0.179
-77.567	-11.856	-0.333	0.215
-76.553	800.000	0.053	-0.170
-75.538	-51.015	0.089	0.041
-74.524	-71.217	-0.307	0.113
-73.509	-200.000	0.016	0.327
-72.494	-30.085	-0.046	-0.026
-71.480	-118.920	-0.114	-0.020
-70.465	170.937	-0.157	0.221
-69.451	191.366	0.214	0.317
-68.436	-62.488	-0.454	0.186
-67.422	149.079	0.131	-0.174
-66.407	-17.602	-0.070	0.043
-65.392	27.703	0.156	0.129
-64.378	-30.582	-0.032	-0.018
-63.363	-39.800	0.437	-0.224
-62.349	278.688	-0.133	-0.233
-61.334	6.177	-1.090	-0.794
-60.319	-146.148	0.527	-0.046
-59.305	-200.000	-0.129	-0.963
-58.290	217.352	0.733	1.148
-57.276	-200.000	0.416	1.829
-56.261	-200.000	97.517	579.235
-55.246	495.452	1425.189	3216.844
-54.232	151.660	2625.124	3513.811
-53.217	109.726	2209.941	2602.738
-52.203	41.873	1733.294	1544.080
-51.188	34.101	1539.552	1317.868
-50.173	31.627	1512.432	1277.740
-49.159	51.427	1562.050	1457.394
-48.144	52.688	1580.303	1483.121
-47.130	34.340	1540.016	1319.710
-46.115	31.135	1525.163	1284.899
-45.100	31.053	1521.027	1280.803
-44.086	31.023	1518.750	1278.628
-43.071	30.966	1517.364	1277.023
-42.057	31.000	1515.382	1275.536
-41.042	30.937	1514.075	1273.952
-40.027	30.975	1512.263	1272.638
-39.013	30.797	1511.071	1270.371
-37.998	30.777	1510.059	1269.333
-36.984	30.905	1508.312	1268.684
-35.969	30.835	1507.075	1267.118
-34.954	30.852	1505.804	1266.116
-33.940	30.854	1504.470	1264.959
-32.925	30.887	1503.092	1263.973
-31.911	30.753	1502.228	1262.286
-30.896	31.005	1500.326	1262.343
-29.881	31.063	1499.144	1261.691
-28.867	31.001	1497.477	1259.820
-27.852	30.947	1496.313	1258.429
-26.838	30.923	1495.122	1257.212
-25.823	30.886	1493.306	1255.389
-24.809	30.867	1491.718	1253.877
-23.794	30.963	1490.041	1253.061
-22.779	30.897	1489.331	1251.970
-21.765	31.031	1487.581	1251.346
-20.750	30.925	1487.094	1250.177
-19.736	30.835	1485.836	1248.465
-18.721	30.889	1484.487	1247.646
-17.706	30.844	1483.626	1246.572
-16.692	30.933	1482.120	1245.848
-15.677	30.981	1481.107	1245.269
-14.663	30.903	1480.267	1243.996
-13.648	30.985	1479.079	1243.492
-12.633	30.793	1478.711	1241.854
-11.619	30.744	1477.803	1240.718
-10.604	30.800	1476.414	1239.872
-9.590	30.841	1475.855	1239.628
-8.575	30.882	1474.533	1238.739
-7.560	30.822	1473.987	1237.831
-6.546	30.823	1473.381	1237.285
-5.531	30.752	1472.533	1236.050
-4.517	30.816	1471.522	1235.575
-3.502	30.825	1470.489	1234.723
-2.487	30.825	1469.622	1233.940
-1.473	30.796	1468.467	1232.730
-0.458	30.791	1467.395	1231.753
0.556	29.506	1457.887	1222.174
1.571	27.104	1431.687	1184.464
2.586	23.683	1370.795	1112.590
3.600	21.955	1287.037	1034.343
4.615	20.190	1241.753	987.814
5.629	17.237	1184.551	926.158
6.644	8.635	1097.797	814.628
7.659	1.713	1056.027	749.575
8.673	0.640	1050.493	740.323
9.688	0.428	1048.046	737.500
10.702	0.328	1046.437	735.811
11.717	0.374	1044.321	734.485
12.731	3.003	1046.685	748.906
13.746	11.082	1057.824	796.466
14.761	16.555	1064.570	828.346
15.775	17.199	1064.380	831.280
16.790	16.541	1062.562	826.569
17.804	15.622	1060.613	820.494
18.819	14.766	1058.676	814.752
19.834	14.402	1057.123	811.713
20.848	14.130	1055.969	809.431
21.863	13.796	1055.371	807.277
22.877	13.551	1054.569	805.401
23.892	13.227	1053.874	803.223
24.907	13.284	1052.787	802.601
25.921	13.183	1052.051	801.476
26.936	13.330	1051.427	801.644
27.950	13.235	1050.937	800.740
28.965	13.377	1050.017	800.657
29.980	13.399	1049.385	800.207
30.994	13.424	1048.289	799.425
32.009	13.477	1047.375	798.911
33.023	13.445	1046.721	798.187
34.038	13.295	1046.441	797.179
35.053	13.407	1045.302	796.780
36.067	13.411	1044.510	796.127
37.082	13.304	1043.688	794.915
38.096	13.335	1042.656	794.210
39.111	13.308	1042.169	793.635
40.126	13.389	1041.186	793.209
41.140	13.395	1039.802	792.111
42.155	13.318	1038.938	791.016
43.169	13.208	1038.438	790.036
44.184	13.325	1036.764	789.255
45.199	13.254	1036.013	788.270
46.213	13.226	1035.256	787.495
47.228	13.258	1034.277	786.833
48.242	13.324	1033.405	786.413
49.257	13.415	1032.050	785.744
50.271	13.315	1030.975	784.381
51.286	13.377	1030.329	784.112
52.301	13.361	1029.761	783.537
53.315	13.419	1028.781	782.998
54.330	13.402	1028.007	782.256
55.344	13.283	1027.644	781.349
56.359	13.399	1025.884	780.491
57.374	13.287	1025.671	779.728
58.388	13.292	1024.384	778.707
59.403	13.133	1024.149	777.712
60.417	13.093	1023.453	776.925
61.432	13.253	1022.265	776.708
62.447	13.197	1021.398	775.715
63.461	13.226	1020.627	775.198
64.476	13.243	1019.798	774.580
65.490	13.045	1019.147	773.090
66.505	13.177	1018.385	773.060
67.520	13.179	1017.277	772.162
68.534	13.257	1016.532	771.889
69.549	13.271	1015.616	771.191
70.563	13.183	1015.299	770.471
71.578	13.074	1014.773	769.496
72.593	13.128	1013.807	768.949
73.607	13.139	1012.649	768.052
74.622	13.171	1012.101	767.720
75.636	13.098	1010.858	766.369
76.651	13.122	1009.850	765.648
77.666	13.197	1009.399	765.583
78.680	13.087	1008.650	764.439
79.695	13.040	1008.392	763.960
80.709	13.065	1007.882	763.620
81.724	13.079	1006.781	762.784
82.739	13.116	1005.967	762.269
83.753	13.267	1004.961	762.138
84.768	13.271	1004.351	761.624
85.782	13.368	1003.241	761.162
86.797	13.428	1002.415	760.745
87.812	13.298	1002.025	759.783
88.826	13.382	1001.224	759.493
89.841	13.440	1000.246	758.952
90.855	13.355	999.488	757.922
91.870	13.368	998.736	757.341
92.884	13.379	998.310	757.004
93.899	13.396	997.275	756.228
94.914	13.435	996.723	755.919
95.928	13.470	996.048	755.502
96.943	13.389	995.700	754.803
97.957	13.403	994.685	754.031
98.972	13.427	993.889	753.468
99.987	13.461	992.693	752.650
101.001	13.341	992.006	751.519
102.016	13.467	991.355	751.529
103.030	13.492	989.952	750.510
104.045	13.338	989.847	749.670
105.060	13.463	988.436	749.098
106.074	13.472	987.556	748.406
107.089	13.317	987.055	747.260
108.103	13.216	986.293	746.162
109.118	13.232	985.219	745.358
110.133	13.239	984.459	744.745
111.147	13.208	983.671	743.947
112.162	13.318	982.026	743.128
113.176	13.219	981.970	742.577
114.191	13.305	980.715	741.950
115.206	13.450	979.436	741.564
116.220	13.268	979.426	740.675
117.235	13.314	978.493	740.108
118.249	13.406	977.277	739.536
119.264	13.329	976.410	738.471
120.279	13.277	975.695	737.634
121.293	13.315	975.105	737.289
122.308	13.338	974.441	736.826
123.322	13.168	973.555	735.333
124.337	13.333	972.012	734.839
125.352	13.268	971.328	733.968
126.366	13.290	969.760	732.812
127.381	13.218	969.058	731.899
128.395	13.231	968.211	731.252
129.410	13.206	967.216	730.327
130.424	13.196	966.679	729.810
131.439	13.318	965.371	729.297
132.454	13.352	964.481	728.708
133.468	13.384	963.824	728.289
134.483	13.387	963.378	727.901
135.497	13.365	962.404	727.005
136.512	13.302	961.490	725.975
137.527	13.358	960.870	725.687
138.541	13.367	959.779	724.840
139.556	13.317	959.499	724.346
140.570	13.384	958.546	723.853
141.585	13.520	957.456	723.560
142.600	13.487	956.995	723.002
143.614	13.350	956.608	722.049
144.629	13.393	955.652	721.453
145.643	13.531	955.250	721.685
146.658	13.625	953.794	720.930
147.673	13.463	952.969	719.540
148.687	13.609	952.169	719.508
149.702	13.410	951.239	717.876
150.716	13.333	950.841	717.177
151.731	13.452	949.373	716.522
152.746	13.414	949.023	716.031
153.760	13.511	948.168	715.740
154.775	13.457	947.380	714.851
155.789	13.491	946.445	714.229
156.804	13.641	945.467	714.074
157.819	13.593	945.411	713.761
158.833	13.535	944.334	712.634
159.848	13.596	943.897	712.507
160.862	13.565	942.802	711.482
161.877	13.532	942.629	711.145
162.892	13.486	941.414	709.970
163.906	13.406	940.877	709.161
164.921	13.540	939.927	708.956
165.935	13.525	938.742	707.933
166.950	13.514	937.770	707.090
167.964	13.690	936.299	706.671
168.979	13.579	935.784	705.744
169.994	13.609	934.806	705.075
171.008	13.528	934.156	704.176
172.023	13.626	933.288	703.875
173.037	13.612	932.354	703.050
174.052	13.678	931.678	702.757
175.067	13.696	930.818	702.124
176.081	13.672	930.248	701.531
177.096	13.615	929.541	700.695
178.110	13.552	928.895	699.879
179.125	13.569	928.303	699.444
180.140	13.708	927.333	699.236
181.154	13.567	926.840	698.207
182.169	13.777	925.673	698.151
183.183	13.698	925.422	697.565
184.198	13.725	924.702	697.077
185.213	13.730	924.273	696.713
186.227	13.776	923.489	696.253
187.242	13.731	923.164	695.757
188.256	13.996	921.953	695.892
189.271	14.054	921.070	695.407
190.286	13.956	920.501	694.505
191.300	13.942	919.308	693.486
192.315	13.730	919.151	692.422
193.329	13.698	918.640	691.844
194.344	13.753	917.822	691.394
195.359	13.670	917.453	690.710
196.373	13.791	916.550	690.472
197.388	13.933	915.564	690.258
198.402	13.940	915.366	690.078
199.417	14.004	915.192	690.149
200.432	14.047	914.337	689.625
201.446	14.026	914.333	689.472
202.461	13.983	913.721	688.770
203.475	14.124	913.367	689.026
204.490	14.156	912.840	688.701
205.504	14.075	911.804	687.522
206.519	14.073	910.756	686.664
207.534	14.106	909.883	686.081
208.548	14.068	909.485	685.567
209.563	14.033	908.733	684.795
210.577	14.074	908.178	684.482
211.592	14.205	907.111	684.155
212.607	14.146	906.525	683.410
213.621	14.144	906.401	683.251
214.636	14.145	905.552	682.552
215.650	14.190	904.932	682.211
216.665	14.212	904.219	681.703
217.680	14.342	903.630	681.728
218.694	14.362	902.923	681.218
219.709	14.381	902.574	680.972
220.723	14.279	901.977	680.045
221.738	14.131	901.216	678.808
222.753	14.306	900.518	678.936
223.767	14.342	899.427	678.199
224.782	14.368	898.799	677.771
225.796	14.360	898.508	677.460
226.811	14.465	897.664	677.188
227.826	14.393	896.778	676.170
228.840	14.494	896.283	676.146
229.855	14.418	895.606	675.268
230.869	14.487	895.257	675.223
231.884	14.444	894.193	674.188
232.899	14.361	893.545	673.303
233.913	14.416	892.754	672.871
234.928	14.389	892.221	672.299
235.942	14.419	891.816	672.058
236.957	14.262	891.137	670.852
237.972	14.524	890.126	671.085
238.986	14.413	889.942	670.440
240.001	14.433	888.901	669.680
241.015	14.438	888.546	669.374
242.030	14.259	888.085	668.245
243.045	14.423	887.324	668.274
244.059	14.650	886.541	668.534
245.074	14.479	886.100	667.455
246.088	14.586	885.050	667.036
247.103	14.634	884.449	666.715
248.117	14.705	883.741	666.406
249.132	14.730	883.568	666.315
250.147	14.727	882.640	665.543
251.161	14.783	882.355	665.494
252.176	14.808	881.565	664.939
253.190	14.588	881.342	663.838
254.205	14.833	880.646	664.226
255.220	14.860	879.598	663.487
256.234	14.901	879.036	663.165
257.249	14.935	878.568	662.887
258.263	14.926	877.984	662.355
259.278	14.971	877.180	661.868
260.293	14.863	876.861	661.139
261.307	14.983	876.151	661.019
262.322	15.077	875.542	660.872
263.336	15.109	875.123	660.624
264.351	15.081	874.552	660.025
265.366	15.064	873.811	659.342
266.380	15.119	873.175	659.018
267.395	15.116	872.644	658.549
268.409	14.974	872.319	657.685
269.424	15.089	871.000	657.084
270.439	15.091	870.378	656.566
271.453	15.041	869.886	655.939
272.468	15.200	868.936	655.789
273.482	15.225	868.319	655.363
274.497	15.179	868.006	654.887
275.512	15.090	866.806	653.575
276.526	15.208	866.114	653.457
277.541	15.206	865.348	652.815
278.555	15.174	864.970	652.345
279.570	15.401	863.802	652.292
280.585	15.247	863.960	651.753
281.599	15.312	863.296	651.447
282.614	15.326	862.893	651.142
283.628	15.357	862.072	650.584
284.643	15.348	861.560	650.104
285.657	15.300	860.950	649.402
286.672	15.376	860.698	649.446
287.687	15.316	860.495	649.006
288.701	15.357	859.738	648.537
289.716	15.457	858.690	648.071
290.730	15.443	858.284	647.654
291.745	15.423	857.733	647.104
292.760	15.451	856.773	646.430
293.774	15.430	856.557	646.128
294.789	15.521	855.815	645.862
295.803	15.558	855.226	645.505
296.818	15.565	854.289	644.766
297.833	15.513	853.932	644.241
298.847	15.467	853.455	643.649
299.862	15.605	852.191	643.165
300.876	15.684	851.962	643.238
301.891	15.530	851.491	642.238
302.906	15.790	850.307	642.279
303.920	15.662	850.322	641.744
304.935	15.678	849.177	640.884
305.949	15.734	848.597	640.604
306.964	15.632	848.560	640.131
307.979	15.687	847.319	639.346
308.993	15.708	847.247	639.315
310.008	15.988	846.418	639.697
311.022	15.850	845.927	638.746
312.037	15.858	845.775	638.605
313.052	15.878	844.836	637.914
314.066	15.709	844.838	637.222
315.081	15.749	843.631	636.404
316.095	15.767	843.259	636.135
317.110	15.707	843.121	635.749
318.125	15.808	841.754	635.044
319.139	15.828	841.662	634.994
320.154	15.917	841.182	634.912
321.168	15.892	840.684	634.384
322.183	15.807	840.106	633.572
323.197	15.992	839.533	633.780
324.212	15.834	839.389	633.022
325.227	15.918	838.328	632.479
326.241	15.873	837.959	631.977
327.256	15.867	837.502	631.552
328.270	15.794	837.212	631.005
329.285	16.047	835.961	630.955
330.300	15.847	835.340	629.682
331.314	15.912	835.095	629.684
332.329	15.882	834.249	628.877
333.343	15.968	833.860	628.852
334.358	15.926	832.947	627.947
335.373	15.915	832.830	627.766
336.387	16.003	832.372	627.692
337.402	16.053	831.961	627.512
338.416	15.996	831.324	626.764
339.431	16.197	830.696	626.981
340.446	16.156	829.781	626.085
341.460	16.083	829.683	625.685
342.475	16.190	829.076	625.567
343.489	16.156	828.606	625.031
344.504	16.174	828.113	624.672
345.519	16.334	827.092	624.438
346.533	16.465	826.643	624.527
347.548	16.299	826.620	623.842
348.562	16.493	825.590	623.726
349.577	16.278	825.308	622.664
350.592	16.228	824.799	622.039
351.606	16.230	824.315	621.628
352.621	16.312	823.921	621.577
353.635	16.294	823.292	620.980
354.650	16.346	823.089	620.965
355.665	16.404	822.659	620.796
356.679	16.359	822.146	620.189
357.694	16.311	822.043	619.884
358.708	16.501	820.636	619.462
359.723	16.468	820.147	618.917
360.738	16.565	819.911	619.040
361.752	16.487	819.484	618.375
362.767	16.458	819.205	618.005
363.781	16.516	818.605	617.712
364.796	16.529	818.302	617.476
365.810	16.517	817.606	616.852
366.825	16.418	817.616	616.443
367.840	16.518	817.356	616.556
368.854	16.648	816.679	616.464
369.869	16.672	816.157	616.103
370.883	16.581	815.502	615.224
371.898	16.553	814.852	614.576
372.913	16.746	814.017	614.593
373.927	16.810	813.597	614.455
374.942	16.823	813.056	614.039
375.956	16.647	812.665	613.051
376.971	16.716	812.052	612.785
377.986	16.713	811.882	612.590
379.000	16.820	810.826	612.126
380.015	16.976	809.932	611.960
381.029	16.854	809.497	611.137
382.044	16.906	809.173	611.028
383.059	16.987	808.864	611.032
384.073	16.895	807.853	609.880
385.088	16.948	807.672	609.882
386.102	16.709	807.573	608.893
387.117	16.856	806.685	608.698
388.132	16.920	806.561	608.781
389.146	16.963	806.051	608.495
390.161	17.000	805.192	607.928
391.175	16.961	805.136	607.693
392.190	17.028	804.658	607.517
393.205	17.040	804.376	607.292
394.219	16.818	804.114	606.245
395.234	16.970	803.575	606.329
396.248	16.849	803.109	605.492
397.263	16.857	802.484	604.995
398.278	17.049	801.433	604.834
399.292	16.977	801.328	604.447
400.307	16.968	801.306	604.344
401.321	17.077	800.835	604.322
402.336	17.052	800.185	603.691
403.350	16.993	799.930	603.235
404.365	17.130	799.492	603.338
405.380	17.113	799.173	602.983
406.394	17.121	798.572	602.504
407.409	17.386	797.764	602.782
408.423	17.217	797.571	601.983
409.438	17.227	797.238	601.714
410.453	17.247	796.744	601.358
411.467	17.271	796.243	601.010
412.482	17.425	795.377	600.849
413.496	17.337	795.251	600.390
414.511	17.359	794.760	600.042
415.526	17.460	794.231	599.946
416.540	17.374	794.408	599.723
417.555	17.566	793.560	599.705
418.569	17.406	793.321	598.909
419.584	17.420	792.882	598.576
420.599	17.513	792.171	598.312
421.613	108.893	1290.252	1465.835
422.628	93.486	1362.833	1465.922
