DTS Sentinel unit serial number:	SN413079Multiplexer serial number:	ORYXHardware model number:	OX4-SRSoftware version number:	ORYX F/W v4.00 Oryx Data Collector v3.7.2.0data status	okinstallation	princeton_trtdifferential loss correction	single-endedforward channel	channel 3reverse channel	N/Adate	2019/09/12time	00:46:11forward acquisition time	60.00reverse acquisition time	0.00gamma	496.2192k internal	0.2318k external	0.2318temperature offset calibration	1.0069default loss term (dB/km)	0.3790temperature slope calibration	1.0000multiplexer offset coefficient	1.0000multiplexer slope coefficient	1.0000fibre end	0.00T internal ref (°C)	33.27T ext. ref 1 (°C)	2.08T ext. ref 2 (°C)	28.17length (m)	temperature (°C)	Stokes	anti-Stokes-747.200	81.991	-0.086	-0.094
-746.185	-63.507	-0.309	-0.129
-745.171	-200.000	0.004	0.160
-744.156	277.454	0.046	0.082
-743.142	-133.972	-0.183	0.023
-742.127	134.804	-0.099	0.130
-741.112	-76.466	-0.370	-0.132
-740.098	243.454	-0.145	0.246
-739.083	-116.849	0.106	0.020
-738.069	353.613	0.149	0.299
-737.054	-200.000	0.008	0.279
-736.039	127.323	-0.295	-0.378
-735.025	-27.080	-0.373	-0.220
-734.010	53.014	-0.246	0.238
-732.996	292.080	-0.041	-0.075
-731.981	330.704	0.135	-0.262
-730.966	3.270	-0.106	0.078
-729.952	-200.000	-0.065	0.396
-728.937	36.456	0.287	0.256
-727.923	-146.049	0.463	-0.041
-726.908	800.000	0.093	-0.379
-725.894	2.783	-0.409	-0.300
-724.879	-35.365	-0.271	0.149
-723.864	40.608	-0.229	-0.209
-722.850	-106.501	0.161	0.036
-721.835	-75.673	-0.150	-0.054
-720.821	88.749	-0.169	-0.190
-719.806	-51.391	0.168	-0.079
-718.791	-200.000	0.060	-0.349
-717.777	-103.403	-0.305	0.073
-716.762	-92.739	0.422	-0.119
-715.748	-125.310	-0.157	0.024
-714.733	119.506	-0.131	-0.165
-713.718	49.642	0.074	-0.070
-712.704	-53.056	0.348	0.162
-711.689	-159.085	-0.176	-0.010
-710.675	-200.000	-0.050	-0.321
-709.660	-143.242	-0.179	-0.017
-708.645	781.069	-0.086	0.237
-707.631	-25.445	0.379	0.226
-706.616	-50.009	-0.159	-0.076
-705.602	64.274	0.208	0.211
-704.587	64.245	-0.285	-0.290
-703.572	62.780	-0.305	-0.309
-702.558	-104.746	0.352	-0.082
-701.543	-71.122	-0.093	-0.035
-700.529	-200.000	0.035	0.228
-699.514	157.674	0.119	-0.167
-698.499	65.965	-0.083	0.085
-697.485	-10.119	0.141	-0.095
-696.470	-88.529	-0.117	0.035
-695.456	328.569	0.058	0.113
-694.441	140.950	-0.126	-0.168
-693.426	800.000	-0.024	0.081
-692.412	64.843	-0.113	0.115
-691.397	-158.147	0.349	0.021
-690.383	225.256	-0.030	0.049
-689.368	-124.291	-0.423	-0.067
-688.354	282.231	-0.070	-0.127
-687.339	800.000	0.113	-0.342
-686.324	-200.000	-0.010	-0.109
-685.310	800.000	-0.046	-0.150
-684.295	6.154	-0.275	-0.206
-683.281	-159.886	0.150	-0.008
-682.266	-71.589	0.237	0.089
-681.251	203.250	-0.076	-0.119
-680.237	210.785	0.086	0.137
-679.222	-88.074	0.154	-0.047
-678.208	466.784	-0.085	-0.193
-677.193	121.776	-0.156	-0.196
-676.178	-200.000	-0.055	0.381
-675.164	526.896	-0.190	-0.453
-674.149	181.346	-0.115	0.170
-673.135	-74.853	0.043	-0.016
-672.120	4.456	-0.238	0.176
-671.105	-95.419	-0.199	-0.054
-670.091	-98.082	-0.275	-0.071
-669.076	-3.607	0.245	0.172
-668.062	-24.328	0.245	0.147
-667.047	-101.967	0.396	-0.096
-666.032	27.977	-0.210	-0.178
-665.018	-200.000	-0.007	-0.245
-664.003	-33.791	-0.196	0.109
-662.989	494.331	0.033	-0.077
-661.974	370.077	-0.102	-0.208
-660.959	-100.845	0.130	0.032
-659.945	-137.941	0.324	-0.037
-658.930	2.385	-0.242	-0.176
-657.916	383.185	-0.096	0.200
-656.901	15.366	0.115	-0.091
-655.886	-200.000	0.013	-0.133
-654.872	-42.788	-0.418	0.214
-653.857	-200.000	-0.032	0.208
-652.843	-200.000	-0.026	0.247
-651.828	-102.808	-0.150	-0.036
-650.814	-200.000	0.034	-0.258
-649.799	-152.218	-0.272	0.020
-648.784	519.958	-0.164	0.388
-647.770	160.637	0.210	-0.296
-646.755	-58.930	0.168	-0.073
-645.741	-200.000	0.031	-0.210
-644.726	23.941	-0.179	0.149
-643.711	-200.000	0.003	0.195
-642.697	293.758	0.113	-0.208
-641.682	-153.334	-0.082	0.006
-640.668	-111.615	-0.181	0.037
-639.653	262.307	-0.127	-0.222
-638.638	159.309	-0.055	0.077
-637.624	800.000	0.046	-0.187
-636.609	80.316	0.063	-0.069
-635.595	-72.332	0.165	0.062
-634.580	9.371	-0.094	-0.072
-633.565	-42.669	0.247	-0.127
-632.551	-101.698	-0.178	-0.044
-631.536	227.929	0.215	-0.352
-630.522	294.579	0.213	-0.392
-629.507	-21.107	-0.045	-0.028
-628.492	22.353	-0.037	-0.031
-627.478	72.291	-0.182	0.191
-626.463	-115.515	-0.345	0.065
-625.449	-48.946	0.081	0.039
-624.434	-81.961	0.390	-0.128
-623.419	-48.398	-0.075	-0.036
-622.405	-65.703	-0.222	-0.090
-621.390	104.612	0.096	0.114
-620.376	-200.000	-0.067	0.642
-619.361	282.310	-0.171	0.310
-618.346	70.061	-0.203	-0.211
-617.332	117.653	-0.348	0.431
-616.317	493.077	0.067	0.156
-615.303	300.708	-0.029	-0.053
-614.288	95.876	-0.125	-0.143
-613.273	-54.074	0.337	-0.154
-612.259	585.578	-0.130	-0.323
-611.244	-200.000	-0.013	0.194
-610.230	-200.000	0.023	-0.214
-609.215	-57.880	0.071	-0.031
-608.201	0.679	-0.157	-0.113
-607.186	491.711	0.065	0.149
-606.171	5.071	0.235	-0.174
-605.157	179.151	-0.044	-0.064
-604.142	-9.455	-0.292	-0.196
-603.128	139.599	-0.066	0.088
-602.113	-78.307	-0.294	-0.101
-601.098	-66.395	0.075	0.030
-600.084	-58.683	-0.268	0.117
-599.069	-64.974	-0.200	0.081
-598.055	-200.000	-0.004	0.277
-597.040	19.537	0.132	0.107
-596.025	-51.053	-0.331	0.156
-595.011	688.904	-0.019	-0.049
-593.996	-1.866	0.300	-0.213
-592.982	-7.315	0.402	-0.274
-591.967	-140.634	-0.420	0.044
-590.952	-117.609	0.251	0.046
-589.938	-200.000	0.042	0.281
-588.923	237.231	0.053	-0.088
-587.909	-80.893	-0.134	-0.045
-586.894	-117.206	-0.122	0.022
-585.879	-0.018	-0.169	-0.121
-584.865	-18.274	0.247	0.155
-583.850	800.000	0.156	0.464
-582.836	-96.227	-0.333	0.089
-581.821	800.000	-0.037	-0.160
-580.806	-85.158	0.213	0.067
-579.792	52.144	-0.153	0.147
-578.777	800.000	-0.068	0.230
-577.763	47.436	-0.061	0.058
-576.748	-46.986	-0.225	0.110
-575.733	8.831	-0.294	-0.223
-574.719	-43.672	-0.264	-0.134
-573.704	639.764	0.051	0.132
-572.690	111.472	0.050	0.061
-571.675	661.036	0.139	0.359
-570.661	49.499	0.175	-0.166
-569.646	-138.034	-0.215	0.024
-568.631	-85.363	0.062	0.020
-567.617	81.294	0.092	0.100
-566.602	-145.520	0.054	-0.005
-565.588	-15.183	0.069	0.044
-564.573	85.772	-0.165	0.182
-563.558	-97.719	-0.383	0.100
-562.544	-41.239	-0.143	-0.074
-561.529	55.939	0.128	-0.125
-560.515	-67.744	0.125	-0.049
-559.500	-31.131	-0.236	-0.134
-558.485	-181.612	-0.205	0.004
-557.471	-173.704	0.193	-0.006
-556.456	434.935	0.016	-0.034
-555.442	144.719	-0.328	0.441
-554.427	-121.721	-0.163	-0.027
-553.412	636.999	-0.085	-0.218
-552.398	800.000	-0.064	-0.232
-551.383	67.351	0.127	0.131
-550.369	125.636	0.018	0.023
-549.354	44.175	-0.192	0.177
-548.339	593.447	-0.077	-0.190
-547.325	-40.130	0.113	0.059
-546.310	-146.625	-0.175	-0.015
-545.296	-102.521	0.375	-0.090
-544.281	474.189	0.139	0.315
-543.266	-5.465	-0.276	-0.190
-542.252	201.278	-0.139	0.214
-541.237	-200.000	0.072	-0.322
-540.223	-113.406	0.270	0.053
-539.208	76.755	0.239	-0.255
-538.193	-63.074	-0.340	-0.141
-537.179	-200.000	0.008	0.231
-536.164	-112.270	0.186	0.037
-535.150	79.520	-0.091	0.097
-534.135	208.530	-0.225	0.353
-533.121	800.000	-0.080	-0.238
-532.106	0.227	0.149	-0.107
-531.091	124.933	0.185	-0.234
-530.077	-44.305	0.287	0.144
-529.062	800.000	-0.109	-0.353
-528.048	32.419	-0.106	-0.092
-527.033	-190.214	0.041	0.000
-526.018	-200.000	0.015	-0.171
-525.004	-200.000	0.003	-0.301
-523.989	-200.000	0.006	-0.258
-522.975	800.000	-0.089	0.263
-521.960	752.541	0.129	-0.349
-520.945	800.000	-0.046	0.136
-519.931	13.413	-0.058	-0.045
-518.916	196.640	0.090	-0.137
-517.902	-200.000	-0.002	-0.258
-516.887	800.000	-0.050	-0.171
-515.872	553.853	0.063	-0.152
-514.858	-81.151	0.107	-0.035
-513.843	800.000	-0.032	-0.094
-512.829	28.407	-0.224	0.190
-511.814	98.532	0.111	0.129
-510.799	212.284	-0.181	0.285
-509.785	488.863	0.132	-0.302
-508.770	-198.969	-0.164	0.001
-507.756	252.816	0.154	-0.263
-506.741	-192.662	-0.015	-0.000
-505.726	28.092	-0.154	-0.130
-504.712	584.982	0.053	0.131
-503.697	109.947	0.084	0.101
-502.683	240.366	-0.089	-0.149
-501.668	-24.824	-0.292	0.174
-500.653	-17.716	0.414	0.260
-499.639	800.000	-0.063	-0.182
-498.624	800.000	-0.070	0.248
-497.610	183.344	-0.165	0.245
-496.595	682.877	-0.073	0.191
-495.581	-144.365	-0.414	-0.039
-494.566	-98.325	-0.315	0.081
-493.551	-74.493	0.045	-0.016
-492.537	403.070	0.090	-0.189
-491.522	265.380	0.280	0.489
-490.508	116.689	0.084	0.104
-489.493	487.942	0.136	0.311
-488.478	460.231	-0.054	0.121
-487.464	-165.050	-0.426	0.019
-486.449	-67.476	0.083	-0.032
-485.435	144.023	0.075	-0.100
-484.420	132.749	0.122	-0.157
-483.405	73.873	0.098	-0.103
-482.391	-141.728	0.120	0.012
-481.376	48.937	0.175	-0.165
-480.362	229.855	0.149	-0.243
-479.347	-152.053	-0.334	-0.024
-478.332	38.829	-0.162	0.144
-477.318	-23.185	-0.263	0.159
-476.303	800.000	-0.013	-0.051
-475.289	-57.653	-0.125	0.055
-474.274	-200.000	-0.002	0.264
-473.259	267.348	0.021	0.036
-472.245	-110.925	-0.168	-0.035
-471.230	-200.000	0.021	0.141
-470.216	55.515	-0.367	0.356
-469.201	800.000	-0.124	-0.344
-468.186	-59.071	-0.365	-0.158
-467.172	180.242	0.031	-0.045
-466.157	84.732	0.218	-0.238
-465.143	-72.444	0.361	-0.134
-464.128	198.454	-0.115	0.177
-463.113	86.374	0.186	-0.205
-462.099	-1.942	-0.103	0.072
-461.084	-17.183	-0.167	0.106
-460.070	-132.937	-0.344	-0.044
-459.055	-139.962	0.174	0.018
-458.040	-200.000	-0.075	-0.347
-457.026	99.254	-0.121	0.140
-456.011	-92.737	0.237	0.066
-454.997	57.015	-0.085	-0.083
-453.982	-54.016	0.099	0.045
-452.968	-142.936	-0.165	-0.016
-451.953	137.046	0.181	-0.237
-450.938	80.422	0.168	-0.181
-449.924	10.373	-0.178	-0.136
-448.909	800.000	0.038	0.144
-447.895	-66.807	0.308	-0.122
-446.880	-28.883	0.180	0.103
-445.865	18.816	0.126	0.101
-444.851	-132.321	0.187	-0.024
-443.836	-119.879	0.519	-0.089
-442.822	-137.700	-0.092	0.010
-441.807	-154.947	0.104	-0.007
-440.792	-7.807	-0.173	-0.117
-439.778	90.554	0.180	-0.201
-438.763	800.000	-0.068	0.209
-437.749	-2.200	-0.202	-0.142
-436.734	10.817	-0.082	0.062
-435.719	-51.648	0.303	0.141
-434.705	146.337	-0.121	-0.163
-433.690	-163.385	-0.106	-0.005
-432.676	-200.000	0.013	0.175
-431.661	-149.146	-0.281	-0.023
-430.646	-139.892	-0.704	-0.074
-429.632	-75.660	-0.098	0.035
-428.617	-38.765	-0.174	0.092
-427.603	-56.101	0.235	-0.105
-426.588	-134.097	0.262	0.032
-425.573	-115.033	0.199	-0.038
-424.559	-85.432	0.029	0.009
-423.544	-42.269	0.080	0.041
-422.530	263.122	0.093	0.161
-421.515	-10.907	-0.173	-0.114
-420.500	614.941	0.071	0.179
-419.486	80.189	-0.273	0.294
-418.471	99.572	0.193	0.223
-417.457	-200.000	-0.000	0.254
-416.442	-48.240	-0.146	0.070
-415.428	-200.000	0.011	0.311
-414.413	-200.000	0.011	0.137
-413.398	97.415	0.259	-0.297
-412.384	-33.302	-0.272	-0.150
-411.369	168.288	0.075	-0.106
-410.355	63.798	-0.157	0.157
-409.340	669.983	0.099	0.257
-408.325	76.446	-0.053	-0.056
-407.311	800.000	0.071	0.252
-406.296	11.866	0.187	-0.144
-405.282	32.527	0.183	-0.158
-404.267	-110.377	-0.187	-0.039
-403.252	-41.324	0.215	-0.111
-402.238	-200.000	0.015	0.099
-401.223	-50.809	-0.020	0.009
-400.209	-200.000	-0.034	0.158
-399.194	-167.749	-0.188	0.007
-398.179	318.181	-0.030	0.057
-397.165	-90.856	0.148	0.042
-396.150	21.022	-0.286	0.232
-395.136	-25.164	-0.391	0.231
-394.121	-98.272	0.346	-0.089
-393.106	167.131	0.052	-0.074
-392.092	-200.000	-0.026	-0.150
-391.077	10.726	0.181	0.138
-390.063	800.000	0.033	-0.141
-389.048	20.729	0.131	-0.105
-388.033	183.526	-0.104	0.153
-387.019	-129.513	-0.313	-0.043
-386.004	-200.000	0.104	-0.458
-384.990	800.000	0.046	-0.201
-383.975	-200.000	-0.036	-0.176
-382.960	-200.000	0.054	-0.306
-381.946	-200.000	-0.004	-0.280
-380.931	307.113	-0.139	0.258
-379.917	800.000	0.031	0.115
-378.902	2.983	0.098	0.071
-377.888	56.508	-0.135	0.131
-376.873	-200.000	-0.003	0.111
-375.858	-199.200	-0.086	-0.000
-374.844	233.631	-0.053	-0.087
-373.829	800.000	0.040	0.144
-372.815	86.857	0.129	-0.142
-371.800	49.641	0.320	0.301
-370.785	-68.443	0.336	0.130
-369.771	-15.387	-0.066	-0.042
-368.756	-14.032	0.164	-0.105
-367.742	-54.009	0.236	-0.107
-366.727	-74.903	0.055	-0.020
-365.712	-177.126	0.042	-0.001
-364.698	680.164	0.037	-0.096
-363.683	45.594	-0.073	-0.068
-362.669	-133.887	-0.122	0.015
-361.654	-200.000	0.015	0.082
-360.639	-101.639	0.143	-0.035
-359.625	-200.000	0.005	0.030
-358.610	69.840	0.235	-0.242
-357.596	473.747	0.094	0.212
-356.581	30.896	0.257	-0.219
-355.566	-111.289	-0.126	-0.026
-354.552	-10.862	-0.121	0.080
-353.537	100.269	-0.259	0.299
-352.523	65.419	0.091	-0.092
-351.508	115.389	-0.189	0.231
-350.493	388.618	0.051	0.104
-349.479	-94.104	-0.284	0.078
-348.464	-200.000	0.047	-0.208
-347.450	33.810	-0.159	-0.138
-346.435	-10.900	-0.099	0.065
-345.420	396.636	0.006	-0.013
-344.406	-101.901	-0.188	0.045
-343.391	-181.948	0.172	0.003
-342.377	50.924	-0.120	-0.113
-341.362	108.328	0.107	-0.127
-340.348	235.419	-0.168	0.276
-339.333	-200.000	-0.016	-0.128
-338.318	342.525	-0.117	0.229
-337.304	-200.000	0.003	0.140
-336.289	394.273	0.064	-0.133
-335.275	800.000	0.128	-0.497
-334.260	800.000	0.031	0.112
-333.245	-200.000	0.079	0.351
-332.231	-127.089	0.173	0.025
-331.216	-60.981	0.301	0.127
-330.202	-15.854	-0.081	0.051
-329.187	56.515	-0.114	0.110
-328.172	-21.327	-0.224	0.136
-327.158	-200.000	-0.004	0.036
-326.143	-94.520	0.252	-0.068
-325.129	29.194	-0.299	0.253
-324.114	41.472	0.248	0.224
-323.099	-91.922	0.436	0.123
-322.085	-200.000	-0.008	-0.156
-321.070	-200.000	-0.004	-0.100
-320.056	800.000	0.061	-0.194
-319.041	800.000	0.034	0.113
-318.026	-42.245	0.141	-0.072
-317.012	17.599	-0.099	0.078
-315.997	800.000	0.156	0.536
-314.983	192.783	-0.188	-0.282
-313.968	-200.000	-0.001	-0.349
-312.953	-96.404	0.290	-0.076
-311.939	-121.729	-0.170	0.028
-310.924	-139.570	0.168	-0.018
-309.910	-163.783	-0.404	0.019
-308.895	-39.731	-0.155	-0.080
-307.880	-129.394	0.248	0.034
-306.866	-96.186	-0.206	0.054
-305.851	-157.825	-0.221	0.013
-304.837	21.069	-0.148	0.120
-303.822	-200.000	-0.019	0.294
-302.807	-20.769	0.309	0.189
-301.793	-108.093	0.067	0.015
-300.778	483.801	0.115	-0.260
-299.764	-3.214	-0.161	-0.112
-298.749	800.000	0.133	-0.370
-297.735	-104.185	-0.272	0.063
-296.720	-169.715	0.375	0.013
-295.705	-157.173	-0.305	0.018
-294.691	-77.102	0.288	-0.100
-293.676	-200.000	-0.008	-0.221
-292.662	-64.508	0.199	-0.081
-291.647	160.677	0.171	-0.237
-290.632	33.839	0.280	0.242
-289.618	92.506	-0.122	0.137
-288.603	-145.955	-0.279	0.025
-287.589	29.732	0.052	0.044
-286.574	265.193	-0.136	-0.236
-285.559	48.064	0.016	0.015
-284.545	177.041	-0.151	-0.219
-283.530	3.251	0.366	0.265
-282.516	75.780	-0.118	-0.124
-281.501	31.153	0.242	-0.207
-280.486	-116.506	0.187	0.034
-279.472	-21.887	-0.156	-0.094
-278.457	-200.000	0.005	-0.034
-277.443	410.268	0.158	-0.333
-276.428	-13.317	-0.196	0.126
-275.413	385.494	0.211	0.433
-274.399	783.104	0.088	0.240
-273.384	53.466	-0.167	0.159
-272.370	582.877	0.047	0.114
-271.355	-95.533	-0.074	-0.020
-270.340	800.000	-0.047	-0.138
-269.326	428.982	-0.089	-0.190
-268.311	-141.245	0.122	0.012
-267.297	800.000	0.014	0.051
-266.282	-200.000	0.038	0.180
-265.267	-29.387	-0.155	-0.088
-264.253	170.121	-0.156	-0.222
-263.238	39.512	0.465	-0.414
-262.224	-200.000	0.002	-0.220
-261.209	800.000	0.059	-0.196
-260.195	-84.282	0.243	0.077
-259.180	50.166	-0.162	-0.152
-258.165	-200.000	0.102	-0.534
-257.151	295.686	-0.122	0.221
-256.136	-2.918	-0.052	0.036
-255.122	278.741	0.055	-0.098
-254.107	-72.629	-0.484	-0.177
-253.092	54.474	0.190	-0.182
-252.078	-200.000	0.000	0.015
-251.063	7.960	-0.093	0.070
-250.049	-41.278	-0.178	-0.091
-249.034	30.084	0.234	-0.198
-248.019	-200.000	-0.130	-0.645
-247.005	-98.633	-0.175	0.044
-245.990	-145.053	0.653	0.059
-244.976	-21.910	0.268	0.162
-243.961	1.674	-0.139	-0.099
-242.946	38.226	-0.206	0.182
-241.932	800.000	-0.039	0.115
-240.917	-25.642	0.330	0.193
-239.903	-200.000	0.058	-0.375
-238.888	800.000	0.058	0.160
-237.873	800.000	-0.064	0.177
-236.859	-63.425	0.148	0.060
-235.844	-24.558	0.166	0.098
-234.830	56.635	-0.044	-0.042
-233.815	127.579	-0.112	0.141
-232.800	-2.845	-0.259	-0.179
-231.786	-200.000	0.046	-0.662
-230.771	314.939	0.170	-0.317
-229.757	-103.267	-0.085	0.020
-228.742	-144.896	-0.111	0.010
-227.727	-200.000	0.021	0.113
-226.713	-200.000	-0.010	0.243
-225.698	8.025	-0.367	-0.273
-224.684	480.623	-0.035	-0.078
-223.669	-49.173	0.080	0.038
-222.655	-139.007	0.302	0.032
-221.640	-42.350	-0.082	0.041
-220.625	-200.000	0.028	0.306
-219.611	506.818	0.215	0.495
-218.596	-3.090	-0.019	-0.013
-217.582	-27.577	0.185	0.106
-216.567	800.000	-0.074	-0.224
-215.552	570.883	0.049	0.119
-214.538	88.851	0.225	-0.249
-213.523	-75.531	-0.230	0.081
-212.509	-94.475	-0.157	0.042
-211.494	-200.000	0.016	0.210
-210.479	-200.000	-0.041	0.190
-209.465	-107.653	-0.112	-0.024
-208.450	244.003	-0.072	-0.120
-207.436	-71.664	-0.026	0.010
-206.421	-169.373	0.199	-0.007
-205.406	299.898	0.043	-0.079
-204.392	-191.236	-0.087	-0.001
-203.377	-87.637	0.113	0.034
-202.363	16.414	-0.042	0.033
-201.348	800.000	-0.074	0.265
-200.333	-5.094	-0.105	0.072
-199.319	52.430	0.198	0.187
-198.304	65.998	-0.214	0.215
-197.290	-41.613	-0.236	0.120
-196.275	-85.765	-0.031	-0.009
-195.260	-110.102	0.167	0.035
-194.246	-74.736	0.408	-0.145
-193.231	97.441	0.255	0.290
-192.217	-48.380	-0.058	0.028
-191.202	-115.616	-0.198	-0.037
-190.187	-199.557	0.404	-0.002
-189.173	800.000	0.072	-0.226
-188.158	-200.000	0.024	0.108
-187.144	1.105	-0.339	0.241
-186.129	800.000	-0.061	-0.177
-185.114	20.567	-0.161	-0.129
-184.100	98.654	-0.152	-0.174
-183.085	35.829	-0.140	0.122
-182.071	392.648	0.138	0.284
-181.056	-159.910	0.199	0.011
-180.042	-3.549	-0.320	0.221
-179.027	-43.494	0.229	-0.114
-178.012	-82.615	0.302	-0.097
-176.998	308.850	-0.070	0.129
-175.983	691.439	-0.050	0.130
-174.969	-200.000	-0.006	-0.401
-173.954	-83.966	0.128	-0.040
-172.939	800.000	0.096	-0.274
-171.925	-59.808	-0.199	0.084
-170.910	318.859	-0.189	0.355
-169.896	-1.434	0.254	0.178
-168.881	800.000	0.055	-0.160
-167.866	-138.018	-0.194	0.021
-166.852	29.903	0.118	0.100
-165.837	10.058	0.402	0.302
-164.823	-58.863	0.223	0.095
-163.808	233.655	0.039	-0.063
-162.793	189.668	0.271	0.402
-161.779	-12.627	0.126	-0.081
-160.764	252.282	-0.160	0.270
-159.750	-98.081	0.454	0.116
-158.735	-138.170	-0.082	0.009
-157.720	710.517	-0.068	-0.177
-156.706	56.199	-0.285	-0.274
-155.691	800.000	0.075	-0.294
-154.677	-83.410	0.128	-0.041
-153.662	317.370	-0.086	0.160
-152.647	-87.340	0.563	-0.169
-151.633	147.746	-0.119	-0.158
-150.618	-200.000	0.049	-0.291
-149.604	-200.000	-0.004	-0.089
-148.589	-200.000	0.040	-0.287
-147.574	-60.954	-0.364	-0.152
-146.560	800.000	0.067	-0.239
-145.545	-200.000	0.007	0.082
-144.531	-200.000	-0.016	-0.085
-143.516	-63.492	0.386	-0.157
-142.502	38.155	0.183	0.161
-141.487	-83.946	-0.299	-0.094
-140.472	90.021	-0.183	0.202
-139.458	447.051	0.182	0.395
-138.443	-200.000	-0.045	-0.214
-137.429	-200.000	0.037	0.531
-136.414	-94.893	-0.228	-0.061
-135.399	34.590	0.032	0.028
-134.385	800.000	0.068	-0.244
-133.370	98.179	0.199	0.227
-132.356	432.035	-0.029	0.062
-131.341	-200.000	-0.022	-0.210
-130.326	42.575	-0.088	-0.079
-129.312	12.934	-0.098	0.075
-128.297	-198.232	-0.080	-0.000
-127.283	-200.000	-0.006	0.365
-126.268	-40.019	-0.151	0.078
-125.253	664.417	-0.104	-0.265
-124.239	364.363	-0.072	-0.143
-123.224	8.201	-0.143	-0.106
-122.210	234.326	-0.077	0.126
-121.195	6.467	-0.316	-0.232
-120.180	-200.000	-0.076	-0.433
-119.166	35.686	0.267	-0.231
-118.151	-200.000	-0.045	-0.265
-117.137	-120.376	0.172	-0.029
-116.122	724.791	-0.127	0.333
-115.107	-76.243	-0.410	0.143
-114.093	-200.000	-0.010	0.308
-113.078	-200.000	0.002	-0.318
-112.064	297.359	-0.021	0.038
-111.049	82.016	0.226	0.242
-110.034	-119.160	0.120	-0.021
-109.020	-84.087	-0.023	-0.007
-108.005	800.000	0.023	-0.095
-106.991	-200.000	-0.005	0.348
-105.976	148.131	0.102	0.136
-104.962	800.000	-0.187	0.522
-103.947	-200.000	0.037	0.185
-102.932	-35.709	0.058	0.031
-101.918	290.765	-0.234	0.419
-100.903	-200.000	0.012	-0.180
-99.889	-108.579	-0.045	0.010
-98.874	-29.699	0.229	0.129
-97.859	163.808	-0.078	-0.109
-96.845	-120.658	-0.108	0.018
-95.830	55.181	-0.030	0.028
-94.816	800.000	-0.125	-0.350
-93.801	60.239	0.236	-0.231
-92.786	-77.440	-0.368	-0.126
-91.772	110.462	-0.235	0.278
-90.757	5.740	0.088	-0.064
-89.743	-62.410	0.168	0.069
-88.728	475.008	-0.061	0.137
-87.713	18.290	0.286	-0.225
-86.699	-103.382	0.402	-0.093
-85.684	317.055	0.151	-0.282
-84.670	-98.375	-0.043	0.011
-83.655	111.949	-0.049	-0.058
-82.640	-46.556	-0.077	0.037
-81.626	-36.651	-0.244	0.129
-80.611	-104.818	-0.321	-0.073
-79.597	222.027	0.162	-0.257
-78.582	186.746	0.137	0.202
-77.567	510.575	0.026	0.059
-76.553	593.781	0.132	-0.322
-75.538	-8.574	0.036	-0.024
-74.524	-114.144	-0.436	-0.083
-73.509	-200.000	-0.031	0.300
-72.494	57.473	0.211	0.203
-71.480	83.267	-0.235	-0.252
-70.465	154.076	-0.078	-0.106
-69.451	226.633	0.074	-0.118
-68.436	87.602	0.148	0.162
-67.422	-11.130	0.295	-0.191
-66.407	-108.017	0.298	0.064
-65.392	633.367	-0.003	0.009
-64.378	88.334	0.230	0.252
-63.363	-97.280	-0.337	-0.087
-62.349	-99.187	0.170	-0.042
-61.334	-11.736	-1.117	-0.722
-60.319	-14.731	0.420	0.266
-59.305	-200.000	-0.095	-0.852
-58.290	93.744	0.780	0.871
-57.276	431.243	0.711	1.517
-56.261	-200.000	96.181	578.996
-55.246	547.863	1386.581	3269.850
-54.232	157.712	2567.994	3503.274
-53.217	111.771	2166.954	2576.418
-52.203	43.576	1708.699	1539.101
-51.188	36.593	1521.605	1322.961
-50.173	34.080	1495.401	1283.204
-49.159	53.192	1544.143	1456.422
-48.144	55.210	1562.538	1487.553
-47.130	36.596	1521.230	1322.448
-46.115	33.534	1506.252	1288.600
-45.100	33.404	1502.581	1284.526
-44.086	33.235	1501.382	1282.303
-43.071	33.298	1499.681	1281.227
-42.057	33.242	1497.342	1278.800
-41.042	33.359	1496.151	1278.523
-40.027	33.246	1495.615	1277.247
-39.013	33.269	1493.497	1275.542
-37.998	33.265	1492.119	1274.293
-36.984	33.381	1491.070	1274.122
-35.969	33.351	1490.019	1272.972
-34.954	33.349	1488.187	1271.341
-33.940	33.250	1487.306	1269.878
-32.925	33.326	1485.726	1268.989
-31.911	33.422	1484.057	1268.151
-30.896	33.318	1483.277	1266.741
-29.881	33.357	1481.768	1265.664
-28.867	33.265	1480.615	1264.011
-27.852	33.259	1479.163	1262.681
-26.838	33.307	1477.407	1261.454
-25.823	33.238	1476.365	1260.056
-24.809	33.283	1474.467	1258.687
-23.794	33.318	1472.907	1257.537
-22.779	33.291	1471.608	1256.196
-21.765	33.265	1470.672	1255.174
-20.750	33.281	1469.721	1254.424
-19.736	33.332	1468.507	1253.671
-18.721	33.326	1467.603	1252.813
-17.706	33.236	1466.816	1251.497
-16.692	33.196	1465.856	1250.363
-15.677	33.299	1464.617	1249.937
-14.663	33.261	1463.588	1248.758
-13.648	33.243	1462.769	1247.889
-12.633	33.246	1461.637	1246.895
-11.619	33.258	1460.822	1246.228
-10.604	33.095	1460.267	1244.630
-9.590	33.199	1458.837	1244.045
-8.575	33.245	1457.789	1243.409
-7.560	33.182	1457.537	1242.727
-6.546	33.109	1456.994	1241.737
-5.531	33.248	1455.337	1241.185
-4.517	33.223	1454.300	1240.090
-3.502	33.200	1453.292	1239.030
-2.487	33.199	1452.568	1238.356
-1.473	33.186	1451.493	1237.309
-0.458	33.099	1450.235	1235.619
0.556	33.771	1440.444	1225.002
1.571	30.927	1416.378	1186.352
2.586	27.663	1361.642	1120.391
3.600	26.232	1282.784	1047.121
4.615	24.865	1235.526	1000.818
5.629	21.428	1177.703	935.543
6.644	11.497	1089.946	816.340
7.659	3.441	1047.221	745.443
8.673	2.260	1041.891	735.900
9.688	2.075	1038.841	732.793
10.702	1.975	1036.939	730.908
11.717	2.001	1034.751	729.424
12.731	5.598	1039.794	750.172
13.746	15.701	1053.706	808.974
14.761	23.182	1063.706	852.775
15.775	24.906	1065.156	862.170
16.790	25.370	1064.496	863.791
17.804	24.996	1063.824	861.373
18.819	25.039	1062.973	860.813
19.834	25.212	1062.060	860.829
20.848	25.091	1062.010	860.131
21.863	25.175	1061.653	860.168
22.877	25.197	1061.389	859.985
23.892	25.189	1060.394	859.065
24.907	24.984	1060.026	857.710
25.921	25.239	1058.909	857.948
26.936	25.233	1058.162	857.238
27.950	25.208	1057.037	856.134
28.965	25.104	1055.971	854.697
29.980	25.035	1054.043	852.733
30.994	24.974	1053.397	851.847
32.009	25.271	1052.465	852.429
33.023	25.262	1051.941	851.882
34.038	25.048	1051.318	850.287
35.053	25.104	1050.063	849.465
36.067	25.272	1049.511	849.739
37.082	24.987	1048.892	847.814
38.096	25.227	1047.878	848.054
39.111	25.525	1047.011	848.685
40.126	25.536	1046.362	848.134
41.140	25.605	1044.983	847.268
42.155	25.112	1043.913	844.003
43.169	24.740	1042.818	841.293
44.184	24.645	1041.967	840.087
45.199	24.744	1040.991	839.689
46.213	24.735	1039.968	838.746
47.228	24.817	1038.648	837.994
48.242	25.069	1037.910	838.503
49.257	25.131	1037.671	838.528
50.271	25.235	1036.948	838.355
51.286	25.171	1036.113	837.304
52.301	25.275	1035.468	837.194
53.315	25.251	1034.753	836.430
54.330	25.206	1034.018	835.554
55.344	25.089	1032.888	834.023
56.359	25.107	1032.294	833.552
57.374	25.134	1031.561	833.013
58.388	24.939	1030.535	831.204
59.403	25.013	1029.126	830.337
60.417	25.002	1029.088	830.184
61.432	24.846	1028.226	828.692
62.447	24.869	1027.496	828.138
63.461	24.942	1026.846	827.876
64.476	25.019	1025.966	827.448
65.490	24.968	1025.172	826.499
66.505	24.818	1024.570	825.252
67.520	24.854	1023.694	824.637
68.534	24.918	1022.892	824.215
69.549	24.740	1022.022	822.620
70.563	24.527	1020.539	820.375
71.578	24.458	1020.105	819.640
72.593	24.515	1019.261	819.148
73.607	24.463	1017.629	817.525
74.622	24.342	1017.261	816.606
75.636	24.689	1016.100	817.187
76.651	24.820	1015.787	817.461
77.666	24.678	1015.103	816.191
78.680	24.467	1013.870	814.166
79.695	24.623	1013.106	814.191
80.709	24.692	1013.251	814.549
81.724	24.841	1012.247	814.346
82.739	24.746	1011.445	813.200
83.753	24.793	1010.296	812.416
84.768	25.042	1009.989	813.230
85.782	25.410	1009.232	814.213
86.797	25.493	1008.740	814.120
87.812	25.577	1007.357	813.311
88.826	25.218	1006.614	811.019
89.841	25.295	1005.976	810.781
90.855	25.603	1005.118	811.409
91.870	25.554	1004.586	810.685
92.884	25.456	1003.870	809.596
93.899	25.354	1002.586	808.027
94.914	25.228	1001.989	806.907
95.928	25.427	1000.794	806.768
96.943	25.283	1000.846	806.093
97.957	25.173	998.917	803.975
98.972	24.912	998.042	802.031
99.987	24.612	997.320	800.035
101.001	24.694	996.860	799.963
102.016	25.115	996.060	801.134
103.030	25.208	995.059	800.671
104.045	25.246	993.871	799.816
105.060	24.984	992.855	797.760
106.074	24.823	991.629	795.988
107.089	24.875	991.348	795.923
108.103	25.170	990.753	796.682
109.118	25.161	990.374	796.272
110.133	24.937	988.749	793.900
111.147	24.938	987.498	792.830
112.162	24.873	986.599	791.749
113.176	24.490	985.811	789.355
114.191	24.702	984.893	789.484
115.206	24.868	984.263	789.644
116.220	24.610	983.036	787.454
117.235	24.425	981.886	785.647
118.249	24.647	981.470	786.222
119.264	24.541	981.176	785.451
120.279	24.426	980.017	783.950
121.293	24.296	979.374	782.794
122.308	24.583	978.860	783.572
123.322	24.688	977.485	782.861
124.337	24.621	976.538	781.741
125.352	24.484	975.058	779.888
126.366	24.176	973.390	777.142
127.381	23.792	972.557	774.733
128.395	24.140	972.474	776.116
129.410	24.996	971.879	779.301
130.424	25.067	971.313	779.084
131.439	24.911	970.929	778.030
132.454	24.995	969.772	777.398
133.468	25.031	968.381	776.370
134.483	24.980	967.856	775.662
135.497	25.134	967.131	775.678
136.512	25.290	966.889	776.089
137.527	25.401	965.925	775.724
138.541	25.454	964.763	774.954
139.556	25.329	964.268	773.948
140.570	25.206	963.825	772.996
141.585	25.349	962.936	772.830
142.600	25.409	962.075	772.328
143.614	25.264	960.787	770.600
144.629	25.451	960.237	770.896
145.643	25.708	959.675	771.477
146.658	25.517	958.593	769.720
147.673	25.350	957.466	768.033
148.687	25.347	955.912	766.705
149.702	25.156	955.091	765.164
150.716	24.960	954.731	763.975
151.731	25.059	953.372	763.241
152.746	25.061	952.765	762.697
153.760	25.336	952.274	763.405
154.775	25.510	951.356	763.339
155.789	25.544	950.272	762.549
156.804	25.460	949.962	761.876
157.819	25.469	948.516	760.686
158.833	25.383	947.957	759.805
159.848	25.513	947.618	760.015
160.862	25.530	946.746	759.321
161.877	25.454	945.285	757.763
162.892	25.332	944.680	756.696
163.906	25.446	943.767	756.376
164.921	25.604	942.688	756.109
165.935	25.459	942.030	754.908
166.950	25.537	940.554	753.984
167.964	25.535	940.094	753.539
168.979	25.505	939.129	752.577
169.994	25.369	937.939	750.984
171.008	25.367	936.937	750.107
172.023	25.325	936.492	749.510
173.037	25.687	935.323	750.019
174.052	25.391	934.570	748.116
175.067	25.221	933.382	746.390
176.081	25.080	932.813	745.281
177.096	25.332	931.393	745.128
178.110	25.204	931.031	744.244
179.125	25.069	929.806	742.639
180.140	24.883	928.955	741.124
181.154	24.823	928.444	740.401
182.169	24.877	927.947	740.161
183.183	25.075	928.066	741.012
184.198	25.345	927.883	741.915
185.213	25.370	926.741	741.039
186.227	25.294	926.143	740.181
187.242	25.472	925.656	740.459
188.256	25.396	924.908	739.484
189.271	25.559	923.638	739.074
190.286	25.554	923.016	738.490
191.300	25.357	922.429	737.148
192.315	24.766	921.250	733.715
193.329	24.061	919.160	729.100
194.344	23.586	918.599	726.647
195.359	24.315	918.623	729.583
196.373	25.149	919.095	733.305
197.388	25.407	918.622	733.919
198.402	25.264	918.054	732.816
199.417	25.216	917.315	731.966
200.432	25.329	916.954	732.072
201.446	25.246	916.337	731.176
202.461	24.795	915.859	728.895
203.475	24.952	914.942	728.738
204.490	24.632	913.374	726.124
205.504	23.515	911.063	719.694
206.519	23.828	911.282	721.074
207.534	24.693	911.789	724.922
208.548	24.944	911.014	725.257
209.563	25.179	911.155	726.258
210.577	25.372	910.028	726.076
211.592	25.018	909.269	723.972
212.607	25.391	909.305	725.446
213.621	25.493	909.029	725.573
214.636	25.497	907.925	724.645
215.650	25.398	907.787	724.068
216.665	25.537	906.274	723.360
217.680	25.526	906.616	723.523
218.694	25.533	906.068	723.049
219.709	25.354	904.754	721.220
220.723	24.975	903.719	718.810
221.738	25.032	903.810	719.047
222.753	25.284	903.154	719.471
223.767	25.277	902.494	718.854
224.782	25.348	901.743	718.477
225.796	25.541	901.394	718.905
226.811	25.691	900.555	718.771
227.826	25.200	899.525	715.930
228.840	24.465	897.901	711.645
229.855	24.442	897.445	711.126
230.869	24.734	896.811	711.724
231.884	24.375	895.796	709.428
232.899	24.352	895.209	708.809
233.913	25.208	895.758	712.582
234.928	25.316	895.585	712.812
235.942	25.172	894.924	711.649
236.957	25.315	893.888	711.329
237.972	24.793	893.105	708.579
238.986	24.796	892.560	708.093
240.001	25.081	891.645	708.433
241.015	25.008	890.985	707.558
242.030	25.087	890.618	707.513
243.045	25.231	890.375	707.828
244.059	25.264	889.530	707.223
245.074	25.427	889.340	707.653
246.088	25.443	888.866	707.274
247.103	25.092	887.509	704.754
248.117	25.087	887.206	704.429
249.132	25.747	886.511	706.406
250.147	26.082	886.925	707.991
251.161	25.995	886.571	707.302
252.176	26.329	885.751	707.893
253.190	26.279	885.007	707.042
254.205	26.189	884.902	706.543
255.220	26.389	884.480	706.923
256.234	26.388	883.778	706.297
257.249	26.220	883.397	705.272
258.263	26.165	882.603	704.363
259.278	26.283	881.681	704.025
260.293	26.295	881.051	703.507
261.307	26.438	880.564	703.611
262.322	26.236	880.310	702.562
263.336	26.173	879.342	701.483
264.351	25.644	878.212	698.466
265.366	24.464	876.330	692.333
266.380	24.122	875.038	689.927
267.395	24.868	875.533	693.146
268.409	25.742	875.864	696.729
269.424	25.759	875.318	696.300
270.439	26.050	874.586	696.782
271.453	26.110	873.636	696.193
272.468	26.042	873.511	695.769
273.482	26.233	873.352	696.319
274.497	26.318	872.919	696.239
275.512	26.161	871.727	694.621
276.526	25.589	870.655	691.508
277.541	25.620	870.390	691.354
278.555	26.183	869.526	692.771
279.570	25.853	868.945	690.978
280.585	25.762	868.582	690.281
281.599	25.861	868.172	690.274
282.614	25.885	867.693	689.923
283.628	25.452	866.623	687.356
284.643	25.194	865.381	685.323
285.657	25.593	865.274	686.702
286.672	25.488	864.678	685.767
287.687	25.021	864.013	683.398
288.701	25.321	863.610	684.164
289.716	25.639	863.770	685.439
290.730	25.392	862.572	683.491
291.745	25.130	861.958	681.945
292.760	25.126	860.869	681.008
293.774	25.007	860.406	680.132
294.789	25.963	860.780	683.994
295.803	26.689	860.586	686.531
296.818	26.564	860.354	685.811
297.833	26.577	860.006	685.526
298.847	26.483	858.386	683.818
299.862	26.031	857.975	681.720
300.876	26.239	857.572	682.128
301.891	26.425	857.646	682.826
302.906	26.667	856.753	682.968
303.920	26.244	855.605	680.399
304.935	26.150	854.722	679.285
305.949	26.368	855.118	680.360
306.964	26.608	854.264	680.523
307.979	26.401	853.343	678.949
308.993	26.252	853.251	678.257
310.008	26.514	853.181	679.126
311.022	26.790	852.593	679.633
312.037	26.570	851.979	678.260
313.052	26.446	851.141	677.069
314.066	26.263	850.739	676.003
315.081	25.564	848.919	671.886
316.095	24.840	847.514	668.012
317.110	25.256	847.828	669.756
318.125	26.253	848.213	673.720
319.139	25.736	847.182	670.914
320.154	24.637	845.322	665.294
321.168	24.320	844.369	663.307
322.183	24.822	844.496	665.215
323.197	25.736	845.260	669.155
324.212	26.004	844.827	669.750
325.227	26.152	844.639	670.092
326.241	26.365	843.970	670.289
327.256	26.279	843.398	669.456
328.270	26.093	842.718	668.169
329.285	26.076	842.239	667.668
330.300	25.998	841.360	666.624
331.314	25.779	840.333	664.942
332.329	25.820	839.664	664.508
333.343	26.085	839.830	665.558
334.358	26.464	839.419	666.568
335.373	26.524	838.822	666.255
336.387	26.415	838.542	665.573
337.402	26.737	838.002	666.272
338.416	26.783	837.561	666.029
339.431	26.933	837.077	666.138
340.446	26.778	836.741	665.240
341.460	27.085	836.327	665.979
342.475	27.084	835.551	665.301
343.489	26.841	834.807	663.758
344.504	26.874	834.148	663.295
345.519	27.149	833.818	663.979
346.533	27.414	833.539	664.665
347.548	27.400	833.232	664.311
348.562	27.436	832.376	663.703
349.577	27.404	832.271	663.444
350.592	27.184	831.213	661.739
351.606	27.280	830.659	661.589
352.621	27.195	830.575	661.156
353.635	27.153	830.133	660.593
354.650	26.910	829.653	659.271
355.665	26.743	828.634	657.795
356.679	25.690	826.913	652.554
357.694	25.562	826.577	651.767
358.708	26.152	826.531	653.811
359.723	26.150	826.125	653.423
360.738	26.260	825.822	653.527
361.752	26.977	825.350	655.686
362.767	27.068	824.918	655.613
363.781	27.138	825.168	656.006
364.796	27.490	824.729	656.867
365.810	27.673	824.179	657.031
366.825	27.615	823.971	656.601
367.840	27.776	823.612	656.835
368.854	27.478	823.096	655.291
369.869	27.058	821.746	652.650
370.883	26.972	821.399	652.009
371.898	26.890	820.969	651.314
372.913	26.958	820.369	651.024
373.927	26.886	819.809	650.265
374.942	27.167	818.957	650.538
375.956	27.102	818.614	649.976
376.971	27.243	818.117	650.026
377.986	27.498	817.277	650.215
379.000	27.628	817.094	650.474
380.015	27.545	816.931	649.989
381.029	27.417	816.278	648.959
382.044	27.364	816.006	648.494
383.059	27.493	815.121	648.194
384.073	27.484	814.612	647.700
385.088	27.604	814.156	647.706
386.102	27.546	813.815	647.170
387.117	27.375	813.049	645.899
388.132	27.145	812.374	644.490
389.146	27.270	811.569	644.235
390.161	26.495	811.180	641.124
391.175	26.555	810.717	640.915
392.190	27.160	810.435	642.777
393.205	27.147	809.849	642.208
394.219	26.188	808.247	637.495
395.234	24.695	805.700	630.172
396.248	23.844	804.767	626.391
397.263	24.835	805.721	630.573
398.278	26.732	807.051	638.246
399.292	27.166	806.823	639.536
400.307	26.810	806.526	637.993
401.321	26.744	805.956	637.251
402.336	26.857	805.406	637.158
403.350	27.164	805.311	638.103
404.365	27.606	804.991	639.345
405.380	28.032	804.911	640.719
406.394	28.102	805.061	641.026
407.409	28.445	804.456	641.689
408.423	28.401	803.738	640.906
409.438	28.307	803.361	640.221
410.453	28.148	803.018	639.335
411.467	28.375	802.364	639.547
412.482	28.315	801.922	638.930
413.496	28.296	801.268	638.285
414.511	28.271	801.256	638.135
415.526	28.389	800.535	637.912
416.540	28.166	800.748	637.252
417.555	28.111	800.188	636.557
418.569	27.982	799.166	635.239
419.584	28.051	798.257	634.699
420.599	27.878	798.173	633.978
421.613	110.793	1283.562	1455.319
422.628	95.549	1354.249	1455.437
