DTS Sentinel unit serial number:	SN413079Multiplexer serial number:	ORYXHardware model number:	OX4-SRSoftware version number:	ORYX F/W v4.00 Oryx Data Collector v3.7.2.0data status	okinstallation	princeton_trtdifferential loss correction	single-endedforward channel	channel 3reverse channel	N/Adate	2019/09/13time	01:28:35forward acquisition time	60.00reverse acquisition time	0.00gamma	496.2192k internal	0.2333k external	0.2333temperature offset calibration	1.0120default loss term (dB/km)	0.3790temperature slope calibration	1.0000multiplexer offset coefficient	1.0000multiplexer slope coefficient	1.0000fibre end	0.00T internal ref (°C)	27.81T ext. ref 1 (°C)	3.74T ext. ref 2 (°C)	22.49length (m)	temperature (°C)	Stokes	anti-Stokes-747.200	274.612	-0.115	0.206
-746.185	-92.129	-0.089	0.025
-745.171	-94.867	0.107	-0.029
-744.156	-166.559	-0.119	0.005
-743.142	-159.103	0.179	-0.010
-742.127	800.000	-0.083	0.332
-741.112	42.844	-0.242	-0.222
-740.098	40.724	-0.132	0.119
-739.083	276.308	0.052	-0.094
-738.069	-89.325	-0.084	-0.025
-737.054	-200.000	-0.000	0.155
-736.039	70.440	-0.228	-0.237
-735.025	-164.675	0.394	-0.018
-734.010	-50.036	-0.206	0.098
-732.996	-73.490	-0.266	0.097
-731.981	-87.556	0.102	-0.031
-730.966	-168.201	-0.192	0.007
-729.952	-143.332	-0.264	-0.025
-728.937	-200.000	-0.015	-0.258
-727.923	110.831	-0.163	0.197
-726.908	474.803	-0.099	-0.224
-725.894	313.912	-0.036	-0.068
-724.879	-94.261	-0.198	0.054
-723.864	38.249	0.204	0.183
-722.850	-114.058	0.200	0.039
-721.835	-200.000	-0.011	-0.086
-720.821	-13.460	0.282	-0.183
-719.806	-200.000	-0.282	-0.001
-718.791	800.000	0.027	-0.080
-717.777	800.000	-0.002	-0.006
-716.762	-12.123	0.204	-0.134
-715.748	-153.805	-0.374	0.026
-714.733	-131.921	0.174	-0.023
-713.718	-2.679	-0.308	0.216
-712.704	3.889	-0.142	-0.104
-711.689	-16.189	-0.084	0.053
-710.675	-12.496	-0.413	-0.271
-709.660	41.147	-0.119	-0.108
-708.645	-200.000	-0.028	0.245
-707.631	30.669	-0.099	0.085
-706.616	86.427	0.125	0.138
-705.602	-200.000	0.001	-0.058
-704.587	800.000	0.016	0.047
-703.572	167.339	-0.116	-0.165
-702.558	-48.954	-0.127	0.061
-701.543	16.667	0.112	0.089
-700.529	-68.339	-0.198	0.077
-699.514	146.774	-0.155	0.209
-698.499	-176.211	-0.200	0.005
-697.485	-179.852	-0.059	-0.001
-696.470	-86.167	0.161	0.050
-695.456	-12.923	-0.337	-0.220
-694.441	-30.136	-0.280	-0.160
-693.426	59.639	0.015	0.014
-692.412	88.741	-0.174	0.194
-691.397	10.436	-0.234	0.179
-690.383	-58.792	-0.258	-0.112
-689.368	-200.000	-0.267	0.000
-688.354	-200.000	-0.009	-0.176
-687.339	25.526	-0.101	0.084
-686.324	-63.148	-0.258	0.107
-685.310	-145.798	0.167	-0.015
-684.295	-120.097	0.270	0.046
-683.281	-114.279	0.208	-0.040
-682.266	-9.970	-0.326	-0.217
-681.251	327.023	-0.091	-0.175
-680.237	144.605	0.069	-0.093
-679.222	169.830	0.087	-0.124
-678.208	-14.637	0.271	0.175
-677.193	145.246	0.154	0.207
-676.178	36.560	-0.502	-0.444
-675.164	255.299	-0.053	-0.091
-674.149	-200.000	-0.009	-0.228
-673.135	58.202	-0.215	-0.211
-672.120	-80.768	0.105	0.035
-671.105	13.746	-0.193	0.150
-670.091	-4.158	0.203	-0.141
-669.076	307.812	0.106	0.197
-668.062	32.679	-0.239	-0.207
-667.047	21.039	0.051	-0.041
-666.032	-200.000	0.069	0.327
-665.018	-200.000	-0.023	0.214
-664.003	26.097	0.185	0.155
-662.989	-174.890	0.230	0.006
-661.974	-200.000	0.031	0.331
-660.959	360.862	0.048	0.097
-659.945	-118.425	0.089	0.016
-658.930	-129.407	-0.260	-0.036
-657.916	132.870	0.160	0.207
-656.901	163.499	-0.051	-0.072
-655.886	43.284	0.144	-0.131
-654.872	-90.116	0.110	0.032
-653.857	265.442	-0.066	0.115
-652.843	49.930	0.300	-0.283
-651.828	-8.795	-0.082	0.055
-650.814	-97.330	0.055	-0.014
-649.799	17.010	0.094	0.074
-648.784	-200.000	0.031	-0.226
-647.770	134.559	0.162	0.211
-646.755	-30.874	-0.267	0.151
-645.741	561.858	-0.035	0.086
-644.726	-44.729	-0.345	-0.173
-643.711	96.772	-0.124	0.142
-642.697	17.354	0.138	-0.110
-641.682	126.667	-0.102	0.130
-640.668	800.000	0.020	-0.078
-639.653	292.871	-0.208	-0.379
-638.638	-54.240	-0.190	0.086
-637.624	263.157	0.028	-0.049
-636.609	-200.000	0.025	0.201
-635.595	-200.000	0.024	0.000
-634.580	-196.956	0.125	-0.001
-633.565	-155.656	-0.265	-0.017
-632.551	-142.224	-0.258	-0.026
-631.536	-147.760	-0.258	0.022
-630.522	98.332	0.213	-0.246
-629.507	-121.500	-0.149	0.025
-628.492	-60.703	-0.253	0.107
-627.478	-96.074	0.129	0.034
-626.463	21.099	0.292	-0.238
-625.449	-200.000	-0.016	-0.357
-624.434	-200.000	-0.021	-0.232
-623.419	-200.000	0.005	0.073
-622.405	-74.517	-0.343	-0.124
-621.390	246.315	0.281	-0.474
-620.376	-200.000	-0.018	-0.395
-619.361	-49.246	-0.139	-0.066
-618.346	-71.245	0.329	-0.124
-617.332	95.930	0.133	0.152
-616.317	15.253	-0.122	0.096
-615.303	-200.000	-0.039	-0.260
-614.288	-92.561	-0.338	-0.095
-613.273	174.824	-0.116	0.168
-612.259	-110.804	0.186	-0.038
-611.244	639.017	0.103	-0.262
-610.230	800.000	-0.112	-0.359
-609.215	250.841	-0.062	0.105
-608.201	-200.000	0.007	0.106
-607.186	174.223	0.176	-0.255
-606.171	-16.934	0.174	-0.110
-605.157	-10.729	0.396	-0.262
-604.142	-120.259	-0.351	-0.060
-603.128	-139.220	-0.484	0.052
-602.113	800.000	-0.100	-0.380
-601.098	-86.562	0.148	-0.045
-600.084	266.161	0.056	0.098
-599.069	-177.683	-0.383	0.009
-598.055	-125.791	-0.490	-0.074
-597.040	680.237	0.074	0.192
-596.025	-126.391	-0.240	-0.036
-595.011	-108.370	-0.173	-0.037
-593.996	800.000	0.036	0.148
-592.982	-99.979	0.152	-0.038
-591.967	-157.576	-0.071	-0.004
-590.952	-200.000	-0.061	-0.280
-589.938	-200.000	0.011	0.092
-588.923	419.172	-0.055	0.119
-587.909	-186.658	-0.195	-0.003
-586.894	-48.785	0.330	0.158
-585.879	28.749	0.126	0.106
-584.865	-18.350	0.114	0.071
-583.850	-47.479	0.288	-0.140
-582.836	-162.576	-0.150	-0.007
-581.821	-151.039	-0.149	-0.011
-580.806	-200.000	-0.004	-0.192
-579.792	800.000	0.023	-0.065
-578.777	-42.391	-0.187	0.095
-577.763	-124.317	0.248	-0.039
-576.748	56.544	0.132	0.129
-575.733	-155.054	0.060	-0.004
-574.719	100.609	-0.069	-0.080
-573.704	97.829	0.107	-0.123
-572.690	443.130	0.035	0.078
-571.675	-200.000	-0.358	-0.001
-570.661	113.821	0.041	-0.050
-569.646	78.002	0.162	0.173
-568.631	-200.000	0.033	0.215
-567.617	-169.934	0.368	0.013
-566.602	27.356	0.306	-0.257
-565.588	383.244	-0.092	-0.188
-564.573	800.000	-0.087	-0.257
-563.558	-62.380	0.223	-0.092
-562.544	84.712	-0.059	-0.065
-561.529	620.568	0.032	0.079
-560.515	800.000	0.098	-0.384
-559.500	-12.580	-0.290	0.189
-558.485	242.819	0.072	-0.121
-557.471	328.261	0.036	-0.070
-556.456	-200.000	0.017	0.151
-555.442	-9.875	-0.304	0.202
-554.427	19.062	0.182	0.146
-553.412	-55.362	-0.123	0.055
-552.398	158.574	0.015	-0.021
-551.383	-200.000	-0.026	0.198
-550.369	-141.648	-0.188	0.019
-549.354	800.000	0.087	0.285
-548.339	-200.000	-0.022	0.431
-547.325	-9.441	-0.110	0.073
-546.310	424.847	0.014	0.031
-545.296	-69.158	-0.141	0.054
-544.281	800.000	0.013	0.037
-543.266	35.729	-0.025	-0.022
-542.252	57.095	0.077	-0.075
-541.237	27.901	-0.054	0.046
-540.223	299.633	0.269	0.495
-539.208	-155.053	0.072	0.005
-538.193	800.000	0.065	0.212
-537.179	-81.650	0.236	-0.077
-536.164	-14.859	-0.242	0.155
-535.150	-23.264	-0.221	0.133
-534.135	-200.000	-0.020	0.193
-533.121	144.070	0.227	0.302
-532.106	120.193	0.165	0.204
-531.091	254.360	-0.111	0.189
-530.077	207.985	0.034	-0.053
-529.062	48.410	-0.244	-0.228
-528.048	-90.594	-0.037	-0.011
-527.033	-29.770	-0.119	0.068
-526.018	-29.218	-0.027	-0.015
-525.004	10.457	-0.297	0.225
-523.989	-49.459	-0.198	-0.094
-522.975	-22.008	0.438	-0.265
-521.960	800.000	0.040	0.126
-520.945	-200.000	0.024	-0.230
-519.931	-141.512	-0.406	-0.041
-518.916	96.927	-0.356	-0.407
-517.902	31.359	0.067	-0.057
-516.887	-118.170	-0.080	-0.014
-515.872	43.835	0.289	-0.264
-514.858	-35.284	-0.244	0.132
-513.843	94.716	0.151	0.172
-512.829	800.000	-0.111	0.413
-511.814	-82.686	-0.131	-0.042
-510.799	-200.000	0.052	0.244
-509.785	363.702	0.162	0.324
-508.770	-91.602	-0.181	0.051
-507.756	-40.078	0.028	0.014
-506.741	20.785	0.365	0.294
-505.726	-63.281	-0.269	0.110
-504.712	150.373	-0.102	-0.138
-503.697	103.403	-0.152	-0.177
-502.683	800.000	-0.089	0.287
-501.668	-6.887	0.125	0.085
-500.653	185.020	0.094	0.139
-499.639	-105.115	-0.238	0.054
-498.624	-115.415	-0.126	0.024
-497.610	399.476	-0.046	0.096
-496.595	-159.621	-0.298	-0.016
-495.581	43.755	-0.094	0.086
-494.566	207.662	-0.066	0.103
-493.551	800.000	-0.121	-0.347
-492.537	-200.000	-0.024	0.272
-491.522	-57.932	-0.143	0.062
-490.508	800.000	0.032	-0.132
-489.493	454.657	0.075	-0.164
-488.478	384.319	0.063	-0.129
-487.464	800.000	-0.086	-0.268
-486.449	164.702	0.104	-0.147
-485.435	774.206	0.007	0.019
-484.420	-129.293	0.157	0.022
-483.405	-90.885	0.148	-0.042
-482.391	99.772	0.140	0.162
-481.376	96.965	-0.206	0.236
-480.362	800.000	0.041	-0.136
-479.347	-135.482	0.158	0.019
-478.332	-138.740	-0.122	-0.013
-477.318	-174.698	-0.124	-0.004
-476.303	-151.842	-0.264	0.019
-475.289	-12.051	0.024	0.015
-474.274	-148.020	0.508	-0.042
-473.259	-28.193	-0.286	-0.164
-472.245	-200.000	0.028	0.126
-471.230	32.857	-0.052	-0.045
-470.216	-27.540	-0.076	-0.044
-469.201	-73.743	0.010	0.003
-468.186	-138.614	-0.055	0.006
-467.172	-54.831	0.084	0.038
-466.157	-148.823	-0.324	-0.026
-465.143	-200.000	-0.006	-0.422
-464.128	-138.743	0.291	0.032
-463.113	-99.476	-0.155	-0.039
-462.099	-109.136	0.184	-0.039
-461.084	-200.000	0.002	0.209
-460.070	-49.848	0.041	0.020
-459.055	-200.000	0.020	-0.136
-458.040	800.000	0.031	-0.087
-457.026	-96.747	-0.133	0.035
-456.011	-12.318	0.197	-0.128
-454.997	539.621	0.031	-0.073
-453.982	-144.356	-0.372	-0.034
-452.968	365.932	0.043	0.085
-451.953	-53.477	-0.115	-0.052
-450.938	800.000	0.093	-0.270
-449.924	-15.115	-0.269	0.171
-448.909	244.178	-0.090	-0.151
-447.895	800.000	0.132	0.397
-446.880	800.000	0.050	0.150
-445.865	-156.962	0.326	0.020
-444.851	318.273	0.114	-0.214
-443.836	-44.380	0.047	0.023
-442.822	2.605	0.405	-0.292
-441.807	-112.439	-0.188	-0.037
-440.792	168.000	0.060	0.084
-439.778	98.415	0.014	-0.016
-438.763	166.279	0.070	-0.099
-437.749	-80.988	-0.117	0.039
-436.734	-200.000	0.039	0.202
-435.719	520.249	0.067	0.156
-434.705	-137.950	0.148	-0.016
-433.690	158.908	-0.211	0.291
-432.676	-126.578	0.156	0.023
-431.661	-86.598	-0.272	-0.083
-430.646	-148.013	-0.244	-0.020
-429.632	-200.000	-0.018	-0.167
-428.617	305.598	-0.083	0.154
-427.603	-114.294	-0.128	-0.025
-426.588	618.055	0.097	0.241
-425.573	-60.595	0.217	-0.091
-424.559	-81.100	-0.234	0.077
-423.544	-87.419	0.047	-0.014
-422.530	-76.318	0.256	0.089
-421.515	87.762	0.105	-0.116
-420.500	-75.761	0.180	0.063
-419.486	800.000	-0.120	0.509
-418.471	-161.803	-0.057	0.003
-417.457	-200.000	0.036	0.191
-416.442	96.569	0.144	0.164
-415.428	-200.000	0.071	-0.331
-414.413	-147.073	0.240	0.020
-413.398	-17.753	-0.176	0.110
-412.384	-73.450	-0.314	-0.114
-411.369	437.381	-0.038	-0.082
-410.355	740.023	0.075	0.199
-409.340	-140.666	0.106	-0.011
-408.325	-21.459	0.044	0.026
-407.311	42.887	-0.174	0.158
-406.296	-200.000	-0.020	0.273
-405.282	-45.205	0.386	0.190
-404.267	3.506	-0.124	-0.090
-403.252	64.670	-0.217	-0.217
-402.238	2.274	-0.071	-0.051
-401.223	173.047	-0.114	-0.164
-400.209	-200.000	0.055	0.363
-399.194	-166.535	0.185	0.008
-398.179	5.926	0.203	0.149
-397.165	332.056	-0.119	0.228
-396.150	800.000	-0.100	-0.331
-395.136	800.000	-0.097	-0.273
-394.121	-134.183	0.074	-0.009
-393.106	44.563	0.054	0.049
-392.092	45.857	0.184	0.168
-391.077	93.064	-0.079	-0.088
-390.063	310.831	0.205	0.382
-389.048	-200.000	0.017	0.275
-388.033	116.173	-0.022	0.027
-387.019	740.902	0.037	0.099
-386.004	258.329	0.055	-0.094
-384.990	-6.458	-0.256	0.173
-383.975	-150.819	-0.110	-0.008
-382.960	-200.000	-0.001	0.104
-381.946	84.404	0.088	-0.095
-380.931	-200.000	0.006	0.053
-379.917	219.712	0.062	0.099
-378.902	-6.687	-0.072	0.048
-377.888	516.092	0.067	0.155
-376.873	242.909	-0.023	0.039
-375.858	800.000	-0.096	-0.292
-374.844	-200.000	-0.006	-0.122
-373.829	172.005	0.074	0.105
-372.815	41.038	0.078	0.070
-371.800	-85.982	0.084	0.026
-370.785	-108.089	0.411	0.088
-369.771	5.818	0.275	0.202
-368.756	118.330	0.192	0.234
-367.742	-62.422	0.172	-0.071
-366.727	12.347	0.115	0.088
-365.712	-17.562	-0.026	-0.016
-364.698	34.027	-0.223	-0.193
-363.683	-51.504	-0.083	0.038
-362.669	-5.569	0.149	-0.101
-361.654	-33.594	0.257	-0.141
-360.639	-14.253	0.257	-0.164
-359.625	-10.080	0.284	0.187
-358.610	-19.845	0.170	-0.104
-357.596	-200.000	0.081	0.444
-356.581	-200.000	-0.067	0.511
-355.566	40.361	-0.258	-0.230
-354.552	-200.000	-0.030	0.207
-353.537	-200.000	-0.067	-0.302
-352.523	-59.567	0.065	-0.028
-351.508	800.000	-0.069	-0.233
-350.493	-200.000	0.040	-0.197
-349.479	-139.154	0.267	0.029
-348.464	315.063	0.086	0.160
-347.450	670.964	-0.028	-0.072
-346.435	473.286	0.050	0.113
-345.420	273.962	-0.004	0.008
-344.406	800.000	0.065	-0.185
-343.391	203.363	-0.099	-0.151
-342.377	-109.371	-0.146	-0.031
-341.362	-62.976	-0.269	0.110
-340.348	-200.000	-0.063	-0.360
-339.333	-107.635	-0.107	0.023
-338.318	412.446	0.035	0.074
-337.304	-200.000	0.040	-0.184
-336.289	38.608	-0.275	-0.243
-335.275	-129.215	-0.307	0.042
-334.260	-58.133	0.101	0.044
-333.245	-169.606	0.233	0.008
-332.231	83.109	0.085	-0.092
-331.216	-200.000	0.001	-0.137
-330.202	800.000	0.048	-0.147
-329.187	-200.000	0.026	-0.134
-328.172	-23.730	0.252	-0.150
-327.158	74.678	0.130	0.136
-326.143	10.678	0.221	-0.167
-325.129	72.817	-0.183	-0.189
-324.114	-57.491	-0.138	-0.060
-323.099	-8.256	-0.243	0.162
-322.085	-57.043	-0.305	0.133
-321.070	575.739	0.084	-0.203
-320.056	-90.837	-0.423	-0.121
-319.041	266.376	-0.100	-0.172
-318.026	325.578	0.084	-0.159
-317.012	-65.680	0.268	0.106
-315.997	292.596	-0.235	0.423
-314.983	-111.718	0.205	0.041
-313.968	239.805	-0.030	0.049
-312.953	-49.530	-0.105	-0.050
-311.939	154.012	-0.116	0.157
-310.924	165.428	0.247	0.345
-309.910	-200.000	0.011	0.262
-308.895	221.778	-0.143	-0.228
-307.880	104.854	-0.051	-0.060
-306.866	-157.136	-0.199	0.012
-305.851	-157.607	0.275	-0.016
-304.837	-200.000	0.086	0.401
-303.822	-182.600	0.465	0.008
-302.807	274.285	0.058	-0.101
-301.793	-101.984	-0.127	0.030
-300.778	90.762	-0.115	-0.128
-299.764	-200.000	-0.001	-0.075
-298.749	-11.089	0.311	-0.203
-297.735	64.803	0.155	-0.155
-296.720	-200.000	0.014	-0.147
-295.705	-29.751	0.241	-0.136
-294.691	214.951	-0.126	-0.197
-293.676	288.703	0.090	-0.161
-292.662	-200.000	0.030	0.210
-291.647	-80.354	0.418	-0.138
-290.632	96.120	-0.113	-0.128
-289.618	-27.543	-0.285	-0.163
-288.603	109.127	-0.059	0.070
-287.589	-16.282	0.444	0.278
-286.574	-109.757	-0.321	0.067
-285.559	-76.094	0.400	0.139
-284.545	439.488	0.057	-0.123
-283.530	-26.524	-0.090	-0.052
-282.516	103.036	0.143	0.165
-281.501	800.000	-0.045	0.179
-280.486	-31.978	-0.444	-0.246
-279.472	800.000	-0.110	0.322
-278.457	1.189	-0.100	-0.071
-277.443	103.046	-0.166	-0.192
-276.428	56.915	-0.175	0.169
-275.413	-50.447	-0.204	-0.095
-274.399	139.497	0.046	0.060
-273.384	-48.534	0.282	0.134
-272.370	-200.000	0.000	0.113
-271.355	-85.290	0.374	-0.115
-270.340	-30.741	0.343	0.192
-269.326	-200.000	-0.014	-0.474
-268.311	-200.000	-0.028	-0.235
-267.297	-144.243	-0.325	-0.030
-266.282	543.860	-0.075	0.176
-265.267	800.000	0.037	-0.113
-264.253	800.000	-0.063	-0.250
-263.238	-63.506	-0.278	0.113
-262.224	25.718	-0.196	0.161
-261.209	-118.733	0.449	-0.078
-260.195	79.112	-0.197	-0.208
-259.180	51.521	-0.155	-0.145
-258.165	-200.000	-0.015	-0.259
-257.151	-142.830	0.123	-0.012
-256.136	800.000	0.067	-0.273
-255.122	57.833	0.252	0.243
-254.107	-61.537	-0.044	-0.018
-253.092	30.177	0.060	-0.051
-252.078	800.000	-0.052	-0.210
-251.063	-41.670	-0.039	-0.020
-250.049	344.240	-0.120	-0.233
-249.034	-42.209	0.120	-0.061
-248.019	371.918	-0.129	-0.258
-247.005	-37.208	0.353	-0.186
-245.990	110.268	-0.217	-0.257
-244.976	3.704	0.130	0.094
-243.961	-38.273	0.243	0.127
-242.946	152.121	-0.074	0.099
-241.932	-89.433	-0.064	0.019
-240.917	-174.314	0.289	0.008
-239.903	800.000	-0.059	-0.175
-238.888	-169.303	0.395	0.014
-237.873	-200.000	-0.000	-0.158
-236.859	173.446	-0.090	-0.128
-235.844	800.000	0.055	0.178
-234.830	153.136	-0.143	-0.193
-233.815	-21.215	-0.107	-0.065
-232.800	-200.000	-0.076	0.366
-231.786	-200.000	-0.033	0.246
-230.771	-177.428	-0.236	-0.006
-229.757	-76.711	-0.272	0.094
-228.742	-200.000	-0.001	0.316
-227.727	53.254	0.171	0.161
-226.713	-103.930	0.190	0.044
-225.698	21.909	0.161	0.129
-224.684	-77.890	0.207	0.070
-223.669	81.187	0.021	-0.022
-222.655	-200.000	-0.032	0.287
-221.640	155.568	0.122	0.166
-220.625	218.730	-0.125	-0.197
-219.611	-200.000	-0.005	0.081
-218.596	800.000	-0.122	0.435
-217.582	-83.052	0.120	-0.038
-216.567	-120.996	0.092	0.015
-215.552	240.040	0.172	-0.283
-214.538	-156.151	-0.312	0.019
-213.523	74.941	0.059	0.061
-212.509	-109.465	-0.091	0.019
-211.494	-161.695	-0.096	0.005
-210.479	156.947	0.069	-0.093
-209.465	-200.000	-0.074	0.404
-208.450	58.522	0.027	-0.026
-207.436	-10.200	-0.226	0.148
-206.421	43.172	0.094	-0.084
-205.406	9.743	0.199	0.148
-204.392	54.852	-0.152	-0.145
-203.377	-79.909	0.394	-0.130
-202.363	-163.956	-0.309	-0.014
-201.348	800.000	-0.029	-0.100
-200.333	800.000	0.132	0.397
-199.319	-200.000	0.034	0.440
-198.304	-29.987	0.212	0.119
-197.290	155.258	0.115	0.156
-196.275	-59.370	0.337	0.143
-195.260	654.736	0.100	-0.252
-194.246	-143.322	-0.275	-0.026
-193.231	800.000	-0.124	0.337
-192.217	39.323	0.114	-0.100
-191.202	800.000	-0.037	0.121
-190.187	38.630	-0.182	0.160
-189.173	0.162	0.023	0.016
-188.158	-120.161	0.338	-0.057
-187.144	-100.246	0.042	-0.010
-186.129	79.177	0.025	-0.026
-185.114	210.595	-0.161	-0.248
-184.100	-182.299	0.207	-0.004
-183.085	-49.355	0.213	0.100
-182.071	1.834	0.212	-0.151
-181.056	-200.000	-0.021	-0.140
-180.042	-85.900	-0.274	-0.084
-179.027	-22.818	-0.174	-0.103
-178.012	272.956	-0.109	-0.190
-176.998	26.875	0.153	0.126
-175.983	-200.000	0.032	0.193
-174.969	-200.000	-0.044	-0.288
-173.954	165.189	0.204	-0.284
-172.939	-200.000	-0.008	0.078
-171.925	61.874	0.102	-0.100
-170.910	246.703	0.122	0.203
-169.896	-200.000	-0.006	0.308
-168.881	76.199	-0.200	0.209
-167.866	-86.941	-0.145	0.043
-166.852	-200.000	-0.026	-0.114
-165.837	-100.228	-0.121	-0.029
-164.823	154.062	-0.140	0.189
-163.808	-88.685	0.255	-0.074
-162.793	-200.000	0.003	-0.028
-161.779	-179.253	-0.384	-0.008
-160.764	285.325	0.044	-0.078
-159.750	-200.000	0.066	-0.538
-158.735	396.473	-0.119	-0.244
-157.720	-200.000	-0.019	-0.190
-156.706	74.382	0.300	0.309
-155.691	301.810	-0.196	0.356
-154.677	62.545	-0.024	0.024
-153.662	-200.000	0.057	-0.420
-152.647	-114.384	-0.199	0.038
-151.633	-200.000	0.074	-0.423
-150.618	30.881	-0.110	-0.093
-149.604	-2.947	0.035	-0.024
-148.589	-88.752	0.267	0.078
-147.574	-95.359	0.252	-0.066
-146.560	-200.000	0.027	-0.331
-145.545	-200.000	0.007	0.131
-144.531	-200.000	-0.002	0.143
-143.516	733.614	-0.086	-0.225
-142.502	705.654	-0.075	-0.196
-141.487	-200.000	0.026	-0.287
-140.472	519.733	-0.024	0.054
-139.458	-200.000	-0.006	-0.106
-138.443	-200.000	-0.023	0.224
-137.429	800.000	0.060	0.168
-136.414	-38.547	-0.151	0.078
-135.399	-68.954	0.058	0.022
-134.385	-132.321	0.545	-0.069
-133.370	-50.928	-0.110	-0.051
-132.356	404.280	0.053	0.109
-131.341	-94.139	-0.445	-0.120
-130.326	-176.992	-0.262	-0.006
-129.312	17.252	-0.208	0.162
-128.297	432.119	-0.104	0.221
-127.283	800.000	-0.046	-0.146
-126.268	800.000	0.057	0.218
-125.253	461.307	-0.075	-0.165
-124.239	157.264	-0.119	-0.161
-123.224	33.531	0.148	-0.126
-122.210	-32.643	-0.208	-0.114
-121.195	81.737	-0.296	-0.315
-120.180	-200.000	-0.001	0.346
-119.166	800.000	-0.050	-0.185
-118.151	280.027	0.037	0.064
-117.137	88.240	0.075	0.082
-116.122	-156.768	0.308	-0.019
-115.107	-67.783	-0.134	-0.051
-114.093	17.564	-0.175	-0.136
-113.078	800.000	0.054	0.204
-112.064	-71.749	-0.343	0.125
-111.049	127.952	-0.035	0.043
-110.034	-141.482	-0.360	0.036
-109.020	-69.057	0.108	-0.041
-108.005	-170.718	-0.235	-0.008
-106.991	93.779	0.205	0.228
-105.976	800.000	0.053	-0.184
-104.962	-72.487	-0.410	-0.149
-103.947	800.000	-0.021	0.091
-102.932	150.836	0.077	0.103
-101.918	16.602	-0.287	0.222
-100.903	-9.606	0.154	0.101
-99.889	800.000	-0.042	-0.124
-98.874	-47.547	-0.102	-0.048
-97.859	786.402	0.065	-0.174
-96.845	-41.576	0.159	-0.080
-95.830	800.000	-0.047	-0.200
-94.816	585.996	0.032	0.077
-93.801	800.000	0.045	0.126
-92.786	-108.051	-0.209	-0.044
-91.772	-156.551	0.321	-0.020
-90.757	-31.943	-0.148	-0.081
-89.743	139.579	0.144	-0.186
-88.728	46.018	0.424	0.384
-87.713	-170.616	-0.137	0.005
-86.699	36.693	-0.250	0.216
-85.684	-1.756	-0.062	-0.043
-84.670	-9.847	-0.206	0.134
-83.655	88.970	-0.027	-0.029
-82.640	-92.832	-0.303	0.083
-81.626	-83.483	-0.280	0.088
-80.611	256.619	-0.207	-0.347
-79.597	-107.527	-0.287	-0.062
-78.582	-139.196	0.109	-0.012
-77.567	160.315	0.051	-0.070
-76.553	-31.231	0.288	-0.159
-75.538	23.556	0.270	0.217
-74.524	-30.105	0.116	0.065
-73.509	2.041	-0.122	0.086
-72.494	-200.000	0.024	0.238
-71.480	-200.000	-0.005	-0.187
-70.465	-200.000	-0.015	-0.161
-69.451	62.498	-0.164	0.161
-68.436	9.278	0.355	-0.263
-67.422	548.452	0.161	-0.377
-66.407	-71.085	0.411	0.151
-65.392	-193.562	0.240	-0.002
-64.378	-200.000	-0.056	0.450
-63.363	778.716	0.028	-0.075
-62.349	90.009	-0.085	0.093
-61.334	131.791	-0.696	-0.877
-60.319	740.620	0.390	1.026
-59.305	-200.000	-0.002	-1.147
-58.290	345.217	0.618	1.187
-57.276	163.568	0.863	1.189
-56.261	-200.000	113.839	647.431
-55.246	541.595	1519.568	3544.246
-54.232	179.558	2682.513	3844.134
-53.217	109.518	2168.918	2543.045
-52.203	38.349	1698.248	1480.565
-51.188	30.856	1517.965	1272.384
-50.173	28.757	1493.364	1237.588
-49.159	52.372	1551.582	1448.610
-48.144	51.305	1567.796	1456.373
-47.130	31.141	1523.655	1278.902
-46.115	28.071	1508.808	1245.521
-45.100	27.862	1505.627	1241.419
-44.086	27.835	1503.516	1239.451
-43.071	27.779	1501.472	1237.333
-42.057	27.757	1500.094	1236.004
-41.042	27.758	1498.805	1234.898
-40.027	27.859	1497.229	1234.234
-39.013	27.807	1495.568	1232.459
-37.998	27.787	1494.650	1231.523
-36.984	27.734	1493.616	1230.263
-35.969	27.812	1491.934	1229.357
-34.954	27.827	1490.241	1228.011
-33.940	27.723	1489.445	1226.610
-32.925	27.767	1487.874	1225.561
-31.911	27.819	1486.235	1224.512
-30.896	27.910	1485.204	1224.227
-29.881	27.878	1483.657	1222.687
-28.867	27.874	1482.498	1221.656
-27.852	27.845	1481.714	1220.765
-26.838	27.804	1480.382	1219.346
-25.823	27.789	1478.777	1217.879
-24.809	27.919	1477.097	1217.310
-23.794	27.899	1475.730	1216.005
-22.779	27.958	1474.819	1215.599
-21.765	27.894	1473.452	1213.997
-20.750	27.938	1472.194	1213.201
-19.736	27.866	1471.370	1211.998
-18.721	27.775	1470.590	1210.707
-17.706	27.807	1469.200	1209.726
-16.692	27.878	1467.702	1208.910
-15.677	27.893	1467.040	1208.418
-14.663	27.726	1466.373	1206.720
-13.648	27.769	1465.030	1205.848
-12.633	27.746	1464.528	1205.236
-11.619	27.794	1463.382	1204.563
-10.604	27.686	1463.190	1203.639
-9.590	27.734	1462.301	1203.178
-8.575	27.813	1460.659	1202.304
-7.560	27.858	1460.021	1202.022
-6.546	27.800	1459.274	1200.979
-5.531	27.718	1458.837	1200.033
-4.517	27.747	1457.257	1198.876
-3.502	27.858	1456.243	1198.727
-2.487	27.890	1455.145	1197.980
-1.473	27.681	1455.013	1196.458
-0.458	27.638	1453.773	1195.104
0.556	29.259	1442.946	1184.351
1.571	26.103	1418.784	1144.440
2.586	22.687	1360.829	1076.775
3.600	20.952	1279.128	1002.079
4.615	19.600	1233.260	958.560
5.629	16.963	1176.785	900.599
6.644	10.045	1094.023	802.926
7.659	4.754	1056.609	749.959
8.673	3.912	1051.441	742.185
9.688	3.807	1047.656	738.949
10.702	3.573	1046.227	736.756
11.717	3.658	1043.982	735.518
12.731	6.064	1046.470	748.679
13.746	13.687	1057.050	792.755
14.761	20.643	1065.881	832.727
15.775	22.638	1067.415	843.401
16.790	22.298	1066.309	840.828
17.804	21.348	1064.270	834.612
18.819	20.722	1062.730	830.344
19.834	20.336	1061.768	827.681
20.848	20.215	1061.114	826.521
21.863	20.445	1060.869	827.353
22.877	20.340	1059.694	825.863
23.892	19.974	1059.450	823.861
24.907	19.911	1058.258	822.559
25.921	19.909	1057.693	822.039
26.936	19.834	1056.886	820.982
27.950	19.818	1055.988	820.135
28.965	19.790	1054.430	818.723
29.980	19.934	1053.391	818.523
30.994	20.113	1052.545	818.641
32.009	20.262	1051.643	818.569
33.023	20.286	1051.825	818.753
34.038	20.280	1050.326	817.483
35.053	20.060	1049.604	815.816
36.067	20.036	1048.094	814.453
37.082	19.983	1047.354	813.558
38.096	19.985	1046.444	812.791
39.111	20.203	1046.298	813.627
40.126	20.235	1045.138	812.804
41.140	19.976	1044.543	811.054
42.155	19.735	1042.715	808.435
43.169	19.478	1041.627	806.324
44.184	19.375	1040.718	805.064
45.199	19.469	1039.722	804.663
46.213	19.543	1038.386	803.899
47.228	19.638	1037.608	803.672
48.242	19.837	1037.345	804.320
49.257	20.027	1036.596	804.551
50.271	20.002	1035.818	803.758
51.286	20.033	1034.879	803.107
52.301	20.216	1033.940	803.152
53.315	20.194	1033.586	802.706
54.330	20.015	1032.477	800.944
55.344	19.796	1031.282	798.935
56.359	19.748	1030.637	798.142
57.374	19.597	1029.815	796.741
58.388	19.752	1028.549	796.402
59.403	19.517	1028.378	795.120
60.417	19.350	1027.420	793.537
61.432	19.442	1026.787	793.402
62.447	19.331	1026.532	792.623
63.461	19.365	1025.073	791.584
64.476	19.203	1024.179	790.079
65.490	19.273	1023.251	789.617
66.505	19.187	1022.372	788.474
67.520	19.174	1022.354	788.332
68.534	19.325	1021.197	788.060
69.549	19.295	1020.266	787.133
70.563	19.240	1019.597	786.300
71.578	19.074	1018.725	784.798
72.593	19.044	1017.698	783.800
73.607	18.850	1016.582	781.992
74.622	18.896	1015.444	781.255
75.636	18.920	1014.770	780.775
76.651	18.987	1014.243	780.604
77.666	19.112	1013.295	780.374
78.680	19.004	1012.732	779.380
79.695	19.057	1012.239	779.172
80.709	18.964	1012.462	778.855
81.724	19.277	1011.204	779.234
82.739	19.307	1010.475	778.740
83.753	19.409	1009.547	778.413
84.768	19.765	1008.694	779.293
85.782	20.234	1008.506	781.193
86.797	20.592	1008.331	782.596
87.812	20.619	1007.426	781.949
88.826	20.348	1006.310	779.797
89.841	20.149	1005.504	778.209
90.855	20.225	1005.014	778.100
91.870	20.358	1004.225	778.019
92.884	20.463	1003.353	777.742
93.899	20.314	1002.561	776.392
94.914	20.276	1002.181	775.859
95.928	20.314	1000.976	775.029
96.943	20.256	1000.594	774.406
97.957	20.302	999.479	773.680
98.972	20.122	998.695	772.201
99.987	20.261	997.546	771.863
101.001	20.224	997.085	771.273
102.016	20.259	996.574	770.966
103.030	20.235	995.208	769.735
104.045	20.215	994.395	768.948
105.060	20.292	993.458	768.498
106.074	20.190	992.151	766.968
107.089	19.736	991.321	764.252
108.103	19.532	990.301	762.497
109.118	19.400	989.074	760.903
110.133	19.322	987.834	759.539
111.147	19.263	987.258	758.769
112.162	19.116	986.071	757.143
113.176	19.255	985.523	757.263
114.191	19.370	985.049	757.340
115.206	19.437	984.244	756.948
116.220	19.408	983.601	756.259
117.235	19.377	982.334	755.082
118.249	19.455	981.334	754.586
119.264	19.344	980.265	753.212
120.279	19.029	980.055	751.611
121.293	19.088	978.846	750.875
122.308	19.073	978.266	750.295
123.322	18.995	977.137	749.025
124.337	18.877	976.188	747.718
125.352	18.850	974.947	746.584
126.366	18.870	973.836	745.752
127.381	18.926	972.676	745.043
128.395	18.831	972.209	744.206
129.410	18.989	971.530	744.304
130.424	18.939	971.153	743.735
131.439	19.191	969.753	743.685
132.454	19.182	969.502	743.388
133.468	19.511	968.457	743.938
134.483	19.391	967.853	742.893
135.497	19.503	967.325	742.902
136.512	19.433	966.562	741.950
137.527	19.514	965.893	741.718
138.541	19.338	965.268	740.418
139.556	19.609	964.154	740.660
140.570	19.589	963.557	740.052
141.585	19.540	963.133	739.448
142.600	19.899	962.931	740.764
143.614	19.949	962.161	740.322
144.629	20.080	961.634	740.410
145.643	20.278	961.191	740.850
146.658	20.177	959.710	739.213
147.673	20.023	958.541	737.590
148.687	19.799	957.348	735.653
149.702	19.659	956.363	734.236
150.716	19.503	955.346	732.730
151.731	19.527	954.643	732.225
152.746	19.452	954.078	731.411
153.760	19.635	953.506	731.685
154.775	19.622	952.546	730.827
155.789	19.724	951.823	730.640
156.804	19.921	951.074	730.832
157.819	19.933	950.165	730.119
158.833	20.028	949.462	729.913
159.848	20.018	949.234	729.633
160.862	20.210	948.622	729.903
161.877	20.176	947.664	728.961
162.892	19.742	946.557	726.223
163.906	19.441	945.622	724.177
164.921	19.367	944.267	722.767
165.935	19.441	943.195	722.190
166.950	19.519	942.719	722.087
167.964	19.562	941.825	721.518
168.979	19.827	940.484	721.534
169.994	19.525	939.716	719.621
171.008	19.384	938.677	718.174
172.023	19.708	937.747	718.749
173.037	19.902	937.836	719.561
174.052	20.191	937.166	720.181
175.067	19.987	936.617	718.849
176.081	19.523	935.217	715.789
177.096	19.350	934.317	714.317
178.110	19.324	933.156	713.262
179.125	19.485	932.102	713.057
180.140	19.402	931.950	712.536
181.154	19.604	931.179	712.715
182.169	19.764	930.975	713.156
183.183	20.058	930.318	713.804
184.198	20.101	929.800	713.519
185.213	20.012	929.078	712.534
186.227	19.974	928.643	711.982
187.242	20.044	927.904	711.642
188.256	20.235	927.341	711.931
189.271	20.124	927.089	711.218
190.286	20.310	926.486	711.455
191.300	20.248	924.894	709.914
192.315	19.468	923.891	705.894
193.329	19.327	922.866	704.470
194.344	19.236	922.224	703.547
195.359	19.374	922.251	704.069
196.373	19.615	921.494	704.413
197.388	19.644	921.570	704.525
198.402	19.953	920.653	705.020
199.417	20.165	920.446	705.661
200.432	20.359	920.336	706.306
201.446	20.550	919.816	706.622
202.461	20.647	920.105	707.174
203.475	20.809	919.258	707.117
204.490	20.763	918.190	706.047
205.504	20.377	916.957	703.476
206.519	20.082	916.058	701.528
207.534	20.107	915.307	700.990
208.548	19.969	914.790	699.974
209.563	20.037	914.349	699.850
210.577	20.069	913.410	699.198
211.592	20.016	912.982	698.595
212.607	20.370	912.536	699.618
213.621	20.550	912.215	700.037
214.636	20.524	911.586	699.388
215.650	20.392	910.778	698.174
216.665	20.465	910.060	697.855
217.680	20.397	909.894	697.395
218.694	20.543	909.481	697.601
219.709	20.625	909.109	697.586
220.723	20.575	908.217	696.638
221.738	20.416	907.359	695.279
222.753	20.401	906.840	694.761
223.767	20.419	905.850	694.016
224.782	20.329	905.646	693.437
225.796	20.711	904.495	694.016
226.811	20.730	904.067	693.704
227.826	20.700	903.098	692.781
228.840	20.290	902.674	690.759
229.855	20.266	901.552	689.745
230.869	20.472	900.709	689.860
231.884	20.354	900.156	688.906
232.899	20.156	899.349	687.442
233.913	20.094	898.694	686.633
234.928	19.936	898.222	685.588
235.942	19.795	897.140	684.144
236.957	19.862	895.851	683.363
237.972	19.732	895.872	682.806
238.986	19.943	895.398	683.217
240.001	19.943	894.875	682.758
241.015	19.965	893.848	682.002
242.030	19.981	893.486	681.725
243.045	20.115	893.123	681.917
244.059	20.256	892.395	681.856
245.074	20.285	891.899	681.528
246.088	20.386	891.381	681.469
247.103	20.403	890.690	680.949
248.117	20.549	890.483	681.302
249.132	20.845	890.236	682.212
250.147	21.072	890.234	683.039
251.161	21.481	889.533	684.042
252.176	21.595	889.055	684.059
253.190	21.434	888.401	682.866
254.205	21.688	887.748	683.292
255.220	21.597	887.443	682.643
256.234	21.600	886.309	681.723
257.249	21.467	886.109	680.993
258.263	21.465	885.054	680.114
259.278	21.439	884.597	679.601
260.293	21.410	884.013	678.980
261.307	21.473	883.483	678.755
262.322	21.637	883.130	679.060
263.336	21.719	882.344	678.714
264.351	21.733	881.846	678.326
265.366	21.646	881.374	677.565
266.380	21.654	880.761	677.067
267.395	21.575	880.205	676.274
268.409	21.662	878.894	675.541
269.424	21.319	878.445	673.814
270.439	21.249	877.606	672.840
271.453	21.423	876.607	672.685
272.468	21.087	876.007	670.874
273.482	21.113	875.631	670.625
274.497	21.104	875.070	670.101
275.512	21.136	874.193	669.494
276.526	21.164	873.435	668.960
277.541	21.201	872.757	668.524
278.555	21.133	872.588	668.077
279.570	21.487	871.935	668.871
280.585	21.628	871.938	669.353
281.599	21.800	870.916	669.163
282.614	21.465	870.709	667.668
283.628	21.220	869.582	665.812
284.643	21.193	868.991	665.199
285.657	21.194	868.521	664.781
286.672	21.140	868.294	664.345
287.687	21.330	867.401	664.323
288.701	21.377	867.382	664.430
289.716	21.233	866.518	663.161
290.730	21.232	866.232	662.881
291.745	21.369	865.285	662.617
292.760	21.464	864.546	662.354
293.774	21.423	864.495	662.098
294.789	21.616	864.124	662.488
295.803	21.673	863.394	662.086
296.818	21.361	862.453	660.126
297.833	21.347	861.243	659.090
298.847	21.288	860.653	658.355
299.862	21.195	860.433	657.778
300.876	21.359	859.620	657.717
301.891	21.555	859.474	658.285
302.906	21.688	858.904	658.288
303.920	21.842	858.312	658.354
304.935	21.968	857.551	658.187
305.949	22.177	857.259	658.686
306.964	22.187	856.862	658.362
307.979	21.749	855.827	655.868
308.993	21.575	855.632	655.012
310.008	21.848	854.991	655.483
311.022	21.885	854.289	655.024
312.037	21.843	854.040	654.619
313.052	21.653	853.319	653.298
314.066	21.480	852.095	651.660
315.081	21.232	851.243	650.029
316.095	21.105	851.127	649.408
317.110	21.269	850.318	649.345
318.125	21.319	849.903	649.157
319.139	21.250	849.256	648.348
320.154	21.119	848.679	647.363
321.168	21.136	848.042	646.883
322.183	21.311	847.773	647.270
323.197	21.463	847.361	647.460
324.212	21.339	847.179	646.804
325.227	21.457	846.218	646.451
326.241	21.449	845.658	645.936
327.256	21.385	845.182	645.280
328.270	21.167	844.798	644.126
329.285	21.297	843.802	643.787
330.300	21.334	842.927	643.201
331.314	21.373	842.255	642.773
332.329	21.267	842.166	642.257
333.343	21.509	841.806	642.815
334.358	21.660	841.327	642.949
335.373	21.776	840.503	642.687
336.387	21.800	840.426	642.657
337.402	21.711	839.961	641.921
338.416	21.940	839.360	642.242
339.431	21.933	839.332	642.138
340.446	22.243	838.724	642.748
341.460	22.528	837.911	643.112
342.475	22.574	837.151	642.638
343.489	22.496	836.804	642.031
344.504	22.495	836.949	642.080
345.519	22.508	836.298	641.572
346.533	22.611	835.832	641.533
347.548	22.750	834.893	641.261
348.562	22.295	834.512	639.258
349.577	22.187	833.225	637.824
350.592	21.930	832.597	636.353
351.606	21.920	831.806	635.658
352.621	21.758	831.515	634.792
353.635	21.696	831.042	634.151
354.650	21.913	830.756	634.660
355.665	21.720	830.638	633.817
356.679	21.985	830.097	634.306
357.694	22.097	829.507	634.201
358.708	22.083	828.785	633.545
359.723	22.185	828.237	633.435
360.738	22.007	827.957	632.524
361.752	21.957	827.749	632.130
362.767	21.943	827.414	631.769
363.781	22.281	826.639	632.337
364.796	22.521	826.547	633.073
365.810	22.659	826.160	633.217
366.825	22.733	826.126	633.398
367.840	22.986	825.917	634.091
368.854	22.875	824.861	632.824
369.869	22.650	824.476	631.670
370.883	22.525	823.710	630.578
371.898	22.435	822.953	629.623
372.913	22.706	822.759	630.387
373.927	22.901	821.970	630.423
374.942	22.611	821.328	628.839
375.956	22.520	820.501	627.826
376.971	22.774	820.239	628.476
377.986	23.007	819.897	628.985
379.000	23.026	819.394	628.614
380.015	23.039	819.065	628.349
381.029	22.916	818.106	627.122
382.044	22.794	818.207	626.711
383.059	22.802	817.465	626.117
384.073	23.067	816.663	626.385
385.088	22.960	815.819	625.304
386.102	22.653	815.007	623.542
387.117	22.403	814.598	622.290
388.132	22.391	814.064	621.783
389.146	22.322	813.367	620.954
390.161	22.393	813.721	621.419
391.175	22.661	812.977	621.740
392.190	22.874	812.728	622.246
393.205	22.779	812.034	621.326
394.219	22.661	811.276	620.273
395.234	22.395	810.961	619.043
396.248	22.357	809.747	617.928
397.263	22.220	809.630	617.303
398.278	22.180	809.173	616.761
399.292	22.201	808.519	616.282
400.307	22.168	808.156	615.833
401.321	22.127	807.730	615.310
402.336	22.102	807.506	614.999
403.350	22.268	806.924	615.081
404.365	22.461	806.725	615.549
405.380	22.646	806.673	616.102
406.394	22.860	806.253	616.476
407.409	23.064	805.746	616.744
408.423	23.172	805.362	616.774
409.438	23.225	804.873	616.529
410.453	23.316	804.621	616.597
411.467	23.428	804.176	616.591
412.482	23.339	804.000	616.091
413.496	23.400	803.265	615.686
414.511	23.459	802.899	615.555
415.526	23.493	802.509	615.321
416.540	23.392	802.343	614.789
417.555	23.231	801.606	613.609
418.569	23.232	801.113	613.183
419.584	23.374	800.319	613.010
420.599	23.339	799.869	612.494
421.613	163.768	1371.158	1797.831
422.628	142.270	1454.379	1797.940
