DTS Sentinel unit serial number:	SN413079Multiplexer serial number:	ORYXHardware model number:	OX4-SRSoftware version number:	ORYX F/W v4.00 Oryx Data Collector v3.7.2.0data status	okinstallation	princeton_trtdifferential loss correction	single-endedforward channel	channel 3reverse channel	N/Adate	2019/09/12time	18:39:04forward acquisition time	15.00reverse acquisition time	0.00gamma	496.2192k internal	0.2318k external	0.2318temperature offset calibration	1.0100default loss term (dB/km)	0.3790temperature slope calibration	1.0000multiplexer offset coefficient	1.0000multiplexer slope coefficient	1.0000fibre end	0.00T internal ref (°C)	33.12T ext. ref 1 (°C)	2.97T ext. ref 2 (°C)	27.62length (m)	temperature (°C)	Stokes	anti-Stokes-747.200	67.046	0.290	0.299
-746.185	-129.331	-0.894	0.126
-745.171	-200.000	0.100	-0.602
-744.156	-66.629	-0.552	-0.221
-743.142	-88.908	0.260	-0.078
-742.127	-14.922	0.324	0.211
-741.112	-116.069	0.364	-0.068
-740.098	-124.532	1.079	-0.170
-739.083	-47.317	0.845	-0.416
-738.069	800.000	0.133	-0.433
-737.054	-200.000	0.046	0.336
-736.039	62.509	0.264	-0.267
-735.025	165.253	0.336	0.480
-734.010	-55.506	-0.791	0.359
-732.996	-91.130	0.860	-0.250
-731.981	-200.000	0.000	0.255
-730.966	-154.633	-0.425	-0.029
-729.952	5.822	-0.733	0.549
-728.937	-77.391	-0.282	-0.099
-727.923	-162.107	0.081	0.004
-726.908	497.728	0.019	0.044
-725.894	-54.372	-0.600	-0.275
-724.879	344.587	0.452	0.897
-723.864	-138.283	-1.158	-0.130
-722.850	-86.181	-1.324	0.413
-721.835	-79.075	0.383	-0.132
-720.821	-11.975	0.232	-0.154
-719.806	-98.658	-0.550	-0.142
-718.791	-200.000	0.027	0.184
-717.777	64.607	-0.551	-0.562
-716.762	33.105	-0.224	0.196
-715.748	548.864	-0.445	1.078
-714.733	177.225	0.147	-0.216
-713.718	-99.249	0.298	-0.076
-712.704	27.332	-0.414	0.352
-711.689	37.673	-0.257	-0.231
-710.675	-200.000	0.136	-0.855
-709.660	800.000	-0.161	0.539
-708.645	-59.633	0.633	0.274
-707.631	-56.747	-0.101	-0.045
-706.616	105.743	-0.186	-0.223
-705.602	99.319	0.267	-0.312
-704.587	469.339	0.287	0.650
-703.572	-116.851	0.842	0.156
-702.558	-136.861	0.189	0.022
-701.543	-17.631	-0.347	0.220
-700.529	-18.018	0.849	-0.538
-699.514	124.950	-0.254	0.323
-698.499	-200.000	-0.069	0.627
-697.485	800.000	0.141	-0.554
-696.470	-22.892	0.515	-0.314
-695.456	-128.595	-0.395	-0.057
-694.441	245.284	0.149	0.253
-693.426	95.587	0.184	0.212
-692.412	-5.696	0.258	0.178
-691.397	-154.537	-1.444	0.097
-690.383	-84.181	-0.275	0.088
-689.368	232.781	-0.171	-0.283
-688.354	-76.458	-0.168	0.060
-687.339	-109.882	0.510	0.108
-686.324	-134.612	-0.541	-0.067
-685.310	800.000	-0.101	-0.347
-684.295	800.000	-0.215	0.920
-683.281	24.949	0.268	0.225
-682.266	-139.795	0.941	-0.101
-681.251	205.033	-0.155	-0.242
-680.237	-100.782	-0.352	-0.088
-679.222	800.000	-0.149	-0.425
-678.208	-128.398	0.894	0.128
-677.193	-144.045	0.312	-0.030
-676.178	44.965	0.421	-0.391
-675.164	800.000	0.020	0.085
-674.149	531.156	-0.433	-1.033
-673.135	561.898	0.131	-0.319
-672.120	-117.982	-0.238	0.043
-671.105	-138.023	-0.690	-0.078
-670.091	62.215	0.907	-0.914
-669.076	-95.691	-0.206	-0.056
-668.062	-93.115	0.174	-0.049
-667.047	800.000	0.065	0.183
-666.032	800.000	-0.142	-0.565
-665.018	800.000	-0.224	-0.962
-664.003	105.242	-0.337	0.402
-662.989	191.683	0.443	-0.674
-661.974	-101.397	-0.487	0.120
-660.959	-70.121	1.034	0.397
-659.945	800.000	0.327	-1.006
-658.930	-147.286	-0.350	0.030
-657.916	-7.518	0.290	-0.198
-656.901	800.000	0.212	0.841
-655.886	800.000	0.231	0.883
-654.872	252.992	0.056	-0.096
-653.857	-200.000	-0.034	-0.638
-652.843	-140.989	-0.402	0.042
-651.828	-15.993	-0.980	0.629
-650.814	800.000	0.127	-0.500
-649.799	-200.000	0.022	0.399
-648.784	-95.333	-0.569	0.154
-647.770	-13.670	-0.428	0.279
-646.755	800.000	-0.196	-0.548
-645.741	-37.555	-0.378	0.203
-644.726	-55.462	0.192	-0.087
-643.711	-200.000	-0.054	-0.242
-642.697	-109.489	0.278	0.059
-641.682	733.094	-0.166	0.448
-640.668	800.000	0.097	0.350
-639.653	-90.108	0.266	-0.078
-638.638	-20.968	-0.751	0.464
-637.624	-200.000	0.115	1.017
-636.609	-69.529	-0.122	-0.047
-635.595	-38.835	0.527	0.280
-634.580	23.073	-0.529	0.437
-633.565	85.034	0.303	-0.335
-632.551	-82.713	0.152	0.050
-631.536	-144.871	0.868	-0.080
-630.522	-112.743	-0.532	-0.107
-629.507	742.168	-0.087	-0.236
-628.492	-105.122	-0.403	-0.093
-627.478	233.162	0.567	-0.939
-626.463	800.000	-0.137	-0.553
-625.449	-116.310	0.027	-0.005
-624.434	343.593	0.103	-0.204
-623.419	138.233	-0.347	-0.458
-622.405	-184.152	-1.174	-0.020
-621.390	-200.000	-0.003	0.960
-620.376	-33.105	-1.402	0.783
-619.361	-41.318	0.609	0.316
-618.346	-137.752	0.628	-0.071
-617.332	0.192	-0.451	-0.324
-616.317	481.947	-0.066	0.150
-615.303	-200.000	0.134	-0.594
-614.288	186.276	0.581	0.870
-613.273	-28.561	-0.616	-0.357
-612.259	192.331	0.298	-0.453
-611.244	-200.000	0.069	-0.658
-610.230	-200.000	-0.110	-0.544
-609.215	-15.972	-0.789	-0.506
-608.201	800.000	-0.279	-0.921
-607.186	-73.210	1.211	-0.446
-606.171	94.432	0.553	0.632
-605.157	25.529	-0.133	0.111
-604.142	376.655	0.156	-0.321
-603.128	-50.412	-0.974	-0.463
-602.113	-180.832	-0.464	-0.009
-601.098	800.000	0.135	-0.574
-600.084	207.318	-0.155	0.244
-599.069	-126.266	-0.260	0.039
-598.055	364.150	0.256	-0.519
-597.040	-115.113	-0.199	0.038
-596.025	-112.719	0.167	0.033
-595.011	-200.000	0.026	-0.365
-593.996	-105.049	-0.442	-0.102
-592.982	131.290	0.029	0.038
-591.967	-200.000	-0.022	-0.474
-590.952	-42.553	-0.240	0.123
-589.938	-17.789	0.350	-0.221
-588.923	219.802	-0.251	0.404
-587.909	-200.000	0.049	0.494
-586.894	-3.667	-0.769	0.537
-585.879	111.570	-0.319	-0.387
-584.865	-200.000	0.033	0.239
-583.850	119.725	0.642	0.800
-582.836	140.433	-0.290	0.385
-581.821	5.698	0.773	-0.575
-580.806	145.603	0.372	-0.502
-579.792	714.102	0.131	0.350
-578.777	-151.167	0.690	0.052
-577.763	48.597	0.378	-0.356
-576.748	1.554	0.486	0.351
-575.733	132.176	0.702	0.910
-574.719	-138.758	-0.427	-0.047
-573.704	800.000	-0.111	0.357
-572.690	195.172	-0.135	0.206
-571.675	-93.662	0.560	0.155
-570.661	-126.449	-0.467	0.070
-569.646	-200.000	0.067	1.063
-568.631	-19.830	0.059	0.037
-567.617	-138.033	-0.193	-0.022
-566.602	-81.265	1.009	-0.335
-565.588	-154.073	0.374	-0.026
-564.573	390.862	-0.374	-0.781
-563.558	-200.000	-0.058	-1.016
-562.544	-77.230	0.773	-0.270
-561.529	-186.459	-0.597	-0.009
-560.515	-1.951	-0.123	-0.087
-559.500	-73.285	0.391	0.144
-558.485	363.899	-0.317	0.640
-557.471	800.000	-0.330	0.949
-556.456	-91.029	0.440	-0.127
-555.442	175.205	-0.155	-0.225
-554.427	356.361	-0.234	0.468
-553.412	800.000	0.199	-0.807
-552.398	-200.000	0.046	-1.268
-551.383	-102.096	0.566	0.137
-550.369	85.438	0.688	-0.759
-549.354	0.453	-0.764	-0.548
-548.339	112.852	-0.161	0.195
-547.325	-8.586	-0.448	0.302
-546.310	625.326	-0.264	0.668
-545.296	-137.019	0.284	-0.033
-544.281	33.482	-0.254	-0.222
-543.266	-95.499	-0.796	-0.214
-542.252	156.323	0.293	0.406
-541.237	-200.000	0.091	0.661
-540.223	-48.737	0.625	0.301
-539.208	-82.863	-0.527	0.171
-538.193	-16.615	0.446	-0.284
-537.179	-119.124	-0.429	0.075
-536.164	391.297	-0.208	0.433
-535.150	16.758	0.840	-0.667
-534.135	469.789	-0.114	-0.256
-533.121	-67.982	-0.133	0.052
-532.106	477.662	0.336	0.762
-531.091	-47.879	0.361	-0.176
-530.077	-68.398	-0.266	-0.103
-529.062	-41.250	-0.238	0.123
-528.048	-30.546	0.151	0.086
-527.033	34.511	-0.083	-0.073
-526.018	587.755	0.165	0.408
-525.004	-129.228	-1.135	0.159
-523.989	-61.548	-0.113	-0.048
-522.975	87.953	0.290	0.322
-521.960	62.031	0.851	0.851
-520.945	-46.144	-0.482	-0.238
-519.931	1.586	-0.343	-0.247
-518.916	-62.535	-0.091	0.038
-517.902	-200.000	-0.019	-0.460
-516.887	-99.171	-0.319	-0.081
-515.872	-200.000	-0.055	0.451
-514.858	104.866	-0.295	-0.349
-513.843	231.183	0.444	0.730
-512.829	-200.000	0.020	0.485
-511.814	111.034	-0.284	-0.343
-510.799	800.000	-0.020	0.086
-509.785	-200.000	-0.052	-0.429
-508.770	-36.885	0.979	0.526
-507.756	-115.180	-0.628	0.119
-506.741	-200.000	-0.049	0.459
-505.726	120.768	0.408	0.508
-504.712	800.000	0.089	0.374
-503.697	-152.852	0.333	0.024
-502.683	-200.000	-0.054	-0.370
-501.668	800.000	-0.104	-0.317
-500.653	800.000	0.033	-0.100
-499.639	-112.490	0.359	-0.072
-498.624	118.989	0.060	-0.074
-497.610	18.659	-0.310	-0.249
-496.595	41.164	-0.267	-0.242
-495.581	5.321	-0.794	0.587
-494.566	-200.000	-0.080	0.705
-493.551	-94.796	-0.773	-0.210
-492.537	20.032	-0.260	-0.210
-491.522	134.490	-0.275	0.357
-490.508	74.003	-0.510	-0.536
-489.493	-74.688	0.448	-0.161
-488.478	87.772	0.504	0.560
-487.464	58.817	-0.092	0.091
-486.449	87.654	-0.514	0.571
-485.435	-70.973	-0.281	-0.106
-484.420	-200.000	0.073	-0.549
-483.405	-108.269	-0.567	0.123
-482.391	706.122	-0.179	-0.473
-481.376	-200.000	-0.068	-0.423
-480.362	121.917	-0.651	0.813
-479.347	11.699	0.609	-0.468
-478.332	-98.915	-0.507	0.129
-477.318	-128.621	-0.397	-0.056
-476.303	800.000	0.101	0.284
-475.289	800.000	0.213	-0.617
-474.274	-200.000	-0.075	-0.349
-473.259	-200.000	-0.029	0.241
-472.245	-200.000	-0.112	-0.687
-471.230	23.206	0.408	-0.336
-470.216	-200.000	0.060	-0.532
-469.201	94.184	0.125	0.142
-468.186	38.173	0.752	0.670
-467.172	34.036	-0.573	-0.500
-466.157	-23.566	0.391	-0.235
-465.143	-200.000	0.104	1.052
-464.128	-2.027	0.476	0.335
-463.113	-182.908	-0.642	0.012
-462.099	505.455	-0.074	0.171
-461.084	240.676	-0.489	0.817
-460.070	-200.000	0.084	-0.484
-459.055	-125.593	-0.148	-0.022
-458.040	-105.296	0.934	0.213
-457.026	-156.429	-1.052	0.066
-456.011	1.294	0.133	-0.096
-454.997	580.319	-0.220	-0.540
-453.982	-200.000	0.602	-0.001
-452.968	52.545	-0.199	0.190
-451.953	-54.603	-0.949	-0.430
-450.938	-49.732	-1.040	-0.494
-449.924	-42.935	0.564	0.287
-448.909	600.814	0.190	-0.472
-447.895	-200.000	0.037	0.247
-446.880	99.165	-0.493	-0.570
-445.865	-131.650	-0.445	0.059
-444.851	-30.197	-0.116	-0.066
-443.836	62.437	0.388	0.387
-442.822	-196.254	1.282	0.009
-441.807	288.533	-0.182	0.331
-440.792	-83.053	-0.165	0.053
-439.778	499.253	0.169	-0.390
-438.763	503.570	0.141	-0.327
-437.749	103.258	-0.649	-0.761
-436.734	-11.304	0.358	0.235
-435.719	-200.000	0.160	0.757
-434.705	-13.234	0.169	-0.110
-433.690	-145.833	-0.525	0.047
-432.676	-200.000	0.001	-0.532
-431.661	800.000	-0.083	0.309
-430.646	254.330	-0.448	-0.767
-429.632	-36.840	0.110	-0.059
-428.617	27.994	0.684	0.577
-427.603	-200.000	0.052	0.480
-426.588	208.561	-0.136	0.213
-425.573	-200.000	0.045	-0.347
-424.559	35.150	0.480	-0.420
-423.544	235.301	0.166	-0.273
-422.530	55.655	0.446	0.431
-421.515	21.673	0.414	0.337
-420.500	-26.540	-0.071	-0.042
-419.486	379.723	-0.256	0.525
-418.471	325.336	0.134	0.256
-417.457	66.908	0.301	0.307
-416.442	144.189	-0.377	0.503
-415.428	124.557	-0.167	-0.210
-414.413	47.075	0.683	-0.635
-413.398	-69.850	0.504	0.192
-412.384	221.929	0.129	-0.208
-411.369	-21.408	-0.348	0.212
-410.355	386.771	0.128	0.264
-409.340	-33.789	0.514	-0.283
-408.325	-72.852	-0.319	-0.117
-407.311	-31.543	0.561	0.315
-406.296	12.845	-0.121	0.094
-405.282	257.132	0.101	-0.174
-404.267	731.686	0.024	0.063
-403.252	-181.089	-0.759	0.015
-402.238	-200.000	0.003	0.375
-401.223	800.000	-0.115	-0.449
-400.209	-69.359	-0.371	0.142
-399.194	800.000	0.108	-0.376
-398.179	-200.000	-0.004	0.482
-397.165	-89.882	-0.340	-0.099
-396.150	381.913	0.147	-0.301
-395.136	427.769	0.314	0.677
-394.121	-50.207	0.600	0.283
-393.106	221.789	0.385	0.618
-392.092	-78.924	0.573	0.195
-391.077	800.000	-0.170	0.608
-390.063	211.046	-0.325	0.510
-389.048	-22.931	0.847	-0.510
-388.033	31.474	0.142	-0.122
-387.019	78.581	0.168	0.179
-386.004	54.656	-0.280	0.269
-384.990	83.693	0.429	-0.467
-383.975	-131.781	-0.250	0.033
-382.960	-54.919	0.689	-0.310
-381.946	-200.000	-0.015	-0.353
-380.931	-8.171	-0.276	-0.186
-379.917	800.000	-0.307	-1.009
-378.902	-4.776	-0.516	-0.355
-377.888	-200.000	0.004	-0.204
-376.873	-34.304	0.353	0.193
-375.858	253.995	0.127	0.216
-374.844	60.002	0.720	-0.710
-373.829	27.922	-0.374	0.315
-372.815	356.240	0.683	1.356
-371.800	-18.489	0.474	0.295
-370.785	-61.697	-0.300	-0.125
-369.771	231.952	0.310	-0.508
-368.756	137.383	-0.203	-0.264
-367.742	-96.286	-0.184	0.049
-366.727	120.787	0.206	0.255
-365.712	569.839	-0.187	0.455
-364.698	7.991	0.360	-0.269
-363.683	-200.000	-0.025	1.074
-362.669	22.821	0.362	0.295
-361.654	800.000	-0.137	0.379
-360.639	800.000	-0.115	-0.445
-359.625	800.000	-0.110	0.352
-358.610	30.302	0.763	-0.650
-357.596	-118.319	-0.323	0.057
-356.581	193.892	0.423	-0.639
-355.566	-200.000	0.555	0.002
-354.552	485.650	-0.221	-0.503
-353.537	800.000	0.128	-0.447
-352.523	118.734	-0.416	-0.512
-351.508	74.533	-0.275	0.289
-350.493	-200.000	-0.018	-0.496
-349.479	36.671	-0.745	0.656
-348.464	-41.482	0.488	0.250
-347.450	-100.369	-0.510	-0.126
-346.435	-98.275	0.483	-0.124
-345.420	472.021	-0.140	-0.314
-344.406	84.394	0.418	0.456
-343.391	-200.000	0.026	-0.333
-342.377	-188.862	0.560	0.007
-341.362	-23.263	0.487	-0.292
-340.348	22.902	0.523	-0.427
-339.333	-200.000	-0.054	-0.355
-338.318	-200.000	0.011	0.490
-337.304	-150.356	0.955	0.073
-336.289	-200.000	0.031	-1.370
-335.275	31.546	-0.242	-0.207
-334.260	-71.747	-0.472	-0.175
-333.245	800.000	-0.146	-0.425
-332.231	148.592	0.339	0.456
-331.216	-200.000	-0.029	0.563
-330.202	800.000	0.176	-0.726
-329.187	189.005	-0.286	0.426
-328.172	-39.413	-0.595	-0.311
-327.158	174.885	0.508	-0.732
-326.143	-137.790	0.557	0.062
-325.129	-200.000	-0.108	-0.667
-324.114	552.564	-0.043	0.104
-323.099	-149.201	-0.734	0.058
-322.085	32.685	0.464	-0.399
-321.070	23.159	0.419	-0.342
-320.056	800.000	-0.240	-0.686
-319.041	163.573	0.194	0.272
-318.026	-107.172	1.068	0.234
-317.012	126.882	0.385	-0.486
-315.997	-200.000	-0.055	0.519
-314.983	223.203	-0.669	-1.073
-313.968	60.992	-0.148	0.146
-312.953	-72.438	0.723	0.266
-311.939	-200.000	0.010	0.441
-310.924	-66.238	0.505	-0.200
-309.910	122.208	-0.552	-0.686
-308.895	68.424	-0.538	-0.549
-307.880	217.490	-0.232	-0.368
-306.866	156.559	-0.581	-0.798
-305.851	-67.506	-0.746	-0.291
-304.837	76.735	0.307	-0.324
-303.822	-86.502	-0.317	-0.097
-302.807	110.068	0.387	-0.462
-301.793	-73.856	-0.817	-0.295
-300.778	800.000	0.279	0.840
-299.764	754.960	0.104	-0.280
-298.749	-200.000	0.009	0.453
-297.735	149.451	-0.352	0.475
-296.720	-27.016	0.629	-0.365
-295.705	-100.507	0.906	-0.223
-294.691	800.000	0.148	0.582
-293.676	-100.851	0.217	-0.053
-292.662	356.088	0.124	0.246
-291.647	-200.000	0.063	0.467
-290.632	150.621	0.182	-0.246
-289.618	-5.619	0.661	0.451
-288.603	317.909	-0.230	-0.432
-287.589	-13.620	0.354	-0.228
-286.574	800.000	-0.108	0.407
-285.559	-56.216	-0.974	0.431
-284.545	29.712	-0.120	-0.101
-283.530	-68.427	0.364	0.141
-282.516	-181.450	-1.269	0.025
-281.501	150.466	-0.114	0.154
-280.486	127.544	0.233	0.294
-279.472	119.255	-0.296	0.363
-278.457	61.863	0.428	0.423
-277.443	800.000	-0.099	0.285
-276.428	-200.000	0.044	-0.369
-275.413	-80.644	0.282	-0.093
-274.399	800.000	0.239	0.875
-273.384	-164.378	-1.010	0.046
-272.370	-35.718	0.367	0.197
-271.355	-160.645	-0.249	-0.013
-270.340	143.714	-0.055	0.073
-269.326	-200.000	-0.046	-1.160
-268.311	-93.042	0.590	-0.163
-267.297	58.131	-0.130	-0.127
-266.282	-7.377	0.976	-0.657
-265.267	-84.238	-0.720	-0.227
-264.253	228.392	-0.507	0.820
-263.238	197.271	0.362	0.548
-262.224	57.525	-0.111	0.108
-261.209	-195.216	0.088	0.001
-260.195	-100.918	0.239	-0.058
-259.180	800.000	-0.126	0.376
-258.165	-181.367	-0.014	0.000
-257.151	-66.842	-0.158	-0.062
-256.136	-65.346	0.993	0.397
-255.122	639.808	-0.111	-0.281
-254.107	800.000	0.177	0.542
-253.092	-200.000	0.029	-0.314
-252.078	-200.000	0.008	0.442
-251.063	-130.937	-0.804	0.107
-250.049	82.629	0.072	0.078
-249.034	-200.000	-0.881	0.002
-248.019	-63.708	-0.314	-0.128
-247.005	800.000	-0.220	-0.717
-245.990	800.000	0.317	-0.931
-244.976	-200.000	0.025	0.535
-243.961	-64.033	0.487	0.197
-242.946	66.652	-0.489	0.493
-241.932	-106.980	0.188	0.041
-240.917	245.347	0.425	-0.710
-239.903	29.571	-0.314	-0.265
-238.888	800.000	0.189	0.708
-237.873	127.395	-0.161	-0.203
-236.859	81.683	0.614	-0.659
-235.844	22.652	-0.617	-0.501
-234.830	-9.503	-0.140	0.092
-233.815	419.440	-0.302	-0.642
-232.800	84.738	-0.335	0.364
-231.786	-16.310	0.263	0.165
-230.771	230.133	-0.596	-0.966
-229.757	-72.545	-0.702	0.257
-228.742	75.032	0.117	0.122
-227.727	800.000	0.282	0.897
-226.713	-48.674	-0.141	0.067
-225.698	-200.000	-0.022	-1.118
-224.684	-104.914	0.165	-0.038
-223.669	800.000	0.203	0.711
-222.655	800.000	0.264	0.901
-221.640	-200.000	-0.099	0.768
-220.625	-88.656	-0.137	-0.040
-219.611	-132.021	-0.700	0.090
-218.596	-46.865	-0.704	0.341
-217.582	353.865	-0.141	-0.278
-216.567	-53.582	0.308	-0.140
-215.552	-75.220	-0.626	-0.222
-214.538	128.203	-0.281	-0.354
-213.523	-90.846	0.270	-0.077
-212.509	168.059	-0.283	0.399
-211.494	418.109	0.504	1.068
-210.479	6.776	-0.858	-0.633
-209.465	274.017	-0.437	0.767
-208.450	141.143	-0.197	-0.258
-207.436	190.902	0.258	-0.384
-206.421	-24.172	0.806	0.477
-205.406	-200.000	-0.146	1.268
-204.392	-102.635	0.575	0.136
-203.377	-36.370	-0.300	0.160
-202.363	92.899	0.319	-0.357
-201.348	-30.528	-0.548	0.308
-200.333	45.520	0.398	0.364
-199.319	-109.110	1.012	0.213
-198.304	-93.544	-0.264	0.072
-197.290	194.491	-0.771	1.158
-196.275	167.461	0.432	0.609
-195.260	477.307	-0.149	0.334
-194.246	-122.659	-0.487	-0.078
-193.231	-52.502	0.471	0.216
-192.217	139.797	0.239	-0.312
-191.202	800.000	0.068	-0.238
-190.187	268.714	0.113	0.196
-189.173	-71.166	-0.614	0.228
-188.158	43.312	0.275	-0.248
-187.144	-8.450	-0.852	0.567
-186.129	-96.624	-0.294	0.077
-185.114	452.435	-0.468	-1.025
-184.100	69.636	0.397	0.405
-183.085	-200.000	-0.060	-0.666
-182.071	800.000	0.066	-0.230
-181.056	-69.291	-0.398	-0.151
-180.042	-200.000	-0.151	0.814
-179.027	-200.000	-0.014	-1.070
-178.012	17.799	0.283	0.223
-176.998	-0.670	-0.538	-0.378
-175.983	-6.934	-0.219	0.147
-174.969	-65.870	0.931	-0.368
-173.954	-78.207	-0.469	-0.160
-172.939	-200.000	0.060	0.338
-171.925	5.583	-0.350	0.256
-170.910	-119.119	0.476	-0.082
-169.896	-42.765	-0.080	0.040
-168.881	800.000	0.045	-0.172
-167.866	-158.153	-1.217	0.071
-166.852	75.858	0.557	-0.582
-165.837	800.000	0.093	-0.281
-164.823	-103.813	0.659	0.152
-163.808	200.077	-0.187	0.283
-162.793	-49.184	0.488	0.231
-161.779	-147.789	0.465	-0.038
-160.764	-97.726	-0.270	-0.069
-159.750	-46.325	0.638	-0.310
-158.735	84.868	0.431	0.467
-157.720	800.000	-0.131	0.382
-156.706	-74.642	-0.373	-0.133
-155.691	-96.084	0.964	-0.253
-154.677	14.709	-0.989	-0.765
-153.662	-200.000	0.025	-0.326
-152.647	-124.072	0.530	0.082
-151.633	-176.482	0.327	0.008
-150.618	318.575	0.285	0.533
-149.604	-124.173	0.733	-0.114
-148.589	-200.000	-0.045	-0.645
-147.574	291.908	-0.255	0.460
-146.560	158.238	0.659	-0.903
-145.545	-26.335	0.296	0.172
-144.531	800.000	-0.263	-0.923
-143.516	332.948	0.174	-0.332
-142.502	23.612	0.235	-0.191
-141.487	800.000	0.190	0.646
-140.472	0.243	0.276	0.195
-139.458	-200.000	-0.054	-0.661
-138.443	271.915	0.444	0.774
-137.429	136.174	-0.068	-0.087
-136.414	-106.536	-0.756	-0.166
-135.399	-90.785	0.365	0.104
-134.385	-91.415	-0.121	-0.034
-133.370	-50.205	-0.706	-0.330
-132.356	-119.316	-0.586	-0.101
-131.341	800.000	-0.313	-0.985
-130.326	-200.000	0.095	-0.739
-129.312	90.238	0.124	-0.137
-128.297	419.946	0.391	0.828
-127.283	1.578	-0.500	0.356
-126.268	323.362	0.464	0.873
-125.253	9.964	-0.158	0.119
-124.239	-121.057	-0.521	-0.086
-123.224	-200.000	-0.116	-0.689
-122.210	-46.311	-0.886	0.430
-121.195	30.215	0.545	-0.459
-120.180	123.704	-0.525	-0.650
-119.166	-110.493	0.723	0.148
-118.151	748.756	0.324	-0.863
-117.137	216.129	-0.282	-0.443
-116.122	-200.000	-0.084	0.451
-115.107	-193.604	-0.845	-0.007
-114.093	219.067	0.107	0.169
-113.078	565.328	-0.306	-0.733
-112.064	-17.335	-0.079	-0.049
-111.049	-200.000	0.105	-0.819
-110.034	-153.866	0.719	0.049
-109.020	-200.000	-0.001	0.025
-108.005	-91.258	-0.578	-0.163
-106.991	-140.579	1.013	0.104
-105.976	55.426	-0.295	0.282
-104.962	365.235	0.193	-0.383
-103.947	-84.177	-0.571	0.179
-102.932	567.627	0.242	0.580
-101.918	-116.773	-0.517	0.094
-100.903	86.811	-0.244	0.265
-99.889	-57.503	-0.538	0.233
-98.874	23.614	-0.137	-0.111
-97.859	-43.812	-0.447	-0.222
-96.845	34.985	-0.293	0.253
-95.830	-200.000	-0.015	0.895
-94.816	-200.000	0.118	1.111
-93.801	800.000	-0.048	-0.168
-92.786	-200.000	0.115	0.506
-91.772	800.000	0.247	-0.914
-90.757	239.265	0.292	-0.479
-89.743	800.000	0.143	0.532
-88.728	-20.972	-1.300	0.785
-87.713	-130.930	-0.748	0.099
-86.699	-18.056	-0.286	-0.177
-85.684	-200.000	-0.051	0.659
-84.670	-22.622	-0.647	-0.386
-83.655	-200.000	-0.055	0.269
-82.640	11.119	-0.637	0.481
-81.626	800.000	0.159	0.683
-80.611	-85.019	0.377	-0.116
-79.597	-159.327	-1.054	0.058
-78.582	-200.000	-0.007	-0.206
-77.567	-36.400	-0.524	-0.278
-76.553	800.000	0.046	-0.143
-75.538	142.997	-0.355	-0.466
-74.524	152.129	0.519	-0.698
-73.509	15.028	-0.196	0.151
-72.494	226.686	0.272	0.435
-71.480	-152.410	0.531	0.038
-70.465	25.181	-0.414	0.339
-69.451	-103.107	-0.228	0.053
-68.436	-200.000	-0.020	-0.123
-67.422	36.811	-0.684	-0.596
-66.407	78.560	-0.396	-0.418
-65.392	211.844	0.488	-0.757
-64.378	44.803	0.397	-0.360
-63.363	-200.000	0.038	0.955
-62.349	538.621	0.088	0.205
-61.334	-54.607	-1.155	-0.515
-60.319	-200.000	-0.202	1.027
-59.305	396.679	-0.373	-0.768
-58.290	800.000	0.461	1.767
-57.276	800.000	0.359	1.027
-56.261	-200.000	94.659	564.514
-55.246	644.416	1361.215	3421.118
-54.232	201.190	2531.686	3838.604
-53.217	116.582	2151.578	2599.399
-52.203	43.449	1698.530	1529.119
-51.188	36.215	1512.934	1312.965
-50.173	34.019	1486.374	1275.155
-49.159	53.625	1537.129	1452.857
-48.144	54.777	1555.587	1478.109
-47.130	36.486	1513.391	1314.998
-46.115	33.267	1499.316	1280.971
-45.100	33.342	1495.476	1278.144
-44.086	33.095	1494.135	1275.281
-43.071	33.123	1492.477	1274.003
-42.057	33.133	1490.971	1272.737
-41.042	33.167	1489.577	1271.724
-40.027	33.037	1487.834	1269.309
-39.013	33.270	1485.246	1268.616
-37.998	32.985	1485.007	1266.449
-36.984	33.219	1483.240	1266.459
-35.969	33.188	1482.374	1265.463
-34.954	33.299	1480.721	1264.741
-33.940	33.186	1479.236	1262.671
-32.925	33.159	1478.582	1261.880
-31.911	33.308	1476.800	1261.302
-30.896	32.955	1476.803	1258.906
-29.881	33.162	1474.709	1258.443
-28.867	32.853	1473.415	1255.234
-27.852	33.161	1470.843	1255.041
-26.838	33.211	1469.924	1254.536
-25.823	33.196	1467.880	1252.646
-24.809	32.965	1466.932	1250.258
-23.794	33.014	1466.217	1249.921
-22.779	33.139	1464.301	1249.064
-21.765	33.143	1462.804	1247.762
-20.750	33.251	1461.439	1247.264
-19.736	33.318	1460.368	1246.740
-18.721	32.929	1461.173	1244.813
-17.706	33.382	1458.273	1245.276
-16.692	33.137	1457.436	1242.900
-15.677	33.150	1456.887	1242.468
-14.663	32.927	1455.518	1239.789
-13.648	33.070	1454.258	1239.603
-12.633	32.999	1454.344	1239.160
-11.619	33.132	1452.395	1238.319
-10.604	33.113	1452.848	1238.537
-9.590	33.217	1451.117	1237.689
-8.575	33.122	1450.207	1236.241
-7.560	33.222	1449.720	1236.435
-6.546	33.047	1449.257	1234.843
-5.531	33.066	1447.435	1233.368
-4.517	33.094	1445.828	1232.130
-3.502	33.212	1445.143	1232.266
-2.487	33.193	1444.097	1231.201
-1.473	33.195	1443.372	1230.549
-0.458	33.250	1442.181	1229.843
0.556	34.187	1432.603	1217.395
1.571	31.110	1407.234	1176.367
2.586	27.274	1348.279	1103.756
3.600	25.757	1267.076	1028.531
4.615	23.909	1222.277	981.885
5.629	20.710	1164.574	918.593
6.644	11.900	1079.562	808.163
7.659	4.126	1039.050	740.716
8.673	3.317	1032.745	732.313
9.688	2.867	1029.222	727.615
10.702	2.775	1027.022	725.565
11.717	2.922	1026.536	725.850
12.731	6.001	1028.874	742.002
13.746	15.364	1041.685	795.785
14.761	23.005	1051.255	839.461
15.775	24.780	1053.046	849.254
16.790	25.140	1052.372	850.341
17.804	24.823	1051.856	848.346
18.819	25.045	1050.373	848.127
19.834	24.860	1050.685	847.427
20.848	25.248	1049.868	848.529
21.863	25.120	1049.692	847.706
22.877	25.223	1050.105	848.449
23.892	25.186	1048.342	846.777
24.907	25.034	1047.477	845.289
25.921	24.951	1046.641	844.146
26.936	25.185	1045.673	844.392
27.950	25.051	1045.290	843.375
28.965	25.058	1044.126	842.397
29.980	24.546	1043.801	839.652
30.994	24.795	1041.423	838.836
32.009	24.727	1041.648	838.620
33.023	24.954	1040.526	838.710
34.038	24.638	1040.506	837.135
35.053	24.676	1039.065	836.080
36.067	24.965	1037.407	836.025
37.082	24.814	1037.368	835.213
38.096	25.132	1035.715	835.289
39.111	24.922	1035.755	834.269
40.126	25.271	1034.525	834.827
41.140	24.853	1033.828	832.248
42.155	25.079	1031.690	831.504
43.169	24.882	1031.067	830.016
44.184	24.638	1031.334	829.022
45.199	24.400	1029.879	826.677
46.213	24.922	1027.426	827.050
47.228	24.595	1027.427	825.463
48.242	25.234	1026.175	827.334
49.257	25.073	1026.503	826.782
50.271	25.056	1025.250	825.622
51.286	24.795	1025.426	824.486
52.301	25.439	1024.262	826.441
53.315	25.168	1023.956	824.878
54.330	24.856	1023.676	823.145
55.344	25.109	1022.476	823.267
56.359	25.097	1021.371	822.249
57.374	24.826	1021.436	820.986
58.388	24.837	1019.337	819.277
59.403	24.547	1019.601	818.086
60.417	24.312	1018.627	816.157
61.432	24.477	1018.028	816.362
62.447	24.484	1017.727	816.079
63.461	24.766	1016.550	816.350
64.476	24.989	1014.453	815.610
65.490	25.056	1014.359	815.766
66.505	24.741	1013.620	813.667
67.520	24.606	1013.834	813.155
68.534	24.650	1013.845	813.291
69.549	24.423	1012.613	811.200
70.563	24.545	1010.643	810.099
71.578	24.273	1009.985	808.270
72.593	24.269	1009.150	807.512
73.607	24.371	1007.408	806.508
74.622	24.459	1007.047	806.547
75.636	24.296	1006.361	805.189
76.651	24.755	1005.857	806.784
77.666	24.487	1005.750	805.421
78.680	24.650	1003.866	804.573
79.695	24.488	1004.362	804.171
80.709	24.276	1003.490	802.447
81.724	24.533	1002.689	802.889
82.739	24.744	1001.791	803.047
83.753	24.377	1001.078	800.757
84.768	24.779	1000.242	801.822
85.782	25.127	1000.224	803.295
86.797	25.787	998.452	804.752
87.812	25.413	999.226	803.631
88.826	25.351	997.020	801.508
89.841	25.210	996.013	800.001
90.855	25.407	996.425	801.137
91.870	25.230	995.646	799.650
92.884	25.184	994.564	798.507
93.899	24.983	994.500	797.489
94.914	25.225	992.732	797.077
95.928	25.365	992.361	797.333
96.943	25.510	990.757	796.614
97.957	25.195	989.853	794.422
98.972	24.800	989.866	792.611
99.987	24.848	988.161	791.391
101.001	25.191	986.889	791.816
102.016	25.171	987.470	792.125
103.030	25.315	986.013	791.521
104.045	25.137	985.022	789.870
105.060	25.227	983.427	788.918
106.074	25.099	983.055	787.984
107.089	25.069	982.229	787.122
108.103	25.038	982.443	787.088
109.118	25.332	980.253	786.551
110.133	25.116	979.491	784.927
111.147	24.942	978.610	783.388
112.162	25.113	977.157	782.905
113.176	24.792	975.490	780.100
114.191	24.960	975.507	780.778
115.206	24.560	975.779	779.182
116.220	24.551	974.842	778.326
117.235	24.699	973.230	777.609
118.249	25.004	973.026	778.707
119.264	24.621	972.971	776.929
120.279	24.556	971.414	775.333
121.293	24.681	969.686	774.429
122.308	24.639	969.831	774.293
123.322	24.433	969.108	772.756
124.337	24.629	967.941	772.606
125.352	24.533	966.845	771.248
126.366	24.270	965.776	769.189
127.381	24.009	966.096	768.249
128.395	24.219	964.348	767.697
129.410	24.822	964.008	769.955
130.424	25.282	962.710	770.825
131.439	24.961	961.532	768.438
132.454	25.283	961.391	769.637
133.468	25.084	960.232	767.788
134.483	24.932	959.745	766.682
135.497	24.826	960.368	766.656
136.512	24.995	959.031	766.244
137.527	25.143	958.695	766.543
138.541	25.159	957.597	765.663
139.556	25.147	956.347	764.546
140.570	25.078	956.594	764.380
141.585	25.443	954.305	764.035
142.600	25.086	955.403	763.328
143.614	25.766	953.060	764.275
144.629	25.147	953.016	761.544
145.643	25.750	952.356	763.507
146.658	25.251	951.547	760.676
147.673	25.425	949.703	759.871
148.687	25.418	948.661	758.944
149.702	25.424	946.895	757.489
150.716	25.433	946.266	756.957
151.731	24.877	947.219	755.306
152.746	25.089	945.120	754.456
153.760	25.235	944.375	754.411
154.775	25.214	944.773	754.571
155.789	25.650	942.865	754.812
156.804	25.300	942.332	752.848
157.819	25.132	942.076	751.875
158.833	25.343	940.576	751.493
159.848	25.477	940.016	751.541
160.862	25.545	939.669	751.480
161.877	25.364	938.903	750.047
162.892	25.345	937.325	748.639
163.906	25.396	937.131	748.632
164.921	25.202	935.931	746.800
165.935	25.289	934.859	746.238
166.950	25.147	934.877	745.599
167.964	25.489	932.828	745.316
168.979	25.425	932.182	744.470
169.994	25.485	930.872	743.605
171.008	25.185	930.580	742.064
172.023	25.528	929.107	742.239
173.037	25.568	929.141	742.369
174.052	25.598	927.413	741.046
175.067	25.434	926.964	739.944
176.081	25.181	925.971	738.044
177.096	25.197	924.820	737.127
178.110	25.386	923.942	737.139
179.125	25.441	922.781	736.373
180.140	25.233	921.983	734.821
181.154	24.818	921.871	732.966
182.169	25.204	921.609	734.273
183.183	25.573	920.637	734.943
184.198	25.702	920.571	735.353
185.213	25.419	920.157	733.802
186.227	25.316	919.272	732.608
187.242	25.231	919.395	732.294
188.256	25.968	917.295	733.558
189.271	25.515	917.265	731.624
190.286	25.834	917.584	733.114
191.300	25.502	916.993	731.227
192.315	25.074	914.637	727.546
193.329	24.423	913.543	723.973
194.344	24.199	912.829	722.432
195.359	24.705	913.524	724.972
196.373	25.143	913.097	726.344
197.388	25.278	912.847	726.626
198.402	25.468	912.217	726.828
199.417	25.427	911.588	726.099
200.432	25.676	912.063	727.418
201.446	25.325	910.619	724.788
202.461	25.461	910.315	725.029
203.475	25.507	909.723	724.678
204.490	25.089	908.814	722.205
205.504	24.385	906.420	717.411
206.519	24.569	906.805	718.391
207.534	25.387	906.276	721.196
208.548	25.366	905.475	720.412
209.563	25.421	905.381	720.493
210.577	25.378	904.046	719.195
211.592	25.435	903.466	718.897
212.607	25.511	902.817	718.619
213.621	25.291	903.102	717.903
214.636	25.651	902.340	718.671
215.650	25.748	901.912	718.656
216.665	26.063	899.582	717.989
217.680	25.663	900.145	716.783
218.694	25.999	899.917	717.875
219.709	25.610	899.266	715.744
220.723	24.970	899.544	713.353
221.738	25.291	898.165	713.473
222.753	25.479	896.629	712.935
223.767	25.461	896.593	712.772
224.782	25.630	896.206	713.071
225.796	25.633	895.787	712.688
226.811	25.935	895.273	713.411
227.826	25.800	893.851	711.683
228.840	25.086	891.605	707.016
229.855	24.953	891.938	706.691
230.869	24.800	892.326	706.331
231.884	25.371	890.743	707.267
232.899	25.082	890.268	705.691
233.913	25.582	890.095	707.456
234.928	25.386	889.728	706.332
235.942	25.427	889.020	705.870
236.957	25.185	888.133	704.154
237.972	24.975	887.966	703.131
238.986	25.015	886.434	702.013
240.001	25.152	886.132	702.250
241.015	24.979	886.343	701.678
242.030	25.214	884.801	701.314
243.045	25.327	884.564	701.505
244.059	25.291	883.950	700.816
245.074	25.555	883.841	701.696
246.088	25.927	881.978	701.605
247.103	25.479	882.266	700.027
248.117	25.638	881.604	700.059
249.132	25.770	881.597	700.502
250.147	26.276	881.391	702.246
251.161	26.337	880.552	701.752
252.176	26.345	880.570	701.734
253.190	26.815	878.720	702.019
254.205	26.406	879.062	700.647
255.220	26.846	878.443	701.793
256.234	26.239	878.586	699.497
257.249	26.154	877.808	698.486
258.263	26.196	876.909	697.872
259.278	26.464	876.098	698.197
260.293	26.146	875.665	696.566
261.307	26.522	874.516	697.037
262.322	26.336	874.467	696.222
263.336	26.266	874.433	695.861
264.351	25.971	873.679	694.067
265.366	25.577	871.646	690.877
266.380	25.316	871.197	689.457
267.395	25.967	870.473	691.319
268.409	26.449	870.640	693.240
269.424	26.092	869.687	691.050
270.439	26.262	869.849	691.771
271.453	26.172	868.865	690.582
272.468	26.497	868.276	691.296
273.482	26.188	867.703	689.599
274.497	26.248	867.122	689.303
275.512	26.346	866.634	689.229
276.526	25.554	865.696	685.404
277.541	25.773	865.580	686.086
278.555	25.896	865.520	686.448
279.570	26.130	864.545	686.504
280.585	26.286	863.191	685.959
281.599	26.122	863.941	685.872
282.614	26.305	863.724	686.334
283.628	25.710	861.779	682.471
284.643	25.637	861.047	681.556
285.657	25.634	860.738	681.238
286.672	25.672	860.788	681.360
287.687	25.652	859.453	680.169
288.701	25.969	859.580	681.408
289.716	26.016	858.965	681.037
290.730	25.987	857.741	679.896
291.745	26.092	856.604	679.330
292.760	25.814	856.363	678.035
293.774	25.864	855.787	677.707
294.789	26.381	856.125	679.857
295.803	26.702	857.251	681.901
296.818	26.390	856.133	679.779
297.833	26.885	853.925	679.820
298.847	26.050	854.396	677.001
299.862	26.476	853.052	677.472
300.876	25.938	853.801	675.990
301.891	26.397	852.372	676.518
302.906	26.745	851.079	676.732
303.920	26.911	850.197	676.588
304.935	26.541	850.616	675.483
305.949	26.763	848.793	674.803
306.964	27.003	848.812	675.650
307.979	26.320	848.337	672.671
308.993	26.334	847.690	672.151
310.008	26.561	848.234	673.366
311.022	26.193	847.832	671.621
312.037	26.970	846.232	673.178
313.052	26.461	846.084	671.110
314.066	26.263	845.027	669.479
315.081	25.780	844.940	667.563
316.095	25.412	843.533	665.031
317.110	25.959	843.784	667.192
318.125	26.493	843.194	668.639
319.139	26.108	841.769	666.032
320.154	25.492	840.711	662.863
321.168	25.175	840.274	661.291
322.183	25.225	840.485	661.585
323.197	25.509	840.881	662.885
324.212	25.716	840.787	663.515
325.227	25.970	839.193	663.133
326.241	26.182	838.819	663.559
327.256	25.725	839.145	662.077
328.270	26.011	837.262	661.582
329.285	25.893	836.669	660.623
330.300	25.533	836.607	659.193
331.314	25.682	835.730	658.993
332.329	25.841	834.777	658.764
333.343	26.048	834.766	659.453
334.358	26.345	834.672	660.404
335.373	26.127	833.506	658.627
336.387	25.992	832.895	657.598
337.402	26.431	833.541	659.651
338.416	26.675	832.529	659.679
339.431	26.969	830.691	659.232
340.446	26.840	831.345	659.222
341.460	26.808	831.215	658.945
342.475	26.908	830.818	658.936
343.489	26.886	830.063	658.200
344.504	26.763	829.661	657.376
345.519	26.477	829.323	656.012
346.533	26.916	828.777	657.115
347.548	26.845	828.811	656.824
348.562	27.206	827.650	657.152
349.577	26.968	826.082	654.990
350.592	26.675	826.802	654.445
351.606	26.791	826.101	654.251
352.621	26.802	825.271	653.574
353.635	26.630	823.909	651.818
354.650	26.582	824.103	651.741
355.665	26.459	823.592	650.837
356.679	26.373	822.154	649.335
357.694	25.681	822.809	647.307
358.708	26.600	822.031	649.940
359.723	26.156	821.509	647.875
360.738	26.309	821.165	648.096
361.752	26.432	820.746	648.147
362.767	26.328	820.157	647.252
363.781	26.605	820.304	648.304
364.796	26.733	819.563	648.120
365.810	26.928	819.546	648.743
366.825	26.514	818.877	646.680
367.840	26.621	819.190	647.250
368.854	26.604	818.243	646.385
369.869	27.013	817.088	646.872
370.883	26.496	817.214	645.073
371.898	26.487	816.239	644.215
372.913	26.658	816.075	644.638
373.927	26.592	815.861	644.174
374.942	26.822	813.675	643.207
375.956	26.688	813.993	642.927
376.971	26.877	813.473	643.130
377.986	26.861	812.363	642.137
379.000	26.920	812.075	642.062
380.015	26.790	812.094	641.563
381.029	26.693	811.095	640.372
382.044	26.618	810.491	639.575
383.059	27.013	809.648	640.247
384.073	26.574	810.073	638.975
385.088	26.806	808.870	638.788
386.102	26.674	808.372	637.875
387.117	26.243	807.948	635.966
388.132	26.366	807.055	635.639
389.146	26.263	806.479	634.766
390.161	26.298	805.099	633.748
391.175	26.621	805.425	635.081
392.190	27.099	805.604	636.841
393.205	27.456	805.221	637.734
394.219	26.369	803.764	632.720
395.234	25.527	802.697	628.882
396.248	24.996	801.209	625.803
397.263	25.674	801.913	628.669
398.278	26.287	801.799	630.664
399.292	26.441	801.511	630.921
400.307	26.239	800.559	629.411
401.321	25.971	800.517	628.386
402.336	26.407	799.331	628.918
403.350	26.041	800.473	628.485
404.365	26.397	800.710	629.857
405.380	26.851	799.703	630.587
406.394	26.835	799.510	630.322
407.409	27.308	799.344	631.781
408.423	27.192	798.127	630.362
409.438	27.569	797.905	631.434
410.453	27.404	797.106	630.176
411.467	27.174	797.174	629.378
412.482	27.057	796.491	628.380
413.496	26.933	796.007	627.512
414.511	27.387	794.454	627.798
415.526	27.091	794.851	627.037
416.540	26.956	794.887	626.544
417.555	26.747	793.847	624.948
418.569	27.266	793.497	626.403
419.584	27.031	793.094	625.222
420.599	27.315	791.763	625.092
421.613	159.899	1369.778	1792.888
422.628	138.485	1454.058	1792.907
