DTS Sentinel unit serial number:	SN413079Multiplexer serial number:	ORYXHardware model number:	OX4-SRSoftware version number:	ORYX F/W v4.00 Oryx Data Collector v3.7.2.0data status	okinstallation	princeton_trtdifferential loss correction	single-endedforward channel	channel 3reverse channel	N/Adate	2019/09/12time	02:30:11forward acquisition time	60.00reverse acquisition time	0.00gamma	496.2192k internal	0.2321k external	0.2321temperature offset calibration	1.0066default loss term (dB/km)	0.3790temperature slope calibration	1.0000multiplexer offset coefficient	1.0000multiplexer slope coefficient	1.0000fibre end	0.00T internal ref (°C)	32.48T ext. ref 1 (°C)	2.09T ext. ref 2 (°C)	27.17length (m)	temperature (°C)	Stokes	anti-Stokes-747.200	-176.517	0.018	-0.000
-746.185	31.577	0.144	0.125
-745.171	113.316	-0.093	0.114
-744.156	-200.000	-0.063	0.377
-743.142	-148.491	0.025	-0.002
-742.127	659.481	0.055	0.144
-741.112	-54.261	0.267	0.122
-740.098	-200.000	0.021	0.304
-739.083	400.675	0.057	-0.120
-738.069	-24.939	0.258	0.154
-737.054	-44.869	0.060	0.030
-736.039	-127.595	-0.280	0.041
-735.025	-15.131	0.082	-0.053
-734.010	-133.058	0.162	0.021
-732.996	-94.726	-0.453	-0.124
-731.981	-200.000	-0.049	0.491
-730.966	800.000	-0.021	0.085
-729.952	800.000	0.041	-0.166
-728.937	488.726	0.056	-0.129
-727.923	800.000	0.086	0.337
-726.908	800.000	-0.036	0.122
-725.894	-200.000	-0.020	-0.247
-724.879	-200.000	0.002	0.117
-723.864	454.759	-0.066	-0.147
-722.850	47.717	-0.161	0.152
-721.835	-38.568	0.088	0.047
-720.821	161.899	0.084	-0.119
-719.806	-200.000	0.014	0.162
-718.791	312.548	0.066	-0.125
-717.777	-23.007	-0.386	0.235
-716.762	391.570	-0.151	-0.317
-715.748	800.000	-0.030	-0.084
-714.733	-115.018	-0.161	0.031
-713.718	-200.000	-0.020	-0.134
-712.704	185.405	-0.072	0.108
-711.689	-84.274	-0.227	0.073
-710.675	-200.000	-0.023	0.309
-709.660	-200.000	0.004	-0.027
-708.645	-200.000	-0.042	-0.205
-707.631	275.566	0.116	-0.207
-706.616	756.640	-0.064	0.175
-705.602	399.002	-0.253	-0.535
-704.587	138.486	0.086	0.113
-703.572	302.693	0.076	0.143
-702.558	13.962	-0.207	-0.163
-701.543	42.852	-0.232	0.213
-700.529	-60.305	0.055	0.024
-699.514	800.000	-0.034	-0.114
-698.499	-54.732	-0.036	0.017
-697.485	800.000	-0.084	0.312
-696.470	-14.400	0.112	-0.072
-695.456	-21.901	-0.090	-0.055
-694.441	800.000	-0.113	-0.449
-693.426	67.690	0.321	0.331
-692.412	-94.782	-0.182	0.050
-691.397	45.027	-0.205	0.190
-690.383	-143.436	-0.352	0.034
-689.368	-111.071	-0.261	-0.054
-688.354	-200.000	-0.053	-0.259
-687.339	6.873	-0.098	0.074
-686.324	-74.355	0.262	-0.095
-685.310	-177.004	0.143	-0.004
-684.295	-171.054	-0.313	-0.011
-683.281	-200.000	0.004	-0.174
-682.266	31.889	0.313	-0.272
-681.251	-108.086	-0.394	0.086
-680.237	104.158	-0.161	0.191
-679.222	-200.000	0.035	-0.171
-678.208	-192.737	-0.212	-0.002
-677.193	182.346	0.123	-0.182
-676.178	800.000	0.051	-0.146
-675.164	-163.318	0.358	-0.017
-674.149	13.604	0.329	-0.258
-673.135	-200.000	0.003	0.274
-672.120	53.478	0.190	0.184
-671.105	-4.414	0.063	0.044
-670.091	-154.818	-0.122	0.008
-669.076	-200.000	0.003	0.027
-668.062	-103.046	0.380	-0.091
-667.047	331.490	0.126	0.244
-666.032	81.601	-0.130	-0.142
-665.018	-200.000	-0.001	0.045
-664.003	-150.231	-0.588	0.046
-662.989	800.000	-0.062	-0.246
-661.974	-200.000	-0.016	0.112
-660.959	-161.405	0.335	0.017
-659.945	-200.000	0.022	-0.298
-658.930	-200.000	-0.030	0.178
-657.916	127.945	0.047	-0.061
-656.901	86.731	-0.072	0.080
-655.886	-24.747	0.068	0.041
-654.872	11.359	-0.175	-0.135
-653.857	-170.937	-0.150	0.005
-652.843	800.000	-0.073	-0.293
-651.828	-176.124	0.287	-0.008
-650.814	78.219	-0.063	-0.068
-649.799	-147.856	0.083	0.007
-648.784	-48.424	0.170	-0.082
-647.770	-100.614	-0.148	-0.037
-646.755	-54.926	0.183	-0.083
-645.741	-107.078	0.244	0.054
-644.726	1.656	-0.601	-0.436
-643.711	226.289	-0.134	0.219
-642.697	615.158	-0.094	-0.236
-641.682	800.000	-0.079	0.261
-640.668	-93.848	-0.145	-0.040
-639.653	-200.000	0.060	-0.311
-638.638	-112.683	-0.237	0.047
-637.624	-200.000	-0.109	0.493
-636.609	309.449	-0.085	-0.160
-635.595	-16.774	0.185	0.118
-634.580	-53.477	-0.337	-0.155
-633.565	-51.379	0.064	-0.030
-632.551	190.226	0.105	-0.159
-631.536	255.902	-0.190	-0.327
-630.522	-45.168	-0.273	-0.136
-629.507	-53.469	-0.222	-0.102
-628.492	-200.000	0.054	-0.325
-627.478	-106.750	0.046	-0.010
-626.463	43.376	0.084	0.077
-625.449	-200.000	-0.006	0.319
-624.434	800.000	0.009	-0.038
-623.419	-44.549	0.256	0.128
-622.405	800.000	0.085	0.282
-621.390	-133.381	-0.123	-0.016
-620.376	87.573	-0.109	0.121
-619.361	268.033	-0.010	0.018
-618.346	800.000	-0.066	0.270
-617.332	138.623	0.196	-0.259
-616.317	25.334	-0.144	0.121
-615.303	168.784	-0.284	-0.407
-614.288	-200.000	-0.002	0.131
-613.273	-61.274	-0.311	0.132
-612.259	52.320	0.043	0.041
-611.244	147.846	-0.284	-0.384
-610.230	-49.601	0.161	-0.077
-609.215	210.861	0.119	-0.188
-608.201	170.110	-0.139	-0.199
-607.186	-54.069	0.110	-0.050
-606.171	603.089	-0.186	-0.465
-605.157	-63.102	-0.311	-0.129
-604.142	-200.000	-0.025	-0.281
-603.128	-98.417	0.309	-0.080
-602.113	27.991	-0.174	-0.148
-601.098	-11.380	-0.164	0.109
-600.084	-76.779	0.291	-0.102
-599.069	800.000	0.100	-0.323
-598.055	215.516	0.106	0.170
-597.040	-200.000	0.007	0.043
-596.025	335.274	0.134	0.261
-595.011	-200.000	0.008	0.196
-593.996	-86.492	-0.107	0.033
-592.982	-137.937	-0.329	0.037
-591.967	-96.809	0.245	-0.065
-590.952	800.000	0.031	-0.129
-589.938	411.559	-0.023	0.049
-588.923	-179.642	0.121	0.003
-587.909	457.967	0.018	-0.039
-586.894	390.067	-0.110	0.229
-585.879	-185.487	0.217	-0.003
-584.865	800.000	0.113	0.357
-583.850	49.242	0.199	-0.188
-582.836	-29.210	-0.190	0.109
-581.821	-28.902	0.313	0.181
-580.806	-142.898	0.481	-0.047
-579.792	-200.000	-0.025	0.174
-578.777	290.658	0.089	0.162
-577.763	-94.316	-0.304	0.084
-576.748	-200.000	0.008	0.089
-575.733	-102.212	-0.124	-0.030
-574.719	109.099	-0.066	0.079
-573.704	-88.298	-0.080	0.024
-572.690	426.683	-0.099	-0.214
-571.675	-158.966	-0.241	-0.014
-570.661	142.996	-0.214	0.286
-569.646	-53.820	-0.278	-0.127
-568.631	56.122	-0.122	-0.119
-567.617	26.977	0.190	0.160
-566.602	71.646	-0.090	-0.094
-565.588	-145.319	0.184	0.017
-564.573	800.000	-0.104	0.334
-563.558	206.131	0.072	0.113
-562.544	385.646	0.058	0.120
-561.529	76.443	0.122	-0.129
-560.515	800.000	0.105	-0.377
-559.500	102.576	-0.067	0.078
-558.485	-135.568	0.183	-0.022
-557.471	396.306	0.068	-0.143
-556.456	-105.931	-0.368	-0.083
-555.442	83.695	-0.213	0.233
-554.427	679.906	-0.170	0.444
-553.412	55.328	0.195	-0.189
-552.398	-43.550	-0.109	-0.055
-551.383	281.029	0.106	0.190
-550.369	131.121	0.092	0.118
-549.354	-96.936	0.157	0.041
-548.339	182.215	-0.146	-0.215
-547.325	239.014	0.037	0.062
-546.310	-200.000	-0.074	0.344
-545.296	-116.274	-0.177	0.033
-544.281	-125.137	-0.148	0.023
-543.266	-69.257	0.200	-0.077
-542.252	473.516	-0.023	-0.051
-541.237	-32.327	-0.140	0.078
-540.223	-200.000	-0.031	-0.342
-539.208	-142.055	0.143	-0.014
-538.193	-37.905	0.149	0.079
-537.179	-114.320	0.089	-0.017
-536.164	-80.845	0.241	-0.080
-535.150	-200.000	-0.043	-0.210
-534.135	-86.962	-0.159	0.049
-533.121	800.000	0.055	0.190
-532.106	565.491	0.079	-0.192
-531.091	-69.176	0.234	-0.090
-530.077	234.178	0.182	-0.301
-529.062	-93.306	0.152	-0.042
-528.048	800.000	0.097	0.408
-527.033	66.300	0.035	0.036
-526.018	139.966	0.231	-0.305
-525.004	-21.410	0.308	0.188
-523.989	161.279	-0.228	0.319
-522.975	18.992	0.287	-0.230
-521.960	7.275	-0.136	-0.102
-520.945	-52.840	-0.208	-0.096
-519.931	-151.433	0.218	-0.016
-518.916	-200.000	0.033	-0.471
-517.902	800.000	-0.058	-0.250
-516.887	-200.000	-0.037	-0.224
-515.872	540.952	0.103	-0.247
-514.858	-53.472	-0.252	-0.115
-513.843	-8.687	0.264	0.178
-512.829	-7.775	0.255	-0.173
-511.814	-92.564	-0.074	0.021
-510.799	326.513	0.158	0.303
-509.785	353.001	0.236	0.468
-508.770	51.293	-0.132	0.126
-507.756	190.336	0.065	0.097
-506.741	51.274	-0.084	-0.080
-505.726	-69.016	-0.369	-0.143
-504.712	-200.000	-0.003	0.263
-503.697	-56.513	-0.116	-0.052
-502.683	85.684	-0.289	-0.319
-501.668	164.727	0.062	-0.088
-500.653	-99.003	0.193	0.049
-499.639	-153.394	-0.406	-0.028
-498.624	800.000	-0.053	-0.166
-497.610	86.328	-0.122	-0.135
-496.595	93.508	-0.188	-0.213
-495.581	-200.000	-0.005	-0.151
-494.566	-95.320	-0.089	0.024
-493.551	-97.215	-0.154	-0.040
-492.537	104.704	-0.072	0.085
-491.522	670.821	0.042	0.109
-490.508	-200.000	-0.004	0.020
-489.493	47.645	0.062	0.058
-488.478	-200.000	0.013	-0.362
-487.464	388.347	-0.112	0.232
-486.449	371.276	-0.117	0.238
-485.435	-200.000	-0.036	0.234
-484.420	79.420	-0.257	0.275
-483.405	194.825	0.264	-0.401
-482.391	-80.451	-0.270	0.090
-481.376	60.876	0.131	0.130
-480.362	800.000	0.122	-0.373
-479.347	-200.000	-0.028	-0.327
-478.332	-200.000	0.066	-0.389
-477.318	69.723	-0.393	0.405
-476.303	-200.000	0.003	0.393
-475.289	-200.000	0.010	-0.071
-474.274	626.299	0.151	0.380
-473.259	-68.427	0.078	-0.030
-472.245	-60.965	0.046	0.020
-471.230	118.177	-0.029	-0.036
-470.216	-156.590	-0.279	0.017
-469.201	800.000	0.093	-0.295
-468.186	495.711	0.085	-0.196
-467.172	685.532	0.070	0.182
-466.157	12.162	-0.072	0.055
-465.143	-200.000	0.015	0.246
-464.128	-71.117	-0.207	0.078
-463.113	-200.000	0.030	-0.163
-462.099	-150.996	0.033	0.002
-461.084	133.292	-0.151	0.195
-460.070	37.707	-0.113	0.101
-459.055	-200.000	-0.013	0.338
-458.040	17.021	0.212	-0.168
-457.026	-200.000	-0.091	-0.528
-456.011	142.854	0.044	-0.059
-454.997	62.275	0.160	0.160
-453.982	-100.086	-0.381	0.095
-452.968	-37.887	0.207	0.110
-451.953	800.000	-0.092	-0.274
-450.938	-142.139	-0.232	-0.023
-449.924	800.000	0.057	-0.205
-448.909	-200.000	-0.049	-0.323
-447.895	80.354	0.132	-0.142
-446.880	4.287	-0.175	-0.128
-445.865	800.000	-0.017	0.063
-444.851	-200.000	0.004	-0.131
-443.836	-43.964	0.238	0.119
-442.822	-134.727	-0.288	-0.035
-441.807	-141.820	-0.140	-0.014
-440.792	62.841	-0.207	-0.207
-439.778	800.000	0.053	0.188
-438.763	-152.896	-0.112	-0.008
-437.749	-150.435	-0.086	0.007
-436.734	-66.583	0.504	-0.200
-435.719	-86.883	-0.316	-0.096
-434.705	247.337	-0.112	-0.189
-433.690	226.340	-0.075	0.122
-432.676	90.987	-0.136	-0.153
-431.661	-88.778	-0.199	0.059
-430.646	-200.000	0.009	0.062
-429.632	558.900	-0.068	0.165
-428.617	142.078	0.138	-0.182
-427.603	-26.899	0.223	-0.130
-426.588	-52.300	-0.207	0.096
-425.573	-68.207	-0.249	-0.097
-424.559	84.870	0.245	-0.268
-423.544	-52.674	0.115	0.053
-422.530	24.196	0.286	-0.235
-421.515	-144.497	0.171	-0.016
-420.500	140.922	0.144	0.190
-419.486	-200.000	0.040	0.230
-418.471	-200.000	-0.010	0.193
-417.457	166.242	-0.065	-0.092
-416.442	-127.199	-0.252	0.037
-415.428	257.557	-0.121	-0.208
-414.413	-106.983	-0.468	-0.103
-413.398	73.774	0.342	0.357
-412.384	214.246	0.175	0.276
-411.369	-200.000	-0.036	0.556
-410.355	-51.416	-0.149	-0.070
-409.340	349.261	0.156	-0.308
-408.325	-200.000	-0.006	0.050
-407.311	382.649	-0.107	0.219
-406.296	107.341	0.016	-0.018
-405.282	-142.257	-0.070	0.007
-404.267	800.000	0.030	-0.118
-403.252	68.754	0.196	0.201
-402.238	-155.924	-0.297	0.019
-401.223	800.000	0.107	0.366
-400.209	-146.473	-0.221	-0.019
-399.194	-94.287	0.281	-0.077
-398.179	-200.000	-0.020	0.175
-397.165	800.000	-0.068	-0.268
-396.150	-200.000	0.005	-0.164
-395.136	190.735	-0.056	-0.084
-394.121	-149.468	-0.065	0.005
-393.106	800.000	0.033	-0.126
-392.092	79.500	-0.067	0.072
-391.077	227.747	-0.072	0.116
-390.063	800.000	0.064	0.252
-389.048	50.665	0.254	0.239
-388.033	-112.008	0.155	0.031
-387.019	157.591	-0.071	0.098
-386.004	155.357	-0.020	0.027
-384.990	303.067	0.125	-0.231
-383.975	800.000	0.042	-0.148
-382.960	-63.725	0.114	0.047
-381.946	-47.580	-0.127	0.061
-380.931	-124.877	-0.214	-0.033
-379.917	-128.667	0.397	-0.056
-378.902	4.052	0.227	-0.165
-377.888	-163.013	0.296	-0.014
-376.873	196.800	0.110	-0.168
-375.858	12.632	-0.083	0.064
-374.844	-200.000	-0.001	-0.138
-373.829	-142.967	-0.497	-0.048
-372.815	24.595	0.142	0.117
-371.800	-200.000	-0.007	0.164
-370.785	-131.665	-0.055	0.007
-369.771	116.042	0.027	0.033
-368.756	64.060	-0.069	-0.069
-367.742	267.170	0.140	-0.243
-366.727	86.904	0.180	-0.198
-365.712	277.152	-0.073	-0.129
-364.698	-63.866	-0.084	0.034
-363.683	89.385	-0.067	0.074
-362.669	44.337	0.309	0.282
-361.654	507.966	0.033	0.075
-360.639	-126.967	-0.335	0.049
-359.625	107.674	0.131	-0.155
-358.610	98.319	-0.203	0.233
-357.596	386.643	-0.202	0.415
-356.581	800.000	-0.081	0.335
-355.566	-81.019	0.360	0.119
-354.552	-45.942	-0.301	0.148
-353.537	253.757	0.022	-0.037
-352.523	800.000	-0.019	0.081
-351.508	451.676	-0.092	0.202
-350.493	-200.000	0.003	0.201
-349.479	-200.000	0.630	0.003
-348.464	-93.438	0.223	-0.062
-347.450	-1.420	0.476	0.334
-346.435	162.273	-0.132	0.185
-345.420	48.211	-0.015	-0.014
-344.406	-138.030	-0.158	0.017
-343.391	760.452	0.034	-0.091
-342.377	-200.000	0.056	-0.348
-341.362	-58.250	0.304	0.132
-340.348	-85.216	-0.303	-0.094
-339.333	-200.000	0.013	0.269
-338.318	66.422	0.123	-0.124
-337.304	-53.831	-0.310	-0.141
-336.289	-35.611	-0.102	0.055
-335.275	-109.592	-0.121	-0.025
-334.260	-83.638	0.102	-0.033
-333.245	-200.000	0.019	-0.121
-332.231	-24.243	-0.136	-0.081
-331.216	-126.562	0.219	0.032
-330.202	9.896	0.048	0.036
-329.187	58.071	0.170	0.166
-328.172	-73.394	-0.405	-0.147
-327.158	-18.537	0.201	-0.125
-326.143	-135.838	0.150	-0.018
-325.129	30.183	-0.350	0.297
-324.114	135.115	-0.079	0.102
-323.099	-24.931	0.140	0.083
-322.085	-200.000	0.028	0.211
-321.070	-7.951	0.051	0.034
-320.056	487.897	-0.151	-0.342
-319.041	72.712	0.093	-0.097
-318.026	-79.201	0.307	-0.104
-317.012	230.244	0.142	0.230
-315.997	-89.419	0.208	-0.061
-314.983	-111.313	-0.211	0.043
-313.968	-107.547	0.079	0.017
-312.953	87.638	0.068	0.075
-311.939	54.052	-0.147	0.140
-310.924	23.722	-0.187	0.153
-309.910	138.195	-0.203	0.264
-308.895	-200.000	0.065	-0.328
-307.880	343.586	-0.025	-0.048
-306.866	-37.731	-0.242	-0.128
-305.851	-133.563	0.081	0.010
-304.837	227.754	0.132	-0.213
-303.822	128.320	0.311	0.394
-302.807	659.525	0.076	0.195
-301.793	-200.000	0.005	0.372
-300.778	-181.873	0.127	-0.002
-299.764	102.874	-0.177	-0.205
-298.749	800.000	-0.021	0.071
-297.735	-20.209	-0.359	-0.220
-296.720	-33.819	-0.072	-0.040
-295.705	201.999	0.088	0.134
-294.691	-9.050	-0.242	-0.161
-293.676	-87.544	-0.191	-0.057
-292.662	61.121	0.115	0.114
-291.647	213.512	0.308	-0.483
-290.632	-3.470	0.094	-0.065
-289.618	800.000	0.138	0.423
-288.603	20.624	-0.371	-0.298
-287.589	-200.000	0.032	-0.164
-286.574	44.465	-0.107	0.097
-285.559	61.435	-0.057	0.056
-284.545	295.417	-0.067	-0.121
-283.530	239.400	-0.123	0.202
-282.516	800.000	0.042	-0.145
-281.501	-37.034	0.365	0.194
-280.486	-68.176	-0.114	-0.044
-279.472	-90.304	-0.086	0.025
-278.457	-46.969	-0.164	0.079
-277.443	63.765	0.039	0.038
-276.428	-67.613	-0.092	0.036
-275.413	507.254	-0.093	-0.214
-274.399	172.034	0.100	0.143
-273.384	196.200	-0.108	-0.164
-272.370	24.594	0.089	0.073
-271.355	800.000	-0.057	0.217
-270.340	-98.225	-0.046	0.012
-269.326	317.390	0.074	-0.138
-268.311	-27.498	-0.178	-0.103
-267.297	148.543	-0.102	0.137
-266.282	-200.000	-0.011	0.280
-265.267	-151.944	0.113	-0.008
-264.253	131.025	-0.187	-0.238
-263.238	256.767	0.156	0.266
-262.224	41.708	-0.167	-0.150
-261.209	-200.000	0.012	0.318
-260.195	-200.000	-0.011	-0.271
-259.180	192.878	-0.156	-0.234
-258.165	310.618	-0.129	-0.240
-257.151	-200.000	-0.008	0.066
-256.136	800.000	-0.021	0.070
-255.122	-54.054	0.343	-0.155
-254.107	-99.204	0.255	-0.064
-253.092	-98.396	0.181	-0.046
-252.078	74.224	0.431	0.448
-251.063	18.682	-0.189	0.150
-250.049	-160.039	0.135	-0.007
-249.034	800.000	-0.098	-0.397
-248.019	-200.000	0.043	0.235
-247.005	-134.460	0.159	0.019
-245.990	-124.404	-0.310	0.048
-244.976	-48.420	0.357	0.170
-243.961	-102.022	0.275	0.066
-242.946	161.664	-0.036	0.051
-241.932	-77.343	0.311	0.107
-240.917	196.141	0.054	0.082
-239.903	-200.000	0.017	-0.182
-238.888	169.686	0.051	0.072
-237.873	144.384	-0.166	-0.220
-236.859	-73.782	0.234	0.084
-235.844	800.000	0.038	-0.152
-234.830	162.849	-0.023	-0.032
-233.815	-125.217	-0.042	0.006
-232.800	20.616	-0.034	0.027
-231.786	271.079	0.032	-0.056
-230.771	-103.825	-0.139	-0.032
-229.757	159.460	0.010	-0.013
-228.742	205.099	0.087	0.133
-227.727	-200.000	0.035	-0.246
-226.713	452.426	-0.071	-0.156
-225.698	409.993	-0.145	0.304
-224.684	-200.000	0.018	0.151
-223.669	-200.000	-0.029	0.233
-222.655	70.159	0.193	0.198
-221.640	-88.631	0.436	0.128
-220.625	22.180	-0.176	-0.142
-219.611	1.592	-0.213	0.152
-218.596	7.268	0.140	0.104
-217.582	137.990	-0.128	0.166
-216.567	-2.004	-0.158	-0.110
-215.552	-200.000	-0.001	0.255
-214.538	13.112	-0.143	0.109
-213.523	-67.604	0.055	-0.021
-212.509	9.320	-0.297	-0.222
-211.494	-107.983	0.347	-0.075
-210.479	730.377	0.041	-0.109
-209.465	127.668	-0.238	-0.299
-208.450	16.174	-0.043	0.033
-207.436	-68.915	0.417	0.159
-206.421	60.025	0.067	-0.066
-205.406	141.501	0.088	-0.116
-204.392	-21.691	0.181	0.109
-203.377	-200.000	-0.031	0.200
-202.363	109.525	0.170	-0.201
-201.348	-127.971	0.226	0.032
-200.333	-56.385	-0.209	-0.092
-199.319	650.190	0.057	-0.143
-198.304	-74.232	0.259	-0.093
-197.290	-28.334	0.285	-0.163
-196.275	-143.607	0.335	-0.032
-195.260	45.613	-0.070	0.064
-194.246	-56.429	-0.188	0.082
-193.231	47.840	0.062	0.057
-192.217	509.751	0.016	-0.036
-191.202	21.393	-0.410	0.330
-190.187	-64.323	0.234	-0.094
-189.173	94.081	-0.095	-0.106
-188.158	-41.185	0.097	-0.050
-187.144	203.344	0.127	-0.195
-186.129	-36.178	-0.389	0.207
-185.114	31.893	0.326	-0.277
-184.100	-94.399	-0.288	0.078
-183.085	-11.985	0.069	0.044
-182.071	-98.972	0.311	0.078
-181.056	-10.475	-0.563	0.369
-180.042	660.126	-0.070	0.177
-179.027	119.026	0.388	-0.474
-178.012	126.531	-0.096	-0.120
-176.998	94.571	0.158	-0.178
-175.983	-84.870	-0.215	0.067
-174.969	104.034	0.106	0.124
-173.954	-18.005	-0.139	-0.086
-172.939	800.000	-0.027	-0.113
-171.925	40.840	-0.141	-0.126
-170.910	-200.000	0.001	-0.167
-169.896	-200.000	0.036	-0.160
-168.881	6.348	0.191	0.140
-167.866	-23.117	0.287	-0.171
-166.852	552.144	0.081	-0.191
-165.837	16.308	-0.139	-0.108
-164.823	473.190	-0.047	-0.105
-163.808	21.975	0.291	-0.234
-162.793	-170.057	-0.206	0.007
-161.779	-130.064	-0.150	-0.020
-160.764	-200.000	0.018	0.277
-159.750	-200.000	-0.016	0.261
-158.735	-20.990	0.036	-0.022
-157.720	-44.948	0.305	0.150
-156.706	7.735	-0.175	-0.129
-155.691	-200.000	0.012	0.092
-154.677	-34.340	0.252	0.137
-153.662	-200.000	0.047	0.216
-152.647	-106.881	-0.064	0.014
-151.633	-200.000	-0.005	0.131
-150.618	-98.357	-0.108	0.027
-149.604	-1.092	-0.216	-0.151
-148.589	-200.000	-0.066	-0.397
-147.574	105.755	-0.286	0.334
-146.560	-200.000	0.042	-0.198
-145.545	-200.000	-0.018	-0.084
-144.531	233.559	-0.078	-0.127
-143.516	486.374	0.137	-0.309
-142.502	-200.000	0.102	-0.000
-141.487	-78.786	0.155	0.052
-140.472	-49.134	0.393	0.185
-139.458	-200.000	-0.006	0.334
-138.443	-45.565	-0.286	0.140
-137.429	301.926	-0.096	-0.176
-136.414	-200.000	0.027	-0.251
-135.399	-165.188	-0.188	-0.008
-134.385	800.000	-0.047	-0.177
-133.370	383.772	-0.224	-0.454
-132.356	-54.734	-0.086	0.038
-131.341	669.350	-0.140	0.358
-130.326	135.135	-0.108	0.139
-129.312	73.860	0.207	0.214
-128.297	-200.000	0.008	-0.329
-127.283	-6.973	-0.132	-0.088
-126.268	11.939	-0.171	-0.130
-125.253	258.087	0.112	-0.191
-124.239	215.652	0.206	-0.323
-123.224	86.703	-0.210	-0.228
-122.210	-123.275	0.117	-0.018
-121.195	530.233	-0.019	0.043
-120.180	193.629	0.087	-0.130
-119.166	-183.972	-0.131	0.002
-118.151	346.070	0.093	-0.180
-117.137	-200.000	-0.022	0.233
-116.122	-200.000	0.070	-0.321
-115.107	-178.402	-0.178	0.004
-114.093	231.561	-0.083	-0.135
-113.078	800.000	0.082	0.276
-112.064	384.150	0.099	0.201
-111.049	-86.939	0.370	-0.111
-110.034	-162.114	0.158	0.008
-109.020	739.386	-0.045	0.119
-108.005	260.610	0.040	0.068
-106.991	-200.000	0.015	0.271
-105.976	194.221	-0.074	0.110
-104.962	42.903	0.133	-0.120
-103.947	-200.000	-0.019	-0.119
-102.932	-57.763	-0.192	0.083
-101.918	-200.000	0.012	-0.188
-100.903	-50.639	0.228	-0.106
-99.889	-58.602	0.151	0.065
-98.874	-69.238	0.322	0.122
-97.859	5.533	0.239	0.174
-96.845	284.805	-0.079	0.140
-95.830	14.488	0.130	-0.100
-94.816	692.681	-0.074	0.191
-93.801	-18.248	0.221	-0.136
-92.786	4.265	0.161	-0.116
-91.772	123.406	-0.048	0.059
-90.757	162.153	-0.076	-0.105
-89.743	800.000	-0.029	-0.098
-88.728	800.000	0.092	-0.250
-87.713	485.774	-0.022	0.049
-86.699	18.222	0.148	0.116
-85.684	-200.000	0.024	0.146
-84.670	-107.724	0.089	0.019
-83.655	-200.000	-0.019	0.366
-82.640	488.748	-0.077	-0.174
-81.626	40.186	-0.399	-0.354
-80.611	156.413	0.072	-0.098
-79.597	800.000	0.047	0.139
-78.582	91.024	-0.146	0.162
-77.567	-72.891	0.144	0.052
-76.553	800.000	0.031	0.106
-75.538	-16.182	-0.125	-0.078
-74.524	-95.396	0.110	-0.029
-73.509	562.557	0.021	-0.050
-72.494	-69.898	0.036	-0.014
-71.480	-200.000	0.032	0.248
-70.465	4.686	-0.151	-0.109
-69.451	-131.249	-0.149	0.019
-68.436	3.409	0.215	0.154
-67.422	1.505	0.024	0.017
-66.407	-153.452	0.269	0.018
-65.392	-98.066	0.463	0.117
-64.378	-146.664	0.196	0.017
-63.363	-200.000	-0.002	-0.176
-62.349	362.645	0.068	0.134
-61.334	226.060	-0.641	-1.023
-60.319	255.195	0.485	0.817
-59.305	800.000	-0.280	-1.007
-58.290	150.854	0.841	1.125
-57.276	496.644	0.684	1.547
-56.261	-200.000	95.935	586.739
-55.246	565.371	1369.068	3265.341
-54.232	162.524	2541.289	3506.699
-53.217	112.056	2156.100	2562.652
-52.203	42.927	1703.920	1527.902
-51.188	35.609	1518.283	1311.661
-50.173	33.254	1491.331	1272.508
-49.159	51.947	1540.040	1442.258
-48.144	53.837	1557.756	1471.719
-47.130	35.811	1517.441	1312.105
-46.115	32.743	1502.821	1278.648
-45.100	32.569	1499.337	1274.455
-44.086	32.517	1497.870	1272.803
-43.071	32.462	1495.828	1270.648
-42.057	32.486	1494.086	1269.276
-41.042	32.526	1492.723	1268.340
-40.027	32.517	1491.323	1267.036
-39.013	32.416	1489.823	1265.033
-37.998	32.462	1488.756	1264.386
-36.984	32.436	1487.775	1263.332
-35.969	32.484	1485.795	1261.920
-34.954	32.467	1484.683	1260.810
-33.940	32.442	1483.689	1259.753
-32.925	32.510	1481.614	1258.390
-31.911	32.603	1480.481	1258.001
-30.896	32.567	1479.252	1256.670
-29.881	32.575	1478.045	1255.648
-28.867	32.622	1476.196	1254.335
-27.852	32.518	1475.081	1252.652
-26.838	32.550	1473.610	1251.565
-25.823	32.533	1472.204	1250.210
-24.809	32.494	1470.566	1248.509
-23.794	32.532	1468.679	1247.110
-22.779	32.540	1467.454	1246.071
-21.765	32.584	1466.323	1245.354
-20.750	32.579	1465.531	1244.594
-19.736	32.469	1464.749	1243.154
-18.721	32.457	1463.811	1242.233
-17.706	32.541	1462.299	1241.453
-16.692	32.432	1461.222	1239.774
-15.677	32.456	1460.380	1239.168
-14.663	32.514	1459.327	1238.603
-13.648	32.429	1458.332	1237.153
-12.633	32.388	1457.748	1236.341
-11.619	32.488	1456.752	1236.102
-10.604	32.434	1455.846	1234.926
-9.590	32.438	1455.115	1234.290
-8.575	32.352	1454.049	1232.767
-7.560	32.443	1453.244	1232.636
-6.546	32.494	1452.264	1232.089
-5.531	32.459	1451.513	1231.171
-4.517	32.425	1450.360	1229.923
-3.502	32.423	1449.592	1229.212
-2.487	32.411	1448.226	1227.927
-1.473	32.421	1447.177	1227.055
-0.458	32.452	1445.836	1226.070
0.556	32.966	1436.092	1214.922
1.571	30.079	1411.466	1175.694
2.586	26.930	1357.974	1111.782
3.600	25.362	1280.653	1039.320
4.615	23.815	1231.786	990.955
5.629	20.273	1174.546	925.953
6.644	10.906	1087.153	810.500
7.659	3.271	1046.135	743.117
8.673	2.270	1040.596	734.310
9.688	2.011	1037.237	730.634
10.702	1.980	1035.406	729.130
11.717	2.079	1033.242	728.015
12.731	5.591	1037.818	747.975
13.746	15.535	1051.707	805.845
14.761	23.001	1061.463	849.266
15.775	25.035	1063.392	860.514
16.790	25.285	1063.122	861.418
17.804	25.178	1062.513	860.337
18.819	25.098	1061.272	858.872
19.834	25.129	1060.861	858.610
20.848	25.269	1060.451	858.876
21.863	25.379	1060.501	859.365
22.877	25.350	1059.700	858.499
23.892	25.409	1058.550	857.777
24.907	25.231	1058.310	856.655
25.921	25.208	1057.589	855.885
26.936	25.183	1056.967	855.186
27.950	25.317	1055.379	854.466
28.965	25.304	1054.384	853.522
29.980	24.955	1053.414	851.005
30.994	25.087	1052.233	850.598
32.009	25.303	1050.953	850.512
33.023	25.449	1050.273	850.579
34.038	25.197	1049.412	848.615
35.053	25.111	1048.790	847.631
36.067	25.334	1048.082	848.037
37.082	25.279	1047.339	847.102
38.096	25.329	1046.220	846.356
39.111	25.484	1045.754	846.637
40.126	25.582	1044.890	846.320
41.140	25.575	1043.354	844.968
42.155	25.232	1041.958	842.156
43.169	24.873	1041.133	839.732
44.184	24.858	1040.271	838.887
45.199	25.067	1038.744	838.561
46.213	24.886	1037.827	836.902
47.228	24.896	1037.464	836.580
48.242	25.087	1036.567	836.674
49.257	25.161	1035.851	836.368
50.271	25.353	1034.688	836.249
51.286	25.330	1034.672	836.057
52.301	25.462	1033.700	835.810
53.315	25.279	1033.297	834.559
54.330	25.288	1032.028	833.504
55.344	25.168	1031.544	832.481
56.359	25.205	1030.810	831.988
57.374	25.252	1029.279	830.897
58.388	25.187	1028.342	829.764
59.403	24.945	1027.740	828.088
60.417	24.822	1027.792	827.486
61.432	24.860	1026.419	826.484
62.447	24.976	1025.587	826.274
63.461	25.141	1025.027	826.512
64.476	25.162	1024.719	826.289
65.490	24.892	1024.058	824.440
66.505	24.861	1022.352	822.848
67.520	24.981	1021.773	822.863
68.534	24.990	1021.038	822.236
69.549	24.847	1020.399	820.997
70.563	24.785	1018.449	819.068
71.578	24.509	1018.298	817.614
72.593	24.449	1017.500	816.623
73.607	24.400	1016.212	815.295
74.622	24.343	1015.583	814.458
75.636	24.612	1015.133	815.252
76.651	24.915	1014.468	816.026
77.666	24.724	1013.376	814.207
78.680	24.644	1012.508	813.075
79.695	24.608	1012.240	812.625
80.709	24.759	1011.534	812.671
81.724	24.900	1010.766	812.622
82.739	24.878	1009.771	811.649
83.753	24.723	1009.027	810.277
84.768	25.184	1008.404	811.793
85.782	25.504	1007.760	812.651
86.797	25.675	1007.075	812.798
87.812	25.589	1006.206	811.635
88.826	25.388	1005.147	809.803
89.841	25.470	1004.052	809.221
90.855	25.557	1003.719	809.273
91.870	25.549	1003.108	808.671
92.884	25.536	1001.881	807.551
93.899	25.408	1001.064	806.249
94.914	25.386	1000.091	805.295
95.928	25.496	999.253	805.039
96.943	25.406	998.836	804.228
97.957	25.183	997.533	802.113
98.972	25.006	996.527	800.443
99.987	24.814	995.189	798.441
101.001	24.847	994.594	798.040
102.016	25.158	994.147	798.994
103.030	25.176	993.323	798.341
104.045	25.221	992.226	797.592
105.060	25.150	990.602	795.899
106.074	24.783	990.084	793.786
107.089	24.898	989.320	793.612
108.103	25.073	989.310	794.310
109.118	25.449	987.763	794.661
110.133	25.050	986.969	792.187
111.147	24.863	985.935	790.461
112.162	24.825	984.706	789.237
113.176	24.636	983.839	787.639
114.191	24.704	983.387	787.508
115.206	24.974	982.280	787.741
116.220	24.671	981.039	785.346
117.235	24.515	979.791	783.590
118.249	24.636	979.355	783.706
119.264	24.709	978.520	783.287
120.279	24.532	977.619	781.721
121.293	24.582	977.326	781.635
122.308	24.663	976.347	781.141
123.322	24.660	975.397	780.296
124.337	24.557	974.499	779.061
125.352	24.720	972.462	778.074
126.366	24.165	971.614	774.913
127.381	23.801	969.895	771.891
128.395	24.352	970.074	774.358
129.410	25.056	969.931	777.231
130.424	25.200	969.090	777.113
131.439	25.195	968.111	776.237
132.454	25.131	967.137	775.108
133.468	25.239	966.298	774.835
134.483	24.955	965.864	773.192
135.497	25.082	965.085	773.049
136.512	25.381	964.458	773.767
137.527	25.334	963.782	772.953
138.541	25.364	963.034	772.414
139.556	25.417	962.341	772.019
140.570	25.534	961.002	771.376
141.585	25.497	960.791	770.980
142.600	25.380	960.287	770.007
143.614	25.338	958.868	768.621
144.629	25.512	958.556	769.046
145.643	25.694	957.814	769.161
146.658	25.714	956.661	768.254
147.673	25.419	955.406	765.918
148.687	25.375	954.427	764.880
149.702	25.105	953.625	763.020
150.716	25.176	952.240	762.147
151.731	25.019	951.009	760.429
152.746	25.231	950.326	760.714
153.760	25.366	950.156	761.080
154.775	25.462	950.092	761.370
155.789	25.614	948.907	760.996
156.804	25.593	947.465	759.682
157.819	25.499	946.920	758.783
158.833	25.539	945.896	758.065
159.848	25.731	945.310	758.337
160.862	25.640	944.617	757.331
161.877	25.515	943.491	755.833
162.892	25.533	942.880	755.354
163.906	25.717	941.509	754.959
164.921	25.492	941.103	753.623
165.935	25.531	939.952	752.801
166.950	25.593	938.876	752.132
167.964	25.548	938.179	751.318
168.979	25.497	937.100	750.175
169.994	25.459	936.023	749.087
171.008	25.280	935.386	747.764
172.023	25.484	934.540	747.871
173.037	25.633	933.885	747.900
174.052	25.429	932.882	746.183
175.067	25.254	932.286	744.915
176.081	25.257	930.669	743.570
177.096	25.286	930.035	743.120
178.110	25.402	929.811	743.355
179.125	25.188	928.485	741.341
180.140	24.869	927.236	738.962
181.154	24.884	926.680	738.518
182.169	25.001	926.140	738.504
183.183	25.245	926.316	739.585
184.198	25.569	925.788	740.431
185.213	25.409	924.843	738.951
186.227	25.403	924.336	738.458
187.242	25.502	923.904	738.453
188.256	25.513	923.102	737.792
189.271	25.649	922.164	737.535
190.286	25.547	921.832	736.785
191.300	25.556	920.655	735.818
192.315	24.915	919.400	732.129
193.329	24.123	917.968	727.688
194.344	23.797	916.814	725.380
195.359	24.575	916.879	728.540
196.373	25.083	917.718	731.214
197.388	25.589	917.058	732.688
198.402	25.451	916.632	731.718
199.417	25.410	916.180	731.129
200.432	25.553	915.215	730.873
201.446	25.375	914.607	729.600
202.461	24.963	914.158	727.504
203.475	25.236	913.119	727.719
204.490	24.592	912.039	724.188
205.504	23.653	909.757	718.511
206.519	23.898	910.007	719.638
207.534	25.006	910.082	724.113
208.548	25.023	909.592	723.728
209.563	25.449	909.233	725.099
210.577	25.447	908.554	724.483
211.592	25.091	907.649	722.266
212.607	25.470	907.769	723.824
213.621	25.572	906.973	723.534
214.636	25.600	906.339	723.078
215.650	25.580	905.868	722.557
216.665	25.531	905.057	721.648
217.680	25.608	904.698	721.608
218.694	25.651	904.551	721.601
219.709	25.328	903.404	719.326
220.723	25.066	902.048	717.136
221.738	25.142	902.131	717.445
222.753	25.388	901.502	717.862
223.767	25.343	900.897	717.139
224.782	25.490	899.856	716.830
225.796	25.765	899.582	717.645
226.811	25.644	899.291	716.867
227.826	25.288	897.983	714.345
228.840	24.490	896.085	709.602
229.855	24.501	895.618	709.213
230.869	24.810	895.215	710.057
231.884	24.321	894.012	707.105
232.899	24.496	894.014	707.735
233.913	25.172	894.437	710.686
234.928	25.327	893.730	710.676
235.942	25.276	893.138	709.941
236.957	25.347	892.306	709.496
237.972	25.130	890.791	707.375
238.986	24.833	890.774	706.125
240.001	25.139	890.194	706.810
241.015	25.126	889.544	706.182
242.030	25.096	889.208	705.735
243.045	25.217	889.001	705.982
244.059	25.328	888.209	705.730
245.074	25.579	887.498	706.087
246.088	25.663	886.307	705.407
247.103	25.205	885.757	703.111
248.117	25.068	885.967	702.677
249.132	25.592	885.841	704.567
250.147	25.961	885.251	705.482
251.161	26.160	884.610	705.686
252.176	26.380	884.304	706.239
253.190	26.256	883.757	705.257
254.205	26.451	883.005	705.354
255.220	26.503	883.071	705.548
256.234	26.462	882.280	704.694
257.249	26.512	881.287	704.033
258.263	26.182	881.028	702.478
259.278	26.296	880.249	702.238
260.293	26.229	880.159	701.845
261.307	26.376	879.667	701.961
262.322	26.334	878.519	700.819
263.336	26.171	878.234	699.898
264.351	25.606	876.809	696.516
265.366	24.713	874.220	690.948
266.380	24.269	873.535	688.628
267.395	25.190	873.851	692.375
268.409	25.967	873.957	695.393
269.424	25.883	873.751	694.847
270.439	25.989	873.212	694.764
271.453	26.035	872.736	694.502
272.468	26.218	871.872	694.455
273.482	26.266	871.509	694.290
274.497	26.414	871.204	694.552
275.512	26.198	870.045	692.741
276.526	25.657	868.929	689.719
277.541	25.875	868.491	690.143
278.555	26.332	868.395	691.757
279.570	25.935	867.734	689.648
280.585	25.815	867.168	688.680
281.599	25.754	866.405	687.781
282.614	25.951	866.038	688.180
283.628	25.490	864.945	685.490
284.643	25.287	864.155	684.032
285.657	25.838	863.371	685.446
286.672	25.597	863.203	684.337
287.687	25.067	862.058	681.354
288.701	25.286	862.217	682.253
289.716	25.727	862.025	683.714
290.730	25.509	860.777	681.839
291.745	25.427	859.979	680.836
292.760	25.212	859.118	679.278
293.774	25.193	858.753	678.857
294.789	26.083	859.470	682.735
295.803	26.615	859.486	684.700
296.818	26.668	858.911	684.379
297.833	26.727	858.525	684.236
298.847	26.482	857.113	682.126
299.862	26.180	856.370	680.337
300.876	26.165	855.916	679.861
301.891	26.596	855.926	681.427
302.906	26.655	855.047	680.892
303.920	26.310	853.890	678.615
304.935	26.192	853.532	677.826
305.949	26.575	853.165	678.910
306.964	26.661	852.815	678.896
307.979	26.391	852.061	677.223
308.993	26.418	851.397	676.736
310.008	26.652	851.395	677.551
311.022	26.900	850.860	677.994
312.037	26.583	850.316	676.316
313.052	26.373	849.724	675.000
314.066	26.271	848.780	673.812
315.081	25.605	847.629	670.356
316.095	24.916	846.028	666.466
317.110	25.463	846.320	668.675
318.125	26.312	846.518	671.930
319.139	25.868	845.553	669.455
320.154	24.690	843.799	663.638
321.168	24.294	842.459	661.056
322.183	24.975	842.805	663.793
323.197	25.798	843.434	667.280
324.212	26.353	842.958	668.901
325.227	26.253	843.276	668.723
326.241	26.542	842.444	669.073
327.256	26.375	841.880	667.950
328.270	26.321	841.071	667.048
329.285	25.989	840.847	665.586
330.300	25.974	839.837	664.674
331.314	25.639	838.921	662.655
332.329	26.051	838.156	663.509
333.343	26.440	838.071	664.813
334.358	26.591	837.652	664.977
335.373	26.559	837.360	664.567
336.387	26.626	836.656	664.196
337.402	26.765	836.281	664.348
338.416	26.979	835.931	664.795
339.431	27.162	835.151	664.785
340.446	27.024	834.983	664.087
341.460	27.176	834.558	664.247
342.475	27.079	833.800	663.231
343.489	26.951	833.142	662.180
344.504	26.875	832.350	661.215
345.519	27.395	832.036	662.802
346.533	27.492	831.682	662.814
347.548	27.501	831.554	662.687
348.562	27.435	830.961	661.915
349.577	27.328	830.746	661.296
350.592	27.239	830.045	660.358
351.606	27.118	829.763	659.635
352.621	27.438	828.906	660.055
353.635	27.255	828.278	658.834
354.650	27.114	827.846	657.923
355.665	26.795	826.870	655.934
356.679	25.823	824.948	650.841
357.694	25.574	824.940	649.877
358.708	26.221	824.938	652.155
359.723	26.309	824.206	651.836
360.738	26.590	823.752	652.434
361.752	26.967	823.713	653.705
362.767	26.941	823.536	653.413
363.781	27.293	823.081	654.257
364.796	27.694	823.256	655.782
365.810	27.604	822.666	654.932
366.825	27.760	822.378	655.204
367.840	27.837	822.242	655.312
368.854	27.525	821.390	653.457
369.869	27.279	820.576	651.871
370.883	26.956	820.319	650.451
371.898	27.143	819.501	650.414
372.913	27.098	818.591	649.473
373.927	27.073	818.055	648.903
374.942	27.177	817.468	648.749
375.956	27.244	817.222	648.735
376.971	27.356	816.242	648.302
377.986	27.690	815.706	649.006
379.000	27.755	815.268	648.829
380.015	27.691	815.424	648.669
381.029	27.408	814.574	646.933
382.044	27.482	813.920	646.619
383.059	27.630	813.134	646.459
384.073	27.735	812.497	646.268
385.088	27.664	812.432	645.907
386.102	27.722	811.884	645.619
387.117	27.510	811.025	644.131
388.132	27.457	810.335	643.340
389.146	27.220	809.926	642.119
390.161	26.648	809.059	639.357
391.175	26.854	808.251	639.387
392.190	27.224	808.703	640.994
393.205	27.368	808.250	641.086
394.219	26.244	806.598	635.765
395.234	24.712	803.960	628.250
396.248	23.979	802.763	624.690
397.263	24.962	803.915	628.983
398.278	26.885	805.364	636.818
399.292	27.283	805.253	638.072
400.307	26.938	804.413	636.141
401.321	26.838	804.166	635.540
402.336	27.051	803.647	635.819
403.350	27.201	803.407	636.096
404.365	27.721	803.814	638.181
405.380	28.211	803.248	639.390
406.394	28.354	803.066	639.686
407.409	28.554	802.786	640.103
408.423	28.480	802.060	639.212
409.438	28.359	802.051	638.726
410.453	28.393	801.407	638.274
411.467	28.281	801.419	637.838
412.482	28.317	800.464	637.145
413.496	28.301	800.083	636.731
414.511	28.339	799.723	636.521
415.526	28.295	799.088	635.806
416.540	28.411	798.646	635.802
417.555	28.357	798.253	635.243
418.569	28.047	797.455	633.478
419.584	27.990	797.012	632.872
420.599	28.177	796.315	632.911
421.613	111.467	1284.929	1458.729
422.628	96.080	1356.126	1458.837
