DTS Sentinel unit serial number:	SN413079Multiplexer serial number:	ORYXHardware model number:	OX4-SRSoftware version number:	ORYX F/W v4.00 Oryx Data Collector v3.7.2.0data status	okinstallation	princeton_trtdifferential loss correction	single-endedforward channel	channel 3reverse channel	N/Adate	2019/09/12time	19:09:04forward acquisition time	15.00reverse acquisition time	0.00gamma	496.2192k internal	0.2320k external	0.2320temperature offset calibration	1.0096default loss term (dB/km)	0.3790temperature slope calibration	1.0000multiplexer offset coefficient	1.0000multiplexer slope coefficient	1.0000fibre end	0.00T internal ref (°C)	32.62T ext. ref 1 (°C)	3.17T ext. ref 2 (°C)	27.21length (m)	temperature (°C)	Stokes	anti-Stokes-747.200	116.288	0.190	0.235
-746.185	-23.968	-0.924	0.559
-745.171	800.000	0.158	-0.454
-744.156	10.787	0.528	-0.408
-743.142	-58.409	0.473	-0.208
-742.127	535.510	-0.077	-0.184
-741.112	51.250	-0.279	0.268
-740.098	363.076	-0.306	-0.621
-739.083	-19.972	-0.814	0.508
-738.069	19.285	0.421	-0.342
-737.054	-157.464	0.404	0.025
-736.039	-192.358	-0.847	-0.008
-735.025	73.926	0.123	-0.131
-734.010	-200.000	0.120	-0.633
-732.996	51.659	0.607	-0.583
-731.981	332.375	-0.161	0.313
-730.966	-39.888	-0.349	-0.184
-729.952	154.958	-0.341	0.474
-728.937	55.687	-0.736	-0.720
-727.923	-16.042	0.425	0.273
-726.908	-83.841	0.423	0.136
-725.894	-200.000	0.055	-0.814
-724.879	-129.111	0.246	-0.035
-723.864	29.089	-0.329	-0.282
-722.850	-107.046	0.129	0.029
-721.835	-111.366	-0.406	0.084
-720.821	92.404	-0.099	0.113
-719.806	-138.747	-0.670	-0.074
-718.791	-4.213	0.091	-0.064
-717.777	436.154	-0.152	-0.335
-716.762	134.175	-0.542	0.709
-715.748	238.521	-0.405	0.679
-714.733	59.314	-0.572	0.569
-713.718	145.514	-0.269	0.364
-712.704	-200.000	-0.038	0.284
-711.689	-75.688	0.638	-0.229
-710.675	800.000	-0.261	-0.986
-709.660	651.632	-0.073	0.188
-708.645	-60.849	-1.117	-0.478
-707.631	-36.243	-0.214	0.117
-706.616	-22.248	-0.574	0.352
-705.602	7.571	0.483	0.365
-704.587	-111.018	0.364	-0.075
-703.572	-131.645	0.991	0.132
-702.558	-49.646	0.799	0.384
-701.543	-94.093	0.487	-0.135
-700.529	-21.836	0.253	0.155
-699.514	284.381	-0.497	0.903
-698.499	-34.628	-0.288	-0.159
-697.485	-150.748	-0.287	0.022
-696.470	26.820	0.179	0.152
-695.456	-200.000	-0.070	0.654
-694.441	-33.914	0.385	0.214
-693.426	800.000	0.106	-0.388
-692.412	-61.801	-0.387	-0.164
-691.397	-140.653	0.809	0.085
-690.383	-200.000	-0.007	-0.105
-689.368	-13.195	0.929	-0.609
-688.354	-59.174	-0.452	-0.197
-687.339	-200.000	0.132	-0.860
-686.324	800.000	0.273	-1.153
-685.310	266.213	0.148	-0.260
-684.295	-85.223	-0.469	0.148
-683.281	485.761	-0.286	-0.657
-682.266	83.877	0.226	-0.249
-681.251	-19.375	0.314	-0.197
-680.237	-106.502	0.447	0.101
-679.222	-98.189	-0.563	0.146
-678.208	-47.930	-0.738	-0.360
-677.193	800.000	-0.056	0.157
-676.178	-200.000	0.021	0.220
-675.164	-115.768	-1.383	-0.261
-674.149	-16.896	0.795	0.507
-673.135	-200.000	-0.055	0.513
-672.120	-200.000	0.057	-0.432
-671.105	78.286	-0.283	-0.305
-670.091	-200.000	0.141	0.823
-669.076	-84.734	-0.336	-0.107
-668.062	33.653	0.464	-0.407
-667.047	800.000	-0.065	0.248
-666.032	107.188	-0.461	0.553
-665.018	-51.651	0.385	-0.181
-664.003	-88.950	-1.036	0.310
-662.989	466.990	0.115	0.259
-661.974	-200.000	-0.038	0.318
-660.959	-200.000	-0.180	0.918
-659.945	-28.923	-0.461	-0.267
-658.930	800.000	-0.143	-0.495
-657.916	-200.000	-0.022	-1.558
-656.901	-200.000	-0.037	1.080
-655.886	-69.083	0.513	-0.199
-654.872	-97.610	0.401	-0.105
-653.857	98.256	-0.355	-0.412
-652.843	-126.043	-0.435	0.066
-651.828	-200.000	0.090	-0.663
-650.814	-77.544	-0.213	-0.075
-649.799	78.797	0.557	0.600
-648.784	-38.644	0.193	0.103
-647.770	542.781	-0.290	0.696
-646.755	19.991	-0.766	-0.622
-645.741	-200.000	-0.004	-0.310
-644.726	-200.000	-0.047	-0.552
-643.711	800.000	0.308	-0.930
-642.697	154.571	-0.295	0.408
-641.682	310.938	-0.185	-0.349
-640.668	-94.684	0.679	-0.186
-639.653	-188.878	-0.387	0.005
-638.638	623.419	-0.423	-1.074
-637.624	536.772	0.098	-0.234
-636.609	800.000	0.330	1.100
-635.595	-121.510	-0.761	0.127
-634.580	-55.557	-0.735	0.332
-633.565	-135.988	-0.391	-0.046
-632.551	-135.896	0.792	-0.094
-631.536	99.926	0.573	-0.669
-630.522	62.198	-0.200	-0.201
-629.507	-110.131	0.829	0.174
-628.492	57.782	-0.315	-0.311
-627.478	-87.367	-0.282	0.086
-626.463	-140.202	0.895	-0.094
-625.449	-200.000	0.086	0.704
-624.434	36.327	0.342	-0.304
-623.419	83.885	-0.483	-0.531
-622.405	-103.863	0.619	-0.146
-621.390	-135.089	0.768	0.093
-620.376	-19.562	0.407	-0.254
-619.361	-37.352	-0.241	-0.130
-618.346	606.487	0.033	-0.082
-617.332	79.914	-0.549	-0.593
-616.317	137.008	0.651	0.856
-615.303	-68.324	0.714	0.279
-614.288	509.849	0.164	0.383
-613.273	167.533	0.199	0.285
-612.259	-200.000	0.002	-0.175
-611.244	-120.246	0.777	0.133
-610.230	-45.403	0.673	-0.336
-609.215	800.000	0.149	-0.608
-608.201	800.000	0.350	1.169
-607.186	94.828	-0.275	-0.314
-606.171	390.408	0.224	0.467
-605.157	-49.545	0.314	-0.150
-604.142	-200.000	0.091	0.408
-603.128	-200.000	0.033	0.674
-602.113	387.233	0.277	0.576
-601.098	-67.655	-0.173	0.068
-600.084	-118.543	-0.202	-0.036
-599.069	-15.112	0.578	0.372
-598.055	32.031	0.680	0.590
-597.040	800.000	0.128	0.389
-596.025	179.080	0.073	-0.107
-595.011	42.878	-0.361	-0.331
-593.996	-177.176	0.932	0.023
-592.982	-71.113	-0.356	-0.134
-591.967	204.246	0.343	-0.534
-590.952	-27.674	-0.469	-0.274
-589.938	-85.230	-0.424	-0.133
-588.923	800.000	-0.180	0.534
-587.909	-70.654	0.376	0.143
-586.894	414.369	-0.146	0.313
-585.879	79.055	-0.359	-0.386
-584.865	0.731	-0.155	0.111
-583.850	310.736	-0.100	0.189
-582.836	48.264	0.699	-0.658
-581.821	-200.000	-0.071	-0.487
-580.806	13.193	-0.261	-0.203
-579.792	-200.000	-0.007	0.053
-578.777	42.944	-0.805	-0.737
-577.763	-12.600	-0.336	-0.220
-576.748	-200.000	-0.073	0.384
-575.733	-7.262	0.707	-0.481
-574.719	9.969	0.388	-0.296
-573.704	98.731	0.299	0.347
-572.690	-43.598	0.930	-0.471
-571.675	800.000	-0.059	0.253
-570.661	182.173	-0.402	-0.596
-569.646	215.141	-0.209	-0.333
-568.631	-33.504	-0.337	0.187
-567.617	-200.000	0.006	-0.174
-566.602	-51.544	-0.223	0.105
-565.588	-132.492	0.319	-0.041
-564.573	103.542	-0.132	-0.155
-563.558	105.046	-0.263	-0.312
-562.544	101.167	0.807	-0.944
-561.529	2.708	0.630	-0.459
-560.515	57.748	-0.600	-0.589
-559.500	800.000	-0.037	0.105
-558.485	232.180	-0.249	-0.411
-557.471	-200.000	-0.172	-0.818
-556.456	195.956	-0.044	0.067
-555.442	194.508	-0.370	0.562
-554.427	-200.000	0.084	-0.632
-553.412	-91.829	0.933	-0.266
-552.398	135.160	0.165	0.216
-551.383	-119.400	0.765	-0.133
-550.369	162.063	0.426	-0.599
-549.354	60.281	-0.176	0.175
-548.339	534.925	-0.174	0.414
-547.325	-174.544	0.566	-0.016
-546.310	-200.000	-0.064	-0.467
-545.296	522.322	-0.196	-0.463
-544.281	-200.000	-0.170	-0.788
-543.266	-36.455	-1.109	-0.599
-542.252	186.957	-0.508	0.760
-541.237	108.302	-0.390	0.467
-540.223	5.104	0.442	0.327
-539.208	-77.450	-0.482	0.168
-538.193	-200.000	-0.036	0.845
-537.179	27.186	-0.615	0.518
-536.164	65.843	-0.574	-0.583
-535.150	-91.073	-0.191	-0.055
-534.135	-131.736	-0.779	0.102
-533.121	-200.000	-0.160	0.780
-532.106	118.384	0.640	-0.792
-531.091	-121.119	0.531	0.089
-530.077	-129.867	0.847	0.117
-529.062	262.137	-0.228	-0.397
-528.048	-67.499	0.577	0.227
-527.033	-81.942	-0.122	0.040
-526.018	21.491	0.355	0.289
-525.004	800.000	-0.184	-0.586
-523.989	431.664	0.573	1.245
-522.975	-200.000	-0.058	0.900
-521.960	147.565	0.185	0.249
-520.945	165.992	0.423	-0.600
-519.931	-116.459	1.061	0.196
-518.916	-200.000	-0.019	0.204
-517.902	-86.750	-0.483	-0.148
-516.887	15.488	-0.656	-0.516
-515.872	99.072	-0.496	-0.574
-514.858	-108.396	0.252	-0.054
-513.843	52.789	-0.399	-0.382
-512.829	-159.825	-1.177	-0.065
-511.814	81.684	0.424	0.460
-510.799	-77.583	0.726	0.252
-509.785	-156.287	-0.242	0.015
-508.770	590.793	-0.465	1.150
-507.756	-38.868	0.411	0.217
-506.741	25.263	-0.485	-0.404
-505.726	224.506	0.205	-0.332
-504.712	-147.286	-0.476	0.041
-503.697	800.000	0.047	-0.183
-502.683	47.190	-0.514	0.480
-501.668	66.673	-0.284	-0.289
-500.653	-96.569	-0.595	-0.157
-499.639	-77.303	0.592	0.206
-498.624	289.428	0.157	0.285
-497.610	-142.725	0.356	-0.035
-496.595	-154.064	-0.719	0.049
-495.581	-141.453	-0.661	-0.067
-494.566	41.021	-0.882	0.798
-493.551	30.755	0.445	-0.382
-492.537	631.191	0.307	0.778
-491.522	81.732	-0.218	-0.236
-490.508	800.000	-0.205	0.775
-489.493	-160.885	0.619	-0.033
-488.478	-164.941	0.262	0.012
-487.464	211.260	0.220	-0.347
-486.449	191.732	0.630	-0.950
-485.435	-200.000	0.050	0.503
-484.420	-132.579	0.290	0.037
-483.405	634.409	-0.135	-0.344
-482.391	-130.723	-0.381	-0.051
-481.376	-70.412	0.373	0.142
-480.362	171.322	-0.180	0.258
-479.347	8.507	-0.720	0.542
-478.332	-21.464	-0.636	0.389
-477.318	-56.519	0.219	0.097
-476.303	36.477	-0.327	0.289
-475.289	150.117	-0.114	-0.155
-474.274	110.870	-0.254	-0.306
-473.259	-84.138	-0.116	-0.037
-472.245	-2.105	0.561	-0.394
-471.230	31.466	-0.725	0.624
-470.216	800.000	-0.151	0.479
-469.201	38.836	0.466	-0.417
-468.186	30.613	-0.397	-0.340
-467.172	-14.030	-0.124	-0.080
-466.157	-93.590	0.397	0.110
-465.143	-82.126	0.884	0.288
-464.128	91.583	-0.483	0.543
-463.113	-43.703	0.196	-0.099
-462.099	278.587	-0.102	-0.182
-461.084	14.341	0.543	0.424
-460.070	-66.375	0.721	0.287
-459.055	-200.000	-0.086	-0.934
-458.040	-112.940	0.323	-0.064
-457.026	177.753	-0.363	0.530
-456.011	-34.189	-0.182	0.100
-454.997	86.189	0.381	-0.419
-453.982	83.804	-0.414	0.452
-452.968	-75.954	-0.325	0.115
-451.953	800.000	-0.210	0.580
-450.938	22.261	1.051	0.858
-449.924	-57.358	-0.687	-0.302
-448.909	46.039	0.314	0.291
-447.895	-48.792	-0.356	0.171
-446.880	-48.001	-0.137	-0.066
-445.865	-200.000	0.021	1.244
-444.851	410.687	-0.208	0.442
-443.836	-107.561	0.445	-0.097
-442.822	72.012	0.267	0.277
-441.807	32.507	-0.556	-0.480
-440.792	-126.872	-0.386	0.057
-439.778	50.464	0.743	-0.702
-438.763	-124.763	-1.047	-0.162
-437.749	-29.521	0.692	-0.395
-436.734	38.565	0.250	-0.223
-435.719	-200.000	0.070	-0.344
-434.705	350.815	-0.367	-0.726
-433.690	800.000	0.115	-0.442
-432.676	-200.000	0.084	0.517
-431.661	800.000	0.266	0.853
-430.646	800.000	0.053	0.168
-429.632	-120.063	-0.463	-0.079
-428.617	800.000	-0.169	0.683
-427.603	-45.833	-0.797	-0.393
-426.588	161.421	-0.240	0.336
-425.573	-62.670	0.966	0.400
-424.559	10.906	-0.350	-0.267
-423.544	673.907	0.199	-0.517
-422.530	-78.565	0.405	-0.138
-421.515	-200.000	0.102	-0.501
-420.500	-102.407	1.280	0.306
-419.486	-39.847	0.248	-0.129
-418.471	326.428	-0.206	-0.393
-417.457	463.988	-0.314	0.700
-416.442	-200.000	0.002	-0.460
-415.428	-200.000	-0.059	0.408
-414.413	-200.000	0.001	0.045
-413.398	40.835	0.179	0.161
-412.384	42.254	-0.534	0.485
-411.369	-62.796	0.591	-0.244
-410.355	-200.000	0.033	-0.482
-409.340	-115.673	-0.471	-0.088
-408.325	800.000	-0.183	0.563
-407.311	16.999	0.619	-0.490
-406.296	800.000	0.103	-0.374
-405.282	-200.000	-0.200	-1.042
-404.267	-200.000	-0.041	0.582
-403.252	89.330	-0.357	0.397
-402.238	43.660	0.674	-0.615
-401.223	-200.000	0.103	0.816
-400.209	-27.928	0.408	-0.236
-399.194	130.703	-0.378	-0.483
-398.179	-28.330	0.105	-0.060
-397.165	-33.046	0.468	-0.259
-396.150	-39.982	-0.624	-0.325
-395.136	6.798	0.386	0.286
-394.121	-157.072	0.473	0.029
-393.106	326.767	-0.346	-0.662
-392.092	-200.000	0.006	0.850
-391.077	-71.137	0.175	0.066
-390.063	415.706	0.114	0.241
-389.048	35.273	0.288	-0.252
-388.033	800.000	-0.274	0.961
-387.019	-105.594	-0.876	0.198
-386.004	15.505	-0.638	-0.500
-384.990	-200.000	-0.132	-0.593
-383.975	-97.397	-0.168	-0.044
-382.960	-4.683	-0.273	0.188
-381.946	-145.163	-0.522	0.047
-380.931	130.051	-0.319	0.406
-379.917	31.846	0.303	0.260
-378.902	-200.000	-0.049	0.426
-377.888	-200.000	0.128	-0.594
-376.873	-62.507	-0.375	0.155
-375.858	800.000	-0.153	-0.635
-374.844	570.333	0.055	0.134
-373.829	800.000	-0.013	0.055
-372.815	-200.000	-0.004	0.443
-371.800	384.752	0.253	0.520
-370.785	-70.411	0.721	-0.272
-369.771	122.363	0.336	-0.418
-368.756	-70.280	-0.666	0.252
-367.742	-200.000	0.057	-0.275
-366.727	-200.000	0.013	0.272
-365.712	-112.806	-0.868	0.172
-364.698	-58.262	0.431	-0.187
-363.683	-200.000	-0.046	1.265
-362.669	72.967	0.101	0.105
-361.654	-48.937	-0.725	-0.346
-360.639	-166.553	0.847	0.035
-359.625	-200.000	-0.014	-0.060
-358.610	-107.732	-0.815	-0.177
-357.596	-0.358	0.291	0.206
-356.581	-164.561	0.228	-0.010
-355.566	-136.662	1.308	0.150
-354.552	-200.000	-0.080	0.373
-353.537	-58.853	-0.518	-0.223
-352.523	-200.000	-0.130	0.857
-351.508	81.603	-0.106	-0.115
-350.493	-12.608	1.242	-0.807
-349.479	-30.681	0.304	0.172
-348.464	-54.560	-0.624	-0.281
-347.450	677.537	0.235	-0.609
-346.435	-156.464	-0.566	-0.035
-345.420	-146.768	0.520	0.045
-344.406	800.000	-0.254	0.736
-343.391	-200.000	0.042	0.482
-342.377	-78.322	0.353	-0.121
-341.362	-200.000	0.284	-0.000
-340.348	-32.966	0.181	0.100
-339.333	16.328	0.265	0.208
-338.318	-200.000	-0.123	0.931
-337.304	67.358	-0.519	0.527
-336.289	204.731	0.531	-0.820
-335.275	382.638	0.340	-0.697
-334.260	170.688	-0.554	-0.790
-333.245	-46.739	0.450	0.219
-332.231	-200.000	-0.051	-0.543
-331.216	17.882	0.134	0.107
-330.202	348.049	0.401	-0.787
-329.187	603.279	0.167	-0.412
-328.172	52.950	0.517	-0.493
-327.158	-77.759	1.026	0.353
-326.143	12.527	0.537	0.412
-325.129	181.021	-0.549	0.803
-324.114	35.024	0.324	0.283
-323.099	-200.000	-0.127	0.726
-322.085	-104.131	-0.687	0.159
-321.070	68.991	-0.581	0.593
-320.056	-35.117	0.241	-0.130
-319.041	-29.777	-0.242	-0.137
-318.026	-76.803	-0.531	0.185
-317.012	-90.396	0.174	0.050
-315.997	-45.565	0.245	0.121
-314.983	-138.097	-1.178	-0.130
-313.968	400.689	0.347	-0.725
-312.953	-200.000	0.016	-0.812
-311.939	-156.219	0.220	-0.014
-310.924	-72.639	0.376	0.138
-309.910	118.451	0.333	0.409
-308.895	-90.158	0.549	-0.159
-307.880	-105.379	0.316	0.072
-306.866	-200.000	0.125	0.782
-305.851	-200.000	-0.076	-0.458
-304.837	-200.000	-0.060	0.646
-303.822	201.386	-0.240	-0.368
-302.807	19.604	-0.656	-0.525
-301.793	484.159	0.058	0.130
-300.778	-167.996	-1.120	-0.044
-299.764	185.354	0.229	-0.338
-298.749	-99.762	0.523	-0.130
-297.735	452.390	-0.129	-0.282
-296.720	-149.279	-0.955	0.076
-295.705	-175.668	0.583	0.016
-294.691	-72.033	0.316	0.117
-293.676	-118.264	0.455	-0.080
-292.662	-180.791	-0.070	-0.001
-291.647	387.847	0.343	-0.704
-290.632	800.000	0.167	-0.540
-289.618	-63.937	-0.679	-0.276
-288.603	81.153	0.504	-0.541
-287.589	-200.000	0.198	0.880
-286.574	-200.000	-0.021	0.213
-285.559	800.000	0.376	-1.449
-284.545	86.239	-0.116	0.126
-283.530	775.710	-0.192	-0.521
-282.516	-57.790	-0.388	-0.169
-281.501	267.157	-0.176	-0.306
-280.486	232.417	-0.462	0.753
-279.472	29.189	0.592	0.499
-278.457	35.672	-0.452	0.394
-277.443	-46.948	0.487	-0.236
-276.428	-200.000	-0.239	-1.056
-275.413	800.000	-0.132	-0.423
-274.399	-79.497	0.567	-0.190
-273.384	-111.362	0.283	-0.057
-272.370	66.068	-0.417	-0.420
-271.355	-55.520	0.772	-0.343
-270.340	-36.820	-0.318	0.169
-269.326	-200.000	-0.913	-0.002
-268.311	800.000	0.191	0.578
-267.297	-64.973	-0.249	0.100
-266.282	-40.805	0.868	0.446
-265.267	40.763	0.553	0.495
-264.253	800.000	-0.224	-0.846
-263.238	-64.340	0.482	-0.195
-262.224	-114.269	0.280	-0.054
-261.209	-200.000	0.062	-0.359
-260.195	143.341	0.143	0.188
-259.180	800.000	0.223	-0.653
-258.165	115.288	-0.718	0.870
-257.151	-140.850	0.386	-0.039
-256.136	502.504	-0.079	0.182
-255.122	297.861	0.433	0.789
-254.107	173.376	-0.184	0.264
-253.092	-57.744	-1.295	0.562
-252.078	-33.993	0.534	0.291
-251.063	380.114	0.190	0.387
-250.049	-200.000	0.017	0.935
-249.034	800.000	-0.199	0.561
-248.019	-164.169	-0.487	-0.022
-247.005	-200.000	-0.097	-0.448
-245.990	-200.000	-0.075	-0.580
-244.976	155.509	-0.357	0.487
-243.961	2.691	-0.098	-0.070
-242.946	-200.000	0.090	-0.723
-241.932	600.325	0.134	-0.330
-240.917	313.492	-0.376	-0.701
-239.903	-49.496	0.506	0.239
-238.888	102.435	-0.165	-0.191
-237.873	-103.505	0.292	0.068
-236.859	306.565	-0.085	-0.156
-235.844	-135.519	-0.762	-0.090
-234.830	225.103	-0.264	0.424
-233.815	-95.154	-0.554	0.148
-232.800	-188.400	1.031	0.013
-231.786	-66.043	-0.642	0.254
-230.771	-19.151	0.193	0.119
-229.757	-200.000	0.042	0.396
-228.742	800.000	-0.223	-0.627
-227.727	-12.826	0.169	-0.109
-226.713	-200.000	-0.088	0.624
-225.698	800.000	-0.278	0.948
-224.684	-40.025	-0.316	0.163
-223.669	-130.296	0.328	-0.044
-222.655	-200.000	0.103	1.043
-221.640	-54.828	0.662	-0.296
-220.625	-200.000	-0.045	-0.482
-219.611	519.560	0.354	0.821
-218.596	-39.730	-0.395	-0.205
-217.582	35.207	-0.505	-0.439
-216.567	18.229	0.307	0.243
-215.552	-122.146	-0.353	-0.057
-214.538	14.933	0.331	0.257
-213.523	117.309	0.476	0.580
-212.509	507.134	-0.157	0.361
-211.494	-135.186	-0.347	-0.041
-210.479	-31.985	0.511	0.283
-209.465	-200.000	0.018	-0.400
-208.450	-93.275	-0.608	-0.167
-207.436	272.924	-0.189	-0.330
-206.421	-200.000	-0.728	-0.003
-205.406	-58.798	-0.602	0.258
-204.392	77.241	0.505	0.531
-203.377	-187.654	-0.986	0.013
-202.363	-69.323	0.166	0.063
-201.348	-65.375	-0.410	0.163
-200.333	800.000	-0.173	-0.567
-199.319	-107.573	0.423	0.092
-198.304	-156.822	-1.118	-0.068
-197.290	245.282	-0.135	-0.226
-196.275	-176.137	0.378	-0.010
-195.260	24.480	0.654	0.536
-194.246	192.789	0.204	0.305
-193.231	-168.354	-1.105	0.042
-192.217	-200.000	-0.030	-0.297
-191.202	-34.022	-0.698	-0.380
-190.187	-23.241	-0.457	-0.272
-189.173	58.006	-0.773	-0.749
-188.158	-200.000	-0.017	-0.363
-187.144	-49.835	0.298	0.140
-186.129	513.695	-0.359	0.827
-185.114	-35.628	-0.161	0.086
-184.100	-22.221	-0.610	-0.366
-183.085	-200.000	0.136	-0.631
-182.071	9.053	-0.677	0.506
-181.056	15.222	0.328	-0.255
-180.042	36.541	-0.937	-0.818
-179.027	-200.000	-0.128	-0.738
-178.012	26.914	0.150	0.124
-176.998	-39.315	0.308	-0.160
-175.983	105.332	-0.241	0.282
-174.969	144.684	-0.145	0.192
-173.954	-85.377	-0.334	-0.103
-172.939	-200.000	0.027	-0.792
-171.925	-200.000	-0.188	-0.865
-170.910	-9.031	0.388	-0.257
-169.896	-63.096	-1.084	0.443
-168.881	157.088	-0.571	-0.781
-167.866	-200.000	-0.014	0.986
-166.852	607.750	-0.259	0.638
-165.837	90.970	0.278	0.309
-164.823	-200.000	0.051	-0.541
-163.808	-58.395	-0.315	-0.135
-162.793	601.060	0.361	0.886
-161.779	800.000	-0.012	-0.034
-160.764	-106.189	0.861	-0.191
-159.750	479.178	0.283	-0.634
-158.735	-81.706	-0.271	-0.088
-157.720	11.923	0.647	-0.491
-156.706	-200.000	0.099	-0.661
-155.691	-200.000	0.020	0.982
-154.677	800.000	-0.194	0.618
-153.662	73.977	0.170	0.176
-152.647	-182.328	0.502	0.009
-151.633	98.853	0.190	-0.217
-150.618	-200.000	-0.009	-0.082
-149.604	-200.000	0.016	0.570
-148.589	-29.726	0.506	0.285
-147.574	800.000	-0.096	0.373
-146.560	-200.000	-0.027	0.358
-145.545	-33.264	-0.319	0.175
-144.531	156.178	-0.242	-0.329
-143.516	338.768	-0.615	1.184
-142.502	800.000	0.171	-0.707
-141.487	-200.000	0.078	0.560
-140.472	70.027	0.739	0.754
-139.458	-54.045	0.477	0.214
-138.443	379.017	-0.084	-0.170
-137.429	-12.769	0.446	0.287
-136.414	488.719	-0.510	-1.150
-135.399	-200.000	0.079	-0.452
-134.385	800.000	-0.034	0.108
-133.370	51.243	-0.358	0.335
-132.356	-28.490	0.473	0.269
-131.341	-11.361	0.173	0.112
-130.326	56.897	-0.416	0.400
-129.312	389.129	0.476	0.973
-128.297	-200.000	0.001	-0.030
-127.283	-164.342	1.074	0.049
-126.268	74.341	-0.209	-0.217
-125.253	800.000	0.138	-0.524
-124.239	-151.515	-0.537	0.039
-123.224	-200.000	0.070	-0.343
-122.210	-117.284	-0.182	0.033
-121.195	800.000	-0.054	-0.222
-120.180	-91.472	-0.203	-0.057
-119.166	-67.935	0.176	-0.068
-118.151	168.326	-0.781	-1.097
-117.137	-106.398	-0.550	-0.121
-116.122	-106.971	-0.105	-0.023
-115.107	-200.000	-0.036	0.457
-114.093	-72.093	-0.158	-0.058
-113.078	800.000	0.155	-0.529
-112.064	-48.800	-0.693	0.328
-111.049	-200.000	0.023	-0.922
-110.034	-5.272	0.672	-0.456
-109.020	800.000	-0.092	0.347
-108.005	-200.000	0.031	-0.234
-106.991	-166.221	0.185	-0.008
-105.976	270.026	-0.401	0.695
-104.962	-44.929	-0.177	0.087
-103.947	-117.697	-1.070	0.190
-102.932	-81.678	-0.238	0.077
-101.918	118.109	-0.290	-0.353
-100.903	652.043	0.176	0.446
-99.889	421.705	-0.208	0.440
-98.874	410.967	0.220	0.461
-97.859	-1.063	-0.162	0.113
-96.845	800.000	0.038	0.163
-95.830	420.469	0.454	-0.958
-94.816	93.656	0.198	0.221
-93.801	800.000	-0.140	-0.505
-92.786	331.440	0.093	-0.177
-91.772	800.000	-0.082	0.332
-90.757	-200.000	-0.063	0.583
-89.743	-95.303	-0.208	0.055
-88.728	-7.725	-0.352	-0.234
-87.713	-200.000	0.052	-0.899
-86.699	-99.281	-0.337	-0.084
-85.684	185.157	-0.349	-0.510
-84.670	4.985	-0.068	-0.050
-83.655	-32.034	-0.208	-0.115
-82.640	-173.439	0.504	-0.015
-81.626	248.868	-0.469	0.782
-80.611	359.954	0.484	-0.955
-79.597	-200.000	0.053	-0.592
-78.582	-200.000	-0.037	-0.392
-77.567	54.374	0.792	-0.751
-76.553	46.925	-0.532	-0.487
-75.538	-200.000	0.005	1.045
-74.524	93.492	-0.777	0.866
-73.509	43.584	-0.499	0.449
-72.494	-89.849	0.568	0.164
-71.480	674.109	-0.190	-0.486
-70.465	-93.070	0.802	0.220
-69.451	-20.588	0.280	0.170
-68.436	38.576	-0.179	-0.157
-67.422	-200.000	0.138	-0.724
-66.407	83.997	-0.332	-0.357
-65.392	-27.131	-0.409	-0.235
-64.378	-121.237	0.463	0.076
-63.363	163.240	0.270	-0.374
-62.349	-119.388	-0.543	0.093
-61.334	800.000	-0.380	-1.110
-60.319	412.636	0.351	0.734
-59.305	-21.502	0.939	-0.564
-58.290	46.500	1.294	1.182
-57.276	427.259	0.685	1.456
-56.261	-200.000	95.894	590.507
-55.246	675.562	1356.057	3466.816
-54.232	204.458	2515.759	3839.212
-53.217	118.604	2139.618	2600.201
-52.203	43.272	1693.487	1522.191
-51.188	35.925	1508.446	1306.201
-50.173	33.635	1482.259	1268.188
-49.159	53.881	1533.473	1450.129
-48.144	54.556	1550.958	1471.191
-47.130	36.077	1510.193	1308.540
-46.115	32.999	1495.729	1275.213
-45.100	32.787	1492.356	1270.859
-44.086	32.605	1491.907	1269.203
-43.071	32.349	1489.497	1265.379
-42.057	32.417	1488.722	1265.124
-41.042	32.832	1485.225	1264.885
-40.027	32.757	1484.095	1263.376
-39.013	32.816	1482.373	1262.253
-37.998	32.643	1481.446	1260.256
-36.984	32.631	1480.600	1259.407
-35.969	32.642	1478.945	1258.019
-34.954	32.490	1478.004	1256.158
-33.940	32.645	1476.229	1255.633
-32.925	32.555	1475.932	1254.732
-31.911	32.668	1473.203	1253.112
-30.896	32.961	1471.257	1253.354
-29.881	32.705	1470.087	1250.605
-28.867	32.698	1469.177	1249.737
-27.852	32.626	1467.659	1247.921
-26.838	32.857	1466.324	1248.263
-25.823	32.451	1466.315	1245.518
-24.809	32.829	1463.231	1245.346
-23.794	32.583	1461.497	1242.201
-22.779	32.707	1460.779	1242.358
-21.765	32.678	1459.711	1241.206
-20.750	32.711	1458.123	1240.022
-19.736	32.685	1457.505	1239.279
-18.721	32.505	1456.692	1237.353
-17.706	32.517	1456.382	1237.121
-16.692	32.411	1454.836	1235.062
-15.677	32.538	1453.583	1234.785
-14.663	32.636	1451.562	1233.659
-13.648	32.587	1451.686	1233.397
-12.633	32.474	1450.838	1231.887
-11.619	32.644	1449.529	1231.836
-10.604	32.540	1448.916	1230.591
-9.590	32.556	1448.249	1230.079
-8.575	32.909	1446.656	1230.977
-7.560	32.659	1445.963	1228.711
-6.546	32.515	1445.726	1227.520
-5.531	32.419	1444.922	1226.162
-4.517	32.669	1442.886	1226.015
-3.502	32.482	1442.260	1224.216
-2.487	32.624	1441.708	1224.626
-1.473	32.610	1440.198	1223.201
-0.458	32.632	1438.245	1221.638
0.556	33.614	1430.125	1211.327
1.571	30.415	1403.460	1168.547
2.586	26.956	1345.020	1098.889
3.600	25.000	1265.707	1022.842
4.615	23.500	1219.459	977.122
5.629	19.956	1162.220	912.533
6.644	11.012	1078.107	802.491
7.659	4.234	1036.501	739.227
8.673	3.696	1030.427	732.283
9.688	2.705	1029.148	726.615
10.702	2.835	1026.213	725.092
11.717	3.449	1022.586	725.352
12.731	6.241	1027.384	741.873
13.746	15.013	1040.412	792.952
14.761	22.893	1048.455	836.484
15.775	24.267	1050.823	844.815
16.790	24.478	1050.301	845.320
17.804	24.223	1048.199	842.348
18.819	23.769	1048.223	840.148
19.834	23.831	1047.655	839.912
20.848	23.959	1046.872	839.815
21.863	23.916	1046.478	839.219
22.877	23.731	1045.895	837.803
23.892	23.619	1045.330	836.750
24.907	23.702	1044.775	836.622
25.921	23.625	1043.451	835.127
26.936	23.707	1042.773	834.896
27.950	23.462	1041.961	833.023
28.965	23.717	1040.998	833.376
29.980	23.488	1039.906	831.355
30.994	23.339	1038.513	829.469
32.009	23.637	1036.969	829.556
33.023	23.715	1036.868	829.763
34.038	23.792	1036.003	829.358
35.053	23.726	1035.316	828.427
36.067	23.594	1034.360	826.973
37.082	23.400	1033.118	825.005
38.096	23.370	1033.000	824.700
39.111	23.613	1032.571	825.413
40.126	23.811	1032.170	825.938
41.140	23.678	1030.435	823.861
42.155	23.420	1029.662	821.975
43.169	23.239	1027.719	819.512
44.184	23.225	1026.893	818.714
45.199	22.980	1026.168	816.935
46.213	22.996	1024.899	815.925
47.228	23.114	1024.093	815.755
48.242	23.743	1023.172	817.847
49.257	23.678	1023.564	817.788
50.271	23.891	1021.944	817.402
51.286	24.178	1021.697	818.449
52.301	23.871	1020.990	816.402
53.315	23.935	1021.080	816.693
54.330	23.971	1019.437	815.472
55.344	23.744	1019.144	814.126
56.359	23.624	1017.481	812.176
57.374	23.517	1017.864	811.921
58.388	23.596	1016.521	811.140
59.403	23.387	1016.290	809.927
60.417	23.042	1016.191	808.200
61.432	23.199	1014.324	807.361
62.447	23.230	1014.202	807.334
63.461	23.507	1013.173	807.706
64.476	23.299	1012.220	805.926
65.490	23.239	1011.132	804.718
66.505	23.022	1009.776	802.580
67.520	22.939	1010.012	802.320
68.534	23.330	1008.400	802.742
69.549	23.364	1006.811	801.559
70.563	22.959	1006.820	799.664
71.578	22.945	1005.588	798.552
72.593	22.843	1004.676	797.293
73.607	22.712	1003.807	795.942
74.622	22.448	1003.755	794.642
75.636	22.879	1001.892	795.036
76.651	22.712	1000.675	793.248
77.666	22.741	1001.004	793.570
78.680	22.962	1000.245	793.894
79.695	22.651	1001.048	793.061
80.709	22.661	1000.125	792.302
81.724	22.939	998.466	792.166
82.739	23.261	996.903	792.297
83.753	23.543	995.819	792.628
84.768	23.271	996.714	792.053
85.782	23.937	996.529	794.812
86.797	24.047	995.892	794.723
87.812	23.989	994.971	793.660
88.826	24.069	994.276	793.391
89.841	23.801	993.597	791.588
90.855	23.726	993.280	790.929
91.870	23.868	992.616	790.963
92.884	23.638	992.103	789.462
93.899	23.870	990.908	789.473
94.914	23.954	989.335	788.523
95.928	23.968	988.625	787.949
96.943	24.076	987.647	787.576
97.957	23.756	986.012	784.788
98.972	23.462	986.107	783.497
99.987	23.639	984.706	783.095
101.001	23.936	984.373	784.068
102.016	23.790	984.238	783.250
103.030	23.864	983.039	782.551
104.045	23.572	982.594	780.846
105.060	23.882	981.039	780.899
106.074	23.965	980.432	780.711
107.089	23.811	979.118	778.924
108.103	23.589	978.710	777.555
109.118	23.620	976.390	775.781
110.133	23.392	976.361	774.691
111.147	22.965	974.703	771.446
112.162	22.982	973.539	770.529
113.176	22.793	973.207	769.373
114.191	22.910	972.929	769.596
115.206	22.863	972.560	769.029
116.220	23.077	970.684	768.408
117.235	22.936	969.211	766.563
118.249	23.036	968.300	766.209
119.264	23.052	967.464	765.547
120.279	22.565	967.763	763.609
121.293	22.560	966.785	762.748
122.308	22.591	965.601	761.881
123.322	22.503	964.694	760.718
124.337	22.313	963.990	759.274
125.352	22.546	961.954	758.607
126.366	22.436	961.069	757.371
127.381	22.486	960.526	757.087
128.395	22.782	960.006	757.882
129.410	23.227	959.448	759.286
130.424	23.164	958.645	758.312
131.439	23.123	957.251	756.968
132.454	23.274	957.043	757.380
133.468	23.414	955.577	756.750
134.483	23.484	954.563	756.181
135.497	23.273	955.128	755.660
136.512	23.195	954.379	754.667
137.527	23.404	953.949	755.151
138.541	23.814	951.425	754.830
139.556	23.496	952.810	754.509
140.570	23.571	951.598	753.799
141.585	23.616	951.917	754.179
142.600	24.034	949.696	754.124
143.614	23.905	949.339	753.228
144.629	24.179	948.781	753.876
145.643	24.320	948.079	753.849
146.658	24.382	947.098	753.265
147.673	23.786	945.568	749.469
148.687	23.680	944.554	748.150
149.702	23.656	943.979	747.529
150.716	23.293	943.374	745.457
151.731	23.238	942.581	744.531
152.746	23.212	942.334	744.162
153.760	23.813	940.598	745.245
154.775	23.861	940.777	745.522
155.789	24.001	939.556	745.074
156.804	23.903	938.680	743.903
157.819	23.794	936.969	742.026
158.833	23.848	937.319	742.466
159.848	23.799	936.738	741.736
160.862	24.354	935.978	743.380
161.877	23.864	934.772	740.318
162.892	23.609	933.976	738.561
163.906	23.554	932.863	737.385
164.921	23.398	931.780	735.816
165.935	23.328	931.831	735.500
166.950	23.423	930.759	734.986
167.964	23.503	929.816	734.507
168.979	23.664	928.113	733.762
169.994	23.063	928.081	731.187
171.008	23.488	926.794	731.864
172.023	23.840	925.550	732.265
173.037	23.941	925.099	732.260
174.052	24.108	924.172	732.147
175.067	24.078	923.743	731.619
176.081	23.532	923.163	728.855
177.096	23.383	921.554	726.909
178.110	23.373	920.488	725.962
179.125	23.224	919.459	724.476
180.140	23.000	918.680	722.880
181.154	22.983	918.298	722.448
182.169	23.198	918.337	723.294
183.183	23.688	916.777	723.999
184.198	23.891	915.949	724.110
185.213	23.726	916.834	724.070
186.227	23.899	915.242	723.454
187.242	23.951	915.352	723.687
188.256	23.922	914.793	723.066
189.271	23.944	914.786	723.083
190.286	23.805	913.701	721.599
191.300	23.869	912.914	721.171
192.315	23.422	910.914	717.717
193.329	23.092	910.223	715.776
194.344	23.041	909.696	715.093
195.359	23.259	909.057	715.408
196.373	23.776	909.107	717.472
197.388	23.644	909.009	716.798
198.402	23.607	909.560	717.020
199.417	24.353	907.365	718.232
200.432	24.209	908.033	718.114
201.446	24.586	906.937	718.704
202.461	24.434	907.239	718.267
203.475	24.436	906.670	717.759
204.490	23.779	906.303	714.762
205.504	23.278	904.683	711.411
206.519	23.638	902.994	711.464
207.534	23.950	902.742	712.452
208.548	23.611	902.353	710.723
209.563	23.840	902.569	711.749
210.577	24.019	900.689	710.920
211.592	24.154	899.137	710.168
212.607	24.279	899.461	710.860
213.621	24.314	899.558	711.015
214.636	24.100	900.042	710.479
215.650	24.172	898.296	709.325
216.665	23.874	897.888	707.753
217.680	23.871	898.096	707.842
218.694	24.688	896.209	709.539
219.709	24.224	895.754	707.273
220.723	24.076	895.827	706.682
221.738	23.887	894.691	704.973
222.753	23.608	893.985	703.251
223.767	23.675	893.164	702.806
224.782	23.845	892.872	703.185
225.796	24.108	892.454	703.834
226.811	24.276	891.533	703.710
227.826	24.173	889.525	701.658
228.840	23.663	889.266	699.383
229.855	23.603	889.763	699.476
230.869	23.613	889.890	699.553
231.884	23.518	888.219	697.802
232.899	23.512	887.591	697.225
233.913	23.562	887.378	697.192
234.928	23.591	886.326	696.417
235.942	23.289	885.458	694.490
236.957	23.286	884.475	693.647
237.972	22.993	884.163	692.190
238.986	23.387	883.651	693.271
240.001	23.360	882.742	692.393
241.015	23.334	881.746	691.448
242.030	23.673	881.238	692.308
243.045	23.845	880.340	692.212
244.059	23.750	881.172	692.434
245.074	23.861	879.920	691.823
246.088	23.937	879.495	691.722
247.103	23.919	878.892	691.117
248.117	24.168	878.430	691.660
249.132	24.465	877.923	692.352
250.147	24.553	878.216	692.863
251.161	24.845	879.373	694.847
252.176	25.010	877.710	694.113
253.190	25.171	876.615	693.810
254.205	25.009	875.722	692.415
255.220	25.099	875.755	692.725
256.234	24.715	875.751	691.176
257.249	24.767	874.529	690.351
258.263	24.804	873.924	689.957
259.278	24.286	874.050	687.995
260.293	24.632	872.608	688.135
261.307	24.949	872.874	689.503
262.322	24.777	872.034	688.117
263.336	24.433	872.083	686.773
264.351	24.391	871.393	686.005
265.366	24.495	869.510	684.863
266.380	24.648	868.937	684.938
267.395	25.136	868.038	686.035
268.409	24.898	868.180	685.174
269.424	24.680	867.192	683.503
270.439	24.698	867.195	683.512
271.453	24.708	866.173	682.684
272.468	24.634	864.999	681.415
273.482	24.678	865.104	681.607
274.497	24.793	864.339	681.381
275.512	24.582	863.149	679.581
276.526	24.541	863.054	679.289
277.541	24.824	861.297	678.920
278.555	25.125	861.778	680.383
279.570	24.589	861.402	677.990
280.585	25.031	860.258	678.706
281.599	24.848	860.253	677.948
282.614	24.798	858.920	676.650
283.628	24.354	858.598	674.658
284.643	24.418	858.357	674.651
285.657	24.435	857.145	673.703
286.672	24.500	857.048	673.812
287.687	24.163	857.063	672.491
288.701	24.595	856.903	673.935
289.716	24.729	855.926	673.612
290.730	24.434	855.469	672.083
291.745	24.732	853.988	671.979
292.760	24.742	853.262	671.387
293.774	24.510	853.139	670.361
294.789	24.926	853.201	671.910
295.803	25.060	853.577	672.648
296.818	25.272	851.931	672.087
297.833	24.633	851.375	669.198
298.847	24.911	850.885	669.792
299.862	24.456	850.095	667.410
300.876	24.730	847.898	666.648
301.891	24.944	848.519	667.875
302.906	25.183	848.375	668.594
303.920	25.090	847.442	667.455
304.935	25.376	846.947	668.069
305.949	25.845	845.862	668.896
306.964	25.510	845.932	667.647
307.979	25.024	845.646	665.560
308.993	24.771	845.870	664.736
310.008	24.622	845.346	663.710
311.022	25.483	843.748	665.588
312.037	25.209	843.888	664.623
313.052	25.044	843.187	663.403
314.066	24.854	841.458	661.282
315.081	24.145	841.516	658.650
316.095	24.102	840.607	657.721
317.110	24.170	840.271	657.651
318.125	24.773	839.709	659.375
319.139	24.520	838.861	657.721
320.154	23.976	838.036	655.013
321.168	24.137	837.671	655.263
322.183	24.285	836.765	655.039
323.197	24.584	836.225	655.654
324.212	24.582	836.351	655.687
325.227	24.594	835.983	655.385
326.241	24.356	835.795	654.309
327.256	24.442	834.382	653.460
328.270	24.132	834.247	652.160
329.285	24.211	833.480	651.793
330.300	24.375	832.834	651.830
331.314	24.320	832.327	651.173
332.329	24.183	831.903	650.285
333.343	24.405	831.581	650.785
334.358	25.240	830.477	652.904
335.373	25.209	830.090	652.429
336.387	24.741	830.026	650.619
337.402	25.422	829.383	652.530
338.416	24.898	829.234	650.454
339.431	25.336	828.719	651.583
340.446	25.599	828.559	652.351
341.460	25.663	828.422	652.419
342.475	25.301	828.059	650.761
343.489	25.372	828.181	651.056
344.504	25.817	827.451	652.039
345.519	25.441	827.008	650.269
346.533	25.667	826.939	650.976
347.548	26.058	824.876	650.706
348.562	25.654	825.020	649.303
349.577	25.161	824.448	647.018
350.592	25.264	823.487	646.576
351.606	25.097	823.104	645.618
352.621	25.419	821.615	645.552
353.635	25.156	821.661	644.585
354.650	25.328	821.027	644.648
355.665	24.839	820.544	642.456
356.679	24.661	820.720	641.896
357.694	24.734	819.518	641.163
358.708	25.028	819.615	642.237
359.723	25.305	818.975	642.669
360.738	24.953	818.469	640.957
361.752	25.078	817.666	640.717
362.767	24.944	817.065	639.710
363.781	25.135	817.588	640.748
364.796	25.857	817.068	642.858
365.810	25.806	816.380	642.080
366.825	25.610	817.030	641.835
367.840	25.798	815.746	641.438
368.854	25.705	815.143	640.576
369.869	25.397	814.186	638.672
370.883	25.474	814.652	639.257
371.898	25.297	813.337	637.540
372.913	25.367	813.941	638.205
373.927	25.848	812.941	639.071
374.942	25.577	811.160	636.656
375.956	25.000	811.745	635.014
376.971	25.481	810.283	635.513
377.986	25.331	810.017	634.721
379.000	25.614	809.989	635.642
380.015	26.037	809.502	636.696
381.029	25.742	808.825	635.068
382.044	25.631	807.898	633.891
383.059	26.026	806.923	634.461
384.073	26.158	806.777	634.752
385.088	26.021	806.034	633.634
386.102	25.398	805.305	630.817
387.117	25.412	804.509	630.186
388.132	25.430	804.028	629.817
389.146	24.960	803.607	627.785
390.161	25.167	802.300	627.430
391.175	25.513	802.638	628.851
392.190	25.805	803.429	630.438
393.205	25.828	802.377	629.635
394.219	25.399	801.344	627.271
395.234	24.727	800.214	623.988
396.248	24.136	800.071	621.758
397.263	24.726	800.195	623.858
398.278	24.986	799.842	624.436
399.292	25.323	797.905	624.040
400.307	24.803	797.996	622.247
401.321	24.901	797.558	622.191
402.336	24.706	797.974	621.782
403.350	25.042	796.718	621.917
404.365	25.349	796.949	623.107
405.380	25.588	796.866	623.816
406.394	26.291	796.672	626.045
407.409	26.554	796.009	626.377
408.423	26.016	795.822	624.314
409.438	26.251	795.515	624.833
410.453	26.342	795.163	624.815
411.467	25.998	795.303	623.679
412.482	25.925	794.246	622.543
413.496	25.812	793.731	621.694
414.511	26.271	793.105	622.731
415.526	26.203	792.371	621.866
416.540	25.997	793.135	621.702
417.555	25.988	792.176	620.861
418.569	26.204	791.825	621.277
419.584	26.434	790.845	621.241
420.599	26.368	790.393	620.606
421.613	160.083	1369.411	1792.833
422.628	138.637	1453.772	1792.902
