DTS Sentinel unit serial number:	SN413079Multiplexer serial number:	ORYXHardware model number:	OX4-SRSoftware version number:	ORYX F/W v4.00 Oryx Data Collector v3.7.2.0data status	okinstallation	princeton_trtdifferential loss correction	single-endedforward channel	channel 3reverse channel	N/Adate	2019/09/12time	03:30:11forward acquisition time	60.00reverse acquisition time	0.00gamma	496.2192k internal	0.2321k external	0.2321temperature offset calibration	1.0065default loss term (dB/km)	0.3790temperature slope calibration	1.0000multiplexer offset coefficient	1.0000multiplexer slope coefficient	1.0000fibre end	0.00T internal ref (°C)	32.19T ext. ref 1 (°C)	2.12T ext. ref 2 (°C)	27.31length (m)	temperature (°C)	Stokes	anti-Stokes-747.200	-39.516	0.285	-0.151
-746.185	767.644	-0.080	0.220
-745.171	-94.052	-0.129	-0.036
-744.156	800.000	-0.041	-0.122
-743.142	800.000	0.007	-0.029
-742.127	-58.833	-0.203	0.089
-741.112	800.000	-0.021	0.082
-740.098	336.600	-0.078	-0.153
-739.083	260.133	0.127	0.222
-738.069	-200.000	-0.049	0.249
-737.054	-56.616	-0.125	-0.056
-736.039	-74.958	-0.336	-0.122
-735.025	-179.453	0.239	0.005
-734.010	-57.384	-0.326	0.145
-732.996	51.914	0.116	-0.112
-731.981	457.035	0.169	-0.380
-730.966	-107.333	-0.343	-0.076
-729.952	-28.251	0.085	-0.050
-728.937	245.005	-0.118	-0.200
-727.923	800.000	0.104	-0.396
-726.908	-30.586	-0.396	0.227
-725.894	151.038	-0.144	-0.198
-724.879	-63.243	-0.163	0.068
-723.864	-15.341	0.336	-0.217
-722.850	-200.000	-0.055	-0.298
-721.835	96.373	-0.097	-0.112
-720.821	800.000	-0.039	-0.152
-719.806	174.940	0.122	0.179
-718.791	47.232	-0.104	0.098
-717.777	-200.000	-0.017	-0.180
-716.762	127.262	0.158	-0.202
-715.748	-200.000	-0.009	0.139
-714.733	-85.060	-0.344	-0.109
-713.718	286.474	-0.121	0.221
-712.704	56.438	0.207	-0.203
-711.689	-82.833	-0.145	-0.047
-710.675	-129.164	0.049	0.007
-709.660	33.770	0.011	-0.009
-708.645	-99.750	-0.238	-0.060
-707.631	54.704	0.137	-0.134
-706.616	-15.692	0.104	-0.067
-705.602	-83.000	-0.198	-0.064
-704.587	161.884	0.074	0.105
-703.572	-19.465	-0.420	-0.263
-702.558	254.546	0.159	-0.274
-701.543	-145.449	-0.303	-0.027
-700.529	-107.234	0.178	0.040
-699.514	141.062	-0.165	-0.220
-698.499	800.000	-0.063	-0.233
-697.485	800.000	0.063	-0.194
-696.470	330.541	0.051	0.099
-695.456	28.477	-0.169	-0.144
-694.441	-133.223	0.424	0.054
-693.426	179.110	-0.104	0.153
-692.412	-117.084	-0.075	0.014
-691.397	-119.154	0.121	-0.021
-690.383	-200.000	-0.010	-0.143
-689.368	124.557	-0.155	-0.196
-688.354	-200.000	0.025	-0.295
-687.339	133.910	-0.180	-0.235
-686.324	-15.605	0.388	0.250
-685.310	60.720	0.157	-0.157
-684.295	800.000	-0.108	-0.371
-683.281	-55.912	-0.319	0.144
-682.266	-200.000	-0.014	-0.158
-681.251	-200.000	-0.012	-0.124
-680.237	94.770	-0.071	0.081
-679.222	210.051	-0.233	0.368
-678.208	321.420	0.024	-0.045
-677.193	261.400	-0.071	-0.124
-676.178	-66.565	-0.096	0.038
-675.164	-73.096	-0.209	-0.077
-674.149	-69.307	-0.247	-0.096
-673.135	55.159	0.070	0.068
-672.120	-175.529	-0.174	-0.005
-671.105	-128.579	0.291	0.042
-670.091	-131.936	0.147	-0.019
-669.076	-33.058	-0.314	-0.176
-668.062	378.335	-0.161	-0.333
-667.047	-200.000	0.069	-0.399
-666.032	9.457	0.172	0.131
-665.018	-24.637	0.159	-0.096
-664.003	-111.287	-0.216	-0.044
-662.989	-74.272	0.120	-0.044
-661.974	80.723	-0.240	0.260
-660.959	224.801	-0.209	-0.340
-659.945	800.000	0.105	-0.339
-658.930	-70.825	0.013	-0.005
-657.916	-175.619	0.130	0.004
-656.901	226.578	0.166	-0.271
-655.886	-73.493	-0.398	-0.146
-654.872	-4.944	0.106	-0.073
-653.857	-30.623	-0.293	-0.167
-652.843	170.098	-0.128	-0.184
-651.828	161.367	0.089	0.125
-650.814	56.664	-0.199	-0.195
-649.799	169.121	-0.096	-0.138
-648.784	-136.019	0.064	0.008
-647.770	88.403	0.121	-0.135
-646.755	800.000	-0.074	0.308
-645.741	-200.000	0.009	-0.129
-644.726	-145.901	-0.206	-0.018
-643.711	-84.724	0.032	0.010
-642.697	-46.076	-0.267	0.132
-641.682	-168.953	-0.087	-0.003
-640.668	214.436	-0.207	-0.330
-639.653	158.495	-0.015	0.021
-638.638	-103.119	-0.255	0.061
-637.624	165.421	-0.169	0.240
-636.609	800.000	-0.123	-0.466
-635.595	-110.329	0.232	-0.049
-634.580	199.802	0.084	0.129
-633.565	33.101	0.039	-0.034
-632.551	184.863	-0.063	-0.095
-631.536	291.088	0.112	-0.206
-630.522	74.665	0.411	0.435
-629.507	-200.000	-0.005	0.138
-628.492	-146.316	-0.157	-0.014
-627.478	-154.950	-0.237	0.016
-626.463	-16.535	0.025	0.016
-625.449	-200.000	0.015	0.109
-624.434	-130.709	-0.117	0.016
-623.419	-200.000	-0.034	0.165
-622.405	-200.000	0.001	0.042
-621.390	-200.000	-0.071	-0.326
-620.376	389.032	0.118	0.246
-619.361	800.000	-0.118	0.378
-618.346	445.648	0.089	0.196
-617.332	-42.154	-0.296	-0.152
-616.317	-117.760	-0.358	-0.065
-615.303	800.000	-0.080	0.290
-614.288	135.937	0.110	0.144
-613.273	-101.484	0.251	0.061
-612.259	-149.402	0.111	0.009
-611.244	562.842	0.209	-0.509
-610.230	49.047	0.209	-0.198
-609.215	-37.432	0.402	-0.215
-608.201	800.000	-0.034	0.147
-607.186	-200.000	0.041	0.218
-606.171	-132.962	0.093	0.012
-605.157	190.722	0.128	0.194
-604.142	-65.461	-0.249	-0.100
-603.128	135.539	-0.094	0.123
-602.113	496.394	-0.150	0.346
-601.098	578.311	-0.069	0.169
-600.084	135.252	0.099	-0.129
-599.069	-200.000	0.004	-0.189
-598.055	-51.793	0.179	-0.084
-597.040	-30.957	-0.300	-0.170
-596.025	129.677	0.121	-0.156
-595.011	-200.000	-0.039	0.180
-593.996	107.878	0.098	-0.118
-592.982	-9.217	-0.278	0.187
-591.967	-16.348	0.138	0.088
-590.952	-30.582	-0.104	0.059
-589.938	-200.000	0.055	-0.327
-588.923	262.729	-0.065	0.113
-587.909	-200.000	0.062	0.329
-586.894	488.779	0.107	0.246
-585.879	312.626	0.169	-0.319
-584.865	-69.577	0.137	-0.053
-583.850	-83.191	-0.016	-0.005
-582.836	-91.551	-0.159	0.046
-581.821	800.000	-0.040	0.144
-580.806	-26.167	0.308	0.182
-579.792	-185.639	-0.242	0.004
-578.777	179.924	0.119	0.176
-577.763	504.257	-0.086	-0.200
-576.748	-153.190	0.368	-0.026
-575.733	148.192	-0.069	0.093
-574.719	59.926	0.200	0.198
-573.704	332.955	-0.171	0.332
-572.690	-87.128	0.245	0.075
-571.675	164.412	-0.050	0.070
-570.661	101.052	-0.096	0.113
-569.646	89.068	0.281	-0.314
-568.631	-118.897	-0.447	-0.079
-567.617	173.319	-0.146	-0.211
-566.602	496.018	0.147	-0.339
-565.588	-26.190	0.082	0.049
-564.573	-57.390	0.133	0.058
-563.558	485.518	-0.189	0.431
-562.544	717.405	-0.076	-0.202
-561.529	661.115	0.089	-0.230
-560.515	-200.000	-0.019	-0.309
-559.500	91.462	-0.117	0.132
-558.485	-200.000	-0.020	0.129
-557.471	-125.343	-0.273	0.042
-556.456	-173.454	-0.082	0.002
-555.442	193.567	-0.137	0.209
-554.427	-122.491	0.318	0.052
-553.412	-25.539	-0.145	-0.086
-552.398	-200.000	0.016	-0.099
-551.383	-47.896	0.094	0.046
-550.369	-152.029	-0.166	0.012
-549.354	-36.286	-0.233	-0.126
-548.339	120.867	-0.030	-0.037
-547.325	78.967	0.157	0.169
-546.310	-90.752	0.189	-0.055
-545.296	-47.028	0.300	-0.147
-544.281	599.636	-0.135	0.336
-543.266	800.000	-0.050	0.143
-542.252	-87.177	0.197	-0.060
-541.237	-200.000	-0.031	-0.287
-540.223	-200.000	0.038	0.172
-539.208	-200.000	0.002	0.175
-538.193	147.667	0.059	-0.079
-537.179	463.267	0.078	-0.174
-536.164	26.493	0.122	-0.102
-535.150	800.000	0.042	-0.123
-534.135	142.985	-0.058	-0.077
-533.121	800.000	0.067	-0.202
-532.106	-76.774	-0.255	-0.090
-531.091	109.599	0.144	-0.173
-530.077	-16.915	0.221	-0.140
-529.062	-200.000	-0.022	0.298
-528.048	-27.538	0.100	0.058
-527.033	800.000	-0.104	0.413
-526.018	513.094	0.065	0.152
-525.004	124.780	-0.280	-0.354
-523.989	-37.978	-0.278	0.148
-522.975	-59.616	-0.224	-0.096
-521.960	-80.082	-0.188	-0.063
-520.945	-114.684	-0.051	0.010
-519.931	-52.872	-0.243	-0.112
-518.916	-31.391	0.444	-0.250
-517.902	-200.000	-0.028	-0.306
-516.887	141.281	0.096	0.127
-515.872	-200.000	0.039	-0.286
-514.858	-200.000	0.001	-0.200
-513.843	-200.000	-0.013	0.172
-512.829	-200.000	-0.011	0.116
-511.814	278.359	-0.111	-0.198
-510.799	-67.127	0.245	0.097
-509.785	17.105	0.145	-0.115
-508.770	58.302	-0.109	0.107
-507.756	160.677	-0.233	0.326
-506.741	-150.801	0.333	0.025
-505.726	250.093	-0.064	-0.109
-504.712	-200.000	-0.070	0.376
-503.697	-114.482	-0.268	0.051
-502.683	800.000	-0.111	-0.354
-501.668	-200.000	-0.013	-0.057
-500.653	26.428	-0.157	0.131
-499.639	706.938	-0.038	-0.100
-498.624	-200.000	-0.070	-0.368
-497.610	-194.519	0.183	0.001
-496.595	63.717	0.095	-0.095
-495.581	489.188	0.047	-0.107
-494.566	-79.564	0.342	0.116
-493.551	-93.244	0.225	0.063
-492.537	-200.000	-0.024	0.392
-491.522	-74.669	-0.176	0.063
-490.508	-0.275	0.158	0.113
-489.493	-85.657	0.179	-0.056
-488.478	-105.248	0.214	0.049
-487.464	328.056	-0.134	0.257
-486.449	-161.786	0.059	-0.003
-485.435	800.000	-0.043	0.151
-484.420	19.240	-0.261	-0.210
-483.405	800.000	-0.054	0.161
-482.391	-133.301	-0.298	-0.038
-481.376	-4.733	0.077	-0.053
-480.362	748.941	-0.029	-0.079
-479.347	109.743	-0.061	0.073
-478.332	-80.477	0.282	0.094
-477.318	-161.331	-0.166	0.009
-476.303	-88.228	-0.399	-0.119
-475.289	-27.794	0.161	0.093
-474.274	-86.812	0.189	-0.058
-473.259	-98.849	0.093	-0.024
-472.245	210.758	-0.141	-0.221
-471.230	169.768	-0.158	0.226
-470.216	18.016	-0.116	-0.092
-469.201	-70.537	0.337	-0.127
-468.186	105.814	0.151	-0.178
-467.172	631.960	-0.037	0.093
-466.157	-168.866	0.236	0.009
-465.143	451.962	0.085	0.189
-464.128	-122.167	0.121	-0.020
-463.113	800.000	0.054	0.185
-462.099	800.000	0.072	0.268
-461.084	-115.428	-0.132	0.025
-460.070	800.000	0.087	0.251
-459.055	-122.508	0.230	-0.037
-458.040	800.000	0.070	0.222
-457.026	-174.550	-0.276	-0.008
-456.011	-48.651	0.263	-0.126
-454.997	130.000	-0.100	0.128
-453.982	-135.926	0.124	0.015
-452.968	23.344	0.142	0.117
-451.953	-104.459	-0.314	-0.072
-450.938	-150.642	-0.218	0.017
-449.924	800.000	0.030	-0.094
-448.909	-32.056	-0.219	0.122
-447.895	82.576	0.043	0.047
-446.880	52.786	0.165	-0.157
-445.865	136.632	-0.135	-0.176
-444.851	-118.066	0.146	0.026
-443.836	-88.220	-0.171	-0.051
-442.822	-200.000	0.025	-0.228
-441.807	54.274	-0.151	0.145
-440.792	-200.000	-0.024	-0.313
-439.778	-83.075	-0.318	0.102
-438.763	-200.000	0.017	-0.328
-437.749	-70.008	0.231	-0.088
-436.734	4.553	0.073	-0.053
-435.719	778.097	-0.040	0.110
-434.705	583.105	-0.053	0.130
-433.690	800.000	-0.029	-0.118
-432.676	143.357	-0.254	-0.338
-431.661	24.485	-0.208	0.172
-430.646	177.411	0.113	0.164
-429.632	123.603	0.157	-0.196
-428.617	-140.286	0.311	0.032
-427.603	-102.075	-0.258	-0.062
-426.588	-65.130	-0.294	-0.118
-425.573	-65.558	0.235	-0.094
-424.559	-200.000	0.031	-0.240
-423.544	800.000	-0.027	-0.116
-422.530	-18.836	0.130	-0.081
-421.515	-70.215	0.181	-0.069
-420.500	-114.377	0.422	-0.081
-419.486	664.852	0.103	0.264
-418.471	-110.551	0.039	-0.008
-417.457	-156.107	-0.343	0.022
-416.442	47.361	-0.112	0.104
-415.428	-49.609	-0.261	0.124
-414.413	-16.565	-0.195	-0.123
-413.398	545.622	0.128	0.305
-412.384	-125.903	0.029	-0.004
-411.369	77.760	0.194	0.206
-410.355	-53.260	-0.342	-0.156
-409.340	-151.359	0.116	-0.009
-408.325	-200.000	-0.036	-0.185
-407.311	53.306	-0.259	0.248
-406.296	-47.333	0.070	-0.034
-405.282	43.960	0.203	0.186
-404.267	73.467	-0.170	-0.177
-403.252	495.609	0.031	-0.072
-402.238	-151.556	-0.136	0.010
-401.223	-68.149	-0.204	0.079
-400.209	269.873	0.196	0.344
-399.194	240.240	-0.068	-0.113
-398.179	321.938	-0.198	0.376
-397.165	135.661	-0.055	-0.071
-396.150	147.594	0.044	0.059
-395.136	470.196	0.131	0.293
-394.121	800.000	0.043	0.182
-393.106	172.873	-0.136	-0.195
-392.092	800.000	0.066	0.224
-391.077	84.055	0.281	0.306
-390.063	63.031	0.152	-0.152
-389.048	-200.000	-0.051	0.394
-388.033	200.428	-0.153	-0.235
-387.019	47.630	-0.219	-0.204
-386.004	-200.000	-0.246	-0.000
-384.990	8.391	0.090	-0.068
-383.975	-200.000	-0.043	-0.303
-382.960	-200.000	0.020	-0.191
-381.946	44.408	-0.148	0.136
-380.931	244.829	-0.071	0.119
-379.917	261.320	-0.075	0.129
-378.902	467.657	-0.016	-0.035
-377.888	28.307	-0.033	-0.028
-376.873	800.000	0.075	-0.273
-375.858	309.969	-0.048	-0.090
-374.844	-87.097	0.117	0.036
-373.829	-200.000	-0.081	0.385
-372.815	276.685	0.117	0.207
-371.800	-158.795	0.253	-0.014
-370.785	-77.562	-0.193	0.067
-369.771	-200.000	0.013	-0.098
-368.756	-91.654	0.144	0.041
-367.742	187.354	0.289	0.429
-366.727	-121.720	0.105	0.017
-365.712	-131.421	0.083	-0.011
-364.698	534.730	0.074	0.176
-363.683	-22.931	0.157	-0.095
-362.669	-60.774	-0.240	0.101
-361.654	1.741	0.163	0.117
-360.639	199.075	-0.174	-0.266
-359.625	800.000	-0.012	0.051
-358.610	800.000	-0.075	-0.234
-357.596	800.000	-0.102	0.283
-356.581	120.213	0.193	0.238
-355.566	230.764	0.182	-0.297
-354.552	-66.262	-0.219	-0.087
-353.537	-133.559	-0.401	0.050
-352.523	688.893	0.095	0.248
-351.508	-200.000	0.011	0.099
-350.493	-20.306	-0.303	-0.186
-349.479	-78.774	0.414	-0.141
-348.464	800.000	0.011	-0.039
-347.450	-115.791	0.054	0.010
-346.435	-166.950	-0.096	-0.004
-345.420	-89.110	0.149	-0.044
-344.406	75.682	0.177	0.186
-343.391	-82.706	-0.101	-0.033
-342.377	119.162	-0.060	0.073
-341.362	-200.000	-0.055	-0.262
-340.348	-39.098	0.355	-0.186
-339.333	800.000	0.050	0.198
-338.318	230.508	0.217	0.353
-337.304	800.000	-0.062	0.213
-336.289	-131.912	-0.133	0.017
-335.275	-200.000	0.017	-0.259
-334.260	114.573	-0.156	-0.189
-333.245	-93.301	-0.210	0.058
-332.231	87.673	0.101	0.111
-331.216	151.425	-0.092	-0.125
-330.202	-125.011	0.516	-0.079
-329.187	-136.959	-0.118	0.013
-328.172	-200.000	-0.024	-0.238
-327.158	279.239	0.156	-0.276
-326.143	-118.381	0.047	0.008
-325.129	-25.910	0.478	0.280
-324.114	-0.360	0.153	-0.108
-323.099	179.199	-0.340	-0.495
-322.085	136.177	0.157	0.204
-321.070	-66.391	0.220	0.087
-320.056	510.866	0.058	0.134
-319.041	-156.662	-0.055	0.003
-318.026	800.000	0.053	0.189
-317.012	-200.000	-0.021	0.342
-315.997	-158.330	-0.232	-0.013
-314.983	-200.000	-0.045	-0.322
-313.968	-159.989	-0.061	-0.003
-312.953	104.751	0.085	0.100
-311.939	800.000	0.094	-0.271
-310.924	36.363	-0.325	-0.285
-309.910	94.280	0.259	0.293
-308.895	31.930	-0.172	0.147
-307.880	-148.026	-0.284	0.023
-306.866	19.335	0.371	-0.296
-305.851	93.682	-0.233	-0.263
-304.837	-200.000	-0.029	0.252
-303.822	-22.363	0.232	-0.139
-302.807	594.834	0.041	-0.100
-301.793	-97.712	-0.164	-0.042
-300.778	-154.553	-0.135	-0.009
-299.764	-148.081	0.382	0.031
-298.749	-174.377	0.082	0.002
-297.735	-16.808	-0.129	0.081
-296.720	-200.000	-0.020	0.150
-295.705	33.226	-0.187	-0.161
-294.691	-200.000	-0.025	-0.236
-293.676	-142.307	0.469	-0.046
-292.662	66.605	0.045	-0.046
-291.647	800.000	0.097	-0.293
-290.632	-118.074	-0.153	0.027
-289.618	286.456	-0.271	-0.486
-288.603	-109.393	-0.054	0.011
-287.589	800.000	0.125	0.398
-286.574	56.100	-0.125	-0.120
-285.559	-7.512	-0.324	-0.218
-284.545	-142.212	0.105	0.010
-283.530	528.727	-0.157	-0.367
-282.516	-106.870	-0.246	-0.054
-281.501	-134.835	-0.285	0.034
-280.486	-165.464	-0.174	0.008
-279.472	-200.000	0.029	-0.148
-278.457	-76.673	-0.118	0.041
-277.443	-122.018	-0.203	0.033
-276.428	-200.000	0.004	0.055
-275.413	-157.477	-0.070	-0.004
-274.399	514.566	-0.089	-0.205
-273.384	118.728	0.158	-0.193
-272.370	-91.537	-0.230	0.065
-271.355	-200.000	-0.008	0.222
-270.340	-14.056	0.098	0.062
-269.326	-136.856	0.147	0.017
-268.311	-200.000	-0.032	-0.145
-267.297	-200.000	-0.051	0.246
-266.282	-65.282	0.196	0.078
-265.267	9.661	0.071	-0.053
-264.253	-200.000	0.003	0.267
-263.238	137.616	-0.123	0.160
-262.224	-86.470	-0.150	-0.046
-261.209	-200.000	0.053	0.306
-260.195	13.909	-0.062	0.048
-259.180	-21.127	-0.190	-0.115
-258.165	113.617	0.135	-0.163
-257.151	219.204	0.150	-0.237
-256.136	191.959	-0.071	-0.106
-255.122	-146.698	-0.069	0.006
-254.107	-200.000	-0.004	0.244
-253.092	-53.964	-0.220	-0.099
-252.078	-25.942	0.104	-0.061
-251.063	-200.000	-0.056	0.301
-250.049	-200.000	-0.018	0.093
-249.034	140.633	0.128	-0.168
-248.019	-200.000	-0.009	-0.194
-247.005	-141.722	-0.184	0.018
-245.990	-66.202	0.408	0.161
-244.976	355.722	0.019	-0.038
-243.961	-5.320	0.195	0.133
-242.946	-200.000	-0.029	-0.235
-241.932	-200.000	-0.017	-0.141
-240.917	-80.271	0.017	0.006
-239.903	-26.290	0.288	0.168
-238.888	-200.000	0.034	-0.167
-237.873	-192.424	-0.259	-0.002
-236.859	800.000	0.046	0.135
-235.844	-200.000	0.035	-0.296
-234.830	28.619	0.193	-0.162
-233.815	-79.997	-0.255	-0.085
-232.800	-200.000	-0.014	-0.250
-231.786	-186.729	-0.162	-0.002
-230.771	622.490	-0.072	-0.178
-229.757	325.785	0.187	-0.355
-228.742	128.762	0.203	-0.256
-227.727	-200.000	0.002	0.082
-226.713	-94.498	0.094	-0.025
-225.698	-131.369	-0.085	-0.011
-224.684	171.984	0.145	-0.206
-223.669	51.763	-0.192	0.181
-222.655	800.000	-0.050	0.138
-221.640	187.749	0.140	0.207
-220.625	-200.000	0.104	0.459
-219.611	-200.000	0.034	0.307
-218.596	760.970	0.032	-0.085
-217.582	110.972	-0.036	-0.043
-216.567	204.372	-0.158	0.242
-215.552	-68.529	0.136	0.052
-214.538	476.848	0.081	0.181
-213.523	124.140	0.276	-0.344
-212.509	-152.935	0.288	0.020
-211.494	-13.966	0.240	0.153
-210.479	800.000	-0.060	0.226
-209.465	-102.923	-0.166	-0.039
-208.450	49.533	0.078	0.073
-207.436	-108.855	0.113	0.024
-206.421	27.922	-0.114	-0.095
-205.406	-148.290	-0.255	0.021
-204.392	199.535	0.084	-0.128
-203.377	-72.407	0.225	-0.082
-202.363	-18.424	-0.223	-0.138
-201.348	800.000	-0.093	0.359
-200.333	20.985	0.122	0.098
-199.319	436.368	0.038	0.082
-198.304	102.445	0.170	0.197
-197.290	233.444	-0.069	-0.112
-196.275	800.000	-0.061	0.194
-195.260	-200.000	-0.040	0.282
-194.246	312.088	-0.077	-0.144
-193.231	-113.469	-0.364	0.071
-192.217	439.258	0.079	-0.170
-191.202	-26.696	-0.119	-0.069
-190.187	-109.439	-0.020	-0.004
-189.173	304.719	0.075	0.137
-188.158	224.942	-0.155	-0.249
-187.144	215.301	-0.166	-0.261
-186.129	-137.464	-0.181	0.020
-185.114	229.286	-0.058	-0.094
-184.100	-74.536	0.268	-0.096
-183.085	117.772	0.145	-0.177
-182.071	469.910	-0.124	0.276
-181.056	218.015	0.201	-0.317
-180.042	295.901	-0.203	0.367
-179.027	-200.000	0.030	0.297
-178.012	602.734	0.081	-0.199
-176.998	263.721	-0.065	0.112
-175.983	197.246	0.201	0.303
-174.969	800.000	0.036	0.146
-173.954	43.844	0.218	-0.198
-172.939	345.244	0.092	0.178
-171.925	-126.672	-0.251	-0.037
-170.910	559.199	0.068	-0.161
-169.896	264.024	0.097	0.167
-168.881	-43.681	0.069	-0.035
-167.866	53.621	-0.292	-0.277
-166.852	800.000	0.046	0.187
-165.837	205.711	-0.054	-0.083
-164.823	-129.219	0.313	0.043
-163.808	-116.849	-0.224	-0.041
-162.793	-175.164	0.110	-0.003
-161.779	800.000	0.131	-0.430
-160.764	-28.266	-0.204	-0.116
-159.750	729.877	0.043	0.113
-158.735	297.621	-0.091	-0.166
-157.720	-121.994	-0.021	0.003
-156.706	-54.344	-0.124	0.056
-155.691	-200.000	0.012	0.184
-154.677	13.594	0.151	-0.116
-153.662	-55.673	0.240	-0.106
-152.647	455.427	-0.102	-0.224
-151.633	800.000	0.056	-0.166
-150.618	-200.000	-0.055	-0.317
-149.604	-95.673	-0.134	0.035
-148.589	-162.967	0.128	-0.006
-147.574	-43.036	0.289	-0.145
-146.560	-200.000	0.041	-0.317
-145.545	-107.138	0.385	0.084
-144.531	8.926	-0.153	-0.114
-143.516	800.000	-0.062	-0.207
-142.502	-200.000	-0.023	-0.250
-141.487	-29.816	0.347	-0.195
-140.472	-200.000	0.025	0.139
-139.458	10.590	-0.059	0.044
-138.443	-27.726	0.067	-0.038
-137.429	76.371	-0.076	-0.079
-136.414	-33.380	0.125	0.068
-135.399	389.365	-0.159	0.325
-134.385	-200.000	-0.071	0.335
-133.370	228.968	-0.037	-0.059
-132.356	-51.927	0.092	-0.042
-131.341	463.563	0.127	-0.279
-130.326	-45.178	-0.124	0.061
-129.312	548.044	0.076	-0.179
-128.297	90.543	-0.192	-0.212
-127.283	413.922	0.070	0.147
-126.268	-46.330	0.120	0.058
-125.253	-200.000	-0.010	-0.269
-124.239	-200.000	0.008	-0.156
-123.224	-200.000	-0.059	0.258
-122.210	53.193	-0.235	-0.222
-121.195	0.938	-0.165	-0.117
-120.180	-149.017	-0.225	-0.018
-119.166	-142.645	-0.165	-0.016
-118.151	-114.287	0.193	0.037
-117.137	800.000	-0.077	0.292
-116.122	-200.000	0.038	0.235
-115.107	-34.091	-0.126	-0.068
-114.093	-97.355	0.428	-0.110
-113.078	-91.643	-0.161	-0.045
-112.064	96.142	0.102	0.115
-111.049	-107.252	-0.146	0.032
-110.034	-200.000	0.026	0.138
-109.020	-183.016	-0.239	-0.004
-108.005	-121.273	0.352	0.058
-106.991	800.000	0.069	0.294
-105.976	324.615	-0.125	-0.235
-104.962	-44.435	-0.095	0.047
-103.947	-105.655	0.100	0.022
-102.932	104.967	0.343	-0.399
-101.918	-200.000	-0.001	-0.171
-100.903	176.615	0.109	-0.156
-99.889	-47.297	0.388	0.186
-98.874	-48.988	-0.374	-0.176
-97.859	89.030	0.172	0.189
-96.845	306.181	0.097	-0.179
-95.830	-11.986	0.296	-0.191
-94.816	-182.403	-0.067	-0.001
-93.801	800.000	-0.034	0.124
-92.786	-148.501	0.274	0.022
-91.772	16.910	0.170	0.132
-90.757	-200.000	-0.004	-0.098
-89.743	-53.567	0.363	0.164
-88.728	-49.356	-0.180	0.084
-87.713	452.684	-0.052	-0.113
-86.699	800.000	0.068	-0.254
-85.684	2.228	0.057	0.040
-84.670	-136.590	-0.106	0.012
-83.655	44.499	-0.369	0.334
-82.640	20.210	0.153	0.121
-81.626	800.000	-0.056	-0.175
-80.611	-16.108	-0.071	-0.044
-79.597	-172.022	-0.325	0.010
-78.582	-93.964	-0.150	-0.041
-77.567	648.797	0.083	0.209
-76.553	-9.167	-0.143	0.094
-75.538	-200.000	0.013	-0.125
-74.524	217.073	0.113	0.177
-73.509	279.223	0.138	-0.242
-72.494	-200.000	-0.019	0.098
-71.480	-111.050	-0.153	0.031
-70.465	-2.693	0.220	0.152
-69.451	-68.290	0.014	-0.006
-68.436	-137.347	-0.268	0.030
-67.422	-200.000	0.024	-0.149
-66.407	29.120	0.198	-0.165
-65.392	-170.478	0.022	-0.001
-64.378	-114.154	0.185	0.035
-63.363	800.000	-0.089	0.275
-62.349	-55.933	-0.341	-0.150
-61.334	60.317	-0.793	-0.772
-60.319	-22.260	0.629	0.375
-59.305	800.000	-0.202	-0.801
-58.290	800.000	0.317	0.930
-57.276	270.829	0.822	1.424
-56.261	-200.000	95.753	599.322
-55.246	577.234	1362.493	3276.496
-54.232	163.040	2537.387	3505.930
-53.217	113.190	2155.206	2571.215
-52.203	42.934	1702.350	1526.498
-51.188	35.425	1516.528	1308.849
-50.173	32.958	1489.652	1269.050
-49.159	51.958	1538.809	1441.137
-48.144	53.870	1556.243	1470.471
-47.130	35.527	1516.224	1309.071
-46.115	32.302	1501.546	1274.532
-45.100	32.211	1498.305	1271.113
-44.086	32.316	1496.181	1269.975
-43.071	32.198	1494.285	1267.519
-42.057	32.071	1492.878	1265.419
-41.042	32.156	1490.757	1264.143
-40.027	32.201	1489.562	1263.381
-39.013	32.115	1488.269	1261.653
-37.998	32.128	1487.159	1260.751
-36.984	32.179	1486.262	1260.280
-35.969	32.330	1484.173	1259.473
-34.954	32.284	1483.052	1258.164
-33.940	32.264	1481.685	1256.822
-32.925	32.261	1479.904	1255.237
-31.911	32.271	1478.823	1254.342
-30.896	32.308	1477.528	1253.440
-29.881	32.218	1475.985	1251.480
-28.867	32.254	1475.032	1250.859
-27.852	32.208	1473.940	1249.580
-26.838	32.191	1472.540	1248.233
-25.823	32.226	1470.733	1246.880
-24.809	32.197	1469.171	1245.318
-23.794	32.175	1467.649	1243.829
-22.779	32.230	1466.155	1242.878
-21.765	32.281	1465.073	1242.248
-20.750	32.305	1463.791	1241.271
-19.736	32.319	1462.764	1240.443
-18.721	32.138	1461.942	1238.503
-17.706	32.236	1460.782	1238.118
-16.692	32.116	1459.582	1236.262
-15.677	32.131	1458.657	1235.526
-14.663	32.110	1458.332	1235.064
-13.648	32.106	1456.845	1233.731
-12.633	32.177	1455.368	1232.899
-11.619	32.097	1455.251	1232.224
-10.604	32.165	1453.741	1231.344
-9.590	32.059	1453.238	1230.171
-8.575	32.123	1452.320	1229.767
-7.560	32.128	1451.263	1228.854
-6.546	32.143	1450.678	1228.407
-5.531	32.128	1450.107	1227.776
-4.517	32.070	1448.874	1226.308
-3.502	32.147	1447.166	1225.313
-2.487	32.159	1446.324	1224.633
-1.473	32.172	1445.442	1223.920
-0.458	32.162	1444.136	1222.699
0.556	32.673	1434.270	1211.643
1.571	29.740	1410.554	1172.928
2.586	26.649	1357.241	1109.597
3.600	25.287	1278.999	1037.668
4.615	23.914	1231.015	991.003
5.629	20.603	1173.150	926.724
6.644	10.906	1086.302	809.960
7.659	3.319	1044.566	742.322
8.673	2.356	1038.782	733.528
9.688	2.143	1036.053	730.518
10.702	1.994	1033.898	728.224
11.717	1.988	1032.067	726.840
12.731	5.531	1036.538	746.857
13.746	15.332	1050.816	804.286
14.761	23.072	1060.156	848.662
15.775	24.998	1062.402	859.640
16.790	25.440	1061.909	861.283
17.804	25.403	1060.416	859.820
18.819	25.111	1060.436	858.363
19.834	25.094	1060.049	857.890
20.848	25.350	1059.065	858.244
21.863	25.367	1059.201	858.358
22.877	25.387	1058.519	857.826
23.892	25.338	1057.856	856.978
24.907	25.280	1056.983	855.916
25.921	25.345	1055.966	855.326
26.936	25.371	1055.296	854.834
27.950	25.340	1054.215	853.735
28.965	25.212	1053.552	852.513
29.980	25.183	1051.735	850.829
30.994	25.195	1050.407	849.736
32.009	25.424	1049.661	850.142
33.023	25.462	1048.869	849.608
34.038	25.147	1048.084	847.407
35.053	25.086	1047.589	846.644
36.067	25.380	1046.581	847.140
37.082	25.230	1046.058	845.935
38.096	25.366	1045.139	845.759
39.111	25.518	1044.393	845.793
40.126	25.674	1043.290	845.559
41.140	25.435	1042.730	843.907
42.155	25.241	1041.086	841.591
43.169	24.939	1039.990	839.218
44.184	24.992	1038.566	838.241
45.199	25.128	1037.231	837.724
46.213	24.917	1037.417	836.814
47.228	24.901	1036.101	835.607
48.242	25.010	1035.849	835.837
49.257	25.419	1034.223	836.355
50.271	25.207	1034.152	835.240
51.286	25.374	1033.550	835.453
52.301	25.386	1033.134	835.102
53.315	25.549	1031.802	834.707
54.330	25.457	1030.934	833.506
55.344	25.290	1030.417	832.239
56.359	25.305	1029.666	831.626
57.374	25.266	1028.647	830.552
58.388	25.266	1027.491	829.543
59.403	25.046	1027.121	828.156
60.417	24.981	1026.665	827.414
61.432	24.913	1025.589	826.161
62.447	25.012	1024.863	825.956
63.461	25.051	1024.283	825.599
64.476	25.174	1023.321	825.314
65.490	25.064	1022.761	824.282
66.505	24.808	1022.213	822.591
67.520	25.066	1020.793	822.559
68.534	25.196	1020.109	822.532
69.549	24.980	1019.413	820.909
70.563	24.718	1017.675	818.238
71.578	24.532	1017.246	816.973
72.593	24.671	1016.304	816.779
73.607	24.475	1015.166	814.897
74.622	24.488	1014.194	814.103
75.636	24.697	1014.079	814.892
76.651	24.810	1013.676	815.009
77.666	24.926	1012.295	814.357
78.680	24.689	1011.582	812.634
79.695	24.749	1010.961	812.335
80.709	24.874	1010.151	812.178
81.724	24.953	1009.687	812.093
82.739	24.897	1008.887	811.122
83.753	25.017	1007.738	810.672
84.768	25.228	1007.408	811.289
85.782	25.477	1007.207	812.181
86.797	25.696	1006.321	812.384
87.812	25.677	1004.883	811.061
88.826	25.471	1004.447	809.709
89.841	25.441	1003.660	808.869
90.855	25.517	1003.089	808.679
91.870	25.614	1002.105	808.253
92.884	25.565	1001.038	807.098
93.899	25.291	1000.440	805.315
94.914	25.316	999.331	804.466
95.928	25.521	998.263	804.451
96.943	25.471	997.668	803.679
97.957	25.215	996.420	801.457
98.972	25.009	995.673	799.864
99.987	24.782	994.416	797.774
101.001	24.888	993.961	797.809
102.016	25.221	993.651	798.975
103.030	25.308	992.662	798.494
104.045	25.254	991.537	797.279
105.060	25.246	990.274	796.157
106.074	24.939	989.408	794.032
107.089	25.009	988.639	793.652
108.103	25.082	988.404	793.718
109.118	25.329	987.376	793.915
110.133	25.166	986.118	792.111
111.147	24.979	985.667	790.853
112.162	24.989	984.292	789.726
113.176	24.639	982.845	786.956
114.191	24.821	982.736	787.597
115.206	24.946	981.743	787.284
116.220	24.713	980.423	785.131
117.235	24.654	979.424	784.004
118.249	24.783	979.010	784.166
119.264	24.759	977.963	783.153
120.279	24.756	976.724	782.078
121.293	24.702	976.429	781.537
122.308	24.644	975.916	780.803
123.322	24.710	975.001	780.290
124.337	24.695	973.838	779.225
125.352	24.681	972.841	778.300
126.366	24.248	971.172	775.012
127.381	23.765	969.741	771.706
128.395	24.391	969.974	774.539
129.410	25.115	969.439	777.186
130.424	25.382	968.612	777.610
131.439	25.283	967.555	776.264
132.454	25.135	967.005	775.113
133.468	25.274	966.043	774.873
134.483	25.114	965.095	773.354
135.497	25.194	964.369	773.050
136.512	25.465	963.695	773.608
137.527	25.473	963.366	773.310
138.541	25.474	962.330	772.413
139.556	25.439	961.872	771.828
140.570	25.482	960.553	770.884
141.585	25.434	960.281	770.394
142.600	25.485	959.781	770.144
143.614	25.377	958.604	768.669
144.629	25.628	957.727	768.968
145.643	25.840	957.194	769.378
146.658	25.654	956.071	767.615
147.673	25.357	955.425	765.760
148.687	25.438	953.680	764.639
149.702	25.465	952.458	763.709
150.716	25.362	951.161	762.163
151.731	25.216	950.750	761.149
152.746	25.225	950.266	760.733
153.760	25.496	949.475	761.178
154.775	25.532	949.107	760.966
155.789	25.601	948.249	760.505
156.804	25.617	947.141	759.616
157.819	25.619	945.939	758.592
158.833	25.671	945.343	758.269
159.848	25.748	944.524	757.866
160.862	25.703	944.115	757.281
161.877	25.622	943.107	756.066
162.892	25.484	942.400	754.855
163.906	25.595	941.514	754.543
164.921	25.514	940.731	753.508
165.935	25.490	939.240	752.149
166.950	25.566	938.313	751.655
167.964	25.585	937.037	750.648
168.979	25.668	936.265	750.308
169.994	25.483	935.106	748.545
171.008	25.493	934.188	747.785
172.023	25.642	933.536	747.816
173.037	25.826	932.691	747.838
174.052	25.388	932.105	745.483
175.067	25.292	931.052	744.176
176.081	25.310	930.057	743.390
177.096	25.325	929.678	743.084
178.110	25.430	928.476	742.490
179.125	25.268	927.623	741.072
180.140	24.859	926.761	738.630
181.154	24.989	926.022	738.513
182.169	25.072	925.511	738.381
183.183	25.310	925.191	739.040
184.198	25.703	924.530	740.064
185.213	25.652	923.973	739.343
186.227	25.428	923.479	737.962
187.242	25.640	922.850	738.266
188.256	25.607	922.216	737.556
189.271	25.657	921.431	737.069
190.286	25.729	920.650	736.674
191.300	25.570	919.318	734.893
192.315	24.933	918.431	731.516
193.329	24.130	917.174	727.174
194.344	23.701	915.982	724.417
195.359	24.405	916.323	727.492
196.373	25.324	916.671	731.452
197.388	25.761	916.146	732.747
198.402	25.529	915.844	731.496
199.417	25.490	915.299	730.838
200.432	25.553	914.658	730.519
201.446	25.491	913.940	729.626
202.461	25.158	913.252	727.664
203.475	25.129	912.988	727.272
204.490	24.723	911.347	724.253
205.504	23.646	909.005	717.977
206.519	23.920	909.495	719.408
207.534	25.002	909.612	723.809
208.548	24.935	909.228	723.173
209.563	25.474	908.555	724.747
210.577	25.517	907.950	724.373
211.592	25.177	907.280	722.403
212.607	25.504	907.182	723.581
213.621	25.796	906.532	724.173
214.636	25.595	906.232	723.059
215.650	25.761	905.312	722.927
216.665	25.584	904.754	721.709
217.680	25.733	904.218	721.815
218.694	25.629	904.218	721.333
219.709	25.433	902.946	719.468
220.723	25.146	901.926	717.445
221.738	25.288	901.393	717.528
222.753	25.404	900.859	717.499
223.767	25.475	900.261	717.246
224.782	25.589	899.426	716.969
225.796	25.815	899.007	717.471
226.811	25.861	898.592	717.263
227.826	25.437	896.991	714.235
228.840	24.732	895.361	710.078
229.855	24.553	894.872	708.914
230.869	24.874	894.918	710.162
231.884	24.483	894.198	707.976
232.899	24.382	893.649	707.079
233.913	25.314	893.553	710.633
234.928	25.538	893.065	711.068
235.942	25.344	892.561	709.836
236.957	25.341	892.016	709.329
237.972	25.227	890.607	707.695
238.986	25.005	890.384	706.581
240.001	25.080	889.757	706.317
241.015	25.100	889.252	705.933
242.030	25.258	888.605	705.978
243.045	25.385	887.963	705.902
244.059	25.390	887.803	705.732
245.074	25.548	887.549	706.090
246.088	25.673	886.226	705.464
247.103	25.208	885.299	702.844
248.117	25.147	885.316	702.557
249.132	25.795	885.102	704.858
250.147	26.123	884.629	705.705
251.161	26.311	883.815	705.728
252.176	26.437	883.475	705.885
253.190	26.339	883.144	705.176
254.205	26.373	882.841	705.003
255.220	26.575	882.111	705.146
256.234	26.619	881.128	704.469
257.249	26.405	880.683	703.220
258.263	26.334	879.775	702.155
259.278	26.332	879.740	702.057
260.293	26.307	879.476	701.687
261.307	26.483	878.742	701.720
262.322	26.406	877.851	700.649
263.336	26.291	877.379	699.765
264.351	25.736	876.084	696.525
265.366	24.785	873.977	691.117
266.380	24.271	873.239	688.488
267.395	25.259	873.412	692.377
268.409	25.974	873.682	695.287
269.424	25.933	872.963	694.495
270.439	26.131	872.289	694.660
271.453	26.150	871.796	694.278
272.468	26.177	871.104	693.769
273.482	26.378	871.154	694.522
274.497	26.365	870.855	694.170
275.512	26.346	869.202	692.719
276.526	25.757	867.799	689.287
277.541	25.773	867.850	689.328
278.555	26.250	867.706	690.974
279.570	26.128	866.860	689.773
280.585	25.855	866.147	688.104
281.599	26.089	865.450	688.380
282.614	26.131	864.802	687.966
283.628	25.631	863.799	685.203
284.643	25.346	863.316	683.676
285.657	25.700	863.177	684.852
286.672	25.574	862.720	683.949
287.687	25.207	861.499	681.525
288.701	25.455	861.643	682.522
289.716	25.781	861.364	683.480
290.730	25.650	860.006	681.845
291.745	25.411	859.300	680.320
292.760	25.323	858.366	679.188
293.774	25.152	858.280	678.409
294.789	26.005	858.812	682.000
295.803	26.644	858.873	684.403
296.818	26.680	858.177	683.922
297.833	26.798	857.751	683.969
298.847	26.455	856.698	681.776
299.862	26.182	855.472	679.713
300.876	26.323	855.165	679.938
301.891	26.669	854.984	681.035
302.906	26.807	854.274	680.928
303.920	26.221	853.344	677.929
304.935	26.304	852.717	677.681
305.949	26.572	852.389	678.364
306.964	26.733	852.157	678.721
307.979	26.579	851.147	677.283
308.993	26.333	851.018	676.198
310.008	26.815	850.138	677.240
311.022	26.796	850.519	677.413
312.037	26.638	849.566	676.004
313.052	26.456	848.817	674.670
314.066	26.379	848.219	673.847
315.081	25.644	846.976	670.065
316.095	25.042	845.434	666.547
317.110	25.482	845.745	668.369
318.125	26.361	846.120	671.875
319.139	25.910	845.038	669.285
320.154	24.673	843.106	663.109
321.168	24.273	841.955	660.662
322.183	25.057	842.359	663.825
323.197	25.994	842.536	667.376
324.212	26.205	842.545	668.106
325.227	26.444	841.989	668.490
326.241	26.601	841.466	668.592
327.256	26.391	841.171	667.525
328.270	26.209	840.563	666.310
329.285	26.314	839.655	665.919
330.300	26.218	838.823	664.849
331.314	25.778	838.557	662.960
332.329	25.886	837.814	662.708
333.343	26.369	837.648	664.296
334.358	26.671	837.022	664.848
335.373	26.636	836.723	664.424
336.387	26.439	836.239	663.259
337.402	26.904	835.917	664.650
338.416	27.040	835.487	664.746
339.431	27.022	834.742	664.028
340.446	27.049	834.438	663.825
341.460	27.325	834.056	664.472
342.475	27.064	833.455	662.983
343.489	26.960	832.830	662.047
344.504	27.130	831.887	661.857
345.519	27.073	831.913	661.612
346.533	27.520	831.380	662.755
347.548	27.578	830.973	662.583
348.562	27.367	830.485	661.370
349.577	27.461	829.936	661.215
350.592	27.329	829.378	660.233
351.606	27.369	828.880	659.923
352.621	27.192	828.546	658.956
353.635	27.232	828.023	658.626
354.650	27.216	827.478	658.077
355.665	26.860	826.352	655.839
356.679	25.853	824.669	650.807
357.694	25.600	824.189	649.457
358.708	26.301	824.505	652.183
359.723	26.347	823.867	651.783
360.738	26.364	823.508	651.503
361.752	26.799	824.034	653.431
362.767	27.034	823.314	653.649
363.781	27.340	822.879	654.345
364.796	27.498	823.174	655.091
365.810	27.798	822.282	655.400
366.825	27.654	822.312	654.850
367.840	27.874	821.693	655.089
368.854	27.663	820.839	653.592
369.869	27.323	819.958	651.616
370.883	26.987	819.378	649.892
371.898	27.056	818.790	649.616
372.913	27.013	818.107	648.865
373.927	27.053	817.456	648.432
374.942	27.233	816.909	648.585
375.956	27.362	816.274	648.481
376.971	27.340	816.264	648.337
377.986	27.516	815.522	648.318
379.000	27.841	815.127	649.102
380.015	27.790	814.419	648.302
381.029	27.534	814.055	647.043
382.044	27.406	813.624	646.191
383.059	27.804	812.985	647.035
384.073	27.747	812.402	646.314
385.088	27.629	812.006	645.525
386.102	27.601	811.528	644.988
387.117	27.584	810.680	644.197
388.132	27.309	809.997	642.626
389.146	27.248	809.180	641.703
390.161	26.670	808.092	638.746
391.175	26.717	808.140	638.896
392.190	27.440	808.068	641.328
393.205	27.637	807.251	641.316
394.219	26.259	806.004	635.427
395.234	24.573	803.749	627.673
396.248	23.952	802.568	624.518
397.263	25.018	803.551	628.971
398.278	26.789	804.835	636.140
399.292	27.341	804.714	637.926
400.307	27.031	803.503	635.824
401.321	26.920	803.870	635.667
402.336	26.968	803.284	635.315
403.350	27.311	803.239	636.426
404.365	27.770	803.132	637.889
405.380	28.087	802.843	638.712
406.394	28.292	802.387	639.007
407.409	28.404	802.546	639.466
408.423	28.491	801.602	638.963
409.438	28.220	801.407	637.805
410.453	28.438	800.672	637.923
411.467	28.511	800.269	637.798
412.482	28.415	799.746	636.993
413.496	28.339	799.538	636.507
414.511	28.413	799.120	636.373
415.526	28.435	798.780	636.123
416.540	28.454	798.224	635.690
417.555	28.347	797.569	634.740
418.569	27.999	797.120	633.123
419.584	27.973	796.436	632.434
420.599	28.038	796.059	632.302
421.613	111.169	1285.372	1457.949
422.628	95.795	1356.638	1458.047
