DTS Sentinel unit serial number:	SN413079Multiplexer serial number:	ORYXHardware model number:	OX4-SRSoftware version number:	ORYX F/W v4.00 Oryx Data Collector v3.7.2.0data status	okinstallation	princeton_trtdifferential loss correction	single-endedforward channel	channel 3reverse channel	N/Adate	2019/09/17time	01:36:35forward acquisition time	60.00reverse acquisition time	0.00gamma	496.2192k internal	0.2324k external	0.2324temperature offset calibration	0.9944default loss term (dB/km)	0.3790temperature slope calibration	1.0000multiplexer offset coefficient	1.0000multiplexer slope coefficient	1.0000fibre end	0.00T internal ref (°C)	29.55T ext. ref 1 (°C)	0.11T ext. ref 2 (°C)	24.50length (m)	temperature (°C)	Stokes	anti-Stokes-747.200	-111.213	-0.190	0.039
-746.185	-57.960	0.067	0.030
-745.171	93.706	0.063	-0.072
-744.156	-200.000	-0.020	0.489
-743.142	-3.558	0.214	0.151
-742.127	-103.389	-0.386	-0.092
-741.112	-35.177	0.121	-0.066
-740.098	529.875	-0.076	0.180
-739.083	-125.117	-0.172	0.027
-738.069	-200.000	-0.098	0.445
-737.054	163.484	0.147	0.208
-736.039	-200.000	-0.037	-0.182
-735.025	212.536	-0.103	0.163
-734.010	-200.000	-0.051	0.256
-732.996	60.148	-0.222	0.221
-731.981	-104.294	-0.244	0.057
-730.966	-174.604	-0.165	-0.005
-729.952	-96.248	-0.291	-0.078
-728.937	21.251	0.109	-0.090
-727.923	-200.000	-0.013	0.122
-726.908	103.422	-0.204	-0.241
-725.894	-144.563	0.143	-0.013
-724.879	52.948	-0.029	-0.028
-723.864	-67.021	-0.285	-0.113
-722.850	800.000	0.024	-0.079
-721.835	-4.240	-0.115	-0.080
-720.821	748.935	0.028	-0.075
-719.806	54.511	0.059	-0.057
-718.791	-97.849	-0.277	-0.072
-717.777	-45.783	-0.096	-0.048
-716.762	-60.756	-0.176	0.075
-715.748	56.833	-0.062	-0.061
-714.733	120.225	-0.100	-0.126
-713.718	800.000	-0.095	-0.289
-712.704	16.869	-0.077	-0.062
-711.689	800.000	-0.083	-0.242
-710.675	262.877	-0.124	0.217
-709.660	-91.170	0.268	-0.078
-708.645	96.455	0.128	0.148
-707.631	-37.907	-0.221	-0.119
-706.616	59.796	0.292	0.291
-705.602	3.254	0.059	-0.043
-704.587	-108.526	-0.014	-0.003
-703.572	-200.000	-0.049	-0.265
-702.558	800.000	0.071	-0.250
-701.543	800.000	0.059	-0.198
-700.529	93.950	0.236	-0.269
-699.514	-47.366	-0.392	-0.192
-698.499	101.741	0.281	0.330
-697.485	-39.292	0.159	-0.084
-696.470	207.194	0.087	0.137
-695.456	-86.363	-0.265	-0.082
-694.441	-90.643	0.512	-0.149
-693.426	-78.703	0.168	0.058
-692.412	203.454	-0.112	-0.175
-691.397	-29.249	-0.111	-0.064
-690.383	90.403	-0.192	-0.217
-689.368	448.925	-0.142	-0.316
-688.354	51.471	-0.072	-0.069
-687.339	108.021	0.142	0.170
-686.324	-200.000	-0.036	-0.173
-685.310	-27.413	-0.325	-0.190
-684.295	800.000	0.142	-0.412
-683.281	-78.890	0.262	-0.090
-682.266	155.032	-0.026	0.036
-681.251	-131.930	-0.092	-0.012
-680.237	-200.000	0.028	0.234
-679.222	165.382	-0.076	0.108
-678.208	511.717	-0.189	0.443
-677.193	800.000	-0.063	-0.226
-676.178	800.000	-0.015	0.065
-675.164	-35.839	0.277	-0.151
-674.149	-200.000	0.048	-0.260
-673.135	-72.105	-0.090	0.034
-672.120	141.275	-0.120	-0.160
-671.105	-16.658	-0.150	0.096
-670.091	27.178	0.144	0.121
-669.076	-33.313	0.338	-0.188
-668.062	-200.000	0.004	-0.102
-667.047	174.039	-0.093	0.136
-666.032	206.723	-0.146	0.229
-665.018	71.222	0.054	-0.056
-664.003	-119.316	0.240	-0.042
-662.989	-144.355	0.492	-0.046
-661.974	-180.612	-0.144	0.003
-660.959	-106.956	0.245	0.055
-659.945	-130.268	-0.345	0.047
-658.930	46.715	-0.085	0.080
-657.916	58.965	0.098	0.097
-656.901	-64.060	0.283	-0.116
-655.886	800.000	0.058	0.195
-654.872	19.421	0.073	-0.059
-653.857	20.264	0.279	-0.227
-652.843	800.000	0.018	0.054
-651.828	556.703	0.034	-0.082
-650.814	-144.252	-0.386	0.036
-649.799	-80.951	-0.138	-0.046
-648.784	584.978	-0.084	0.208
-647.770	800.000	0.045	0.145
-646.755	-182.784	0.254	-0.005
-645.741	-200.000	0.001	-0.361
-644.726	-90.175	-0.206	0.060
-643.711	-200.000	0.040	-0.268
-642.697	800.000	-0.079	-0.243
-641.682	504.422	0.104	-0.241
-640.668	321.641	-0.048	-0.091
-639.653	-200.000	-0.002	-0.158
-638.638	71.891	-0.253	-0.264
-637.624	-75.640	-0.248	-0.088
-636.609	800.000	0.057	-0.203
-635.595	-12.581	-0.380	0.249
-634.580	403.183	-0.107	0.226
-633.565	-200.000	-0.012	-0.110
-632.551	-146.399	-0.211	0.019
-631.536	78.893	0.108	-0.116
-630.522	800.000	0.094	0.301
-629.507	-172.264	-0.249	0.008
-628.492	-200.000	0.002	0.100
-627.478	-36.454	-0.431	0.233
-626.463	800.000	0.015	-0.048
-625.449	-60.121	0.207	0.089
-624.434	-24.341	0.061	0.036
-623.419	-76.114	0.110	-0.039
-622.405	-0.790	-0.166	0.118
-621.390	163.741	-0.062	-0.088
-620.376	-8.581	0.318	0.214
-619.361	-200.000	0.026	0.128
-618.346	264.213	-0.119	-0.208
-617.332	-200.000	-0.009	-0.452
-616.317	87.504	0.089	-0.099
-615.303	-5.524	0.407	-0.281
-614.288	-53.656	-0.214	0.098
-613.273	-200.000	0.006	-0.268
-612.259	-200.000	0.019	0.086
-611.244	173.174	-0.114	-0.165
-610.230	33.492	0.084	0.073
-609.215	196.514	0.092	0.141
-608.201	72.651	0.105	-0.111
-607.186	-126.260	0.101	-0.015
-606.171	437.156	-0.051	-0.111
-605.157	-140.811	0.110	-0.011
-604.142	-200.000	0.022	0.262
-603.128	34.930	-0.171	0.150
-602.113	800.000	0.084	-0.337
-601.098	129.176	0.069	0.088
-600.084	180.058	-0.116	-0.170
-599.069	-18.131	-0.127	0.080
-598.055	-45.250	-0.342	-0.171
-597.040	243.244	-0.087	0.146
-596.025	554.773	0.033	-0.081
-595.011	156.759	-0.153	0.212
-593.996	800.000	0.019	-0.070
-592.982	-200.000	0.071	0.446
-591.967	-200.000	-0.049	-0.263
-590.952	-82.024	-0.266	-0.087
-589.938	-200.000	-0.024	0.130
-588.923	-20.821	0.022	-0.013
-587.909	800.000	0.066	0.243
-586.894	245.667	-0.109	0.183
-585.879	-109.390	0.267	0.057
-584.865	-139.265	0.284	-0.031
-583.850	-200.000	0.003	-0.133
-582.836	-80.038	0.462	-0.156
-581.821	-3.347	-0.269	-0.188
-580.806	800.000	0.026	-0.100
-579.792	-58.047	-0.217	0.095
-578.777	-23.120	-0.229	0.138
-577.763	800.000	-0.012	0.048
-576.748	252.679	0.184	0.315
-575.733	-200.000	0.013	0.096
-574.719	-84.147	0.198	0.063
-573.704	800.000	0.071	0.202
-572.690	-200.000	-0.006	-0.119
-571.675	129.732	0.155	0.199
-570.661	-101.013	0.259	-0.064
-569.646	-172.275	0.352	-0.011
-568.631	-200.000	0.005	-0.124
-567.617	27.980	0.301	-0.255
-566.602	486.460	-0.077	-0.175
-565.588	-127.084	-0.152	-0.022
-564.573	-10.013	0.194	-0.129
-563.558	-5.908	-0.406	-0.278
-562.544	162.901	0.169	-0.238
-561.529	128.411	0.093	-0.119
-560.515	800.000	-0.013	0.043
-559.500	-200.000	0.009	-0.216
-558.485	114.209	-0.118	0.144
-557.471	800.000	-0.077	0.283
-556.456	-48.901	-0.165	-0.079
-555.442	-14.462	0.048	0.031
-554.427	-87.166	-0.185	0.056
-553.412	-140.588	-0.090	0.009
-552.398	-200.000	0.012	-0.278
-551.383	-112.953	-0.165	-0.033
-550.369	69.090	0.259	-0.266
-549.354	800.000	0.055	-0.217
-548.339	-200.000	0.005	0.036
-547.325	-200.000	0.042	-0.260
-546.310	-36.344	-0.274	0.148
-545.296	53.760	-0.147	0.141
-544.281	58.902	-0.123	0.121
-543.266	39.018	0.086	0.077
-542.252	800.000	0.007	0.023
-541.237	-102.755	0.258	0.062
-540.223	294.334	-0.133	0.244
-539.208	566.187	-0.076	0.184
-538.193	-200.000	-0.050	0.422
-537.179	-137.656	-0.041	-0.005
-536.164	204.803	0.178	0.276
-535.150	-49.512	-0.268	-0.128
-534.135	800.000	0.121	-0.371
-533.121	-37.518	0.123	0.066
-532.106	-7.909	-0.237	-0.160
-531.091	97.919	-0.079	0.091
-530.077	-118.453	0.160	0.028
-529.062	-1.875	-0.175	0.123
-528.048	-192.600	-0.143	-0.001
-527.033	2.103	0.072	0.052
-526.018	-200.000	0.006	-0.226
-525.004	-200.000	0.006	-0.333
-523.989	-23.969	-0.163	0.097
-522.975	-200.000	-0.031	-0.187
-521.960	-130.984	-0.109	0.015
-520.945	-200.000	-0.033	0.229
-519.931	282.675	0.044	-0.079
-518.916	-178.725	-0.306	-0.007
-517.902	-200.000	0.018	-0.183
-516.887	-172.264	0.163	-0.005
-515.872	800.000	-0.084	0.235
-514.858	225.548	-0.168	0.272
-513.843	-200.000	-0.009	-0.074
-512.829	1.640	0.235	-0.169
-511.814	-200.000	-0.006	-0.374
-510.799	0.046	0.270	-0.192
-509.785	-171.297	-0.181	-0.006
-508.770	-119.561	-0.157	0.027
-507.756	800.000	-0.018	0.058
-506.741	50.699	0.148	-0.140
-505.726	-63.628	0.209	-0.086
-504.712	-200.000	-0.093	-0.427
-503.697	-31.749	-0.383	0.215
-502.683	111.605	-0.074	-0.090
-501.668	-12.256	0.315	0.206
-500.653	-200.000	0.041	0.271
-499.639	207.977	0.004	0.007
-498.624	-113.604	-0.437	-0.085
-497.610	800.000	-0.016	0.047
-496.595	-133.427	-0.208	0.026
-495.581	-65.082	-0.297	-0.120
-494.566	-148.950	0.173	-0.014
-493.551	424.180	-0.107	-0.230
-492.537	-14.621	0.392	-0.252
-491.522	-37.698	0.143	0.076
-490.508	-200.000	0.004	-0.091
-489.493	-45.481	0.170	0.084
-488.478	-79.674	0.156	0.052
-487.464	716.272	-0.066	-0.175
-486.449	-41.942	0.068	-0.035
-485.435	-140.409	0.184	0.019
-484.420	-200.000	0.051	-0.353
-483.405	-200.000	0.004	-0.274
-482.391	800.000	-0.048	-0.138
-481.376	-22.743	0.079	-0.048
-480.362	213.429	-0.017	0.026
-479.347	800.000	-0.047	0.166
-478.332	350.346	-0.095	-0.188
-477.318	-200.000	-0.054	-0.316
-476.303	-119.546	-0.075	0.013
-475.289	-88.455	-0.118	-0.035
-474.274	311.398	0.067	-0.125
-473.259	20.681	0.101	0.082
-472.245	-200.000	-0.007	0.195
-471.230	-66.849	0.390	-0.154
-470.216	210.357	0.058	-0.091
-469.201	-60.221	0.208	-0.089
-468.186	-29.388	0.156	0.089
-467.172	-138.670	0.062	-0.007
-466.157	-40.715	-0.154	0.080
-465.143	-167.950	0.220	-0.009
-464.128	-129.139	0.270	-0.038
-463.113	338.788	0.086	0.166
-462.099	-200.000	0.017	0.269
-461.084	-66.494	-0.066	-0.026
-460.070	-118.387	-0.055	0.010
-459.055	-8.081	0.167	-0.113
-458.040	241.610	-0.092	0.153
-457.026	-42.715	0.242	0.123
-456.011	95.642	0.236	-0.269
-454.997	27.635	0.099	-0.083
-453.982	800.000	-0.020	-0.074
-452.968	-200.000	0.031	-0.202
-451.953	5.111	-0.115	0.084
-450.938	-200.000	0.041	0.192
-449.924	138.048	-0.084	0.110
-448.909	800.000	0.052	0.213
-447.895	-19.818	0.190	-0.117
-446.880	-87.996	0.234	0.070
-445.865	-200.000	-0.058	0.410
-444.851	-26.658	0.096	0.056
-443.836	800.000	0.088	-0.262
-442.822	292.530	0.083	-0.150
-441.807	205.303	0.056	-0.087
-440.792	108.046	0.053	0.062
-439.778	193.804	0.068	-0.103
-438.763	800.000	0.128	0.376
-437.749	-100.724	-0.349	0.086
-436.734	-200.000	0.008	-0.085
-435.719	51.498	-0.109	-0.103
-434.705	-151.935	-0.197	-0.014
-433.690	66.734	-0.086	-0.087
-432.676	784.569	-0.128	-0.350
-431.661	69.190	-0.097	-0.099
-430.646	132.134	-0.108	0.138
-429.632	50.316	0.152	-0.143
-428.617	649.479	-0.125	-0.320
-427.603	-130.706	-0.161	0.022
-426.588	-117.980	0.120	-0.021
-425.573	-200.000	0.019	0.377
-424.559	-65.286	0.183	0.074
-423.544	69.042	0.167	0.171
-422.530	-200.000	-0.010	-0.286
-421.515	-58.346	-0.279	-0.121
-420.500	-145.338	-0.384	-0.035
-419.486	-26.801	0.073	0.043
-418.471	800.000	-0.012	0.040
-417.457	174.639	0.166	0.239
-416.442	-200.000	-0.022	-0.158
-415.428	244.526	-0.199	-0.333
-414.413	10.222	0.246	0.186
-413.398	608.153	-0.075	-0.186
-412.384	23.246	-0.160	0.131
-411.369	40.762	0.183	0.165
-410.355	-200.000	-0.006	0.136
-409.340	-59.085	-0.089	-0.038
-408.325	-129.378	-0.163	-0.023
-407.311	-31.033	0.104	0.059
-406.296	-183.191	-0.244	-0.004
-405.282	-200.000	-0.002	0.143
-404.267	18.984	0.168	0.134
-403.252	560.931	0.040	-0.095
-402.238	618.948	0.073	-0.183
-401.223	-87.274	-0.054	0.016
-400.209	-200.000	-0.062	-0.285
-399.194	154.771	-0.202	-0.276
-398.179	309.818	0.160	0.298
-397.165	149.106	0.197	0.266
-396.150	-200.000	-0.030	0.258
-395.136	30.290	0.160	-0.136
-394.121	33.766	0.274	0.237
-393.106	58.411	0.181	0.177
-392.092	302.776	0.074	-0.136
-391.077	475.548	-0.047	-0.105
-390.063	-59.884	0.506	-0.215
-389.048	-193.662	0.615	-0.005
-388.033	523.146	0.155	0.363
-387.019	-49.121	-0.201	0.096
-386.004	-137.324	-0.274	0.031
-384.990	639.743	-0.029	0.072
-383.975	800.000	-0.033	-0.119
-382.960	-200.000	0.045	-0.454
-381.946	800.000	0.050	0.150
-380.931	-200.000	0.033	0.148
-379.917	45.374	-0.096	-0.088
-378.902	303.770	-0.132	0.244
-377.888	800.000	0.040	-0.149
-376.873	-30.274	0.189	0.107
-375.858	231.932	-0.178	-0.291
-374.844	252.223	-0.079	0.133
-373.829	220.719	-0.245	0.392
-372.815	-200.000	-0.046	0.335
-371.800	530.604	0.092	-0.216
-370.785	10.174	0.125	0.095
-369.771	126.470	0.125	0.158
-368.756	141.296	-0.191	0.251
-367.742	51.267	0.149	0.140
-366.727	548.399	-0.059	0.140
-365.712	800.000	0.035	-0.119
-364.698	-35.280	-0.168	0.091
-363.683	-200.000	0.002	0.062
-362.669	-200.000	-0.033	0.385
-361.654	-80.320	0.094	0.031
-360.639	18.224	-0.008	-0.007
-359.625	-200.000	0.029	-0.127
-358.610	-200.000	-0.037	0.329
-357.596	367.857	-0.055	-0.110
-356.581	69.661	0.151	-0.155
-355.566	-32.390	-0.314	0.174
-354.552	-114.028	-0.279	0.054
-353.537	138.754	0.129	0.169
-352.523	-200.000	-0.007	0.148
-351.508	-46.831	-0.225	-0.110
-350.493	-200.000	-0.021	-0.370
-349.479	-41.249	0.242	-0.124
-348.464	-200.000	-0.015	0.122
-347.450	176.375	-0.093	0.134
-346.435	42.433	0.057	-0.052
-345.420	-109.549	0.178	-0.037
-344.406	-114.314	-0.269	0.052
-343.391	-200.000	-0.056	0.254
-342.377	-12.779	0.285	-0.185
-341.362	3.856	-0.074	0.054
-340.348	-63.439	0.403	0.165
-339.333	-49.194	0.293	-0.139
-338.318	-119.416	0.367	0.063
-337.304	70.380	-0.067	-0.069
-336.289	-200.000	0.004	-0.172
-335.275	609.118	-0.112	0.278
-334.260	-113.141	0.101	0.020
-333.245	-134.481	0.233	-0.028
-332.231	-50.835	0.246	0.115
-331.216	196.848	-0.098	0.149
-330.202	281.527	0.047	-0.083
-329.187	674.810	-0.195	-0.503
-328.172	188.440	-0.095	0.142
-327.158	-82.386	-0.134	0.043
-326.143	-70.421	-0.377	0.142
-325.129	217.768	-0.054	0.085
-324.114	-54.088	-0.388	0.175
-323.099	-43.694	-0.357	-0.179
-322.085	93.461	0.247	0.278
-321.070	-76.698	-0.191	0.066
-320.056	-89.712	-0.304	0.088
-319.041	-108.049	-0.245	0.053
-318.026	800.000	-0.096	0.373
-317.012	800.000	-0.024	0.082
-315.997	78.832	0.111	0.118
-314.983	-200.000	-0.013	-0.346
-313.968	-94.681	0.234	0.063
-312.953	57.425	0.156	-0.151
-311.939	800.000	0.050	-0.155
-310.924	-200.000	0.035	0.332
-309.910	-87.369	0.100	-0.030
-308.895	-200.000	-0.012	0.058
-307.880	-200.000	-0.006	0.182
-306.866	-200.000	0.039	-0.216
-305.851	119.375	0.215	-0.263
-304.837	-200.000	-0.027	0.127
-303.822	800.000	0.112	0.348
-302.807	-200.000	0.013	0.301
-301.793	-150.270	0.356	-0.027
-300.778	85.100	0.062	0.068
-299.764	-200.000	-0.048	0.445
-298.749	-40.165	-0.250	-0.129
-297.735	78.998	-0.154	-0.164
-296.720	189.550	-0.044	-0.066
-295.705	-200.000	0.034	-0.200
-294.691	-122.531	-0.118	0.019
-293.676	-200.000	-0.258	0.000
-292.662	800.000	-0.050	-0.160
-291.647	18.582	0.154	0.122
-290.632	-200.000	0.057	-0.261
-289.618	102.885	0.271	-0.315
-288.603	-53.726	-0.299	-0.136
-287.589	-68.637	0.374	0.144
-286.574	-200.000	0.018	-0.105
-285.559	-73.966	0.265	0.095
-284.545	9.658	-0.213	0.160
-283.530	312.776	0.060	-0.111
-282.516	-88.521	-0.052	0.015
-281.501	-158.912	0.152	0.009
-280.486	-124.032	-0.502	0.078
-279.472	297.744	0.079	0.145
-278.457	-200.000	0.021	0.395
-277.443	-139.809	0.300	0.032
-276.428	581.952	0.074	0.181
-275.413	56.722	-0.252	0.243
-274.399	30.980	0.271	0.230
-273.384	-5.837	-0.216	0.146
-272.370	21.793	0.106	-0.086
-271.355	-73.674	0.159	0.057
-270.340	178.243	0.106	0.154
-269.326	277.064	0.023	-0.040
-268.311	-178.305	-0.333	0.008
-267.297	-200.000	-0.007	-0.207
-266.282	209.582	-0.116	0.180
-265.267	800.000	0.082	-0.232
-264.253	-200.000	-0.027	-0.336
-263.238	30.125	-0.111	-0.093
-262.224	-168.430	-0.242	0.009
-261.209	9.550	0.125	-0.094
-260.195	800.000	0.082	-0.282
-259.180	314.675	0.106	0.197
-258.165	103.733	-0.196	0.228
-257.151	446.763	0.235	-0.511
-256.136	-200.000	-0.019	-0.209
-255.122	229.233	-0.082	-0.132
-254.107	-200.000	0.048	0.333
-253.092	-200.000	-0.211	0.000
-252.078	-200.000	-0.029	-0.140
-251.063	212.194	-0.018	-0.027
-250.049	-136.843	0.055	-0.006
-249.034	333.332	0.073	-0.140
-248.019	-50.073	-0.091	-0.043
-247.005	285.681	0.030	-0.054
-245.990	800.000	0.036	-0.133
-244.976	-127.232	0.338	0.049
-243.961	-142.638	0.164	0.016
-242.946	800.000	-0.087	-0.338
-241.932	23.432	0.140	-0.114
-240.917	-87.734	-0.166	0.050
-239.903	800.000	0.038	-0.117
-238.888	800.000	0.055	0.152
-237.873	-26.980	0.123	0.071
-236.859	187.172	0.052	0.077
-235.844	-200.000	0.013	-0.156
-234.830	69.571	0.221	0.225
-233.815	46.643	-0.134	0.123
-232.800	-200.000	0.003	-0.078
-231.786	157.451	-0.096	0.132
-230.771	88.204	0.295	-0.324
-229.757	240.188	-0.082	0.135
-228.742	-200.000	-0.020	-0.216
-227.727	713.032	-0.023	-0.059
-226.713	247.450	0.116	0.194
-225.698	469.151	0.206	0.457
-224.684	-126.367	-0.034	-0.005
-223.669	404.429	-0.079	-0.164
-222.655	-66.916	-0.245	-0.096
-221.640	184.753	0.102	-0.150
-220.625	-147.481	0.277	0.023
-219.611	-200.000	-0.036	0.278
-218.596	-119.756	-0.078	-0.013
-217.582	237.018	-0.090	0.147
-216.567	-113.390	-0.476	0.092
-215.552	-177.144	0.277	0.007
-214.538	124.998	-0.094	0.117
-213.523	-98.243	0.237	-0.060
-212.509	73.620	-0.165	-0.171
-211.494	53.176	0.086	0.082
-210.479	689.248	-0.032	-0.082
-209.465	-63.020	-0.209	0.085
-208.450	-157.843	0.320	-0.019
-207.436	579.137	0.067	0.162
-206.421	68.561	-0.332	-0.337
-205.406	800.000	0.029	0.117
-204.392	61.263	-0.154	0.152
-203.377	-149.875	0.272	-0.021
-202.363	-35.688	0.201	-0.108
-201.348	129.068	-0.127	0.160
-200.333	-200.000	0.003	0.032
-199.319	484.168	0.110	0.248
-198.304	243.648	0.033	-0.055
-197.290	-200.000	0.017	-0.185
-196.275	-69.152	-0.264	-0.100
-195.260	34.751	0.202	0.174
-194.246	-200.000	0.009	-0.179
-193.231	-69.174	0.219	0.083
-192.217	-23.243	-0.091	0.054
-191.202	773.398	-0.071	-0.191
-190.187	102.990	-0.157	0.182
-189.173	-200.000	0.042	-0.262
-188.158	-164.119	0.218	-0.010
-187.144	-3.581	0.270	-0.185
-186.129	101.228	0.188	0.216
-185.114	-36.021	0.222	0.118
-184.100	-88.144	-0.172	-0.051
-183.085	800.000	-0.131	0.435
-182.071	800.000	0.106	0.294
-181.056	800.000	-0.057	0.215
-180.042	800.000	-0.090	0.307
-179.027	-96.541	0.111	-0.029
-178.012	387.651	-0.041	0.084
-176.998	-116.007	-0.117	-0.021
-175.983	74.827	-0.178	0.185
-174.969	86.163	-0.108	0.117
-173.954	-48.037	-0.310	-0.148
-172.939	-35.328	-0.234	-0.125
-171.925	288.214	-0.183	0.326
-170.910	-126.328	-0.486	-0.072
-169.896	224.372	0.137	-0.218
-168.881	-32.974	-0.206	-0.113
-167.866	65.849	-0.186	-0.186
-166.852	-200.000	0.051	0.238
-165.837	-142.759	0.105	0.010
-164.823	-84.924	-0.209	-0.065
-163.808	123.810	-0.191	-0.236
-162.793	184.780	0.025	-0.037
-161.779	738.874	0.011	0.029
-160.764	-143.024	0.182	0.017
-159.750	84.906	0.215	-0.233
-158.735	-11.466	0.321	0.208
-157.720	-142.360	-0.115	-0.011
-156.706	-200.000	0.003	-0.132
-155.691	110.511	-0.097	0.115
-154.677	-200.000	-0.013	-0.108
-153.662	-2.342	-0.078	-0.054
-152.647	800.000	0.077	-0.275
-151.633	-55.130	-0.603	-0.268
-150.618	8.908	-0.165	-0.123
-149.604	31.755	0.225	-0.191
-148.589	148.543	-0.230	0.306
-147.574	19.434	0.124	-0.099
-146.560	55.085	-0.106	-0.101
-145.545	-115.832	-0.381	-0.070
-144.531	800.000	0.044	0.140
-143.516	2.567	-0.107	-0.077
-142.502	543.236	-0.054	-0.128
-141.487	659.813	0.135	-0.342
-140.472	-37.146	-0.152	0.080
-139.458	717.894	0.064	0.168
-138.443	-99.714	0.121	-0.030
-137.429	-15.885	0.142	0.089
-136.414	411.762	-0.125	0.263
-135.399	-56.044	-0.159	-0.070
-134.385	-59.951	0.126	0.053
-133.370	-35.111	-0.228	-0.122
-132.356	-157.219	-0.015	-0.001
-131.341	546.597	-0.104	0.245
-130.326	517.034	0.058	-0.134
-129.312	-200.000	0.054	-0.292
-128.297	-200.000	0.072	0.352
-127.283	680.096	0.097	0.248
-126.268	-200.000	-0.011	0.197
-125.253	-200.000	-0.029	-0.359
-124.239	-146.554	0.121	0.010
-123.224	-140.481	0.078	-0.008
-122.210	645.647	0.128	-0.321
-121.195	-93.341	0.260	0.071
-120.180	-56.282	0.421	0.185
-119.166	-200.000	-0.006	0.289
-118.151	345.082	0.072	0.140
-117.137	39.786	0.124	0.110
-116.122	-121.364	-0.238	-0.039
-115.107	-200.000	-0.010	-0.125
-114.093	345.045	0.070	0.135
-113.078	-200.000	0.009	0.113
-112.064	-200.000	0.003	-0.088
-111.049	-200.000	0.018	0.202
-110.034	-200.000	0.001	-0.396
-109.020	-82.975	0.046	0.015
-108.005	-25.699	0.198	0.115
-106.991	800.000	-0.020	0.075
-105.976	-85.858	0.101	0.031
-104.962	154.840	-0.226	-0.306
-103.947	-160.775	0.253	0.013
-102.932	-170.295	-0.389	0.013
-101.918	-137.628	-0.660	0.073
-100.903	-115.007	0.320	-0.060
-99.889	-63.757	0.352	0.142
-98.874	224.070	0.046	-0.073
-97.859	-200.000	0.024	0.107
-96.845	-78.599	0.331	-0.111
-95.830	-200.000	-0.010	0.072
-94.816	66.962	0.115	-0.115
-93.801	101.797	-0.137	0.157
-92.786	-180.457	-0.210	0.004
-91.772	-84.555	0.331	-0.103
-90.757	11.950	-0.087	-0.066
-89.743	305.660	-0.063	-0.116
-88.728	-9.295	-0.168	0.111
-87.713	-127.419	-0.505	-0.072
-86.699	-97.010	0.019	0.005
-85.684	24.016	0.134	-0.109
-84.670	-75.818	-0.151	0.053
-83.655	664.943	-0.048	-0.122
-82.640	-77.563	0.132	0.045
-81.626	-106.362	0.386	-0.085
-80.611	-131.418	-0.147	-0.019
-79.597	-200.000	0.007	0.224
-78.582	32.872	-0.123	0.104
-77.567	-200.000	0.038	-0.411
-76.553	800.000	0.063	-0.207
-75.538	-131.748	-0.154	-0.020
-74.524	800.000	-0.096	-0.295
-73.509	52.510	-0.297	0.279
-72.494	-200.000	-0.003	0.217
-71.480	147.901	-0.231	0.307
-70.465	-200.000	0.011	-0.299
-69.451	-200.000	-0.073	-0.327
-68.436	733.150	-0.026	-0.067
-67.422	-200.000	-0.035	-0.160
-66.407	-84.858	0.430	-0.133
-65.392	-77.304	-0.379	-0.130
-64.378	123.056	-0.222	0.274
-63.363	-200.000	0.029	0.241
-62.349	212.445	0.097	-0.150
-61.334	-11.395	-1.348	-0.872
-60.319	299.694	0.508	0.921
-59.305	-200.000	-0.126	-0.543
-58.290	184.173	0.668	0.971
-57.276	599.727	0.682	1.662
-56.261	-200.000	108.401	587.227
-55.246	443.675	1478.960	3186.323
-54.232	147.039	2661.183	3516.835
-53.217	104.772	2178.195	2522.301
-52.203	39.622	1709.867	1506.140
-51.188	32.630	1523.610	1294.205
-50.173	30.321	1497.535	1256.399
-49.159	50.977	1553.160	1446.125
-48.144	51.334	1569.616	1463.852
-47.130	32.869	1525.971	1297.655
-46.115	29.882	1511.031	1264.522
-45.100	29.602	1507.756	1259.825
-44.086	29.624	1505.459	1258.000
-43.071	29.541	1503.734	1255.945
-42.057	29.482	1502.187	1254.207
-41.042	29.574	1500.107	1253.039
-40.027	29.520	1498.748	1251.487
-39.013	29.581	1497.196	1250.556
-37.998	29.461	1495.815	1248.543
-36.984	29.452	1495.045	1247.792
-35.969	29.473	1493.750	1246.800
-34.954	29.497	1492.582	1245.940
-33.940	29.564	1490.991	1245.014
-32.925	29.594	1489.523	1243.943
-31.911	29.584	1488.091	1242.627
-30.896	29.544	1487.487	1241.807
-29.881	29.605	1486.300	1241.171
-28.867	29.541	1484.694	1239.357
-27.852	29.537	1483.319	1238.128
-26.838	29.618	1482.025	1237.542
-25.823	29.608	1480.390	1236.064
-24.809	29.584	1478.896	1234.607
-23.794	29.576	1477.549	1233.378
-22.779	29.575	1476.407	1232.373
-21.765	29.572	1475.141	1231.242
-20.750	29.643	1473.976	1230.699
-19.736	29.503	1473.064	1228.955
-18.721	29.511	1471.989	1228.061
-17.706	29.608	1470.325	1227.272
-16.692	29.541	1469.360	1225.967
-15.677	29.583	1468.153	1225.190
-14.663	29.590	1467.344	1224.515
-13.648	29.619	1466.201	1223.702
-12.633	29.564	1465.853	1223.002
-11.619	29.589	1464.637	1222.104
-10.604	29.589	1463.600	1221.193
-9.590	29.538	1463.317	1220.569
-8.575	29.531	1462.264	1219.593
-7.560	29.470	1461.593	1218.584
-6.546	29.495	1460.072	1217.433
-5.531	29.487	1459.543	1216.888
-4.517	29.507	1458.753	1216.313
-3.502	29.530	1457.625	1215.482
-2.487	29.567	1455.693	1214.061
-1.473	29.580	1454.646	1213.230
-0.458	29.506	1453.803	1211.992
0.556	27.707	1445.029	1201.490
1.571	24.909	1420.049	1162.478
2.586	21.766	1360.498	1094.042
3.600	20.308	1278.995	1019.850
4.615	19.158	1233.300	976.810
5.629	16.764	1176.132	918.479
6.644	8.325	1090.820	809.172
7.659	1.398	1049.852	744.838
8.673	0.285	1044.583	735.599
9.688	0.116	1040.961	732.164
10.702	0.023	1039.745	730.790
11.717	0.027	1037.528	729.188
12.731	2.663	1040.166	743.776
13.746	11.170	1051.247	793.206
14.761	17.174	1058.930	828.293
15.775	17.385	1058.589	828.984
16.790	16.525	1055.886	822.612
17.804	15.500	1053.550	815.741
18.819	14.612	1051.524	809.793
19.834	14.203	1050.578	807.011
20.848	13.871	1049.721	804.671
21.863	13.620	1048.978	802.816
22.877	13.419	1048.148	801.136
23.892	13.250	1047.141	799.478
24.907	13.082	1046.613	798.193
25.921	13.180	1045.627	797.842
26.936	13.103	1045.367	797.203
27.950	13.210	1044.667	797.114
28.965	13.262	1043.608	796.486
29.980	13.315	1042.553	795.862
30.994	13.335	1041.718	795.252
32.009	13.314	1041.274	794.740
33.023	13.380	1040.544	794.430
34.038	13.344	1039.571	793.448
35.053	13.289	1039.035	792.702
36.067	13.226	1038.138	791.645
37.082	13.300	1037.184	791.205
38.096	13.329	1036.293	790.593
39.111	13.341	1035.578	790.036
40.126	13.531	1034.682	790.188
41.140	13.326	1033.746	788.426
42.155	13.292	1032.355	787.133
43.169	13.203	1032.068	786.422
44.184	13.079	1030.685	784.706
45.199	13.029	1030.030	783.904
46.213	13.071	1029.149	783.363
47.228	13.184	1027.943	782.910
48.242	13.210	1026.771	782.070
49.257	13.221	1025.664	781.210
50.271	13.255	1024.886	780.709
51.286	13.308	1023.844	780.097
52.301	13.251	1023.233	779.296
53.315	13.263	1022.826	778.974
54.330	13.222	1021.945	778.037
55.344	13.301	1020.828	777.491
56.359	13.109	1020.194	776.037
57.374	13.180	1019.149	775.509
58.388	13.235	1018.219	774.987
59.403	13.178	1017.516	774.117
60.417	13.064	1016.538	772.772
61.432	13.126	1015.870	772.486
62.447	13.173	1014.915	771.910
63.461	13.115	1014.241	771.057
64.476	13.210	1013.166	770.615
65.490	12.985	1012.701	769.147
66.505	12.983	1011.889	768.453
67.520	13.139	1010.944	768.392
68.534	13.076	1010.468	767.670
69.549	13.081	1009.816	767.131
70.563	13.079	1008.419	765.990
71.578	13.037	1008.438	765.741
72.593	12.973	1007.363	764.562
73.607	12.990	1006.138	763.646
74.622	13.060	1005.523	763.433
75.636	12.977	1004.642	762.312
76.651	13.039	1003.600	761.739
77.666	12.969	1003.337	761.149
78.680	13.058	1002.597	760.934
79.695	13.021	1001.777	760.071
80.709	13.125	1000.890	759.810
81.724	13.046	1000.199	758.857
82.739	13.169	999.400	758.748
83.753	13.098	998.983	758.036
84.768	13.237	997.939	757.818
85.782	13.098	997.735	756.957
86.797	13.305	996.807	757.133
87.812	13.308	996.046	756.500
88.826	13.330	995.025	755.759
89.841	13.245	994.245	754.711
90.855	13.274	993.514	754.226
91.870	13.242	993.067	753.672
92.884	13.359	992.223	753.498
93.899	13.287	991.692	752.700
94.914	13.421	990.183	752.096
95.928	13.408	990.019	751.846
96.943	13.424	989.259	751.273
97.957	13.315	988.343	750.018
98.972	13.325	987.822	749.601
99.987	13.337	986.697	748.737
101.001	13.353	985.890	748.130
102.016	13.434	985.254	747.948
103.030	13.369	984.126	746.732
104.045	13.319	983.806	746.200
105.060	13.403	982.474	745.498
106.074	13.297	981.590	744.286
107.089	13.338	980.433	743.529
108.103	13.205	979.720	742.323
109.118	13.148	978.644	741.185
110.133	13.193	977.867	740.735
111.147	13.173	977.307	740.155
112.162	13.179	976.236	739.303
113.176	13.211	975.250	738.635
114.191	13.321	974.197	738.265
115.206	13.240	973.433	737.261
116.220	13.130	973.113	736.459
117.235	13.233	971.977	735.995
118.249	13.199	971.005	735.043
119.264	13.188	970.371	734.450
120.279	13.196	969.328	733.632
121.293	13.257	968.674	733.340
122.308	13.113	967.883	732.037
123.322	13.251	966.784	731.754
124.337	13.125	966.099	730.612
125.352	13.161	964.894	729.795
126.366	13.112	964.204	728.994
127.381	13.086	962.902	727.828
128.395	13.169	961.791	727.292
129.410	13.068	961.189	726.328
130.424	13.042	960.283	725.465
131.439	13.151	959.415	725.224
132.454	13.235	958.589	724.902
133.468	13.185	957.851	724.062
134.483	13.274	957.361	724.018
135.497	13.321	956.027	723.149
136.512	13.213	955.550	722.254
137.527	13.429	954.746	722.522
138.541	13.230	954.120	721.119
139.556	13.316	953.237	720.760
140.570	13.340	952.585	720.311
141.585	13.381	951.648	719.714
142.600	13.376	950.881	719.049
143.614	13.459	950.309	718.913
144.629	13.346	949.708	717.905
145.643	13.369	949.260	717.604
146.658	13.368	948.050	716.622
147.673	13.333	947.046	715.645
148.687	13.324	946.167	714.880
149.702	13.350	945.466	714.401
150.716	13.228	944.866	713.355
151.731	13.306	943.759	712.795
152.746	13.376	942.738	712.259
153.760	13.441	941.990	711.914
154.775	13.318	941.773	711.158
155.789	13.489	940.750	711.054
156.804	13.480	939.640	710.116
157.819	13.393	939.151	709.310
158.833	13.446	938.497	708.978
159.848	13.546	937.459	708.560
160.862	13.501	937.424	708.281
161.877	13.553	936.430	707.690
162.892	13.496	935.751	706.867
163.906	13.424	934.990	705.922
164.921	13.394	933.939	704.941
165.935	13.332	933.022	703.924
166.950	13.422	932.042	703.505
167.964	13.505	930.885	702.918
168.979	13.588	929.896	702.464
169.994	13.426	929.225	701.207
171.008	13.490	928.152	700.609
172.023	13.490	927.581	700.112
173.037	13.580	926.954	699.960
174.052	13.594	925.946	699.195
175.067	13.650	925.097	698.730
176.081	13.610	924.419	697.986
177.096	13.534	923.635	697.014
178.110	13.606	922.600	696.471
179.125	13.661	921.828	696.057
180.140	13.669	921.349	695.668
181.154	13.552	921.036	694.881
182.169	13.557	920.568	694.487
183.183	13.616	919.810	694.101
184.198	13.689	918.823	693.598
185.213	13.766	917.905	693.167
186.227	13.716	917.262	692.410
187.242	13.747	917.138	692.385
188.256	13.775	916.370	691.863
189.271	13.768	915.692	691.261
190.286	13.747	914.969	690.567
191.300	13.714	913.927	689.579
192.315	13.644	913.005	688.531
193.329	13.506	912.417	687.455
194.344	13.595	911.635	687.175
195.359	13.685	911.351	687.275
196.373	13.777	910.503	686.954
197.388	13.806	909.874	686.538
198.402	13.728	909.637	685.974
199.417	13.955	909.276	686.583
200.432	13.922	908.833	686.050
201.446	13.901	908.540	685.681
202.461	14.033	908.068	685.809
203.475	14.067	907.378	685.367
204.490	14.073	906.890	684.961
205.504	14.036	905.615	683.785
206.519	14.040	904.705	683.056
207.534	14.055	904.411	682.834
208.548	13.999	903.612	681.941
209.563	14.056	902.608	681.358
210.577	14.169	901.938	681.254
211.592	13.871	901.645	679.754
212.607	14.043	901.090	679.978
213.621	14.072	900.805	679.821
214.636	14.097	899.660	679.000
215.650	14.104	899.305	678.700
216.665	14.121	898.513	678.111
217.680	14.118	898.343	677.909
218.694	14.110	897.465	677.156
219.709	14.245	897.263	677.494
220.723	14.260	896.564	676.965
221.738	14.181	895.760	675.978
222.753	14.217	895.001	675.492
223.767	14.201	894.098	674.683
224.782	14.296	893.508	674.564
225.796	14.315	892.933	674.148
226.811	14.411	891.853	673.660
227.826	14.415	891.579	673.411
228.840	14.262	891.168	672.423
229.855	14.197	890.514	671.605
230.869	14.284	889.572	671.190
231.884	14.363	888.825	670.884
232.899	14.284	888.292	670.104
233.913	14.306	887.445	669.494
234.928	14.134	887.076	668.464
235.942	14.194	886.145	667.945
236.957	14.248	885.316	667.478
237.972	14.417	884.682	667.620
238.986	14.241	884.455	666.683
240.001	14.212	883.547	665.823
241.015	14.315	882.922	665.705
242.030	14.319	882.502	665.347
243.045	14.366	881.711	664.879
244.059	14.329	881.180	664.272
245.074	14.387	880.486	663.922
246.088	14.356	879.846	663.254
247.103	14.503	879.421	663.461
248.117	14.405	878.998	662.695
249.132	14.610	877.874	662.602
250.147	14.656	877.917	662.758
251.161	14.779	876.666	662.241
252.176	14.626	876.543	661.484
253.190	14.903	875.523	661.755
254.205	14.664	875.343	660.614
255.220	14.834	874.650	660.706
256.234	14.802	873.813	659.885
257.249	14.865	873.419	659.780
258.263	14.850	873.078	659.405
259.278	14.896	872.327	658.959
260.293	14.901	871.831	658.546
261.307	14.865	871.219	657.882
262.322	15.008	870.284	657.681
263.336	15.064	869.991	657.624
264.351	15.032	869.237	656.867
265.366	15.014	868.796	656.405
266.380	14.937	868.273	655.651
267.395	15.102	867.090	655.345
268.409	15.073	866.816	654.969
269.424	14.987	865.812	653.815
270.439	14.982	865.602	653.577
271.453	14.960	864.689	652.745
272.468	14.961	863.973	652.153
273.482	15.078	862.968	651.792
274.497	14.840	863.350	651.097
275.512	15.027	861.818	650.611
276.526	15.033	861.080	650.018
277.541	14.880	860.789	649.148
278.555	15.040	860.253	649.304
279.570	15.090	859.749	649.060
280.585	15.209	859.152	649.013
281.599	15.176	858.898	648.636
282.614	15.049	858.355	647.677
283.628	15.179	857.259	647.296
284.643	15.185	857.025	647.086
285.657	15.227	856.124	646.509
286.672	15.172	855.799	645.997
287.687	15.151	855.302	645.483
288.701	15.200	854.701	645.160
289.716	15.306	853.762	644.802
290.730	15.283	853.748	644.646
291.745	15.291	852.686	643.818
292.760	15.327	852.144	643.489
293.774	15.382	851.578	643.217
294.789	15.281	851.306	642.566
295.803	15.313	850.733	642.200
296.818	15.253	850.143	641.466
297.833	15.507	849.117	641.610
298.847	15.253	848.464	640.086
299.862	15.514	847.838	640.556
300.876	15.534	847.153	640.057
301.891	15.442	846.178	638.911
302.906	15.641	845.697	639.251
303.920	15.543	845.085	638.357
304.935	15.527	844.557	637.844
305.949	15.574	844.039	637.572
306.964	15.746	843.258	637.580
307.979	15.673	842.612	636.759
308.993	15.602	842.680	636.483
310.008	15.569	841.982	635.774
311.022	15.556	841.404	635.233
312.037	15.729	840.854	635.417
313.052	15.702	839.972	634.591
314.066	15.454	839.668	633.368
315.081	15.542	838.923	633.083
316.095	15.598	838.354	632.808
317.110	15.542	838.158	632.395
318.125	15.616	837.307	631.975
319.139	15.547	836.761	631.248
320.154	15.663	836.424	631.374
321.168	15.597	835.867	630.648
322.183	15.667	835.154	630.318
323.197	15.667	834.846	630.028
324.212	15.761	834.226	629.859
325.227	15.685	833.826	629.217
326.241	15.735	833.052	628.763
327.256	15.685	832.736	628.280
328.270	15.745	832.008	627.902
329.285	15.719	831.432	627.312
330.300	15.700	830.925	626.805
331.314	15.679	830.361	626.247
332.329	15.769	829.631	625.975
333.343	15.901	828.988	625.926
334.358	15.840	828.709	625.430
335.373	15.860	827.957	624.882
336.387	15.826	827.473	624.338
337.402	15.854	827.133	624.130
338.416	15.942	826.434	623.874
339.431	16.076	825.699	623.757
340.446	16.165	824.971	623.481
341.460	16.127	824.672	623.060
342.475	15.994	824.289	622.225
343.489	16.204	823.516	622.362
344.504	16.144	822.848	621.581
345.519	16.138	822.743	621.422
346.533	16.142	821.869	620.724
347.548	16.259	821.284	620.656
348.562	16.454	820.669	620.854
349.577	16.237	820.359	619.767
350.592	16.145	819.837	618.979
351.606	16.152	819.454	618.660
352.621	16.160	818.968	618.268
353.635	16.056	818.673	617.609
354.650	16.227	818.358	617.945
355.665	16.129	817.883	617.174
356.679	16.183	817.337	616.904
357.694	16.291	816.702	616.763
358.708	16.378	815.790	616.337
359.723	16.208	815.762	615.644
360.738	16.224	815.150	615.184
361.752	16.288	814.529	614.894
362.767	16.296	814.185	614.609
363.781	16.406	813.410	614.370
364.796	16.503	813.268	614.559
365.810	16.385	812.802	613.724
366.825	16.552	812.692	614.196
367.840	16.501	812.248	613.619
368.854	16.670	811.606	613.692
369.869	16.581	811.481	613.222
370.883	16.423	810.804	612.086
371.898	16.542	809.895	611.773
372.913	16.428	809.588	611.076
373.927	16.681	808.867	611.393
374.942	16.462	808.421	610.208
375.956	16.498	807.821	609.831
376.971	16.848	807.035	610.445
377.986	16.732	806.506	609.573
379.000	16.660	806.139	608.985
380.015	16.601	805.798	608.460
381.029	16.556	805.361	607.915
382.044	16.753	804.576	607.977
383.059	16.819	803.845	607.605
384.073	16.854	803.410	607.351
385.088	16.807	802.963	606.789
386.102	16.770	802.272	606.080
387.117	16.820	801.966	605.975
388.132	16.709	801.807	605.402
389.146	16.661	801.317	604.810
390.161	16.813	800.715	604.844
391.175	16.780	800.338	604.390
392.190	16.883	800.164	604.570
393.205	16.882	799.367	603.912
394.219	16.903	798.896	603.575
395.234	16.827	798.620	603.046
396.248	16.799	798.099	602.499
397.263	16.698	797.559	601.677
398.278	16.836	796.865	601.590
399.292	16.766	796.466	600.987
400.307	16.857	795.963	600.878
401.321	16.920	795.671	600.827
402.336	16.768	795.774	600.314
403.350	16.898	795.214	600.298
404.365	17.047	794.483	600.221
405.380	16.898	794.406	599.581
406.394	16.915	793.576	598.964
407.409	17.048	793.179	599.078
408.423	17.162	792.649	599.028
409.438	17.141	792.437	598.742
410.453	17.216	791.808	598.477
411.467	17.219	791.189	597.968
412.482	17.207	791.018	597.744
413.496	17.300	790.496	597.624
414.511	17.256	790.028	597.061
415.526	17.246	789.841	596.833
416.540	17.175	789.651	596.385
417.555	17.171	788.965	595.802
418.569	17.152	788.887	595.624
419.584	17.159	788.087	594.991
420.599	17.317	787.664	595.170
421.613	108.813	1291.350	1469.023
422.628	93.265	1364.742	1469.117
