DTS Sentinel unit serial number:	SN413079Multiplexer serial number:	ORYXHardware model number:	OX4-SRSoftware version number:	ORYX F/W v4.00 Oryx Data Collector v3.7.2.0data status	okinstallation	princeton_trtdifferential loss correction	single-endedforward channel	channel 3reverse channel	N/Adate	2019/09/12time	14:30:11forward acquisition time	60.00reverse acquisition time	0.00gamma	496.2192k internal	0.2294k external	0.2294temperature offset calibration	1.0056default loss term (dB/km)	0.3790temperature slope calibration	1.0000multiplexer offset coefficient	1.0000multiplexer slope coefficient	1.0000fibre end	0.00T internal ref (°C)	40.06T ext. ref 1 (°C)	2.26T ext. ref 2 (°C)	35.71length (m)	temperature (°C)	Stokes	anti-Stokes-747.200	-200.000	-0.058	0.290
-746.185	-189.698	0.341	0.004
-745.171	-33.079	0.134	0.076
-744.156	636.985	-0.111	0.288
-743.142	109.296	-0.129	-0.158
-742.127	-200.000	0.035	0.363
-741.112	-104.979	-0.352	-0.082
-740.098	-17.418	-0.424	0.273
-739.083	9.964	0.106	-0.083
-738.069	-2.492	-0.123	-0.088
-737.054	-53.316	-0.364	0.171
-736.039	-200.000	-0.072	-0.334
-735.025	51.725	-0.003	-0.003
-734.010	646.599	0.068	-0.177
-732.996	126.170	0.137	-0.178
-731.981	83.889	0.039	0.044
-730.966	306.034	0.201	0.383
-729.952	-79.398	-0.186	-0.064
-728.937	17.740	-0.211	-0.171
-727.923	116.231	-0.190	-0.238
-726.908	12.619	-0.091	-0.072
-725.894	800.000	-0.055	0.186
-724.879	-10.493	-0.251	0.170
-723.864	-200.000	0.022	-0.105
-722.850	-137.324	0.097	0.011
-721.835	111.686	-0.383	-0.473
-720.821	247.005	0.033	-0.056
-719.806	800.000	0.030	0.106
-718.791	174.375	0.125	-0.184
-717.777	-96.312	-0.170	-0.046
-716.762	585.171	-0.078	-0.196
-715.748	138.880	0.075	0.101
-714.733	171.646	0.133	-0.195
-713.718	48.739	0.129	0.124
-712.704	-200.000	0.018	0.205
-711.689	306.069	0.034	-0.064
-710.675	217.070	0.095	0.155
-709.660	-129.754	-0.248	-0.035
-708.645	-113.045	-0.219	0.044
-707.631	-34.498	-0.160	-0.089
-706.616	-200.000	-0.039	-0.207
-705.602	-200.000	0.022	-0.147
-704.587	2.489	-0.118	0.087
-703.572	-39.693	-0.232	0.124
-702.558	196.774	-0.087	-0.136
-701.543	-57.269	-0.151	-0.068
-700.529	-64.308	0.045	0.019
-699.514	-29.511	0.109	0.063
-698.499	118.387	-0.159	-0.201
-697.485	-122.466	-0.281	0.047
-696.470	-101.154	-0.042	0.010
-695.456	-103.885	0.186	0.044
-694.441	76.267	0.182	-0.196
-693.426	484.734	0.179	-0.415
-692.412	-18.058	-0.172	-0.110
-691.397	80.711	-0.146	0.160
-690.383	226.134	-0.043	0.072
-689.368	224.691	-0.189	-0.311
-688.354	-178.136	0.067	0.002
-687.339	-44.217	-0.226	-0.115
-686.324	-200.000	0.071	-0.404
-685.310	-119.693	0.191	0.034
-684.295	32.954	-0.197	0.174
-683.281	-28.718	-0.390	-0.229
-682.266	-117.434	-0.204	-0.038
-681.251	-200.000	-0.025	-0.170
-680.237	-120.027	-0.230	-0.040
-679.222	677.979	-0.134	0.355
-678.208	43.753	0.175	-0.164
-677.193	131.663	-0.100	0.131
-676.178	327.141	0.095	0.186
-675.164	-94.324	0.168	0.047
-674.149	-182.846	0.082	-0.002
-673.135	-121.449	0.130	0.022
-672.120	-26.314	-0.017	0.010
-671.105	800.000	-0.148	0.447
-670.091	-200.000	0.042	-0.461
-669.076	-200.000	-0.059	-0.434
-668.062	800.000	-0.060	-0.170
-667.047	207.925	-0.219	-0.348
-666.032	-20.186	-0.270	-0.169
-665.018	-70.664	-0.291	-0.112
-664.003	800.000	0.105	-0.389
-662.989	-200.000	0.006	-0.302
-661.974	-200.000	0.019	0.212
-660.959	154.833	0.122	0.171
-659.945	-59.832	-0.217	0.094
-658.930	-26.796	-0.208	-0.124
-657.916	800.000	0.050	-0.151
-656.901	-135.418	-0.227	0.028
-655.886	-200.000	0.026	0.239
-654.872	-127.424	-0.508	-0.075
-653.857	-83.585	-0.036	-0.012
-652.843	139.967	-0.096	-0.129
-651.828	-174.566	-0.285	0.008
-650.814	-88.430	-0.148	-0.045
-649.799	-48.834	0.138	-0.068
-648.784	435.359	0.028	-0.063
-647.770	-200.000	-0.013	0.216
-646.755	-200.000	0.010	0.285
-645.741	-200.000	0.021	-0.322
-644.726	467.157	-0.125	-0.286
-643.711	-45.303	-0.072	-0.037
-642.697	-125.478	0.156	-0.024
-641.682	336.072	-0.142	-0.280
-640.668	-200.000	0.057	-0.387
-639.653	36.023	-0.252	0.226
-638.638	800.000	-0.062	-0.218
-637.624	632.111	0.023	0.059
-636.609	-192.849	0.163	-0.002
-635.595	-37.611	0.309	-0.168
-634.580	-146.986	-0.291	-0.025
-633.565	302.841	-0.226	-0.425
-632.551	-95.290	-0.011	0.003
-631.536	69.718	0.222	0.232
-630.522	247.078	0.117	0.202
-629.507	-18.016	-0.333	-0.212
-628.492	-106.474	0.165	0.037
-627.478	-46.305	0.232	0.116
-626.463	161.963	0.063	-0.090
-625.449	55.582	0.234	0.231
-624.434	-55.998	-0.099	0.045
-623.419	-145.823	-0.323	0.029
-622.405	45.372	0.163	0.153
-621.390	800.000	0.064	-0.256
-620.376	-200.000	0.032	0.383
-619.361	-96.248	-0.069	-0.019
-618.346	-200.000	-0.045	0.223
-617.332	82.554	-0.123	0.136
-616.317	409.858	0.133	-0.287
-615.303	-76.100	-0.119	-0.043
-614.288	38.532	0.152	0.138
-613.273	-16.888	-0.335	-0.215
-612.259	350.827	0.023	0.045
-611.244	68.941	-0.199	-0.208
-610.230	-132.925	0.147	0.019
-609.215	9.800	0.369	0.285
-608.201	-200.000	0.033	-0.341
-607.186	-200.000	-0.038	-0.230
-606.171	-22.929	0.044	0.027
-605.157	304.984	0.051	-0.097
-604.142	63.824	0.070	0.072
-603.128	94.095	-0.292	-0.337
-602.113	-95.586	-0.602	-0.164
-601.098	800.000	-0.059	0.222
-600.084	-159.551	-0.195	-0.011
-599.069	-103.036	0.169	0.041
-598.055	-69.611	0.225	-0.088
-597.040	-96.817	0.174	0.046
-596.025	800.000	-0.051	0.216
-595.011	535.153	-0.099	0.240
-593.996	-42.957	0.222	-0.115
-592.982	800.000	-0.039	0.142
-591.967	43.998	0.175	0.163
-590.952	800.000	0.074	-0.297
-589.938	-200.000	0.024	-0.271
-588.923	-9.973	-0.231	0.156
-587.909	-136.216	0.266	-0.032
-586.894	69.022	-0.134	0.140
-585.879	-62.585	-0.273	-0.115
-584.865	-20.870	-0.456	0.284
-583.850	800.000	0.065	0.203
-582.836	27.164	-0.044	0.038
-581.821	-57.698	-0.578	-0.257
-580.806	800.000	0.095	0.356
-579.792	-53.638	0.295	0.137
-578.777	-77.309	0.105	0.037
-577.763	-74.853	0.124	-0.045
-576.748	800.000	0.028	-0.121
-575.733	770.393	0.079	-0.219
-574.719	-147.368	-0.127	0.011
-573.704	242.933	0.021	0.037
-572.690	-96.939	-0.186	0.049
-571.675	-57.843	0.435	-0.193
-570.661	524.630	0.084	0.200
-569.646	-71.269	0.395	-0.150
-568.631	-98.646	0.238	-0.062
-567.617	800.000	-0.073	0.249
-566.602	-74.307	0.153	-0.056
-565.588	-128.251	-0.152	0.022
-564.573	375.871	-0.138	0.286
-563.558	800.000	0.004	0.013
-562.544	-61.578	-0.140	0.060
-561.529	-95.308	-0.358	-0.098
-560.515	414.020	0.143	0.310
-559.500	-200.000	-0.046	-0.334
-558.485	-200.000	0.026	0.177
-557.471	289.031	-0.077	0.142
-556.456	10.306	0.166	0.128
-555.442	800.000	0.065	-0.195
-554.427	800.000	-0.172	0.498
-553.412	-200.000	-0.015	0.240
-552.398	-200.000	-0.029	0.134
-551.383	-39.038	-0.176	-0.094
-550.369	-68.048	0.222	0.088
-549.354	-185.514	0.114	0.002
-548.339	-81.329	-0.110	0.037
-547.325	-105.360	0.098	-0.023
-546.310	-200.000	0.013	0.335
-545.296	-29.301	0.071	0.041
-544.281	637.808	-0.056	-0.145
-543.266	278.317	0.053	0.095
-542.252	145.016	0.022	-0.029
-541.237	42.334	-0.120	0.110
-540.223	772.098	-0.062	0.170
-539.208	-49.040	0.249	-0.121
-538.193	-131.640	-0.214	-0.029
-537.179	191.784	-0.106	0.162
-536.164	121.611	-0.158	0.200
-535.150	800.000	-0.040	-0.139
-534.135	377.188	-0.196	0.407
-533.121	-96.305	-0.255	0.068
-532.106	-12.493	-0.109	0.072
-531.091	-26.627	-0.123	-0.073
-530.077	763.091	-0.111	0.305
-529.062	-122.916	-0.192	0.031
-528.048	-132.040	0.100	-0.013
-527.033	-148.100	0.164	0.014
-526.018	-164.888	-0.173	0.008
-525.004	-126.054	-0.171	0.026
-523.989	-134.961	-0.311	-0.038
-522.975	222.447	-0.111	-0.181
-521.960	-40.958	-0.303	-0.159
-520.945	-65.062	-0.262	0.107
-519.931	-157.967	-0.112	0.007
-518.916	265.608	0.080	0.141
-517.902	-32.554	0.335	-0.189
-516.887	-116.328	0.173	0.033
-515.872	800.000	0.065	-0.253
-514.858	-23.495	-0.049	-0.030
-513.843	-18.700	0.182	-0.115
-512.829	22.167	0.030	0.025
-511.814	-20.987	0.157	0.097
-510.799	151.306	0.159	0.219
-509.785	-200.000	0.081	0.384
-508.770	56.572	0.077	-0.076
-507.756	102.371	0.167	0.198
-506.741	-88.071	0.164	-0.050
-505.726	39.968	0.149	-0.135
-504.712	315.480	0.209	-0.400
-503.697	-56.051	-0.211	0.095
-502.683	88.946	-0.129	0.145
-501.668	236.940	0.181	-0.303
-500.653	77.756	-0.297	-0.321
-499.639	-140.411	0.085	-0.009
-498.624	-86.094	0.028	0.009
-497.610	800.000	0.074	-0.275
-496.595	-200.000	-0.049	0.248
-495.581	-49.767	-0.300	-0.144
-494.566	28.036	-0.120	0.102
-493.551	800.000	-0.093	0.300
-492.537	191.837	-0.207	0.315
-491.522	-65.103	0.306	0.125
-490.508	-12.987	0.341	-0.225
-489.493	-148.439	-0.220	0.018
-488.478	-101.302	-0.144	-0.036
-487.464	628.070	0.056	-0.144
-486.449	92.584	0.277	-0.317
-485.435	-188.062	-0.287	-0.004
-484.420	-200.000	-0.082	0.399
-483.405	-200.000	-0.019	0.235
-482.391	-154.232	0.209	-0.014
-481.376	-200.000	0.032	-0.158
-480.362	-143.598	0.142	0.014
-479.347	-200.000	0.046	0.234
-478.332	800.000	-0.059	0.190
-477.318	-200.000	-0.089	-0.439
-476.303	282.761	-0.110	-0.200
-475.289	-200.000	0.015	0.202
-474.274	-92.354	0.342	0.097
-473.259	-100.997	-0.221	0.055
-472.245	-89.284	0.059	0.018
-471.230	800.000	0.056	0.196
-470.216	-64.195	0.208	0.086
-469.201	142.450	-0.062	-0.083
-468.186	95.304	-0.027	-0.031
-467.172	-109.076	-0.069	0.015
-466.157	471.547	0.045	0.103
-465.143	790.013	0.050	-0.140
-464.128	800.000	-0.042	0.139
-463.113	85.718	0.087	-0.097
-462.099	101.013	0.105	0.123
-461.084	800.000	-0.041	0.154
-460.070	-200.000	0.044	-0.519
-459.055	-200.000	-0.009	-0.081
-458.040	-189.205	-0.196	0.002
-457.026	-105.916	-0.263	0.060
-456.011	63.705	0.168	-0.171
-454.997	-1.860	-0.128	0.091
-453.982	-200.000	-0.007	0.317
-452.968	-200.000	-0.017	-0.150
-451.953	30.690	0.155	0.134
-450.938	100.766	-0.139	0.164
-449.924	-25.707	-0.167	-0.100
-448.909	-120.739	0.303	0.052
-447.895	51.806	0.122	-0.118
-446.880	-200.000	0.011	0.167
-445.865	-85.153	0.214	0.068
-444.851	-2.841	0.192	-0.135
-443.836	-200.000	0.016	0.078
-442.822	78.775	0.212	-0.229
-441.807	85.008	-0.139	0.154
-440.792	-56.346	0.186	-0.084
-439.778	-6.467	0.256	0.176
-438.763	-198.613	0.343	-0.002
-437.749	151.428	-0.144	-0.199
-436.734	-112.758	0.142	-0.029
-435.719	355.611	0.067	0.135
-434.705	800.000	0.044	0.134
-433.690	-84.895	-0.129	0.041
-432.676	-167.433	-0.305	-0.012
-431.661	-67.597	0.262	0.104
-430.646	-200.000	0.045	-0.317
-429.632	76.160	0.096	-0.102
-428.617	97.749	0.092	0.106
-427.603	386.128	-0.153	0.320
-426.588	-35.005	0.135	0.074
-425.573	-66.674	0.124	-0.050
-424.559	751.428	0.037	0.101
-423.544	50.400	-0.100	0.096
-422.530	-7.711	0.258	-0.176
-421.515	800.000	0.032	-0.093
-420.500	659.487	0.088	0.229
-419.486	-22.136	-0.136	0.084
-418.471	26.931	0.089	0.076
-417.457	-38.384	0.084	-0.045
-416.442	18.642	-0.137	0.110
-415.428	-22.349	0.087	-0.053
-414.413	121.642	0.241	-0.303
-413.398	55.680	-0.057	-0.056
-412.384	-22.225	0.070	-0.043
-411.369	231.789	0.164	-0.272
-410.355	-75.423	0.145	-0.052
-409.340	135.584	-0.109	-0.144
-408.325	-200.000	-0.018	0.309
-407.311	800.000	-0.123	0.379
-406.296	800.000	0.104	0.327
-405.282	122.431	0.066	-0.083
-404.267	591.826	-0.083	-0.206
-403.252	800.000	0.139	-0.411
-402.238	800.000	-0.094	-0.275
-401.223	-87.658	-0.329	0.100
-400.209	-28.347	-0.310	0.181
-399.194	-42.065	-0.242	0.125
-398.179	-200.000	0.021	-0.362
-397.165	-156.583	0.351	-0.022
-396.150	-26.476	-0.177	0.105
-395.136	63.335	0.172	0.174
-394.121	3.370	-0.222	-0.163
-393.106	-200.000	0.008	0.259
-392.092	-46.437	0.188	-0.093
-391.077	-200.000	-0.089	0.397
-390.063	-14.890	-0.033	-0.021
-389.048	92.401	-0.178	0.202
-388.033	-38.342	-0.163	-0.087
-387.019	-13.492	-0.109	-0.071
-386.004	-200.000	-0.051	-0.276
-384.990	791.129	0.097	0.268
-383.975	-122.968	-0.161	0.026
-382.960	164.560	-0.206	0.293
-381.946	-200.000	0.001	0.276
-380.931	-200.000	-0.017	0.292
-379.917	-87.912	0.032	0.010
-378.902	-55.179	0.059	-0.027
-377.888	-105.443	0.201	-0.046
-376.873	-110.328	0.117	-0.025
-375.858	800.000	0.061	-0.217
-374.844	207.157	0.307	-0.482
-373.829	137.478	0.175	0.231
-372.815	-2.936	0.173	-0.122
-371.800	53.232	0.078	-0.075
-370.785	20.036	-0.249	-0.203
-369.771	734.070	-0.088	0.237
-368.756	9.938	0.143	-0.109
-367.742	-110.345	0.110	-0.023
-366.727	-42.087	0.094	-0.049
-365.712	20.277	0.331	-0.269
-364.698	-200.000	0.009	-0.499
-363.683	31.982	-0.232	-0.201
-362.669	237.550	0.148	0.247
-361.654	19.556	-0.094	0.076
-360.639	79.209	-0.083	-0.090
-359.625	509.738	-0.087	-0.204
-358.610	346.031	-0.139	0.274
-357.596	-91.298	-0.283	0.082
-356.581	-84.711	0.131	-0.042
-355.566	-200.000	0.015	-0.258
-354.552	-92.377	0.167	-0.047
-353.537	-57.777	0.158	0.070
-352.523	-89.239	-0.283	0.084
-351.508	-75.425	0.266	0.095
-350.493	-35.150	0.095	0.052
-349.479	2.499	-0.275	0.200
-348.464	44.419	0.177	0.164
-347.450	726.864	-0.029	-0.078
-346.435	85.753	-0.195	-0.216
-345.420	7.195	0.174	-0.131
-344.406	241.781	0.125	-0.210
-343.391	800.000	0.044	-0.148
-342.377	-24.359	-0.205	0.123
-341.362	-89.453	0.458	-0.136
-340.348	8.674	0.264	-0.201
-339.333	31.013	0.041	-0.036
-338.318	-121.030	-0.056	-0.010
-337.304	135.084	0.132	-0.172
-336.289	-128.431	0.217	-0.031
-335.275	-200.000	-0.018	-0.148
-334.260	-200.000	-0.019	0.305
-333.245	800.000	0.049	0.180
-332.231	-95.501	-0.156	-0.042
-331.216	445.815	0.157	-0.346
-330.202	565.839	-0.085	-0.208
-329.187	-137.104	-0.185	-0.021
-328.172	-200.000	0.007	-0.370
-327.158	135.088	-0.150	-0.196
-326.143	-132.989	0.257	-0.033
-325.129	-140.253	0.144	-0.015
-324.114	-200.000	0.004	0.125
-323.099	-200.000	-0.022	-0.137
-322.085	-105.433	0.216	0.049
-321.070	513.829	0.131	0.307
-320.056	-84.039	0.147	0.047
-319.041	748.999	0.047	0.129
-318.026	81.236	-0.069	0.075
-317.012	37.556	0.076	0.068
-315.997	-115.674	-0.028	-0.005
-314.983	-200.000	0.030	-0.158
-313.968	-12.064	-0.095	0.063
-312.953	36.363	0.273	0.242
-311.939	-91.322	-0.110	-0.032
-310.924	-154.406	0.165	-0.011
-309.910	15.555	-0.200	-0.158
-308.895	-34.262	-0.129	-0.071
-307.880	155.082	0.231	0.320
-306.866	138.086	-0.227	0.299
-305.851	240.175	-0.063	0.105
-304.837	-31.832	-0.250	0.141
-303.822	-152.549	0.099	0.007
-302.807	188.904	0.015	0.023
-301.793	-45.989	-0.056	-0.028
-300.778	134.337	0.224	-0.292
-299.764	516.184	-0.094	0.221
-298.749	-148.760	-0.344	0.028
-297.735	546.234	0.027	-0.065
-296.720	32.237	0.201	0.174
-295.705	-200.000	0.020	0.500
-294.691	-107.632	0.433	-0.095
-293.676	-200.000	-0.038	-0.219
-292.662	121.677	0.030	0.037
-291.647	363.439	-0.092	0.186
-290.632	-74.117	0.179	0.065
-289.618	287.984	-0.092	-0.168
-288.603	242.472	0.091	-0.152
-287.589	31.981	0.082	-0.071
-286.574	6.395	0.029	0.022
-285.559	-106.127	-0.186	0.042
-284.545	115.496	0.013	-0.016
-283.530	207.108	0.128	0.201
-282.516	108.727	-0.066	-0.079
-281.501	0.386	-0.133	0.095
-280.486	81.567	-0.095	0.103
-279.472	462.100	0.047	-0.105
-278.457	264.602	0.009	-0.016
-277.443	-200.000	-0.051	0.370
-276.428	696.383	0.019	0.051
-275.413	-17.906	0.326	0.205
-274.399	10.773	-0.172	-0.132
-273.384	-153.871	-0.223	0.015
-272.370	30.092	0.110	-0.094
-271.355	365.575	0.071	0.144
-270.340	-107.573	-0.353	-0.078
-269.326	-125.957	-0.226	0.034
-268.311	20.059	-0.248	-0.201
-267.297	-114.719	-0.132	0.025
-266.282	-117.189	-0.120	-0.022
-265.267	-122.480	0.071	-0.012
-264.253	-200.000	-0.005	-0.240
-263.238	-200.000	0.020	-0.091
-262.224	45.195	-0.154	-0.143
-261.209	-120.811	-0.132	0.022
-260.195	-200.000	0.057	0.584
-259.180	-88.315	-0.185	-0.055
-258.165	-29.887	0.131	0.075
-257.151	-64.801	-0.366	-0.149
-256.136	123.950	-0.073	0.092
-255.122	-200.000	0.046	-0.219
-254.107	347.464	-0.195	-0.385
-253.092	103.221	-0.173	-0.204
-252.078	315.312	-0.054	-0.102
-251.063	-200.000	0.018	-0.102
-250.049	726.584	-0.013	-0.036
-249.034	-93.899	-0.240	-0.066
-248.019	-55.599	0.155	0.070
-247.005	-54.692	0.195	-0.088
-245.990	-117.256	0.245	-0.045
-244.976	800.000	0.078	0.270
-243.961	-125.219	-0.065	0.010
-242.946	105.066	0.213	-0.252
-241.932	161.358	0.258	-0.362
-240.917	113.515	-0.066	0.081
-239.903	-81.989	0.403	-0.132
-238.888	-11.404	-0.163	0.108
-237.873	215.092	0.188	0.299
-236.859	-118.344	-0.304	-0.054
-235.844	50.824	0.178	0.169
-234.830	-52.295	0.194	0.090
-233.815	61.676	-0.269	0.268
-232.800	110.249	0.210	-0.253
-231.786	800.000	0.071	-0.211
-230.771	60.483	0.268	0.266
-229.757	800.000	-0.056	-0.242
-228.742	-6.229	-0.237	-0.162
-227.727	-200.000	-0.015	0.175
-226.713	116.805	-0.138	0.170
-225.698	800.000	-0.084	0.251
-224.684	-86.752	-0.035	0.011
-223.669	-88.954	-0.367	0.109
-222.655	-41.089	0.246	-0.127
-221.640	48.973	-0.170	0.160
-220.625	-200.000	-0.015	0.230
-219.611	-200.000	-0.049	0.241
-218.596	-77.786	0.396	0.137
-217.582	800.000	0.023	0.096
-216.567	-200.000	-0.004	0.196
-215.552	319.230	-0.220	-0.419
-214.538	84.786	-0.115	-0.127
-213.523	-43.980	0.224	0.113
-212.509	626.813	0.083	-0.209
-211.494	356.908	-0.146	-0.292
-210.479	-145.085	-0.201	-0.018
-209.465	59.919	0.248	-0.246
-208.450	-85.905	-0.280	0.087
-207.436	106.571	0.077	-0.092
-206.421	116.036	-0.161	-0.198
-205.406	192.516	0.234	-0.353
-204.392	381.161	0.132	-0.272
-203.377	800.000	0.051	0.208
-202.363	800.000	0.021	0.069
-201.348	355.639	0.048	-0.096
-200.333	42.879	-0.204	-0.186
-199.319	800.000	-0.028	-0.096
-198.304	-74.802	0.155	-0.056
-197.290	-200.000	0.055	-0.389
-196.275	69.632	-0.202	-0.209
-195.260	800.000	0.059	0.176
-194.246	-31.163	0.147	0.083
-193.231	-91.533	-0.106	-0.030
-192.217	107.887	-0.311	-0.371
-191.202	563.201	-0.014	-0.034
-190.187	-200.000	0.024	-0.308
-189.173	-160.014	0.046	0.003
-188.158	36.534	-0.176	-0.155
-187.144	-116.708	0.266	0.049
-186.129	98.097	0.125	-0.144
-185.114	70.204	-0.109	-0.112
-184.100	-200.000	-0.013	0.267
-183.085	230.575	-0.150	-0.246
-182.071	648.749	0.062	0.159
-181.056	388.633	0.066	0.136
-180.042	-51.158	-0.134	-0.063
-179.027	-14.529	-0.185	0.119
-178.012	167.969	-0.203	0.289
-176.998	317.447	-0.050	-0.094
-175.983	-53.325	0.176	-0.081
-174.969	-200.000	-0.014	-0.219
-173.954	120.725	0.060	-0.074
-172.939	725.623	0.168	0.447
-171.925	22.535	-0.261	0.214
-170.910	-109.345	-0.295	0.063
-169.896	-112.602	-0.071	-0.014
-168.881	16.003	-0.147	0.116
-167.866	-200.000	-0.050	-0.296
-166.852	-135.890	0.223	0.026
-165.837	-32.224	0.151	0.084
-164.823	-129.275	0.070	0.010
-163.808	223.878	0.048	-0.078
-162.793	-200.000	0.010	0.046
-161.779	-17.338	-0.298	0.188
-160.764	72.731	-0.272	-0.284
-159.750	494.435	-0.153	-0.352
-158.735	-200.000	0.004	-0.034
-157.720	-187.332	-0.387	-0.005
-156.706	-101.236	0.296	-0.072
-155.691	800.000	-0.102	0.306
-154.677	137.964	-0.051	0.067
-153.662	13.520	-0.100	0.078
-152.647	109.815	-0.056	0.067
-151.633	-129.741	0.300	-0.041
-150.618	74.484	0.273	0.287
-149.604	800.000	-0.087	0.284
-148.589	130.267	0.279	0.357
-147.574	-11.379	-0.145	0.095
-146.560	-107.365	-0.074	0.016
-145.545	-94.213	-0.401	-0.110
-144.531	-83.170	0.408	0.131
-143.516	-25.128	0.059	0.035
-142.502	594.531	0.073	-0.181
-141.487	-22.427	0.186	0.112
-140.472	10.422	-0.088	-0.067
-139.458	-102.068	0.618	0.149
-138.443	-129.584	-0.070	-0.010
-137.429	284.479	0.061	-0.109
-136.414	190.001	-0.187	-0.281
-135.399	-122.564	0.443	-0.072
-134.385	168.075	0.204	-0.289
-133.370	30.550	-0.026	0.022
-132.356	-200.000	0.007	0.131
-131.341	7.784	-0.181	0.135
-130.326	-200.000	-0.036	0.187
-129.312	-59.176	0.226	-0.097
-128.297	800.000	-0.088	0.279
-127.283	22.840	0.132	0.108
-126.268	-0.226	0.362	0.257
-125.253	-200.000	0.044	0.235
-124.239	171.522	-0.058	0.083
-123.224	800.000	-0.086	0.239
-122.210	-69.649	-0.183	0.070
-121.195	-200.000	-0.098	0.440
-120.180	-151.976	-0.227	-0.017
-119.166	225.969	-0.111	-0.180
-118.151	292.728	0.062	-0.113
-117.137	48.282	-0.215	0.201
-116.122	26.652	-0.048	-0.040
-115.107	-33.246	0.217	-0.120
-114.093	800.000	-0.103	-0.374
-113.078	0.357	-0.174	0.124
-112.064	800.000	-0.049	-0.154
-111.049	-83.499	0.139	-0.044
-110.034	-91.250	-0.133	0.038
-109.020	-95.005	-0.045	-0.012
-108.005	-164.795	-0.497	-0.022
-106.991	-5.246	0.514	0.352
-105.976	633.987	-0.056	0.142
-104.962	367.402	0.189	0.380
-103.947	-119.101	-0.141	-0.025
-102.932	-162.453	0.306	0.015
-101.918	-24.317	-0.130	-0.078
-100.903	235.892	0.057	0.093
-99.889	-200.000	-0.026	0.205
-98.874	240.623	0.130	-0.217
-97.859	-64.782	0.385	0.155
-96.845	-200.000	0.015	-0.181
-95.830	-92.739	0.305	0.085
-94.816	-71.729	-0.225	-0.083
-93.801	-200.000	0.007	0.213
-92.786	655.871	0.032	0.083
-91.772	-50.550	0.068	0.032
-90.757	-68.369	-0.228	-0.088
-89.743	800.000	-0.100	0.280
-88.728	-40.594	0.373	-0.193
-87.713	800.000	-0.091	-0.266
-86.699	-106.064	0.294	-0.066
-85.684	101.529	-0.265	-0.308
-84.670	-60.413	0.469	-0.199
-83.655	800.000	-0.065	-0.252
-82.640	-200.000	-0.032	0.169
-81.626	337.853	0.100	0.194
-80.611	-200.000	0.025	-0.316
-79.597	-5.654	-0.140	0.095
-78.582	99.439	-0.091	-0.105
-77.567	-200.000	0.015	0.255
-76.553	-147.583	-0.521	-0.044
-75.538	130.333	-0.245	0.313
-74.524	146.007	0.275	0.367
-73.509	99.914	-0.085	-0.098
-72.494	35.660	-0.129	-0.113
-71.480	-200.000	0.043	-0.360
-70.465	-96.852	0.126	-0.033
-69.451	180.859	0.179	0.261
-68.436	-128.956	-0.086	-0.012
-67.422	-200.000	-0.018	-0.125
-66.407	800.000	-0.125	-0.509
-65.392	800.000	-0.016	0.051
-64.378	-12.977	0.123	-0.080
-63.363	-35.578	-0.277	-0.150
-62.349	23.071	-0.091	-0.075
-61.334	161.353	-0.576	-0.802
-60.319	20.583	0.438	0.353
-59.305	-200.000	-0.109	-0.735
-58.290	36.043	0.289	0.254
-57.276	800.000	0.529	1.572
-56.261	-200.000	77.840	507.862
-55.246	505.708	1334.434	3078.037
-54.232	147.968	2560.209	3437.024
-53.217	113.594	2241.343	2709.656
-52.203	50.143	1771.795	1665.093
-51.188	43.257	1572.913	1429.565
-50.173	40.773	1542.959	1384.993
-49.159	56.553	1581.503	1531.098
-48.144	62.287	1601.066	1590.370
-47.130	43.871	1564.098	1425.656
-46.115	40.343	1549.500	1387.631
-45.100	40.252	1545.783	1383.610
-44.086	40.089	1544.091	1380.904
-43.071	40.028	1541.832	1378.402
-42.057	39.968	1540.419	1376.670
-41.042	40.059	1538.552	1375.578
-40.027	40.034	1536.879	1373.851
-39.013	40.033	1535.255	1372.341
-37.998	40.004	1533.995	1370.959
-36.984	40.109	1532.544	1370.332
-35.969	40.077	1531.575	1369.195
-34.954	40.121	1530.141	1368.165
-33.940	39.986	1528.894	1366.060
-32.925	40.030	1527.226	1364.817
-31.911	40.158	1525.409	1364.026
-30.896	40.070	1524.235	1362.309
-29.881	40.086	1523.425	1361.647
-28.867	40.112	1521.716	1360.242
-27.852	40.140	1520.341	1359.149
-26.838	40.041	1519.296	1357.483
-25.823	40.049	1517.425	1355.810
-24.809	40.155	1515.560	1354.816
-23.794	40.080	1514.422	1353.237
-22.779	40.056	1513.126	1351.858
-21.765	40.136	1511.493	1350.895
-20.750	40.224	1510.184	1350.272
-19.736	40.138	1509.404	1348.932
-18.721	40.112	1508.529	1347.921
-17.706	40.100	1507.185	1346.583
-16.692	40.044	1506.025	1345.109
-15.677	39.986	1505.072	1343.816
-14.663	40.060	1504.130	1343.423
-13.648	39.994	1502.941	1341.858
-12.633	40.101	1501.814	1341.521
-11.619	40.096	1501.394	1341.061
-10.604	40.023	1500.311	1339.550
-9.590	39.988	1499.056	1338.137
-8.575	39.998	1498.463	1337.625
-7.560	40.087	1497.221	1337.064
-6.546	40.059	1496.226	1335.932
-5.531	39.911	1496.153	1334.810
-4.517	39.929	1495.042	1333.890
-3.502	40.034	1493.619	1333.272
-2.487	39.970	1492.473	1331.772
-1.473	40.062	1490.894	1330.926
-0.458	40.132	1489.578	1330.171
0.556	40.523	1480.940	1319.674
1.571	37.638	1452.955	1275.753
2.586	33.776	1390.378	1196.421
3.600	31.842	1306.025	1112.272
4.615	30.142	1257.619	1061.231
5.629	25.413	1198.369	985.275
6.644	13.553	1105.825	848.705
7.659	4.105	1058.970	766.125
8.673	2.722	1052.091	754.285
9.688	2.148	1049.976	749.885
10.702	2.060	1048.015	747.987
11.717	2.112	1046.193	746.872
12.731	5.585	1051.057	767.324
13.746	16.492	1066.588	832.576
14.761	24.597	1076.906	880.686
15.775	25.666	1077.169	886.089
16.790	25.772	1076.652	886.107
17.804	25.806	1075.342	885.120
18.819	25.530	1074.740	883.191
19.834	25.604	1074.264	883.083
20.848	25.626	1074.194	883.057
21.863	25.618	1073.802	882.614
22.877	25.761	1073.502	882.994
23.892	25.801	1072.022	881.893
24.907	25.677	1071.383	880.683
25.921	25.710	1070.819	880.303
26.936	25.702	1070.418	879.854
27.950	25.655	1069.066	878.437
28.965	25.554	1067.962	876.962
29.980	25.416	1066.661	875.142
30.994	25.592	1064.970	874.533
32.009	25.641	1064.342	874.177
33.023	25.735	1063.825	874.131
34.038	25.528	1063.150	872.495
35.053	25.527	1062.005	871.472
36.067	25.658	1061.218	871.386
37.082	25.601	1060.906	870.774
38.096	25.640	1060.068	870.199
39.111	25.853	1059.593	870.761
40.126	25.923	1058.263	869.929
41.140	25.902	1057.252	868.924
42.155	25.622	1055.771	866.278
43.169	25.286	1054.490	863.533
44.184	25.088	1053.508	861.700
45.199	25.324	1052.518	861.952
46.213	25.144	1051.768	860.394
47.228	25.270	1050.314	859.735
48.242	25.395	1050.229	860.187
49.257	25.500	1049.727	860.203
50.271	25.681	1048.285	859.808
51.286	25.640	1047.920	859.239
52.301	25.704	1047.314	858.972
53.315	25.755	1046.722	858.650
54.330	25.692	1045.632	857.381
55.344	25.658	1045.063	856.680
56.359	25.628	1044.144	855.706
57.374	25.600	1043.560	855.016
58.388	25.488	1042.151	853.257
59.403	25.496	1041.541	852.719
60.417	25.450	1041.500	852.393
61.432	25.282	1040.154	850.418
62.447	25.219	1039.585	849.580
63.461	25.333	1038.971	849.543
64.476	25.520	1037.860	849.445
65.490	25.426	1036.995	848.218
66.505	25.408	1036.184	847.394
67.520	25.265	1035.316	845.936
68.534	25.363	1034.714	845.829
69.549	25.198	1033.921	844.332
70.563	24.908	1032.903	842.060
71.578	24.912	1031.943	841.219
72.593	25.012	1031.007	840.855
73.607	24.684	1029.979	838.402
74.622	24.733	1029.183	837.911
75.636	25.007	1028.931	838.913
76.651	25.165	1028.256	839.031
77.666	24.957	1027.287	837.191
78.680	24.988	1026.282	836.445
79.695	25.005	1025.651	835.934
80.709	25.132	1024.970	835.898
81.724	25.218	1024.159	835.563
82.739	25.197	1023.272	834.667
83.753	25.245	1022.593	834.261
84.768	25.570	1022.011	835.223
85.782	25.603	1021.717	835.063
86.797	25.945	1020.610	835.669
87.812	25.963	1019.814	835.027
88.826	25.752	1018.931	833.255
89.841	25.815	1017.925	832.648
90.855	25.887	1017.438	832.508
91.870	25.796	1017.240	831.854
92.884	25.815	1015.994	830.850
93.899	25.844	1014.496	829.683
94.914	25.605	1013.700	827.860
95.928	25.854	1013.084	828.428
96.943	25.862	1012.577	827.980
97.957	25.723	1010.839	825.845
98.972	25.329	1009.948	823.239
99.987	25.069	1009.040	821.234
101.001	25.256	1008.318	821.431
102.016	25.544	1007.919	822.348
103.030	25.562	1007.261	821.824
104.045	25.480	1006.562	820.803
105.060	25.396	1004.576	818.729
106.074	25.201	1003.906	817.225
107.089	25.247	1003.291	816.859
108.103	25.434	1003.454	817.772
109.118	25.562	1002.261	817.307
110.133	25.304	1000.909	814.963
111.147	25.279	999.579	813.697
112.162	25.167	998.844	812.519
113.176	24.970	997.646	810.580
114.191	25.177	997.127	811.021
115.206	25.284	996.480	810.906
116.220	24.870	995.307	808.015
117.235	24.819	994.361	806.941
118.249	24.905	993.886	806.875
119.264	24.925	992.728	805.953
120.279	24.863	992.326	805.274
121.293	24.957	990.848	804.428
122.308	25.021	990.701	804.524
123.322	25.118	989.375	803.813
124.337	24.883	989.047	802.420
125.352	25.067	987.213	801.685
126.366	24.459	985.917	797.846
127.381	24.171	984.260	795.148
128.395	24.753	984.544	797.905
129.410	25.258	984.165	799.776
130.424	25.500	983.818	800.503
131.439	25.519	982.668	799.580
132.454	25.461	981.531	798.327
133.468	25.552	980.419	797.756
134.483	25.346	980.326	796.697
135.497	25.463	979.724	796.654
136.512	25.596	979.114	796.676
137.527	25.742	978.226	796.528
138.541	25.836	977.166	796.013
139.556	25.783	976.314	795.012
140.570	25.739	976.063	794.543
141.585	25.681	974.842	793.224
142.600	25.729	974.758	793.295
143.614	25.800	973.269	792.330
144.629	25.871	972.902	792.273
145.643	26.069	971.858	792.221
146.658	25.898	971.044	790.735
147.673	25.651	970.147	788.853
148.687	25.664	968.457	787.467
149.702	25.586	967.690	786.431
150.716	25.548	966.681	785.379
151.731	25.524	965.514	784.256
152.746	25.543	964.996	783.849
153.760	25.602	964.530	783.657
154.775	25.953	963.196	784.030
155.789	25.960	962.557	783.471
156.804	25.891	961.830	782.512
157.819	25.858	960.675	781.358
158.833	25.863	960.089	780.836
159.848	25.899	959.628	780.547
160.862	26.222	958.536	780.987
161.877	25.977	957.596	779.093
162.892	25.792	957.061	777.790
163.906	25.887	956.041	777.302
164.921	25.804	954.785	775.854
165.935	25.756	953.962	774.910
166.950	25.727	953.040	773.966
167.964	25.893	952.198	773.928
168.979	25.845	951.100	772.761
169.994	25.791	949.959	771.532
171.008	25.611	949.297	770.159
172.023	25.785	948.566	770.239
173.037	25.958	947.749	770.248
174.052	25.792	946.564	768.509
175.067	25.636	945.703	767.076
176.081	25.554	944.761	765.896
177.096	25.534	944.309	765.376
178.110	25.610	943.400	764.896
179.125	25.589	942.058	763.651
180.140	25.129	940.862	760.662
181.154	25.185	940.645	760.656
182.169	25.274	940.210	760.615
183.183	25.577	939.603	761.341
184.198	25.813	939.379	762.090
185.213	25.726	938.692	761.095
186.227	25.810	937.771	760.637
187.242	25.796	937.751	760.493
188.256	25.784	936.929	759.711
189.271	25.844	936.001	759.144
190.286	25.972	935.248	759.005
191.300	25.778	934.867	757.814
192.315	25.352	932.652	754.162
193.329	24.583	931.243	749.729
194.344	24.045	930.449	746.765
195.359	24.579	930.646	749.101
196.373	25.465	930.864	752.922
197.388	25.700	930.902	753.872
198.402	25.645	930.389	753.160
199.417	25.532	930.028	752.326
200.432	25.730	929.307	752.505
201.446	25.646	928.885	751.744
202.461	25.256	927.762	749.143
203.475	25.390	927.434	749.371
204.490	25.148	925.393	746.646
205.504	23.852	923.591	739.739
206.519	24.132	923.598	740.842
207.534	25.261	923.690	745.543
208.548	25.363	922.889	745.254
209.563	25.503	923.711	746.437
210.577	25.711	922.319	746.104
211.592	25.399	921.635	744.195
212.607	25.733	921.921	745.742
213.621	25.947	920.978	745.799
214.636	25.902	920.218	744.932
215.650	26.051	919.442	744.853
216.665	25.833	919.368	743.830
217.680	25.827	918.813	743.287
218.694	26.053	918.680	744.049
219.709	25.638	917.461	741.286
220.723	25.338	916.199	738.964
221.738	25.468	915.953	739.237
222.753	25.719	915.630	739.944
223.767	25.670	914.911	739.094
224.782	25.835	913.833	738.835
225.796	25.907	913.712	738.968
226.811	26.039	913.086	738.933
227.826	25.698	911.637	736.303
228.840	24.914	909.937	731.661
229.855	24.690	909.698	730.490
230.869	24.910	909.336	731.033
231.884	24.627	908.589	729.213
232.899	24.658	907.898	728.721
233.913	25.482	908.146	732.214
234.928	25.719	907.500	732.591
235.942	25.652	906.803	731.691
236.957	25.621	906.296	731.092
237.972	25.376	905.282	729.214
238.986	25.194	904.639	727.894
240.001	25.342	903.902	727.837
241.015	25.304	903.180	727.038
242.030	25.328	902.888	726.836
243.045	25.432	902.364	726.768
244.059	25.570	901.997	726.967
245.074	25.709	901.539	727.098
246.088	25.790	900.579	726.584
247.103	25.514	899.669	724.675
248.117	25.469	899.139	724.003
249.132	25.886	899.517	725.921
250.147	26.387	899.297	727.695
251.161	26.364	898.599	726.977
252.176	26.698	897.853	727.649
253.190	26.630	897.226	726.806
254.205	26.593	897.100	726.490
255.220	26.789	896.760	726.935
256.234	26.704	896.061	725.963
257.249	26.625	895.366	725.021
258.263	26.442	894.771	723.743
259.278	26.412	894.222	723.114
260.293	26.434	893.917	722.891
261.307	26.736	892.663	723.017
262.322	26.557	892.481	722.091
263.336	26.460	891.744	721.045
264.351	26.046	890.313	718.178
265.366	25.072	888.314	712.630
266.380	24.426	887.531	709.371
267.395	25.390	888.148	713.637
268.409	26.186	888.283	716.843
269.424	26.126	887.709	716.077
270.439	26.115	887.112	715.489
271.453	26.485	886.216	716.167
272.468	26.328	885.693	715.061
273.482	26.529	885.437	715.585
274.497	26.677	885.033	715.782
275.512	26.566	883.694	714.196
276.526	25.897	882.492	710.525
277.541	26.066	882.035	710.762
278.555	26.562	881.751	712.421
279.570	26.274	881.455	710.984
280.585	26.028	880.454	709.148
281.599	26.123	880.380	709.399
282.614	26.286	879.782	709.495
283.628	25.996	878.327	707.122
284.643	25.569	877.652	704.844
285.657	25.892	877.680	706.069
286.672	25.805	877.044	705.154
287.687	25.237	876.159	702.159
288.701	25.596	876.016	703.383
289.716	26.105	875.856	705.184
290.730	25.757	874.678	702.814
291.745	25.580	874.087	701.587
292.760	25.425	873.087	700.117
293.774	25.447	872.239	699.461
294.789	26.273	872.953	703.188
295.803	26.885	873.189	705.700
296.818	26.864	872.765	705.212
297.833	26.981	872.015	704.997
298.847	26.747	870.965	703.178
299.862	26.473	870.163	701.407
300.876	26.581	869.652	701.352
301.891	26.947	869.095	702.257
302.906	27.049	868.392	702.022
303.920	26.638	867.479	699.634
304.935	26.404	867.035	698.312
305.949	26.815	866.933	699.752
306.964	27.036	866.120	699.886
307.979	26.768	865.535	698.321
308.993	26.568	865.205	697.222
310.008	26.861	864.873	698.021
311.022	27.133	864.541	698.734
312.037	26.889	863.910	697.226
313.052	26.659	863.233	695.735
314.066	26.531	862.594	694.667
315.081	25.941	860.990	691.053
316.095	25.039	859.885	686.650
317.110	25.617	859.910	688.823
318.125	26.487	860.244	692.362
319.139	26.171	859.279	690.317
320.154	25.042	857.357	684.402
321.168	24.395	856.569	681.241
322.183	24.939	857.140	683.713
323.197	25.941	857.420	687.699
324.212	26.344	856.870	688.735
325.227	26.514	856.688	689.176
326.241	26.722	856.198	689.513
327.256	26.604	855.570	688.497
328.270	26.380	854.928	687.068
329.285	26.494	854.063	686.744
330.300	26.285	853.129	685.138
331.314	26.147	852.289	683.882
332.329	26.026	851.854	683.014
333.343	26.421	851.863	684.455
334.358	26.796	851.096	685.195
335.373	26.788	851.044	685.063
336.387	26.718	850.452	684.261
337.402	26.947	850.334	684.970
338.416	27.195	849.816	685.427
339.431	27.196	848.879	684.616
340.446	27.306	848.251	684.464
341.460	27.437	848.294	684.928
342.475	27.370	847.808	684.226
343.489	27.191	846.695	682.593
344.504	27.182	846.383	682.249
345.519	27.355	846.038	682.559
346.533	27.472	845.826	682.765
347.548	27.628	845.315	682.876
348.562	27.756	844.959	683.009
349.577	27.694	843.809	681.786
350.592	27.433	843.219	680.274
351.606	27.498	842.953	680.243
352.621	27.432	842.812	679.823
353.635	27.352	841.950	678.770
354.650	27.359	841.399	678.290
355.665	27.024	840.422	676.197
356.679	26.014	838.426	670.776
357.694	25.833	838.144	669.816
358.708	26.520	838.218	672.372
359.723	26.517	837.601	671.807
360.738	26.624	837.706	672.227
361.752	27.144	837.614	674.024
362.767	27.183	837.057	673.659
363.781	27.427	836.902	674.379
364.796	27.828	836.713	675.654
365.810	27.839	836.546	675.497
366.825	27.930	836.091	675.406
367.840	28.078	835.485	675.404
368.854	27.870	834.709	673.949
369.869	27.450	834.002	671.771
370.883	27.337	833.193	670.644
371.898	27.340	832.725	670.216
372.913	27.090	832.580	669.122
373.927	27.119	831.708	668.470
374.942	27.326	830.863	668.491
375.956	27.462	830.235	668.426
376.971	27.616	829.797	668.579
377.986	27.809	829.264	668.797
379.000	27.812	829.240	668.730
380.015	27.856	828.999	668.637
381.029	27.708	827.772	667.048
382.044	27.693	827.307	666.557
383.059	27.754	826.891	666.387
384.073	27.816	826.593	666.313
385.088	27.767	825.970	665.574
386.102	27.808	825.342	665.161
387.117	27.653	824.462	663.825
388.132	27.623	823.884	663.195
389.146	27.481	823.269	662.123
390.161	26.899	822.360	659.219
391.175	26.941	822.059	659.071
392.190	27.432	822.268	660.964
393.205	27.499	821.785	660.761
394.219	26.657	819.732	656.004
395.234	25.026	817.239	648.057
396.248	24.108	816.167	643.831
397.263	24.994	817.365	647.929
398.278	26.861	818.884	655.831
399.292	27.466	818.585	657.718
400.307	27.085	817.982	655.802
401.321	27.295	817.094	655.791
402.336	27.234	817.024	655.454
403.350	27.393	816.909	655.877
404.365	27.997	816.838	657.939
405.380	28.300	816.560	658.746
406.394	28.457	816.651	659.324
407.409	28.521	816.573	659.435
408.423	28.621	815.591	658.942
409.438	28.615	815.042	658.417
410.453	28.534	814.562	657.681
411.467	28.578	814.117	657.422
412.482	28.632	813.713	657.230
413.496	28.457	813.153	656.097
414.511	28.643	812.735	656.365
415.526	28.663	812.399	656.108
416.540	28.585	812.073	655.505
417.555	28.561	811.478	654.882
418.569	28.335	810.630	653.335
419.584	28.252	809.930	652.415
420.599	28.371	809.690	652.588
421.613	97.597	1267.535	1388.980
422.628	83.951	1334.290	1389.107
