DTS Sentinel unit serial number:	SN413079Multiplexer serial number:	ORYXHardware model number:	OX4-SRSoftware version number:	ORYX F/W v4.00 Oryx Data Collector v3.7.2.0data status	okinstallation	princeton_trtdifferential loss correction	single-endedforward channel	channel 3reverse channel	N/Adate	2019/09/18time	08:56:35forward acquisition time	60.00reverse acquisition time	0.00gamma	496.2192k internal	0.2339k external	0.2339temperature offset calibration	0.9951default loss term (dB/km)	0.3790temperature slope calibration	1.0000multiplexer offset coefficient	1.0000multiplexer slope coefficient	1.0000fibre end	0.00T internal ref (°C)	24.94T ext. ref 1 (°C)	0.23T ext. ref 2 (°C)	21.28length (m)	temperature (°C)	Stokes	anti-Stokes-747.200	800.000	-0.059	0.219
-746.185	-155.036	0.228	0.015
-745.171	109.741	0.232	0.279
-744.156	800.000	-0.056	0.228
-743.142	-81.781	-0.287	0.094
-742.127	-60.947	-0.409	0.173
-741.112	-41.777	-0.201	0.103
-740.098	800.000	-0.047	0.174
-739.083	131.300	-0.051	-0.065
-738.069	800.000	0.026	0.113
-737.054	800.000	-0.083	0.347
-736.039	51.745	-0.300	-0.287
-735.025	-200.000	-0.020	-0.223
-734.010	-200.000	-0.009	-0.056
-732.996	323.845	-0.053	-0.102
-731.981	-0.612	-0.213	0.151
-730.966	-91.062	-0.271	-0.078
-729.952	-200.000	-0.032	0.178
-728.937	163.193	-0.112	0.158
-727.923	15.335	0.149	0.118
-726.908	-114.383	-0.364	-0.070
-725.894	75.806	-0.044	0.047
-724.879	-200.000	0.004	0.056
-723.864	-200.000	-0.080	-0.499
-722.850	800.000	0.082	-0.256
-721.835	-28.664	0.064	0.037
-720.821	-87.663	-0.181	0.055
-719.806	-57.037	-0.072	-0.032
-718.791	-157.352	0.288	0.017
-717.777	-94.937	-0.263	0.071
-716.762	-133.391	0.198	0.025
-715.748	800.000	-0.017	0.047
-714.733	146.571	-0.064	-0.086
-713.718	30.246	-0.046	-0.039
-712.704	268.199	-0.242	-0.424
-711.689	382.813	-0.070	0.143
-710.675	73.743	-0.185	-0.195
-709.660	1.889	0.107	0.077
-708.645	-74.524	-0.367	-0.133
-707.631	538.323	0.138	0.330
-706.616	800.000	-0.044	0.156
-705.602	586.309	0.042	0.104
-704.587	112.485	0.176	0.213
-703.572	-10.584	-0.098	-0.065
-702.558	732.884	0.059	-0.157
-701.543	-200.000	0.033	-0.168
-700.529	351.840	-0.038	-0.076
-699.514	141.091	0.127	-0.169
-698.499	-122.841	-0.248	-0.040
-697.485	-41.707	-0.176	-0.090
-696.470	-41.800	0.278	-0.143
-695.456	214.455	-0.271	-0.429
-694.441	542.631	-0.045	-0.109
-693.426	97.663	-0.162	-0.186
-692.412	-200.000	-0.043	-0.262
-691.397	-64.810	-0.302	-0.123
-690.383	-200.000	-0.041	0.287
-689.368	-49.019	0.116	-0.056
-688.354	-200.000	-0.017	0.217
-687.339	800.000	-0.055	0.180
-686.324	64.327	0.214	-0.215
-685.310	142.806	-0.249	0.331
-684.295	-200.000	0.059	-0.292
-683.281	-139.107	-0.165	0.018
-682.266	101.479	-0.243	0.283
-681.251	77.756	-0.111	-0.119
-680.237	800.000	-0.104	0.387
-679.222	-166.516	-0.149	-0.006
-678.208	95.091	-0.247	-0.281
-677.193	69.164	0.122	-0.126
-676.178	800.000	0.103	-0.303
-675.164	566.084	-0.145	0.352
-674.149	230.557	0.087	0.142
-673.135	19.888	0.079	-0.064
-672.120	-120.066	0.354	0.061
-671.105	204.884	0.004	0.007
-670.091	21.104	0.150	-0.122
-669.076	-117.818	0.254	0.046
-668.062	-13.318	0.118	-0.076
-667.047	-97.882	-0.230	-0.059
-666.032	769.987	0.203	0.553
-665.018	-21.252	0.163	-0.099
-664.003	-200.000	-0.067	0.430
-662.989	-18.257	-0.467	0.292
-661.974	-98.486	-0.314	-0.080
-660.959	-200.000	0.020	0.103
-659.945	53.376	0.078	0.075
-658.930	-200.000	-0.016	-0.359
-657.916	-200.000	-0.022	0.437
-656.901	800.000	0.116	-0.361
-655.886	360.472	0.073	-0.147
-654.872	-200.000	-0.007	-0.117
-653.857	800.000	0.066	-0.254
-652.843	800.000	0.070	-0.252
-651.828	191.085	0.227	-0.341
-650.814	-200.000	0.007	-0.085
-649.799	-200.000	-0.026	0.134
-648.784	151.440	-0.081	-0.110
-647.770	800.000	-0.087	-0.305
-646.755	-39.042	-0.058	-0.031
-645.741	-200.000	0.018	0.364
-644.726	-111.847	-0.416	-0.084
-643.711	-64.058	-0.292	0.119
-642.697	-3.322	0.242	0.168
-641.682	56.247	-0.140	0.136
-640.668	-200.000	0.059	-0.368
-639.653	-101.980	-0.256	0.062
-638.638	-200.000	0.007	-0.224
-637.624	12.894	0.101	0.078
-636.609	486.527	-0.180	-0.411
-635.595	-140.028	0.052	-0.005
-634.580	-111.585	-0.398	0.081
-633.565	-121.256	0.186	0.031
-632.551	-200.000	-0.030	-0.179
-631.536	800.000	0.033	-0.143
-630.522	28.813	0.206	-0.175
-629.507	118.447	0.067	-0.082
-628.492	-20.679	0.280	-0.172
-627.478	-110.127	0.164	0.034
-626.463	24.679	0.253	-0.209
-625.449	-67.196	-0.090	-0.036
-624.434	-200.000	-0.016	-0.377
-623.419	76.516	0.166	-0.176
-622.405	-105.798	0.347	0.078
-621.390	-200.000	0.012	-0.119
-620.376	-200.000	-0.059	-0.308
-619.361	-200.000	-0.016	-0.087
-618.346	-61.596	-0.422	-0.177
-617.332	800.000	0.057	-0.229
-616.317	-184.867	0.142	0.002
-615.303	-67.214	-0.128	0.050
-614.288	-37.005	-0.124	0.066
-613.273	-69.542	-0.055	0.021
-612.259	225.568	0.121	0.195
-611.244	-127.326	0.215	-0.031
-610.230	800.000	0.042	-0.163
-609.215	-200.000	0.022	0.104
-608.201	800.000	-0.113	0.375
-607.186	-101.425	-0.174	0.042
-606.171	-142.468	0.115	0.011
-605.157	231.684	0.233	-0.380
-604.142	-200.000	0.029	0.255
-603.128	-200.000	0.006	-0.275
-602.113	-15.166	-0.250	0.160
-601.098	419.196	-0.190	0.405
-600.084	-102.446	0.079	0.019
-599.069	-132.764	0.075	0.010
-598.055	-100.503	0.190	-0.047
-597.040	-68.643	-0.116	0.045
-596.025	18.898	0.280	0.223
-595.011	-200.000	0.032	-0.166
-593.996	87.511	0.191	-0.211
-592.982	-144.744	-0.092	-0.008
-591.967	-197.716	0.290	-0.002
-590.952	-200.000	0.018	0.445
-589.938	-180.150	-0.154	-0.003
-588.923	435.851	0.159	0.345
-587.909	279.084	-0.114	-0.202
-586.894	-200.000	-0.228	0.000
-585.879	385.617	0.077	-0.158
-584.865	119.322	0.122	0.150
-583.850	49.254	-0.162	-0.151
-582.836	246.422	-0.100	-0.168
-581.821	-98.114	-0.185	-0.047
-580.806	-18.269	-0.139	0.087
-579.792	-116.186	0.126	0.023
-578.777	-35.718	-0.162	0.087
-577.763	367.138	0.069	0.139
-576.748	-200.000	-0.033	-0.343
-575.733	183.085	0.228	-0.335
-574.719	45.665	0.192	-0.177
-573.704	26.352	0.081	0.067
-572.690	83.915	0.153	-0.166
-571.675	-85.451	0.357	0.111
-570.661	800.000	-0.122	0.336
-569.646	800.000	-0.121	-0.503
-568.631	-138.287	-0.344	-0.038
-567.617	306.175	-0.053	0.099
-566.602	-81.588	-0.380	-0.124
-565.588	54.534	-0.094	0.090
-564.573	-31.924	0.064	-0.036
-563.558	-66.892	0.186	-0.073
-562.544	23.264	0.002	0.001
-561.529	-80.479	-0.397	-0.132
-560.515	-62.069	-0.409	-0.170
-559.500	-74.394	0.191	-0.069
-558.485	800.000	-0.071	-0.237
-557.471	-117.248	-0.211	0.038
-556.456	120.124	-0.162	-0.200
-555.442	-200.000	0.093	0.000
-554.427	767.203	0.047	-0.128
-553.412	-33.405	-0.312	-0.172
-552.398	-64.361	0.440	0.178
-551.383	46.547	-0.218	0.202
-550.369	-200.000	-0.015	-0.174
-549.354	-140.662	0.166	0.017
-548.339	-129.305	0.191	0.026
-547.325	-146.706	0.132	-0.011
-546.310	704.468	-0.032	0.085
-545.296	244.469	0.189	0.316
-544.281	-200.000	-0.091	0.435
-543.266	200.631	-0.151	0.232
-542.252	-145.817	0.286	0.025
-541.237	-102.497	0.164	-0.039
-540.223	800.000	0.054	0.149
-539.208	-148.605	0.139	-0.011
-538.193	800.000	-0.035	-0.118
-537.179	-200.000	0.062	0.340
-536.164	-200.000	0.020	0.154
-535.150	296.710	0.023	0.041
-534.135	117.697	-0.178	0.218
-533.121	74.152	-0.197	0.205
-532.106	271.306	-0.065	-0.114
-531.091	-109.990	-0.349	0.073
-530.077	800.000	0.085	0.308
-529.062	-58.321	-0.160	-0.069
-528.048	82.979	0.100	-0.108
-527.033	46.839	0.046	-0.043
-526.018	150.821	-0.294	-0.397
-525.004	-123.158	-0.180	-0.029
-523.989	-129.290	0.401	0.056
-522.975	-25.857	0.070	-0.041
-521.960	-200.000	0.003	0.110
-520.945	99.039	0.223	0.256
-519.931	224.281	0.111	-0.179
-518.916	3.833	0.080	-0.058
-517.902	-199.083	-0.237	-0.001
-516.887	584.506	0.039	-0.095
-515.872	-200.000	-0.032	-0.328
-514.858	-200.000	-0.005	-0.078
-513.843	105.697	-0.064	0.076
-512.829	350.060	0.110	0.217
-511.814	185.417	0.139	0.205
-510.799	583.435	0.017	-0.040
-509.785	45.549	0.112	-0.102
-508.770	-37.563	0.072	0.038
-507.756	-140.548	-0.340	-0.035
-506.741	-132.548	0.225	-0.029
-505.726	-95.231	0.324	0.087
-504.712	-143.028	-0.211	-0.020
-503.697	-29.795	-0.307	-0.174
-502.683	-71.044	0.309	-0.116
-501.668	405.115	-0.168	-0.352
-500.653	141.583	-0.088	-0.116
-499.639	800.000	-0.060	-0.181
-498.624	-162.340	-0.472	0.023
-497.610	800.000	0.021	0.083
-496.595	-199.211	0.144	0.001
-495.581	429.886	0.214	-0.461
-494.566	-128.367	-0.364	0.051
-493.551	800.000	0.053	-0.173
-492.537	328.030	0.118	0.225
-491.522	800.000	-0.093	0.351
-490.508	-200.000	-0.012	0.066
-489.493	-200.000	-0.038	-0.199
-488.478	-106.743	0.164	0.036
-487.464	786.830	0.033	0.090
-486.449	-175.033	0.283	-0.008
-485.435	-2.364	-0.230	-0.160
-484.420	63.532	0.092	0.091
-483.405	0.494	0.269	0.191
-482.391	255.612	0.118	0.200
-481.376	48.285	0.173	0.161
-480.362	-85.449	-0.250	0.077
-479.347	-126.140	0.095	0.014
-478.332	-112.005	0.435	-0.087
-477.318	-200.000	0.003	0.267
-476.303	65.257	0.158	0.159
-475.289	-54.095	0.065	-0.029
-474.274	-200.000	0.007	0.122
-473.259	31.214	0.225	0.192
-472.245	-9.755	-0.173	-0.114
-471.230	124.048	0.202	-0.251
-470.216	-200.000	0.013	0.122
-469.201	227.460	-0.212	-0.342
-468.186	-101.937	-0.054	-0.013
-467.172	-13.483	0.188	0.121
-466.157	-183.289	0.155	0.003
-465.143	-200.000	-0.005	0.027
-464.128	-200.000	0.141	-0.000
-463.113	-111.669	-0.119	0.024
-462.099	-68.510	-0.167	-0.064
-461.084	-157.629	0.186	0.011
-460.070	-200.000	-0.023	-0.143
-459.055	-100.968	-0.301	-0.073
-458.040	-200.000	0.032	0.481
-457.026	-102.234	-0.237	0.056
-456.011	65.788	-0.106	0.107
-454.997	-54.718	-0.208	0.093
-453.982	-200.000	0.005	0.246
-452.968	800.000	0.138	-0.394
-451.953	-49.673	-0.126	0.060
-450.938	-200.000	0.000	0.025
-449.924	-200.000	0.026	0.115
-448.909	-35.711	0.162	-0.087
-447.895	-75.309	-0.068	-0.024
-446.880	-70.079	-0.102	-0.038
-445.865	124.738	0.101	-0.127
-444.851	-200.000	-0.014	-0.147
-443.836	-117.918	0.239	-0.042
-442.822	103.517	0.182	-0.212
-441.807	800.000	0.122	-0.378
-440.792	-102.804	-0.117	0.028
-439.778	93.150	0.133	0.149
-438.763	-200.000	-0.021	-0.092
-437.749	-200.000	0.008	-0.046
-436.734	-26.025	0.279	0.162
-435.719	229.406	0.184	0.298
-434.705	-200.000	-0.027	0.289
-433.690	93.004	-0.258	0.288
-432.676	94.766	0.114	-0.128
-431.661	-200.000	-0.026	-0.249
-430.646	-78.097	-0.206	0.070
-429.632	80.078	0.060	-0.064
-428.617	24.513	0.265	0.218
-427.603	-110.002	-0.142	-0.029
-426.588	800.000	0.079	0.304
-425.573	-101.763	0.184	-0.044
-424.559	-200.000	-0.019	-0.122
-423.544	-44.291	-0.340	-0.169
-422.530	-135.790	-0.384	0.045
-421.515	-200.000	0.024	0.197
-420.500	29.965	0.254	0.215
-419.486	800.000	-0.097	0.297
-418.471	-61.841	-0.320	0.133
-417.457	64.947	-0.337	0.337
-416.442	45.561	0.134	0.122
-415.428	-4.031	0.176	-0.121
-414.413	-19.277	0.322	-0.198
-413.398	800.000	-0.072	0.222
-412.384	-61.033	0.369	-0.154
-411.369	800.000	0.030	0.107
-410.355	-168.073	0.225	-0.009
-409.340	-200.000	0.052	0.237
-408.325	-200.000	-0.017	0.228
-407.311	2.814	-0.219	-0.158
-406.296	800.000	0.053	0.216
-405.282	-62.844	-0.299	-0.123
-404.267	41.661	0.080	-0.072
-403.252	-75.792	-0.220	-0.077
-402.238	188.901	0.177	-0.262
-401.223	244.308	0.097	-0.162
-400.209	-152.989	-0.016	0.001
-399.194	9.677	-0.194	0.146
-398.179	164.967	0.149	0.208
-397.165	-77.665	0.126	-0.043
-396.150	125.783	-0.177	-0.221
-395.136	515.262	-0.050	0.115
-394.121	-64.625	-0.552	-0.221
-393.106	339.588	-0.160	0.308
-392.092	-161.397	0.167	-0.009
-391.077	-97.387	-0.079	0.020
-390.063	-104.489	0.075	-0.017
-389.048	-147.444	0.199	0.017
-388.033	-200.000	-0.047	0.279
-387.019	-200.000	0.024	-0.198
-386.004	10.521	0.033	0.025
-384.990	78.201	-0.157	0.166
-383.975	108.382	0.156	0.185
-382.960	316.153	-0.161	0.301
-381.946	184.135	0.146	-0.214
-380.931	-200.000	-0.011	0.172
-379.917	-45.370	-0.142	-0.070
-378.902	800.000	0.077	0.245
-377.888	329.210	0.230	-0.438
-376.873	22.447	0.113	-0.091
-375.858	306.876	-0.065	0.119
-374.844	-200.000	-0.037	0.261
-373.829	-200.000	0.046	0.291
-372.815	-46.016	-0.249	-0.121
-371.800	-134.784	0.306	0.037
-370.785	-54.374	-0.156	-0.070
-369.771	800.000	0.087	0.249
-368.756	566.319	0.136	-0.326
-367.742	-17.158	-0.280	0.174
-366.727	392.882	0.046	0.095
-365.712	-51.447	-0.430	0.198
-364.698	133.953	0.148	0.190
-363.683	34.158	-0.247	-0.213
-362.669	-200.000	0.003	0.159
-361.654	-52.926	0.211	-0.096
-360.639	57.866	0.020	-0.020
-359.625	107.289	0.200	-0.235
-358.610	800.000	0.060	0.167
-357.596	243.631	-0.187	0.311
-356.581	-57.214	0.295	-0.128
-355.566	102.004	0.046	-0.053
-354.552	377.013	0.085	-0.172
-353.537	-113.840	-0.115	-0.022
-352.523	439.976	0.098	0.211
-351.508	94.927	-0.047	0.052
-350.493	-130.629	-0.384	-0.051
-349.479	800.000	-0.084	-0.260
-348.464	203.838	0.100	0.153
-347.450	-87.539	-0.459	-0.137
-346.435	780.632	-0.044	-0.119
-345.420	204.999	0.053	0.082
-344.406	586.432	0.079	0.192
-343.391	-41.150	0.301	-0.153
-342.377	-63.231	-0.292	0.119
-341.362	185.059	0.236	0.346
-340.348	115.613	0.107	0.130
-339.333	-200.000	0.012	-0.117
-338.318	97.802	0.088	-0.100
-337.304	-200.000	0.000	0.148
-336.289	-31.976	-0.146	0.081
-335.275	-200.000	0.025	-0.137
-334.260	-200.000	0.041	0.228
-333.245	-0.242	0.025	-0.017
-332.231	-121.338	0.272	-0.045
-331.216	-2.806	-0.125	0.086
-330.202	111.492	0.111	-0.132
-329.187	143.564	-0.128	0.169
-328.172	-149.716	0.205	0.016
-327.158	-34.792	-0.417	-0.225
-326.143	585.773	0.091	0.221
-325.129	800.000	0.028	0.092
-324.114	143.270	0.148	-0.194
-323.099	-73.290	0.029	-0.010
-322.085	115.069	-0.106	-0.128
-321.070	308.362	-0.127	0.235
-320.056	-29.254	-0.114	0.064
-319.041	-142.481	0.139	-0.013
-318.026	133.081	0.247	-0.315
-317.012	-73.978	0.460	-0.164
-315.997	-50.072	0.325	-0.152
-314.983	25.035	-0.024	-0.020
-313.968	152.465	-0.155	-0.208
-312.953	104.605	-0.048	0.055
-311.939	23.750	0.225	0.183
-310.924	-64.918	0.289	-0.115
-309.910	-146.186	0.106	0.009
-308.895	506.813	-0.036	0.082
-307.880	-32.394	0.119	-0.066
-306.866	-144.658	-0.401	-0.036
-305.851	68.606	0.191	-0.193
-304.837	-124.911	0.288	0.044
-303.822	-90.145	0.069	0.020
-302.807	371.680	0.121	-0.242
-301.793	610.012	-0.115	0.284
-300.778	764.694	0.010	0.026
-299.764	-97.401	0.279	0.072
-298.749	800.000	0.047	-0.130
-297.735	277.600	0.100	0.176
-296.720	318.664	-0.086	-0.161
-295.705	-88.160	0.051	0.015
-294.691	-35.184	0.007	-0.004
-293.676	217.148	0.207	-0.325
-292.662	31.822	-0.175	0.149
-291.647	-101.440	-0.082	-0.020
-290.632	-200.000	0.001	-0.177
-289.618	800.000	0.070	-0.258
-288.603	51.695	-0.092	0.086
-287.589	21.653	-0.224	-0.180
-286.574	-200.000	0.031	0.243
-285.559	-178.409	0.104	0.002
-284.545	-151.942	0.069	0.005
-283.530	-51.380	-0.353	-0.163
-282.516	-17.037	-0.061	-0.038
-281.501	-157.834	0.320	-0.019
-280.486	-91.993	0.115	0.032
-279.472	-92.373	-0.148	0.041
-278.457	-200.000	0.029	0.293
-277.443	292.536	-0.091	0.163
-276.428	-35.879	-0.123	-0.066
-275.413	20.389	-0.178	-0.142
-274.399	-134.652	0.135	0.016
-273.384	-87.945	-0.266	-0.079
-272.370	-115.518	0.329	-0.061
-271.355	15.376	-0.161	-0.124
-270.340	-97.047	-0.173	-0.045
-269.326	-81.727	-0.311	-0.100
-268.311	800.000	0.087	0.315
-267.297	-122.334	0.214	-0.034
-266.282	29.430	0.248	0.207
-265.267	-61.866	0.144	-0.059
-264.253	-57.798	-0.179	0.077
-263.238	164.330	-0.157	0.217
-262.224	193.536	-0.072	0.107
-261.209	800.000	0.045	-0.156
-260.195	800.000	0.030	-0.082
-259.180	-70.232	0.170	0.064
-258.165	-7.992	-0.138	0.091
-257.151	111.490	-0.179	0.213
-256.136	-200.000	0.020	0.125
-255.122	62.743	-0.170	0.168
-254.107	-79.978	-0.167	0.055
-253.092	-200.000	0.026	-0.222
-252.078	12.395	-0.139	-0.106
-251.063	-76.027	0.172	0.060
-250.049	-199.521	0.075	-0.000
-249.034	-159.931	-0.364	0.020
-248.019	324.129	-0.145	0.272
-247.005	-88.884	-0.263	0.077
-245.990	-58.475	-0.253	-0.108
-244.976	-136.786	0.173	-0.020
-243.961	-200.000	0.046	0.217
-242.946	249.063	-0.108	0.180
-241.932	-200.000	0.059	-0.352
-240.917	800.000	0.059	0.161
-239.903	-113.706	-0.354	-0.068
-238.888	167.561	-0.051	-0.071
-237.873	-86.997	0.134	0.040
-236.859	-10.628	-0.171	-0.112
-235.844	-6.651	-0.141	0.094
-234.830	101.879	-0.134	-0.154
-233.815	235.282	-0.112	-0.182
-232.800	71.025	0.125	0.127
-231.786	800.000	-0.030	0.095
-230.771	26.216	-0.293	-0.240
-229.757	166.827	-0.232	-0.324
-228.742	224.933	-0.081	0.129
-227.727	800.000	0.097	0.273
-226.713	98.259	-0.395	0.447
-225.698	800.000	0.045	0.134
-224.684	-200.000	-0.012	0.120
-223.669	-105.649	0.353	-0.079
-222.655	-200.000	0.039	-0.280
-221.640	-200.000	-0.038	-0.232
-220.625	-79.204	-0.172	0.057
-219.611	62.957	0.215	-0.212
-218.596	-3.555	-0.079	-0.054
-217.582	59.171	-0.162	0.157
-216.567	800.000	0.097	-0.310
-215.552	26.083	0.277	0.227
-214.538	-149.541	0.189	-0.015
-213.523	-200.000	-0.028	-0.278
-212.509	34.146	0.226	0.194
-211.494	-20.600	0.242	0.146
-210.479	-200.000	-0.090	-0.431
-209.465	-140.167	0.188	-0.019
-208.450	-200.000	0.033	-0.167
-207.436	-200.000	0.029	0.152
-206.421	32.709	-0.252	-0.214
-205.406	-171.871	-0.017	-0.001
-204.392	-88.011	-0.343	-0.101
-203.377	300.727	-0.037	0.067
-202.363	800.000	0.097	0.296
-201.348	-72.020	-0.147	0.054
-200.333	55.447	0.057	0.055
-199.319	-123.343	0.462	-0.072
-198.304	800.000	0.059	-0.177
-197.290	345.282	0.022	-0.042
-196.275	-72.697	0.045	-0.016
-195.260	-200.000	0.036	-0.355
-194.246	-200.000	0.011	-0.295
-193.231	-40.440	-0.171	-0.087
-192.217	-50.100	-0.038	-0.017
-191.202	188.506	-0.123	-0.180
-190.187	-200.000	-0.024	0.120
-189.173	5.722	-0.176	-0.128
-188.158	-88.240	-0.116	-0.034
-187.144	800.000	0.122	-0.373
-186.129	288.976	0.198	-0.352
-185.114	-200.000	-0.044	0.336
-184.100	298.619	0.163	0.293
-183.085	153.669	0.042	0.057
-182.071	34.206	-0.054	0.046
-181.056	361.989	-0.090	-0.176
-180.042	-113.423	-0.284	-0.055
-179.027	-119.897	-0.210	0.035
-178.012	114.126	0.279	0.333
-176.998	-137.271	0.406	0.045
-175.983	-80.204	-0.150	0.049
-174.969	55.667	-0.018	-0.017
-173.954	-108.092	-0.197	-0.042
-172.939	-34.409	-0.151	-0.081
-171.925	38.662	-0.121	-0.106
-170.910	-200.000	0.025	0.139
-169.896	-200.000	-0.026	0.389
-168.881	-154.658	0.369	0.024
-167.866	-200.000	-0.034	-0.404
-166.852	207.650	-0.203	0.310
-165.837	-41.572	0.310	0.156
-164.823	450.646	-0.143	0.310
-163.808	800.000	-0.090	0.250
-162.793	-53.576	-0.199	0.089
-161.779	-116.039	0.168	-0.031
-160.764	-200.000	-0.035	0.196
-159.750	626.114	0.033	0.082
-158.735	139.567	-0.118	-0.152
-157.720	-15.412	0.330	-0.206
-156.706	47.485	0.134	-0.122
-155.691	232.672	0.178	-0.286
-154.677	-36.554	0.110	0.058
-153.662	115.115	0.211	-0.253
-152.647	-42.239	-0.189	-0.095
-151.633	-49.134	-0.375	-0.176
-150.618	-122.998	0.044	-0.007
-149.604	-105.535	-0.366	0.081
-148.589	-115.863	0.154	-0.028
-147.574	-76.352	-0.183	0.063
-146.560	322.047	0.116	0.216
-145.545	800.000	-0.065	0.274
-144.531	69.904	0.343	-0.347
-143.516	-167.387	-0.132	0.005
-142.502	-54.730	-0.231	0.102
-141.487	335.918	0.158	-0.299
-140.472	-37.096	0.205	0.107
-139.458	125.938	0.077	0.096
-138.443	800.000	0.085	-0.278
-137.429	115.653	0.039	-0.047
-136.414	-200.000	-0.008	-0.241
-135.399	46.385	-0.065	0.059
-134.385	-100.023	0.129	-0.032
-133.370	152.205	-0.074	0.098
-132.356	-119.575	0.242	-0.041
-131.341	-200.000	-0.013	0.204
-130.326	-80.093	0.191	-0.063
-129.312	-101.322	0.200	-0.048
-128.297	-200.000	0.014	-0.250
-127.283	-70.908	-0.071	-0.026
-126.268	445.167	0.057	0.122
-125.253	150.570	-0.120	0.160
-124.239	-68.818	0.088	-0.033
-123.224	193.471	0.060	-0.089
-122.210	451.609	0.062	-0.133
-121.195	-47.258	-0.114	-0.054
-120.180	-200.000	0.008	0.199
-119.166	-84.237	-0.238	-0.074
-118.151	-136.205	0.467	0.053
-117.137	-80.847	-0.253	-0.082
-116.122	-103.362	-0.447	-0.103
-115.107	-54.395	0.446	0.198
-114.093	758.220	-0.071	-0.187
-113.078	482.662	0.056	-0.125
-112.064	-200.000	-0.041	-0.229
-111.049	-29.730	-0.289	0.161
-110.034	-200.000	-0.001	-0.242
-109.020	-200.000	0.003	0.024
-108.005	-33.437	0.121	0.065
-106.991	-200.000	0.006	0.089
-105.976	224.093	-0.147	0.232
-104.962	200.175	-0.089	0.134
-103.947	-200.000	-0.015	-0.147
-102.932	63.567	0.172	0.169
-101.918	-72.071	0.228	0.083
-100.903	-150.130	0.320	-0.024
-99.889	-110.769	0.195	-0.039
-98.874	694.941	-0.037	-0.095
-97.859	44.971	-0.329	0.297
-96.845	-69.068	0.169	0.064
-95.830	121.994	0.172	0.210
-94.816	800.000	-0.072	0.199
-93.801	204.216	0.081	0.123
-92.786	126.553	0.069	-0.085
-91.772	800.000	0.067	0.209
-90.757	8.967	0.256	-0.189
-89.743	-200.000	0.016	0.102
-88.728	-127.242	0.207	0.030
-87.713	330.389	-0.095	-0.179
-86.699	-10.936	0.201	-0.129
-85.684	-151.414	-0.080	0.006
-84.670	-175.018	0.386	-0.011
-83.655	-200.000	0.025	-0.171
-82.640	-200.000	-0.005	-0.031
-81.626	800.000	-0.036	0.111
-80.611	-124.472	0.256	0.039
-79.597	800.000	-0.101	-0.286
-78.582	386.864	0.136	-0.274
-77.567	107.189	0.221	-0.256
-76.553	-137.050	-0.072	0.008
-75.538	164.047	-0.086	0.119
-74.524	-92.340	0.199	0.055
-73.509	-55.118	-0.439	-0.193
-72.494	216.714	0.069	-0.107
-71.480	-106.196	-0.147	-0.032
-70.465	-77.999	0.150	0.051
-69.451	401.659	0.143	-0.293
-68.436	-149.640	0.506	-0.039
-67.422	-140.184	0.106	0.011
-66.407	-200.000	0.004	0.085
-65.392	46.559	0.106	-0.096
-64.378	31.745	0.138	0.116
-63.363	2.488	-0.033	0.024
-62.349	-131.512	0.186	0.024
-61.334	129.482	-0.995	-1.241
-60.319	94.531	0.508	0.563
-59.305	400.449	-0.619	-1.267
-58.290	232.747	0.587	0.942
-57.276	255.454	0.840	1.405
-56.261	-200.000	120.720	618.912
-55.246	394.721	1569.340	3193.069
-54.232	140.816	2737.496	3531.140
-53.217	94.784	2197.884	2440.169
-52.203	35.099	1709.936	1462.064
-51.188	27.943	1524.620	1254.629
-50.173	26.003	1499.481	1220.774
-49.159	48.212	1564.964	1428.786
-48.144	46.532	1579.363	1430.220
-47.130	28.088	1531.181	1260.824
-46.115	25.100	1516.404	1228.173
-45.100	25.032	1512.599	1224.578
-44.086	25.011	1510.569	1222.744
-43.071	25.060	1508.205	1221.116
-42.057	24.904	1506.750	1218.830
-41.042	24.956	1505.485	1218.109
-40.027	24.892	1504.046	1216.464
-39.013	24.919	1502.122	1215.039
-37.998	24.866	1501.019	1213.738
-36.984	24.856	1500.196	1212.962
-35.969	24.905	1498.591	1211.947
-34.954	24.881	1497.170	1210.587
-33.940	24.952	1495.468	1209.643
-32.925	24.960	1494.583	1208.928
-31.911	24.949	1493.374	1207.831
-30.896	25.047	1491.708	1207.097
-29.881	25.025	1490.638	1206.036
-28.867	24.995	1489.290	1204.692
-27.852	24.996	1488.427	1203.952
-26.838	24.945	1486.913	1202.339
-25.823	24.909	1485.557	1200.955
-24.809	25.026	1483.172	1199.763
-23.794	24.914	1482.186	1198.167
-22.779	25.009	1480.606	1197.479
-21.765	24.968	1479.887	1196.575
-20.750	25.057	1478.592	1196.073
-19.736	25.032	1477.125	1194.675
-18.721	24.911	1476.776	1193.535
-17.706	24.900	1475.579	1192.448
-16.692	24.922	1474.659	1191.803
-15.677	24.905	1474.007	1191.119
-14.663	24.930	1472.706	1190.183
-13.648	24.966	1471.902	1189.727
-12.633	24.914	1470.967	1188.580
-11.619	24.841	1470.611	1187.759
-10.604	24.907	1469.597	1187.330
-9.590	24.942	1467.936	1186.171
-8.575	24.954	1467.589	1185.927
-7.560	25.040	1466.409	1185.494
-6.546	24.918	1465.995	1184.302
-5.531	24.831	1464.871	1182.772
-4.517	24.914	1463.554	1182.210
-3.502	24.933	1462.710	1181.611
-2.487	24.935	1461.432	1180.544
-1.473	25.034	1460.583	1180.464
-0.458	24.966	1459.003	1178.690
0.556	23.445	1450.486	1169.360
1.571	20.930	1426.557	1133.631
2.586	18.104	1364.559	1066.659
3.600	16.606	1280.497	992.086
4.615	15.399	1236.474	951.057
5.629	13.402	1179.104	896.042
6.644	6.628	1095.508	798.260
7.659	1.164	1057.840	743.992
8.673	0.245	1052.947	735.997
9.688	0.260	1049.760	733.774
10.702	0.172	1048.373	732.314
11.717	0.253	1045.924	730.933
12.731	2.273	1047.634	741.873
13.746	9.250	1056.819	782.372
14.761	15.106	1064.477	816.608
15.775	16.731	1065.766	825.449
16.790	16.413	1064.292	822.688
17.804	15.527	1062.268	816.746
18.819	14.692	1060.740	811.439
19.834	14.198	1059.020	807.655
20.848	13.946	1057.812	805.440
21.863	13.647	1057.446	803.641
22.877	13.387	1056.773	801.797
23.892	13.188	1055.746	799.986
24.907	13.203	1054.867	799.322
25.921	13.124	1053.852	798.098
26.936	13.121	1053.706	797.906
27.950	13.319	1052.031	797.519
28.965	13.224	1052.024	796.987
29.980	13.304	1050.753	796.336
30.994	13.301	1049.972	795.662
32.009	13.399	1049.348	795.587
33.023	13.394	1048.696	795.001
34.038	13.432	1047.681	794.343
35.053	13.388	1047.180	793.679
36.067	13.364	1046.161	792.726
37.082	13.322	1045.384	791.862
38.096	13.330	1044.678	791.297
39.111	13.444	1043.905	791.185
40.126	13.436	1042.945	790.349
41.140	13.392	1041.591	789.043
42.155	13.221	1040.728	787.506
43.169	13.164	1039.879	786.522
44.184	13.131	1039.094	785.704
45.199	13.133	1038.247	785.002
46.213	13.229	1036.970	784.422
47.228	13.268	1035.359	783.321
48.242	13.294	1034.819	782.965
49.257	13.339	1034.278	782.698
50.271	13.334	1032.784	781.478
51.286	13.262	1032.102	780.552
52.301	13.279	1031.300	779.958
53.315	13.304	1030.674	779.529
54.330	13.260	1029.620	778.457
55.344	13.102	1029.493	777.551
56.359	13.239	1027.828	776.865
57.374	13.220	1027.173	776.215
58.388	13.368	1026.099	776.028
59.403	13.345	1025.305	775.251
60.417	13.186	1024.772	774.036
61.432	13.145	1023.952	773.154
62.447	13.180	1022.729	772.325
63.461	13.160	1022.429	771.937
64.476	13.153	1021.364	771.036
65.490	13.188	1020.461	770.447
66.505	13.192	1019.545	769.705
67.520	13.042	1019.032	768.550
68.534	13.148	1018.340	768.456
69.549	13.243	1017.709	768.351
70.563	13.223	1016.619	767.367
71.578	13.061	1016.376	766.367
72.593	13.017	1015.307	765.289
73.607	13.234	1013.791	765.080
74.622	13.066	1013.172	763.771
75.636	13.070	1013.006	763.598
76.651	13.153	1011.366	762.677
77.666	13.155	1010.851	762.227
78.680	13.109	1010.318	761.546
79.695	13.109	1009.866	761.138
80.709	13.046	1009.304	760.355
81.724	13.115	1008.424	759.944
82.739	13.092	1007.758	759.270
83.753	13.272	1006.304	758.933
84.768	13.268	1006.154	758.736
85.782	13.202	1005.509	757.881
86.797	13.289	1004.242	757.257
87.812	13.274	1003.723	756.729
88.826	13.332	1002.748	756.191
89.841	13.229	1002.435	755.417
90.855	13.490	1000.870	755.363
91.870	13.326	1000.379	754.175
92.884	13.407	999.635	753.919
93.899	13.444	998.924	753.484
94.914	13.507	997.535	752.655
95.928	13.427	997.564	752.250
96.943	13.521	996.721	751.971
97.957	13.589	995.816	751.531
98.972	13.323	995.317	749.884
99.987	13.408	994.679	749.719
101.001	13.302	993.910	748.593
102.016	13.422	992.781	748.221
103.030	13.423	991.724	747.362
104.045	13.480	991.010	747.016
105.060	13.521	989.968	746.347
106.074	13.478	988.827	745.227
107.089	13.429	988.185	744.458
108.103	13.327	987.285	743.256
109.118	13.352	986.378	742.618
110.133	13.280	985.402	741.499
111.147	13.230	984.785	740.742
112.162	13.324	983.898	740.429
113.176	13.339	983.266	739.956
114.191	13.424	982.248	739.506
115.206	13.398	981.430	738.706
116.220	13.325	980.657	737.735
117.235	13.358	979.924	737.266
118.249	13.385	978.851	736.515
119.264	13.366	977.961	735.692
120.279	13.370	977.227	735.096
121.293	13.276	976.169	733.815
122.308	13.250	975.802	733.358
123.322	13.244	974.645	732.401
124.337	13.265	973.845	731.826
125.352	13.307	972.334	730.811
126.366	13.365	971.083	730.065
127.381	13.223	970.697	729.083
128.395	13.318	969.264	728.360
129.410	13.319	968.810	727.960
130.424	13.328	967.920	727.263
131.439	13.279	966.764	726.118
132.454	13.232	966.133	725.370
133.468	13.317	965.507	725.208
134.483	13.329	964.711	724.600
135.497	13.441	963.485	724.107
136.512	13.409	963.017	723.550
137.527	13.322	962.234	722.519
138.541	13.484	960.956	722.203
139.556	13.344	960.995	721.557
140.570	13.302	960.502	720.938
141.585	13.333	959.905	720.562
142.600	13.560	958.590	720.500
143.614	13.506	958.185	719.895
144.629	13.445	957.262	718.875
145.643	13.652	956.403	719.064
146.658	13.531	955.699	717.946
147.673	13.566	954.673	717.262
148.687	13.508	953.630	716.167
149.702	13.337	953.161	715.012
150.716	13.421	952.137	714.542
151.731	13.460	951.253	713.982
152.746	13.431	950.580	713.288
153.760	13.462	949.803	712.777
154.775	13.479	949.261	712.379
155.789	13.523	948.128	711.656
156.804	13.595	947.653	711.548
157.819	13.523	946.822	710.551
158.833	13.621	946.105	710.369
159.848	13.668	945.253	709.868
160.862	13.712	944.792	709.649
161.877	13.528	944.106	708.283
162.892	13.598	943.015	707.700
163.906	13.643	942.209	707.226
164.921	13.572	941.453	706.293
165.935	13.424	940.757	705.077
166.950	13.598	939.402	704.739
167.964	13.581	938.664	704.052
168.979	13.589	937.887	703.442
169.994	13.650	936.654	702.710
171.008	13.606	935.882	701.886
172.023	13.717	935.229	701.803
173.037	13.780	934.385	701.371
174.052	13.754	933.646	700.646
175.067	13.745	932.976	700.041
176.081	13.798	931.916	699.409
177.096	13.710	931.373	698.569
178.110	13.642	930.724	697.733
179.125	13.785	929.772	697.559
180.140	13.652	929.494	696.731
181.154	13.720	928.009	695.843
182.169	13.684	927.904	695.549
183.183	13.840	927.093	695.535
184.198	13.833	926.214	694.786
185.213	13.947	925.945	694.996
186.227	13.971	924.590	694.018
187.242	14.026	924.724	694.286
188.256	14.032	923.688	693.474
189.271	14.010	922.955	692.770
190.286	13.863	922.414	691.691
191.300	13.980	921.369	691.335
192.315	13.686	921.041	689.801
193.329	13.735	920.029	689.189
194.344	13.726	919.499	688.690
195.359	13.866	919.153	688.955
196.373	14.047	918.171	688.906
197.388	13.941	918.137	688.383
198.402	14.013	917.411	688.073
199.417	14.004	917.069	687.717
200.432	14.120	916.492	687.707
201.446	14.186	915.748	687.358
202.461	14.148	915.619	687.045
203.475	14.143	915.405	686.802
204.490	14.069	914.493	685.750
205.504	14.092	913.855	685.306
206.519	14.146	912.767	684.654
207.534	14.085	912.010	683.773
208.548	14.150	911.427	683.545
209.563	14.111	910.897	682.925
210.577	14.024	909.815	681.698
211.592	14.083	909.365	681.542
212.607	14.276	908.468	681.600
213.621	14.347	908.098	681.551
214.636	14.352	907.361	680.957
215.650	14.304	906.724	680.224
216.665	14.281	906.349	679.791
217.680	14.183	905.779	678.900
218.694	14.264	905.214	678.748
219.709	14.499	904.180	678.869
220.723	14.485	903.942	678.574
221.738	14.356	903.006	677.285
222.753	14.318	902.732	676.867
223.767	14.471	901.592	676.574
224.782	14.376	900.958	675.654
225.796	14.356	900.710	675.325
226.811	14.470	899.413	674.755
227.826	14.410	899.191	674.284
228.840	14.522	898.158	673.903
229.855	14.488	897.769	673.417
230.869	14.430	897.010	672.553
231.884	14.535	896.214	672.318
232.899	14.528	895.835	671.948
233.913	14.372	895.208	670.790
234.928	14.518	894.479	670.771
235.942	14.289	893.859	669.327
236.957	14.400	893.110	669.150
237.972	14.448	892.435	668.780
238.986	14.442	891.824	668.239
240.001	14.467	891.332	667.911
241.015	14.619	890.284	667.674
242.030	14.548	889.981	667.104
243.045	14.700	888.912	666.850
244.059	14.558	888.312	665.774
245.074	14.774	887.647	666.080
246.088	14.667	887.463	665.457
247.103	14.667	886.763	664.874
248.117	14.884	885.920	665.046
249.132	14.750	885.518	664.149
250.147	14.677	885.356	663.681
251.161	14.839	884.243	663.430
252.176	14.935	883.498	663.193
253.190	14.867	882.903	662.420
254.205	14.862	882.068	661.714
255.220	15.052	881.735	662.158
256.234	14.908	881.004	660.979
257.249	15.111	880.215	661.132
258.263	14.956	880.285	660.515
259.278	15.057	879.430	660.211
260.293	15.113	878.636	659.779
261.307	15.012	878.644	659.329
262.322	15.119	877.736	659.008
263.336	15.166	877.202	658.735
264.351	15.282	876.288	658.445
265.366	15.113	876.131	657.607
266.380	15.211	875.205	657.239
267.395	15.158	874.663	656.565
268.409	15.223	874.013	656.274
269.424	15.244	873.171	655.667
270.439	15.102	872.754	654.740
271.453	15.106	872.085	654.195
272.468	15.291	870.973	654.023
273.482	15.120	870.508	652.950
274.497	15.019	870.591	652.561
275.512	15.220	868.963	652.063
276.526	15.195	868.681	651.698
277.541	15.240	868.124	651.397
278.555	15.158	867.452	650.516
279.570	15.371	866.609	650.656
280.585	15.403	865.868	650.166
281.599	15.316	865.649	649.606
282.614	15.334	865.092	649.199
283.628	15.311	864.362	648.504
284.643	15.351	863.662	648.078
285.657	15.497	862.977	648.069
286.672	15.329	862.624	647.099
287.687	15.505	861.982	647.239
288.701	15.505	861.538	646.848
289.716	15.352	861.215	645.960
290.730	15.468	860.838	646.066
291.745	15.530	859.490	645.235
292.760	15.581	859.040	645.036
293.774	15.498	858.656	644.372
294.789	15.442	857.985	643.597
295.803	15.565	857.325	643.515
296.818	15.584	856.736	643.088
297.833	15.601	855.867	642.444
298.847	15.611	855.184	641.915
299.862	15.571	854.222	640.984
300.876	15.489	854.036	640.473
301.891	15.664	853.168	640.432
302.906	15.742	852.771	640.376
303.920	15.804	851.879	639.884
304.935	15.679	851.473	639.047
305.949	15.788	850.931	638.999
306.964	15.794	850.236	638.442
307.979	15.727	849.656	637.697
308.993	15.751	848.945	637.197
310.008	15.820	848.414	637.004
311.022	15.789	848.142	636.627
312.037	15.873	847.433	636.354
313.052	15.955	846.966	636.257
314.066	15.850	846.353	635.346
315.081	15.871	845.432	634.674
316.095	15.920	844.974	634.460
317.110	15.832	844.672	633.845
318.125	15.859	844.272	633.591
319.139	15.753	843.686	632.695
320.154	16.028	842.939	633.115
321.168	15.952	842.389	632.358
322.183	16.051	841.939	632.337
323.197	15.933	841.603	631.588
324.212	15.872	840.789	630.692
325.227	15.935	840.313	630.514
326.241	16.085	839.726	630.580
327.256	15.936	839.177	629.552
328.270	15.948	838.583	629.097
329.285	16.049	837.994	628.977
330.300	15.918	837.433	628.011
331.314	15.927	837.210	627.822
332.329	16.030	836.491	627.613
333.343	16.100	835.765	627.271
334.358	16.123	835.184	626.867
335.373	16.249	834.794	626.984
336.387	16.320	833.854	626.489
337.402	16.160	833.478	625.557
338.416	16.217	833.332	625.602
339.431	16.216	832.536	624.944
340.446	16.345	831.964	624.939
341.460	16.253	831.475	624.176
342.475	16.254	830.841	623.648
343.489	16.312	830.103	623.252
344.504	16.409	829.505	623.108
345.519	16.419	829.382	622.996
346.533	16.373	828.798	622.331
347.548	16.486	828.210	622.253
348.562	16.439	827.424	621.433
349.577	16.352	827.451	621.080
350.592	16.522	826.554	620.974
351.606	16.293	826.396	619.961
352.621	16.479	825.463	619.889
353.635	16.412	825.468	619.591
354.650	16.387	824.945	619.054
355.665	16.493	824.220	618.842
356.679	16.342	824.154	618.183
357.694	16.367	823.646	617.839
358.708	16.546	822.808	617.811
359.723	16.569	822.320	617.475
360.738	16.590	821.464	616.852
361.752	16.511	821.410	616.471
362.767	16.699	820.702	616.571
363.781	16.628	820.365	616.002
364.796	16.688	820.083	615.956
365.810	16.535	819.965	615.254
366.825	16.604	819.331	614.976
367.840	16.654	818.784	614.694
368.854	16.866	818.163	614.942
369.869	16.784	818.151	614.581
370.883	16.640	817.724	613.681
371.898	16.773	816.729	613.363
372.913	16.740	816.136	612.744
373.927	16.819	815.472	612.476
374.942	16.720	815.186	611.849
375.956	16.850	814.296	611.597
376.971	16.956	813.928	611.650
377.986	16.830	813.717	610.983
379.000	16.941	812.922	610.732
380.015	16.902	812.568	610.272
381.029	16.935	811.927	609.853
382.044	16.942	811.164	609.251
383.059	16.860	810.778	608.615
384.073	17.131	810.027	608.970
385.088	16.964	809.747	608.106
386.102	16.929	809.311	607.600
387.117	16.891	808.782	607.012
388.132	17.070	808.215	607.171
389.146	17.032	807.650	606.559
390.161	17.110	807.426	606.615
391.175	17.040	807.024	606.010
392.190	17.153	806.532	605.990
393.205	16.970	806.308	605.115
394.219	17.029	805.707	604.821
395.234	17.138	805.039	604.655
396.248	16.994	804.639	603.787
397.263	16.977	804.461	603.540
398.278	16.959	803.892	602.997
399.292	17.041	803.353	602.828
400.307	17.125	802.833	602.684
401.321	17.078	802.297	602.063
402.336	17.013	802.042	601.586
403.350	17.147	801.477	601.586
404.365	17.003	801.509	601.046
405.380	17.231	800.793	601.261
406.394	17.166	800.436	600.710
407.409	17.199	800.286	600.659
408.423	17.429	799.759	601.024
409.438	17.429	798.724	600.193
410.453	17.523	798.251	600.118
411.467	17.329	798.258	599.385
412.482	17.392	797.784	599.199
413.496	17.556	797.102	599.210
414.511	17.426	796.982	598.608
415.526	17.528	796.431	598.500
416.540	17.428	796.117	597.860
417.555	17.519	795.697	597.814
418.569	17.586	794.893	597.391
419.584	17.635	794.580	597.272
420.599	17.729	793.533	596.764
421.613	112.764	1296.595	1484.057
422.628	96.976	1369.889	1484.132
