DTS Sentinel unit serial number:	SN413079Multiplexer serial number:	ORYXHardware model number:	OX4-SRSoftware version number:	ORYX F/W v4.00 Oryx Data Collector v3.7.2.0data status	okinstallation	princeton_trtdifferential loss correction	single-endedforward channel	channel 3reverse channel	N/Adate	2019/09/12time	08:14:11forward acquisition time	60.00reverse acquisition time	0.00gamma	496.2192k internal	0.2312k external	0.2312temperature offset calibration	1.0036default loss term (dB/km)	0.3790temperature slope calibration	1.0000multiplexer offset coefficient	1.0000multiplexer slope coefficient	1.0000fibre end	0.00T internal ref (°C)	33.31T ext. ref 1 (°C)	1.71T ext. ref 2 (°C)	30.06length (m)	temperature (°C)	Stokes	anti-Stokes-747.200	-200.000	0.038	0.363
-746.185	-200.000	-0.020	0.227
-745.171	800.000	0.134	0.381
-744.156	800.000	0.153	0.517
-743.142	91.114	-0.231	0.262
-742.127	95.386	-0.161	0.186
-741.112	49.006	0.150	0.143
-740.098	11.745	-0.306	0.238
-739.083	184.866	-0.160	-0.241
-738.069	800.000	-0.046	0.181
-737.054	-123.474	0.126	0.020
-736.039	254.027	-0.050	0.086
-735.025	-150.353	0.217	0.017
-734.010	-82.187	-0.271	0.090
-732.996	-78.306	0.164	0.057
-731.981	-49.471	-0.218	0.105
-730.966	-49.227	-0.177	-0.086
-729.952	130.664	-0.103	0.134
-728.937	49.226	-0.279	-0.266
-727.923	-94.208	0.430	-0.119
-726.908	-43.264	-0.164	-0.084
-725.894	292.621	0.094	-0.173
-724.879	305.934	0.238	-0.448
-723.864	-161.159	-0.341	0.018
-722.850	-200.000	-0.052	-0.232
-721.835	-96.993	-0.447	-0.119
-720.821	578.656	0.043	0.107
-719.806	-200.000	0.079	-0.383
-718.791	-2.538	-0.254	-0.181
-717.777	-124.791	0.322	-0.050
-716.762	-200.000	0.006	-0.083
-715.748	-74.000	-0.176	-0.065
-714.733	-200.000	-0.006	-0.170
-713.718	-93.331	0.290	0.082
-712.704	-150.187	0.182	0.014
-711.689	800.000	0.067	-0.245
-710.675	298.939	0.186	-0.347
-709.660	82.615	0.119	-0.131
-708.645	-146.404	0.295	0.026
-707.631	728.172	0.100	0.272
-706.616	67.485	0.229	0.237
-705.602	139.205	-0.137	-0.183
-704.587	-200.000	0.021	0.338
-703.572	11.731	-0.314	0.244
-702.558	-65.887	-0.296	-0.120
-701.543	32.256	-0.123	0.108
-700.529	126.918	-0.119	0.153
-699.514	-74.958	0.206	0.075
-698.499	-177.435	-0.441	-0.011
-697.485	800.000	0.097	-0.354
-696.470	97.480	-0.084	-0.097
-695.456	-126.569	0.250	-0.038
-694.441	-200.000	-0.064	-0.351
-693.426	421.972	0.054	0.118
-692.412	474.001	-0.057	0.129
-691.397	-180.144	-0.386	0.008
-690.383	-118.866	-0.212	-0.038
-689.368	402.657	0.164	0.349
-688.354	-15.984	-0.182	-0.117
-687.339	-200.000	0.007	-0.240
-686.324	180.270	-0.158	0.235
-685.310	-37.546	0.089	-0.048
-684.295	-200.000	0.042	0.354
-683.281	43.537	-0.199	-0.184
-682.266	-200.000	0.036	-0.186
-681.251	-119.299	0.065	-0.011
-680.237	-46.152	0.312	-0.155
-679.222	-20.884	-0.362	-0.224
-678.208	25.706	0.330	0.278
-677.193	-174.791	0.185	0.005
-676.178	17.468	-0.111	0.089
-675.164	-119.370	-0.103	0.018
-674.149	113.500	-0.151	-0.186
-673.135	-200.000	-0.041	0.353
-672.120	463.497	0.088	0.199
-671.105	468.916	-0.199	-0.451
-670.091	-58.951	0.289	-0.126
-669.076	1.606	-0.102	-0.074
-668.062	-200.000	0.011	0.333
-667.047	-176.373	-0.239	-0.006
-666.032	800.000	-0.059	0.232
-665.018	-64.969	0.062	0.025
-664.003	573.126	0.088	-0.216
-662.989	800.000	-0.026	0.095
-661.974	800.000	0.060	0.200
-660.959	-200.000	-0.032	0.164
-659.945	216.694	-0.133	0.214
-658.930	67.860	0.087	0.090
-657.916	-118.668	0.020	-0.004
-656.901	-180.592	-0.219	0.005
-655.886	205.001	-0.247	0.388
-654.872	-70.758	0.122	0.047
-653.857	91.820	0.172	-0.196
-652.843	29.619	0.294	-0.253
-651.828	3.618	-0.178	0.131
-650.814	-59.007	-0.466	-0.203
-649.799	-73.917	-0.329	-0.121
-648.784	-1.152	0.293	-0.209
-647.770	800.000	-0.033	-0.130
-646.755	800.000	-0.084	-0.292
-645.741	-20.688	-0.151	0.094
-644.726	-98.670	0.049	0.013
-643.711	796.197	-0.086	-0.239
-642.697	95.892	0.241	-0.278
-641.682	714.428	-0.079	-0.211
-640.668	800.000	-0.070	-0.245
-639.653	347.096	-0.093	0.185
-638.638	-200.000	-0.007	-0.191
-637.624	-200.000	-0.028	-0.228
-636.609	156.929	0.199	-0.277
-635.595	-101.104	-0.197	0.049
-634.580	-200.000	-0.032	-0.232
-633.565	502.487	0.042	-0.099
-632.551	800.000	-0.089	-0.254
-631.536	-140.012	-0.079	0.008
-630.522	79.760	0.306	0.332
-629.507	-13.377	0.237	0.156
-628.492	302.140	0.194	-0.363
-627.478	-170.935	-0.142	-0.005
-626.463	-167.836	0.236	-0.009
-625.449	-110.187	0.191	-0.040
-624.434	238.446	0.274	0.460
-623.419	800.000	-0.062	0.181
-622.405	115.535	-0.187	-0.231
-621.390	92.221	0.026	0.029
-620.376	-155.453	0.288	0.019
-619.361	-200.000	0.042	-0.461
-618.346	278.725	-0.128	0.231
-617.332	202.677	-0.168	-0.263
-616.317	22.999	0.146	0.121
-615.303	643.504	-0.158	-0.408
-614.288	-36.727	0.204	-0.110
-613.273	800.000	0.062	-0.190
-612.259	-88.382	0.186	-0.056
-611.244	123.702	0.091	0.116
-610.230	8.807	0.232	-0.177
-609.215	13.890	0.323	0.254
-608.201	-23.934	0.185	-0.112
-607.186	-142.035	-0.472	-0.047
-606.171	86.637	0.059	0.066
-605.157	-200.000	0.062	0.368
-604.142	14.520	0.078	-0.061
-603.128	-143.355	0.278	-0.027
-602.113	403.529	0.089	-0.189
-601.098	35.346	-0.302	-0.267
-600.084	-189.169	0.219	0.003
-599.069	434.282	-0.094	0.205
-598.055	-200.000	0.022	0.227
-597.040	-58.590	0.312	0.137
-596.025	800.000	-0.097	0.271
-595.011	4.849	-0.099	0.074
-593.996	-40.527	0.563	0.295
-592.982	20.225	0.195	0.159
-591.967	-59.736	-0.096	0.041
-590.952	-200.000	0.104	-0.000
-589.938	-200.000	0.007	-0.041
-588.923	800.000	-0.111	-0.361
-587.909	117.419	-0.218	-0.270
-586.894	-65.424	-0.371	0.150
-585.879	168.299	0.061	0.087
-584.865	-61.796	0.070	-0.030
-583.850	-150.568	-0.274	-0.021
-582.836	800.000	-0.108	0.348
-581.821	55.781	-0.118	-0.115
-580.806	-200.000	0.025	-0.183
-579.792	-96.405	-0.315	-0.084
-578.777	698.304	-0.084	0.222
-577.763	-200.000	0.018	-0.203
-576.748	-200.000	-0.027	-0.178
-575.733	1.391	-0.142	0.103
-574.719	-155.948	0.153	0.010
-573.704	-101.944	0.022	0.005
-572.690	-119.997	-0.141	-0.024
-571.675	-29.360	-0.177	-0.102
-570.661	-200.000	-0.009	-0.145
-569.646	38.627	0.085	0.076
-568.631	800.000	0.066	0.244
-567.617	-189.830	0.056	-0.001
-566.602	-200.000	-0.021	-0.223
-565.588	800.000	-0.031	0.106
-564.573	129.555	-0.104	0.134
-563.558	-62.627	-0.189	0.079
-562.544	171.500	0.135	-0.196
-561.529	-133.793	-0.138	0.017
-560.515	242.894	-0.250	-0.422
-559.500	-14.153	0.138	0.089
-558.485	10.420	-0.209	-0.161
-557.471	73.644	0.219	-0.232
-556.456	15.820	0.211	-0.167
-555.442	-200.000	-0.012	0.178
-554.427	51.420	0.089	-0.086
-553.412	-94.219	-0.133	-0.037
-552.398	-132.508	-0.064	0.008
-551.383	-117.253	-0.120	0.022
-550.369	800.000	0.070	0.196
-549.354	-64.805	0.149	0.061
-548.339	-200.000	0.060	0.490
-547.325	800.000	0.049	0.157
-546.310	33.578	0.295	-0.258
-545.296	800.000	-0.008	-0.033
-544.281	800.000	-0.083	0.297
-543.266	-121.372	-0.225	0.038
-542.252	-94.608	-0.113	0.031
-541.237	-200.000	0.025	0.150
-540.223	432.161	0.036	0.080
-539.208	-72.833	-0.297	0.110
-538.193	-117.893	-0.148	0.027
-537.179	-200.000	0.431	0.001
-536.164	-124.067	0.269	0.043
-535.150	53.443	-0.157	-0.151
-534.135	-200.000	0.049	0.280
-533.121	-153.607	-0.318	0.022
-532.106	-113.130	-0.342	-0.068
-531.091	-164.945	-0.570	0.026
-530.077	29.406	-0.112	-0.095
-529.062	127.295	-0.116	0.149
-528.048	-189.651	0.232	0.003
-527.033	-200.000	-0.000	0.003
-526.018	-28.935	-0.153	0.088
-525.004	-200.000	0.059	0.452
-523.989	-49.191	0.155	-0.075
-522.975	115.322	0.023	0.029
-521.960	-200.000	0.051	0.263
-520.945	302.794	-0.024	0.044
-519.931	800.000	-0.095	0.383
-518.916	-59.782	-0.178	-0.077
-517.902	800.000	-0.018	-0.052
-516.887	800.000	-0.047	0.191
-515.872	-135.146	-0.578	-0.070
-514.858	-85.183	0.470	-0.148
-513.843	-136.339	0.309	0.036
-512.829	-110.593	-0.191	0.040
-511.814	5.371	-0.046	0.034
-510.799	-39.674	0.191	0.100
-509.785	265.502	-0.050	-0.087
-508.770	13.836	-0.014	-0.011
-507.756	-200.000	0.002	-0.043
-506.741	306.438	0.189	0.354
-505.726	-13.846	-0.114	-0.074
-504.712	36.177	0.069	-0.061
-503.697	446.274	-0.096	0.212
-502.683	30.167	0.168	-0.144
-501.668	205.975	0.056	-0.087
-500.653	-68.055	0.446	0.175
-499.639	-158.548	0.279	0.016
-498.624	-200.000	-0.029	-0.568
-497.610	-158.115	0.174	0.010
-496.595	454.048	0.173	0.386
-495.581	-200.000	-0.012	-0.312
-494.566	800.000	0.035	0.116
-493.551	34.865	0.316	0.278
-492.537	-186.646	-0.275	-0.004
-491.522	800.000	-0.019	-0.058
-490.508	-111.135	-0.225	0.046
-489.493	-200.000	-0.052	-0.245
-488.478	292.187	-0.020	-0.037
-487.464	-17.654	-0.049	-0.031
-486.449	75.473	0.128	0.136
-485.435	-82.865	0.279	0.091
-484.420	437.392	0.058	0.126
-483.405	-110.627	-0.114	-0.024
-482.391	-117.202	-0.128	-0.023
-481.376	6.780	-0.162	-0.121
-480.362	-32.360	0.240	-0.134
-479.347	-200.000	0.000	0.016
-478.332	-33.728	-0.131	0.073
-477.318	7.486	0.051	0.038
-476.303	-200.000	0.011	0.230
-475.289	394.764	-0.032	0.068
-474.274	-200.000	0.028	-0.279
-473.259	-200.000	-0.001	0.342
-472.245	391.964	-0.041	0.086
-471.230	-66.624	-0.250	0.099
-470.216	-142.269	-0.240	-0.024
-469.201	-200.000	-0.003	-0.239
-468.186	800.000	-0.046	0.144
-467.172	-97.703	0.105	0.027
-466.157	-75.677	-0.289	-0.103
-465.143	182.122	0.167	-0.247
-464.128	800.000	-0.024	0.095
-463.113	-39.135	0.170	0.090
-462.099	42.394	0.193	-0.177
-461.084	-86.378	0.426	0.131
-460.070	-55.651	0.141	-0.063
-459.055	800.000	0.048	0.189
-458.040	-63.639	0.223	0.092
-457.026	-8.560	0.390	-0.263
-456.011	-46.775	-0.262	0.129
-454.997	-31.085	0.214	0.121
-453.982	24.173	-0.288	-0.238
-452.968	-50.692	0.207	-0.098
-451.953	260.899	0.125	0.217
-450.938	406.516	0.067	0.141
-449.924	9.884	0.155	0.118
-448.909	-18.440	0.178	0.111
-447.895	-37.448	-0.055	-0.030
-446.880	42.506	-0.264	-0.241
-445.865	-181.321	0.197	-0.004
-444.851	-200.000	-0.004	-0.230
-443.836	2.330	0.075	-0.054
-442.822	-200.000	-0.015	0.123
-441.807	-200.000	-0.034	0.309
-440.792	682.239	0.116	-0.303
-439.778	-200.000	-0.028	0.259
-438.763	-200.000	-0.021	-0.161
-437.749	-152.939	0.089	-0.006
-436.734	645.175	-0.073	0.186
-435.719	-45.547	0.335	0.166
-434.705	-92.662	0.231	-0.065
-433.690	-65.164	0.290	0.117
-432.676	96.215	0.072	0.083
-431.661	-124.785	0.243	-0.038
-430.646	125.261	0.152	0.193
-429.632	68.832	0.128	0.132
-428.617	-133.578	0.219	0.027
-427.603	-117.958	-0.108	0.019
-426.588	192.844	0.193	0.292
-425.573	800.000	0.067	-0.247
-424.559	-126.640	0.195	0.029
-423.544	-79.188	0.032	-0.011
-422.530	162.859	-0.147	0.207
-421.515	-66.907	0.135	0.053
-420.500	-69.967	-0.216	-0.083
-419.486	-200.000	0.024	0.157
-418.471	131.755	-0.167	0.215
-417.457	-110.629	0.268	-0.056
-416.442	-139.788	-0.392	0.042
-415.428	106.771	-0.097	-0.115
-414.413	221.448	-0.185	0.298
-413.398	36.874	0.324	0.287
-412.384	187.971	-0.103	0.154
-411.369	-36.309	0.249	-0.134
-410.355	283.822	-0.041	0.074
-409.340	-200.000	0.047	-0.314
-408.325	-102.864	-0.308	-0.073
-407.311	447.409	-0.107	-0.235
-406.296	-41.211	0.298	0.154
-405.282	-6.017	0.137	0.094
-404.267	-200.000	0.051	0.382
-403.252	-112.194	-0.501	0.101
-402.238	545.742	-0.034	-0.082
-401.223	131.396	0.118	0.151
-400.209	-30.980	-0.319	0.180
-399.194	-76.882	-0.246	0.086
-398.179	174.199	0.355	0.513
-397.165	-186.975	0.265	0.004
-396.150	800.000	-0.084	-0.273
-395.136	-31.344	0.417	-0.235
-394.121	176.947	-0.285	-0.415
-393.106	800.000	-0.051	-0.146
-392.092	-151.064	-0.398	0.030
-391.077	120.502	-0.191	0.237
-390.063	-200.000	0.010	-0.391
-389.048	-200.000	0.040	-0.310
-388.033	-132.286	-0.209	0.027
-387.019	-200.000	-0.042	-0.207
-386.004	-5.299	0.265	-0.182
-384.990	-200.000	0.004	-0.295
-383.975	-43.428	0.309	-0.156
-382.960	100.128	-0.195	-0.226
-381.946	2.597	-0.151	0.109
-380.931	-114.971	0.098	0.019
-379.917	800.000	-0.039	0.136
-378.902	-43.565	-0.398	-0.201
-377.888	-86.329	-0.182	-0.056
-376.873	-128.508	0.161	0.023
-375.858	171.200	-0.154	0.221
-374.844	5.953	0.090	0.067
-373.829	800.000	0.120	0.408
-372.815	-172.300	-0.611	0.020
-371.800	800.000	-0.035	0.128
-370.785	-200.000	0.012	-0.061
-369.771	176.051	-0.255	-0.370
-368.756	800.000	-0.055	0.219
-367.742	-136.136	-0.185	-0.022
-366.727	800.000	0.054	0.193
-365.712	441.042	-0.022	-0.049
-364.698	-73.569	-0.303	0.110
-363.683	-200.000	0.033	-0.159
-362.669	452.860	-0.077	0.169
-361.654	-61.059	-0.278	0.117
-360.639	-86.954	-0.241	0.074
-359.625	-27.662	0.241	-0.140
-358.610	800.000	-0.113	0.410
-357.596	98.970	-0.141	0.162
-356.581	-148.010	0.201	-0.017
-355.566	469.274	0.168	0.377
-354.552	800.000	-0.025	0.074
-353.537	266.076	0.127	0.222
-352.523	-114.170	0.095	0.018
-351.508	800.000	-0.114	-0.401
-350.493	-55.716	-0.322	0.144
-349.479	-4.758	0.071	0.049
-348.464	-70.489	-0.313	0.118
-347.450	-200.000	-0.027	0.156
-346.435	-200.000	-0.049	-0.377
-345.420	253.165	0.092	0.156
-344.406	559.058	0.067	0.162
-343.391	-135.195	0.120	-0.014
-342.377	29.055	-0.133	0.112
-341.362	41.194	-0.077	0.070
-340.348	309.392	-0.025	0.046
-339.333	272.859	0.107	0.188
-338.318	800.000	-0.114	-0.467
-337.304	13.178	-0.288	-0.223
-336.289	-60.652	-0.295	-0.125
-335.275	-99.920	0.026	-0.006
-334.260	43.262	0.082	0.075
-333.245	-173.084	0.038	-0.001
-332.231	-17.810	-0.059	0.037
-331.216	-87.052	0.255	-0.078
-330.202	66.835	0.082	0.084
-329.187	-147.485	0.112	-0.009
-328.172	800.000	-0.101	-0.379
-327.158	-115.006	-0.169	0.032
-326.143	159.686	0.220	0.305
-325.129	-8.552	-0.085	0.057
-324.114	-142.635	-0.064	-0.006
-323.099	-124.273	0.301	-0.047
-322.085	-200.000	0.021	0.251
-321.070	46.186	-0.094	0.087
-320.056	-200.000	0.020	-0.168
-319.041	-200.000	-0.012	0.141
-318.026	800.000	-0.103	0.324
-317.012	43.558	-0.157	-0.144
-315.997	-187.784	0.174	-0.002
-314.983	-50.345	0.262	0.123
-313.968	155.017	-0.129	0.177
-312.953	-62.360	-0.316	-0.131
-311.939	656.775	-0.044	0.113
-310.924	-80.725	-0.203	-0.067
-309.910	676.087	-0.146	-0.379
-308.895	206.186	0.028	0.044
-307.880	231.115	-0.213	-0.349
-306.866	754.840	-0.098	-0.264
-305.851	43.896	0.066	-0.060
-304.837	116.110	-0.167	0.204
-303.822	57.167	0.174	0.169
-302.807	-120.160	-0.254	-0.043
-301.793	74.141	0.193	0.202
-300.778	720.559	0.178	-0.472
-299.764	6.875	-0.256	-0.190
-298.749	-84.666	0.256	0.080
-297.735	118.248	0.257	-0.316
-296.720	251.003	0.113	0.191
-295.705	-111.688	-0.240	0.049
-294.691	-200.000	-0.007	-0.140
-293.676	-89.949	-0.327	0.095
-292.662	540.421	0.083	0.198
-291.647	210.569	0.149	-0.233
-290.632	-200.000	0.008	-0.158
-289.618	-68.095	0.109	-0.042
-288.603	200.350	0.102	0.156
-287.589	-101.033	-0.162	0.040
-286.574	-200.000	-0.001	-0.163
-285.559	50.853	-0.300	-0.283
-284.545	480.414	-0.118	0.267
-283.530	141.022	0.199	0.262
-282.516	-36.185	0.403	-0.217
-281.501	180.063	-0.327	0.478
-280.486	-42.893	0.312	0.158
-279.472	-47.195	0.113	-0.055
-278.457	-95.975	-0.242	0.064
-277.443	-200.000	0.034	-0.190
-276.428	-31.980	-0.086	0.048
-275.413	420.478	-0.122	-0.261
-274.399	800.000	-0.019	-0.069
-273.384	-192.679	0.481	0.004
-272.370	-200.000	0.011	-0.271
-271.355	-131.882	-0.105	-0.014
-270.340	-136.442	-0.087	-0.010
-269.326	70.300	-0.166	0.171
-268.311	-114.516	0.109	0.021
-267.297	-200.000	-0.011	-0.095
-266.282	-136.805	-0.079	0.009
-265.267	420.779	-0.111	0.236
-264.253	559.032	-0.015	0.036
-263.238	-99.969	-0.340	0.084
-262.224	78.316	-0.181	-0.192
-261.209	-66.525	-0.196	-0.077
-260.195	62.037	0.120	0.119
-259.180	800.000	-0.123	0.447
-258.165	-151.928	0.126	-0.009
-257.151	142.321	-0.046	0.061
-256.136	800.000	0.101	-0.286
-255.122	-28.665	0.139	0.080
-254.107	442.948	-0.122	0.267
-253.092	49.752	0.192	-0.180
-252.078	4.538	0.163	-0.119
-251.063	242.813	-0.125	-0.209
-250.049	-187.030	0.075	-0.001
-249.034	800.000	-0.082	-0.267
-248.019	68.049	-0.146	-0.149
-247.005	-30.312	0.121	0.068
-245.990	-65.306	0.505	-0.202
-244.976	-200.000	-0.007	-0.114
-243.961	-95.232	-0.245	-0.066
-242.946	131.678	-0.112	0.143
-241.932	26.171	-0.182	-0.151
-240.917	100.101	-0.177	-0.204
-239.903	318.448	0.074	0.140
-238.888	-200.000	0.005	0.071
-237.873	-25.724	-0.067	0.039
-236.859	172.187	0.195	-0.278
-235.844	-200.000	0.046	-0.257
-234.830	-70.995	-0.149	-0.056
-233.815	93.426	-0.052	0.059
-232.800	-54.947	-0.245	0.110
-231.786	60.790	0.118	-0.117
-230.771	102.782	-0.241	0.280
-229.757	285.887	0.116	0.207
-228.742	-200.000	-0.010	-0.291
-227.727	300.634	0.060	0.110
-226.713	-200.000	-0.014	0.139
-225.698	199.399	-0.105	0.160
-224.684	-103.299	0.233	0.055
-223.669	-200.000	-0.026	0.219
-222.655	-118.799	0.097	0.017
-221.640	-65.286	0.207	-0.083
-220.625	-92.073	0.431	0.121
-219.611	8.063	-0.111	0.083
-218.596	-111.150	0.381	-0.078
-217.582	437.356	0.073	0.158
-216.567	84.711	-0.205	0.224
-215.552	756.910	0.123	0.330
-214.538	-170.955	0.084	-0.003
-213.523	277.690	0.162	-0.286
-212.509	-115.931	0.293	0.054
-211.494	800.000	0.099	0.295
-210.479	-46.659	-0.201	-0.098
-209.465	-161.248	0.232	-0.012
-208.450	-200.000	-0.023	-0.149
-207.436	-29.304	0.041	0.023
-206.421	-200.000	-0.013	-0.185
-205.406	-101.019	-0.428	-0.104
-204.392	800.000	0.044	0.169
-203.377	-200.000	-0.036	-0.222
-202.363	17.617	0.126	0.100
-201.348	79.273	-0.168	-0.178
-200.333	-98.532	-0.082	0.021
-199.319	65.609	-0.335	-0.336
-198.304	593.695	-0.035	-0.085
-197.290	349.547	-0.114	0.223
-196.275	-200.000	0.007	-0.108
-195.260	-3.697	0.163	-0.112
-194.246	-111.177	0.226	-0.046
-193.231	-200.000	0.033	0.265
-192.217	-57.610	-0.366	0.159
-191.202	123.723	-0.039	0.048
-190.187	46.839	0.151	0.140
-189.173	-200.000	0.058	-0.281
-188.158	69.433	0.115	0.118
-187.144	45.525	0.025	-0.023
-186.129	-200.000	0.056	0.288
-185.114	76.121	0.158	0.166
-184.100	59.864	-0.254	-0.249
-183.085	800.000	-0.035	-0.106
-182.071	-194.318	-0.135	-0.001
-181.056	75.514	-0.183	-0.192
-180.042	-109.724	0.159	-0.033
-179.027	250.336	-0.081	-0.136
-178.012	225.590	0.140	-0.225
-176.998	164.952	0.144	-0.202
-175.983	110.815	0.121	0.144
-174.969	97.577	-0.067	-0.076
-173.954	56.433	-0.200	0.193
-172.939	57.908	-0.159	-0.154
-171.925	800.000	-0.093	0.275
-170.910	65.274	0.045	0.045
-169.896	171.917	0.132	-0.188
-168.881	154.054	-0.172	-0.233
-167.866	800.000	-0.108	-0.314
-166.852	800.000	-0.050	0.167
-165.837	-51.345	-0.088	0.041
-164.823	-43.655	-0.250	0.125
-163.808	50.511	0.156	-0.147
-162.793	-47.399	0.219	0.106
-161.779	66.642	-0.101	-0.101
-160.764	-200.000	-0.021	-0.156
-159.750	-161.491	-0.060	0.003
-158.735	-31.314	0.291	0.163
-157.720	57.342	0.071	-0.069
-156.706	239.155	0.124	-0.204
-155.691	78.036	-0.201	-0.213
-154.677	71.127	0.117	0.120
-153.662	64.334	-0.063	0.063
-152.647	19.395	0.179	-0.142
-151.633	252.468	-0.152	-0.256
-150.618	78.075	-0.455	-0.481
-149.604	86.709	0.099	-0.108
-148.589	-12.082	0.218	-0.142
-147.574	108.712	-0.022	-0.026
-146.560	-92.433	-0.245	0.068
-145.545	164.356	-0.163	-0.228
-144.531	128.224	0.191	-0.241
-143.516	-78.645	0.058	-0.020
-142.502	-166.302	-0.156	-0.007
-141.487	-200.000	-0.004	-0.043
-140.472	-39.163	-0.561	0.292
-139.458	542.266	0.050	-0.118
-138.443	65.304	0.214	0.214
-137.429	-12.399	0.144	0.093
-136.414	-33.670	-0.266	0.145
-135.399	311.475	0.077	-0.143
-134.385	-47.481	0.181	-0.087
-133.370	125.281	0.153	-0.191
-132.356	-112.114	-0.010	-0.002
-131.341	-190.323	0.141	-0.002
-130.326	41.163	0.208	0.186
-129.312	19.340	0.295	-0.235
-128.297	-96.951	0.262	0.068
-127.283	800.000	0.096	0.415
-126.268	-4.622	-0.195	0.134
-125.253	-42.924	-0.034	-0.017
-124.239	-200.000	-0.008	0.079
-123.224	800.000	-0.049	0.185
-122.210	75.600	0.055	0.058
-121.195	-200.000	0.017	0.388
-120.180	-136.916	-0.525	0.060
-119.166	800.000	0.025	0.075
-118.151	-91.017	-0.039	0.011
-117.137	-101.884	-0.115	-0.027
-116.122	-63.019	0.220	-0.090
-115.107	-162.718	-0.121	0.006
-114.093	-84.170	-0.203	0.064
-113.078	800.000	0.127	0.433
-112.064	-98.868	0.275	-0.069
-111.049	-200.000	-0.016	0.366
-110.034	-191.066	-0.086	-0.001
-109.020	547.643	0.037	0.087
-108.005	-55.183	-0.085	0.038
-106.991	440.042	0.055	-0.119
-105.976	-200.000	0.021	0.155
-104.962	-200.000	-0.001	-0.086
-103.947	418.891	-0.131	0.278
-102.932	-200.000	-0.019	-0.145
-101.918	375.937	0.039	0.079
-100.903	85.839	-0.017	0.019
-99.889	263.402	-0.068	-0.117
-98.874	800.000	0.009	0.036
-97.859	-103.762	0.494	0.114
-96.845	-74.864	0.148	0.052
-95.830	-97.042	0.148	-0.038
-94.816	-200.000	-0.027	0.251
-93.801	240.952	-0.078	0.129
-92.786	-200.000	-0.036	-0.161
-91.772	95.569	0.051	0.057
-90.757	9.242	-0.051	0.038
-89.743	-200.000	0.024	0.266
-88.728	170.559	0.103	0.146
-87.713	181.186	0.076	-0.110
-86.699	-18.675	-0.524	0.323
-85.684	-200.000	0.042	0.324
-84.670	-200.000	-0.010	-0.269
-83.655	-51.069	0.262	0.121
-82.640	701.548	0.122	0.319
-81.626	-200.000	-0.008	0.416
-80.611	-73.917	0.308	-0.111
-79.597	800.000	0.019	-0.080
-78.582	-22.076	0.086	0.051
-77.567	163.794	-0.016	-0.022
-76.553	800.000	-0.037	-0.105
-75.538	-94.561	0.094	0.025
-74.524	-154.354	0.358	-0.024
-73.509	-58.625	-0.062	-0.027
-72.494	-116.968	0.335	0.060
-71.480	202.468	0.023	0.035
-70.465	800.000	0.154	0.461
-69.451	-96.426	0.129	0.034
-68.436	-56.240	-0.344	0.151
-67.422	182.130	-0.145	0.211
-66.407	-16.105	-0.174	0.109
-65.392	-200.000	0.022	0.249
-64.378	-63.766	0.121	-0.049
-63.363	59.583	-0.098	-0.095
-62.349	37.840	0.236	-0.207
-61.334	65.374	-1.122	-1.122
-60.319	205.204	0.421	0.646
-59.305	356.235	-0.471	-0.927
-58.290	370.550	0.535	1.072
-57.276	800.000	0.432	1.381
-56.261	-200.000	98.894	598.763
-55.246	534.457	1417.857	3318.959
-54.232	149.369	2616.186	3497.969
-53.217	111.509	2191.955	2610.725
-52.203	43.725	1724.732	1558.794
-51.188	36.390	1538.202	1339.516
-50.173	34.058	1511.916	1300.642
-49.159	53.482	1562.000	1479.146
-48.144	56.199	1581.009	1515.968
-47.130	36.796	1537.177	1341.224
-46.115	33.563	1521.512	1305.289
-45.100	33.495	1518.323	1302.028
-44.086	33.427	1516.198	1299.689
-43.071	33.317	1515.213	1298.043
-42.057	33.234	1513.301	1295.782
-41.042	33.454	1511.252	1295.480
-40.027	33.338	1510.206	1293.740
-39.013	33.276	1508.799	1292.063
-37.998	33.317	1507.754	1291.395
-36.984	33.291	1507.183	1290.679
-35.969	33.350	1505.030	1289.184
-34.954	33.227	1503.881	1287.314
-33.940	33.356	1502.031	1286.551
-32.925	33.369	1500.862	1285.588
-31.911	33.301	1500.073	1284.400
-30.896	33.308	1498.868	1283.365
-29.881	33.432	1496.955	1282.514
-28.867	33.450	1495.445	1281.294
-27.852	33.419	1494.279	1280.035
-26.838	33.351	1493.002	1278.431
-25.823	33.229	1492.049	1276.742
-24.809	33.335	1490.032	1275.678
-23.794	33.323	1488.365	1274.117
-22.779	33.383	1487.180	1273.459
-21.765	33.335	1486.212	1272.254
-20.750	33.499	1484.605	1271.929
-19.736	33.385	1483.865	1270.479
-18.721	33.322	1482.822	1269.117
-17.706	33.244	1481.875	1267.733
-16.692	33.237	1480.851	1266.756
-15.677	33.311	1480.075	1266.538
-14.663	33.264	1478.903	1265.170
-13.648	33.318	1478.039	1264.743
-12.633	33.326	1477.269	1264.085
-11.619	33.249	1476.488	1262.854
-10.604	33.249	1475.125	1261.639
-9.590	33.221	1474.097	1260.527
-8.575	33.241	1473.159	1259.803
-7.560	33.277	1472.319	1259.275
-6.546	33.340	1471.472	1258.921
-5.531	33.318	1470.301	1257.719
-4.517	33.270	1469.818	1256.942
-3.502	33.184	1469.294	1255.871
-2.487	33.252	1468.067	1255.222
-1.473	33.161	1467.122	1253.763
-0.458	33.269	1465.676	1253.192
0.556	33.461	1456.181	1243.754
1.571	30.827	1430.387	1204.606
2.586	27.738	1372.396	1136.458
3.600	26.213	1292.198	1060.999
4.615	24.648	1245.400	1013.617
5.629	20.578	1187.088	944.020
6.644	10.504	1097.943	822.209
7.659	2.822	1055.909	753.081
8.673	2.014	1050.037	744.888
9.688	1.691	1047.102	741.165
10.702	1.589	1045.576	739.525
11.717	1.537	1043.186	737.515
12.731	4.733	1046.851	755.577
13.746	14.726	1061.415	815.010
14.761	22.897	1071.870	863.065
15.775	24.868	1073.871	874.234
16.790	25.105	1074.117	875.515
17.804	25.034	1072.795	874.012
18.819	24.869	1071.800	872.324
19.834	24.949	1071.500	872.390
20.848	25.071	1070.817	872.350
21.863	25.197	1070.869	872.931
22.877	25.169	1070.206	872.177
23.892	25.153	1069.496	871.442
24.907	24.979	1068.569	869.767
25.921	25.042	1068.182	869.679
26.936	25.222	1067.122	869.614
27.950	25.133	1065.678	867.927
28.965	25.076	1064.586	866.686
29.980	24.822	1063.561	864.547
30.994	24.930	1062.171	863.860
32.009	25.021	1061.367	863.569
33.023	25.174	1061.019	863.949
34.038	24.957	1059.606	861.678
35.053	24.959	1058.782	860.938
36.067	24.996	1058.689	860.965
37.082	24.957	1057.898	860.059
38.096	24.910	1057.139	859.139
39.111	25.290	1056.294	860.200
40.126	25.360	1055.204	859.569
41.140	25.231	1053.784	857.724
42.155	25.005	1052.552	855.563
43.169	24.646	1051.481	852.903
44.184	24.541	1050.408	851.460
45.199	24.758	1049.203	851.440
46.213	24.672	1048.236	850.169
47.228	24.712	1047.564	849.741
48.242	24.919	1046.695	849.940
49.257	24.913	1046.069	849.329
50.271	24.831	1045.586	848.474
51.286	25.113	1044.871	849.153
52.301	25.047	1044.220	848.238
53.315	25.120	1043.532	847.947
54.330	25.095	1042.719	847.097
55.344	25.120	1041.197	845.901
56.359	24.968	1041.021	844.967
57.374	25.012	1040.008	844.277
58.388	24.834	1039.531	842.976
59.403	24.823	1038.076	841.670
60.417	24.856	1037.151	841.002
61.432	24.619	1036.696	839.446
62.447	24.760	1035.949	839.430
63.461	24.851	1035.198	839.174
64.476	24.828	1034.976	838.811
65.490	24.778	1033.596	837.382
66.505	24.587	1032.890	835.842
67.520	24.720	1031.789	835.502
68.534	24.762	1031.287	835.215
69.549	24.774	1030.089	834.228
70.563	24.354	1028.882	831.223
71.578	24.210	1028.686	830.318
72.593	24.279	1027.738	829.800
73.607	24.210	1026.324	828.266
74.622	24.214	1025.077	827.204
75.636	24.410	1024.840	827.850
76.651	24.596	1024.354	828.246
77.666	24.465	1023.354	826.755
78.680	24.421	1022.015	825.396
79.695	24.327	1021.878	824.778
80.709	24.499	1021.186	824.944
81.724	24.620	1020.199	824.630
82.739	24.560	1019.355	823.600
83.753	24.562	1018.737	823.036
84.768	25.053	1017.870	824.523
85.782	25.253	1017.704	825.233
86.797	25.281	1017.324	824.982
87.812	25.376	1015.662	823.997
88.826	25.192	1014.772	822.360
89.841	25.185	1014.162	821.758
90.855	25.261	1013.069	821.150
91.870	25.332	1012.758	821.149
92.884	25.349	1011.654	820.260
93.899	25.162	1011.149	818.924
94.914	25.066	1009.976	817.464
95.928	25.136	1009.291	817.154
96.943	25.125	1008.439	816.341
97.957	24.924	1007.532	814.623
98.972	24.773	1006.173	812.766
99.987	24.581	1004.714	810.643
101.001	24.646	1004.420	810.628
102.016	25.065	1003.792	811.949
103.030	24.987	1002.837	810.754
104.045	24.968	1001.871	809.815
105.060	24.832	1000.526	808.040
106.074	24.771	999.289	806.696
107.089	24.674	999.182	806.100
108.103	25.025	998.111	806.746
109.118	25.068	997.560	806.421
110.133	24.710	996.197	803.640
111.147	24.613	995.715	802.746
112.162	24.680	993.939	801.543
113.176	24.401	993.038	799.496
114.191	24.471	992.684	799.454
115.206	24.716	991.695	799.683
116.220	24.419	990.214	797.088
117.235	24.276	988.964	795.376
118.249	24.406	988.499	795.511
119.264	24.472	987.661	795.060
120.279	24.398	986.901	794.048
121.293	24.345	986.307	793.262
122.308	24.411	985.784	793.066
123.322	24.426	984.753	792.233
124.337	24.404	983.468	791.033
125.352	24.232	982.748	789.620
126.366	23.958	980.854	786.818
127.381	23.629	979.664	784.341
128.395	24.201	979.595	786.741
129.410	24.751	979.264	788.834
130.424	24.929	978.408	788.857
131.439	24.867	977.693	787.939
132.454	24.904	976.583	787.139
133.468	24.863	976.014	786.430
134.483	24.815	975.198	785.493
135.497	24.973	974.348	785.431
136.512	25.070	973.966	785.479
137.527	25.154	973.245	785.197
138.541	25.076	972.573	784.241
139.556	25.207	971.745	784.078
140.570	25.240	970.805	783.393
141.585	25.215	970.078	782.630
142.600	25.218	969.449	782.064
143.614	25.127	968.365	780.726
144.629	25.197	968.228	780.852
145.643	25.548	967.111	781.405
146.658	25.421	965.884	779.793
147.673	25.173	965.164	778.070
148.687	25.031	963.948	776.406
149.702	25.004	963.105	775.539
150.716	24.838	962.200	774.025
151.731	24.934	960.730	773.189
152.746	24.883	959.992	772.307
153.760	25.048	959.894	772.870
154.775	25.380	958.849	773.390
155.789	25.412	958.040	772.806
156.804	25.381	957.258	771.974
157.819	25.228	956.250	770.436
158.833	25.234	955.362	769.678
159.848	25.425	954.611	769.824
160.862	25.475	953.923	769.415
161.877	25.310	952.889	767.808
162.892	25.156	952.071	766.423
163.906	25.147	951.614	765.949
164.921	25.332	950.101	765.453
165.935	25.136	949.304	763.906
166.950	25.492	948.253	764.507
167.964	25.401	947.378	763.350
168.979	25.337	946.539	762.330
169.994	25.362	944.964	761.102
171.008	24.931	944.666	758.970
172.023	25.234	943.660	759.376
173.037	25.413	942.796	759.372
174.052	25.284	941.758	757.924
175.067	25.052	940.768	756.079
176.081	24.930	939.858	754.767
177.096	25.062	939.252	754.771
178.110	24.997	938.551	753.867
179.125	24.858	937.362	752.259
180.140	24.593	936.182	750.133
181.154	24.686	935.563	749.960
182.169	24.737	935.412	749.990
183.183	24.937	935.019	750.448
184.198	25.267	934.498	751.343
185.213	25.221	933.727	750.465
186.227	25.155	933.168	749.671
187.242	25.211	932.974	749.683
188.256	25.238	932.053	748.991
189.271	25.119	931.438	747.934
190.286	25.452	930.330	748.366
191.300	25.424	929.389	747.426
192.315	24.717	927.884	743.212
193.329	23.859	926.385	738.384
194.344	23.467	924.784	735.416
195.359	24.060	925.794	738.615
196.373	24.983	926.108	742.631
197.388	25.237	925.674	743.270
198.402	25.143	925.040	742.305
199.417	25.228	924.210	741.924
200.432	25.289	923.813	741.793
201.446	25.136	923.299	740.682
202.461	24.732	922.678	738.450
203.475	24.860	922.025	738.392
204.490	24.459	920.397	735.368
205.504	23.301	918.443	728.979
206.519	23.699	918.489	730.587
207.534	24.645	918.867	734.716
208.548	24.829	917.918	734.648
209.563	25.081	917.956	735.648
210.577	25.212	917.156	735.481
211.592	24.870	916.193	733.239
212.607	25.248	916.512	734.980
213.621	25.457	915.860	735.245
214.636	25.368	915.074	734.188
215.650	25.444	914.419	733.906
216.665	25.338	914.084	733.140
217.680	25.362	913.681	732.850
218.694	25.403	913.280	732.632
219.709	25.021	912.376	730.286
220.723	24.657	911.448	727.996
221.738	25.002	910.832	728.841
222.753	25.240	910.195	729.235
223.767	25.052	909.447	727.808
224.782	25.221	908.957	728.038
225.796	25.481	908.240	728.455
226.811	25.451	908.090	728.146
227.826	25.140	906.698	725.707
228.840	24.245	905.195	720.821
229.855	24.199	904.833	720.286
230.869	24.466	904.090	720.708
231.884	24.209	902.929	718.682
232.899	24.068	903.032	718.131
233.913	24.926	903.429	721.844
234.928	25.204	902.155	721.882
235.942	25.011	901.915	720.848
236.957	25.159	900.731	720.431
237.972	24.817	899.956	718.379
238.986	24.804	899.011	717.509
240.001	24.772	898.694	717.062
241.015	24.803	898.279	716.791
242.030	24.841	897.724	716.436
243.045	25.110	897.117	716.964
244.059	25.167	896.875	716.936
245.074	25.267	896.270	716.790
246.088	25.294	895.145	715.935
247.103	24.907	894.636	713.920
248.117	24.910	893.710	713.130
249.132	25.394	894.146	715.343
250.147	25.832	894.004	716.909
251.161	25.831	893.593	716.512
252.176	26.055	892.795	716.698
253.190	25.980	892.471	716.077
254.205	26.203	892.167	716.655
255.220	26.335	891.699	716.739
256.234	26.203	890.823	715.451
257.249	26.160	890.348	714.833
258.263	25.949	889.773	713.476
259.278	26.091	888.872	713.249
260.293	26.166	888.199	712.945
261.307	26.193	887.958	712.792
262.322	26.076	887.209	711.670
263.336	25.934	886.287	710.306
264.351	25.492	885.056	707.515
265.366	24.494	882.999	701.888
266.380	23.965	882.207	699.121
267.395	24.860	883.001	703.205
268.409	25.614	883.112	706.190
269.424	25.697	882.229	705.747
270.439	25.830	881.409	705.551
271.453	25.830	881.042	705.195
272.468	25.912	880.453	704.980
273.482	26.006	879.923	704.861
274.497	26.201	879.386	705.132
275.512	25.973	878.531	703.494
276.526	25.398	877.215	700.136
277.541	25.481	876.886	700.138
278.555	25.913	876.886	701.758
279.570	25.770	875.890	700.341
280.585	25.590	875.140	698.982
281.599	25.595	874.861	698.717
282.614	25.772	874.380	698.956
283.628	25.247	873.424	696.096
284.643	24.915	872.151	693.734
285.657	25.398	872.365	695.711
286.672	25.205	871.852	694.495
287.687	24.825	870.321	691.744
288.701	25.047	870.810	692.929
289.716	25.623	870.262	694.660
290.730	25.043	869.900	692.068
291.745	25.019	868.993	691.194
292.760	24.932	867.803	689.851
293.774	24.731	867.376	688.675
294.789	25.763	867.772	692.902
295.803	26.289	867.778	694.871
296.818	26.493	867.181	695.114
297.833	26.433	866.859	694.562
298.847	26.128	865.784	692.470
299.862	25.848	864.943	690.665
300.876	25.943	864.502	690.617
301.891	26.305	863.977	691.519
302.906	26.286	863.550	691.045
303.920	25.974	862.690	689.102
304.935	25.769	862.168	687.843
305.949	26.192	861.650	688.984
306.964	26.365	861.134	689.169
307.979	26.021	860.494	687.284
308.993	25.852	860.347	686.463
310.008	26.407	859.610	687.925
311.022	26.663	859.381	688.653
312.037	26.398	858.283	686.708
313.052	26.097	857.879	685.181
314.066	26.099	856.845	684.304
315.081	25.425	855.533	680.640
316.095	24.634	854.486	676.754
317.110	25.257	854.421	679.001
318.125	26.056	854.630	682.130
319.139	25.614	853.761	679.706
320.154	24.584	851.799	674.198
321.168	24.106	851.091	671.776
322.183	24.582	851.335	673.705
323.197	25.473	851.975	677.514
324.212	25.861	851.439	678.487
325.227	25.975	851.141	678.616
326.241	26.165	850.914	679.092
327.256	26.072	849.877	677.856
328.270	25.960	849.639	677.184
329.285	25.812	848.853	675.943
330.300	25.916	847.799	675.435
331.314	25.514	847.040	673.262
332.329	25.451	846.845	672.815
333.343	25.973	846.673	674.571
334.358	26.295	846.005	675.180
335.373	26.296	845.458	674.688
336.387	26.334	844.987	674.395
337.402	26.465	844.688	674.586
338.416	26.812	844.252	675.470
339.431	26.596	843.804	674.249
340.446	26.663	843.097	673.873
341.460	26.837	842.962	674.353
342.475	26.742	842.758	673.776
343.489	26.705	841.467	672.549
344.504	26.554	840.883	671.461
345.519	26.781	841.025	672.358
346.533	26.973	840.840	672.861
347.548	27.172	840.164	672.998
348.562	27.015	839.846	672.104
349.577	27.141	838.931	671.775
350.592	27.006	838.187	670.621
351.606	26.813	838.307	669.945
352.621	27.007	837.404	669.883
353.635	26.990	836.798	669.276
354.650	26.695	836.292	667.723
355.665	26.510	834.994	665.949
356.679	25.314	833.815	660.552
357.694	25.347	833.050	660.009
358.708	25.896	833.379	662.229
359.723	25.820	832.442	661.147
360.738	26.153	832.599	662.433
361.752	26.573	832.417	663.770
362.767	26.725	831.866	663.831
363.781	27.059	831.609	664.788
364.796	27.430	831.434	665.948
365.810	27.433	831.252	665.753
366.825	27.545	830.644	665.618
367.840	27.446	830.708	665.249
368.854	27.274	829.957	663.960
369.869	26.924	828.836	661.728
370.883	26.715	828.176	660.381
371.898	26.879	827.902	660.701
372.913	26.727	826.967	659.343
373.927	26.753	826.285	658.837
374.942	26.856	825.902	658.845
375.956	27.007	825.752	659.216
376.971	26.985	825.172	658.616
377.986	27.137	824.432	658.518
379.000	27.390	823.789	658.861
380.015	27.381	823.835	658.805
381.029	27.408	822.866	658.073
382.044	27.111	822.248	656.446
383.059	27.277	821.933	656.737
384.073	27.343	821.462	656.542
385.088	27.375	820.662	655.959
386.102	27.250	820.604	655.402
387.117	27.209	819.311	654.164
388.132	27.101	818.919	653.406
389.146	26.942	818.101	652.123
390.161	26.351	817.158	649.192
391.175	26.422	817.251	649.464
392.190	26.988	817.308	651.485
393.205	27.168	816.415	651.358
394.219	26.046	814.510	645.767
395.234	24.376	812.777	638.367
396.248	23.674	811.087	634.477
397.263	24.717	812.290	639.089
398.278	26.375	813.872	646.211
399.292	27.003	813.535	648.128
400.307	26.830	812.787	646.858
401.321	26.636	812.239	645.673
402.336	26.741	811.940	645.750
403.350	26.900	812.163	646.439
404.365	27.388	811.690	647.741
405.380	27.835	811.736	649.313
406.394	28.061	811.022	649.486
407.409	28.209	811.181	650.081
408.423	28.141	810.602	649.318
409.438	27.977	810.058	648.243
410.453	28.023	809.497	647.900
411.467	28.043	809.411	647.844
412.482	28.085	808.492	647.202
413.496	28.147	807.862	646.861
414.511	28.093	807.757	646.526
415.526	28.051	807.450	646.074
416.540	27.974	807.242	645.581
417.555	28.149	806.349	645.426
418.569	27.768	805.366	643.239
419.584	27.678	805.391	642.884
420.599	27.857	804.712	642.915
421.613	107.729	1284.554	1449.992
422.628	92.885	1354.465	1450.097
