DTS Sentinel unit serial number:	SN413079Multiplexer serial number:	ORYXHardware model number:	OX4-SRSoftware version number:	ORYX F/W v4.00 Oryx Data Collector v3.7.2.0data status	okinstallation	princeton_trtdifferential loss correction	single-endedforward channel	channel 3reverse channel	N/Adate	2019/09/13time	12:16:35forward acquisition time	60.00reverse acquisition time	0.00gamma	496.2192k internal	0.2308k external	0.2308temperature offset calibration	1.0152default loss term (dB/km)	0.3790temperature slope calibration	1.0000multiplexer offset coefficient	1.0000multiplexer slope coefficient	1.0000fibre end	0.00T internal ref (°C)	34.06T ext. ref 1 (°C)	4.62T ext. ref 2 (°C)	31.15length (m)	temperature (°C)	Stokes	anti-Stokes-747.200	800.000	-0.137	0.395
-746.185	-53.260	-0.349	0.163
-745.171	-200.000	0.049	-0.315
-744.156	68.613	-0.020	0.021
-743.142	10.528	0.208	0.161
-742.127	-137.722	-0.352	-0.040
-741.112	-7.198	-0.117	0.081
-740.098	55.759	-0.120	0.118
-739.083	179.500	0.115	0.171
-738.069	183.697	-0.024	0.037
-737.054	3.724	-0.099	-0.074
-736.039	-46.343	-0.274	0.137
-735.025	214.734	-0.147	0.237
-734.010	40.987	0.256	-0.235
-732.996	-200.000	-0.040	-0.192
-731.981	30.525	0.194	0.168
-730.966	-112.425	-0.176	0.036
-729.952	-200.000	-0.013	-0.136
-728.937	20.246	-0.203	0.166
-727.923	-0.567	0.227	-0.163
-726.908	54.486	-0.251	0.246
-725.894	37.089	0.010	-0.009
-724.879	-89.050	0.095	-0.029
-723.864	-87.348	-0.214	0.066
-722.850	-200.000	0.000	-0.095
-721.835	-137.192	0.105	-0.012
-720.821	-96.543	-0.247	0.066
-719.806	-165.133	-0.157	0.007
-718.791	387.441	-0.127	-0.267
-717.777	-200.000	0.016	0.094
-716.762	-103.883	-0.173	-0.041
-715.748	-38.812	-0.121	-0.065
-714.733	109.074	-0.182	0.222
-713.718	141.686	-0.220	0.297
-712.704	800.000	0.044	-0.197
-711.689	-138.749	-0.139	0.015
-710.675	-79.971	0.032	-0.011
-709.660	259.183	-0.109	-0.190
-708.645	316.510	0.249	0.477
-707.631	427.199	0.102	-0.222
-706.616	-123.772	0.127	0.020
-705.602	-200.000	-0.007	-0.076
-704.587	-93.375	-0.134	-0.038
-703.572	-83.856	-0.170	0.055
-702.558	-122.294	0.160	-0.026
-701.543	-200.000	0.013	-0.285
-700.529	521.802	-0.053	0.125
-699.514	325.577	0.141	-0.273
-698.499	223.595	0.090	-0.147
-697.485	-33.940	-0.096	-0.054
-696.470	17.071	-0.217	-0.175
-695.456	-152.234	0.225	-0.017
-694.441	433.897	0.159	0.350
-693.426	-34.161	-0.133	0.074
-692.412	118.804	0.040	0.050
-691.397	95.687	-0.172	-0.199
-690.383	800.000	0.030	0.119
-689.368	54.167	-0.157	-0.153
-688.354	131.210	-0.056	0.073
-687.339	123.822	-0.134	0.171
-686.324	245.794	-0.127	-0.217
-685.310	-200.000	0.006	-0.120
-684.295	800.000	-0.082	-0.239
-683.281	527.099	-0.028	0.067
-682.266	265.294	0.121	-0.214
-681.251	127.690	-0.158	-0.203
-680.237	47.451	0.129	-0.122
-679.222	-200.000	0.010	0.097
-678.208	-71.901	-0.404	-0.152
-677.193	800.000	0.065	0.230
-676.178	-112.413	-0.093	-0.019
-675.164	91.488	-0.077	-0.088
-674.149	-145.633	0.173	0.016
-673.135	-82.752	0.116	0.038
-672.120	-138.764	-0.353	0.039
-671.105	-104.984	-0.152	-0.035
-670.091	-142.646	-0.246	0.024
-669.076	-108.644	-0.272	-0.059
-668.062	-128.988	-0.260	0.037
-667.047	-49.267	0.045	-0.022
-666.032	150.903	0.109	0.150
-665.018	83.787	-0.087	0.096
-664.003	-93.996	-0.196	0.055
-662.989	-200.000	-0.021	-0.345
-661.974	651.154	-0.098	-0.254
-660.959	104.682	-0.122	0.145
-659.945	128.368	0.094	0.122
-658.930	131.653	0.132	0.172
-657.916	-134.417	0.087	-0.011
-656.901	800.000	0.036	0.123
-655.886	150.518	0.215	-0.296
-654.872	-200.000	-0.001	-0.072
-653.857	204.458	-0.119	0.186
-652.843	47.072	-0.411	0.388
-651.828	-200.000	-0.036	0.454
-650.814	800.000	-0.053	0.183
-649.799	-34.654	0.208	0.115
-648.784	644.120	0.105	-0.271
-647.770	-200.000	0.001	-0.152
-646.755	-44.718	0.333	0.168
-645.741	800.000	-0.047	0.143
-644.726	-92.461	-0.234	0.067
-643.711	800.000	0.081	-0.274
-642.697	309.266	-0.114	0.216
-641.682	800.000	0.133	-0.419
-640.668	106.416	-0.233	-0.280
-639.653	-22.761	-0.116	0.071
-638.638	-200.000	0.005	-0.085
-637.624	-141.090	0.196	0.020
-636.609	-56.438	0.214	0.096
-635.595	144.320	0.223	-0.301
-634.580	800.000	-0.040	-0.117
-633.565	-200.000	-0.064	-0.396
-632.551	-200.000	-0.017	-0.213
-631.536	-123.979	-0.144	0.023
-630.522	-200.000	0.021	0.239
-629.507	-200.000	-0.045	-0.228
-628.492	344.327	0.084	0.167
-627.478	136.131	-0.086	-0.113
-626.463	-200.000	0.025	0.221
-625.449	123.164	-0.169	0.214
-624.434	289.074	-0.046	0.083
-623.419	-125.515	0.259	0.040
-622.405	-200.000	-0.004	0.068
-621.390	95.721	-0.227	0.263
-620.376	27.168	-0.060	-0.051
-619.361	105.543	0.189	-0.226
-618.346	-7.013	0.155	0.106
-617.332	-126.404	-0.256	0.039
-616.317	800.000	-0.047	-0.159
-615.303	-127.833	-0.209	-0.030
-614.288	101.359	0.036	0.043
-613.273	-97.496	0.259	-0.068
-612.259	165.414	-0.196	0.280
-611.244	-74.412	-0.135	0.049
-610.230	-86.395	-0.044	-0.014
-609.215	-54.758	0.221	0.101
-608.201	-200.000	-0.006	0.061
-607.186	-86.801	0.151	0.047
-606.171	223.853	-0.075	0.122
-605.157	-135.389	0.170	0.021
-604.142	-16.790	0.134	0.086
-603.128	-125.334	-0.304	0.047
-602.113	616.060	0.129	-0.328
-601.098	800.000	-0.078	-0.290
-600.084	-200.000	0.005	0.059
-599.069	-200.000	0.020	-0.091
-598.055	-57.828	0.127	-0.056
-597.040	486.978	-0.208	0.480
-596.025	124.057	-0.068	-0.086
-595.011	-200.000	0.029	-0.269
-593.996	758.416	0.135	0.368
-592.982	279.760	0.056	-0.100
-591.967	-200.000	0.054	-0.390
-590.952	800.000	-0.045	-0.148
-589.938	116.107	-0.082	-0.102
-588.923	-60.200	-0.355	-0.153
-587.909	-87.969	0.140	0.042
-586.894	800.000	0.036	0.119
-585.879	-36.141	-0.158	0.086
-584.865	24.635	-0.167	-0.139
-583.850	800.000	-0.107	-0.447
-582.836	-200.000	-0.013	0.203
-581.821	800.000	0.066	-0.270
-580.806	-200.000	-0.041	-0.189
-579.792	164.856	0.075	-0.107
-578.777	-200.000	-0.071	0.449
-577.763	-113.895	-0.282	0.055
-576.748	359.284	-0.073	0.148
-575.733	-110.351	-0.650	0.136
-574.719	-200.000	-0.022	0.174
-573.704	-124.566	0.230	-0.036
-572.690	781.559	0.094	-0.260
-571.675	386.398	0.014	-0.029
-570.661	-89.835	0.087	-0.026
-569.646	-13.343	0.466	-0.305
-568.631	716.717	0.036	-0.096
-567.617	135.235	0.156	0.204
-566.602	-200.000	-0.037	-0.272
-565.588	-72.677	-0.152	-0.056
-564.573	-185.398	-0.245	0.004
-563.558	527.099	-0.093	-0.222
-562.544	184.896	0.346	-0.518
-561.529	-16.034	-0.193	-0.124
-560.515	253.249	0.087	-0.150
-559.500	-200.000	-0.033	0.191
-558.485	-200.000	0.041	-0.217
-557.471	178.155	0.062	0.091
-556.456	19.467	-0.112	-0.091
-555.442	-146.189	-0.335	-0.030
-554.427	-200.000	0.006	0.098
-553.412	800.000	0.060	0.179
-552.398	-19.870	0.379	-0.236
-551.383	3.418	0.350	-0.257
-550.369	99.962	0.216	-0.252
-549.354	-141.959	0.366	-0.037
-548.339	800.000	-0.055	0.164
-547.325	-130.406	-0.197	0.027
-546.310	104.246	0.376	-0.446
-545.296	800.000	-0.053	0.165
-544.281	-129.336	0.173	-0.024
-543.266	-52.993	-0.190	0.088
-542.252	-8.211	-0.072	-0.049
-541.237	-68.315	-0.154	0.060
-540.223	-134.110	-0.252	-0.031
-539.208	-200.000	0.016	0.158
-538.193	-94.092	-0.042	-0.012
-537.179	800.000	-0.092	0.262
-536.164	-101.829	0.225	-0.055
-535.150	-200.000	-0.040	-0.424
-534.135	70.584	0.163	-0.170
-533.121	147.280	0.278	0.378
-532.106	-27.990	-0.158	-0.092
-531.091	14.370	-0.097	0.076
-530.077	-200.000	0.036	0.257
-529.062	800.000	0.044	-0.131
-528.048	800.000	0.004	-0.015
-527.033	18.259	-0.209	0.168
-526.018	102.682	-0.024	0.028
-525.004	-20.783	-0.294	0.181
-523.989	45.936	-0.139	-0.129
-522.975	-46.514	0.511	0.253
-521.960	-200.000	-0.014	0.188
-520.945	-86.421	0.244	0.075
-519.931	-79.717	-0.182	-0.062
-518.916	-200.000	0.018	-0.086
-517.902	-56.726	0.176	-0.078
-516.887	-34.545	-0.374	0.206
-515.872	-89.020	-0.168	0.050
-514.858	-200.000	-0.015	0.071
-513.843	-200.000	0.067	-0.306
-512.829	-167.238	-0.381	0.016
-511.814	254.135	0.091	0.156
-510.799	-200.000	-0.022	0.209
-509.785	-183.084	-0.211	-0.004
-508.770	638.784	0.046	-0.118
-507.756	-200.000	0.039	-0.247
-506.741	170.658	-0.121	-0.175
-505.726	-69.763	0.172	0.066
-504.712	-110.325	-0.238	0.050
-503.697	-94.368	-0.115	-0.032
-502.683	-166.148	-0.600	0.026
-501.668	-79.312	-0.449	0.153
-500.653	-32.487	-0.141	0.079
-499.639	-51.450	0.181	0.085
-498.624	800.000	0.040	-0.123
-497.610	28.462	0.256	0.218
-496.595	52.041	-0.224	0.215
-495.581	800.000	-0.024	0.078
-494.566	523.374	-0.080	0.190
-493.551	367.132	-0.048	0.098
-492.537	66.778	0.216	0.222
-491.522	-52.547	-0.241	0.112
-490.508	-200.000	0.009	-0.057
-489.493	84.309	0.238	0.262
-488.478	-126.322	-0.029	-0.004
-487.464	213.780	0.093	0.149
-486.449	152.309	0.328	-0.451
-485.435	121.736	-0.087	0.109
-484.420	-35.908	-0.026	0.014
-483.405	160.996	-0.056	-0.079
-482.391	76.281	-0.209	-0.223
-481.376	175.424	-0.035	0.051
-480.362	59.119	0.191	-0.190
-479.347	571.126	0.099	-0.242
-478.332	31.476	0.072	-0.062
-477.318	-200.000	-0.029	0.243
-476.303	-114.075	0.284	0.055
-475.289	-49.819	-0.382	-0.183
-474.274	179.651	-0.063	-0.093
-473.259	-200.000	-0.027	0.241
-472.245	-153.722	-0.053	0.004
-471.230	800.000	0.008	0.033
-470.216	263.487	0.098	-0.171
-469.201	-102.500	-0.149	-0.036
-468.186	230.250	0.137	0.225
-467.172	785.404	0.035	-0.095
-466.157	-115.196	0.242	0.046
-465.143	-200.000	0.010	-0.126
-464.128	-200.000	-0.028	0.182
-463.113	421.963	-0.120	0.259
-462.099	-200.000	-0.025	-0.310
-461.084	-200.000	0.015	-0.147
-460.070	-105.936	0.155	0.035
-459.055	59.414	0.156	-0.154
-458.040	-18.082	-0.224	-0.141
-457.026	-135.928	0.165	0.020
-456.011	-148.102	0.512	-0.043
-454.997	-16.192	-0.150	0.096
-453.982	257.506	-0.064	0.110
-452.968	-84.208	-0.088	-0.028
-451.953	169.461	0.123	-0.177
-450.938	703.120	-0.090	0.238
-449.924	587.902	0.078	0.194
-448.909	-200.000	-0.005	-0.042
-447.895	-18.531	0.294	-0.184
-446.880	-107.664	-0.078	0.017
-445.865	-29.758	0.097	0.055
-444.851	800.000	-0.053	-0.150
-443.836	77.374	-0.100	-0.107
-442.822	-106.001	-0.196	0.044
-441.807	-107.156	0.042	-0.009
-440.792	-121.724	-0.049	0.008
-439.778	-175.781	-0.235	0.006
-438.763	-18.414	-0.277	0.174
-437.749	63.687	0.096	0.097
-436.734	79.382	-0.118	0.127
-435.719	800.000	0.132	-0.570
-434.705	-53.296	0.209	-0.096
-433.690	40.653	0.082	0.074
-432.676	18.746	0.280	-0.225
-431.661	478.503	0.129	0.293
-430.646	-200.000	0.011	0.288
-429.632	-52.930	-0.118	-0.055
-428.617	-76.741	0.159	-0.056
-427.603	-0.599	-0.169	0.120
-426.588	-145.816	-0.017	-0.002
-425.573	-175.122	0.233	0.006
-424.559	-88.048	0.090	-0.027
-423.544	613.390	-0.036	0.089
-422.530	-200.000	0.088	0.432
-421.515	178.216	0.065	-0.095
-420.500	253.885	-0.011	-0.019
-419.486	-200.000	-0.036	-0.247
-418.471	-124.366	0.215	-0.034
-417.457	-200.000	-0.012	0.108
-416.442	-34.760	0.158	-0.087
-415.428	43.488	-0.214	0.196
-414.413	360.131	0.087	0.175
-413.398	-169.884	-0.052	0.002
-412.384	365.418	-0.114	-0.229
-411.369	800.000	0.045	-0.133
-410.355	-75.464	0.404	-0.144
-409.340	800.000	-0.031	0.092
-408.325	-142.175	-0.238	0.024
-407.311	-38.678	-0.233	0.123
-406.296	-100.176	0.154	0.038
-405.282	590.426	-0.042	-0.104
-404.267	174.796	0.176	0.256
-403.252	82.306	0.074	-0.081
-402.238	19.258	0.357	-0.287
-401.223	206.615	-0.159	0.248
-400.209	800.000	-0.017	0.071
-399.194	-200.000	-0.257	-0.000
-398.179	-104.472	-0.174	-0.040
-397.165	-200.000	-0.060	0.349
-396.150	166.430	-0.099	0.141
-395.136	23.026	-0.171	0.141
-394.121	-87.081	-0.178	-0.054
-393.106	-200.000	-0.020	-0.281
-392.092	-130.182	0.447	-0.061
-391.077	-200.000	0.035	0.157
-390.063	-50.591	-0.207	-0.098
-389.048	-129.103	0.159	-0.022
-388.033	-61.886	0.157	0.066
-387.019	121.675	0.097	-0.122
-386.004	-104.952	-0.454	0.104
-384.990	-200.000	-0.021	-0.238
-383.975	234.193	0.166	-0.274
-382.960	-169.485	-0.408	0.015
-381.946	113.152	0.191	0.232
-380.931	177.250	0.011	-0.016
-379.917	-122.915	-0.191	-0.031
-378.902	158.896	0.109	-0.152
-377.888	-30.185	-0.095	-0.054
-376.873	-190.680	0.225	-0.002
-375.858	-163.179	-0.180	-0.009
-374.844	470.630	-0.129	0.291
-373.829	523.154	0.096	0.227
-372.815	-200.000	0.008	0.109
-371.800	-68.764	-0.179	-0.069
-370.785	-200.000	-0.013	-0.085
-369.771	800.000	0.106	-0.421
-368.756	-67.073	0.260	-0.103
-367.742	-186.174	-0.371	0.005
-366.727	-127.127	0.224	-0.033
-365.712	-117.554	-0.078	0.014
-364.698	-200.000	0.028	-0.342
-363.683	27.935	0.157	-0.133
-362.669	-133.308	-0.169	-0.021
-361.654	-81.139	-0.211	0.070
-360.639	91.714	0.014	-0.016
-359.625	-24.810	0.167	-0.099
-358.610	-200.000	0.048	0.213
-357.596	150.742	-0.057	-0.078
-356.581	-123.455	0.220	0.035
-355.566	60.609	0.231	0.229
-354.552	82.594	-0.182	0.198
-353.537	-190.362	-0.238	0.003
-352.523	800.000	0.058	-0.239
-351.508	800.000	0.032	-0.098
-350.493	800.000	0.007	-0.025
-349.479	-75.102	0.294	0.105
-348.464	186.487	-0.182	-0.271
-347.450	5.813	-0.233	0.173
-346.435	-200.000	0.010	0.339
-345.420	-68.591	0.040	0.016
-344.406	-93.046	-0.100	0.028
-343.391	-200.000	-0.052	-0.278
-342.377	-53.517	-0.231	0.106
-341.362	-92.510	-0.470	-0.132
-340.348	6.147	-0.236	-0.175
-339.333	-21.518	0.170	0.103
-338.318	-177.054	-0.282	0.007
-337.304	73.296	0.125	0.131
-336.289	-100.587	-0.036	-0.009
-335.275	16.135	0.045	0.036
-334.260	98.267	0.218	0.251
-333.245	-58.167	-0.126	0.055
-332.231	348.973	0.077	0.152
-331.216	-200.000	-0.041	0.185
-330.202	-122.156	0.313	0.051
-329.187	461.154	-0.077	-0.172
-328.172	178.136	-0.091	-0.133
-327.158	-200.000	0.018	0.187
-326.143	-90.732	0.126	0.036
-325.129	420.527	0.038	0.082
-324.114	412.836	-0.023	0.048
-323.099	74.033	-0.226	0.237
-322.085	-142.615	0.165	0.016
-321.070	-105.934	-0.459	-0.103
-320.056	-200.000	0.005	-0.032
-319.041	-200.000	0.008	-0.118
-318.026	-147.132	-0.093	-0.008
-317.012	284.655	-0.066	-0.118
-315.997	-200.000	0.000	-0.113
-314.983	16.441	0.079	0.063
-313.968	-44.685	0.277	-0.138
-312.953	207.511	-0.068	-0.107
-311.939	562.996	-0.024	-0.057
-310.924	800.000	0.073	0.239
-309.910	134.528	-0.129	0.167
-308.895	74.983	-0.182	-0.192
-307.880	-130.573	-0.127	-0.017
-306.866	-161.198	0.164	-0.009
-305.851	-166.852	0.270	0.011
-304.837	181.830	-0.120	-0.176
-303.822	24.680	0.213	0.176
-302.807	-121.538	0.090	0.015
-301.793	-200.000	-0.031	-0.371
-300.778	107.231	-0.063	-0.075
-299.764	27.312	0.215	-0.180
-298.749	-36.543	0.215	-0.115
-297.735	-109.914	-0.145	0.030
-296.720	-95.037	-0.078	0.021
-295.705	-79.581	0.257	-0.087
-294.691	-70.280	-0.199	-0.076
-293.676	450.443	0.174	0.383
-292.662	580.021	0.042	0.103
-291.647	-200.000	0.013	-0.298
-290.632	248.117	-0.226	-0.381
-289.618	800.000	-0.069	-0.279
-288.603	538.123	0.071	-0.169
-287.589	-200.000	-0.040	0.327
-286.574	-200.000	0.027	0.137
-285.559	17.808	-0.152	0.121
-284.545	143.771	0.074	-0.099
-283.530	-200.000	-0.024	-0.152
-282.516	-95.211	0.306	0.082
-281.501	-61.373	-0.191	0.080
-280.486	-200.000	0.009	0.290
-279.472	189.077	0.099	-0.147
-278.457	56.447	0.210	-0.204
-277.443	82.203	-0.106	0.115
-276.428	-116.267	-0.023	-0.004
-275.413	110.177	-0.150	-0.180
-274.399	-200.000	0.031	0.325
-273.384	-200.000	0.041	0.455
-272.370	-52.008	0.186	0.086
-271.355	-0.490	-0.199	0.141
-270.340	137.479	0.114	0.149
-269.326	221.403	0.096	-0.154
-268.311	163.409	-0.211	0.296
-267.297	-200.000	0.014	-0.129
-266.282	236.461	-0.054	0.090
-265.267	4.659	-0.171	0.126
-264.253	40.282	-0.077	-0.069
-263.238	-200.000	0.011	0.278
-262.224	-145.931	0.065	0.006
-261.209	23.125	-0.167	0.137
-260.195	-200.000	-0.041	0.270
-259.180	800.000	-0.110	0.327
-258.165	-157.348	0.139	-0.008
-257.151	-200.000	-0.009	-0.077
-256.136	103.311	-0.038	0.044
-255.122	10.833	0.219	-0.167
-254.107	24.146	-0.148	0.122
-253.092	-200.000	-0.044	-0.356
-252.078	-136.672	0.227	0.026
-251.063	619.034	0.072	0.181
-250.049	-48.004	-0.114	0.055
-249.034	-46.777	0.206	-0.100
-248.019	800.000	0.055	0.203
-247.005	-77.346	0.161	-0.056
-245.990	103.333	0.050	-0.058
-244.976	-81.169	0.399	0.131
-243.961	-169.916	-0.090	0.003
-242.946	-71.351	-0.327	0.122
-241.932	-200.000	0.018	-0.170
-240.917	-86.259	-0.485	-0.149
-239.903	34.599	-0.051	0.044
-238.888	-104.092	-0.377	-0.088
-237.873	-15.409	0.296	0.188
-236.859	-200.000	-0.011	-0.065
-235.844	-23.468	0.037	-0.022
-234.830	-200.000	-0.031	0.246
-233.815	403.934	0.074	0.155
-232.800	800.000	-0.037	0.155
-231.786	-68.922	-0.240	0.092
-230.771	58.377	0.226	-0.221
-229.757	-93.680	-0.134	0.037
-228.742	800.000	0.108	-0.314
-227.727	76.698	0.105	-0.111
-226.713	468.710	-0.148	-0.330
-225.698	474.443	0.063	-0.141
-224.684	462.090	-0.137	0.304
-223.669	800.000	-0.061	0.215
-222.655	-1.970	0.211	0.148
-221.640	146.122	-0.095	0.127
-220.625	-90.274	0.292	0.084
-219.611	-131.255	0.228	-0.030
-218.596	-91.278	0.073	-0.021
-217.582	800.000	0.063	0.174
-216.567	314.753	0.165	-0.309
-215.552	520.387	-0.099	-0.231
-214.538	119.806	0.145	0.179
-213.523	-200.000	0.019	0.116
-212.509	-64.899	-0.069	0.028
-211.494	86.947	-0.209	0.229
-210.479	-78.374	0.105	0.036
-209.465	-156.644	-0.141	-0.009
-208.450	211.768	-0.195	-0.305
-207.436	-53.112	0.352	-0.161
-206.421	-200.000	0.037	0.198
-205.406	-200.000	-0.003	0.224
-204.392	114.282	-0.115	-0.139
-203.377	-200.000	0.049	-0.350
-202.363	407.862	0.115	-0.243
-201.348	-200.000	0.033	-0.158
-200.333	-200.000	-0.041	-0.262
-199.319	-69.803	0.085	0.032
-198.304	120.456	-0.032	0.040
-197.290	-175.029	-0.169	0.005
-196.275	-61.192	0.223	0.094
-195.260	-200.000	-0.007	-0.237
-194.246	-200.000	0.052	0.310
-193.231	681.524	0.091	0.237
-192.217	-47.183	0.204	-0.099
-191.202	-200.000	-0.012	0.169
-190.187	-57.137	-0.176	0.077
-189.173	33.113	-0.151	-0.130
-188.158	480.453	0.074	0.168
-187.144	-99.597	0.266	-0.066
-186.129	8.145	0.313	-0.234
-185.114	-200.000	-0.002	-0.278
-184.100	-200.000	0.003	-0.078
-183.085	-27.828	0.135	0.078
-182.071	61.942	-0.238	-0.236
-181.056	293.488	-0.177	0.322
-180.042	214.429	-0.087	-0.136
-179.027	800.000	-0.154	0.457
-178.012	649.058	0.111	-0.282
-176.998	-200.000	0.031	-0.262
-175.983	-171.485	0.308	0.010
-174.969	171.477	0.079	0.113
-173.954	85.761	0.287	0.313
-172.939	-138.270	0.196	-0.022
-171.925	436.536	0.069	0.149
-170.910	50.100	0.117	0.110
-169.896	-27.768	-0.263	-0.151
-168.881	-98.896	-0.116	0.029
-167.866	-31.917	-0.204	0.113
-166.852	-200.000	0.027	0.306
-165.837	38.661	-0.091	-0.081
-164.823	-200.000	0.012	-0.153
-163.808	-200.000	0.021	0.242
-162.793	800.000	-0.106	0.439
-161.779	-48.241	0.106	-0.051
-160.764	75.502	-0.127	-0.133
-159.750	800.000	-0.011	0.033
-158.735	-106.846	0.121	0.027
-157.720	-173.898	-0.234	-0.007
-156.706	310.746	0.098	-0.183
-155.691	-17.198	-0.282	-0.177
-154.677	-112.679	0.275	0.054
-153.662	465.401	0.090	0.200
-152.647	-35.569	-0.180	0.097
-151.633	-113.558	0.156	0.030
-150.618	19.039	0.036	-0.028
-149.604	42.059	-0.134	0.121
-148.589	-200.000	-0.027	0.172
-147.574	425.188	-0.168	0.359
-146.560	85.589	0.116	0.127
-145.545	122.700	0.115	-0.142
-144.531	184.681	-0.212	-0.312
-143.516	59.404	0.252	-0.247
-142.502	542.030	0.112	-0.266
-141.487	34.580	-0.315	0.273
-140.472	382.675	0.086	0.176
-139.458	-61.411	-0.133	-0.056
-138.443	-200.000	-0.003	-0.160
-137.429	660.496	0.205	-0.523
-136.414	190.801	0.049	0.072
-135.399	-45.437	-0.393	-0.193
-134.385	-200.000	-0.062	-0.321
-133.370	-4.214	0.218	0.150
-132.356	-107.657	-0.156	0.034
-131.341	-114.531	-0.177	0.034
-130.326	167.751	-0.110	0.156
-129.312	-120.723	0.085	-0.014
-128.297	-137.829	0.116	0.013
-127.283	-19.837	0.076	0.046
-126.268	-153.131	0.082	0.006
-125.253	70.048	0.410	-0.420
-124.239	422.757	0.069	-0.147
-123.224	292.892	0.201	-0.364
-122.210	-99.546	0.319	-0.080
-121.195	151.273	0.279	0.377
-120.180	-82.052	0.317	0.103
-119.166	-36.880	0.183	-0.098
-118.151	-55.758	-0.291	0.129
-117.137	465.299	0.144	0.320
-116.122	-200.000	0.020	0.294
-115.107	185.265	-0.135	-0.199
-114.093	231.722	0.094	0.153
-113.078	388.227	0.067	0.138
-112.064	-147.807	0.040	0.003
-111.049	-130.687	0.079	0.010
-110.034	174.466	0.098	-0.140
-109.020	800.000	0.057	0.172
-108.005	-200.000	0.008	0.403
-106.991	-26.316	0.184	0.107
-105.976	-79.498	-0.019	-0.006
-104.962	-200.000	-0.014	0.197
-103.947	-181.016	-0.227	-0.005
-102.932	-200.000	-0.046	0.205
-101.918	534.462	-0.058	-0.137
-100.903	-73.563	-0.069	0.025
-99.889	36.181	0.193	-0.168
-98.874	-165.972	0.116	-0.005
-97.859	-59.193	0.197	0.084
-96.845	-200.000	0.008	0.181
-95.830	800.000	-0.051	-0.192
-94.816	-51.540	0.176	0.081
-93.801	-141.569	-0.320	0.032
-92.786	638.367	0.054	-0.136
-91.772	1.767	-0.187	0.134
-90.757	-26.128	0.296	0.172
-89.743	-200.000	0.031	-0.252
-88.728	264.367	-0.068	-0.117
-87.713	-33.192	0.361	0.198
-86.699	-64.997	0.211	-0.084
-85.684	83.748	0.009	-0.010
-84.670	-139.036	-0.253	-0.027
-83.655	158.680	-0.110	-0.151
-82.640	-179.739	0.237	-0.005
-81.626	21.314	-0.183	-0.147
-80.611	-200.000	0.035	-0.437
-79.597	53.558	0.199	-0.189
-78.582	43.554	-0.103	-0.093
-77.567	-18.786	0.084	0.052
-76.553	458.900	-0.129	0.284
-75.538	-61.052	0.104	-0.043
-74.524	-200.000	-0.026	-0.206
-73.509	71.684	0.263	0.271
-72.494	13.195	-0.241	-0.185
-71.480	290.767	0.073	0.131
-70.465	72.458	0.116	-0.120
-69.451	-58.723	0.324	0.139
-68.436	-49.141	0.174	-0.082
-67.422	-29.896	0.147	0.083
-66.407	-18.254	0.302	0.187
-65.392	800.000	0.033	0.091
-64.378	-113.245	0.427	-0.083
-63.363	323.576	-0.149	0.282
-62.349	-200.000	-0.024	0.168
-61.334	27.310	-1.244	-1.034
-60.319	384.091	0.193	0.394
-59.305	800.000	-0.242	-0.920
-58.290	104.390	0.676	0.787
-57.276	324.606	0.658	1.244
-56.261	-200.000	97.162	567.908
-55.246	615.486	1406.422	3488.257
-54.232	182.520	2630.153	3837.316
-53.217	118.716	2220.316	2712.933
-52.203	44.493	1748.658	1589.308
-51.188	37.215	1559.059	1365.963
-50.173	34.686	1532.082	1324.755
-49.159	53.139	1582.487	1498.886
-48.144	56.725	1601.122	1541.756
-47.130	37.592	1556.499	1366.148
-46.115	34.296	1540.920	1329.466
-45.100	34.235	1537.209	1325.785
-44.086	34.095	1535.961	1323.686
-43.071	34.180	1533.752	1322.317
-42.057	33.988	1532.542	1319.890
-41.042	34.035	1531.260	1319.061
-40.027	34.084	1529.560	1317.882
-39.013	34.139	1527.820	1316.712
-37.998	34.052	1526.866	1315.231
-36.984	34.046	1526.097	1314.477
-35.969	34.073	1524.426	1313.174
-34.954	33.959	1523.010	1311.115
-33.940	33.992	1521.851	1310.289
-32.925	34.130	1519.848	1309.465
-31.911	34.156	1518.686	1308.594
-30.896	34.145	1517.396	1307.353
-29.881	34.173	1516.408	1306.644
-28.867	34.105	1515.107	1304.999
-27.852	34.088	1513.666	1303.592
-26.838	34.163	1511.943	1302.567
-25.823	34.045	1510.652	1300.601
-24.809	34.183	1508.451	1299.596
-23.794	34.130	1507.585	1298.433
-22.779	34.051	1506.371	1296.802
-21.765	34.213	1504.823	1296.522
-20.750	34.138	1504.027	1295.271
-19.736	34.058	1502.774	1293.596
-18.721	34.073	1501.890	1292.888
-17.706	34.076	1500.339	1291.522
-16.692	34.096	1499.407	1290.802
-15.677	34.081	1498.892	1290.206
-14.663	34.065	1497.828	1289.134
-13.648	33.996	1496.768	1287.703
-12.633	34.045	1495.545	1286.925
-11.619	34.008	1495.287	1286.403
-10.604	34.104	1493.694	1285.635
-9.590	33.962	1493.217	1284.210
-8.575	33.974	1492.370	1283.516
-7.560	33.968	1491.368	1282.562
-6.546	33.943	1490.838	1281.884
-5.531	33.922	1489.645	1280.668
-4.517	34.055	1488.620	1280.628
-3.502	34.013	1487.579	1279.401
-2.487	33.981	1486.595	1278.290
-1.473	34.029	1485.498	1277.620
-0.458	33.994	1484.452	1276.429
0.556	36.297	1475.296	1266.620
1.571	33.483	1448.193	1225.084
2.586	29.512	1385.621	1147.425
3.600	27.372	1301.434	1065.103
4.615	24.982	1253.626	1012.397
5.629	21.074	1195.436	944.211
6.644	12.602	1108.701	832.922
7.659	5.823	1067.377	768.673
8.673	4.857	1061.062	759.349
9.688	4.619	1057.938	755.893
10.702	4.435	1056.648	754.011
11.717	4.579	1055.072	753.517
12.731	7.775	1058.426	771.363
13.746	16.320	1070.383	821.763
14.761	22.118	1077.332	855.336
15.775	22.364	1077.034	856.219
16.790	21.609	1075.509	851.261
17.804	20.567	1073.193	844.298
18.819	19.809	1071.242	839.014
19.834	19.415	1069.764	835.870
20.848	19.273	1069.057	834.558
21.863	19.098	1068.748	833.395
22.877	19.010	1067.731	832.103
23.892	18.688	1067.271	830.114
24.907	18.725	1066.410	829.550
25.921	18.681	1065.615	828.646
26.936	18.728	1064.777	828.145
27.950	18.768	1063.328	827.139
28.965	18.727	1061.898	825.757
29.980	18.817	1060.880	825.326
30.994	19.077	1060.106	825.898
32.009	19.141	1059.101	825.349
33.023	19.061	1058.935	824.763
34.038	19.101	1057.956	824.115
35.053	18.868	1057.512	822.582
36.067	18.940	1055.759	821.490
37.082	18.853	1055.421	820.740
38.096	18.856	1054.565	820.017
39.111	18.927	1054.236	820.027
40.126	18.996	1053.002	819.323
41.140	18.832	1051.808	817.540
42.155	18.691	1050.395	815.700
43.169	18.441	1049.370	813.646
44.184	18.459	1048.151	812.715
45.199	18.418	1046.768	811.374
46.213	18.427	1045.744	810.552
47.228	18.493	1045.286	810.436
48.242	18.773	1044.434	811.029
49.257	18.916	1043.350	810.788
50.271	18.902	1042.385	809.900
51.286	18.830	1042.032	809.217
52.301	19.005	1040.839	809.043
53.315	18.953	1040.331	808.329
54.330	18.867	1039.529	807.234
55.344	18.542	1038.571	804.889
56.359	18.568	1037.350	803.995
57.374	18.602	1036.639	803.533
58.388	18.548	1035.462	802.297
59.403	18.502	1034.357	801.153
60.417	18.265	1034.276	799.914
61.432	18.316	1033.365	799.378
62.447	18.487	1032.212	799.211
63.461	18.243	1031.620	797.543
64.476	18.249	1030.425	796.577
65.490	18.225	1029.461	795.652
66.505	18.155	1029.202	795.053
67.520	18.281	1028.143	794.753
68.534	18.283	1027.070	793.862
69.549	18.203	1027.025	793.387
70.563	18.241	1026.233	792.879
71.578	18.320	1024.578	791.896
72.593	18.136	1024.088	790.597
73.607	18.185	1022.731	789.703
74.622	17.957	1022.083	788.084
75.636	17.902	1021.409	787.240
76.651	18.010	1020.795	787.194
77.666	17.992	1019.982	786.414
78.680	18.097	1019.081	786.136
79.695	18.140	1018.501	785.817
80.709	18.230	1018.189	785.917
81.724	18.396	1016.984	785.680
82.739	18.445	1016.506	785.464
83.753	18.471	1016.188	785.270
84.768	18.693	1014.956	785.263
85.782	18.997	1014.690	786.377
86.797	19.129	1014.366	786.662
87.812	19.169	1013.102	785.793
88.826	18.980	1011.855	783.895
89.841	18.923	1011.260	783.107
90.855	18.995	1010.595	782.847
91.870	19.113	1010.150	782.970
92.884	19.025	1009.503	782.001
93.899	19.090	1008.521	781.467
94.914	19.150	1007.308	780.728
95.928	19.088	1006.736	779.935
96.943	19.032	1006.632	779.533
97.957	18.980	1005.322	778.216
98.972	18.920	1004.307	777.087
99.987	18.956	1003.529	776.580
101.001	18.929	1003.263	776.183
102.016	19.045	1002.104	775.740
103.030	18.923	1000.773	774.094
104.045	19.059	1000.016	774.050
105.060	19.064	999.153	773.335
106.074	18.884	997.919	771.505
107.089	18.704	997.027	769.940
108.103	18.388	996.345	767.927
109.118	18.447	994.757	766.902
110.133	18.263	994.194	765.579
111.147	18.273	993.646	765.129
112.162	18.305	992.397	764.243
113.176	18.255	991.725	763.438
114.191	18.392	990.876	763.324
115.206	18.499	989.900	762.984
116.220	18.598	989.137	762.767
117.235	18.482	988.167	761.437
118.249	18.343	987.626	760.336
119.264	18.382	986.380	759.482
120.279	18.188	985.948	758.224
121.293	18.224	985.185	757.726
122.308	18.310	984.121	757.224
123.322	18.119	983.735	756.013
124.337	18.074	982.083	754.478
125.352	18.150	980.662	753.653
126.366	18.091	979.651	752.551
127.381	18.044	979.211	751.940
128.395	18.104	977.919	751.148
129.410	18.059	977.537	750.586
130.424	18.145	976.619	750.194
131.439	18.254	975.589	749.812
132.454	18.365	975.105	749.860
133.468	18.418	974.573	749.620
134.483	18.476	973.643	749.091
135.497	18.458	972.979	748.434
136.512	18.395	972.390	747.642
137.527	18.481	971.500	747.266
138.541	18.603	970.459	746.929
139.556	18.435	970.209	745.938
140.570	18.585	969.606	746.063
141.585	18.569	968.880	745.368
142.600	18.716	968.577	745.708
143.614	18.948	967.680	745.958
144.629	18.835	967.319	745.123
145.643	19.145	966.139	745.493
146.658	19.040	965.366	744.373
147.673	18.817	964.168	742.423
148.687	18.738	962.926	741.059
149.702	18.582	961.661	739.344
150.716	18.446	960.969	738.162
151.731	18.498	960.026	737.599
152.746	18.471	959.475	736.993
153.760	18.628	958.524	736.873
154.775	18.592	957.700	736.018
155.789	18.836	957.235	736.641
156.804	18.870	956.216	735.937
157.819	18.814	955.529	735.103
158.833	18.777	955.147	734.589
159.848	18.876	954.468	734.424
160.862	19.033	953.858	734.559
161.877	18.999	953.030	733.714
162.892	18.701	951.663	731.323
163.906	18.423	950.519	729.197
164.921	18.524	949.283	728.616
165.935	18.384	949.059	727.786
166.950	18.631	947.671	727.704
167.964	18.738	946.944	727.534
168.979	18.632	946.509	726.686
169.994	18.532	945.313	725.279
171.008	18.523	943.919	724.111
172.023	18.691	943.513	724.444
173.037	18.900	942.480	724.465
174.052	18.920	942.571	724.558
175.067	18.987	941.378	723.858
176.081	18.615	940.832	721.808
177.096	18.378	939.852	719.995
178.110	18.417	939.154	719.564
179.125	18.423	938.483	719.010
180.140	18.682	937.284	719.112
181.154	18.639	936.495	718.265
182.169	18.766	936.306	718.585
183.183	18.835	935.689	718.337
184.198	18.939	935.340	718.439
185.213	19.059	934.590	718.301
186.227	18.949	934.120	717.419
187.242	18.994	933.365	716.963
188.256	19.067	932.696	716.689
189.271	19.133	932.343	716.629
190.286	19.307	931.291	716.483
191.300	19.100	930.297	714.794
192.315	18.668	929.064	711.991
193.329	18.317	928.455	710.005
194.344	18.491	927.619	710.026
195.359	18.588	927.453	710.238
196.373	18.681	927.136	710.314
197.388	18.830	926.625	710.479
198.402	18.991	926.267	710.806
199.417	19.250	925.673	711.354
200.432	19.311	925.632	711.515
201.446	19.434	924.937	711.426
202.461	19.538	924.597	711.529
203.475	19.587	924.329	711.460
204.490	19.625	923.276	710.743
205.504	19.352	922.262	708.776
206.519	19.211	921.183	707.307
207.534	19.115	920.660	706.450
208.548	19.120	919.758	705.714
209.563	19.173	919.484	705.658
210.577	19.088	918.466	704.468
211.592	19.273	917.622	704.514
212.607	19.308	917.949	704.846
213.621	19.489	917.302	705.024
214.636	19.404	916.400	703.925
215.650	19.376	915.583	703.122
216.665	19.348	915.063	702.546
217.680	19.540	914.854	703.102
218.694	19.432	914.780	702.546
219.709	19.580	914.136	702.593
220.723	19.520	913.085	701.477
221.738	19.535	912.723	701.196
222.753	19.381	911.945	699.912
223.767	19.372	910.837	698.962
224.782	19.517	909.951	698.811
225.796	19.654	909.291	698.796
226.811	19.743	908.936	698.819
227.826	19.693	907.824	697.703
228.840	19.536	907.317	696.617
229.855	19.473	906.388	695.587
230.869	19.533	905.362	694.979
231.884	19.515	905.081	694.630
232.899	19.470	904.260	693.756
233.913	19.322	903.336	692.395
234.928	19.241	903.163	691.874
235.942	19.118	902.542	690.842
236.957	19.212	901.458	690.330
237.972	19.213	900.747	689.730
238.986	19.218	900.114	689.201
240.001	19.209	899.669	688.763
241.015	19.364	898.815	688.669
242.030	19.473	897.748	688.224
243.045	19.492	897.578	688.110
244.059	19.445	897.298	687.648
245.074	19.428	896.408	686.836
246.088	19.565	895.869	686.908
247.103	19.614	895.616	686.846
248.117	19.673	895.042	686.579
249.132	19.761	894.659	686.575
250.147	20.033	894.482	687.458
251.161	20.098	893.816	687.143
252.176	20.461	892.819	687.756
253.190	20.437	892.316	687.211
254.205	20.443	891.684	686.685
255.220	20.381	891.350	686.125
256.234	20.414	890.755	685.736
257.249	20.347	890.140	684.936
258.263	20.212	889.865	684.133
259.278	20.367	888.768	683.841
260.293	20.252	888.407	683.047
261.307	20.454	887.721	683.253
262.322	20.531	887.367	683.224
263.336	20.702	886.341	683.047
264.351	20.609	885.999	682.358
265.366	20.557	885.730	681.886
266.380	20.575	885.090	681.402
267.395	20.434	884.656	680.457
268.409	20.476	883.270	679.493
269.424	20.339	882.652	678.421
270.439	20.419	881.908	678.103
271.453	20.508	881.131	677.793
272.468	20.193	880.438	675.971
273.482	20.267	879.698	675.631
274.497	20.171	879.369	674.947
275.512	20.155	878.593	674.228
276.526	20.295	877.293	673.717
277.541	20.104	877.227	672.865
278.555	20.271	876.411	672.825
279.570	20.349	876.058	672.796
280.585	20.611	875.756	673.522
281.599	20.638	875.640	673.477
282.614	20.601	874.014	672.022
283.628	20.438	873.910	671.256
284.643	20.374	873.488	670.625
285.657	20.363	872.786	669.981
286.672	20.449	872.207	669.811
287.687	20.275	871.645	668.648
288.701	20.437	871.321	668.965
289.716	20.378	870.691	668.195
290.730	20.500	869.778	667.906
291.745	20.530	869.333	667.620
292.760	20.508	868.298	666.679
293.774	20.622	867.892	666.746
294.789	20.806	867.557	667.136
295.803	20.717	867.173	666.441
296.818	20.553	866.190	665.000
297.833	20.514	865.584	664.327
298.847	20.619	864.780	664.051
299.862	20.525	863.939	662.989
300.876	20.650	863.409	662.999
301.891	20.695	862.846	662.678
302.906	20.757	862.489	662.582
303.920	20.922	861.970	662.752
304.935	21.035	861.364	662.656
305.949	20.965	861.295	662.280
306.964	21.101	860.458	662.092
307.979	20.895	859.138	660.239
308.993	20.767	859.208	659.748
310.008	20.920	858.555	659.769
311.022	20.935	858.242	659.527
312.037	21.153	857.242	659.523
313.052	20.739	856.874	657.618
314.066	20.687	856.173	656.825
315.081	20.578	855.280	655.670
316.095	20.504	854.602	654.815
317.110	20.567	854.020	654.547
318.125	20.636	853.457	654.318
319.139	20.575	853.277	653.893
320.154	20.507	853.081	653.430
321.168	20.546	852.095	652.761
322.183	20.608	851.278	652.311
323.197	20.592	851.150	652.098
324.212	20.681	850.674	652.008
325.227	20.708	850.011	651.543
326.241	20.829	849.463	651.518
327.256	20.735	848.802	650.601
328.270	20.775	848.098	650.155
329.285	20.696	847.666	649.468
330.300	20.633	847.315	648.910
331.314	20.753	845.979	648.275
332.329	20.729	845.654	647.880
333.343	20.820	845.413	647.975
334.358	20.934	845.161	648.149
335.373	20.918	844.318	647.388
336.387	20.845	844.073	646.871
337.402	21.049	843.678	647.268
338.416	21.214	842.553	646.959
339.431	21.188	842.451	646.727
340.446	21.272	842.016	646.645
341.460	21.462	841.552	646.937
342.475	21.540	840.815	646.598
343.489	21.480	840.106	645.776
344.504	21.648	839.555	645.916
345.519	21.631	838.890	645.283
346.533	21.600	838.790	645.035
347.548	21.615	838.448	644.770
348.562	21.390	837.531	643.182
349.577	21.270	836.466	641.864
350.592	21.087	835.911	640.709
351.606	20.985	835.697	640.114
352.621	21.002	835.086	639.654
353.635	21.202	834.180	639.636
354.650	21.154	834.201	639.417
355.665	21.215	833.743	639.234
356.679	21.172	833.586	638.900
357.694	21.294	832.983	638.826
358.708	21.425	832.228	638.671
359.723	21.175	831.868	637.423
360.738	21.216	831.269	637.058
361.752	21.385	830.932	637.360
362.767	21.336	830.645	636.904
363.781	21.439	830.313	636.971
364.796	21.709	829.797	637.501
365.810	21.736	829.479	637.297
366.825	21.930	829.352	637.849
367.840	21.969	828.906	637.590
368.854	21.907	828.489	636.989
369.869	21.777	827.879	635.990
370.883	21.737	827.162	635.239
371.898	21.637	826.483	634.299
372.913	21.793	826.269	634.646
373.927	21.745	825.766	634.026
374.942	21.750	824.724	633.188
375.956	21.874	824.136	633.131
376.971	21.832	823.707	632.594
377.986	22.146	823.040	633.155
379.000	22.098	822.605	632.592
380.015	22.109	822.215	632.275
381.029	22.072	821.719	631.705
382.044	22.056	821.124	631.134
383.059	22.052	820.264	630.402
384.073	22.120	819.787	630.225
385.088	22.166	819.105	629.812
386.102	21.781	818.918	628.231
387.117	21.726	817.875	627.179
388.132	21.657	817.564	626.638
389.146	21.739	817.157	626.563
390.161	21.740	816.443	625.966
391.175	21.921	816.378	626.504
392.190	21.987	816.191	626.542
393.205	21.898	815.935	625.972
394.219	21.919	814.761	625.092
395.234	21.798	814.602	624.482
396.248	21.883	813.703	624.040
397.263	21.658	812.945	622.606
398.278	21.515	812.864	621.981
399.292	21.607	812.059	621.635
400.307	21.535	811.582	620.959
401.321	21.618	811.526	621.155
402.336	21.547	811.166	620.574
403.350	21.778	810.768	621.034
404.365	21.822	810.548	620.963
405.380	21.991	809.957	621.057
406.394	22.138	809.788	621.389
407.409	22.341	809.098	621.525
408.423	22.301	808.723	621.041
409.438	22.325	808.633	620.999
410.453	22.323	808.087	620.518
411.467	22.630	807.319	620.955
412.482	22.454	806.842	619.912
413.496	22.535	806.584	619.946
414.511	22.587	806.721	620.181
415.526	22.634	805.811	619.589
416.540	22.484	805.496	618.768
417.555	22.329	804.985	617.776
418.569	22.278	804.523	617.187
419.584	22.360	804.275	617.229
420.599	22.428	803.749	617.008
421.613	159.738	1369.088	1789.905
422.628	138.794	1451.461	1790.009
