DTS Sentinel unit serial number:	SN413079Multiplexer serial number:	ORYXHardware model number:	OX4-SRSoftware version number:	ORYX F/W v4.00 Oryx Data Collector v3.7.2.0data status	okinstallation	princeton_trtdifferential loss correction	single-endedforward channel	channel 3reverse channel	N/Adate	2019/09/11time	06:26:11forward acquisition time	60.00reverse acquisition time	0.00gamma	496.2192k internal	0.2330k external	0.2330temperature offset calibration	0.9907default loss term (dB/km)	0.3790temperature slope calibration	1.0000multiplexer offset coefficient	1.0000multiplexer slope coefficient	1.0000fibre end	0.00T internal ref (°C)	29.56T ext. ref 1 (°C)	-0.21T ext. ref 2 (°C)	24.09length (m)	temperature (°C)	Stokes	anti-Stokes-747.200	35.936	-0.143	0.127
-746.185	43.749	-0.297	0.273
-745.171	-177.104	-0.211	0.005
-744.156	479.150	-0.089	0.202
-743.142	-74.549	0.164	0.060
-742.127	-64.335	0.069	-0.028
-741.112	800.000	0.035	0.136
-740.098	26.312	-0.191	0.161
-739.083	111.080	-0.082	-0.099
-738.069	-90.608	-0.209	-0.061
-737.054	-77.799	-0.395	-0.138
-736.039	-150.635	0.411	0.032
-735.025	-122.147	-0.285	0.047
-734.010	-86.479	0.087	-0.027
-732.996	291.895	0.061	-0.112
-731.981	-82.015	-0.032	-0.010
-730.966	-4.529	0.264	-0.184
-729.952	-22.945	0.210	-0.128
-728.937	-65.761	-0.285	-0.115
-727.923	-75.746	-0.103	0.037
-726.908	-200.000	-0.009	-0.066
-725.894	490.788	0.159	0.367
-724.879	-12.874	-0.228	0.149
-723.864	-133.660	-0.240	-0.030
-722.850	800.000	0.076	-0.267
-721.835	-80.215	-0.104	-0.035
-720.821	-200.000	-0.012	-0.157
-719.806	-200.000	-0.032	0.187
-718.791	-128.840	0.196	0.028
-717.777	-200.000	-0.011	-0.083
-716.762	-200.000	0.025	-0.115
-715.748	-80.460	0.089	0.030
-714.733	-82.014	-0.221	-0.073
-713.718	-109.984	0.221	-0.046
-712.704	-43.865	0.057	0.029
-711.689	101.658	-0.090	0.105
-710.675	-161.491	0.121	-0.006
-709.660	117.777	-0.152	0.188
-708.645	-138.048	-0.090	0.010
-707.631	-154.272	0.166	0.011
-706.616	-142.417	-0.030	-0.003
-705.602	-111.469	-0.316	0.065
-704.587	-85.873	-0.179	0.056
-703.572	-186.873	-0.171	-0.002
-702.558	-200.000	-0.333	0.001
-701.543	-59.104	-0.072	-0.031
-700.529	675.773	-0.073	-0.192
-699.514	-200.000	-0.019	-0.225
-698.499	-200.000	-0.001	0.219
-697.485	-200.000	0.006	-0.249
-696.470	-8.301	-0.178	0.121
-695.456	49.385	-0.264	-0.250
-694.441	-200.000	-0.024	-0.271
-693.426	124.140	0.172	-0.217
-692.412	-43.894	-0.104	0.052
-691.397	-200.000	0.011	0.072
-690.383	-62.427	-0.213	0.089
-689.368	51.809	-0.085	-0.082
-688.354	-83.970	0.145	-0.046
-687.339	800.000	-0.177	0.539
-686.324	45.154	0.064	-0.059
-685.310	355.335	-0.106	0.212
-684.295	209.699	0.068	0.107
-683.281	243.365	0.048	-0.081
-682.266	-200.000	0.005	-0.107
-681.251	-104.277	0.312	-0.073
-680.237	23.476	0.159	-0.132
-679.222	-125.843	-0.404	-0.061
-678.208	21.287	-0.087	0.071
-677.193	-91.549	0.196	-0.056
-676.178	28.435	0.148	0.126
-675.164	-200.000	-0.005	0.053
-674.149	-200.000	0.038	0.321
-673.135	-200.000	0.017	-0.089
-672.120	-200.000	0.041	-0.195
-671.105	-123.507	-0.390	-0.062
-670.091	73.920	0.061	0.064
-669.076	-200.000	0.001	-0.012
-668.062	253.460	-0.193	-0.331
-667.047	-200.000	-0.005	-0.174
-666.032	800.000	-0.108	0.397
-665.018	539.541	-0.084	0.201
-664.003	152.751	0.049	0.068
-662.989	-26.669	0.281	-0.165
-661.974	-200.000	0.079	-0.360
-660.959	-121.445	-0.296	-0.049
-659.945	-101.812	-0.251	-0.061
-658.930	-82.970	0.223	-0.072
-657.916	-5.999	0.133	-0.091
-656.901	-200.000	-0.004	0.096
-655.886	-0.531	-0.259	-0.185
-654.872	-146.497	0.198	0.017
-653.857	-200.000	0.305	-0.001
-652.843	-137.568	0.162	0.018
-651.828	324.029	-0.039	0.074
-650.814	-115.562	-0.253	-0.048
-649.799	9.537	-0.305	-0.232
-648.784	-114.911	-0.279	0.053
-647.770	11.626	0.175	0.135
-646.755	-184.633	-0.154	0.002
-645.741	23.484	-0.164	-0.135
-644.726	-70.149	-0.068	0.026
-643.711	-9.050	0.145	-0.097
-642.697	-88.780	-0.077	0.023
-641.682	-72.874	-0.169	0.062
-640.668	-200.000	0.016	-0.104
-639.653	-100.373	-0.153	0.038
-638.638	-41.747	0.081	0.042
-637.624	-146.860	-0.256	0.022
-636.609	186.112	-0.067	-0.100
-635.595	389.068	-0.012	-0.025
-634.580	-125.259	-0.214	0.033
-633.565	95.595	0.170	0.195
-632.551	287.870	0.121	0.220
-631.536	800.000	0.105	-0.390
-630.522	-42.934	0.144	0.073
-629.507	215.566	0.148	-0.235
-628.492	-200.000	-0.052	-0.260
-627.478	30.458	-0.150	-0.128
-626.463	81.925	-0.034	-0.037
-625.449	-54.922	0.396	-0.179
-624.434	-25.831	-0.388	-0.229
-623.419	-159.884	-0.411	-0.023
-622.405	310.583	0.214	0.402
-621.390	393.224	0.041	0.086
-620.376	-200.000	0.015	0.080
-619.361	246.272	-0.077	0.130
-618.346	-200.000	0.035	0.281
-617.332	26.227	0.019	0.016
-616.317	772.668	0.048	-0.132
-615.303	-161.208	-0.463	0.024
-614.288	302.525	-0.078	-0.144
-613.273	-147.977	0.179	0.015
-612.259	218.622	0.195	-0.311
-611.244	-200.000	-0.024	0.171
-610.230	800.000	0.037	0.140
-609.215	356.454	0.073	0.145
-608.201	41.720	0.049	-0.044
-607.186	576.084	-0.165	-0.403
-606.171	-140.568	0.159	-0.016
-605.157	-200.000	-0.023	-0.369
-604.142	62.116	-0.259	-0.258
-603.128	-200.000	-0.018	-0.165
-602.113	-125.517	0.097	-0.015
-601.098	-200.000	0.014	-0.220
-600.084	185.372	-0.009	0.014
-599.069	-40.042	0.295	-0.154
-598.055	-100.584	-0.155	0.038
-597.040	-48.623	-0.207	-0.100
-596.025	-53.151	0.348	-0.160
-595.011	-72.226	-0.078	-0.029
-593.996	51.850	-0.126	-0.120
-592.982	75.847	0.234	0.248
-591.967	56.187	-0.083	0.080
-590.952	77.414	0.107	0.114
-589.938	-178.804	-0.170	-0.004
-588.923	230.579	0.043	0.071
-587.909	-137.198	-0.213	0.024
-586.894	144.710	-0.136	0.182
-585.879	64.068	0.187	0.188
-584.865	103.161	-0.098	0.115
-583.850	-74.963	0.045	0.016
-582.836	800.000	-0.062	0.179
-581.821	436.127	0.080	0.174
-580.806	312.200	-0.137	0.258
-579.792	-165.704	-0.220	-0.010
-578.777	264.596	-0.163	0.284
-577.763	-37.073	-0.185	-0.099
-576.748	-25.222	0.277	-0.164
-575.733	-56.970	0.223	0.098
-574.719	-57.418	-0.094	-0.041
-573.704	-190.067	0.237	0.003
-572.690	-35.523	-0.326	0.177
-571.675	-53.438	0.254	-0.116
-570.661	187.409	0.125	-0.187
-569.646	-175.222	0.139	0.004
-568.631	-13.213	0.154	0.100
-567.617	14.901	-0.196	-0.153
-566.602	-200.000	0.011	-0.062
-565.588	-149.533	-0.270	-0.021
-564.573	15.656	0.206	-0.162
-563.558	-29.274	0.188	0.108
-562.544	51.866	-0.183	-0.174
-561.529	-47.627	-0.285	0.138
-560.515	-200.000	-0.014	0.134
-559.500	-185.770	-0.220	-0.003
-558.485	-186.404	0.405	-0.006
-557.471	-50.953	0.187	-0.088
-556.456	800.000	-0.030	0.095
-555.442	-200.000	0.017	-0.237
-554.427	125.644	-0.088	-0.111
-553.412	-88.343	-0.288	0.086
-552.398	-200.000	-0.009	-0.171
-551.383	92.916	-0.086	0.097
-550.369	-94.351	-0.384	0.105
-549.354	-200.000	-0.015	0.091
-548.339	-155.924	0.373	0.024
-547.325	-59.537	0.179	0.077
-546.310	309.480	-0.191	-0.356
-545.296	27.520	0.219	-0.184
-544.281	-70.512	-0.091	0.034
-543.266	-195.067	-0.374	-0.003
-542.252	-50.916	0.197	-0.093
-541.237	-131.289	0.172	-0.023
-540.223	88.528	-0.108	-0.120
-539.208	65.311	0.096	-0.097
-538.193	-16.493	-0.064	-0.040
-537.179	229.055	-0.118	-0.193
-536.164	31.337	0.192	0.165
-535.150	-81.965	0.159	-0.052
-534.135	426.647	0.043	0.093
-533.121	-106.184	-0.134	-0.030
-532.106	800.000	-0.043	0.145
-531.091	-200.000	-0.056	-0.521
-530.077	139.540	0.230	-0.303
-529.062	-94.921	-0.019	-0.005
-528.048	-117.602	-0.100	-0.018
-527.033	297.627	0.104	0.190
-526.018	-200.000	0.040	-0.305
-525.004	-200.000	-0.051	0.380
-523.989	394.618	0.245	0.510
-522.975	178.865	0.138	0.201
-521.960	-120.493	-0.186	-0.031
-520.945	176.212	0.166	0.241
-519.931	45.634	-0.264	-0.244
-518.916	14.700	-0.077	-0.060
-517.902	204.810	-0.203	-0.315
-516.887	35.217	-0.268	-0.234
-515.872	-46.200	-0.038	-0.019
-514.858	-99.959	-0.280	-0.070
-513.843	-9.867	-0.135	-0.090
-512.829	309.340	0.118	-0.219
-511.814	-102.267	-0.079	-0.019
-510.799	-76.377	0.259	-0.091
-509.785	-114.087	-0.464	0.090
-508.770	651.602	0.070	-0.178
-507.756	800.000	0.025	0.088
-506.741	-49.610	0.229	0.109
-505.726	0.330	0.102	0.072
-504.712	-155.285	0.304	-0.020
-503.697	800.000	0.047	0.201
-502.683	-62.009	-0.293	-0.122
-501.668	800.000	0.071	0.198
-500.653	-44.268	0.206	-0.103
-499.639	-16.112	-0.218	-0.138
-498.624	335.629	-0.064	-0.125
-497.610	94.022	0.231	0.261
-496.595	-141.905	0.092	0.009
-495.581	111.479	0.151	-0.182
-494.566	-165.223	-0.284	-0.012
-493.551	125.215	-0.149	0.187
-492.537	198.451	0.143	0.219
-491.522	-80.556	0.067	0.022
-490.508	525.860	0.090	0.212
-489.493	25.140	-0.209	-0.173
-488.478	468.651	0.046	0.103
-487.464	67.133	-0.085	-0.086
-486.449	327.429	-0.073	-0.140
-485.435	359.712	-0.089	-0.178
-484.420	-200.000	-0.006	0.057
-483.405	89.117	0.056	0.063
-482.391	-41.720	-0.280	-0.143
-481.376	16.297	-0.268	-0.211
-480.362	182.392	0.149	0.218
-479.347	-200.000	0.023	0.383
-478.332	-37.791	-0.221	0.117
-477.318	800.000	-0.042	-0.177
-476.303	92.508	-0.099	0.111
-475.289	-38.306	0.097	-0.051
-474.274	-78.432	-0.184	0.063
-473.259	236.322	0.053	0.087
-472.245	-12.541	-0.097	-0.063
-471.230	-79.211	-0.288	0.097
-470.216	114.868	-0.116	-0.141
-469.201	122.540	0.276	-0.343
-468.186	-200.000	-0.025	0.290
-467.172	-200.000	0.095	0.507
-466.157	-200.000	0.052	0.263
-465.143	-26.980	0.238	0.139
-464.128	-200.000	-0.017	0.085
-463.113	270.316	-0.112	-0.197
-462.099	242.378	-0.132	-0.221
-461.084	-91.948	-0.140	-0.040
-460.070	800.000	-0.071	0.212
-459.055	258.420	0.203	-0.347
-458.040	238.710	0.026	-0.043
-457.026	-78.460	-0.163	0.056
-456.011	41.428	-0.156	-0.140
-454.997	131.402	0.188	0.241
-453.982	-200.000	-0.037	0.384
-452.968	-200.000	-0.029	-0.212
-451.953	-200.000	0.002	-0.017
-450.938	203.697	-0.067	0.103
-449.924	674.783	-0.054	0.140
-448.909	68.280	-0.085	-0.087
-447.895	8.637	0.075	-0.056
-446.880	317.122	0.156	-0.294
-445.865	453.690	0.103	-0.227
-444.851	563.682	0.098	-0.236
-443.836	-85.095	-0.254	0.079
-442.822	-64.672	-0.062	0.025
-441.807	18.479	0.039	-0.031
-440.792	70.873	0.160	0.165
-439.778	-200.000	-0.019	0.132
-438.763	-200.000	0.014	-0.100
-437.749	-186.044	-0.100	0.001
-436.734	181.734	-0.106	0.156
-435.719	-121.962	0.252	0.041
-434.705	345.257	0.093	-0.181
-433.690	-182.343	-0.130	-0.002
-432.676	-56.275	-0.188	0.083
-431.661	-200.000	0.004	-0.218
-430.646	-200.000	0.015	0.280
-429.632	-29.921	0.221	-0.125
-428.617	-100.119	0.237	-0.059
-427.603	334.852	0.033	0.063
-426.588	77.910	0.186	-0.197
-425.573	800.000	0.032	0.117
-424.559	-75.627	0.164	0.058
-423.544	39.351	-0.326	-0.290
-422.530	-44.322	0.177	0.088
-421.515	172.674	0.134	0.192
-420.500	800.000	-0.110	0.332
-419.486	-200.000	-0.012	-0.198
-418.471	-55.889	0.180	-0.080
-417.457	-124.873	0.166	0.025
-416.442	402.989	0.171	0.358
-415.428	-152.015	-0.095	-0.007
-414.413	-91.678	-0.414	0.117
-413.398	442.517	0.112	0.244
-412.384	24.705	0.186	0.153
-411.369	800.000	0.070	0.255
-410.355	-90.332	0.109	-0.031
-409.340	-187.617	0.284	-0.004
-408.325	468.396	-0.055	-0.123
-407.311	-117.742	-0.138	0.025
-406.296	371.377	-0.104	-0.210
-405.282	800.000	-0.075	-0.303
-404.267	-200.000	-0.036	0.202
-403.252	-85.154	-0.215	-0.067
-402.238	364.611	0.058	0.116
-401.223	-86.692	0.093	0.028
-400.209	-200.000	-0.048	0.256
-399.194	-100.452	-0.066	0.016
-398.179	639.534	-0.079	-0.199
-397.165	-126.452	0.102	-0.015
-396.150	-65.735	-0.190	-0.076
-395.136	150.688	0.065	0.087
-394.121	-1.406	-0.111	-0.078
-393.106	66.742	0.092	-0.093
-392.092	-200.000	-0.029	-0.305
-391.077	60.068	-0.181	0.177
-390.063	800.000	0.071	-0.295
-389.048	189.975	0.136	0.203
-388.033	9.559	-0.114	0.086
-387.019	-76.611	-0.161	-0.056
-386.004	98.576	-0.093	0.106
-384.990	-105.197	-0.154	0.035
-383.975	17.187	-0.262	0.206
-382.960	800.000	0.106	-0.292
-381.946	-81.108	-0.132	-0.043
-380.931	500.470	0.067	0.153
-379.917	70.896	-0.163	0.168
-378.902	338.090	0.104	0.201
-377.888	48.083	0.227	0.210
-376.873	165.073	-0.235	-0.329
-375.858	441.846	-0.101	0.220
-374.844	-14.048	-0.134	0.086
-373.829	-68.934	-0.280	-0.107
-372.815	-151.888	0.290	-0.021
-371.800	243.530	-0.158	-0.263
-370.785	-165.296	-0.156	0.007
-369.771	52.588	0.159	0.151
-368.756	-156.557	-0.190	-0.012
-367.742	503.256	-0.115	0.265
-366.727	486.358	0.091	-0.205
-365.712	279.830	0.024	0.042
-364.698	97.504	-0.159	0.181
-363.683	-74.289	-0.184	-0.066
-362.669	-85.957	0.304	0.093
-361.654	193.052	-0.108	0.162
-360.639	396.035	0.141	0.291
-359.625	390.614	-0.072	0.147
-358.610	137.506	-0.030	-0.039
-357.596	375.785	-0.091	0.183
-356.581	-66.354	-0.120	0.047
-355.566	-87.481	-0.031	0.009
-354.552	-131.357	0.160	-0.021
-353.537	800.000	0.111	0.321
-352.523	27.307	-0.126	0.105
-351.508	-61.859	-0.072	0.030
-350.493	800.000	0.062	0.260
-349.479	49.312	0.246	0.229
-348.464	-200.000	-0.033	-0.251
-347.450	800.000	0.081	-0.342
-346.435	-120.435	0.139	-0.023
-345.420	661.911	0.090	-0.229
-344.406	-98.192	-0.290	0.074
-343.391	800.000	0.026	0.102
-342.377	800.000	0.027	-0.098
-341.362	459.143	0.199	-0.438
-340.348	-175.302	0.164	-0.004
-339.333	188.088	0.206	0.305
-338.318	514.884	-0.026	-0.061
-337.304	-38.673	-0.280	-0.147
-336.289	-200.000	-0.003	0.019
-335.275	-21.000	0.225	-0.136
-334.260	-200.000	-0.054	-0.347
-333.245	172.197	-0.168	0.239
-332.231	-169.270	-0.240	-0.009
-331.216	-165.154	0.072	-0.003
-330.202	-21.850	0.248	0.149
-329.187	-148.673	0.269	-0.022
-328.172	210.723	0.150	-0.234
-327.158	170.271	0.088	-0.124
-326.143	469.868	0.022	-0.048
-325.129	800.000	0.104	-0.290
-324.114	-43.259	-0.132	0.066
-323.099	55.211	-0.248	0.238
-322.085	206.150	-0.105	-0.162
-321.070	-98.779	0.273	0.069
-320.056	-84.794	0.097	-0.030
-319.041	495.871	0.030	0.068
-318.026	33.195	0.076	-0.065
-317.012	342.613	-0.109	-0.212
-315.997	800.000	0.036	-0.109
-314.983	-78.290	0.072	-0.024
-313.968	-22.966	-0.309	0.184
-312.953	0.381	0.211	-0.150
-311.939	254.150	0.114	-0.193
-310.924	-116.095	0.241	0.044
-309.910	-175.699	-0.194	0.005
-308.895	473.231	-0.091	-0.202
-307.880	105.204	-0.336	0.392
-306.866	800.000	0.062	0.261
-305.851	16.050	-0.085	0.066
-304.837	-44.123	0.246	-0.122
-303.822	800.000	0.031	0.124
-302.807	206.473	0.106	0.163
-301.793	-79.014	0.403	-0.136
-300.778	-200.000	-0.053	-0.264
-299.764	800.000	0.035	-0.145
-298.749	-71.516	-0.091	0.034
-297.735	-44.639	0.204	0.101
-296.720	-25.038	0.382	-0.224
-295.705	-119.364	0.122	-0.021
-294.691	263.507	0.070	0.121
-293.676	171.647	-0.062	0.088
-292.662	-79.882	0.414	-0.138
-291.647	-46.500	0.118	-0.057
-290.632	-107.083	-0.131	0.029
-289.618	-37.828	0.289	-0.152
-288.603	-200.000	0.020	0.187
-287.589	168.582	0.206	-0.290
-286.574	-119.424	-0.122	-0.021
-285.559	-30.754	-0.061	-0.034
-284.545	-78.679	-0.129	-0.044
-283.530	-51.558	-0.015	0.007
-282.516	-89.104	-0.194	-0.057
-281.501	130.339	-0.099	-0.126
-280.486	-117.573	0.153	0.027
-279.472	-106.105	0.292	0.065
-278.457	550.428	0.132	0.314
-277.443	-200.000	-0.045	-0.370
-276.428	1.988	0.174	0.124
-275.413	-200.000	-0.028	0.142
-274.399	-84.537	0.257	-0.080
-273.384	-100.413	0.247	-0.060
-272.370	-24.633	0.221	0.130
-271.355	800.000	0.068	-0.210
-270.340	274.587	0.140	0.246
-269.326	50.489	0.067	-0.062
-268.311	188.660	0.138	-0.204
-267.297	87.837	0.085	-0.093
-266.282	165.554	0.182	-0.254
-265.267	643.224	-0.097	0.245
-264.253	422.459	0.158	0.336
-263.238	47.335	0.164	0.151
-262.224	-59.569	-0.091	-0.039
-261.209	-148.539	0.046	0.004
-260.195	-106.451	-0.164	-0.036
-259.180	72.008	0.226	-0.232
-258.165	-61.871	-0.338	0.140
-257.151	800.000	0.066	-0.203
-256.136	347.998	-0.058	-0.113
-255.122	20.412	-0.137	0.109
-254.107	800.000	0.029	-0.100
-253.092	-200.000	-0.038	-0.203
-252.078	413.510	-0.120	-0.251
-251.063	-60.373	0.328	-0.138
-250.049	-22.232	-0.341	-0.204
-249.034	-152.664	0.092	0.006
-248.019	7.943	-0.158	0.117
-247.005	-33.360	-0.071	0.039
-245.990	61.437	0.206	0.202
-244.976	21.917	-0.031	-0.025
-243.961	-99.243	-0.199	-0.050
-242.946	121.801	0.093	0.115
-241.932	190.238	0.197	0.292
-240.917	-200.000	0.027	-0.122
-239.903	30.859	-0.158	0.133
-238.888	-128.848	0.373	-0.052
-237.873	-200.000	-0.055	0.300
-236.859	-21.586	0.119	0.072
-235.844	-100.907	-0.240	-0.058
-234.830	191.452	0.212	-0.315
-233.815	86.382	0.269	-0.293
-232.800	800.000	-0.033	0.135
-231.786	-140.238	-0.131	-0.014
-230.771	-40.193	0.388	0.199
-229.757	13.948	0.301	0.231
-228.742	-134.079	0.410	-0.050
-227.727	-139.779	0.078	-0.008
-226.713	-141.345	-0.151	0.015
-225.698	398.087	0.021	-0.043
-224.684	137.203	0.009	0.011
-223.669	-4.569	0.082	0.056
-222.655	-156.412	-0.086	0.005
-221.640	-37.626	0.168	-0.089
-220.625	-106.783	-0.194	0.042
-219.611	-45.405	0.223	-0.109
-218.596	21.665	-0.283	-0.227
-217.582	39.985	-0.279	-0.248
-216.567	307.585	0.072	-0.132
-215.552	-92.390	0.241	0.067
-214.538	635.772	-0.125	0.312
-213.523	20.283	0.151	0.120
-212.509	418.133	-0.005	-0.010
-211.494	47.118	0.182	-0.167
-210.479	-200.000	-0.009	-0.366
-209.465	95.149	-0.075	-0.084
-208.450	-47.912	-0.055	0.026
-207.436	-48.079	-0.340	0.162
-206.421	800.000	-0.073	0.287
-205.406	-200.000	-0.023	-0.252
-204.392	-79.671	-0.198	0.066
-203.377	546.891	0.072	-0.169
-202.363	160.544	0.113	0.155
-201.348	800.000	-0.060	-0.215
-200.333	-68.004	-0.307	-0.118
-199.319	268.917	-0.128	-0.222
-198.304	413.577	0.122	0.257
-197.290	800.000	-0.057	-0.187
-196.275	-126.707	-0.209	-0.030
-195.260	800.000	0.030	0.115
-194.246	201.233	0.109	0.166
-193.231	-72.133	0.185	0.068
-192.217	206.520	-0.131	-0.202
-191.202	108.321	-0.291	-0.342
-190.187	48.448	0.197	0.182
-189.173	786.399	0.081	0.220
-188.158	-200.000	-0.047	-0.387
-187.144	519.141	0.127	-0.294
-186.129	45.918	-0.086	0.079
-185.114	-200.000	-0.036	0.264
-184.100	587.994	-0.078	0.190
-183.085	-16.060	-0.285	0.179
-182.071	-200.000	0.015	0.268
-181.056	-60.843	0.222	-0.092
-180.042	-77.355	0.066	-0.023
-179.027	516.447	0.051	0.118
-178.012	-145.468	0.203	-0.018
-176.998	-200.000	-0.004	0.197
-175.983	-200.000	-0.004	0.128
-174.969	-24.905	-0.195	0.114
-173.954	-121.373	0.320	0.052
-172.939	-200.000	-0.015	-0.079
-171.925	800.000	0.026	-0.089
-170.910	208.191	-0.147	0.227
-169.896	-200.000	-0.004	0.394
-168.881	120.779	-0.123	0.151
-167.866	-41.377	-0.299	0.152
-166.852	-143.592	0.193	0.018
-165.837	-188.766	0.101	-0.001
-164.823	800.000	-0.053	0.159
-163.808	685.953	-0.089	0.228
-162.793	79.290	0.061	0.065
-161.779	-156.782	-0.300	0.018
-160.764	-108.501	0.156	-0.033
-159.750	623.124	-0.128	-0.318
-158.735	-170.631	0.175	-0.006
-157.720	468.345	-0.034	0.075
-156.706	-200.000	-0.080	0.588
-155.691	27.979	-0.243	0.201
-154.677	-55.838	-0.231	-0.101
-153.662	-131.032	-0.059	-0.008
-152.647	-200.000	-0.043	-0.226
-151.633	144.976	-0.034	-0.045
-150.618	800.000	-0.077	-0.316
-149.604	-105.753	0.147	-0.033
-148.589	-79.567	-0.290	-0.096
-147.574	-31.332	-0.316	-0.175
-146.560	145.930	0.094	-0.125
-145.545	-12.633	-0.138	-0.089
-144.531	-200.000	0.067	-0.452
-143.516	-162.755	0.326	0.016
-142.502	108.353	-0.167	0.195
-141.487	276.241	0.070	-0.122
-140.472	182.093	-0.076	-0.110
-139.458	84.110	0.038	0.041
-138.443	164.741	0.192	-0.266
-137.429	18.438	0.073	-0.057
-136.414	310.367	0.136	-0.250
-135.399	-61.060	0.100	-0.041
-134.385	-82.173	-0.332	-0.107
-133.370	150.715	0.157	-0.210
-132.356	-200.000	0.014	0.084
-131.341	-161.205	0.107	0.005
-130.326	415.281	-0.144	-0.303
-129.312	-154.970	-0.330	0.021
-128.297	-147.905	-0.245	-0.020
-127.283	-133.751	0.068	-0.008
-126.268	98.564	-0.094	-0.106
-125.253	-200.000	0.001	-0.092
-124.239	-200.000	0.041	-0.266
-123.224	-118.260	-0.333	-0.058
-122.210	145.685	0.171	-0.226
-121.195	-200.000	-0.014	0.242
-120.180	94.363	0.048	0.054
-119.166	289.120	0.043	-0.076
-118.151	421.145	0.117	0.246
-117.137	-200.000	0.047	-0.215
-116.122	-115.574	-0.293	-0.054
-115.107	340.580	-0.099	-0.189
-114.093	-200.000	-0.052	-0.317
-113.078	133.629	-0.245	-0.311
-112.064	-57.019	0.204	-0.088
-111.049	341.404	0.194	0.372
-110.034	65.040	-0.306	0.304
-109.020	200.413	-0.100	0.151
-108.005	-78.488	-0.294	-0.099
-106.991	-200.000	-0.009	-0.057
-105.976	108.003	0.096	0.112
-104.962	-200.000	-0.033	-0.411
-103.947	-65.782	-0.137	-0.054
-102.932	194.689	-0.028	-0.042
-101.918	264.066	-0.191	-0.327
-100.903	-28.919	-0.042	-0.023
-99.889	393.355	0.162	-0.330
-98.874	390.959	-0.086	0.176
-97.859	32.841	0.040	-0.034
-96.845	108.611	-0.371	0.435
-95.830	-200.000	0.023	0.142
-94.816	-153.401	-0.343	0.023
-93.801	128.284	-0.130	-0.163
-92.786	-200.000	-0.016	0.242
-91.772	200.208	-0.236	0.356
-90.757	328.631	0.160	-0.302
-89.743	-82.524	0.303	0.097
-88.728	-153.008	0.208	-0.014
-87.713	59.308	-0.221	-0.213
-86.699	-200.000	0.034	0.289
-85.684	-200.000	0.018	-0.177
-84.670	123.372	-0.109	0.134
-83.655	-35.111	-0.140	-0.075
-82.640	101.361	0.025	-0.028
-81.626	36.807	-0.226	0.196
-80.611	-200.000	-0.014	-0.160
-79.597	201.299	0.316	-0.478
-78.582	-200.000	0.003	0.016
-77.567	-47.362	0.090	-0.043
-76.553	-142.654	-0.229	0.022
-75.538	171.839	-0.076	0.107
-74.524	-96.606	0.231	-0.060
-73.509	-117.459	0.055	-0.010
-72.494	-148.531	-0.226	-0.018
-71.480	-5.539	-0.449	0.302
-70.465	-200.000	0.013	0.280
-69.451	403.132	-0.111	0.228
-68.436	-200.000	-0.015	0.214
-67.422	800.000	-0.061	0.223
-66.407	-200.000	0.034	-0.283
-65.392	-111.630	-0.089	-0.018
-64.378	-96.293	-0.264	-0.069
-63.363	-5.469	0.249	0.168
-62.349	-41.165	-0.116	0.059
-61.334	105.331	-1.246	-1.443
-60.319	-51.996	0.672	0.306
-59.305	690.178	-0.376	-0.965
-58.290	332.514	0.556	1.052
-57.276	395.105	0.700	1.431
-56.261	-200.000	105.413	607.558
-55.246	499.168	1504.541	3398.275
-54.232	176.384	2700.146	3844.712
-53.217	110.511	2187.140	2576.472
-52.203	40.210	1703.439	1501.209
-51.188	32.650	1512.446	1281.672
-50.173	30.438	1485.270	1243.794
-49.159	51.071	1541.534	1432.369
-48.144	51.688	1557.747	1451.589
-47.130	32.956	1513.614	1284.539
-46.115	29.911	1499.169	1251.676
-45.100	29.711	1495.368	1247.101
-44.086	29.698	1493.078	1245.053
-43.071	29.616	1490.980	1242.703
-42.057	29.518	1489.463	1240.735
-41.042	29.587	1488.291	1240.170
-40.027	29.604	1486.897	1239.071
-39.013	29.528	1485.170	1237.077
-37.998	29.464	1484.044	1235.657
-36.984	29.550	1482.916	1235.245
-35.969	29.517	1481.651	1233.927
-34.954	29.508	1480.399	1232.770
-33.940	29.568	1478.175	1231.271
-32.925	29.662	1477.146	1230.990
-31.911	29.692	1475.541	1229.805
-30.896	29.530	1475.075	1228.292
-29.881	29.666	1473.246	1227.621
-28.867	29.549	1472.448	1226.133
-27.852	29.712	1470.566	1225.598
-26.838	29.627	1468.966	1223.653
-25.823	29.646	1467.774	1222.737
-24.809	29.661	1465.982	1221.291
-23.794	29.669	1464.686	1220.217
-22.779	29.614	1463.341	1218.684
-21.765	29.565	1462.800	1217.861
-20.750	29.526	1462.210	1217.066
-19.736	29.589	1460.511	1216.021
-18.721	29.586	1459.213	1214.872
-17.706	29.558	1458.271	1213.855
-16.692	29.587	1457.407	1213.278
-15.677	29.574	1455.876	1211.868
-14.663	29.569	1454.841	1210.925
-13.648	29.516	1454.020	1209.846
-12.633	29.514	1452.725	1208.713
-11.619	29.505	1452.733	1208.608
-10.604	29.510	1451.723	1207.756
-9.590	29.452	1451.007	1206.731
-8.575	29.608	1449.957	1206.831
-7.560	29.503	1449.003	1205.302
-6.546	29.524	1448.114	1204.653
-5.531	29.501	1447.672	1204.085
-4.517	29.541	1446.384	1203.226
-3.502	29.493	1445.240	1201.918
-2.487	29.568	1444.360	1201.627
-1.473	29.498	1443.358	1200.284
-0.458	29.463	1442.099	1198.969
0.556	27.261	1432.341	1189.450
1.571	24.386	1407.934	1150.570
2.586	21.284	1350.049	1083.955
3.600	19.847	1270.291	1011.430
4.615	18.563	1225.708	968.597
5.629	16.467	1170.711	913.735
6.644	8.340	1087.150	807.494
7.659	1.142	1046.759	742.279
8.673	-0.024	1040.883	732.370
9.688	-0.289	1037.748	728.814
10.702	-0.371	1036.459	727.443
11.717	-0.166	1033.390	726.220
12.731	3.174	1038.022	745.614
13.746	11.946	1050.108	797.074
14.761	18.734	1058.875	836.853
15.775	20.604	1060.967	847.558
16.790	20.893	1060.724	848.693
17.804	20.756	1060.064	847.425
18.819	20.624	1059.263	846.067
19.834	20.724	1058.349	845.746
20.848	20.848	1057.974	845.976
21.863	20.904	1057.474	845.772
22.877	20.827	1057.124	845.043
23.892	20.854	1055.979	844.184
24.907	20.612	1056.092	843.027
25.921	20.871	1054.659	843.065
26.936	20.861	1054.366	842.708
27.950	20.772	1053.227	841.292
28.965	20.742	1052.021	840.110
29.980	20.657	1050.224	838.188
30.994	20.587	1049.004	836.803
32.009	20.915	1048.065	837.561
33.023	20.936	1047.491	837.129
34.038	20.799	1046.120	835.299
35.053	20.703	1045.294	834.109
36.067	20.865	1044.403	834.097
37.082	20.866	1043.971	833.686
38.096	20.938	1043.228	833.361
39.111	21.022	1042.561	833.157
40.126	21.161	1041.508	832.903
41.140	21.111	1040.037	831.415
42.155	20.699	1038.857	828.437
43.169	20.412	1037.845	826.190
44.184	20.464	1036.932	825.642
45.199	20.548	1035.644	824.940
46.213	20.615	1034.191	824.027
47.228	20.389	1033.784	822.557
48.242	20.558	1032.738	822.455
49.257	20.761	1032.290	822.986
50.271	20.871	1031.330	822.667
51.286	20.963	1030.317	822.218
52.301	20.922	1029.878	821.604
53.315	20.910	1028.877	820.673
54.330	21.061	1027.792	820.446
55.344	20.760	1027.991	819.117
56.359	20.868	1026.592	818.439
57.374	20.798	1026.057	817.608
58.388	20.668	1024.778	815.907
59.403	20.671	1024.029	815.255
60.417	20.610	1023.346	814.352
61.432	20.431	1022.588	812.841
62.447	20.501	1021.565	812.281
63.461	20.583	1020.961	812.110
64.476	20.707	1020.332	812.117
65.490	20.667	1019.475	811.177
66.505	20.589	1018.465	809.938
67.520	20.663	1017.111	809.137
68.534	20.640	1017.148	808.988
69.549	20.663	1015.491	807.703
70.563	20.185	1014.428	804.568
71.578	20.103	1014.219	803.952
72.593	20.303	1012.638	803.554
73.607	20.044	1011.686	801.529
74.622	20.064	1010.708	800.777
75.636	20.278	1010.069	801.189
76.651	20.522	1009.372	801.688
77.666	20.303	1008.435	799.864
78.680	20.447	1007.258	799.523
79.695	20.402	1006.934	798.989
80.709	20.488	1006.777	799.189
81.724	20.636	1005.592	798.857
82.739	20.589	1004.649	797.820
83.753	20.400	1003.941	796.323
84.768	20.723	1003.279	797.205
85.782	20.948	1003.100	798.023
86.797	21.223	1001.577	797.996
87.812	21.086	1001.179	796.986
88.826	20.970	1000.103	795.530
89.841	20.972	999.217	794.764
90.855	21.115	998.361	794.662
91.870	21.141	997.670	794.159
92.884	21.201	996.547	793.470
93.899	20.979	995.714	791.728
94.914	20.855	994.695	790.285
95.928	21.078	993.766	790.488
96.943	21.133	992.825	789.917
97.957	20.712	991.868	787.182
98.972	20.602	990.577	785.591
99.987	20.320	989.723	783.571
101.001	20.431	989.103	783.514
102.016	20.749	988.866	784.690
103.030	20.799	987.650	783.878
104.045	20.809	986.356	782.827
105.060	20.585	985.422	781.013
106.074	20.294	984.069	778.564
107.089	20.481	983.453	778.848
108.103	20.927	983.156	780.541
109.118	20.967	981.904	779.658
110.133	20.761	980.761	777.759
111.147	20.634	979.836	776.390
112.162	20.528	978.852	775.071
113.176	20.443	977.641	773.662
114.191	20.400	977.144	773.009
115.206	20.624	975.894	772.951
116.220	20.176	974.840	770.057
117.235	20.138	973.747	768.958
118.249	20.309	973.337	769.325
119.264	20.396	972.374	768.878
120.279	20.196	971.812	767.480
121.293	20.031	971.188	766.191
122.308	20.414	970.241	767.067
123.322	20.414	969.364	766.308
124.337	20.277	968.395	764.872
125.352	20.238	966.561	763.181
126.366	19.839	965.259	760.330
127.381	19.438	963.764	757.326
128.395	20.062	963.849	760.066
129.410	20.661	963.520	762.366
130.424	20.754	962.625	761.997
131.439	20.753	961.399	760.955
132.454	20.613	960.493	759.561
133.468	20.740	959.588	759.330
134.483	20.628	958.827	758.170
135.497	20.684	957.968	757.671
136.512	21.007	957.052	758.282
137.527	20.939	957.143	757.992
138.541	21.089	955.680	757.418
139.556	21.080	955.240	756.965
140.570	21.003	954.641	756.087
141.585	20.994	953.245	754.878
142.600	20.948	952.611	754.107
143.614	20.917	951.399	752.946
144.629	21.036	950.861	752.968
145.643	21.277	950.039	753.293
146.658	21.054	949.313	751.686
147.673	21.006	947.743	750.172
148.687	20.821	946.858	748.610
149.702	20.871	945.417	747.620
150.716	20.728	944.649	746.333
151.731	20.704	943.929	745.596
152.746	20.838	943.187	745.516
153.760	21.077	942.561	745.979
154.775	21.166	941.675	745.591
155.789	21.328	940.496	745.284
156.804	21.112	939.878	743.806
157.819	21.109	938.979	743.017
158.833	21.011	938.820	742.408
159.848	21.183	937.687	742.178
160.862	21.187	937.334	741.849
161.877	21.150	935.851	740.450
162.892	21.069	934.905	739.296
163.906	21.208	934.036	739.132
164.921	21.092	933.393	738.067
165.935	21.129	931.923	736.995
166.950	21.072	931.145	736.076
167.964	21.248	929.846	735.722
168.979	21.090	929.219	734.498
169.994	21.035	928.075	733.296
171.008	20.921	927.035	731.931
172.023	21.158	926.343	732.314
173.037	21.254	925.488	731.976
174.052	21.154	924.221	730.491
175.067	20.902	923.290	728.637
176.081	20.806	922.815	727.796
177.096	20.905	922.118	727.595
178.110	20.995	921.249	727.221
179.125	20.665	920.307	725.038
180.140	20.527	918.958	723.336
181.154	20.587	918.463	723.131
182.169	20.712	918.013	723.235
183.183	20.969	917.343	723.708
184.198	21.220	917.218	724.589
185.213	21.080	916.452	723.338
186.227	20.957	915.640	722.125
187.242	21.032	915.163	721.992
188.256	21.220	914.401	722.106
189.271	21.072	913.449	720.680
190.286	21.286	912.644	720.863
191.300	20.984	912.109	719.131
192.315	20.641	910.956	716.745
193.329	19.843	909.383	712.163
194.344	19.464	908.126	709.555
195.359	20.037	908.691	712.290
196.373	20.845	908.600	715.478
197.388	20.991	908.673	716.073
198.402	20.979	907.861	715.319
199.417	20.889	907.141	714.319
200.432	20.905	906.581	713.879
201.446	20.800	906.410	713.253
202.461	20.606	905.093	711.360
203.475	20.628	904.586	710.989
204.490	20.176	903.027	707.856
205.504	19.134	900.968	701.933
206.519	19.611	900.976	703.822
207.534	20.490	901.414	707.681
208.548	20.673	900.439	707.601
209.563	20.872	900.690	708.545
210.577	20.979	899.977	708.353
211.592	20.693	899.271	706.574
212.607	21.219	898.862	708.326
213.621	21.255	898.243	707.919
214.636	21.170	897.571	706.985
215.650	21.161	897.384	706.736
216.665	21.046	896.668	705.647
217.680	21.123	896.324	705.624
218.694	21.148	896.011	705.416
219.709	21.043	894.241	703.537
220.723	20.598	893.502	701.099
221.738	20.716	893.428	701.455
222.753	21.127	892.870	702.611
223.767	20.891	892.248	701.109
224.782	21.070	891.250	700.981
225.796	21.256	890.556	701.122
226.811	21.193	890.451	700.722
227.826	20.821	889.491	698.416
228.840	20.080	887.382	693.730
229.855	19.973	886.844	692.819
230.869	20.512	886.272	694.469
231.884	20.014	885.693	691.965
232.899	20.049	885.390	691.803
233.913	20.772	885.735	694.900
234.928	21.130	884.510	695.305
235.942	21.018	883.763	694.209
236.957	20.884	883.608	693.494
237.972	20.644	882.604	691.688
238.986	20.720	881.660	691.191
240.001	20.651	881.071	690.393
241.015	20.642	880.291	689.685
242.030	20.749	879.812	689.671
243.045	21.053	879.717	690.741
244.059	20.908	879.358	689.824
245.074	21.200	878.254	690.050
246.088	21.082	877.793	689.163
247.103	20.841	876.507	687.140
248.117	20.821	876.127	686.704
249.132	21.337	876.086	688.643
250.147	21.506	876.323	689.436
251.161	21.696	875.081	689.145
252.176	21.872	874.812	689.564
253.190	21.856	874.096	688.875
254.205	21.862	873.869	688.659
255.220	22.179	873.118	689.252
256.234	22.049	872.829	688.452
257.249	21.781	872.128	686.789
258.263	21.749	871.485	686.094
259.278	21.712	871.067	685.560
260.293	21.933	870.190	685.672
261.307	21.923	869.860	685.314
262.322	21.874	869.130	684.487
263.336	21.807	868.307	683.516
264.351	21.323	866.577	680.212
265.366	20.094	864.902	674.060
266.380	19.538	864.351	671.407
267.395	20.571	864.615	675.572
268.409	21.490	864.420	678.926
269.424	21.462	863.515	678.047
270.439	21.485	863.185	677.817
271.453	21.713	862.462	678.071
272.468	21.694	861.796	677.413
273.482	21.855	861.783	677.965
274.497	21.957	861.230	677.868
275.512	21.785	859.864	676.066
276.526	21.250	858.710	673.039
277.541	21.325	858.570	673.159
278.555	21.867	858.263	674.944
279.570	21.675	857.066	673.206
280.585	21.459	856.379	671.778
281.599	21.367	856.475	671.441
282.614	21.563	855.795	671.599
283.628	21.233	854.301	669.102
284.643	20.771	853.853	666.924
285.657	21.207	853.594	668.331
286.672	21.126	853.108	667.581
287.687	20.609	851.911	664.612
288.701	20.914	852.122	665.882
289.716	21.297	851.656	666.924
290.730	20.998	850.745	665.009
291.745	20.964	849.879	664.145
292.760	20.837	848.781	662.744
293.774	20.720	848.214	661.799
294.789	21.646	848.814	665.729
295.803	22.103	848.685	667.307
296.818	22.118	848.440	667.110
297.833	22.380	847.754	667.507
298.847	21.983	846.803	665.192
299.862	21.798	845.500	663.414
300.876	21.860	845.339	663.463
301.891	22.158	845.057	664.309
302.906	22.220	844.555	664.089
303.920	21.691	843.473	661.183
304.935	21.760	842.602	660.701
305.949	22.114	842.268	661.715
306.964	22.163	841.909	661.557
307.979	21.968	841.266	660.261
308.993	21.751	841.120	659.274
310.008	22.245	840.751	660.783
311.022	22.357	840.097	660.631
312.037	22.194	839.768	659.700
313.052	21.974	838.894	658.131
314.066	21.945	838.254	657.463
315.081	21.251	836.595	653.507
316.095	20.548	835.413	649.899
317.110	21.130	835.318	651.944
318.125	21.877	835.895	655.124
319.139	21.556	834.783	652.999
320.154	20.417	833.070	647.360
321.168	19.951	832.089	644.804
322.183	20.646	832.575	647.712
323.197	21.394	833.081	650.834
324.212	21.691	832.875	651.720
325.227	21.784	832.291	651.551
326.241	22.012	831.762	651.925
327.256	22.155	830.588	651.477
328.270	21.835	830.300	650.009
329.285	21.837	829.559	649.380
330.300	21.716	828.732	648.226
331.314	21.524	828.046	646.923
332.329	21.625	827.594	646.885
333.343	21.898	826.967	647.347
334.358	22.130	827.254	648.371
335.373	22.075	826.352	647.402
336.387	22.190	826.054	647.534
337.402	22.276	825.931	647.699
338.416	22.473	825.267	647.846
339.431	22.362	824.666	646.909
340.446	22.489	823.796	646.636
341.460	22.646	823.135	646.635
342.475	22.647	822.887	646.387
343.489	22.483	821.995	645.027
344.504	22.529	821.498	644.750
345.519	22.722	820.998	645.007
346.533	22.798	821.064	645.276
347.548	22.767	820.881	644.964
348.562	22.818	820.359	644.684
349.577	22.904	819.493	644.257
350.592	22.916	818.846	643.736
351.606	22.921	818.300	643.270
352.621	22.862	817.795	642.600
353.635	22.765	817.517	641.970
354.650	22.613	817.089	641.025
355.665	22.213	816.336	638.924
356.679	21.187	814.351	633.594
357.694	21.139	814.322	633.342
358.708	21.806	814.145	635.564
359.723	21.797	813.048	634.621
360.738	21.999	812.889	635.171
361.752	22.358	813.207	636.662
362.767	22.566	812.532	636.831
363.781	22.768	812.476	637.461
364.796	23.043	812.146	638.136
365.810	23.152	811.648	638.082
366.825	23.235	811.083	637.880
367.840	23.064	811.286	637.369
368.854	23.009	810.428	636.441
369.869	22.557	809.663	634.154
370.883	22.629	808.745	633.641
371.898	22.730	808.496	633.751
372.913	22.599	807.560	632.491
373.927	22.622	806.802	631.925
374.942	22.744	806.584	632.135
375.956	22.748	806.088	631.704
376.971	22.829	805.583	631.541
377.986	22.872	805.290	631.410
379.000	23.023	804.594	631.348
380.015	23.057	804.322	631.199
381.029	22.973	803.684	630.343
382.044	22.899	803.132	629.593
383.059	23.065	802.574	629.690
384.073	23.157	802.193	629.662
385.088	23.170	801.550	629.150
386.102	23.140	801.068	628.608
387.117	23.045	800.348	627.649
388.132	22.892	799.488	626.376
389.146	22.786	798.761	625.378
390.161	22.059	798.214	622.317
391.175	22.204	797.561	622.268
392.190	22.760	797.709	624.294
393.205	22.714	797.447	623.873
394.219	21.985	795.390	619.635
395.234	20.267	793.436	612.004
396.248	19.601	792.530	608.904
397.263	20.591	793.435	613.038
398.278	22.459	794.361	620.284
399.292	22.987	794.488	622.189
400.307	22.650	793.406	620.100
401.321	22.519	793.215	619.438
402.336	22.431	793.409	619.224
403.350	22.802	792.966	620.127
404.365	23.192	792.717	621.245
405.380	23.446	792.577	621.974
406.394	23.736	792.352	622.758
407.409	23.823	791.825	622.593
408.423	23.719	791.544	621.954
409.438	23.784	790.790	621.535
410.453	23.821	790.273	621.202
411.467	24.010	789.658	621.325
412.482	23.993	789.426	621.027
413.496	23.714	788.931	619.607
414.511	23.815	788.587	619.637
415.526	23.934	788.138	619.644
416.540	23.906	787.666	619.120
417.555	23.772	787.471	618.444
418.569	23.416	786.785	616.612
419.584	23.451	785.963	616.035
420.599	23.600	785.491	616.130
421.613	156.999	1365.195	1798.470
422.628	135.767	1449.669	1798.563
