DTS Sentinel unit serial number:	SN413079Multiplexer serial number:	ORYXHardware model number:	OX4-SRSoftware version number:	ORYX F/W v4.00 Oryx Data Collector v3.7.2.0data status	okinstallation	princeton_trtdifferential loss correction	single-endedforward channel	channel 3reverse channel	N/Adate	2019/09/14time	03:32:35forward acquisition time	60.00reverse acquisition time	0.00gamma	496.2192k internal	0.2339k external	0.2339temperature offset calibration	1.0053default loss term (dB/km)	0.3790temperature slope calibration	1.0000multiplexer offset coefficient	1.0000multiplexer slope coefficient	1.0000fibre end	0.00T internal ref (°C)	26.62T ext. ref 1 (°C)	3.28T ext. ref 2 (°C)	21.57length (m)	temperature (°C)	Stokes	anti-Stokes-747.200	800.000	0.032	-0.105
-746.185	343.049	0.119	-0.233
-745.171	-200.000	0.060	0.295
-744.156	-134.056	-0.188	0.023
-743.142	-200.000	-0.056	0.261
-742.127	-148.029	-0.313	-0.026
-741.112	22.806	0.118	-0.097
-740.098	-28.752	-0.508	0.293
-739.083	-168.578	-0.049	0.002
-738.069	216.498	-0.132	0.211
-737.054	350.179	-0.068	0.134
-736.039	111.119	-0.071	-0.085
-735.025	-145.727	-0.183	-0.016
-734.010	-200.000	0.030	-0.199
-732.996	-58.403	0.158	0.069
-731.981	67.815	-0.351	-0.360
-730.966	-158.421	0.226	0.013
-729.952	-200.000	0.056	0.322
-728.937	-200.000	-0.010	-0.098
-727.923	32.572	-0.271	0.235
-726.908	193.487	0.027	-0.041
-725.894	454.571	0.101	-0.225
-724.879	-95.621	-0.292	0.078
-723.864	-64.877	0.167	-0.068
-722.850	423.183	-0.071	0.154
-721.835	-68.573	0.024	-0.009
-720.821	-126.925	-0.225	0.033
-719.806	17.940	0.125	-0.100
-718.791	-84.706	-0.199	-0.063
-717.777	-160.315	0.423	0.023
-716.762	-130.842	-0.298	-0.040
-715.748	-200.000	0.032	0.297
-714.733	800.000	0.067	0.273
-713.718	-168.610	-0.206	0.008
-712.704	-98.988	0.084	-0.021
-711.689	34.142	0.148	-0.129
-710.675	-159.830	-0.325	-0.018
-709.660	396.665	-0.071	0.149
-708.645	649.904	-0.089	-0.227
-707.631	-11.881	-0.302	0.198
-706.616	164.405	-0.187	-0.264
-705.602	262.190	0.121	0.210
-704.587	-139.974	0.199	0.021
-703.572	-62.249	-0.299	-0.125
-702.558	-200.000	0.044	-0.541
-701.543	-80.593	-0.014	-0.005
-700.529	-61.566	-0.217	-0.091
-699.514	699.689	-0.156	0.411
-698.499	50.207	0.052	-0.049
-697.485	-181.969	0.476	-0.009
-696.470	522.708	0.035	-0.081
-695.456	-149.337	-0.056	-0.004
-694.441	117.683	-0.096	-0.118
-693.426	127.118	0.060	-0.077
-692.412	76.330	-0.140	-0.149
-691.397	40.000	-0.202	-0.181
-690.383	12.984	-0.159	0.123
-689.368	-200.000	-0.019	0.300
-688.354	-79.682	-0.051	-0.017
-687.339	-96.668	-0.558	-0.147
-686.324	-60.608	0.078	0.033
-685.310	-200.000	0.005	0.230
-684.295	191.800	-0.154	-0.232
-683.281	-16.027	-0.365	0.232
-682.266	800.000	0.045	0.151
-681.251	-29.300	-0.018	-0.011
-680.237	277.744	-0.104	0.186
-679.222	-16.159	-0.120	-0.076
-678.208	584.658	0.064	-0.158
-677.193	-200.000	0.029	0.322
-676.178	282.800	0.239	-0.429
-675.164	278.989	-0.038	-0.067
-674.149	-47.180	0.196	0.095
-673.135	45.643	-0.168	-0.155
-672.120	136.434	-0.113	-0.147
-671.105	33.258	-0.121	-0.105
-670.091	462.913	-0.069	-0.153
-669.076	499.780	0.086	-0.197
-668.062	-135.073	-0.153	-0.018
-667.047	-22.908	0.059	-0.035
-666.032	244.654	-0.113	0.190
-665.018	478.723	-0.046	-0.104
-664.003	-79.092	-0.390	0.133
-662.989	-14.546	-0.100	0.064
-661.974	-66.537	-0.213	-0.084
-660.959	-200.000	-0.005	0.052
-659.945	800.000	0.080	-0.236
-658.930	-125.265	-0.254	-0.039
-657.916	800.000	-0.060	0.185
-656.901	-114.445	0.054	-0.010
-655.886	361.952	0.121	0.242
-654.872	-66.937	0.109	0.043
-653.857	150.422	-0.201	0.273
-652.843	-117.992	-0.422	-0.075
-651.828	-163.383	0.182	0.009
-650.814	-15.334	-0.346	0.221
-649.799	-69.504	0.189	0.072
-648.784	387.711	0.126	-0.261
-647.770	-51.577	-0.250	-0.116
-646.755	214.029	-0.275	-0.434
-645.741	385.449	0.105	-0.216
-644.726	61.485	0.218	-0.217
-643.711	-142.773	-0.214	0.021
-642.697	-200.000	0.003	-0.370
-641.682	94.075	-0.139	0.158
-640.668	-103.640	-0.194	-0.046
-639.653	-200.000	0.033	0.264
-638.638	93.369	0.190	-0.215
-637.624	-156.572	0.326	-0.020
-636.609	800.000	-0.068	0.190
-635.595	-200.000	-0.008	0.240
-634.580	702.026	0.079	-0.209
-633.565	-37.242	0.308	-0.164
-632.551	-166.685	-0.061	-0.003
-631.536	-91.235	0.082	0.023
-630.522	-200.000	-0.040	-0.238
-629.507	800.000	0.031	-0.113
-628.492	-49.786	0.250	0.118
-627.478	-200.000	-0.008	0.073
-626.463	663.500	-0.107	-0.277
-625.449	-10.865	0.055	0.036
-624.434	800.000	-0.015	0.052
-623.419	387.063	0.059	0.122
-622.405	-3.114	0.169	-0.118
-621.390	292.184	-0.198	0.360
-620.376	-200.000	-0.053	0.256
-619.361	169.977	-0.150	-0.214
-618.346	-187.356	-0.111	0.001
-617.332	57.594	-0.199	0.194
-616.317	-200.000	0.031	-0.348
-615.303	-151.948	-0.394	-0.029
-614.288	268.009	-0.129	-0.226
-613.273	65.625	0.025	-0.026
-612.259	-168.129	0.153	0.006
-611.244	581.163	0.180	-0.441
-610.230	638.301	-0.064	0.164
-609.215	-139.806	0.088	-0.009
-608.201	800.000	0.053	0.165
-607.186	-200.000	-0.025	-0.383
-606.171	8.465	0.184	0.138
-605.157	-103.396	0.034	0.008
-604.142	-146.006	0.155	0.014
-603.128	-82.934	0.426	0.137
-602.113	-5.578	-0.187	-0.128
-601.098	104.568	0.179	0.210
-600.084	341.506	-0.190	0.370
-599.069	-45.506	-0.181	0.089
-598.055	528.809	-0.177	0.417
-597.040	338.361	-0.104	0.201
-596.025	-200.000	0.021	0.130
-595.011	536.802	0.080	-0.189
-593.996	121.536	-0.156	-0.194
-592.982	126.835	-0.107	-0.135
-591.967	44.125	0.160	-0.146
-590.952	-148.366	0.423	-0.035
-589.938	458.271	-0.128	0.283
-588.923	-200.000	-0.007	-0.084
-587.909	40.462	-0.340	0.306
-586.894	-106.725	0.158	-0.035
-585.879	-200.000	0.315	-0.001
-584.865	-200.000	0.015	0.301
-583.850	-200.000	0.000	0.104
-582.836	-24.869	-0.185	0.109
-581.821	-83.021	0.050	-0.016
-580.806	105.915	-0.090	-0.106
-579.792	-68.999	0.227	0.087
-578.777	-12.887	0.099	-0.064
-577.763	-200.000	-0.006	0.253
-576.748	36.604	0.129	0.113
-575.733	-102.019	-0.141	0.034
-574.719	-189.717	-0.331	-0.004
-573.704	-20.114	0.061	-0.037
-572.690	800.000	0.047	-0.138
-571.675	-91.907	0.253	-0.071
-570.661	431.628	0.098	-0.212
-569.646	800.000	-0.035	0.122
-568.631	24.139	-0.219	-0.180
-567.617	101.169	0.230	-0.266
-566.602	-93.051	-0.138	0.038
-565.588	-200.000	-0.021	0.310
-564.573	108.875	-0.155	-0.184
-563.558	-23.585	0.379	0.227
-562.544	526.295	-0.091	-0.213
-561.529	702.735	0.093	0.243
-560.515	-200.000	0.095	0.432
-559.500	-52.842	0.461	0.211
-558.485	93.295	0.305	-0.343
-557.471	400.854	0.059	-0.123
-556.456	-200.000	-0.044	0.293
-555.442	113.127	-0.208	0.251
-554.427	-200.000	-0.036	-0.269
-553.412	-179.570	0.293	-0.006
-552.398	-180.575	0.098	0.002
-551.383	-200.000	0.026	0.178
-550.369	152.149	0.065	0.089
-549.354	-38.144	0.161	-0.085
-548.339	-99.353	0.349	-0.088
-547.325	233.880	0.125	0.204
-546.310	-87.197	0.276	-0.083
-545.296	-79.099	-0.117	0.040
-544.281	337.049	0.221	-0.428
-543.266	211.804	-0.134	-0.209
-542.252	-21.093	-0.141	-0.086
-541.237	-47.133	-0.120	0.058
-540.223	575.651	0.165	-0.400
-539.208	-132.636	-0.114	-0.015
-538.193	800.000	0.026	0.080
-537.179	-187.187	-0.317	-0.004
-536.164	131.592	-0.028	0.036
-535.150	-200.000	-0.010	-0.108
-534.135	-26.367	0.140	0.082
-533.121	5.598	-0.105	0.077
-532.106	-200.000	-0.076	0.505
-531.091	-0.855	0.047	0.033
-530.077	-46.618	0.301	0.147
-529.062	-200.000	-0.013	-0.175
-528.048	142.029	-0.010	-0.013
-527.033	-200.000	0.007	0.184
-526.018	50.323	0.165	0.155
-525.004	-200.000	0.022	-0.282
-523.989	-124.601	0.326	0.050
-522.975	562.038	-0.150	0.360
-521.960	-197.419	0.227	-0.001
-520.945	-99.953	0.261	-0.065
-519.931	800.000	0.116	0.344
-518.916	-103.912	-0.233	-0.054
-517.902	-70.408	-0.280	-0.105
-516.887	800.000	-0.058	0.223
-515.872	125.230	-0.161	0.202
-514.858	262.201	-0.141	0.242
-513.843	-62.787	-0.214	-0.088
-512.829	-123.666	0.103	0.016
-511.814	-22.668	0.235	0.141
-510.799	-25.172	-0.146	0.086
-509.785	-29.821	-0.173	-0.098
-508.770	-87.395	0.126	0.038
-507.756	235.091	0.227	-0.372
-506.741	12.535	-0.097	-0.074
-505.726	800.000	0.056	0.231
-504.712	264.933	0.215	0.372
-503.697	-4.844	-0.043	0.029
-502.683	-20.105	0.116	-0.071
-501.668	243.067	-0.059	0.099
-500.653	30.025	0.052	-0.044
-499.639	-200.000	-0.022	-0.282
-498.624	45.705	-0.206	0.189
-497.610	225.355	0.137	0.221
-496.595	50.063	-0.097	-0.091
-495.581	-123.884	0.142	0.022
-494.566	49.042	-0.137	-0.128
-493.551	192.126	-0.385	-0.576
-492.537	-200.000	0.032	-0.263
-491.522	58.182	-0.216	0.210
-490.508	-123.919	0.428	0.067
-489.493	-182.055	-0.186	-0.003
-488.478	-45.621	-0.311	-0.153
-487.464	-111.583	0.203	-0.041
-486.449	-200.000	-0.027	-0.289
-485.435	-7.685	0.058	0.039
-484.420	4.295	-0.212	-0.154
-483.405	-200.000	0.060	-0.437
-482.391	371.258	-0.097	-0.195
-481.376	71.535	-0.182	0.188
-480.362	-29.265	-0.024	0.014
-479.347	-198.516	0.329	0.002
-478.332	97.347	0.187	0.213
-477.318	344.583	0.088	0.171
-476.303	-83.715	-0.158	0.050
-475.289	-26.680	0.140	0.081
-474.274	-155.388	-0.339	0.022
-473.259	800.000	-0.055	-0.231
-472.245	14.156	0.076	-0.059
-471.230	-200.000	-0.001	0.013
-470.216	-59.928	0.165	-0.070
-469.201	-34.706	0.178	0.097
-468.186	358.820	0.123	-0.245
-467.172	-144.157	-0.314	0.029
-466.157	368.573	-0.099	-0.198
-465.143	-200.000	-0.088	-0.537
-464.128	126.942	-0.062	0.078
-463.113	-5.609	-0.210	0.143
-462.099	-122.138	0.184	-0.030
-461.084	-143.088	-0.345	-0.033
-460.070	-30.068	-0.496	-0.280
-459.055	129.772	-0.135	0.172
-458.040	-200.000	-0.026	-0.168
-457.026	47.436	-0.090	0.083
-456.011	145.121	0.119	0.158
-454.997	112.502	-0.243	-0.292
-453.982	-200.000	0.011	0.282
-452.968	-180.513	-0.170	-0.003
-451.953	-200.000	0.042	-0.548
-450.938	100.229	-0.008	0.009
-449.924	-50.984	-0.153	-0.071
-448.909	-120.684	-0.210	-0.035
-447.895	-184.871	0.179	0.003
-446.880	800.000	-0.042	-0.150
-445.865	239.376	-0.150	-0.248
-444.851	800.000	-0.053	-0.228
-443.836	227.329	0.142	-0.229
-442.822	-102.954	-0.167	0.039
-441.807	114.535	-0.197	0.238
-440.792	-139.284	0.384	0.041
-439.778	-200.000	-0.011	0.220
-438.763	-200.000	-0.017	-0.398
-437.749	-35.820	-0.279	0.150
-436.734	-124.249	0.318	0.049
-435.719	-200.000	-0.046	-0.254
-434.705	-200.000	0.014	-0.160
-433.690	418.811	0.126	-0.267
-432.676	-79.760	-0.316	-0.106
-431.661	87.607	0.175	-0.192
-430.646	140.838	-0.084	0.111
-429.632	28.162	0.362	0.303
-428.617	-76.183	-0.181	-0.063
-427.603	-107.765	0.272	0.059
-426.588	-44.394	0.217	0.108
-425.573	-151.005	0.187	0.014
-424.559	-200.000	-0.010	0.251
-423.544	-200.000	-0.001	0.034
-422.530	-44.959	-0.125	-0.062
-421.515	14.842	-0.205	-0.159
-420.500	150.320	-0.253	-0.340
-419.486	-44.955	0.200	-0.099
-418.471	455.379	-0.075	0.164
-417.457	800.000	-0.020	0.064
-416.442	22.332	-0.026	0.021
-415.428	800.000	-0.047	0.198
-414.413	-94.406	0.474	-0.128
-413.398	-200.000	-0.056	0.298
-412.384	-200.000	0.016	-0.130
-411.369	-157.208	0.234	-0.014
-410.355	9.956	-0.210	-0.158
-409.340	-200.000	-0.024	0.236
-408.325	251.133	0.183	0.307
-407.311	-200.000	0.004	0.201
-406.296	153.655	-0.202	-0.274
-405.282	49.838	0.049	0.046
-404.267	45.324	-0.216	-0.198
-403.252	378.201	-0.184	0.372
-402.238	800.000	-0.149	0.528
-401.223	142.502	0.035	0.046
-400.209	29.829	-0.320	0.270
-399.194	800.000	0.024	0.066
-398.179	84.118	0.246	0.266
-397.165	51.969	-0.198	0.186
-396.150	-85.511	0.180	-0.055
-395.136	-200.000	-0.009	0.548
-394.121	-98.661	0.245	-0.062
-393.106	-103.518	0.309	-0.072
-392.092	-200.000	0.004	-0.187
-391.077	-97.595	-0.096	0.025
-390.063	-42.267	0.158	-0.080
-389.048	-37.596	-0.267	0.141
-388.033	396.541	0.095	0.196
-387.019	293.107	-0.172	-0.310
-386.004	-16.665	-0.488	0.305
-384.990	209.849	0.148	0.230
-383.975	-44.268	0.223	-0.110
-382.960	2.155	-0.188	-0.134
-381.946	-54.602	0.406	-0.182
-380.931	488.489	0.045	-0.102
-379.917	-134.695	0.188	0.023
-378.902	-0.819	-0.040	0.028
-377.888	-78.255	-0.261	0.089
-376.873	-151.498	-0.283	-0.021
-375.858	800.000	-0.117	-0.326
-374.844	-108.176	-0.429	0.092
-373.829	-200.000	0.015	-0.088
-372.815	-70.792	-0.186	0.069
-371.800	19.689	0.240	0.191
-370.785	78.989	-0.125	0.132
-369.771	214.179	-0.170	-0.266
-368.756	-37.517	0.108	-0.057
-367.742	94.836	0.196	0.221
-366.727	-200.000	0.014	-0.101
-365.712	-200.000	-0.009	0.210
-364.698	-25.034	-0.210	-0.123
-363.683	310.687	0.038	0.070
-362.669	800.000	-0.090	-0.318
-361.654	-33.776	-0.324	0.177
-360.639	-200.000	0.033	-0.421
-359.625	111.187	0.051	-0.061
-358.610	-148.662	-0.428	0.034
-357.596	-13.795	-0.147	0.094
-356.581	-98.017	-0.258	-0.066
-355.566	170.260	-0.126	0.178
-354.552	679.705	0.033	-0.086
-353.537	-147.395	0.226	0.019
-352.523	-97.074	0.197	0.051
-351.508	800.000	-0.071	0.223
-350.493	-200.000	0.017	0.106
-349.479	507.390	0.070	0.161
-348.464	-61.990	-0.260	0.107
-347.450	-200.000	0.007	0.230
-346.435	45.200	-0.078	0.071
-345.420	450.419	0.043	-0.094
-344.406	-134.283	0.424	0.051
-343.391	-3.932	0.154	0.106
-342.377	-37.004	-0.202	0.107
-341.362	-103.098	-0.156	-0.037
-340.348	-200.000	-0.001	-0.347
-339.333	-200.000	0.055	0.265
-338.318	78.113	0.217	0.228
-337.304	134.663	0.021	-0.027
-336.289	-81.419	-0.144	-0.047
-335.275	-200.000	0.013	0.076
-334.260	-91.945	0.332	0.093
-333.245	-200.000	-0.094	-0.489
-332.231	-200.000	0.007	0.146
-331.216	-78.044	0.463	-0.157
-330.202	-200.000	0.003	0.068
-329.187	294.600	0.084	-0.152
-328.172	-8.640	-0.172	0.114
-327.158	-200.000	0.009	-0.050
-326.143	-200.000	-0.041	-0.201
-325.129	-119.484	-0.591	-0.101
-324.114	800.000	-0.072	-0.280
-323.099	11.687	-0.123	0.093
-322.085	103.179	0.100	-0.116
-321.070	123.530	-0.081	0.101
-320.056	94.166	-0.096	-0.107
-319.041	49.829	-0.178	-0.165
-318.026	-200.000	-0.003	-0.216
-317.012	-37.113	-0.076	-0.040
-315.997	-99.050	0.271	-0.068
-314.983	29.556	0.078	-0.065
-313.968	-200.000	-0.022	-0.177
-312.953	319.385	-0.122	0.227
-311.939	31.481	0.203	0.172
-310.924	-200.000	-0.039	0.230
-309.910	800.000	0.035	0.109
-308.895	719.584	-0.068	-0.177
-307.880	800.000	-0.133	0.390
-306.866	-101.439	0.601	0.144
-305.851	71.744	-0.072	-0.074
-304.837	-43.667	0.370	-0.184
-303.822	55.100	0.139	-0.132
-302.807	621.970	0.081	-0.202
-301.793	491.748	-0.040	0.090
-300.778	134.455	-0.096	-0.123
-299.764	102.013	-0.149	0.171
-298.749	117.527	-0.159	-0.193
-297.735	-51.676	0.128	0.059
-296.720	-71.770	0.189	0.070
-295.705	280.819	-0.187	-0.329
-294.691	657.624	-0.127	0.323
-293.676	-72.787	-0.101	-0.036
-292.662	-144.274	0.311	-0.029
-291.647	-200.000	-0.033	0.492
-290.632	-58.156	-0.138	0.059
-289.618	-200.000	0.043	-0.296
-288.603	-81.119	-0.052	-0.017
-287.589	-6.448	-0.319	0.214
-286.574	-128.268	-0.117	-0.016
-285.559	-200.000	-0.054	0.325
-284.545	-200.000	0.043	0.259
-283.530	129.708	0.181	0.228
-282.516	-88.211	-0.173	-0.051
-281.501	100.183	0.087	-0.100
-280.486	-16.334	-0.262	-0.164
-279.472	15.200	0.204	0.157
-278.457	-143.266	-0.023	0.002
-277.443	72.719	-0.139	-0.143
-276.428	-200.000	-0.014	0.135
-275.413	800.000	-0.059	0.201
-274.399	-61.137	0.094	-0.039
-273.384	29.895	0.036	0.030
-272.370	-92.027	-0.293	0.082
-271.355	-200.000	0.082	-0.439
-270.340	800.000	0.053	0.147
-269.326	800.000	-0.121	0.451
-268.311	-36.629	0.163	0.086
-267.297	89.344	-0.271	0.298
-266.282	62.054	0.146	-0.144
-265.267	-92.647	-0.119	0.033
-264.253	-200.000	0.015	-0.114
-263.238	-144.067	-0.063	0.006
-262.224	382.071	-0.197	0.399
-261.209	-142.872	0.364	-0.035
-260.195	-200.000	-0.005	-0.042
-259.180	-52.151	0.204	-0.093
-258.165	524.499	-0.099	0.229
-257.151	-200.000	0.029	-0.171
-256.136	-47.772	0.478	-0.228
-255.122	3.036	0.234	-0.168
-254.107	399.468	0.048	0.100
-253.092	800.000	-0.092	-0.265
-252.078	615.975	0.105	-0.259
-251.063	159.141	-0.202	0.277
-250.049	-140.198	0.267	0.028
-249.034	383.332	0.053	-0.107
-248.019	-99.691	0.152	0.038
-247.005	222.116	0.099	0.157
-245.990	1.567	-0.031	0.022
-244.976	256.309	-0.132	0.223
-243.961	389.102	-0.087	0.177
-242.946	-137.648	-0.094	0.010
-241.932	800.000	-0.048	-0.174
-240.917	256.538	-0.176	-0.297
-239.903	-136.768	0.450	-0.051
-238.888	-200.000	0.005	-0.062
-237.873	-27.676	-0.309	0.176
-236.859	426.036	-0.045	-0.096
-235.844	-10.406	0.146	0.095
-234.830	-100.390	0.232	-0.056
-233.815	630.886	0.123	-0.306
-232.800	-57.538	-0.165	-0.071
-231.786	-12.324	-0.073	0.047
-230.771	44.334	0.314	0.283
-229.757	184.867	0.040	-0.059
-228.742	-200.000	-0.030	0.190
-227.727	105.629	-0.175	0.203
-226.713	-14.869	-0.299	0.188
-225.698	-123.794	-0.099	0.015
-224.684	-26.335	-0.027	0.016
-223.669	-63.772	0.059	-0.024
-222.655	-99.701	0.226	0.056
-221.640	0.621	-0.150	-0.105
-220.625	-70.447	-0.354	0.132
-219.611	800.000	-0.121	0.409
-218.596	-128.037	0.097	0.014
-217.582	251.668	0.102	0.170
-216.567	-103.913	-0.076	-0.017
-215.552	236.257	0.153	0.248
-214.538	370.144	0.067	0.133
-213.523	457.178	-0.131	0.286
-212.509	-79.972	0.347	-0.114
-211.494	182.536	-0.116	0.168
-210.479	456.528	0.162	-0.354
-209.465	-200.000	-0.014	0.212
-208.450	534.132	0.053	-0.124
-207.436	101.946	-0.109	0.124
-206.421	106.625	0.133	-0.155
-205.406	-89.215	-0.270	-0.078
-204.392	-132.235	0.241	-0.031
-203.377	-138.645	-0.225	-0.024
-202.363	-88.116	0.223	-0.066
-201.348	141.509	0.142	-0.185
-200.333	-65.208	-0.155	0.061
-199.319	-140.077	0.446	-0.046
-198.304	447.143	0.131	-0.283
-197.290	-200.000	-0.021	-0.134
-196.275	-78.013	0.147	-0.050
-195.260	-130.408	-0.099	-0.013
-194.246	443.406	-0.035	0.076
-193.231	-28.980	-0.179	0.101
-192.217	107.299	0.180	-0.210
-191.202	243.531	-0.177	-0.291
-190.187	800.000	0.039	0.118
-189.173	455.507	0.063	-0.137
-188.158	800.000	-0.043	-0.149
-187.144	71.714	-0.164	0.168
-186.129	486.914	-0.105	-0.236
-185.114	22.697	-0.200	0.161
-184.100	99.105	0.174	-0.197
-183.085	-106.511	0.201	-0.044
-182.071	-57.176	0.410	-0.177
-181.056	-81.976	0.075	-0.024
-180.042	-200.000	-0.022	0.101
-179.027	23.939	0.131	-0.106
-178.012	60.659	0.225	0.218
-176.998	800.000	-0.170	-0.469
-175.983	800.000	-0.101	-0.370
-174.969	800.000	0.033	-0.110
-173.954	-135.967	-0.269	0.031
-172.939	-200.000	-0.022	0.148
-171.925	-80.085	0.111	0.036
-170.910	-110.046	-0.356	-0.073
-169.896	329.926	0.069	0.130
-168.881	-200.000	0.004	-0.263
-167.866	-31.788	-0.104	-0.057
-166.852	6.439	-0.204	0.149
-165.837	20.001	-0.096	0.076
-164.823	-200.000	0.011	0.218
-163.808	-200.000	0.016	-0.218
-162.793	17.439	0.191	-0.149
-161.779	37.577	-0.162	0.141
-160.764	-200.000	0.057	0.362
-159.750	-200.000	-0.041	0.232
-158.735	-65.886	-0.218	0.086
-157.720	-151.683	0.250	-0.018
-156.706	-137.069	0.194	-0.022
-155.691	800.000	-0.040	-0.135
-154.677	-200.000	0.026	-0.208
-153.662	800.000	0.077	-0.300
-152.647	48.568	-0.251	-0.230
-151.633	-181.959	-0.223	0.004
-150.618	-200.000	0.009	0.066
-149.604	741.466	0.106	0.279
-148.589	-200.000	-0.012	-0.149
-147.574	30.277	-0.185	-0.155
-146.560	-72.968	0.107	-0.039
-145.545	28.487	-0.237	-0.196
-144.531	-86.732	-0.337	0.101
-143.516	193.533	-0.120	0.178
-142.502	-117.561	0.318	-0.056
-141.487	-200.000	-0.042	-0.449
-140.472	292.672	0.162	0.289
-139.458	-102.484	0.107	0.025
-138.443	-200.000	0.046	0.323
-137.429	176.281	0.100	0.143
-136.414	147.011	-0.052	-0.069
-135.399	-200.000	0.011	-0.049
-134.385	-131.364	-0.336	0.044
-133.370	800.000	0.028	-0.118
-132.356	800.000	-0.045	0.132
-131.341	30.233	-0.092	0.077
-130.326	-200.000	0.059	-0.264
-129.312	-110.697	-0.026	-0.005
-128.297	-200.000	-0.007	0.335
-127.283	63.657	-0.237	-0.233
-126.268	-7.627	0.125	-0.083
-125.253	-6.594	0.326	-0.218
-124.239	136.716	-0.065	-0.083
-123.224	-101.648	0.219	-0.052
-122.210	37.965	0.159	-0.139
-121.195	22.654	0.198	-0.159
-120.180	-164.866	-0.232	-0.010
-119.166	-51.133	0.337	-0.155
-118.151	417.930	0.060	0.126
-117.137	180.014	-0.053	-0.076
-116.122	-28.409	-0.202	-0.114
-115.107	-200.000	-0.006	-0.133
-114.093	7.564	-0.354	0.259
-113.078	104.448	0.215	-0.248
-112.064	290.393	0.071	-0.125
-111.049	800.000	-0.135	0.400
-110.034	800.000	0.029	0.103
-109.020	80.838	-0.228	-0.241
-108.005	-200.000	-0.004	-0.178
-106.991	152.303	0.103	-0.138
-105.976	154.429	-0.031	0.042
-104.962	-200.000	0.027	-0.210
-103.947	-44.604	0.409	-0.200
-102.932	-16.881	-0.326	-0.202
-101.918	800.000	-0.032	-0.090
-100.903	-37.696	-0.085	-0.044
-99.889	-62.995	0.308	0.124
-98.874	-4.167	-0.266	0.180
-97.859	-179.924	0.472	0.010
-96.845	-200.000	0.084	-0.414
-95.830	-61.238	0.025	0.010
-94.816	84.574	-0.057	0.061
-93.801	-36.278	0.280	0.148
-92.786	-200.000	-0.015	0.164
-91.772	800.000	0.086	-0.278
-90.757	398.434	0.095	0.195
-89.743	736.677	0.092	0.242
-88.728	-200.000	0.010	0.109
-87.713	-23.018	-0.056	-0.033
-86.699	-150.003	0.193	-0.015
-85.684	280.599	0.056	-0.098
-84.670	-19.504	0.197	0.120
-83.655	-82.246	-0.174	0.055
-82.640	-63.730	0.153	0.061
-81.626	-98.194	0.075	-0.019
-80.611	-54.250	0.137	0.061
-79.597	456.621	-0.031	0.068
-78.582	182.676	0.190	0.274
-77.567	23.850	-0.056	0.045
-76.553	800.000	-0.080	0.273
-75.538	800.000	0.078	0.277
-74.524	-71.749	0.358	0.131
-73.509	-155.627	-0.415	-0.026
-72.494	-200.000	-0.023	-0.214
-71.480	-200.000	0.080	0.599
-70.465	-200.000	0.044	-0.229
-69.451	-200.000	-0.009	-0.183
-68.436	-140.461	0.063	0.006
-67.422	-107.428	0.329	0.071
-66.407	-200.000	0.059	-0.280
-65.392	-19.541	-0.027	0.017
-64.378	800.000	0.087	0.294
-63.363	-146.195	0.016	0.001
-62.349	179.171	-0.047	-0.068
-61.334	24.985	-1.183	-0.958
-60.319	259.068	0.415	0.700
-59.305	614.648	-0.412	-1.007
-58.290	371.176	0.535	1.060
-57.276	800.000	0.546	1.656
-56.261	-200.000	116.923	649.556
-55.246	513.998	1538.286	3503.607
-54.232	176.051	2710.695	3842.100
-53.217	106.251	2179.853	2521.364
-52.203	37.428	1696.505	1468.513
-51.188	29.785	1511.213	1256.387
-50.173	27.558	1486.799	1221.136
-49.159	50.797	1545.945	1429.222
-48.144	49.090	1561.374	1431.766
-47.130	29.852	1517.109	1261.544
-46.115	26.915	1501.461	1228.629
-45.100	26.699	1498.214	1224.465
-44.086	26.618	1496.313	1222.315
-43.071	26.600	1494.435	1220.616
-42.057	26.582	1493.029	1219.297
-41.042	26.665	1491.565	1218.613
-40.027	26.562	1490.117	1216.689
-39.013	26.534	1488.706	1215.297
-37.998	26.458	1487.438	1213.704
-36.984	26.617	1485.944	1213.505
-35.969	26.615	1484.928	1212.609
-34.954	26.625	1483.707	1211.630
-33.940	26.674	1481.695	1210.266
-32.925	26.736	1480.282	1209.480
-31.911	26.635	1479.306	1207.962
-30.896	26.617	1478.557	1207.180
-29.881	26.648	1476.899	1205.987
-28.867	26.657	1475.626	1204.959
-27.852	26.598	1474.554	1203.643
-26.838	26.646	1473.343	1202.929
-25.823	26.776	1471.226	1202.013
-24.809	26.702	1469.746	1200.264
-23.794	26.690	1468.163	1198.845
-22.779	26.614	1467.350	1197.635
-21.765	26.683	1466.276	1197.162
-20.750	26.692	1465.421	1196.481
-19.736	26.712	1463.856	1195.282
-18.721	26.694	1462.730	1194.199
-17.706	26.644	1461.857	1193.106
-16.692	26.639	1460.498	1191.918
-15.677	26.656	1459.676	1191.314
-14.663	26.610	1459.015	1190.427
-13.648	26.607	1457.749	1189.328
-12.633	26.588	1456.653	1188.259
-11.619	26.604	1455.947	1187.739
-10.604	26.586	1455.023	1186.824
-9.590	26.604	1454.273	1186.278
-8.575	26.577	1453.470	1185.402
-7.560	26.586	1452.714	1184.795
-6.546	26.587	1451.770	1183.986
-5.531	26.579	1451.156	1183.386
-4.517	26.682	1450.070	1183.125
-3.502	26.591	1448.874	1181.507
-2.487	26.591	1447.991	1180.741
-1.473	26.575	1447.254	1179.992
-0.458	26.656	1445.271	1178.854
0.556	26.897	1435.490	1167.990
1.571	23.828	1410.706	1128.279
2.586	20.555	1349.521	1059.333
3.600	18.909	1266.891	984.962
4.615	17.726	1222.850	944.091
5.629	15.271	1166.737	887.705
6.644	8.775	1085.823	793.961
7.659	4.007	1048.926	744.040
8.673	3.276	1043.316	736.501
9.688	3.245	1040.460	734.274
10.702	3.226	1038.867	732.992
11.717	3.353	1037.061	732.257
12.731	5.050	1038.132	741.018
13.746	11.543	1047.064	778.353
14.761	17.862	1054.978	814.415
15.775	19.636	1056.646	824.099
16.790	19.185	1055.174	820.732
17.804	18.118	1053.263	814.095
18.819	17.313	1051.247	808.637
19.834	16.918	1049.744	805.535
20.848	16.659	1048.871	803.562
21.863	16.519	1048.472	802.521
22.877	16.292	1047.967	800.987
23.892	16.184	1047.001	799.665
24.907	16.098	1046.195	798.573
25.921	16.057	1045.201	797.550
26.936	16.070	1044.951	797.351
27.950	16.201	1043.255	796.604
28.965	16.111	1042.273	795.358
29.980	16.152	1041.287	794.728
30.994	16.405	1039.970	794.846
32.009	16.379	1039.463	794.263
33.023	16.485	1038.677	794.092
34.038	16.403	1037.560	792.780
35.053	16.411	1036.823	792.185
36.067	16.242	1035.562	790.360
37.082	16.229	1035.245	789.987
38.096	16.406	1034.005	789.801
39.111	16.289	1033.922	789.121
40.126	16.395	1033.264	789.044
41.140	16.446	1031.572	787.920
42.155	16.103	1030.437	785.382
43.169	16.059	1029.232	784.191
44.184	15.972	1028.321	783.022
45.199	15.975	1027.362	782.237
46.213	15.901	1026.256	780.986
47.228	16.054	1025.102	780.745
48.242	16.275	1024.344	781.124
49.257	16.400	1023.621	781.081
50.271	16.307	1022.618	779.816
51.286	16.177	1022.005	778.679
52.301	16.203	1021.335	778.218
53.315	16.169	1020.253	777.171
54.330	16.114	1019.874	776.560
55.344	16.065	1018.458	775.189
56.359	16.061	1017.586	774.437
57.374	16.142	1016.327	773.779
58.388	16.118	1015.468	772.947
59.403	15.963	1014.597	771.509
60.417	15.880	1013.800	770.455
61.432	15.971	1013.595	770.645
62.447	15.892	1012.667	769.512
63.461	15.786	1012.075	768.507
64.476	15.750	1011.116	767.547
65.490	15.708	1010.302	766.668
66.505	15.782	1009.029	765.976
67.520	15.687	1008.804	765.303
68.534	15.818	1007.755	765.037
69.549	15.854	1006.828	764.427
70.563	15.778	1006.276	763.597
71.578	15.868	1005.448	763.306
72.593	15.745	1004.363	761.860
73.607	15.681	1003.265	760.670
74.622	15.782	1002.210	760.261
75.636	15.801	1001.558	759.780
76.651	15.649	1000.639	758.331
77.666	15.764	1000.115	758.386
78.680	15.785	999.222	757.738
79.695	15.731	999.110	757.340
80.709	15.815	998.503	757.195
81.724	16.021	997.534	757.316
82.739	15.777	997.216	755.914
83.753	15.909	996.806	756.126
84.768	16.073	995.726	755.976
85.782	16.317	994.903	756.377
86.797	16.425	994.660	756.610
87.812	16.411	993.579	755.659
88.826	16.233	992.367	753.875
89.841	16.184	991.695	753.077
90.855	16.265	990.959	752.816
91.870	16.343	990.211	752.527
92.884	16.436	989.462	752.307
93.899	16.375	988.818	751.479
94.914	16.463	987.651	750.916
95.928	16.531	987.224	750.825
96.943	16.439	986.625	749.896
97.957	16.517	985.345	749.204
98.972	16.440	984.630	748.249
99.987	16.274	984.103	747.050
101.001	16.348	983.685	746.992
102.016	16.371	982.835	746.384
103.030	16.279	981.585	744.963
104.045	16.404	980.610	744.709
105.060	16.426	979.574	743.952
106.074	16.281	978.571	742.486
107.089	16.216	978.116	741.791
108.103	15.937	976.885	739.568
109.118	15.947	975.610	738.581
110.133	15.852	975.295	737.860
111.147	15.923	974.627	737.601
112.162	15.805	973.608	736.245
113.176	15.929	972.479	735.871
114.191	16.155	971.577	736.110
115.206	16.115	971.121	735.521
116.220	16.110	970.124	734.684
117.235	15.935	969.498	733.382
118.249	15.967	968.718	732.864
119.264	16.076	967.227	732.144
120.279	15.891	966.847	730.990
121.293	15.882	966.077	730.302
122.308	15.831	965.408	729.511
123.322	15.904	964.130	728.797
124.337	15.717	963.536	727.478
125.352	15.838	962.266	726.976
126.366	15.716	961.321	725.671
127.381	15.707	960.208	724.729
128.395	15.729	959.133	723.948
129.410	15.840	958.219	723.672
130.424	15.914	957.500	723.380
131.439	15.946	956.708	722.858
132.454	16.040	955.595	722.356
133.468	15.992	955.115	721.723
134.483	16.028	954.743	721.531
135.497	16.046	953.949	720.944
136.512	16.108	952.725	720.218
137.527	16.016	952.450	719.554
138.541	15.990	951.932	718.989
139.556	16.042	950.831	718.315
140.570	16.056	950.327	717.933
141.585	16.090	949.636	717.490
142.600	16.168	949.302	717.508
143.614	16.294	948.542	717.405
144.629	16.358	947.466	716.796
145.643	16.467	947.078	716.902
146.658	16.496	945.759	715.965
147.673	16.289	944.948	714.412
148.687	16.232	944.001	713.391
149.702	16.217	942.816	712.369
150.716	16.131	942.174	711.460
151.731	16.097	941.420	710.684
152.746	16.125	940.517	710.056
153.760	16.181	939.631	709.562
154.775	16.152	939.220	709.064
155.789	16.055	938.822	708.295
156.804	16.321	937.614	708.436
157.819	16.301	936.912	707.761
158.833	16.238	936.458	707.088
159.848	16.485	935.887	707.630
160.862	16.497	935.223	707.115
161.877	16.655	934.484	707.157
162.892	16.348	933.181	704.824
163.906	16.247	932.389	703.742
164.921	16.031	931.980	702.473
165.935	16.113	930.683	701.775
166.950	16.186	929.572	701.178
167.964	16.379	928.889	701.401
168.979	16.182	927.984	699.840
169.994	16.258	927.000	699.349
171.008	16.185	926.052	698.270
172.023	16.292	925.381	698.145
173.037	16.373	924.887	698.047
174.052	16.460	924.257	697.866
175.067	16.607	923.230	697.639
176.081	16.423	922.554	696.308
177.096	16.274	921.518	694.849
178.110	16.256	920.516	693.960
179.125	16.276	920.526	693.986
180.140	16.368	918.944	693.110
181.154	16.299	918.817	692.669
182.169	16.581	917.723	692.939
183.183	16.471	917.691	692.402
184.198	16.520	917.333	692.274
185.213	16.753	915.948	692.118
186.227	16.647	915.625	691.380
187.242	16.468	915.461	690.465
188.256	16.565	914.909	690.384
189.271	16.626	913.960	689.854
190.286	16.798	913.475	690.128
191.300	16.652	912.058	688.403
192.315	16.275	911.049	686.048
193.329	16.118	910.708	685.091
194.344	16.387	909.705	685.368
195.359	16.297	909.524	684.809
196.373	16.368	908.960	684.608
197.388	16.433	908.626	684.560
198.402	16.733	907.775	685.074
199.417	16.680	908.003	684.969
200.432	16.785	907.596	685.025
201.446	16.853	907.182	684.928
202.461	17.050	906.488	685.138
203.475	17.086	906.023	684.872
204.490	16.941	905.499	683.832
205.504	16.790	904.290	682.251
206.519	16.848	903.440	681.779
207.534	16.702	902.807	680.658
208.548	16.712	901.905	679.954
209.563	16.861	901.381	680.100
210.577	16.831	900.672	679.385
211.592	16.864	899.929	678.896
212.607	16.883	899.633	678.685
213.621	16.970	899.296	678.723
214.636	16.952	898.570	678.041
215.650	16.904	897.686	677.121
216.665	16.984	897.244	677.047
217.680	16.983	896.872	676.706
218.694	17.165	896.250	676.900
219.709	17.181	896.041	676.747
220.723	17.139	895.180	675.871
221.738	17.070	894.320	674.887
222.753	17.091	893.850	674.556
223.767	17.118	892.623	673.676
224.782	17.142	892.222	673.407
225.796	17.139	891.602	672.869
226.811	17.383	890.698	673.091
227.826	17.254	889.977	671.978
228.840	17.194	889.530	671.347
229.855	16.903	889.251	669.925
230.869	17.124	888.165	669.921
231.884	17.041	887.482	669.017
232.899	17.088	886.507	668.409
233.913	17.003	885.996	667.629
234.928	16.991	885.216	666.937
235.942	16.947	884.608	666.245
236.957	16.903	884.088	665.623
237.972	16.903	883.633	665.220
238.986	16.948	882.961	664.835
240.001	16.869	882.329	663.990
241.015	17.030	880.990	663.553
242.030	16.933	880.869	663.021
243.045	17.079	880.401	663.183
244.059	17.122	879.351	662.500
245.074	17.225	878.663	662.324
246.088	17.299	878.126	662.150
247.103	17.359	877.739	662.032
248.117	17.332	877.462	661.662
249.132	17.434	876.861	661.544
250.147	17.460	876.375	661.221
251.161	17.880	875.515	662.142
252.176	17.803	875.058	661.442
253.190	17.829	874.457	661.027
254.205	17.797	873.960	660.471
255.220	17.959	872.782	660.150
256.234	17.870	872.395	659.455
257.249	17.764	872.161	658.810
258.263	17.785	871.821	658.574
259.278	17.818	871.432	658.350
260.293	17.790	870.478	657.465
261.307	17.998	869.917	657.781
262.322	18.044	869.333	657.460
263.336	18.141	868.724	657.316
264.351	18.142	868.029	656.734
265.366	17.972	867.560	655.668
266.380	18.034	867.085	655.490
267.395	18.002	866.296	654.711
268.409	17.907	865.508	653.696
269.424	17.805	864.687	652.625
270.439	17.981	863.947	652.683
271.453	18.036	862.978	652.102
272.468	17.793	862.752	650.945
273.482	17.807	861.850	650.263
274.497	17.864	861.608	650.241
275.512	17.926	860.755	649.774
276.526	17.885	860.161	649.111
277.541	17.906	859.330	648.509
278.555	17.810	859.241	648.020
279.570	18.064	858.680	648.502
280.585	18.114	858.404	648.426
281.599	18.133	857.818	647.996
282.614	18.051	856.916	646.949
283.628	17.874	856.421	645.849
284.643	17.910	855.681	645.367
285.657	18.026	855.064	645.285
286.672	17.989	854.834	644.913
287.687	18.125	854.145	644.852
288.701	17.979	853.496	643.751
289.716	18.062	852.946	643.593
290.730	17.990	852.464	642.902
291.745	18.057	851.629	642.466
292.760	18.126	851.076	642.253
293.774	18.145	850.358	641.726
294.789	18.272	850.091	641.944
295.803	18.348	849.352	641.615
296.818	18.274	848.567	640.686
297.833	18.162	847.761	639.603
298.847	18.111	847.642	639.266
299.862	18.370	846.483	639.303
300.876	18.309	845.767	638.477
301.891	18.274	845.722	638.256
302.906	18.239	845.139	637.630
303.920	18.346	844.648	637.600
304.935	18.622	843.896	638.004
305.949	18.588	843.189	637.285
306.964	18.602	842.473	636.739
307.979	18.499	842.072	635.997
308.993	18.440	841.617	635.379
310.008	18.543	841.381	635.527
311.022	18.623	840.515	635.112
312.037	18.644	839.899	634.667
313.052	18.568	839.612	634.114
314.066	18.423	838.718	632.848
315.081	18.318	837.776	631.695
316.095	18.230	837.201	630.878
317.110	18.291	836.960	630.867
318.125	18.436	836.156	630.741
319.139	18.347	836.015	630.249
320.154	18.426	835.662	630.217
321.168	18.246	834.933	628.952
322.183	18.433	834.238	629.057
323.197	18.478	833.788	628.830
324.212	18.498	833.187	628.393
325.227	18.518	832.665	628.017
326.241	18.606	831.987	627.772
327.256	18.487	831.592	626.985
328.270	18.467	831.104	626.487
329.285	18.387	830.428	625.631
330.300	18.461	829.960	625.493
331.314	18.519	829.272	625.129
332.329	18.572	828.687	624.827
333.343	18.579	828.199	624.429
334.358	18.588	827.886	624.169
335.373	18.695	827.154	623.953
336.387	18.700	826.566	623.473
337.402	18.776	826.261	623.462
338.416	18.707	825.764	622.782
339.431	18.926	825.333	623.197
340.446	18.763	824.960	622.267
341.460	18.970	824.255	622.430
342.475	19.010	823.761	622.148
343.489	19.199	823.034	622.225
344.504	19.103	822.657	621.539
345.519	19.202	822.207	621.503
346.533	19.143	821.607	620.781
347.548	19.192	821.154	620.560
348.562	19.054	820.420	619.453
349.577	18.836	820.096	618.369
350.592	18.983	818.985	618.005
351.606	18.802	818.820	617.175
352.621	18.759	818.447	616.686
353.635	18.712	818.177	616.259
354.650	18.816	817.744	616.250
355.665	18.863	817.090	615.873
356.679	19.143	816.078	616.056
357.694	19.138	816.151	616.041
358.708	19.089	815.325	615.187
359.723	19.078	814.980	614.832
360.738	19.153	814.305	614.539
361.752	19.029	814.163	613.932
362.767	19.059	813.963	613.835
363.781	19.046	813.714	613.547
364.796	19.257	812.964	613.678
365.810	19.463	812.281	613.841
366.825	19.372	812.253	613.440
367.840	19.461	812.203	613.666
368.854	19.576	811.432	613.437
369.869	19.388	810.902	612.317
370.883	19.281	810.136	611.303
371.898	19.367	809.741	611.256
372.913	19.336	809.123	610.627
373.927	19.538	808.523	610.834
374.942	19.327	808.236	609.816
375.956	19.500	807.004	609.444
376.971	19.497	806.845	609.258
377.986	19.522	806.164	608.781
379.000	19.723	805.825	609.179
380.015	19.764	805.399	608.947
381.029	19.496	805.211	607.806
382.044	19.530	804.453	607.301
383.059	19.436	803.717	606.359
384.073	19.611	803.083	606.443
385.088	19.823	802.394	606.611
386.102	19.488	801.844	604.968
387.117	19.483	801.591	604.706
388.132	19.215	801.516	603.660
389.146	19.602	800.613	604.280
390.161	19.522	800.092	603.553
391.175	19.544	799.986	603.495
392.190	19.599	799.639	603.374
393.205	19.613	798.883	602.798
394.219	19.406	798.660	601.852
395.234	19.505	797.924	601.591
396.248	19.506	797.275	601.053
397.263	19.318	796.894	600.056
398.278	19.329	796.515	599.756
399.292	19.373	795.890	599.387
400.307	19.274	795.525	598.716
401.321	19.478	794.904	598.902
402.336	19.438	794.695	598.554
403.350	19.481	794.456	598.469
404.365	19.464	794.262	598.213
405.380	19.603	793.761	598.263
406.394	19.746	793.079	598.189
407.409	19.957	792.570	598.484
408.423	20.005	792.394	598.462
409.438	19.939	791.912	597.817
410.453	19.957	791.384	597.430
411.467	19.932	791.431	597.325
412.482	20.092	790.406	597.049
413.496	20.052	790.293	596.773
414.511	20.178	789.913	596.869
415.526	20.219	789.445	596.603
416.540	20.118	789.039	595.895
417.555	19.983	788.956	595.316
418.569	20.076	788.515	595.248
419.584	20.166	787.458	594.709
420.599	20.207	786.923	594.393
421.613	162.152	1370.304	1796.662
422.628	140.364	1455.311	1796.724
