DTS Sentinel unit serial number:	SN413079Multiplexer serial number:	ORYXHardware model number:	OX4-SRSoftware version number:	ORYX F/W v4.00 Oryx Data Collector v3.7.2.0data status	okinstallation	princeton_trtdifferential loss correction	single-endedforward channel	channel 3reverse channel	N/Adate	2019/09/19time	03:52:34forward acquisition time	60.00reverse acquisition time	0.00gamma	496.2192k internal	0.2348k external	0.2348temperature offset calibration	0.9987default loss term (dB/km)	0.3790temperature slope calibration	1.0000multiplexer offset coefficient	1.0000multiplexer slope coefficient	1.0000fibre end	0.00T internal ref (°C)	20.50T ext. ref 1 (°C)	0.64T ext. ref 2 (°C)	14.39length (m)	temperature (°C)	Stokes	anti-Stokes-747.200	56.713	0.167	0.163
-746.185	17.672	-0.194	0.155
-745.171	-200.000	-0.021	0.193
-744.156	-200.000	-0.006	-0.058
-743.142	800.000	-0.037	-0.159
-742.127	-200.000	0.041	0.208
-741.112	15.562	-0.095	0.074
-740.098	-57.312	-0.473	0.208
-739.083	19.506	-0.162	0.130
-738.069	-200.000	0.002	0.351
-737.054	98.932	-0.321	0.371
-736.039	-88.015	-0.186	-0.056
-735.025	800.000	-0.025	0.079
-734.010	-106.918	-0.286	-0.063
-732.996	54.195	-0.170	-0.163
-731.981	475.279	0.051	-0.114
-730.966	800.000	0.066	-0.189
-729.952	-42.147	-0.389	0.199
-728.937	-76.728	0.116	0.040
-727.923	352.031	-0.058	0.115
-726.908	-105.517	0.183	-0.041
-725.894	-3.548	0.075	0.052
-724.879	-200.000	-0.015	0.143
-723.864	-136.592	0.119	0.014
-722.850	-192.950	-0.088	-0.001
-721.835	-68.604	0.163	0.063
-720.821	-46.656	-0.113	0.055
-719.806	241.430	0.203	-0.338
-718.791	224.115	-0.168	-0.271
-717.777	800.000	0.054	-0.166
-716.762	-200.000	-0.041	-0.186
-715.748	-200.000	0.019	-0.141
-714.733	800.000	-0.006	-0.017
-713.718	-124.792	0.080	-0.012
-712.704	272.380	-0.184	-0.325
-711.689	-87.847	-0.209	0.063
-710.675	-27.922	0.206	0.119
-709.660	-2.225	0.045	-0.031
-708.645	-102.929	-0.351	0.083
-707.631	236.332	0.241	-0.397
-706.616	-52.973	0.141	0.065
-705.602	-138.321	0.057	-0.006
-704.587	-145.592	0.150	0.013
-703.572	-54.639	0.372	0.168
-702.558	-200.000	-0.000	-0.103
-701.543	-200.000	-0.010	0.435
-700.529	58.581	-0.167	0.163
-699.514	8.109	-0.213	-0.159
-698.499	-150.860	0.122	-0.009
-697.485	800.000	-0.020	-0.065
-696.470	-109.617	-0.397	-0.083
-695.456	162.741	0.083	-0.116
-694.441	-54.469	0.233	0.105
-693.426	-200.000	0.059	-0.263
-692.412	-200.000	-0.000	0.002
-691.397	-30.910	-0.130	-0.073
-690.383	-65.976	-0.181	0.072
-689.368	800.000	-0.054	-0.153
-688.354	-200.000	0.049	-0.219
-687.339	-92.588	0.157	0.044
-686.324	-200.000	-0.048	-0.365
-685.310	-200.000	-0.001	-0.399
-684.295	211.317	-0.199	0.312
-683.281	-200.000	-0.004	0.237
-682.266	386.737	-0.070	0.145
-681.251	-200.000	-0.361	0.000
-680.237	-65.594	0.389	0.156
-679.222	-20.186	0.196	0.120
-678.208	-99.714	-0.311	-0.078
-677.193	-58.306	-0.039	-0.017
-676.178	-116.439	-0.092	0.017
-675.164	-79.367	0.142	0.048
-674.149	-106.008	0.174	-0.039
-673.135	800.000	0.065	-0.248
-672.120	17.469	-0.152	-0.120
-671.105	-200.000	0.042	-0.280
-670.091	-59.482	0.247	0.106
-669.076	-170.071	-0.255	-0.009
-668.062	-200.000	0.074	-0.381
-667.047	780.012	0.097	-0.263
-666.032	187.801	-0.100	-0.148
-665.018	234.379	0.130	0.213
-664.003	800.000	0.022	-0.087
-662.989	-163.961	0.202	-0.009
-661.974	-200.000	-0.031	-0.396
-660.959	1.057	-0.366	-0.261
-659.945	-31.705	-0.109	-0.061
-658.930	-131.200	-0.229	-0.030
-657.916	800.000	0.057	0.229
-656.901	-104.146	-0.174	-0.040
-655.886	225.235	-0.114	0.183
-654.872	-24.978	0.307	0.182
-653.857	-104.602	-0.295	0.068
-652.843	800.000	0.066	-0.229
-651.828	25.800	-0.241	-0.200
-650.814	-200.000	-0.044	-0.283
-649.799	57.166	-0.063	0.061
-648.784	-158.706	-0.112	-0.006
-647.770	-159.774	0.309	-0.017
-646.755	-65.297	-0.217	0.087
-645.741	297.182	-0.055	-0.101
-644.726	800.000	-0.061	-0.244
-643.711	510.306	0.131	-0.304
-642.697	-21.646	0.124	0.075
-641.682	-200.000	0.018	-0.412
-640.668	-200.000	-0.000	-0.121
-639.653	83.592	-0.150	0.162
-638.638	-173.638	0.165	-0.005
-637.624	685.693	-0.049	0.127
-636.609	316.316	-0.178	-0.335
-635.595	103.430	0.140	0.164
-634.580	-11.507	-0.062	0.041
-633.565	-110.006	0.183	-0.038
-632.551	-95.885	-0.110	0.029
-631.536	-200.000	0.030	-0.338
-630.522	-40.317	0.157	-0.081
-629.507	-11.273	-0.194	-0.127
-628.492	-54.336	-0.318	0.144
-627.478	-131.931	-0.433	0.056
-626.463	94.998	0.108	0.123
-625.449	16.293	-0.139	0.109
-624.434	800.000	0.078	0.241
-623.419	288.955	-0.207	0.372
-622.405	-118.173	-0.360	0.064
-621.390	-81.842	0.415	0.135
-620.376	-200.000	0.008	-0.069
-619.361	-105.416	-0.503	0.114
-618.346	-141.202	0.205	-0.021
-617.332	-73.320	0.211	-0.077
-616.317	19.268	-0.225	-0.179
-615.303	16.587	0.099	-0.078
-614.288	-200.000	-0.064	-0.426
-613.273	-200.000	0.030	-0.413
-612.259	-175.587	0.204	-0.005
-611.244	-102.444	0.077	-0.018
-610.230	377.247	0.064	0.129
-609.215	-31.899	0.088	-0.049
-608.201	-137.203	-0.507	0.057
-607.186	-200.000	0.009	-0.104
-606.171	-200.000	0.016	-0.131
-605.157	-120.534	-0.330	0.056
-604.142	299.613	0.312	-0.572
-603.128	-2.972	0.175	-0.122
-602.113	170.053	-0.179	-0.254
-601.098	-30.498	0.143	0.080
-600.084	-3.380	-0.128	0.089
-599.069	193.477	0.227	-0.341
-598.055	698.868	-0.135	-0.353
-597.040	415.541	0.155	0.328
-596.025	69.233	0.208	0.212
-595.011	-12.692	-0.132	0.086
-593.996	-200.000	-0.019	0.192
-592.982	222.546	0.079	-0.126
-591.967	96.510	0.240	0.273
-590.952	-149.695	-0.316	-0.025
-589.938	800.000	-0.077	0.279
-588.923	-115.132	-0.117	-0.022
-587.909	-167.507	-0.191	-0.008
-586.894	-94.966	0.388	-0.104
-585.879	-169.717	-0.318	0.011
-584.865	-87.365	0.193	-0.058
-583.850	-59.328	0.181	-0.077
-582.836	800.000	-0.042	-0.126
-581.821	-74.541	0.170	-0.061
-580.806	-200.000	-0.034	-0.166
-579.792	58.160	-0.097	-0.094
-578.777	800.000	0.037	-0.108
-577.763	-68.282	0.113	-0.044
-576.748	-82.694	0.322	-0.104
-575.733	356.220	-0.074	0.147
-574.719	751.094	0.085	0.228
-573.704	307.533	-0.143	0.265
-572.690	-104.027	0.293	0.068
-571.675	43.083	-0.059	-0.054
-570.661	-130.489	0.183	0.025
-569.646	252.670	0.016	0.027
-568.631	13.101	0.209	0.161
-567.617	-96.927	0.182	0.047
-566.602	54.142	0.136	0.130
-565.588	632.337	0.165	-0.415
-564.573	-24.384	-0.216	-0.128
-563.558	7.711	0.080	0.059
-562.544	-145.564	-0.151	-0.013
-561.529	-111.972	0.220	0.044
-560.515	800.000	0.023	0.093
-559.500	55.874	-0.175	0.168
-558.485	-200.000	-0.003	-0.434
-557.471	70.139	-0.167	0.171
-556.456	-200.000	0.034	0.173
-555.442	-2.437	0.030	-0.021
-554.427	609.889	0.092	-0.227
-553.412	80.473	-0.079	-0.084
-552.398	153.735	0.069	-0.094
-551.383	-98.253	0.328	-0.083
-550.369	11.617	0.154	-0.117
-549.354	573.949	-0.124	-0.299
-548.339	800.000	-0.022	-0.080
-547.325	126.415	-0.102	-0.128
-546.310	-200.000	-0.019	0.270
-545.296	338.845	-0.102	0.197
-544.281	-103.017	-0.419	0.098
-543.266	-200.000	-0.018	0.111
-542.252	-98.024	-0.242	-0.062
-541.237	120.523	0.098	-0.120
-540.223	-200.000	0.004	0.220
-539.208	16.936	0.271	0.213
-538.193	78.525	-0.334	0.354
-537.179	-200.000	0.085	-0.572
-536.164	38.162	0.071	0.063
-535.150	-200.000	-0.023	-0.155
-534.135	-28.004	-0.153	-0.088
-533.121	54.060	-0.037	0.035
-532.106	128.037	0.058	0.073
-531.091	800.000	-0.113	-0.330
-530.077	-79.264	0.361	0.121
-529.062	-132.754	0.302	0.038
-528.048	-132.765	-0.114	-0.014
-527.033	256.093	-0.100	0.170
-526.018	-139.380	0.378	-0.040
-525.004	800.000	-0.032	0.108
-523.989	-200.000	-0.040	0.201
-522.975	0.132	-0.225	0.159
-521.960	-83.292	0.066	0.021
-520.945	208.456	-0.086	0.133
-519.931	69.503	-0.182	-0.186
-518.916	-71.982	-0.312	0.115
-517.902	-200.000	0.023	-0.192
-516.887	-37.247	0.170	-0.090
-515.872	-50.025	0.282	0.132
-514.858	-200.000	0.015	-0.073
-513.843	800.000	-0.076	-0.276
-512.829	-80.830	-0.138	0.045
-511.814	-131.029	-0.273	0.036
-510.799	-108.019	-0.201	-0.043
-509.785	-180.409	-0.096	-0.002
-508.770	465.544	0.069	-0.153
-507.756	4.166	0.092	-0.066
-506.741	-33.795	-0.088	0.048
-505.726	-26.742	-0.232	0.134
-504.712	-102.855	-0.236	0.055
-503.697	-200.000	0.000	-0.281
-502.683	28.969	-0.035	0.029
-501.668	-200.000	0.006	0.044
-500.653	-53.419	-0.279	0.127
-499.639	-200.000	0.006	-0.456
-498.624	-3.929	-0.079	-0.054
-497.610	241.791	0.263	-0.435
-496.595	-106.207	0.176	0.039
-495.581	-200.000	0.120	-0.000
-494.566	800.000	0.025	-0.083
-493.551	-200.000	0.008	0.232
-492.537	121.759	-0.033	-0.041
-491.522	17.242	0.060	-0.047
-490.508	271.168	0.077	-0.135
-489.493	-7.473	-0.173	-0.116
-488.478	800.000	-0.106	-0.300
-487.464	225.200	0.077	-0.123
-486.449	-113.522	-0.152	0.030
-485.435	19.338	-0.071	0.056
-484.420	-200.000	0.002	0.105
-483.405	719.514	-0.132	-0.347
-482.391	800.000	0.025	-0.088
-481.376	800.000	-0.074	0.227
-480.362	137.237	-0.172	-0.222
-479.347	-51.146	0.294	-0.136
-478.332	-200.000	-0.003	-0.182
-477.318	2.759	0.403	0.289
-476.303	43.458	-0.234	0.212
-475.289	-54.259	-0.053	0.024
-474.274	262.346	0.064	0.110
-473.259	-200.000	-0.026	-0.523
-472.245	-169.052	-0.354	-0.013
-471.230	-90.947	0.208	-0.059
-470.216	-200.000	-0.003	-0.101
-469.201	-14.096	-0.151	0.096
-468.186	93.561	-0.173	0.194
-467.172	-200.000	-0.023	0.216
-466.157	-117.714	0.396	-0.070
-465.143	104.599	-0.091	-0.106
-464.128	-200.000	-0.010	-0.108
-463.113	46.890	-0.090	0.082
-462.099	800.000	-0.063	0.251
-461.084	275.417	0.101	0.176
-460.070	-139.596	-0.309	0.033
-459.055	13.402	-0.295	-0.226
-458.040	-200.000	-0.004	0.256
-457.026	129.473	-0.249	-0.314
-456.011	-31.643	-0.231	-0.128
-454.997	-98.277	0.150	0.038
-453.982	179.402	-0.106	0.153
-452.968	-13.513	0.267	0.171
-451.953	95.210	0.145	0.163
-450.938	104.896	-0.134	-0.157
-449.924	37.372	-0.102	-0.089
-448.909	-38.866	-0.196	0.102
-447.895	318.749	0.116	0.218
-446.880	192.669	0.026	-0.039
-445.865	-10.957	-0.161	0.105
-444.851	-116.740	0.040	-0.007
-443.836	352.193	-0.049	-0.097
-442.822	-110.514	-0.166	0.034
-441.807	-89.497	0.318	0.092
-440.792	-200.000	-0.038	0.346
-439.778	-109.237	0.373	-0.078
-438.763	375.046	-0.086	0.172
-437.749	-109.000	-0.260	0.055
-436.734	143.913	-0.064	-0.085
-435.719	-18.906	-0.236	0.145
-434.705	-18.685	-0.213	0.131
-433.690	-40.337	0.232	-0.119
-432.676	39.870	0.086	-0.076
-431.661	800.000	0.048	0.201
-430.646	800.000	0.065	0.261
-429.632	-2.925	0.248	0.171
-428.617	-38.789	0.174	0.090
-427.603	800.000	-0.010	-0.035
-426.588	100.752	-0.052	-0.060
-425.573	800.000	0.059	0.222
-424.559	-97.359	-0.294	0.076
-423.544	-139.775	0.273	0.029
-422.530	445.578	0.164	0.355
-421.515	614.148	0.072	0.179
-420.500	-169.362	-0.138	0.005
-419.486	-200.000	-0.034	0.208
-418.471	-71.639	-0.359	0.132
-417.457	305.028	-0.230	-0.421
-416.442	125.669	0.203	0.253
-415.428	-73.530	-0.124	-0.044
-414.413	-200.000	0.049	0.247
-413.398	-200.000	0.358	-0.001
-412.384	-200.000	-0.027	-0.151
-411.369	-200.000	-0.024	0.124
-410.355	800.000	0.138	0.478
-409.340	435.947	0.048	-0.103
-408.325	435.281	-0.056	0.121
-407.311	-21.206	-0.063	-0.038
-406.296	105.212	0.117	0.136
-405.282	462.257	-0.040	-0.087
-404.267	-200.000	0.012	-0.091
-403.252	149.951	-0.155	0.208
-402.238	165.269	0.076	-0.106
-401.223	-121.628	0.212	-0.035
-400.209	-26.454	-0.227	0.131
-399.194	800.000	-0.015	-0.053
-398.179	-200.000	-0.005	-0.334
-397.165	326.029	0.144	-0.272
-396.150	-73.658	-0.350	-0.126
-395.136	140.655	-0.129	-0.168
-394.121	46.764	0.100	0.091
-393.106	-43.096	0.411	-0.206
-392.092	-32.447	-0.209	-0.115
-391.077	-200.000	-0.012	0.119
-390.063	-200.000	-0.008	-0.083
-389.048	-81.618	-0.126	-0.041
-388.033	-34.490	-0.176	-0.095
-387.019	-1.284	-0.430	0.299
-386.004	-72.388	0.072	0.026
-384.990	97.861	0.333	0.378
-383.975	202.746	-0.068	0.103
-382.960	-200.000	-0.011	0.236
-381.946	67.150	0.139	-0.140
-380.931	-109.073	-0.214	-0.045
-379.917	61.506	0.447	0.438
-378.902	2.471	-0.321	0.229
-377.888	-15.871	0.177	0.111
-376.873	-196.481	-0.356	-0.002
-375.858	800.000	0.081	0.235
-374.844	-48.026	0.297	-0.141
-373.829	510.544	-0.112	0.257
-372.815	75.205	0.041	-0.043
-371.800	199.912	-0.190	0.287
-370.785	338.584	0.136	0.261
-369.771	-78.005	-0.216	-0.073
-368.756	-106.456	0.370	0.081
-367.742	800.000	0.104	0.339
-366.727	800.000	-0.107	-0.335
-365.712	412.905	0.093	0.194
-364.698	-200.000	0.034	0.328
-363.683	800.000	-0.030	-0.129
-362.669	-187.916	-0.082	-0.001
-361.654	-138.020	0.243	0.027
-360.639	-130.171	-0.221	0.030
-359.625	800.000	0.137	-0.438
-358.610	-200.000	0.037	-0.238
-357.596	10.388	-0.304	-0.228
-356.581	-102.790	-0.244	-0.057
-355.566	-8.125	0.103	-0.068
-354.552	-200.000	0.015	0.163
-353.537	212.093	-0.073	-0.114
-352.523	-91.783	0.227	0.063
-351.508	102.174	-0.010	-0.012
-350.493	512.387	-0.073	-0.168
-349.479	-77.049	-0.199	0.068
-348.464	718.878	0.107	-0.279
-347.450	-200.000	0.009	-0.245
-346.435	-156.217	0.120	0.007
-345.420	-200.000	-0.015	-0.301
-344.406	-64.386	-0.136	-0.055
-343.391	431.839	0.070	0.149
-342.377	-156.909	0.526	0.032
-341.362	-28.969	0.072	0.041
-340.348	25.623	-0.164	0.135
-339.333	-171.291	-0.329	-0.011
-338.318	276.200	0.182	0.317
-337.304	492.661	-0.055	-0.123
-336.289	-200.000	0.044	0.193
-335.275	710.163	-0.097	0.253
-334.260	-44.166	0.252	-0.124
-333.245	800.000	0.029	0.106
-332.231	-71.940	-0.183	0.067
-331.216	-200.000	0.008	0.062
-330.202	410.763	-0.086	0.180
-329.187	597.135	-0.116	-0.282
-328.172	74.533	0.279	-0.289
-327.158	243.048	0.301	-0.496
-326.143	-200.000	0.017	-0.270
-325.129	394.745	-0.063	-0.129
-324.114	-200.000	-0.032	-0.228
-323.099	240.147	0.140	0.230
-322.085	-25.693	-0.180	0.104
-321.070	117.909	0.209	0.252
-320.056	-76.022	-0.557	0.194
-319.041	123.756	-0.256	-0.315
-318.026	-200.000	0.011	-0.177
-317.012	95.417	-0.048	0.054
-315.997	93.330	0.193	-0.215
-314.983	-20.721	-0.182	-0.110
-313.968	120.133	-0.054	-0.066
-312.953	800.000	0.027	0.113
-311.939	-83.100	-0.217	0.069
-310.924	-200.000	0.044	0.221
-309.910	-21.012	-0.250	0.150
-308.895	228.734	0.120	0.192
-307.880	-93.805	-0.136	-0.037
-306.866	188.070	0.014	-0.020
-305.851	-39.008	-0.168	-0.087
-304.837	33.222	-0.176	0.150
-303.822	60.500	0.251	0.245
-302.807	96.111	0.232	0.260
-301.793	356.161	0.107	-0.209
-300.778	560.974	0.125	0.297
-299.764	44.255	0.236	-0.213
-298.749	356.621	0.193	-0.378
-297.735	11.183	-0.257	-0.193
-296.720	-108.564	-0.102	-0.022
-295.705	-6.039	0.333	0.223
-294.691	-200.000	0.004	-0.080
-293.676	121.898	-0.103	-0.126
-292.662	110.004	0.074	-0.087
-291.647	-200.000	-0.002	0.046
-290.632	357.086	-0.008	-0.015
-289.618	-123.510	-0.221	-0.035
-288.603	1.034	-0.175	0.123
-287.589	-8.653	0.214	0.141
-286.574	791.294	-0.060	-0.163
-285.559	-55.561	0.335	-0.147
-284.545	274.613	-0.059	0.103
-283.530	45.540	0.116	0.105
-282.516	-130.385	-0.242	-0.032
-281.501	54.109	0.218	0.206
-280.486	-114.386	-0.097	0.018
-279.472	800.000	0.106	0.345
-278.457	11.783	-0.182	0.137
-277.443	-115.663	0.272	-0.050
-276.428	47.441	-0.113	0.103
-275.413	-97.152	0.142	0.036
-274.399	377.784	-0.225	-0.451
-273.384	-40.835	0.177	0.090
-272.370	160.516	-0.118	0.161
-271.355	-38.977	-0.051	-0.027
-270.340	122.356	-0.169	0.207
-269.326	-200.000	0.014	0.075
-268.311	-200.000	0.045	0.196
-267.297	-74.717	0.269	0.095
-266.282	-23.832	0.137	-0.081
-265.267	-32.044	-0.226	-0.124
-264.253	-32.865	0.296	0.161
-263.238	-100.038	-0.435	-0.106
-262.224	307.134	0.165	-0.301
-261.209	-48.584	0.256	0.121
-260.195	-60.099	-0.198	0.083
-259.180	415.874	0.116	-0.244
-258.165	64.460	-0.088	0.087
-257.151	257.811	0.140	-0.237
-256.136	223.185	0.085	-0.134
-255.122	800.000	0.056	0.197
-254.107	-145.730	-0.189	0.017
-253.092	-200.000	0.008	0.056
-252.078	800.000	-0.047	0.189
-251.063	157.859	0.053	-0.072
-250.049	-200.000	0.017	0.219
-249.034	94.933	-0.151	-0.168
-248.019	469.754	0.122	-0.268
-247.005	-90.578	0.273	0.077
-245.990	-17.680	0.126	0.078
-244.976	37.688	0.123	0.107
-243.961	-76.307	-0.456	-0.158
-242.946	24.220	-0.266	-0.215
-241.932	275.194	-0.191	0.331
-240.917	72.249	-0.111	-0.113
-239.903	-200.000	0.030	0.216
-238.888	-112.446	-0.045	-0.009
-237.873	43.911	-0.181	-0.163
-236.859	55.339	-0.433	0.410
-235.844	194.469	0.195	0.290
-234.830	800.000	-0.037	0.152
-233.815	800.000	0.026	0.110
-232.800	-50.648	-0.048	0.022
-231.786	183.818	0.144	0.209
-230.771	7.997	0.109	0.080
-229.757	-51.906	0.160	0.073
-228.742	757.758	-0.167	-0.443
-227.727	-200.000	-0.018	0.263
-226.713	661.860	-0.040	-0.100
-225.698	329.105	-0.137	0.258
-224.684	-152.487	0.228	0.016
-223.669	800.000	0.091	0.254
-222.655	-26.270	-0.053	-0.030
-221.640	-124.687	0.527	-0.080
-220.625	-123.152	-0.060	-0.009
-219.611	92.783	0.089	-0.098
-218.596	148.063	0.133	-0.176
-217.582	768.458	-0.122	-0.325
-216.567	-39.496	0.033	-0.017
-215.552	-27.972	-0.102	-0.058
-214.538	59.570	-0.105	0.102
-213.523	-200.000	0.000	0.016
-212.509	70.960	-0.067	-0.068
-211.494	-184.838	0.111	0.002
-210.479	-34.576	0.396	-0.212
-209.465	44.560	-0.132	-0.119
-208.450	20.172	-0.116	0.092
-207.436	4.181	0.145	0.104
-206.421	289.032	-0.148	0.262
-205.406	800.000	-0.039	-0.118
-204.392	-92.373	0.047	0.013
-203.377	-25.086	-0.254	-0.147
-202.363	-200.000	0.038	0.280
-201.348	800.000	-0.019	0.054
-200.333	-45.032	0.211	0.103
-199.319	13.749	0.145	0.110
-198.304	67.431	0.127	0.127
-197.290	-74.732	0.166	-0.058
-196.275	262.766	0.148	-0.251
-195.260	-171.552	0.222	0.007
-194.246	-200.000	0.030	-0.206
-193.231	32.741	0.116	-0.098
-192.217	21.563	-0.135	0.108
-191.202	-129.955	0.209	0.028
-190.187	29.042	-0.096	-0.080
-189.173	-200.000	-0.010	-0.341
-188.158	-200.000	0.076	0.339
-187.144	-76.997	-0.130	0.044
-186.129	186.113	0.068	-0.099
-185.114	428.833	0.183	-0.386
-184.100	93.947	0.333	-0.369
-183.085	52.069	0.067	-0.062
-182.071	-92.624	0.248	0.068
-181.056	107.358	0.118	0.137
-180.042	-51.375	-0.226	-0.103
-179.027	-185.076	0.248	0.004
-178.012	141.403	-0.032	-0.041
-176.998	16.740	-0.174	-0.135
-175.983	443.309	0.072	-0.155
-174.969	-200.000	-0.007	-0.096
-173.954	-87.522	0.240	0.071
-172.939	101.625	0.048	-0.055
-171.925	-200.000	-0.039	0.381
-170.910	-60.268	-0.357	0.149
-169.896	-170.749	0.299	0.010
-168.881	-72.466	0.208	-0.075
-167.866	-200.000	0.004	-0.149
-166.852	143.981	0.040	-0.052
-165.837	800.000	0.010	-0.029
-164.823	-200.000	0.000	0.020
-163.808	-10.424	0.109	-0.071
-162.793	-14.085	-0.301	0.189
-161.779	430.200	0.089	-0.188
-160.764	-200.000	-0.020	-0.247
-159.750	-111.560	-0.247	-0.049
-158.735	34.198	-0.137	-0.117
-157.720	228.246	-0.280	0.445
-156.706	-107.920	0.208	-0.044
-155.691	-118.416	-0.042	0.007
-154.677	682.291	-0.093	-0.236
-153.662	-157.541	0.269	-0.016
-152.647	-200.000	0.017	0.126
-151.633	-200.000	0.006	0.177
-150.618	126.785	0.093	0.116
-149.604	-47.356	-0.115	0.055
-148.589	131.351	-0.172	0.216
-147.574	-137.045	-0.425	-0.047
-146.560	-174.501	0.152	0.004
-145.545	-70.175	-0.504	0.187
-144.531	-37.786	0.082	-0.043
-143.516	800.000	-0.016	-0.043
-142.502	-37.810	-0.279	0.145
-141.487	0.955	0.387	-0.271
-140.472	-137.180	-0.075	-0.008
-139.458	-79.304	-0.283	-0.094
-138.443	435.487	-0.091	0.192
-137.429	-86.307	0.326	0.098
-136.414	-125.787	0.135	0.020
-135.399	150.567	0.204	-0.270
-134.385	800.000	0.102	-0.357
-133.370	6.506	-0.144	-0.104
-132.356	-200.000	-0.004	0.212
-131.341	-200.000	0.007	-0.347
-130.326	800.000	-0.074	0.263
-129.312	800.000	-0.072	0.268
-128.297	323.868	0.003	0.006
-127.283	60.511	0.071	0.069
-126.268	-200.000	-0.039	0.179
-125.253	-200.000	0.008	-0.058
-124.239	-120.727	-0.091	0.015
-123.224	37.312	0.200	-0.173
-122.210	-22.455	0.440	0.260
-121.195	-37.712	0.221	0.115
-120.180	213.598	0.309	0.476
-119.166	-89.256	-0.404	0.116
-118.151	156.090	0.178	0.239
-117.137	258.232	-0.018	0.030
-116.122	209.233	0.195	0.297
-115.107	-11.027	0.346	-0.222
-114.093	85.656	-0.269	0.288
-113.078	65.519	-0.042	0.042
-112.064	236.028	-0.123	-0.198
-111.049	-200.000	0.068	-0.393
-110.034	-13.672	0.195	0.123
-109.020	-36.724	-0.217	0.114
-108.005	410.121	-0.023	0.047
-106.991	21.452	0.182	-0.145
-105.976	28.785	-0.130	-0.107
-104.962	29.403	0.186	0.154
-103.947	800.000	0.063	0.221
-102.932	76.094	-0.082	0.085
-101.918	-81.909	-0.374	-0.119
-100.903	25.287	-0.047	0.038
-99.889	276.575	-0.129	0.223
-98.874	23.116	-0.337	-0.270
-97.859	-200.000	-0.005	-0.027
-96.845	88.157	0.241	-0.260
-95.830	-93.159	-0.351	0.095
-94.816	165.140	-0.036	-0.050
-93.801	-86.526	-0.186	-0.056
-92.786	-200.000	0.034	0.186
-91.772	574.890	0.086	0.206
-90.757	139.413	0.202	-0.259
-89.743	314.616	-0.082	-0.150
-88.728	-21.017	-0.384	-0.229
-87.713	773.219	-0.150	0.398
-86.699	-65.543	0.149	-0.058
-85.684	-82.886	0.372	0.117
-84.670	-62.934	0.094	-0.038
-83.655	-133.206	0.203	0.025
-82.640	800.000	-0.020	-0.055
-81.626	-200.000	-0.043	-0.203
-80.611	123.510	0.171	-0.209
-79.597	-200.000	-0.030	-0.222
-78.582	515.168	0.075	-0.171
-77.567	-175.290	-0.074	-0.002
-76.553	-57.435	0.198	-0.085
-75.538	-59.516	-0.376	0.157
-74.524	-200.000	-0.009	0.308
-73.509	219.393	0.165	0.257
-72.494	-15.922	0.134	0.083
-71.480	66.925	-0.173	0.172
-70.465	75.675	0.214	-0.220
-69.451	696.326	-0.109	0.278
-68.436	-86.962	0.231	-0.069
-67.422	1.275	0.118	0.083
-66.407	266.040	0.113	-0.192
-65.392	10.057	0.248	0.183
-64.378	-127.561	-0.260	-0.037
-63.363	800.000	0.054	0.184
-62.349	800.000	-0.130	0.433
-61.334	112.237	-0.941	-1.107
-60.319	95.762	0.847	0.941
-59.305	800.000	-0.552	-1.669
-58.290	261.682	0.710	1.196
-57.276	324.010	0.836	1.552
-56.261	-200.000	136.560	663.781
-55.246	335.990	1672.801	3157.120
-54.232	135.145	2798.527	3537.752
-53.217	84.531	2193.965	2335.185
-52.203	30.299	1710.402	1420.673
-51.188	23.293	1534.384	1226.108
-50.173	21.827	1512.960	1198.919
-49.159	45.598	1588.888	1427.325
-48.144	42.070	1598.829	1411.395
-47.130	23.473	1547.863	1237.937
-46.115	20.759	1531.965	1206.391
-45.100	20.524	1528.944	1202.336
-44.086	20.428	1527.093	1200.174
-43.071	20.454	1525.278	1198.879
-42.057	20.489	1523.263	1197.490
-41.042	20.485	1522.425	1196.754
-40.027	20.349	1520.847	1194.533
-39.013	20.461	1518.964	1193.777
-37.998	20.359	1518.007	1192.272
-36.984	20.398	1516.501	1191.313
-35.969	20.435	1515.239	1190.529
-34.954	20.477	1513.581	1189.466
-33.940	20.466	1512.403	1188.415
-32.925	20.448	1510.961	1187.110
-31.911	20.522	1509.912	1186.749
-30.896	20.474	1508.513	1185.274
-29.881	20.558	1507.267	1184.818
-28.867	20.604	1506.020	1184.101
-27.852	20.515	1504.532	1182.285
-26.838	20.549	1503.446	1181.616
-25.823	20.554	1501.334	1179.944
-24.809	20.552	1499.788	1178.662
-23.794	20.568	1498.407	1177.641
-22.779	20.585	1497.154	1176.722
-21.765	20.442	1496.632	1175.300
-20.750	20.618	1495.166	1175.296
-19.736	20.520	1494.653	1174.180
-18.721	20.587	1493.011	1173.296
-17.706	20.513	1492.340	1172.220
-16.692	20.430	1491.256	1170.767
-15.677	20.511	1490.141	1170.386
-14.663	20.530	1488.958	1169.539
-13.648	20.428	1488.404	1168.374
-12.633	20.573	1487.337	1168.466
-11.619	20.543	1486.209	1167.333
-10.604	20.496	1485.405	1166.338
-9.590	20.424	1484.406	1165.021
-8.575	20.510	1483.574	1164.901
-7.560	20.504	1482.404	1163.894
-6.546	20.545	1481.520	1163.429
-5.531	20.533	1480.576	1162.560
-4.517	20.504	1480.073	1161.925
-3.502	20.433	1478.707	1160.332
-2.487	20.558	1477.339	1160.047
-1.473	20.489	1476.749	1159.082
-0.458	20.451	1475.255	1157.608
0.556	19.441	1465.207	1146.186
1.571	16.179	1441.323	1106.047
2.586	12.726	1379.362	1036.710
3.600	11.272	1294.295	964.091
4.615	10.357	1250.836	926.405
5.629	9.529	1194.323	879.950
6.644	5.002	1114.233	797.747
7.659	1.206	1080.032	754.343
8.673	0.739	1074.873	748.362
9.688	0.589	1071.349	745.100
10.702	0.704	1069.912	744.603
11.717	0.519	1067.773	742.137
12.731	2.224	1067.691	750.396
13.746	7.537	1075.167	781.799
14.761	13.757	1083.972	818.924
15.775	16.991	1086.757	836.933
16.790	16.969	1085.901	836.092
17.804	15.909	1084.283	829.552
18.819	15.209	1082.027	824.314
19.834	14.691	1080.709	820.691
20.848	14.526	1079.581	818.951
21.863	14.253	1078.968	817.075
22.877	13.962	1078.377	815.126
23.892	13.760	1077.313	813.259
24.907	13.493	1076.691	811.411
25.921	13.507	1076.013	810.895
26.936	13.677	1075.085	810.957
27.950	13.805	1073.823	810.559
28.965	13.758	1073.465	809.987
29.980	13.762	1072.709	809.362
30.994	13.816	1071.790	808.860
32.009	13.890	1071.104	808.632
33.023	13.822	1070.187	807.538
34.038	13.940	1069.353	807.412
35.053	13.828	1068.929	806.473
36.067	14.001	1067.346	806.046
37.082	13.724	1067.277	804.583
38.096	13.865	1065.858	804.124
39.111	13.890	1065.037	803.551
40.126	13.886	1064.273	802.888
41.140	13.649	1063.735	801.267
42.155	13.763	1062.003	800.441
43.169	13.827	1060.717	799.706
44.184	13.668	1060.220	798.495
45.199	13.729	1058.998	797.797
46.213	13.733	1058.361	797.268
47.228	13.629	1057.619	796.141
48.242	13.721	1056.079	795.349
49.257	13.830	1055.094	795.059
50.271	13.652	1054.121	793.403
51.286	13.811	1053.433	793.576
52.301	13.794	1052.272	792.550
53.315	13.749	1051.784	791.898
54.330	13.756	1051.017	791.285
55.344	13.776	1049.909	790.478
56.359	13.699	1048.856	789.248
57.374	13.861	1047.669	789.053
58.388	13.782	1046.960	788.075
59.403	13.756	1045.848	787.042
60.417	13.685	1045.459	786.343
61.432	13.705	1044.678	785.782
62.447	13.599	1044.192	784.846
63.461	13.682	1043.153	784.388
64.476	13.605	1042.324	783.332
65.490	13.581	1041.525	782.547
66.505	13.670	1040.431	782.079
67.520	13.755	1039.533	781.734
68.534	13.738	1039.007	781.187
69.549	13.681	1038.680	780.603
70.563	13.675	1037.784	779.833
71.578	13.630	1036.613	778.675
72.593	13.726	1035.451	778.183
73.607	13.714	1034.797	777.566
74.622	13.622	1033.212	775.878
75.636	13.580	1032.919	775.389
76.651	13.693	1032.129	775.255
77.666	13.605	1031.615	774.390
78.680	13.693	1030.302	773.748
79.695	13.643	1030.139	773.324
80.709	13.629	1029.552	772.750
81.724	13.778	1028.181	772.343
82.739	13.758	1027.568	771.723
83.753	13.774	1026.814	771.163
84.768	13.764	1026.324	770.679
85.782	13.818	1025.391	770.165
86.797	13.939	1024.192	769.754
87.812	13.794	1023.723	768.664
88.826	13.716	1023.423	768.009
89.841	13.815	1022.065	767.380
90.855	13.751	1021.587	766.654
91.870	13.899	1020.480	766.440
92.884	13.791	1019.749	765.326
93.899	13.878	1019.240	765.279
94.914	13.870	1018.835	764.867
95.928	13.993	1017.903	764.670
96.943	13.930	1017.209	763.787
97.957	13.901	1016.322	762.921
98.972	13.956	1015.339	762.371
99.987	13.839	1014.294	760.979
101.001	13.754	1014.079	760.363
102.016	13.717	1012.996	759.315
103.030	13.923	1011.577	759.122
104.045	13.949	1010.904	758.671
105.060	13.918	1010.131	757.881
106.074	13.754	1009.375	756.502
107.089	13.823	1008.086	755.781
108.103	13.645	1007.963	754.810
109.118	13.797	1006.409	754.274
110.133	13.752	1005.559	753.362
111.147	13.755	1004.702	752.667
112.162	13.761	1004.027	752.124
113.176	13.907	1002.928	751.896
114.191	13.917	1002.021	751.194
115.206	13.869	1001.278	750.352
116.220	13.794	1000.584	749.430
117.235	13.756	999.749	748.567
118.249	13.696	998.396	747.216
119.264	13.876	997.656	747.408
120.279	13.821	997.045	746.633
121.293	13.811	996.046	745.778
122.308	13.733	995.269	744.779
123.322	13.794	994.144	744.146
124.337	13.760	993.060	743.114
125.352	13.655	992.158	741.903
126.366	13.766	991.141	741.576
127.381	13.745	989.910	740.495
128.395	13.718	988.866	739.528
129.410	13.752	988.115	739.050
130.424	13.793	987.062	738.379
131.439	13.800	985.953	737.517
132.454	13.809	985.196	736.925
133.468	13.768	984.757	736.348
134.483	13.894	983.971	736.257
135.497	13.848	983.161	735.381
136.512	13.814	982.422	734.613
137.527	13.815	981.533	733.886
138.541	13.855	980.738	733.403
139.556	13.874	980.185	733.009
140.570	13.881	979.620	732.553
141.585	13.842	979.205	732.004
142.600	14.003	977.881	731.659
143.614	13.963	977.261	730.955
144.629	14.047	976.526	730.709
145.643	14.141	975.667	730.415
146.658	13.983	975.252	729.348
147.673	13.951	974.203	728.360
148.687	13.894	973.584	727.579
149.702	13.927	972.274	726.682
150.716	13.864	971.764	725.962
151.731	13.849	970.874	725.167
152.746	13.853	969.818	724.332
153.760	13.944	969.183	724.188
154.775	13.980	968.009	723.403
155.789	14.005	967.270	722.899
156.804	13.975	966.614	722.211
157.819	14.095	965.670	721.964
158.833	14.139	965.130	721.689
159.848	14.236	964.329	721.447
160.862	14.021	963.755	720.022
161.877	14.223	963.165	720.390
162.892	14.134	962.305	719.300
163.906	14.181	961.033	718.486
164.921	14.083	960.411	717.536
165.935	14.062	959.438	716.656
166.950	14.147	958.332	716.133
167.964	14.290	957.174	715.818
168.979	14.090	956.486	714.380
169.994	14.073	955.461	713.480
171.008	14.165	954.943	713.424
172.023	14.165	954.262	712.852
173.037	14.225	953.100	712.179
174.052	14.378	952.349	712.209
175.067	14.306	951.712	711.362
176.081	14.183	951.277	710.448
177.096	14.186	949.656	709.185
178.110	14.291	949.251	709.268
179.125	14.260	948.608	708.594
180.140	14.341	947.340	707.928
181.154	14.286	947.114	707.461
182.169	14.277	946.417	706.841
183.183	14.396	945.707	706.753
184.198	14.397	945.017	706.179
185.213	14.420	944.004	705.456
186.227	14.330	943.612	704.721
187.242	14.303	943.491	704.455
188.256	14.370	942.633	704.034
189.271	14.566	941.567	704.004
190.286	14.464	940.743	702.893
191.300	14.355	939.693	701.590
192.315	14.238	939.459	700.860
193.329	14.226	938.891	700.323
194.344	14.158	938.182	699.446
195.359	14.243	937.178	698.992
196.373	14.483	936.518	699.443
197.388	14.400	936.009	698.656
198.402	14.606	935.455	699.043
199.417	14.508	935.544	698.637
200.432	14.511	935.100	698.258
201.446	14.654	934.007	697.975
202.461	14.609	933.968	697.699
203.475	14.605	933.290	697.113
204.490	14.678	932.561	696.810
205.504	14.659	931.432	695.826
206.519	14.703	930.411	695.184
207.534	14.647	930.093	694.652
208.548	14.623	929.369	693.951
209.563	14.699	928.588	693.623
210.577	14.618	928.061	692.832
211.592	14.594	927.547	692.285
212.607	14.844	926.628	692.578
213.621	14.818	925.985	691.927
214.636	14.790	925.373	691.292
215.650	14.669	924.940	690.406
216.665	14.737	924.496	690.294
217.680	14.851	923.555	690.003
218.694	14.952	923.092	690.011
219.709	14.818	922.746	689.140
220.723	14.827	922.098	688.633
221.738	15.025	920.889	688.482
222.753	14.830	920.267	687.153
223.767	14.836	919.740	686.726
224.782	14.830	919.121	686.179
225.796	14.954	917.898	685.713
226.811	14.912	917.296	685.030
227.826	14.957	917.269	685.135
228.840	15.079	916.078	684.684
229.855	14.884	915.903	683.692
230.869	15.031	915.061	683.606
231.884	15.006	913.989	682.641
232.899	15.035	913.109	682.044
233.913	14.991	912.786	681.562
234.928	14.908	911.826	680.446
235.942	14.911	911.406	680.085
236.957	15.012	910.602	679.835
237.972	14.884	909.909	678.739
238.986	14.982	909.337	678.648
240.001	15.003	908.790	678.266
241.015	15.175	907.649	678.050
242.030	15.147	906.685	677.159
243.045	15.179	906.253	676.904
244.059	15.083	906.001	676.267
245.074	15.155	905.522	676.144
246.088	15.233	904.394	675.552
247.103	15.093	904.123	674.729
248.117	15.051	903.659	674.151
249.132	15.185	903.130	674.237
250.147	15.243	902.298	673.790
251.161	15.264	901.353	673.111
252.176	15.376	900.786	673.074
253.190	15.412	900.015	672.585
254.205	15.523	899.370	672.488
255.220	15.525	898.554	671.827
256.234	15.414	898.462	671.254
257.249	15.570	897.386	671.011
258.263	15.431	897.158	670.230
259.278	15.399	897.012	669.933
260.293	15.517	896.232	669.759
261.307	15.712	894.840	669.437
262.322	15.573	894.367	668.473
263.336	15.588	894.105	668.274
264.351	15.761	893.306	668.308
265.366	15.654	892.647	667.332
266.380	15.753	891.529	666.826
267.395	15.606	891.344	666.046
268.409	15.699	890.563	665.772
269.424	15.628	890.211	665.169
270.439	15.711	889.380	664.821
271.453	15.731	888.341	664.061
272.468	15.698	887.859	663.511
273.482	15.829	887.077	663.385
274.497	15.627	886.757	662.294
275.512	15.740	885.770	661.940
276.526	15.705	884.987	661.162
277.541	15.838	884.318	661.122
278.555	15.773	883.844	660.455
279.570	15.763	883.331	659.975
280.585	15.893	882.267	659.633
281.599	15.884	882.068	659.389
282.614	15.895	881.643	659.057
283.628	15.838	880.897	658.218
284.643	15.873	880.244	657.807
285.657	15.983	879.491	657.616
286.672	15.910	879.155	657.022
287.687	15.896	878.575	656.476
288.701	15.946	878.080	656.244
289.716	16.049	877.500	656.154
290.730	16.092	876.544	655.546
291.745	15.885	876.540	654.679
292.760	16.031	875.665	654.534
293.774	16.196	874.599	654.323
294.789	16.100	874.403	653.746
295.803	16.186	873.391	653.265
296.818	15.990	873.415	652.464
297.833	15.957	872.728	651.768
298.847	16.121	871.745	651.609
299.862	16.165	870.935	651.113
300.876	16.093	870.510	650.462
301.891	16.286	869.537	650.418
302.906	16.229	869.029	649.762
303.920	16.235	868.303	649.186
304.935	16.348	867.475	648.943
305.949	16.315	867.101	648.480
306.964	16.299	866.842	648.167
307.979	16.375	866.063	647.819
308.993	16.222	865.812	646.987
310.008	16.301	864.951	646.590
311.022	16.295	864.656	646.287
312.037	16.339	863.981	645.896
313.052	16.466	863.307	645.818
314.066	16.451	862.540	645.130
315.081	16.270	862.440	644.311
316.095	16.484	861.525	644.382
317.110	16.369	861.150	643.610
318.125	16.428	860.237	643.093
319.139	16.370	859.986	642.627
320.154	16.395	859.560	642.347
321.168	16.484	858.863	642.107
322.183	16.458	858.291	641.526
323.197	16.375	857.742	640.743
324.212	16.548	857.019	640.804
325.227	16.430	856.666	640.036
326.241	16.523	855.894	639.753
327.256	16.516	855.402	639.303
328.270	16.653	854.946	639.421
329.285	16.573	854.087	638.421
330.300	16.486	853.273	637.428
331.314	16.422	853.149	637.040
332.329	16.555	852.440	636.954
333.343	16.565	851.659	636.351
334.358	16.718	851.490	636.746
335.373	16.658	850.655	635.839
336.387	16.672	850.325	635.586
337.402	16.661	849.927	635.192
338.416	16.824	849.119	635.144
339.431	16.740	848.589	634.375
340.446	16.752	847.856	633.817
341.460	16.764	847.406	633.470
342.475	16.853	846.764	633.266
343.489	16.807	846.362	632.737
344.504	16.806	846.045	632.440
345.519	16.818	845.302	631.873
346.533	16.800	844.654	631.265
347.548	16.997	844.403	631.756
348.562	16.895	843.792	630.864
349.577	16.901	843.044	630.270
350.592	17.015	842.174	629.988
351.606	16.878	842.077	629.354
352.621	16.918	841.683	629.149
353.635	16.863	841.479	628.739
354.650	17.071	840.878	629.003
355.665	16.911	840.538	628.101
356.679	17.106	839.950	628.327
357.694	17.133	839.449	627.996
358.708	17.092	838.482	627.066
359.723	17.126	837.996	626.775
360.738	17.055	837.791	626.302
361.752	17.115	836.916	625.814
362.767	17.129	836.782	625.712
363.781	17.192	836.163	625.425
364.796	17.248	836.008	625.459
365.810	17.173	835.147	624.484
366.825	17.154	835.108	624.328
367.840	17.200	834.861	624.260
368.854	17.235	834.228	623.859
369.869	17.260	833.619	623.440
370.883	17.286	833.028	623.038
371.898	17.314	832.684	622.827
372.913	17.288	831.978	622.150
373.927	17.222	831.361	621.394
374.942	17.379	830.359	621.161
375.956	17.349	830.012	620.736
376.971	17.425	829.460	620.548
377.986	17.462	829.019	620.297
379.000	17.460	828.492	619.839
380.015	17.610	827.452	619.554
381.029	17.718	827.004	619.553
382.044	17.449	826.864	618.418
383.059	17.576	826.269	618.380
384.073	17.660	825.710	618.211
385.088	17.447	825.326	617.098
386.102	17.586	824.762	617.123
387.117	17.559	824.038	616.429
388.132	17.550	823.536	615.967
389.146	17.502	823.019	615.353
390.161	17.600	823.121	615.727
391.175	17.708	822.198	615.373
392.190	17.650	821.904	614.888
393.205	17.782	821.332	614.884
394.219	17.624	821.010	614.017
395.234	17.761	820.667	614.201
396.248	17.564	820.172	613.067
397.263	17.551	819.928	612.782
398.278	17.507	819.313	612.112
399.292	17.632	818.733	612.072
400.307	17.588	818.555	611.727
401.321	17.610	818.278	611.545
402.336	17.662	817.710	611.254
403.350	17.734	816.984	610.916
404.365	17.695	816.583	610.421
405.380	17.821	815.896	610.306
406.394	17.857	815.603	610.158
407.409	17.778	814.988	609.365
408.423	17.948	814.757	609.746
409.438	17.784	814.211	608.697
410.453	17.989	813.806	609.070
411.467	18.102	813.365	609.088
412.482	17.867	812.894	607.847
413.496	17.958	812.543	607.855
414.511	17.950	812.065	607.413
415.526	17.995	811.907	607.401
416.540	18.090	811.207	607.164
417.555	18.175	810.386	606.795
418.569	18.089	810.281	606.358
419.584	18.102	810.159	606.259
420.599	17.901	809.815	605.235
421.613	116.021	1299.814	1493.018
422.628	100.394	1371.165	1493.030
