DTS Sentinel unit serial number:	SN413079Multiplexer serial number:	ORYXHardware model number:	OX4-SRSoftware version number:	ORYX F/W v4.00 Oryx Data Collector v3.7.2.0data status	okinstallation	princeton_trtdifferential loss correction	single-endedforward channel	channel 3reverse channel	N/Adate	2019/09/19time	06:16:34forward acquisition time	60.00reverse acquisition time	0.00gamma	496.2192k internal	0.2348k external	0.2348temperature offset calibration	0.9987default loss term (dB/km)	0.3790temperature slope calibration	1.0000multiplexer offset coefficient	1.0000multiplexer slope coefficient	1.0000fibre end	0.00T internal ref (°C)	19.06T ext. ref 1 (°C)	0.57T ext. ref 2 (°C)	12.74length (m)	temperature (°C)	Stokes	anti-Stokes-747.200	82.213	0.146	0.158
-746.185	72.642	-0.321	0.335
-745.171	-151.517	0.093	-0.007
-744.156	-200.000	0.024	0.181
-743.142	464.102	-0.108	-0.242
-742.127	-87.595	-0.299	-0.090
-741.112	-109.129	0.321	0.068
-740.098	104.028	-0.508	0.597
-739.083	-200.000	-0.002	0.144
-738.069	166.505	0.055	0.078
-737.054	-69.910	-0.170	0.065
-736.039	-92.489	0.199	0.056
-735.025	-126.511	0.563	-0.084
-734.010	-90.218	-0.204	-0.059
-732.996	800.000	0.073	-0.270
-731.981	73.123	0.144	-0.150
-730.966	-199.720	0.513	-0.003
-729.952	12.824	-0.185	0.143
-728.937	722.112	-0.143	-0.381
-727.923	100.601	0.134	-0.156
-726.908	-133.326	-0.572	0.072
-725.894	-173.079	-0.523	-0.016
-724.879	-58.298	-0.269	0.117
-723.864	-125.964	-0.580	0.087
-722.850	-200.000	0.044	-0.227
-721.835	79.723	-0.256	0.274
-720.821	-200.000	-0.057	-0.313
-719.806	-200.000	-0.023	-0.135
-718.791	-156.937	-0.452	0.028
-717.777	-71.567	-0.166	-0.062
-716.762	177.808	-0.098	0.143
-715.748	425.146	-0.177	-0.380
-714.733	185.817	-0.277	-0.412
-713.718	-200.000	0.002	0.073
-712.704	-9.343	-0.315	-0.210
-711.689	-104.157	-0.324	-0.075
-710.675	24.218	0.052	0.043
-709.660	-104.458	0.273	-0.063
-708.645	59.922	0.148	-0.145
-707.631	-200.000	0.034	0.316
-706.616	266.433	-0.042	-0.074
-705.602	-196.142	-0.227	0.002
-704.587	4.710	-0.139	-0.102
-703.572	-25.354	-0.100	-0.059
-702.558	-94.462	0.193	-0.052
-701.543	-200.000	0.008	-0.154
-700.529	-80.914	-0.208	0.069
-699.514	95.896	0.126	-0.144
-698.499	-110.173	-0.084	-0.017
-697.485	331.975	-0.080	-0.153
-696.470	-134.393	0.160	-0.020
-695.456	52.269	-0.231	-0.219
-694.441	800.000	0.065	0.281
-693.426	800.000	0.100	-0.311
-692.412	-189.960	0.431	-0.005
-691.397	707.073	-0.125	-0.330
-690.383	-126.761	-0.171	0.025
-689.368	463.341	-0.034	-0.075
-688.354	-200.000	-0.012	0.183
-687.339	-38.716	0.244	-0.128
-686.324	598.847	-0.085	-0.210
-685.310	287.645	-0.054	-0.097
-684.295	200.132	0.106	-0.163
-683.281	289.301	-0.016	0.029
-682.266	-181.073	0.196	0.004
-681.251	-180.071	-0.166	0.004
-680.237	-90.951	0.066	0.019
-679.222	-121.342	-0.126	0.021
-678.208	-200.000	-0.042	-0.473
-677.193	44.035	-0.035	0.032
-676.178	291.685	-0.027	0.049
-675.164	510.016	0.085	0.196
-674.149	-100.229	-0.133	0.033
-673.135	31.485	-0.307	-0.263
-672.120	-33.010	0.367	-0.203
-671.105	-60.368	0.143	0.060
-670.091	60.596	0.187	-0.185
-669.076	-47.429	-0.065	-0.032
-668.062	178.169	0.047	0.068
-667.047	-80.029	0.073	-0.024
-666.032	320.355	-0.016	0.030
-665.018	-98.441	-0.054	0.014
-664.003	75.239	-0.090	-0.094
-662.989	233.430	-0.056	0.092
-661.974	50.806	-0.279	0.263
-660.959	-102.246	0.398	0.095
-659.945	-79.099	0.127	-0.043
-658.930	-168.864	-0.338	-0.013
-657.916	-200.000	0.060	-0.273
-656.901	800.000	-0.076	0.268
-655.886	-38.930	0.157	0.083
-654.872	-11.486	0.119	0.078
-653.857	-200.000	-0.029	-0.469
-652.843	-105.133	-0.195	0.044
-651.828	-22.135	-0.047	-0.028
-650.814	-99.899	-0.053	0.013
-649.799	108.224	0.170	0.201
-648.784	-84.701	-0.110	-0.034
-647.770	-66.714	0.108	-0.042
-646.755	-49.168	0.077	-0.037
-645.741	248.585	0.149	-0.251
-644.726	-143.203	-0.108	0.010
-643.711	93.926	-0.069	-0.077
-642.697	-65.016	-0.146	0.059
-641.682	-17.743	-0.141	0.088
-640.668	466.462	0.132	-0.294
-639.653	-46.663	-0.198	0.096
-638.638	-12.571	-0.228	0.148
-637.624	-199.967	0.282	0.001
-636.609	-200.000	-0.025	0.160
-635.595	-200.000	0.004	-0.187
-634.580	22.105	-0.090	-0.073
-633.565	227.324	0.220	0.356
-632.551	-131.158	0.200	-0.026
-631.536	679.043	0.051	-0.131
-630.522	-107.388	-0.158	-0.035
-629.507	393.110	0.099	-0.206
-628.492	-51.965	-0.374	-0.173
-627.478	-200.000	-0.059	-0.261
-626.463	298.037	-0.113	-0.207
-625.449	-27.262	0.204	-0.118
-624.434	-132.199	0.059	0.008
-623.419	-38.279	-0.187	0.099
-622.405	-161.787	0.269	0.014
-621.390	-200.000	-0.042	-0.291
-620.376	-200.000	-0.010	-0.164
-619.361	320.445	0.013	0.024
-618.346	-140.516	0.114	-0.012
-617.332	62.149	-0.316	-0.314
-616.317	-176.835	0.055	-0.001
-615.303	619.903	-0.013	-0.032
-614.288	-8.011	0.210	0.141
-613.273	81.758	0.069	0.074
-612.259	-27.824	-0.158	-0.091
-611.244	151.744	0.122	-0.166
-610.230	800.000	-0.042	0.126
-609.215	800.000	0.053	-0.149
-608.201	-123.887	0.370	-0.058
-607.186	223.334	0.205	-0.328
-606.171	24.670	0.229	0.188
-605.157	407.344	0.033	0.070
-604.142	-31.818	-0.297	0.166
-603.128	800.000	-0.066	0.222
-602.113	169.590	-0.065	0.092
-601.098	-200.000	0.011	0.186
-600.084	44.593	0.238	0.217
-599.069	-200.000	-0.022	0.265
-598.055	-200.000	-0.013	0.103
-597.040	-200.000	-0.004	-0.200
-596.025	-200.000	-0.018	0.104
-595.011	146.296	0.157	0.210
-593.996	-7.669	0.287	0.192
-592.982	-200.000	0.038	-0.272
-591.967	157.107	0.116	0.159
-590.952	800.000	0.077	-0.256
-589.938	162.951	0.195	-0.272
-588.923	271.953	-0.074	0.129
-587.909	-119.905	-0.233	0.040
-586.894	52.168	0.273	-0.259
-585.879	-103.811	-0.270	-0.063
-584.865	-200.000	0.027	0.316
-583.850	122.816	0.060	-0.074
-582.836	-200.000	0.041	0.244
-581.821	168.559	0.251	-0.354
-580.806	-54.069	-0.169	0.076
-579.792	-200.000	-0.032	-0.356
-578.777	-200.000	-0.019	-0.091
-577.763	800.000	0.065	-0.245
-576.748	-11.454	0.068	0.044
-575.733	192.487	0.106	-0.159
-574.719	-200.000	-0.004	-0.128
-573.704	126.810	-0.056	-0.070
-572.690	-200.000	-0.051	-0.254
-571.675	-200.000	-0.060	0.365
-570.661	2.714	0.196	0.141
-569.646	800.000	-0.041	-0.135
-568.631	800.000	0.054	-0.203
-567.617	-27.158	0.084	-0.049
-566.602	-98.911	-0.413	0.104
-565.588	109.851	-0.060	0.071
-564.573	-200.000	-0.012	-0.178
-563.558	333.679	0.098	0.189
-562.544	-30.813	0.287	-0.161
-561.529	-36.795	0.071	-0.038
-560.515	-151.185	0.055	-0.004
-559.500	118.643	-0.086	-0.106
-558.485	149.167	-0.085	-0.114
-557.471	-200.000	-0.014	-0.174
-556.456	-28.440	0.038	0.022
-555.442	-81.367	-0.172	0.056
-554.427	43.866	-0.127	-0.115
-553.412	18.793	0.169	0.134
-552.398	-30.019	-0.233	-0.132
-551.383	-81.331	-0.182	-0.060
-550.369	27.005	0.119	-0.099
-549.354	-173.733	0.183	-0.005
-548.339	733.280	-0.039	0.103
-547.325	30.078	0.085	0.072
-546.310	-200.000	0.019	0.151
-545.296	-200.000	-0.017	0.186
-544.281	800.000	-0.062	0.241
-543.266	-93.030	-0.217	0.060
-542.252	-200.000	0.011	0.454
-541.237	-200.000	-0.035	0.282
-540.223	13.636	0.020	0.016
-539.208	-91.343	-0.405	-0.115
-538.193	230.418	0.232	0.377
-537.179	54.074	-0.101	-0.097
-536.164	41.819	0.208	-0.187
-535.150	115.831	0.123	0.149
-534.135	800.000	0.022	-0.089
-533.121	-71.860	0.252	0.093
-532.106	561.348	0.039	-0.093
-531.091	-141.921	-0.113	-0.011
-530.077	44.979	0.191	-0.174
-529.062	-92.503	-0.407	-0.113
-528.048	-200.000	0.262	-0.001
-527.033	439.218	-0.133	0.287
-526.018	800.000	-0.103	0.425
-525.004	-27.368	-0.026	0.015
-523.989	800.000	-0.035	0.105
-522.975	-125.246	0.048	-0.007
-521.960	-63.379	0.180	-0.073
-520.945	800.000	0.041	-0.165
-519.931	63.906	-0.022	0.022
-518.916	71.008	-0.068	-0.069
-517.902	17.972	-0.161	-0.127
-516.887	-74.411	-0.347	0.124
-515.872	-140.073	0.456	0.048
-514.858	-29.027	0.349	-0.198
-513.843	129.873	-0.171	-0.217
-512.829	117.240	0.334	0.406
-511.814	-5.547	0.282	-0.191
-510.799	27.625	-0.191	-0.159
-509.785	-77.907	-0.103	0.035
-508.770	174.106	-0.092	0.132
-507.756	415.856	-0.106	-0.224
-506.741	113.051	0.043	0.052
-505.726	-7.598	-0.366	-0.245
-504.712	-93.571	-0.239	0.065
-503.697	-70.238	-0.042	0.016
-502.683	163.263	-0.151	-0.210
-501.668	-24.037	0.120	0.071
-500.653	359.601	-0.058	0.116
-499.639	29.566	0.138	0.116
-498.624	800.000	-0.088	0.263
-497.610	-133.499	-0.255	0.032
-496.595	-200.000	-0.015	-0.085
-495.581	298.948	-0.108	-0.196
-494.566	-125.677	-0.133	-0.020
-493.551	311.000	-0.088	-0.163
-492.537	-52.724	-0.119	0.054
-491.522	246.291	0.204	0.340
-490.508	-150.702	0.297	0.022
-489.493	-84.358	-0.423	-0.132
-488.478	16.314	0.123	-0.096
-487.464	670.899	0.029	0.073
-486.449	800.000	-0.093	0.358
-485.435	-132.081	0.189	-0.024
-484.420	800.000	0.234	-0.641
-483.405	655.091	0.074	0.188
-482.391	-96.621	0.209	0.054
-481.376	-200.000	-0.015	-0.300
-480.362	-77.833	0.140	0.048
-479.347	-200.000	0.009	0.146
-478.332	32.755	-0.067	-0.057
-477.318	263.106	0.188	-0.322
-476.303	21.903	-0.254	0.205
-475.289	-61.307	-0.128	-0.053
-474.274	-200.000	-0.016	-0.179
-473.259	-65.724	-0.211	0.083
-472.245	-109.135	0.148	-0.031
-471.230	174.465	0.134	-0.192
-470.216	94.868	-0.289	-0.325
-469.201	-56.828	0.355	0.155
-468.186	-141.192	0.199	-0.020
-467.172	439.297	0.097	-0.210
-466.157	131.504	0.234	-0.297
-465.143	-200.000	0.010	-0.135
-464.128	197.007	-0.075	0.113
-463.113	-200.000	0.033	-0.511
-462.099	329.223	0.071	0.134
-461.084	172.177	0.090	0.128
-460.070	-85.042	0.106	-0.033
-459.055	-109.543	-0.197	-0.041
-458.040	-200.000	-0.015	-0.127
-457.026	-200.000	-0.030	0.134
-456.011	306.691	0.116	-0.213
-454.997	10.658	-0.119	-0.090
-453.982	-200.000	-0.004	-0.145
-452.968	260.279	-0.127	0.217
-451.953	-136.763	0.282	-0.032
-450.938	155.437	0.171	-0.233
-449.924	171.386	0.178	-0.253
-448.909	217.125	-0.232	0.365
-447.895	612.486	0.148	0.365
-446.880	-40.713	-0.118	0.060
-445.865	0.710	0.184	0.130
-444.851	-65.689	-0.233	-0.092
-443.836	800.000	-0.073	0.278
-442.822	662.404	-0.066	0.167
-441.807	-3.867	0.049	0.034
-440.792	-200.000	0.012	0.062
-439.778	-156.278	-0.138	0.009
-438.763	-57.118	0.255	0.111
-437.749	800.000	-0.073	-0.252
-436.734	37.471	0.257	-0.225
-435.719	-98.952	0.370	-0.093
-434.705	199.431	0.147	0.222
-433.690	65.676	0.089	0.089
-432.676	88.432	0.174	0.191
-431.661	282.711	0.083	-0.147
-430.646	321.687	0.058	0.108
-429.632	658.526	-0.145	-0.367
-428.617	111.263	-0.138	0.164
-427.603	-83.488	-0.252	0.080
-426.588	105.079	-0.079	-0.092
-425.573	30.929	-0.157	0.133
-424.559	800.000	-0.070	0.268
-423.544	641.231	0.134	-0.338
-422.530	31.897	-0.039	-0.033
-421.515	-100.981	0.243	-0.059
-420.500	-74.937	-0.122	0.043
-419.486	161.233	-0.045	0.062
-418.471	-76.888	-0.165	-0.057
-417.457	-103.361	-0.125	-0.029
-416.442	180.590	-0.169	0.245
-415.428	-200.000	0.014	0.082
-414.413	-137.110	-0.331	-0.037
-413.398	-104.962	-0.149	0.034
-412.384	-114.649	0.427	-0.081
-411.369	124.081	0.225	0.279
-410.355	93.188	-0.336	0.375
-409.340	530.986	-0.035	-0.082
-408.325	-67.261	-0.216	0.084
-407.311	109.543	-0.086	-0.101
-406.296	-64.599	0.202	-0.081
-405.282	-114.919	0.313	0.059
-404.267	-134.894	-0.402	0.048
-403.252	800.000	-0.050	-0.151
-402.238	-92.063	-0.230	-0.064
-401.223	13.452	-0.064	0.049
-400.209	-79.891	-0.327	0.108
-399.194	-200.000	0.000	0.288
-398.179	35.172	-0.140	-0.121
-397.165	-196.995	-0.618	0.004
-396.150	-48.995	-0.178	0.084
-395.136	231.698	-0.124	-0.201
-394.121	-92.184	0.239	0.067
-393.106	289.444	-0.117	0.210
-392.092	58.805	0.210	0.203
-391.077	-103.855	0.064	0.015
-390.063	267.101	0.104	-0.179
-389.048	3.455	0.226	0.162
-388.033	-29.472	-0.155	0.087
-387.019	172.501	0.104	-0.148
-386.004	67.611	-0.169	0.170
-384.990	98.792	0.220	-0.251
-383.975	-200.000	0.007	-0.152
-382.960	97.486	0.176	0.199
-381.946	505.718	0.087	0.199
-380.931	-167.110	-0.190	-0.008
-379.917	378.310	-0.149	0.301
-378.902	-88.015	-0.138	-0.041
-377.888	-62.447	-0.208	0.085
-376.873	-52.816	-0.249	0.113
-375.858	800.000	0.089	-0.273
-374.844	-109.654	-0.200	-0.042
-373.829	-155.809	-0.343	0.022
-372.815	57.793	0.203	0.195
-371.800	-200.000	-0.006	-0.443
-370.785	750.801	-0.125	0.332
-369.771	180.666	-0.187	0.271
-368.756	-134.373	0.207	-0.025
-367.742	-127.281	-0.098	-0.014
-366.727	-167.241	-0.129	0.005
-365.712	-127.552	0.376	0.054
-364.698	30.513	0.128	0.108
-363.683	369.083	0.154	-0.306
-362.669	-40.854	0.225	0.114
-361.654	658.958	-0.055	0.141
-360.639	-27.355	0.088	-0.050
-359.625	342.978	0.046	0.089
-358.610	800.000	0.021	-0.070
-357.596	-60.160	0.038	-0.016
-356.581	278.349	0.167	-0.294
-355.566	16.150	-0.242	-0.188
-354.552	66.910	0.113	-0.113
-353.537	106.161	0.046	-0.054
-352.523	-200.000	-0.017	0.571
-351.508	-200.000	0.020	-0.133
-350.493	800.000	0.035	-0.112
-349.479	212.747	-0.146	-0.227
-348.464	-149.339	-0.411	-0.032
-347.450	-26.775	0.267	-0.154
-346.435	-56.035	0.242	-0.106
-345.420	-200.000	-0.009	0.168
-344.406	-166.008	0.051	-0.002
-343.391	-65.443	-0.312	-0.123
-342.377	610.229	0.058	0.142
-341.362	800.000	0.035	-0.138
-340.348	168.502	-0.009	-0.012
-339.333	368.406	-0.071	-0.142
-338.318	-119.669	0.230	-0.039
-337.304	800.000	0.038	0.115
-336.289	489.862	0.103	-0.232
-335.275	800.000	-0.102	-0.357
-334.260	-114.782	0.176	-0.033
-333.245	-200.000	0.035	0.181
-332.231	610.371	0.068	-0.167
-331.216	-200.000	0.016	0.250
-330.202	-28.731	-0.077	-0.044
-329.187	276.469	0.072	0.126
-328.172	31.518	-0.129	-0.109
-327.158	199.223	0.093	-0.141
-326.143	-157.999	0.365	0.021
-325.129	146.279	-0.064	0.084
-324.114	3.866	-0.201	-0.144
-323.099	7.577	0.094	0.069
-322.085	-8.816	-0.222	-0.146
-321.070	-54.824	-0.104	-0.046
-320.056	13.902	-0.145	0.111
-319.041	0.756	0.315	0.222
-318.026	-4.789	-0.195	-0.132
-317.012	174.859	-0.218	0.310
-315.997	282.050	0.058	0.103
-314.983	336.645	0.044	0.085
-313.968	-200.000	0.041	0.437
-312.953	275.351	0.004	0.007
-311.939	-122.419	-0.427	0.068
-310.924	-24.337	-0.328	0.192
-309.910	94.957	0.104	0.117
-308.895	-24.835	0.320	-0.187
-307.880	127.346	-0.024	0.030
-306.866	-200.000	-0.006	-0.045
-305.851	-87.347	-0.363	-0.108
-304.837	-65.650	0.099	0.039
-303.822	800.000	0.080	-0.217
-302.807	800.000	-0.041	0.145
-301.793	-107.585	-0.058	0.012
-300.778	-121.558	-0.205	0.033
-299.764	22.697	-0.064	0.052
-298.749	-23.837	0.317	0.186
-297.735	-200.000	0.041	0.268
-296.720	-49.517	-0.108	-0.051
-295.705	32.953	0.170	-0.144
-294.691	83.309	0.070	-0.075
-293.676	111.808	0.128	-0.151
-292.662	-116.135	0.255	0.046
-291.647	-15.702	-0.148	0.092
-290.632	158.512	0.135	-0.184
-289.618	-200.000	0.024	-0.221
-288.603	-66.854	-0.379	-0.147
-287.589	195.976	-0.127	-0.190
-286.574	335.574	-0.059	0.113
-285.559	32.569	0.113	-0.096
-284.545	-146.059	-0.193	-0.017
-283.530	526.858	0.099	0.230
-282.516	-59.902	-0.069	-0.029
-281.501	483.333	-0.031	-0.070
-280.486	36.718	0.199	0.172
-279.472	128.207	0.166	0.207
-278.457	-79.993	-0.035	0.011
-277.443	239.427	-0.211	-0.345
-276.428	151.677	-0.218	-0.292
-275.413	-69.944	-0.085	0.032
-274.399	-101.846	-0.252	0.060
-273.384	-200.000	-0.003	0.081
-272.370	-200.000	0.067	-0.462
-271.355	-30.795	-0.205	-0.114
-270.340	-47.354	0.383	0.183
-269.326	-27.323	0.172	0.098
-268.311	-29.126	0.264	-0.148
-267.297	511.952	-0.026	-0.060
-266.282	273.317	0.038	-0.066
-265.267	-26.519	0.145	-0.083
-264.253	7.381	0.166	0.121
-263.238	298.943	0.180	0.325
-262.224	800.000	0.043	0.171
-261.209	93.899	-0.202	-0.224
-260.195	-200.000	0.001	-0.216
-259.180	0.628	0.101	0.071
-258.165	-58.681	-0.375	-0.159
-257.151	-95.399	-0.243	-0.064
-256.136	400.608	-0.087	0.179
-255.122	113.596	0.119	0.142
-254.107	-200.000	-0.015	-0.320
-253.092	564.620	0.123	-0.292
-252.078	-168.157	0.361	-0.014
-251.063	62.421	-0.344	-0.337
-250.049	208.866	0.210	0.321
-249.034	-59.679	-0.176	0.074
-248.019	800.000	-0.112	-0.326
-247.005	-173.966	0.207	-0.006
-245.990	-150.756	0.232	0.017
-244.976	46.211	-0.161	-0.146
-243.961	-87.161	0.097	0.029
-242.946	-45.004	-0.107	-0.052
-241.932	-122.986	-0.122	0.019
-240.917	53.759	-0.069	0.065
-239.903	88.825	0.415	0.452
-238.888	248.564	-0.181	0.299
-237.873	471.239	-0.017	-0.038
-236.859	-110.504	-0.297	0.060
-235.844	-126.342	-0.214	-0.031
-234.830	327.640	0.070	0.131
-233.815	-200.000	0.036	-0.453
-232.800	-2.367	0.066	0.045
-231.786	-54.157	-0.353	0.157
-230.771	-200.000	-0.022	0.132
-229.757	-200.000	0.011	-0.088
-228.742	22.647	-0.150	-0.120
-227.727	-43.592	-0.263	0.130
-226.713	90.302	0.199	0.218
-225.698	227.661	0.057	-0.091
-224.684	800.000	0.072	0.234
-223.669	-200.000	0.011	-0.082
-222.655	-34.727	0.489	0.262
-221.640	-80.343	0.089	-0.029
-220.625	144.152	-0.141	0.184
-219.611	-200.000	-0.016	0.262
-218.596	-25.584	-0.056	-0.032
-217.582	167.036	0.132	-0.183
-216.567	-200.000	0.023	-0.308
-215.552	531.990	0.142	-0.328
-214.538	800.000	-0.075	-0.222
-213.523	49.797	0.143	0.132
-212.509	262.622	-0.114	-0.194
-211.494	-200.000	0.017	0.352
-210.479	22.629	-0.158	-0.127
-209.465	-101.215	0.070	0.017
-208.450	159.765	-0.028	0.038
-207.436	481.340	-0.088	0.196
-206.421	-20.346	-0.210	0.126
-205.406	488.278	-0.059	-0.132
-204.392	-200.000	-0.014	0.223
-203.377	-176.378	-0.096	0.002
-202.363	-47.128	-0.067	-0.032
-201.348	800.000	0.139	0.442
-200.333	-129.951	0.125	0.017
-199.319	-200.000	0.026	-0.235
-198.304	-200.000	-0.003	-0.090
-197.290	-200.000	0.053	0.236
-196.275	-200.000	-0.081	0.432
-195.260	-90.157	-0.162	0.046
-194.246	333.079	0.066	0.124
-193.231	148.794	0.154	0.203
-192.217	800.000	-0.116	0.376
-191.202	800.000	0.035	0.121
-190.187	-65.564	-0.395	-0.155
-189.173	-200.000	0.014	-0.151
-188.158	-200.000	-0.013	-0.367
-187.144	-200.000	0.009	0.083
-186.129	26.400	0.090	0.074
-185.114	24.984	0.238	0.193
-184.100	214.745	-0.097	0.150
-183.085	-131.371	0.125	0.016
-182.071	18.382	0.025	-0.019
-181.056	800.000	0.039	-0.148
-180.042	-158.286	0.050	-0.003
-179.027	153.822	0.039	-0.052
-178.012	-140.775	0.100	-0.010
-176.998	83.223	-0.087	-0.092
-175.983	-154.320	0.288	0.019
-174.969	263.156	0.145	0.247
-173.954	-55.868	-0.061	-0.027
-172.939	800.000	-0.131	0.458
-171.925	13.375	-0.120	0.091
-170.910	441.086	-0.178	-0.380
-169.896	-136.425	0.322	-0.037
-168.881	591.538	-0.055	0.132
-167.866	396.881	0.087	-0.177
-166.852	208.201	0.089	0.135
-165.837	1.564	0.221	0.155
-164.823	-84.717	-0.235	0.072
-163.808	-131.165	0.368	0.048
-162.793	-200.000	-0.025	-0.117
-161.779	-200.000	-0.050	-0.426
-160.764	-16.777	0.301	-0.186
-159.750	132.693	0.119	-0.150
-158.735	-34.637	-0.302	0.161
-157.720	369.900	0.125	0.248
-156.706	366.072	-0.018	0.034
-155.691	-36.538	0.168	0.088
-154.677	-124.784	-0.323	-0.049
-153.662	168.896	-0.152	0.212
-152.647	727.387	-0.062	-0.161
-151.633	-8.570	-0.220	-0.144
-150.618	33.837	-0.277	0.235
-149.604	800.000	-0.108	-0.328
-148.589	-101.165	-0.156	-0.037
-147.574	-200.000	0.003	-0.048
-146.560	182.533	-0.072	-0.104
-145.545	-69.637	-0.257	0.096
-144.531	-144.110	0.333	0.030
-143.516	38.722	-0.167	-0.145
-142.502	241.590	-0.126	-0.206
-141.487	246.599	-0.064	-0.105
-140.472	126.148	-0.085	0.105
-139.458	142.449	-0.140	0.181
-138.443	-100.924	-0.086	-0.021
-137.429	30.397	0.328	0.274
-136.414	-86.260	-0.476	-0.143
-135.399	-116.774	-0.100	-0.018
-134.385	77.323	-0.191	0.198
-133.370	316.536	0.220	-0.405
-132.356	-118.683	-0.166	-0.029
-131.341	764.694	-0.053	0.140
-130.326	-73.733	-0.544	0.193
-129.312	85.431	0.246	0.263
-128.297	-74.225	-0.332	-0.117
-127.283	26.540	0.174	-0.142
-126.268	24.349	0.169	-0.137
-125.253	800.000	-0.055	-0.212
-124.239	-200.000	-0.036	-0.196
-123.224	-200.000	-0.031	0.273
-122.210	297.951	-0.120	-0.216
-121.195	209.179	0.205	0.313
-120.180	364.579	0.175	-0.343
-119.166	-132.851	0.054	-0.007
-118.151	231.072	0.051	0.082
-117.137	-30.355	-0.383	0.212
-116.122	-2.952	0.066	-0.045
-115.107	449.737	0.093	0.200
-114.093	352.885	-0.082	-0.158
-113.078	-1.952	-0.283	0.194
-112.064	-112.497	-0.286	-0.056
-111.049	800.000	-0.038	-0.152
-110.034	800.000	-0.156	0.463
-109.020	-200.000	0.019	-0.181
-108.005	303.996	0.120	0.217
-106.991	54.433	0.184	0.173
-105.976	202.122	0.099	-0.149
-104.962	49.639	-0.141	-0.129
-103.947	-68.273	-0.124	0.047
-102.932	-58.072	-0.362	0.154
-101.918	-183.225	0.540	0.009
-100.903	-96.395	-0.597	0.154
-99.889	99.839	-0.085	0.095
-98.874	-118.972	-0.028	-0.005
-97.859	80.089	0.030	-0.031
-96.845	47.853	-0.088	0.080
-95.830	125.719	-0.145	-0.178
-94.816	75.237	-0.143	0.147
-93.801	91.889	0.126	0.138
-92.786	-200.000	0.041	-0.381
-91.772	294.050	0.078	0.139
-90.757	-30.163	-0.159	-0.088
-89.743	-118.172	-0.299	-0.052
-88.728	2.967	0.163	-0.116
-87.713	-200.000	-0.022	0.260
-86.699	-17.016	-0.315	-0.194
-85.684	-79.550	0.106	0.035
-84.670	159.937	-0.219	0.297
-83.655	214.475	0.174	0.268
-82.640	39.432	-0.034	0.030
-81.626	23.234	-0.114	0.092
-80.611	100.718	-0.076	0.086
-79.597	-73.029	0.140	0.050
-78.582	800.000	0.153	-0.479
-77.567	-129.871	0.323	0.043
-76.553	-80.451	-0.274	0.089
-75.538	800.000	-0.077	0.283
-74.524	800.000	-0.015	0.058
-73.509	-200.000	-0.025	-0.267
-72.494	42.635	-0.270	0.239
-71.480	-200.000	-0.008	0.161
-70.465	70.237	-0.377	0.379
-69.451	543.246	-0.097	0.225
-68.436	-200.000	0.008	0.225
-67.422	23.715	0.106	-0.085
-66.407	-27.212	0.250	0.142
-65.392	-45.253	0.199	0.096
-64.378	149.984	-0.106	0.140
-63.363	71.021	-0.024	0.025
-62.349	491.190	-0.057	-0.126
-61.334	95.622	-1.275	-1.415
-60.319	24.190	0.792	0.636
-59.305	204.647	-0.911	-1.375
-58.290	454.001	0.692	1.491
-57.276	800.000	0.448	1.509
-56.261	-200.000	135.517	627.356
-55.246	345.271	1631.725	3117.235
-54.232	139.016	2766.389	3536.993
-53.217	80.922	2175.020	2282.339
-52.203	28.798	1696.085	1397.265
-51.188	21.927	1521.896	1206.642
-50.173	20.404	1501.690	1180.232
-49.159	44.032	1577.489	1406.127
-48.144	39.687	1587.728	1384.782
-47.130	21.758	1537.948	1218.007
-46.115	19.335	1521.420	1188.187
-45.100	19.061	1518.617	1184.064
-44.086	19.068	1516.383	1182.325
-43.071	19.013	1514.333	1180.304
-42.057	18.978	1512.993	1178.973
-41.042	18.905	1512.144	1177.763
-40.027	19.023	1509.792	1176.694
-39.013	19.051	1508.114	1175.525
-37.998	18.954	1507.266	1174.158
-36.984	18.971	1506.836	1173.893
-35.969	19.024	1504.727	1172.567
-34.954	19.055	1502.896	1171.301
-33.940	19.028	1502.049	1170.410
-32.925	19.045	1500.647	1169.389
-31.911	19.003	1499.425	1168.104
-30.896	19.012	1498.465	1167.369
-29.881	19.156	1496.405	1166.696
-28.867	19.139	1495.206	1165.601
-27.852	19.088	1494.090	1164.341
-26.838	19.051	1492.963	1163.167
-25.823	19.132	1491.188	1162.285
-24.809	19.140	1489.593	1161.050
-23.794	19.022	1488.885	1159.652
-22.779	19.017	1487.484	1158.486
-21.765	19.132	1486.521	1158.460
-20.750	19.125	1484.998	1157.180
-19.736	19.220	1483.439	1156.556
-18.721	19.149	1482.278	1155.131
-17.706	19.066	1481.705	1154.079
-16.692	19.092	1480.680	1153.414
-15.677	19.046	1479.772	1152.351
-14.663	19.054	1478.478	1151.354
-13.648	19.084	1477.505	1150.750
-12.633	19.055	1476.555	1149.772
-11.619	19.110	1475.911	1149.585
-10.604	19.120	1474.893	1148.813
-9.590	19.080	1474.025	1147.831
-8.575	19.026	1473.654	1147.136
-7.560	19.022	1472.497	1146.159
-6.546	19.029	1471.978	1145.759
-5.531	19.038	1470.487	1144.615
-4.517	18.999	1469.876	1143.835
-3.502	18.947	1469.102	1142.835
-2.487	19.077	1467.808	1142.651
-1.473	18.991	1466.926	1141.347
-0.458	19.030	1465.224	1140.234
0.556	17.929	1455.588	1128.643
1.571	14.744	1431.613	1089.216
2.586	11.506	1370.347	1022.273
3.600	10.066	1286.340	951.050
4.615	9.125	1243.571	913.994
5.629	8.211	1187.403	867.668
6.644	4.263	1108.172	789.628
7.659	0.896	1075.483	749.610
8.673	0.694	1069.827	744.606
9.688	0.512	1067.045	741.711
10.702	0.627	1064.690	740.571
11.717	0.448	1062.957	738.426
12.731	1.872	1062.764	745.192
13.746	6.678	1068.834	772.967
14.761	13.049	1077.495	810.534
15.775	16.727	1081.792	831.793
16.790	16.838	1080.815	831.512
17.804	15.799	1078.955	824.917
18.819	14.856	1077.323	818.976
19.834	14.550	1075.729	816.199
20.848	14.415	1074.799	814.761
21.863	14.167	1073.801	812.719
22.877	13.887	1073.172	810.802
23.892	13.571	1072.834	808.932
24.907	13.537	1071.144	807.424
25.921	13.549	1071.084	807.364
26.936	13.536	1070.251	806.604
27.950	13.537	1069.678	806.103
28.965	13.598	1068.914	805.753
29.980	13.760	1067.300	805.253
30.994	13.733	1066.880	804.733
32.009	13.816	1065.880	804.311
33.023	13.846	1065.271	803.926
34.038	13.868	1064.272	803.206
35.053	13.802	1063.524	802.249
36.067	13.706	1062.872	801.225
37.082	13.721	1061.726	800.360
38.096	13.610	1061.842	799.844
39.111	13.734	1060.720	799.526
40.126	13.709	1059.641	798.521
41.140	13.741	1058.165	797.493
42.155	13.548	1057.755	796.185
43.169	13.529	1056.792	795.295
44.184	13.555	1055.612	794.463
45.199	13.685	1053.950	793.763
46.213	13.686	1053.086	793.051
47.228	13.635	1052.348	792.179
48.242	13.569	1051.107	790.858
49.257	13.645	1050.385	790.608
50.271	13.707	1049.058	789.834
51.286	13.596	1048.694	788.961
52.301	13.799	1047.383	788.872
53.315	13.826	1046.728	788.436
54.330	13.670	1046.164	787.202
55.344	13.553	1045.008	785.709
56.359	13.550	1044.303	785.094
57.374	13.593	1043.602	784.699
58.388	13.773	1042.370	784.555
59.403	13.653	1041.670	783.395
60.417	13.622	1040.690	782.442
61.432	13.615	1040.210	781.977
62.447	13.539	1039.504	781.019
63.461	13.558	1038.821	780.527
64.476	13.464	1037.619	779.114
65.490	13.566	1036.824	778.925
66.505	13.542	1036.138	778.227
67.520	13.587	1035.302	777.743
68.534	13.589	1033.954	776.669
69.549	13.717	1033.362	776.758
70.563	13.631	1032.561	775.682
71.578	13.656	1032.081	775.371
72.593	13.426	1031.579	773.850
73.607	13.454	1030.338	772.980
74.622	13.474	1029.374	772.283
75.636	13.470	1028.621	771.631
76.651	13.536	1027.578	771.089
77.666	13.633	1026.902	770.966
78.680	13.435	1026.360	769.568
79.695	13.497	1025.723	769.311
80.709	13.449	1025.351	768.739
81.724	13.561	1024.472	768.536
82.739	13.673	1023.310	768.115
83.753	13.640	1022.732	767.460
84.768	13.643	1021.893	766.775
85.782	13.651	1021.126	766.170
86.797	13.653	1020.410	765.571
87.812	13.716	1019.070	764.789
88.826	13.721	1017.962	763.912
89.841	13.677	1017.480	763.281
90.855	13.753	1016.514	762.840
91.870	13.656	1016.029	761.962
92.884	13.686	1015.427	761.581
93.899	13.694	1014.633	760.956
94.914	13.674	1013.722	760.113
95.928	13.844	1013.105	760.360
96.943	13.898	1012.588	760.153
97.957	13.786	1011.457	758.727
98.972	13.676	1010.243	757.245
99.987	13.814	1009.981	757.613
101.001	13.760	1008.943	756.520
102.016	13.859	1008.315	756.434
103.030	13.905	1007.068	755.637
104.045	13.764	1006.507	754.512
105.060	13.916	1005.280	754.213
106.074	13.821	1004.533	753.154
107.089	13.834	1003.527	752.394
108.103	13.705	1002.855	751.240
109.118	13.711	1002.073	750.616
110.133	13.664	1001.412	749.842
111.147	13.665	1000.347	748.979
112.162	13.636	999.332	748.026
113.176	13.706	998.330	747.523
114.191	13.860	996.963	747.129
115.206	13.776	996.577	746.396
116.220	13.869	995.912	746.247
117.235	13.756	995.449	745.328
118.249	13.741	994.055	744.149
119.264	13.722	993.146	743.320
120.279	13.817	992.222	742.985
121.293	13.696	991.605	741.917
122.308	13.720	991.233	741.681
123.322	13.645	990.368	740.632
124.337	13.665	988.845	739.517
125.352	13.557	988.078	738.398
126.366	13.787	986.316	738.041
127.381	13.613	985.968	736.940
128.395	13.501	984.872	735.555
129.410	13.668	983.362	735.106
130.424	13.630	982.812	734.460
131.439	13.562	981.795	733.332
132.454	13.728	981.078	733.466
133.468	13.715	980.057	732.583
134.483	13.688	980.153	732.468
135.497	13.779	978.949	731.907
136.512	13.702	978.400	731.093
137.527	13.645	977.628	730.199
138.541	13.673	976.522	729.434
139.556	13.743	975.828	729.156
140.570	13.762	975.287	728.770
141.585	13.823	974.212	728.173
142.600	13.891	973.762	728.069
143.614	13.805	972.551	726.722
144.629	13.940	971.956	726.804
145.643	13.906	971.627	726.346
146.658	13.849	970.463	725.161
147.673	13.850	969.620	724.471
148.687	13.985	968.498	724.157
149.702	13.987	967.494	723.350
150.716	13.911	966.930	722.536
151.731	13.815	966.133	721.458
152.746	13.863	964.943	720.716
153.760	13.902	964.207	720.271
154.775	13.959	963.312	719.784
155.789	13.889	963.206	719.338
156.804	13.989	962.118	718.895
157.819	14.011	961.303	718.318
158.833	13.964	961.181	717.962
159.848	13.961	960.456	717.343
160.862	14.180	959.192	717.279
161.877	14.027	958.778	716.245
162.892	14.066	957.992	715.764
163.906	13.872	957.547	714.535
164.921	14.032	956.057	714.045
165.935	14.047	955.082	713.318
166.950	13.920	954.382	712.187
167.964	14.121	953.246	712.136
168.979	14.136	952.652	711.697
169.994	14.121	951.309	710.565
171.008	13.989	951.062	709.756
172.023	14.002	950.471	709.305
173.037	14.079	949.366	708.746
174.052	14.161	948.372	708.291
175.067	14.249	947.651	708.064
176.081	14.084	947.069	706.864
177.096	14.052	946.004	705.874
178.110	14.020	945.190	705.066
179.125	14.169	944.524	705.138
180.140	14.266	943.541	704.753
181.154	14.188	942.942	703.915
182.169	14.191	942.343	703.418
183.183	14.309	942.161	703.716
184.198	14.239	941.502	702.868
185.213	14.423	940.460	702.805
186.227	14.498	939.615	702.424
187.242	14.310	939.804	701.714
188.256	14.321	938.718	700.888
189.271	14.411	937.777	700.501
190.286	14.300	937.259	699.583
191.300	14.271	936.170	698.590
192.315	14.196	935.679	697.847
193.329	14.162	934.885	697.047
194.344	14.315	934.066	697.015
195.359	14.198	933.913	696.352
196.373	14.333	932.826	696.046
197.388	14.349	932.341	695.689
198.402	14.473	931.828	695.760
199.417	14.509	931.483	695.591
200.432	14.490	930.862	694.989
201.446	14.608	930.477	695.132
202.461	14.614	929.990	694.728
203.475	14.537	929.405	693.911
204.490	14.489	928.799	693.196
205.504	14.582	927.590	692.621
206.519	14.568	927.294	692.278
207.534	14.534	926.495	691.479
208.548	14.626	925.485	691.046
209.563	14.600	924.883	690.428
210.577	14.672	923.957	689.973
211.592	14.571	923.731	689.327
212.607	14.714	923.009	689.315
213.621	14.710	922.473	688.840
214.636	14.722	921.791	688.318
215.650	14.708	920.988	687.602
216.665	14.608	920.749	686.951
217.680	14.768	920.195	687.132
218.694	14.765	919.495	686.536
219.709	14.878	918.825	686.441
220.723	14.778	918.304	685.578
221.738	14.759	917.384	684.756
222.753	14.773	916.569	684.143
223.767	14.815	915.953	683.797
224.782	14.887	914.978	683.299
225.796	15.032	913.952	683.066
226.811	15.069	913.369	682.722
227.826	14.895	912.954	681.639
228.840	14.684	912.805	680.607
229.855	14.790	911.800	680.230
230.869	14.926	911.388	680.416
231.884	14.937	910.246	679.548
232.899	15.013	909.624	679.331
233.913	14.859	909.029	678.205
234.928	14.922	908.119	677.720
235.942	14.780	908.129	677.091
236.957	14.835	907.097	676.484
237.972	15.021	905.909	676.291
238.986	14.952	905.788	675.862
240.001	15.011	904.583	675.142
241.015	14.969	904.246	674.660
242.030	15.015	903.516	674.241
243.045	14.967	903.137	673.707
244.059	15.017	902.532	673.397
245.074	15.000	901.790	672.715
246.088	15.131	900.847	672.477
247.103	15.140	900.187	671.962
248.117	15.088	899.834	671.428
249.132	15.213	899.048	671.284
250.147	15.142	898.300	670.383
251.161	15.305	897.675	670.510
252.176	15.283	897.078	669.917
253.190	15.339	896.337	669.525
254.205	15.284	895.706	668.777
255.220	15.273	895.171	668.273
256.234	15.287	894.482	667.757
257.249	15.344	894.050	667.600
258.263	15.532	893.093	667.578
259.278	15.460	892.577	666.845
260.293	15.648	891.974	667.081
261.307	15.412	891.515	665.742
262.322	15.540	890.897	665.730
263.336	15.555	890.581	665.493
264.351	15.537	889.641	664.661
265.366	15.527	889.326	664.328
266.380	15.578	888.638	663.958
267.395	15.577	887.749	663.229
268.409	15.523	887.271	662.600
269.424	15.447	887.037	662.067
270.439	15.617	886.002	661.906
271.453	15.404	885.156	660.378
272.468	15.624	884.026	660.342
273.482	15.706	883.224	660.007
274.497	15.746	882.732	659.735
275.512	15.700	882.395	659.247
276.526	15.777	881.515	658.833
277.541	15.664	881.008	657.951
278.555	15.718	880.312	657.583
279.570	15.628	880.135	657.043
280.585	15.833	879.068	656.987
281.599	15.801	878.580	656.440
282.614	15.877	877.985	656.235
283.628	15.820	877.263	655.414
284.643	15.785	876.956	654.992
285.657	15.700	876.245	654.074
286.672	15.888	875.624	654.283
287.687	15.925	875.129	653.996
288.701	15.989	874.385	653.630
289.716	15.868	874.477	653.174
290.730	15.878	873.469	652.399
291.745	15.931	872.549	651.859
292.760	15.992	871.973	651.610
293.774	16.086	871.397	651.483
294.789	16.101	870.648	650.924
295.803	15.995	870.083	650.036
296.818	15.834	869.901	649.220
297.833	15.941	869.138	649.005
298.847	15.953	868.286	648.358
299.862	15.972	867.403	647.715
300.876	16.201	866.156	647.605
301.891	16.086	866.259	647.185
302.906	16.056	865.928	646.765
303.920	16.127	865.062	646.331
304.935	16.280	864.304	646.297
305.949	16.293	863.766	645.884
306.964	16.164	863.257	644.956
307.979	16.284	862.425	644.734
308.993	16.281	861.984	644.335
310.008	16.265	861.472	643.835
311.022	16.231	860.782	643.133
312.037	16.228	860.177	642.612
313.052	16.327	859.711	642.583
314.066	16.284	859.216	641.994
315.081	16.254	858.679	641.422
316.095	16.301	858.035	641.061
317.110	16.256	857.488	640.425
318.125	16.045	857.453	639.543
319.139	16.348	856.757	640.117
320.154	16.326	856.241	639.592
321.168	16.460	855.006	639.119
322.183	16.344	854.529	638.265
323.197	16.345	854.730	638.365
324.212	16.390	853.794	637.776
325.227	16.486	852.970	637.469
326.241	16.420	852.679	636.944
327.256	16.406	851.784	636.166
328.270	16.369	851.889	636.049
329.285	16.372	850.940	635.297
330.300	16.408	850.042	634.707
331.314	16.534	849.481	634.704
332.329	16.568	849.079	634.475
333.343	16.421	848.533	633.461
334.358	16.441	848.602	633.528
335.373	16.541	847.618	633.112
336.387	16.629	846.987	632.916
337.402	16.556	846.536	632.248
338.416	16.609	845.852	631.882
339.431	16.527	845.103	630.959
340.446	16.690	844.749	631.247
341.460	16.691	844.184	630.773
342.475	16.602	843.654	629.988
343.489	16.724	843.103	629.974
344.504	16.789	842.277	629.545
345.519	16.928	841.823	629.666
346.533	16.962	841.075	629.177
347.548	16.815	841.080	628.581
348.562	16.928	840.475	628.489
349.577	16.770	840.185	627.631
350.592	16.740	839.336	626.832
351.606	16.773	838.971	626.625
352.621	16.900	838.196	626.462
353.635	16.800	837.973	625.869
354.650	16.857	837.418	625.610
355.665	16.762	837.601	625.341
356.679	16.860	836.604	624.902
357.694	16.773	836.595	624.521
358.708	16.997	835.521	624.486
359.723	16.855	834.873	623.426
360.738	17.087	833.988	623.561
361.752	17.033	833.727	623.113
362.767	17.011	833.203	622.586
363.781	16.987	833.103	622.369
364.796	16.969	832.815	622.033
365.810	17.151	831.841	621.915
366.825	17.303	831.628	622.257
367.840	17.063	831.286	621.070
368.854	17.219	831.179	621.504
369.869	17.085	830.683	620.587
370.883	17.203	829.851	620.341
371.898	17.202	829.072	619.701
372.913	17.279	827.984	619.113
373.927	17.275	828.120	619.148
374.942	17.343	827.347	618.760
375.956	17.324	826.475	617.986
376.971	17.340	826.003	617.636
377.986	17.224	825.765	616.981
379.000	17.301	825.194	616.779
380.015	17.405	824.413	616.520
381.029	17.404	823.700	615.928
382.044	17.466	823.305	615.803
383.059	17.478	822.979	615.546
384.073	17.555	822.007	615.045
385.088	17.476	822.141	614.804
386.102	17.550	821.021	614.180
387.117	17.589	820.657	613.993
388.132	17.420	820.169	612.964
389.146	17.275	820.223	612.430
390.161	17.401	819.712	612.445
391.175	17.582	819.339	612.765
392.190	17.491	819.048	612.167
393.205	17.488	818.594	611.761
394.219	17.593	817.769	611.469
395.234	17.564	817.562	611.155
396.248	17.629	816.726	610.710
397.263	17.467	816.774	610.109
398.278	17.526	815.826	609.558
399.292	17.558	815.514	609.385
400.307	17.583	814.991	609.031
401.321	17.650	814.611	608.932
402.336	17.623	814.424	608.644
403.350	17.689	813.930	608.454
404.365	17.665	813.480	607.981
405.380	17.791	812.598	607.717
406.394	17.759	812.526	607.494
407.409	17.666	811.781	606.552
408.423	17.798	811.333	606.631
409.438	17.690	811.261	606.140
410.453	17.640	811.020	605.731
411.467	17.944	810.218	606.156
412.482	17.787	809.743	605.190
413.496	17.930	809.145	605.198
414.511	17.903	808.984	604.927
415.526	17.831	808.623	604.347
416.540	17.897	808.275	604.270
417.555	17.882	807.471	603.563
418.569	18.024	807.422	603.972
419.584	17.976	806.840	603.315
420.599	17.949	806.322	602.779
421.613	116.149	1300.726	1494.652
422.628	100.408	1372.684	1494.720
