DTS Sentinel unit serial number:	SN413079Multiplexer serial number:	ORYXHardware model number:	OX4-SRSoftware version number:	ORYX F/W v4.00 Oryx Data Collector v3.7.2.0data status	okinstallation	princeton_trtdifferential loss correction	single-endedforward channel	channel 3reverse channel	N/Adate	2019/09/11time	06:02:11forward acquisition time	60.00reverse acquisition time	0.00gamma	496.2192k internal	0.2331k external	0.2331temperature offset calibration	0.9909default loss term (dB/km)	0.3790temperature slope calibration	1.0000multiplexer offset coefficient	1.0000multiplexer slope coefficient	1.0000fibre end	0.00T internal ref (°C)	29.44T ext. ref 1 (°C)	-0.22T ext. ref 2 (°C)	23.58length (m)	temperature (°C)	Stokes	anti-Stokes-747.200	-22.414	-0.379	0.231
-746.185	640.818	0.071	0.182
-745.171	-73.031	-0.136	-0.050
-744.156	1.792	0.035	-0.026
-743.142	-82.622	0.091	0.030
-742.127	68.631	0.203	-0.210
-741.112	59.340	0.237	-0.235
-740.098	-23.775	-0.328	0.198
-739.083	-39.881	0.345	0.181
-738.069	114.672	-0.141	0.172
-737.054	-200.000	0.003	0.317
-736.039	-92.598	-0.355	-0.100
-735.025	-71.644	0.344	0.129
-734.010	-142.473	-0.255	0.025
-732.996	166.969	-0.179	-0.255
-731.981	800.000	-0.016	0.049
-730.966	321.264	0.041	-0.079
-729.952	143.617	-0.225	-0.302
-728.937	800.000	-0.055	-0.170
-727.923	-108.623	-0.517	0.112
-726.908	-107.314	-0.361	0.080
-725.894	-66.370	-0.154	-0.062
-724.879	90.632	0.018	-0.020
-723.864	234.124	-0.124	-0.206
-722.850	800.000	-0.086	0.292
-721.835	-200.000	-0.006	-0.338
-720.821	800.000	-0.107	-0.422
-719.806	154.123	-0.132	0.182
-718.791	11.847	-0.215	0.166
-717.777	191.543	-0.118	0.178
-716.762	-200.000	-0.020	0.136
-715.748	-200.000	-0.018	0.178
-714.733	-182.633	0.019	0.000
-713.718	-200.000	0.012	0.165
-712.704	59.106	0.148	-0.147
-711.689	50.252	0.034	-0.032
-710.675	126.143	-0.265	0.337
-709.660	-119.237	0.108	-0.019
-708.645	14.019	0.153	0.119
-707.631	276.940	-0.082	-0.146
-706.616	-149.325	-0.069	0.006
-705.602	-28.631	-0.255	-0.147
-704.587	-200.000	-0.035	-0.204
-703.572	800.000	-0.019	-0.058
-702.558	-200.000	0.244	-0.001
-701.543	-59.046	-0.379	-0.164
-700.529	-128.179	-0.367	-0.053
-699.514	-200.000	0.004	-0.076
-698.499	423.459	0.132	-0.285
-697.485	-129.277	0.167	-0.023
-696.470	-200.000	-0.054	0.414
-695.456	-46.494	-0.020	-0.010
-694.441	337.771	-0.054	0.105
-693.426	-200.000	0.421	0.000
-692.412	-148.558	-0.312	0.026
-691.397	46.628	-0.120	0.112
-690.383	143.041	0.107	-0.144
-689.368	800.000	-0.026	-0.088
-688.354	183.694	-0.072	-0.107
-687.339	35.088	-0.089	0.079
-686.324	-78.072	-0.193	0.067
-685.310	-200.000	-0.056	-0.261
-684.295	12.213	-0.091	0.070
-683.281	-200.000	-0.037	-0.321
-682.266	-40.494	-0.625	-0.326
-681.251	-39.435	-0.130	-0.068
-680.237	35.698	0.176	0.156
-679.222	-11.802	-0.221	0.145
-678.208	-25.657	0.027	-0.016
-677.193	-31.197	-0.162	0.091
-676.178	-200.000	0.041	-0.219
-675.164	2.295	-0.228	-0.165
-674.149	-200.000	0.033	-0.180
-673.135	-2.235	-0.072	-0.051
-672.120	401.977	-0.088	0.185
-671.105	800.000	0.021	0.060
-670.091	-48.471	-0.234	-0.113
-669.076	-200.000	0.020	0.172
-668.062	794.812	-0.087	-0.240
-667.047	800.000	-0.020	-0.063
-666.032	-200.000	0.040	0.248
-665.018	293.748	-0.084	0.153
-664.003	169.412	0.143	0.204
-662.989	-86.243	0.104	-0.032
-661.974	256.490	0.164	0.282
-660.959	87.594	-0.328	-0.364
-659.945	-96.239	0.260	-0.069
-658.930	-91.850	-0.225	-0.064
-657.916	105.646	0.268	-0.318
-656.901	800.000	-0.005	-0.019
-655.886	332.944	-0.095	-0.184
-654.872	-200.000	-0.017	0.156
-653.857	-9.153	-0.213	-0.143
-652.843	-86.592	0.307	-0.095
-651.828	800.000	0.079	-0.336
-650.814	-18.712	0.159	-0.099
-649.799	800.000	0.106	-0.364
-648.784	238.697	0.046	0.076
-647.770	89.971	-0.169	-0.189
-646.755	507.326	-0.164	-0.382
-645.741	72.649	0.154	0.161
-644.726	-41.920	-0.207	0.106
-643.711	-166.096	-0.263	-0.011
-642.697	-116.621	0.185	0.034
-641.682	-121.584	0.099	-0.016
-640.668	757.643	-0.046	0.125
-639.653	-60.396	0.309	0.132
-638.638	-200.000	-0.007	-0.361
-637.624	-78.878	0.296	0.101
-636.609	52.997	0.047	0.045
-635.595	35.812	-0.044	0.039
-634.580	166.541	0.137	-0.195
-633.565	-200.000	-0.003	0.269
-632.551	-59.764	0.006	-0.002
-631.536	70.455	-0.268	-0.278
-630.522	112.992	0.093	-0.113
-629.507	233.389	-0.181	-0.298
-628.492	12.775	0.012	0.010
-627.478	-34.799	-0.424	0.232
-626.463	-50.420	-0.354	0.167
-625.449	42.074	0.235	-0.214
-624.434	84.354	0.095	0.104
-623.419	60.473	0.395	-0.392
-622.405	43.530	-0.279	-0.255
-621.390	330.794	-0.052	-0.100
-620.376	139.635	-0.030	0.040
-619.361	800.000	0.049	0.176
-618.346	309.549	0.107	-0.201
-617.332	-107.266	0.255	0.056
-616.317	-129.748	-0.291	0.040
-615.303	-195.148	-0.320	0.002
-614.288	35.230	-0.010	0.009
-613.273	800.000	-0.135	0.482
-612.259	773.473	-0.052	0.141
-611.244	140.075	-0.107	-0.142
-610.230	800.000	0.024	0.102
-609.215	-133.925	-0.189	0.023
-608.201	-200.000	0.055	-0.316
-607.186	143.172	-0.292	-0.389
-606.171	-95.540	-0.052	0.014
-605.157	182.073	-0.136	-0.200
-604.142	51.749	0.112	0.106
-603.128	-200.000	-0.026	-0.156
-602.113	116.153	0.139	0.171
-601.098	-48.370	-0.100	0.048
-600.084	800.000	-0.073	0.312
-599.069	-105.088	-0.303	0.069
-598.055	-78.867	0.122	-0.042
-597.040	415.801	0.104	-0.222
-596.025	800.000	0.069	-0.207
-595.011	-27.737	0.173	-0.101
-593.996	-200.000	-0.012	0.076
-592.982	-200.000	0.008	0.129
-591.967	62.003	-0.061	-0.061
-590.952	229.855	-0.055	-0.091
-589.938	-188.771	0.143	0.002
-588.923	272.050	0.127	0.225
-587.909	-31.793	-0.207	-0.116
-586.894	8.556	-0.322	0.242
-585.879	115.377	-0.023	-0.029
-584.865	37.171	-0.085	0.075
-583.850	34.482	-0.118	0.103
-582.836	-12.165	-0.193	-0.126
-581.821	-92.409	-0.157	0.044
-580.806	800.000	0.088	0.341
-579.792	-41.489	-0.210	-0.108
-578.777	-59.034	-0.101	-0.044
-577.763	-88.427	0.374	-0.112
-576.748	-145.055	-0.141	0.013
-575.733	-200.000	-0.002	-0.214
-574.719	800.000	0.027	0.088
-573.704	69.150	0.234	0.241
-572.690	-115.869	-0.246	0.046
-571.675	800.000	0.043	0.180
-570.661	351.977	0.079	0.157
-569.646	-123.746	0.364	-0.058
-568.631	-200.000	0.031	-0.308
-567.617	474.531	-0.016	-0.036
-566.602	-86.219	-0.253	-0.078
-565.588	-70.940	0.267	0.101
-564.573	-69.072	0.080	-0.031
-563.558	-39.426	-0.115	0.060
-562.544	-8.188	0.071	-0.048
-561.529	-70.835	-0.464	-0.175
-560.515	-18.648	-0.078	0.049
-559.500	-72.361	-0.382	0.141
-558.485	-200.000	-0.016	0.091
-557.471	-98.475	-0.046	0.012
-556.456	-200.000	0.024	-0.370
-555.442	-31.197	0.125	0.070
-554.427	1.253	0.196	0.141
-553.412	632.838	0.059	0.150
-552.398	-87.965	0.145	0.044
-551.383	-132.819	0.117	0.015
-550.369	-112.527	-0.157	0.031
-549.354	-128.557	-0.045	-0.006
-548.339	161.152	0.133	-0.186
-547.325	62.745	-0.061	0.061
-546.310	-29.507	0.006	-0.004
-545.296	107.707	0.104	0.124
-544.281	-158.636	0.353	-0.020
-543.266	-29.682	0.113	-0.064
-542.252	-61.091	0.139	0.059
-541.237	-105.030	-0.141	0.032
-540.223	579.732	0.089	-0.217
-539.208	-200.000	-0.031	-0.202
-538.193	-200.000	-0.000	-0.112
-537.179	-23.289	0.216	-0.130
-536.164	-136.994	0.204	0.023
-535.150	-99.881	0.359	0.090
-534.135	-54.947	-0.251	0.113
-533.121	-23.699	-0.191	0.114
-532.106	-113.979	0.207	0.040
-531.091	-96.680	-0.016	-0.004
-530.077	-91.973	-0.110	-0.031
-529.062	-39.119	-0.234	-0.123
-528.048	239.432	0.120	0.199
-527.033	-166.081	0.186	-0.008
-526.018	53.250	-0.051	0.049
-525.004	-200.000	-0.025	-0.186
-523.989	-200.000	0.015	0.346
-522.975	638.867	0.027	-0.069
-521.960	40.477	-0.248	-0.223
-520.945	89.648	-0.051	-0.057
-519.931	596.041	0.008	0.021
-518.916	772.823	-0.049	0.134
-517.902	130.125	-0.183	0.234
-516.887	63.925	-0.028	0.028
-515.872	5.464	-0.448	0.330
-514.858	92.313	-0.201	0.226
-513.843	-200.000	-0.019	0.083
-512.829	-200.000	-0.017	-0.093
-511.814	-115.259	0.240	-0.045
-510.799	-67.963	0.163	0.064
-509.785	186.483	-0.079	-0.117
-508.770	85.929	-0.079	0.086
-507.756	800.000	0.062	-0.225
-506.741	-103.916	0.237	-0.055
-505.726	-200.000	0.021	-0.138
-504.712	800.000	-0.122	-0.370
-503.697	-80.693	0.127	-0.042
-502.683	-151.176	0.194	0.015
-501.668	37.821	-0.252	-0.223
-500.653	96.314	-0.320	-0.365
-499.639	221.410	0.105	0.168
-498.624	-50.343	-0.102	-0.048
-497.610	-97.610	0.091	0.023
-496.595	544.951	-0.048	-0.115
-495.581	-200.000	-0.030	0.158
-494.566	-165.149	0.097	0.004
-493.551	-11.180	0.213	0.140
-492.537	-200.000	0.014	0.207
-491.522	-200.000	0.343	0.001
-490.508	44.919	-0.119	0.110
-489.493	584.384	0.068	-0.167
-488.478	-5.377	-0.198	-0.136
-487.464	770.950	0.085	-0.232
-486.449	-76.107	0.194	-0.068
-485.435	800.000	0.030	-0.129
-484.420	-200.000	0.011	0.173
-483.405	-63.337	0.114	0.047
-482.391	156.583	0.212	0.292
-481.376	800.000	-0.067	-0.276
-480.362	-200.000	-0.053	-0.494
-479.347	362.824	-0.113	0.225
-478.332	108.792	-0.070	0.083
-477.318	-38.970	-0.146	0.077
-476.303	126.364	0.098	-0.123
-475.289	1.464	0.129	-0.092
-474.274	-200.000	0.008	0.060
-473.259	-109.855	0.346	-0.072
-472.245	259.629	0.219	0.377
-471.230	272.336	-0.013	0.022
-470.216	69.021	-0.076	-0.078
-469.201	-62.092	-0.061	-0.025
-468.186	592.855	-0.114	-0.281
-467.172	121.472	0.041	-0.051
-466.157	365.154	0.052	-0.105
-465.143	793.122	0.024	-0.065
-464.128	388.207	-0.097	0.201
-463.113	-51.000	-0.300	-0.140
-462.099	-42.230	-0.302	-0.153
-461.084	-164.596	0.258	0.012
-460.070	45.059	0.209	0.192
-459.055	96.170	-0.262	0.298
-458.040	-95.613	-0.193	0.051
-457.026	-101.297	0.115	-0.028
-456.011	125.641	0.270	-0.340
-454.997	-200.000	-0.012	-0.221
-453.982	-179.175	-0.112	0.002
-452.968	237.519	0.098	0.162
-451.953	-167.638	0.071	0.003
-450.938	86.556	0.230	-0.253
-449.924	-148.816	-0.264	-0.021
-448.909	252.869	-0.251	0.426
-447.895	800.000	0.068	0.234
-446.880	391.950	-0.096	-0.199
-445.865	2.464	0.128	-0.092
-444.851	-95.763	0.122	0.033
-443.836	800.000	0.050	-0.166
-442.822	326.885	-0.099	0.189
-441.807	236.539	-0.051	0.083
-440.792	-200.000	0.011	0.079
-439.778	-200.000	0.042	-0.258
-438.763	-25.663	-0.198	0.116
-437.749	-65.311	-0.045	-0.018
-436.734	-100.882	0.059	-0.014
-435.719	343.341	-0.024	-0.047
-434.705	-38.277	0.170	0.089
-433.690	-200.000	-0.016	0.175
-432.676	-44.322	-0.173	-0.086
-431.661	-103.909	0.407	-0.095
-430.646	-39.894	-0.382	0.198
-429.632	153.139	-0.140	-0.190
-428.617	-1.275	-0.302	-0.212
-427.603	-200.000	-0.029	0.264
-426.588	-200.000	-0.058	-0.328
-425.573	3.126	0.092	-0.066
-424.559	-74.459	-0.316	0.113
-423.544	-200.000	0.025	0.243
-422.530	173.240	-0.246	-0.352
-421.515	4.123	-0.192	0.140
-420.500	-139.819	0.316	-0.033
-419.486	276.568	-0.154	-0.272
-418.471	71.243	-0.119	0.123
-417.457	-121.866	-0.099	0.016
-416.442	89.086	-0.206	-0.228
-415.428	105.970	0.127	-0.149
-414.413	483.298	-0.171	0.386
-413.398	-200.000	0.059	-0.271
-412.384	-34.256	0.299	-0.163
-411.369	195.474	-0.163	-0.246
-410.355	229.375	0.089	0.144
-409.340	-200.000	0.019	-0.165
-408.325	-51.052	-0.053	-0.025
-407.311	81.348	0.145	0.156
-406.296	-200.000	0.071	0.351
-405.282	240.254	0.089	0.148
-404.267	-46.863	-0.342	-0.166
-403.252	-15.547	0.231	-0.147
-402.238	-200.000	-0.005	-0.101
-401.223	-200.000	-0.017	0.288
-400.209	-63.118	-0.040	-0.016
-399.194	-72.623	0.171	-0.062
-398.179	-200.000	-0.035	-0.464
-397.165	-200.000	-0.013	-0.139
-396.150	-200.000	-0.024	-0.240
-395.136	43.202	0.153	-0.139
-394.121	721.984	-0.107	0.284
-393.106	347.297	0.063	-0.124
-392.092	-54.892	-0.155	-0.070
-391.077	-109.686	0.203	0.042
-390.063	154.442	0.101	0.138
-389.048	26.465	-0.211	0.175
-388.033	-200.000	-0.013	-0.257
-387.019	-132.616	-0.034	-0.004
-386.004	-35.394	-0.216	0.117
-384.990	51.623	0.152	0.144
-383.975	389.423	-0.141	-0.290
-382.960	-85.188	0.485	-0.151
-381.946	-153.529	0.128	0.009
-380.931	-29.617	0.411	-0.233
-379.917	-200.000	0.050	0.230
-378.902	-41.261	-0.227	0.116
-377.888	19.384	-0.026	0.021
-376.873	478.090	0.070	0.158
-375.858	800.000	0.061	-0.264
-374.844	-130.676	0.071	-0.010
-373.829	-200.000	0.070	0.329
-372.815	800.000	0.103	0.306
-371.800	41.364	-0.085	-0.076
-370.785	800.000	0.148	-0.429
-369.771	654.819	0.039	-0.099
-368.756	35.645	-0.233	-0.203
-367.742	800.000	0.080	-0.318
-366.727	-64.226	0.205	0.083
-365.712	46.645	0.071	-0.065
-364.698	-61.243	-0.046	0.019
-363.683	346.394	-0.106	-0.207
-362.669	99.502	-0.112	-0.128
-361.654	193.129	0.128	-0.191
-360.639	800.000	-0.073	0.302
-359.625	122.994	-0.079	-0.098
-358.610	291.575	-0.053	-0.096
-357.596	-172.660	-0.011	0.000
-356.581	-166.781	0.157	-0.006
-355.566	-53.378	0.356	-0.162
-354.552	10.441	-0.342	0.258
-353.537	-200.000	0.044	0.253
-352.523	388.508	-0.124	0.255
-351.508	242.734	0.093	-0.155
-350.493	275.682	0.135	0.237
-349.479	-200.000	0.041	0.222
-348.464	-160.856	-0.432	-0.023
-347.450	-200.000	-0.051	0.232
-346.435	31.764	-0.102	-0.087
-345.420	240.339	-0.157	-0.259
-344.406	-122.598	-0.235	-0.038
-343.391	-200.000	0.019	-0.173
-342.377	-15.268	0.131	-0.083
-341.362	-70.403	-0.349	-0.131
-340.348	-46.624	0.145	-0.071
-339.333	-200.000	-0.043	0.263
-338.318	517.034	-0.095	-0.219
-337.304	800.000	0.029	0.107
-336.289	-122.546	-0.305	-0.049
-335.275	114.355	-0.267	0.322
-334.260	365.985	-0.032	0.064
-333.245	800.000	-0.028	-0.082
-332.231	62.255	0.152	0.150
-331.216	-85.452	0.302	-0.093
-330.202	-136.124	0.168	0.020
-329.187	107.673	0.252	0.297
-328.172	-161.672	0.197	-0.010
-327.158	181.917	-0.102	-0.148
-326.143	99.163	-0.194	0.222
-325.129	274.011	-0.116	0.204
-324.114	11.098	0.045	-0.034
-323.099	-200.000	-0.003	0.269
-322.085	25.373	-0.118	0.097
-321.070	2.683	0.266	0.191
-320.056	18.396	0.196	-0.155
-319.041	-100.312	0.240	0.059
-318.026	712.471	0.095	0.248
-317.012	-94.781	-0.268	-0.072
-315.997	460.970	0.153	0.337
-314.983	-114.692	-0.422	-0.080
-313.968	25.957	-0.187	0.155
-312.953	-118.775	-0.077	0.013
-311.939	-23.126	-0.265	-0.158
-310.924	-81.833	0.178	0.058
-309.910	-40.206	-0.340	0.175
-308.895	-200.000	0.021	-0.146
-307.880	-123.479	0.136	-0.021
-306.866	213.884	0.189	-0.296
-305.851	-200.000	-0.046	0.217
-304.837	-76.570	-0.242	-0.084
-303.822	-200.000	-0.014	0.098
-302.807	78.244	-0.167	-0.176
-301.793	0.944	-0.153	0.108
-300.778	-200.000	0.032	-0.248
-299.764	34.364	0.419	-0.362
-298.749	-63.416	-0.138	0.056
-297.735	209.327	0.138	0.215
-296.720	-125.243	0.385	0.058
-295.705	-21.535	0.244	0.147
-294.691	-78.101	0.271	-0.092
-293.676	-65.779	0.212	0.084
-292.662	-29.653	0.310	-0.175
-291.647	-85.219	0.316	0.098
-290.632	-74.255	-0.140	-0.050
-289.618	128.306	0.125	-0.157
-288.603	800.000	-0.001	0.002
-287.589	109.246	0.074	0.087
-286.574	-0.652	-0.480	0.337
-285.559	800.000	-0.025	-0.075
-284.545	800.000	-0.012	0.036
-283.530	-45.626	-0.279	-0.137
-282.516	-200.000	-0.023	0.127
-281.501	135.432	0.128	-0.165
-280.486	254.330	-0.040	-0.067
-279.472	81.019	0.143	-0.153
-278.457	-69.395	0.100	0.038
-277.443	-38.091	0.279	0.146
-276.428	-23.112	-0.079	0.047
-275.413	-74.415	0.258	-0.092
-274.399	-82.041	0.109	0.035
-273.384	-200.000	0.029	0.139
-272.370	800.000	0.099	0.272
-271.355	-110.386	0.108	-0.022
-270.340	114.663	-0.090	-0.109
-269.326	800.000	0.096	0.391
-268.311	114.773	-0.080	0.097
-267.297	77.643	-0.208	-0.219
-266.282	110.338	-0.154	0.183
-265.267	-165.653	-0.288	-0.012
-264.253	-63.316	-0.242	0.099
-263.238	-124.888	-0.646	0.098
-262.224	154.757	0.030	0.041
-261.209	108.288	0.121	0.142
-260.195	-200.000	0.041	0.342
-259.180	59.103	0.084	0.081
-258.165	-179.023	0.289	0.006
-257.151	486.506	-0.019	0.043
-256.136	419.231	0.096	-0.202
-255.122	-88.228	-0.017	-0.005
-254.107	-47.927	0.400	0.191
-253.092	-200.000	0.062	-0.299
-252.078	-200.000	0.007	-0.036
-251.063	-200.000	-0.045	-0.225
-250.049	-200.000	0.026	-0.115
-249.034	-115.040	-0.145	0.027
-248.019	80.270	-0.193	-0.205
-247.005	-25.167	-0.060	0.035
-245.990	-34.891	0.420	0.227
-244.976	800.000	-0.058	-0.170
-243.961	415.304	0.017	0.035
-242.946	371.800	-0.156	-0.313
-241.932	-121.655	-0.242	0.040
-240.917	-25.818	0.081	-0.047
-239.903	-200.000	-0.029	-0.134
-238.888	800.000	-0.127	-0.475
-237.873	129.573	0.139	0.176
-236.859	-200.000	-0.004	-0.310
-235.844	-164.725	0.272	-0.012
-234.830	372.848	0.048	-0.097
-233.815	-154.257	0.327	-0.022
-232.800	-38.187	0.135	0.070
-231.786	115.041	-0.148	0.178
-230.771	304.037	0.117	-0.214
-229.757	800.000	-0.056	-0.177
-228.742	-68.797	0.073	-0.028
-227.727	133.185	-0.160	0.204
-226.713	136.475	0.104	-0.133
-225.698	-141.769	0.317	0.031
-224.684	800.000	-0.111	-0.343
-223.669	7.104	0.174	0.128
-222.655	34.422	-0.334	0.288
-221.640	800.000	-0.095	0.317
-220.625	-200.000	-0.031	-0.224
-219.611	280.645	0.086	0.152
-218.596	-15.745	-0.278	-0.175
-217.582	144.614	-0.086	0.114
-216.567	800.000	0.051	0.145
-215.552	800.000	-0.013	-0.037
-214.538	-200.000	0.015	0.202
-213.523	69.926	0.043	0.044
-212.509	-112.769	-0.079	-0.015
-211.494	-77.786	0.133	0.045
-210.479	-42.025	0.123	-0.062
-209.465	19.673	0.188	0.149
-208.450	153.183	0.103	-0.139
-207.436	-179.559	-0.175	0.004
-206.421	-200.000	-0.009	-0.082
-205.406	-176.864	0.123	-0.003
-204.392	18.062	-0.153	0.120
-203.377	-15.913	-0.034	-0.021
-202.363	29.337	-0.160	0.134
-201.348	-55.180	-0.381	-0.169
-200.333	-41.332	-0.216	0.110
-199.319	43.321	-0.215	0.194
-198.304	0.440	-0.209	-0.147
-197.290	463.694	0.165	0.363
-196.275	-104.089	0.153	0.035
-195.260	9.661	-0.101	-0.075
-194.246	634.321	0.161	0.401
-193.231	-74.138	-0.080	0.028
-192.217	198.472	-0.125	0.188
-191.202	183.258	0.069	-0.101
-190.187	-28.309	-0.049	0.028
-189.173	1.681	0.313	-0.222
-188.158	34.896	-0.082	0.071
-187.144	52.998	0.216	0.204
-186.129	-200.000	-0.086	0.383
-185.114	46.812	-0.180	-0.164
-184.100	-86.606	0.082	-0.025
-183.085	-67.360	0.266	-0.103
-182.071	-187.820	-0.171	0.002
-181.056	11.803	-0.095	0.072
-180.042	243.416	-0.030	-0.050
-179.027	86.653	0.065	0.071
-178.012	800.000	-0.089	0.268
-176.998	61.268	0.353	0.345
-175.983	800.000	-0.063	-0.229
-174.969	45.070	0.142	0.129
-173.954	68.654	-0.369	0.373
-172.939	-145.445	0.242	-0.021
-171.925	-200.000	-0.004	0.341
-170.910	-200.000	0.022	0.149
-169.896	76.663	-0.154	0.161
-168.881	800.000	-0.048	-0.203
-167.866	1.974	0.349	-0.248
-166.852	-117.181	-0.035	0.006
-165.837	-86.883	0.276	-0.083
-164.823	365.389	0.133	-0.264
-163.808	482.645	0.073	-0.163
-162.793	724.018	-0.135	-0.353
-161.779	-150.458	0.165	0.012
-160.764	-113.538	0.209	-0.040
-159.750	-21.850	0.111	-0.067
-158.735	317.954	-0.009	-0.017
-157.720	-200.000	0.032	0.195
-156.706	-8.197	0.251	-0.166
-155.691	-200.000	-0.026	0.308
-154.677	-105.120	-0.220	0.049
-153.662	227.440	0.252	0.403
-152.647	-200.000	0.019	0.151
-151.633	-97.117	-0.234	0.060
-150.618	54.968	0.103	0.098
-149.604	9.034	-0.185	-0.138
-148.589	-200.000	-0.015	-0.123
-147.574	88.586	0.137	-0.149
-146.560	364.336	0.104	0.207
-145.545	-200.000	-0.021	-0.159
-144.531	-10.905	-0.177	0.115
-143.516	140.859	-0.071	0.092
-142.502	-53.258	0.106	-0.048
-141.487	374.227	-0.030	0.061
-140.472	-55.334	-0.225	0.099
-139.458	-200.000	-0.031	0.257
-138.443	-200.000	-0.018	-0.355
-137.429	-200.000	0.084	-0.459
-136.414	170.184	0.297	0.417
-135.399	-157.639	0.227	0.013
-134.385	246.328	0.252	-0.418
-133.370	40.504	-0.145	-0.128
-132.356	-200.000	-0.030	-0.195
-131.341	382.352	-0.138	0.279
-130.326	-200.000	-0.038	0.174
-129.312	-118.776	-0.254	-0.044
-128.297	-200.000	0.037	-0.234
-127.283	348.005	-0.160	-0.309
-126.268	116.398	0.322	0.387
-125.253	-79.484	0.161	0.054
-124.239	108.325	-0.122	0.143
-123.224	-64.855	0.156	-0.062
-122.210	331.629	0.224	-0.425
-121.195	-129.511	0.295	-0.040
-120.180	-200.000	-0.048	0.346
-119.166	-200.000	0.020	-0.251
-118.151	-37.305	0.161	-0.084
-117.137	-200.000	0.038	-0.181
-116.122	220.602	-0.111	0.174
-115.107	-24.276	-0.258	0.151
-114.093	-200.000	-0.002	0.133
-113.078	81.685	-0.111	-0.118
-112.064	307.445	0.061	0.111
-111.049	-162.406	0.272	-0.013
-110.034	800.000	-0.049	-0.194
-109.020	-104.531	-0.497	-0.113
-108.005	-95.307	-0.065	-0.017
-106.991	-126.613	-0.217	0.032
-105.976	54.892	-0.210	-0.199
-104.962	-67.448	-0.261	0.101
-103.947	39.144	0.291	0.255
-102.932	-200.000	0.005	-0.130
-101.918	34.763	-0.110	0.095
-100.903	12.558	-0.390	-0.295
-99.889	-95.497	-0.207	-0.054
-98.874	-143.241	0.195	0.018
-97.859	229.255	0.039	-0.062
-96.845	800.000	0.121	0.436
-95.830	-136.094	0.136	0.016
-94.816	-200.000	0.034	0.174
-93.801	800.000	-0.080	0.219
-92.786	-200.000	0.020	-0.145
-91.772	340.037	0.211	0.403
-90.757	-176.880	0.274	0.007
-89.743	-16.103	-0.232	0.145
-88.728	38.928	-0.315	0.276
-87.713	-200.000	0.034	0.406
-86.699	-200.000	-0.033	0.196
-85.684	109.460	0.202	0.237
-84.670	122.324	-0.049	-0.060
-83.655	350.475	-0.029	0.056
-82.640	-26.158	-0.128	0.074
-81.626	8.238	0.089	0.066
-80.611	-65.641	-0.020	-0.008
-79.597	-200.000	-0.073	0.362
-78.582	-200.000	-0.045	0.323
-77.567	-200.000	0.022	-0.177
-76.553	345.563	0.155	0.298
-75.538	-15.191	0.100	0.062
-74.524	174.399	0.103	0.146
-73.509	143.279	0.050	-0.065
-72.494	228.732	0.095	0.153
-71.480	314.862	0.070	-0.129
-70.465	800.000	0.029	-0.086
-69.451	249.023	0.220	0.366
-68.436	-200.000	-0.043	-0.249
-67.422	23.539	0.173	-0.140
-66.407	285.574	-0.121	0.214
-65.392	440.243	0.170	0.364
-64.378	128.098	-0.019	-0.023
-63.363	-200.000	0.033	0.268
-62.349	-119.858	-0.442	0.075
-61.334	-21.135	-0.991	-0.594
-60.319	94.519	0.433	0.482
-59.305	-200.000	-0.118	-1.023
-58.290	352.189	0.649	1.261
-57.276	268.805	0.889	1.527
-56.261	-200.000	106.473	615.520
-55.246	502.612	1512.202	3424.087
-54.232	176.194	2702.555	3844.952
-53.217	110.205	2185.441	2570.880
-52.203	40.100	1704.240	1500.532
-51.188	32.578	1514.862	1282.757
-50.173	30.143	1488.339	1243.933
-49.159	51.600	1544.399	1438.091
-48.144	51.639	1560.708	1453.484
-47.130	32.775	1516.607	1285.373
-46.115	29.746	1501.483	1252.036
-45.100	29.575	1498.049	1247.961
-44.086	29.463	1496.167	1245.591
-43.071	29.391	1493.956	1243.215
-42.057	29.407	1491.947	1241.600
-41.042	29.465	1490.897	1241.067
-40.027	29.403	1489.794	1239.682
-39.013	29.449	1487.585	1238.110
-37.998	29.431	1486.514	1237.046
-36.984	29.446	1485.397	1236.167
-35.969	29.416	1483.830	1234.613
-34.954	29.401	1482.706	1233.528
-33.940	29.298	1481.619	1231.889
-32.925	29.451	1479.739	1231.299
-31.911	29.461	1478.878	1230.599
-30.896	29.541	1477.073	1229.582
-29.881	29.500	1476.064	1228.421
-28.867	29.604	1474.506	1227.765
-27.852	29.571	1472.926	1226.183
-26.838	29.445	1472.307	1224.783
-25.823	29.469	1470.347	1223.257
-24.809	29.538	1468.255	1221.929
-23.794	29.572	1467.265	1221.283
-22.779	29.412	1466.675	1219.682
-21.765	29.542	1465.117	1219.198
-20.750	29.500	1464.234	1218.137
-19.736	29.484	1463.511	1217.385
-18.721	29.402	1461.871	1215.429
-17.706	29.527	1460.606	1215.151
-16.692	29.514	1459.533	1214.125
-15.677	29.357	1458.673	1212.332
-14.663	29.342	1457.916	1211.553
-13.648	29.379	1456.748	1210.781
-12.633	29.317	1456.138	1209.819
-11.619	29.386	1455.182	1209.427
-10.604	29.385	1454.206	1208.558
-9.590	29.364	1453.423	1207.723
-8.575	29.452	1452.228	1207.258
-7.560	29.442	1451.453	1206.502
-6.546	29.401	1450.728	1205.586
-5.531	29.296	1450.251	1204.453
-4.517	29.377	1449.067	1203.948
-3.502	29.420	1448.207	1203.469
-2.487	29.455	1446.542	1202.266
-1.473	29.311	1446.219	1201.010
-0.458	29.487	1444.536	1200.712
0.556	27.019	1435.477	1189.797
1.571	24.223	1410.143	1150.674
2.586	21.026	1351.420	1082.839
3.600	19.560	1271.956	1010.508
4.615	18.336	1227.121	967.888
5.629	16.312	1172.181	913.532
6.644	8.291	1088.359	807.691
7.659	1.113	1048.655	743.064
8.673	-0.064	1043.179	733.378
9.688	-0.174	1039.336	730.077
10.702	-0.337	1037.839	728.170
11.717	-0.295	1036.169	727.134
12.731	3.066	1039.910	746.024
13.746	11.974	1051.868	798.095
14.761	18.740	1061.109	838.175
15.775	20.589	1062.759	848.439
16.790	21.065	1062.548	850.516
17.804	20.873	1061.675	848.805
18.819	20.583	1061.109	846.867
19.834	20.781	1060.295	847.105
20.848	20.875	1059.939	847.200
21.863	20.994	1059.414	847.286
22.877	20.871	1059.163	846.414
23.892	20.880	1058.151	845.573
24.907	20.748	1057.493	844.330
25.921	20.811	1057.081	844.232
26.936	20.752	1056.163	843.140
27.950	20.742	1055.112	842.178
28.965	20.780	1053.604	841.082
29.980	20.644	1051.961	839.043
30.994	20.652	1050.580	837.905
32.009	20.876	1049.237	837.836
33.023	20.840	1048.935	837.350
34.038	20.729	1047.771	835.812
35.053	20.682	1047.040	834.930
36.067	20.848	1046.331	835.084
37.082	20.892	1045.071	834.216
38.096	20.969	1044.209	833.822
39.111	21.016	1043.870	833.703
40.126	21.259	1042.555	833.741
41.140	21.111	1041.354	831.998
42.155	20.753	1040.297	829.378
43.169	20.556	1038.312	826.786
44.184	20.577	1037.604	826.248
45.199	20.574	1037.031	825.704
46.213	20.481	1035.662	824.097
47.228	20.525	1035.198	823.864
48.242	20.719	1033.686	823.508
49.257	20.681	1033.100	822.787
50.271	20.842	1032.400	822.921
51.286	20.976	1031.753	822.964
52.301	20.888	1030.918	821.810
53.315	21.009	1029.962	821.543
54.330	20.777	1029.807	820.254
55.344	20.829	1028.582	819.451
56.359	20.926	1027.389	818.882
57.374	20.723	1027.343	817.821
58.388	20.700	1026.025	816.594
59.403	20.624	1025.708	815.911
60.417	20.665	1024.637	815.178
61.432	20.498	1023.682	813.566
62.447	20.488	1023.079	812.966
63.461	20.756	1022.465	813.662
64.476	20.797	1021.446	812.971
65.490	20.782	1020.411	812.002
66.505	20.506	1019.520	809.935
67.520	20.609	1019.016	809.945
68.534	20.643	1018.463	809.589
69.549	20.616	1016.870	808.125
70.563	20.348	1015.464	805.696
71.578	20.145	1015.219	804.485
72.593	20.191	1014.546	804.096
73.607	20.157	1012.930	802.586
74.622	20.061	1012.587	801.799
75.636	20.348	1011.810	802.441
76.651	20.656	1011.036	803.176
77.666	20.428	1009.841	801.108
78.680	20.227	1009.179	799.582
79.695	20.294	1008.747	799.478
80.709	20.494	1007.716	799.510
81.724	20.591	1007.173	799.455
82.739	20.635	1005.975	798.637
83.753	20.545	1005.008	797.383
84.768	20.792	1004.656	798.166
85.782	20.946	1004.346	798.558
86.797	21.230	1003.038	798.746
87.812	21.188	1002.141	797.770
88.826	20.923	1001.694	796.132
89.841	20.882	1001.111	795.412
90.855	21.126	999.701	795.330
91.870	21.143	999.071	794.837
92.884	21.123	998.199	793.984
93.899	20.920	997.197	792.194
94.914	20.880	996.601	791.469
95.928	21.038	995.741	791.430
96.943	21.036	994.974	790.743
97.957	20.769	993.637	788.401
98.972	20.556	992.439	786.416
99.987	20.406	991.497	784.925
101.001	20.503	990.855	784.785
102.016	20.697	990.340	785.182
103.030	20.977	989.115	785.404
104.045	20.753	988.376	783.738
105.060	20.655	986.830	782.005
106.074	20.510	985.773	780.443
107.089	20.596	985.079	780.211
108.103	20.902	984.841	781.329
109.118	21.012	983.826	780.945
110.133	20.684	982.794	778.591
111.147	20.761	981.502	777.841
112.162	20.555	980.579	776.120
113.176	20.289	979.462	773.983
114.191	20.461	978.900	774.236
115.206	20.553	977.544	773.507
116.220	20.103	976.978	770.985
117.235	20.213	975.795	770.472
118.249	20.354	975.124	770.501
119.264	20.328	974.340	769.699
120.279	20.220	973.586	768.558
121.293	20.168	973.060	767.841
122.308	20.358	972.066	767.830
123.322	20.355	970.989	766.899
124.337	20.417	969.871	766.222
125.352	20.326	968.398	764.590
126.366	19.865	966.953	761.355
127.381	19.542	965.905	759.041
128.395	20.119	965.794	761.421
129.410	20.634	965.520	763.401
130.424	20.868	964.324	763.411
131.439	20.915	962.942	762.456
132.454	20.697	961.846	760.569
133.468	20.714	961.202	760.065
134.483	20.667	960.735	759.425
135.497	20.741	959.790	758.933
136.512	20.942	959.308	759.361
137.527	20.945	958.778	758.888
138.541	21.026	957.318	758.016
139.556	21.062	956.404	757.382
140.570	20.939	955.824	756.321
141.585	21.008	955.180	756.045
142.600	21.082	954.322	755.620
143.614	20.911	953.212	753.935
144.629	20.925	953.058	753.806
145.643	21.395	951.684	754.679
146.658	21.032	950.843	752.382
147.673	21.110	949.628	751.690
148.687	20.976	948.119	749.853
149.702	20.884	947.140	748.616
150.716	20.781	946.228	747.387
151.731	20.834	945.317	746.827
152.746	20.776	945.494	746.654
153.760	21.119	944.232	747.060
154.775	21.210	943.663	746.931
155.789	21.193	942.807	746.115
156.804	21.126	941.768	744.942
157.819	21.105	940.767	743.997
158.833	21.185	940.128	743.763
159.848	21.226	939.335	743.246
160.862	21.377	938.642	743.274
161.877	21.167	937.813	741.661
162.892	21.142	936.896	740.761
163.906	21.409	935.920	741.059
164.921	21.204	935.036	739.425
165.935	21.195	934.068	738.553
166.950	21.263	933.111	738.018
167.964	21.222	932.217	737.076
168.979	21.157	931.096	735.849
169.994	21.010	930.189	734.449
171.008	20.874	929.120	732.966
172.023	21.183	928.296	733.551
173.037	21.258	927.818	733.424
174.052	21.041	926.347	731.287
175.067	20.655	925.877	729.232
176.081	20.952	924.935	729.670
177.096	21.024	924.089	729.240
178.110	21.133	923.031	728.794
179.125	20.716	922.436	726.518
180.140	20.465	921.260	724.481
181.154	20.609	920.547	724.459
182.169	20.734	920.353	724.763
183.183	20.880	919.914	724.959
184.198	21.155	919.394	725.628
185.213	21.033	918.403	724.277
186.227	21.040	917.863	723.816
187.242	21.034	917.594	723.515
188.256	21.248	916.318	723.328
189.271	21.159	915.471	722.227
190.286	21.218	914.994	722.031
191.300	21.016	914.332	720.612
192.315	20.612	913.226	718.007
193.329	20.028	911.078	713.852
194.344	19.715	909.999	711.652
195.359	20.179	910.471	713.871
196.373	20.850	910.891	716.899
197.388	21.108	910.462	717.560
198.402	21.041	909.506	716.468
199.417	21.018	909.209	716.075
200.432	21.049	908.647	715.696
201.446	20.974	907.823	714.678
202.461	20.562	907.264	712.486
203.475	20.752	906.714	712.769
204.490	20.261	905.125	709.451
205.504	19.002	903.346	702.851
206.519	19.711	903.000	705.412
207.534	20.680	903.255	709.505
208.548	20.697	902.499	708.918
209.563	21.049	902.465	710.262
210.577	21.001	901.559	709.292
211.592	20.721	900.933	707.596
212.607	21.127	901.087	709.305
213.621	21.306	899.928	709.057
214.636	21.233	899.424	708.302
215.650	21.290	898.932	708.081
216.665	21.250	898.438	707.469
217.680	21.184	897.848	706.672
218.694	21.324	897.480	706.889
219.709	20.805	896.709	704.120
220.723	20.528	895.469	701.967
221.738	20.865	895.023	702.912
222.753	20.974	894.791	703.109
223.767	20.894	893.986	702.090
224.782	21.124	892.990	702.172
225.796	21.276	892.242	702.136
226.811	21.420	891.945	702.417
227.826	21.005	890.735	699.734
228.840	20.252	888.850	695.176
229.855	20.196	888.436	694.568
230.869	20.507	888.040	695.442
231.884	20.123	887.177	693.168
232.899	20.133	886.638	692.726
233.913	20.837	886.962	695.731
234.928	20.980	886.643	695.991
235.942	20.887	885.918	694.990
236.957	20.978	885.118	694.661
237.972	20.538	884.354	692.250
238.986	20.568	883.626	691.738
240.001	20.674	882.917	691.542
241.015	20.768	882.453	691.492
242.030	20.967	881.413	691.404
243.045	20.977	881.199	691.216
244.059	21.016	880.752	690.959
245.074	21.297	880.167	691.551
246.088	21.029	879.685	690.049
247.103	20.778	878.254	687.873
248.117	20.681	878.266	687.439
249.132	21.190	878.024	689.202
250.147	21.699	877.484	690.724
251.161	21.806	876.426	690.251
252.176	21.963	876.681	691.008
253.190	21.813	875.911	689.751
254.205	21.799	875.489	689.299
255.220	22.051	875.291	690.076
256.234	21.892	874.669	688.898
257.249	21.917	873.783	688.237
258.263	21.704	872.976	686.707
259.278	21.873	872.358	686.821
260.293	21.787	872.397	686.455
261.307	21.945	871.331	686.172
262.322	21.786	870.748	685.032
263.336	21.707	869.489	683.673
264.351	21.242	868.178	680.769
265.366	20.262	866.256	675.390
266.380	19.883	865.216	673.045
267.395	20.664	865.872	676.533
268.409	21.385	866.237	679.561
269.424	21.364	865.593	678.916
270.439	21.526	864.951	678.980
271.453	21.783	864.378	679.467
272.468	21.656	863.389	678.137
273.482	21.918	863.351	679.061
274.497	21.926	863.003	678.761
275.512	21.863	861.555	677.319
276.526	21.204	860.479	673.869
277.541	21.513	860.376	674.922
278.555	21.653	860.082	675.169
279.570	21.400	859.315	673.535
280.585	21.471	858.185	672.862
281.599	21.590	857.513	672.735
282.614	21.721	857.222	672.950
283.628	21.181	855.864	669.750
284.643	20.841	855.291	667.939
285.657	21.280	855.460	669.698
286.672	21.222	854.443	668.618
287.687	20.774	853.375	666.011
288.701	21.107	853.775	667.539
289.716	21.447	852.905	668.097
290.730	21.162	852.094	666.316
291.745	21.100	851.203	665.322
292.760	20.798	850.501	663.564
293.774	20.671	850.249	662.827
294.789	21.660	850.375	666.633
295.803	22.297	850.480	669.080
296.818	22.211	849.884	668.223
297.833	22.419	849.607	668.736
298.847	22.161	848.097	666.511
299.862	21.671	847.435	664.074
300.876	21.800	846.988	664.154
301.891	22.201	846.408	665.160
302.906	22.217	845.781	664.667
303.920	21.870	844.759	662.496
304.935	21.570	844.390	661.013
305.949	22.150	843.989	662.832
306.964	22.171	843.503	662.467
307.979	21.902	843.025	661.022
308.993	22.153	841.997	661.101
310.008	22.248	842.018	661.416
311.022	22.388	841.659	661.601
312.037	22.228	840.723	660.208
313.052	22.046	840.400	659.212
314.066	22.006	839.516	658.309
315.081	21.202	838.140	654.163
316.095	20.366	837.284	650.308
317.110	21.132	836.734	652.686
318.125	21.947	837.510	656.282
319.139	21.438	836.598	653.608
320.154	20.353	834.898	648.174
321.168	19.954	833.631	645.646
322.183	20.553	833.913	648.040
323.197	21.529	834.353	651.963
324.212	21.809	833.548	652.321
325.227	21.910	833.480	652.585
326.241	22.108	832.992	652.879
327.256	22.101	832.259	652.222
328.270	21.876	831.607	650.819
329.285	21.732	831.164	649.882
330.300	21.577	830.449	648.688
331.314	21.398	829.763	647.434
332.329	21.506	829.017	647.193
333.343	21.941	828.424	648.282
334.358	22.232	828.219	649.139
335.373	22.096	827.555	648.059
336.387	22.125	827.120	647.766
337.402	22.374	826.900	648.455
338.416	22.577	826.253	648.639
339.431	22.544	825.358	647.757
340.446	22.565	825.085	647.561
341.460	22.750	824.869	648.014
342.475	22.644	823.798	646.728
343.489	22.531	823.071	645.686
344.504	22.451	822.686	645.033
345.519	22.525	822.790	645.327
346.533	22.943	821.851	646.062
347.548	22.844	821.861	645.651
348.562	22.897	821.494	645.502
349.577	22.942	820.983	645.205
350.592	22.753	820.486	644.068
351.606	22.829	819.976	643.890
352.621	23.061	819.010	643.919
353.635	22.748	818.600	642.401
354.650	22.580	818.234	641.445
355.665	22.296	817.328	639.644
356.679	21.364	815.385	634.686
357.694	21.324	815.059	634.230
358.708	21.871	815.125	636.208
359.723	21.820	814.513	635.490
360.738	22.065	814.334	636.183
361.752	22.457	813.923	637.224
362.767	22.522	813.963	637.433
363.781	22.870	813.938	638.617
364.796	23.048	813.358	638.749
365.810	23.264	813.026	639.212
366.825	23.326	812.605	639.047
367.840	23.157	812.475	638.279
368.854	22.896	811.965	636.882
369.869	22.545	810.587	634.479
370.883	22.546	810.075	634.026
371.898	22.629	809.519	633.835
372.913	22.653	808.501	633.068
373.927	22.506	808.040	632.123
374.942	22.627	807.665	632.206
375.956	22.804	807.535	632.683
376.971	23.010	806.555	632.599
377.986	23.094	806.168	632.539
379.000	23.141	805.646	632.240
380.015	23.192	805.199	632.014
381.029	23.159	804.302	631.140
382.044	22.939	804.074	630.119
383.059	23.170	803.348	630.318
384.073	23.125	803.077	629.890
385.088	23.193	802.632	629.725
386.102	23.194	802.240	629.365
387.117	22.992	801.715	628.179
388.132	22.862	801.071	627.158
389.146	22.676	800.304	625.843
390.161	22.217	799.068	623.195
391.175	22.222	798.992	623.097
392.190	22.687	799.325	624.948
393.205	22.819	798.490	624.707
394.219	21.917	796.814	620.158
395.234	20.493	794.368	613.175
396.248	19.688	793.427	609.557
397.263	20.823	794.540	614.363
398.278	22.495	795.939	621.293
399.292	22.732	796.001	622.126
400.307	22.525	795.105	620.640
401.321	22.500	794.594	620.098
402.336	22.564	794.531	620.218
403.350	22.966	794.460	621.522
404.365	23.349	794.242	622.644
405.380	23.534	793.897	622.968
406.394	23.811	793.391	623.489
407.409	24.033	793.007	623.909
408.423	23.815	792.427	622.633
409.438	23.772	791.889	622.004
410.453	23.771	791.692	621.793
411.467	23.982	791.229	622.112
412.482	23.717	790.861	620.841
413.496	23.760	790.002	620.264
414.511	23.900	789.654	620.423
415.526	23.956	789.218	620.220
416.540	23.959	788.925	619.944
417.555	23.823	788.530	619.106
418.569	23.612	787.484	617.495
419.584	23.465	787.206	616.712
420.599	23.581	786.686	616.653
421.613	157.357	1364.928	1798.835
422.628	136.131	1449.181	1798.889
