DTS Sentinel unit serial number:	SN413079Multiplexer serial number:	ORYXHardware model number:	OX4-SRSoftware version number:	ORYX F/W v4.00 Oryx Data Collector v3.7.2.0data status	okinstallation	princeton_trtdifferential loss correction	single-endedforward channel	channel 3reverse channel	N/Adate	2019/09/17time	08:28:35forward acquisition time	60.00reverse acquisition time	0.00gamma	496.2192k internal	0.2332k external	0.2332temperature offset calibration	0.9942default loss term (dB/km)	0.3790temperature slope calibration	1.0000multiplexer offset coefficient	1.0000multiplexer slope coefficient	1.0000fibre end	0.00T internal ref (°C)	27.55T ext. ref 1 (°C)	0.12T ext. ref 2 (°C)	22.94length (m)	temperature (°C)	Stokes	anti-Stokes-747.200	800.000	0.033	0.110
-746.185	147.901	-0.082	0.111
-745.171	215.742	-0.100	0.159
-744.156	-200.000	0.015	-0.104
-743.142	-81.493	-0.295	0.097
-742.127	800.000	-0.076	0.332
-741.112	-55.219	0.143	-0.065
-740.098	-147.128	-0.078	0.007
-739.083	6.212	-0.114	0.085
-738.069	143.645	0.112	-0.150
-737.054	800.000	0.150	-0.420
-736.039	-13.113	-0.427	0.279
-735.025	-139.312	0.592	-0.064
-734.010	-116.014	-0.223	0.042
-732.996	152.075	0.267	-0.366
-731.981	227.340	-0.039	-0.064
-730.966	188.937	-0.068	0.102
-729.952	-11.446	-0.181	-0.120
-728.937	-200.000	-0.041	-0.186
-727.923	15.786	0.170	0.135
-726.908	128.094	0.104	-0.133
-725.894	-108.717	-0.472	-0.102
-724.879	24.680	0.335	-0.279
-723.864	2.139	-0.363	0.263
-722.850	800.000	-0.070	0.227
-721.835	-105.836	0.189	-0.043
-720.821	355.744	0.076	-0.153
-719.806	-200.000	0.193	0.000
-718.791	391.344	-0.035	0.074
-717.777	225.267	-0.164	-0.266
-716.762	218.695	0.062	0.099
-715.748	27.497	-0.170	0.144
-714.733	-200.000	-0.016	-0.101
-713.718	-4.395	0.091	-0.063
-712.704	-200.000	-0.004	-0.121
-711.689	-108.636	-0.248	0.054
-710.675	800.000	-0.057	0.204
-709.660	-67.458	0.115	0.045
-708.645	-33.471	-0.112	0.062
-707.631	414.185	0.047	-0.101
-706.616	41.341	0.285	-0.259
-705.602	-108.258	0.082	-0.018
-704.587	64.538	-0.243	-0.246
-703.572	-117.311	0.168	-0.031
-702.558	-109.037	-0.097	0.021
-701.543	-10.049	0.119	-0.080
-700.529	-200.000	-0.018	-0.111
-699.514	-128.025	-0.503	-0.073
-698.499	-111.444	-0.233	0.048
-697.485	-200.000	-0.010	-0.085
-696.470	411.342	-0.013	-0.027
-695.456	-200.000	0.011	-0.059
-694.441	329.235	0.040	-0.077
-693.426	-200.000	-0.014	0.337
-692.412	153.293	-0.092	-0.127
-691.397	-200.000	-0.008	0.151
-690.383	10.659	-0.307	-0.235
-689.368	-23.976	0.185	-0.111
-688.354	250.397	0.184	-0.314
-687.339	-200.000	-0.037	-0.362
-686.324	800.000	0.014	0.041
-685.310	-200.000	0.038	0.426
-684.295	800.000	-0.060	-0.175
-683.281	-19.686	-0.078	0.049
-682.266	-194.614	-0.418	0.003
-681.251	-72.252	0.180	-0.067
-680.237	-97.230	0.252	-0.066
-679.222	800.000	-0.017	0.061
-678.208	-135.402	0.257	-0.031
-677.193	302.896	-0.153	-0.284
-676.178	-55.772	-0.111	-0.050
-675.164	-138.620	-0.490	-0.054
-674.149	800.000	0.025	-0.078
-673.135	-200.000	0.040	-0.258
-672.120	-24.144	0.371	-0.222
-671.105	203.311	-0.102	-0.158
-670.091	-156.221	-0.222	-0.014
-669.076	800.000	0.047	-0.170
-668.062	437.399	-0.123	0.268
-667.047	800.000	-0.052	-0.194
-666.032	33.139	-0.248	0.215
-665.018	375.622	-0.049	-0.101
-664.003	233.285	0.312	0.515
-662.989	-54.111	-0.084	-0.038
-661.974	800.000	0.052	-0.158
-660.959	-98.963	-0.336	-0.086
-659.945	-84.621	-0.127	-0.040
-658.930	62.046	0.228	-0.228
-657.916	252.115	-0.027	0.046
-656.901	103.941	0.241	0.284
-655.886	-47.116	-0.162	-0.079
-654.872	25.565	-0.068	-0.057
-653.857	205.200	0.293	-0.456
-652.843	54.203	0.178	-0.172
-651.828	-200.000	0.000	0.244
-650.814	57.038	-0.127	-0.124
-649.799	-68.796	-0.415	0.161
-648.784	-200.000	0.018	-0.160
-647.770	-4.283	0.224	-0.155
-646.755	-56.342	0.270	0.120
-645.741	-170.896	-0.362	-0.012
-644.726	-200.000	0.011	-0.370
-643.711	-67.158	0.094	0.037
-642.697	-20.122	0.074	-0.046
-641.682	800.000	-0.047	-0.177
-640.668	392.551	0.198	-0.412
-639.653	-40.932	0.359	-0.186
-638.638	46.185	0.172	0.160
-637.624	-34.449	-0.343	-0.189
-636.609	-97.342	0.016	0.004
-635.595	24.113	-0.191	-0.158
-634.580	800.000	-0.137	-0.418
-633.565	-156.635	-0.248	-0.015
-632.551	-24.575	-0.336	-0.200
-631.536	-200.000	-0.035	-0.342
-630.522	800.000	0.100	-0.325
-629.507	-50.770	-0.207	0.098
-628.492	204.676	0.083	0.129
-627.478	17.795	0.129	-0.103
-626.463	205.745	-0.100	-0.156
-625.449	-47.911	0.137	-0.066
-624.434	92.320	0.067	-0.076
-623.419	-95.664	0.056	-0.015
-622.405	-200.000	-0.228	0.000
-621.390	-200.000	0.067	-0.335
-620.376	90.627	0.188	-0.210
-619.361	-200.000	0.006	-0.042
-618.346	-50.259	-0.160	-0.076
-617.332	434.757	-0.032	-0.070
-616.317	-200.000	0.209	0.001
-615.303	242.172	-0.095	0.159
-614.288	-96.767	0.329	0.087
-613.273	-200.000	0.039	-0.277
-612.259	228.876	0.206	-0.336
-611.244	-96.533	0.247	-0.065
-610.230	800.000	0.130	-0.474
-609.215	94.216	-0.110	0.125
-608.201	-11.986	-0.293	0.192
-607.186	86.175	-0.136	-0.150
-606.171	800.000	0.013	0.051
-605.157	-109.839	0.302	0.064
-604.142	-94.682	0.094	-0.025
-603.128	-99.586	-0.148	0.037
-602.113	20.503	0.267	-0.216
-601.098	580.489	-0.111	-0.271
-600.084	527.884	0.068	-0.160
-599.069	-78.422	0.288	-0.099
-598.055	-200.000	-0.014	-0.257
-597.040	-200.000	-0.015	-0.084
-596.025	-69.401	0.234	0.090
-595.011	-51.346	0.108	0.051
-593.996	-26.625	-0.105	-0.062
-592.982	-58.113	-0.145	-0.063
-591.967	-106.435	-0.303	-0.068
-590.952	333.065	-0.092	-0.178
-589.938	786.241	-0.050	0.136
-588.923	800.000	-0.021	-0.081
-587.909	346.384	-0.141	0.278
-586.894	19.092	-0.393	-0.315
-585.879	140.545	0.149	0.196
-584.865	31.672	0.333	0.286
-583.850	-109.264	0.204	-0.043
-582.836	-20.237	-0.223	0.137
-581.821	-165.740	-0.319	-0.014
-580.806	168.726	-0.112	0.160
-579.792	800.000	-0.083	0.322
-578.777	-31.259	-0.284	0.160
-577.763	-200.000	-0.054	-0.261
-576.748	-47.022	-0.194	0.095
-575.733	2.609	-0.176	-0.128
-574.719	82.954	-0.120	-0.131
-573.704	84.427	-0.305	-0.334
-572.690	-158.036	0.309	-0.018
-571.675	76.158	-0.326	0.345
-570.661	7.754	-0.203	-0.152
-569.646	-200.000	-0.066	-0.616
-568.631	-150.202	0.237	-0.018
-567.617	-200.000	-0.008	0.117
-566.602	376.022	0.017	-0.034
-565.588	-200.000	0.028	0.192
-564.573	302.144	-0.151	-0.278
-563.558	-61.666	-0.440	-0.184
-562.544	289.809	-0.165	-0.300
-561.529	800.000	-0.103	0.402
-560.515	-45.971	0.180	0.088
-559.500	-200.000	-0.012	0.312
-558.485	210.553	-0.059	0.093
-557.471	-74.260	0.089	0.032
-556.456	800.000	-0.051	-0.200
-555.442	23.460	-0.203	-0.167
-554.427	-80.038	0.127	-0.043
-553.412	301.697	0.067	0.124
-552.398	-200.000	-0.094	-0.419
-551.383	335.562	0.188	-0.364
-550.369	-56.607	0.058	0.026
-549.354	-145.519	-0.217	0.019
-548.339	-200.000	-0.005	0.399
-547.325	-8.156	0.157	0.105
-546.310	293.806	-0.053	-0.096
-545.296	-174.155	0.331	-0.010
-544.281	-87.143	-0.211	-0.064
-543.266	70.398	0.096	-0.099
-542.252	146.142	0.141	0.188
-541.237	210.564	0.140	-0.219
-540.223	-104.132	0.257	-0.060
-539.208	-160.317	-0.105	0.006
-538.193	-62.397	0.231	0.096
-537.179	-25.659	0.064	0.038
-536.164	-200.000	-0.005	0.249
-535.150	-55.733	-0.214	0.095
-534.135	146.509	-0.101	-0.136
-533.121	800.000	-0.060	0.217
-532.106	800.000	0.010	0.033
-531.091	-61.206	0.219	0.092
-530.077	-9.521	0.296	0.197
-529.062	-34.662	-0.236	-0.129
-528.048	-200.000	-0.001	0.030
-527.033	800.000	0.228	0.647
-526.018	-103.612	-0.153	-0.036
-525.004	29.272	0.208	-0.176
-523.989	-11.246	-0.189	-0.124
-522.975	88.609	0.049	0.054
-521.960	-200.000	0.099	-0.525
-520.945	736.028	0.071	0.190
-519.931	1.918	0.201	0.145
-518.916	69.239	0.131	0.134
-517.902	164.258	-0.170	0.239
-516.887	-54.457	-0.100	0.045
-515.872	-38.295	-0.357	0.189
-514.858	-3.574	0.091	-0.063
-513.843	-186.188	0.170	-0.002
-512.829	32.600	-0.251	-0.216
-511.814	-152.016	0.325	0.024
-510.799	-52.434	-0.198	-0.091
-509.785	78.033	-0.144	-0.153
-508.770	-129.586	0.440	0.061
-507.756	-135.399	-0.374	-0.045
-506.741	-71.494	0.111	0.041
-505.726	-102.037	-0.068	-0.016
-504.712	4.161	-0.275	0.201
-503.697	800.000	0.031	-0.103
-502.683	282.896	-0.246	0.440
-501.668	67.104	-0.251	-0.254
-500.653	-40.116	0.114	-0.059
-499.639	-200.000	-0.010	0.080
-498.624	-152.932	-0.217	0.015
-497.610	86.721	-0.241	-0.265
-496.595	-86.378	-0.247	0.076
-495.581	800.000	0.112	0.346
-494.566	-48.998	-0.311	0.148
-493.551	164.581	0.055	0.077
-492.537	-114.879	-0.107	-0.020
-491.522	226.351	0.111	0.179
-490.508	59.398	-0.092	-0.090
-489.493	-173.420	-0.210	-0.006
-488.478	37.530	-0.099	-0.087
-487.464	-65.952	0.212	-0.084
-486.449	800.000	-0.051	-0.144
-485.435	76.061	-0.091	0.096
-484.420	72.878	-0.236	-0.245
-483.405	-61.219	-0.139	0.058
-482.391	-200.000	0.012	0.233
-481.376	-46.015	-0.102	0.050
-480.362	800.000	-0.060	0.217
-479.347	-200.000	0.006	0.135
-478.332	175.034	0.124	0.178
-477.318	-200.000	0.005	-0.202
-476.303	19.461	0.355	-0.284
-475.289	-200.000	0.001	-0.037
-474.274	-63.026	0.342	-0.141
-473.259	-112.978	0.065	0.013
-472.245	800.000	0.066	-0.231
-471.230	-41.896	0.029	0.015
-470.216	-174.979	-0.133	-0.004
-469.201	-126.306	-0.442	0.066
-468.186	-188.267	0.330	0.004
-467.172	-106.876	0.385	0.085
-466.157	800.000	0.076	0.281
-465.143	-200.000	0.025	0.354
-464.128	-82.410	-0.154	0.050
-463.113	-193.387	-0.131	-0.001
-462.099	-200.000	-0.055	0.264
-461.084	-111.593	-0.195	0.039
-460.070	-125.641	-0.040	-0.006
-459.055	-169.516	-0.243	0.009
-458.040	183.506	0.269	0.395
-457.026	-200.000	0.011	0.143
-456.011	-200.000	-0.012	0.086
-454.997	-200.000	0.017	-0.087
-453.982	-172.962	-0.222	0.007
-452.968	-31.002	0.252	0.142
-451.953	237.593	0.229	0.377
-450.938	-45.128	-0.155	0.076
-449.924	-77.427	0.285	0.098
-448.909	32.654	0.275	0.236
-447.895	-200.000	0.017	-0.122
-446.880	745.765	0.054	-0.146
-445.865	-132.168	-0.200	0.026
-444.851	800.000	0.085	-0.312
-443.836	-56.002	-0.300	-0.133
-442.822	-95.677	0.074	0.020
-441.807	-162.400	0.087	-0.004
-440.792	529.615	0.081	-0.190
-439.778	170.208	-0.134	0.190
-438.763	-176.205	0.237	-0.006
-437.749	15.809	-0.216	-0.169
-436.734	-145.049	0.221	-0.020
-435.719	-8.599	0.297	0.198
-434.705	182.963	0.074	-0.108
-433.690	-115.834	0.134	0.025
-432.676	-88.326	0.060	-0.018
-431.661	275.336	0.140	-0.247
-430.646	298.919	0.095	0.174
-429.632	46.791	-0.258	0.238
-428.617	509.309	0.042	0.097
-427.603	-200.000	-0.018	0.193
-426.588	57.918	0.336	0.326
-425.573	800.000	-0.030	0.088
-424.559	-200.000	-0.017	0.076
-423.544	-200.000	0.006	0.217
-422.530	177.931	-0.167	0.241
-421.515	316.145	0.119	0.223
-420.500	5.284	-0.217	-0.159
-419.486	52.021	0.079	-0.074
-418.471	800.000	-0.144	-0.414
-417.457	604.623	-0.073	0.182
-416.442	-81.672	0.359	0.117
-415.428	-145.452	0.221	0.020
-414.413	421.080	-0.041	-0.088
-413.398	800.000	0.026	-0.091
-412.384	-10.040	0.077	-0.051
-411.369	-121.239	-0.138	0.023
-410.355	-31.581	-0.380	-0.212
-409.340	-200.000	0.029	0.179
-408.325	-59.248	-0.219	0.093
-407.311	549.627	0.047	0.112
-406.296	-154.287	-0.272	-0.018
-405.282	800.000	0.060	-0.213
-404.267	800.000	0.046	0.185
-403.252	95.155	-0.138	0.156
-402.238	-200.000	-0.027	0.250
-401.223	21.831	0.211	0.171
-400.209	27.041	0.168	-0.140
-399.194	51.725	-0.168	-0.159
-398.179	-200.000	0.010	-0.139
-397.165	-200.000	-0.035	-0.282
-396.150	356.538	0.156	0.309
-395.136	84.120	-0.209	-0.226
-394.121	307.471	0.041	-0.076
-393.106	-166.620	-0.130	0.005
-392.092	506.890	0.018	-0.042
-391.077	-200.000	0.001	0.089
-390.063	-98.554	-0.292	0.074
-389.048	16.199	-0.252	-0.197
-388.033	-200.000	-0.070	-0.327
-387.019	709.787	0.033	0.087
-386.004	108.711	0.216	0.256
-384.990	800.000	0.016	0.059
-383.975	-129.930	0.387	-0.053
-382.960	124.581	-0.286	0.357
-381.946	21.159	0.138	-0.111
-380.931	-114.074	-0.110	-0.021
-379.917	800.000	-0.119	-0.374
-378.902	165.206	-0.201	-0.281
-377.888	144.660	-0.090	-0.119
-376.873	-200.000	0.041	-0.307
-375.858	-121.742	0.113	0.018
-374.844	-200.000	0.006	0.076
-373.829	-124.167	-0.379	0.059
-372.815	-200.000	-0.009	0.277
-371.800	159.124	-0.054	0.074
-370.785	-200.000	0.050	-0.336
-369.771	-26.682	-0.069	-0.040
-368.756	-37.654	0.178	-0.094
-367.742	-24.538	0.135	-0.080
-366.727	54.626	-0.313	-0.299
-365.712	177.276	0.130	0.187
-364.698	-62.611	0.108	0.044
-363.683	128.717	0.146	0.184
-362.669	-29.022	-0.116	-0.066
-361.654	-200.000	-0.006	0.462
-360.639	-200.000	0.018	0.392
-359.625	800.000	-0.055	-0.214
-358.610	508.741	-0.088	-0.203
-357.596	-200.000	-0.017	0.262
-356.581	205.117	0.167	-0.257
-355.566	-43.628	-0.341	0.170
-354.552	260.418	0.079	-0.134
-353.537	33.723	0.320	-0.276
-352.523	26.760	0.142	0.118
-351.508	-66.796	0.043	0.017
-350.493	-7.038	-0.138	0.093
-349.479	800.000	-0.065	0.271
-348.464	137.691	0.203	0.263
-347.450	-200.000	0.043	-0.249
-346.435	-72.375	-0.091	-0.034
-345.420	334.675	0.121	0.233
-344.406	800.000	-0.081	0.269
-343.391	-200.000	0.009	-0.143
-342.377	800.000	0.066	-0.208
-341.362	-28.453	0.332	-0.189
-340.348	-200.000	0.013	0.193
-339.333	-200.000	-0.044	-0.206
-338.318	-40.612	0.250	0.128
-337.304	163.028	-0.150	0.209
-336.289	-80.732	0.039	0.013
-335.275	644.401	0.165	0.417
-334.260	-9.005	-0.334	-0.221
-333.245	-106.697	-0.140	0.031
-332.231	683.683	-0.040	0.102
-331.216	-200.000	0.011	0.065
-330.202	-200.000	0.025	-0.156
-329.187	766.204	0.116	-0.311
-328.172	17.414	-0.112	0.088
-327.158	44.731	-0.112	0.102
-326.143	191.893	-0.074	0.111
-325.129	-200.000	-0.007	-0.098
-324.114	800.000	-0.086	0.307
-323.099	-200.000	0.051	0.270
-322.085	-114.671	0.277	-0.052
-321.070	88.479	0.249	0.274
-320.056	-48.549	-0.213	0.101
-319.041	-200.000	0.016	0.099
-318.026	-8.535	-0.161	0.107
-317.012	-134.415	0.431	0.052
-315.997	523.217	0.103	0.239
-314.983	2.813	-0.412	-0.296
-313.968	4.633	-0.257	-0.187
-312.953	50.812	0.167	-0.156
-311.939	-200.000	0.038	0.202
-310.924	10.496	-0.080	0.060
-309.910	-85.595	0.322	0.099
-308.895	-126.677	-0.349	-0.051
-307.880	-9.955	-0.037	0.024
-306.866	-53.010	-0.289	-0.131
-305.851	-67.102	-0.168	0.065
-304.837	-200.000	-0.010	0.267
-303.822	-132.965	0.229	-0.029
-302.807	154.242	0.092	0.124
-301.793	146.169	0.095	0.126
-300.778	-200.000	0.002	0.256
-299.764	5.854	0.076	-0.056
-298.749	39.944	-0.149	-0.132
-297.735	90.371	-0.125	0.139
-296.720	-200.000	-0.037	0.382
-295.705	-129.343	0.136	-0.019
-294.691	-95.717	-0.186	-0.049
-293.676	116.253	-0.019	-0.023
-292.662	201.128	0.048	0.073
-291.647	417.052	0.125	-0.264
-290.632	-34.809	0.413	0.223
-289.618	-200.000	-0.013	0.210
-288.603	-200.000	0.001	-0.047
-287.589	173.994	0.088	-0.126
-286.574	-46.644	0.269	-0.130
-285.559	-76.334	-0.259	-0.090
-284.545	22.056	0.031	-0.025
-283.530	-29.372	0.238	0.134
-282.516	-49.257	0.221	0.104
-281.501	14.599	0.376	-0.290
-280.486	-61.925	-0.253	-0.104
-279.472	-200.000	-0.083	-0.399
-278.457	-14.980	0.157	-0.100
-277.443	-58.198	-0.051	0.022
-276.428	-110.840	-0.243	0.049
-275.413	59.737	-0.108	-0.106
-274.399	51.183	0.127	-0.119
-273.384	450.532	-0.183	0.399
-272.370	-200.000	-0.003	0.086
-271.355	210.504	0.167	0.259
-270.340	800.000	-0.109	-0.304
-269.326	77.050	-0.335	-0.351
-268.311	-200.000	-0.030	0.330
-267.297	-58.160	-0.153	0.066
-266.282	-23.116	-0.033	0.020
-265.267	-44.446	0.117	0.058
-264.253	39.273	-0.163	0.144
-263.238	-12.416	0.238	0.154
-262.224	196.780	0.332	0.500
-261.209	198.824	0.127	0.191
-260.195	-160.583	0.260	0.014
-259.180	-26.299	0.121	0.070
-258.165	375.386	-0.095	0.191
-257.151	333.404	0.102	0.194
-256.136	-200.000	0.006	0.268
-255.122	-28.229	-0.272	-0.155
-254.107	269.931	0.094	-0.162
-253.092	-97.780	-0.213	-0.054
-252.078	-74.858	-0.308	0.109
-251.063	37.126	0.287	-0.250
-250.049	106.147	0.044	0.051
-249.034	800.000	-0.023	0.067
-248.019	-141.810	0.335	0.033
-247.005	516.393	0.102	-0.235
-245.990	17.099	-0.249	0.195
-244.976	-169.727	0.138	0.005
-243.961	-27.702	-0.225	-0.129
-242.946	77.097	0.174	-0.182
-241.932	164.588	-0.233	-0.324
-240.917	-111.866	0.117	-0.023
-239.903	-200.000	-0.003	-0.036
-238.888	-30.213	-0.173	0.097
-237.873	-116.629	-0.134	0.024
-236.859	122.178	0.259	-0.319
-235.844	-23.906	0.317	-0.187
-234.830	-116.387	-0.199	-0.036
-233.815	-103.578	0.280	-0.065
-232.800	352.450	-0.140	0.273
-231.786	-200.000	0.008	-0.045
-230.771	294.058	0.069	0.124
-229.757	-31.183	0.237	0.132
-228.742	13.183	0.186	0.142
-227.727	181.232	-0.186	0.269
-226.713	20.472	0.472	0.376
-225.698	-200.000	-0.055	0.311
-224.684	295.130	0.219	-0.395
-223.669	800.000	-0.039	-0.167
-222.655	206.978	-0.223	-0.343
-221.640	-101.230	-0.142	0.034
-220.625	281.363	-0.084	-0.149
-219.611	297.947	0.064	-0.116
-218.596	131.907	-0.078	-0.098
-217.582	48.158	0.100	-0.092
-216.567	-112.621	0.353	-0.069
-215.552	-79.767	-0.164	0.054
-214.538	-136.532	0.164	-0.019
-213.523	296.678	-0.042	0.075
-212.509	114.038	0.098	-0.117
-211.494	-200.000	-0.008	-0.204
-210.479	50.963	0.158	0.147
-209.465	-122.625	-0.286	0.046
-208.450	-83.382	0.137	0.043
-207.436	56.150	0.218	-0.208
-206.421	-200.000	0.020	-0.279
-205.406	3.254	-0.257	-0.184
-204.392	-200.000	-0.040	0.271
-203.377	-200.000	0.004	-0.219
-202.363	800.000	-0.065	0.190
-201.348	348.674	-0.096	0.187
-200.333	119.288	0.177	-0.216
-199.319	617.770	0.144	-0.355
-198.304	36.322	-0.278	-0.242
-197.290	238.135	0.112	0.182
-196.275	452.125	0.188	-0.409
-195.260	-152.981	-0.256	-0.018
-194.246	138.739	-0.146	0.189
-193.231	-69.905	0.387	0.145
-192.217	-163.622	-0.258	-0.012
-191.202	-200.000	0.091	-0.410
-190.187	-200.000	-0.021	-0.351
-189.173	-40.199	-0.053	-0.027
-188.158	330.994	-0.178	0.338
-187.144	234.718	-0.123	0.199
-186.129	84.921	-0.216	0.233
-185.114	-200.000	-0.026	-0.118
-184.100	224.405	0.017	-0.028
-183.085	148.791	0.122	0.162
-182.071	100.624	-0.142	0.162
-181.056	-170.262	0.024	-0.001
-180.042	21.515	-0.173	-0.138
-179.027	88.598	0.172	0.188
-178.012	-113.408	0.092	-0.018
-176.998	-200.000	0.077	-0.382
-175.983	130.427	0.095	-0.120
-174.969	-90.545	-0.105	0.030
-173.954	491.103	-0.103	0.231
-172.939	-200.000	0.006	-0.071
-171.925	-146.064	-0.077	-0.007
-170.910	800.000	-0.061	-0.231
-169.896	-169.569	-0.137	0.005
-168.881	-70.739	0.192	0.071
-167.866	-66.097	-0.068	0.027
-166.852	245.481	0.137	-0.226
-165.837	-159.206	0.292	-0.016
-164.823	-200.000	0.066	0.294
-163.808	800.000	-0.049	-0.162
-162.793	14.513	0.305	0.234
-161.779	-172.000	0.075	0.002
-160.764	-141.388	0.166	-0.017
-159.750	322.085	0.052	0.097
-158.735	-99.421	0.254	0.063
-157.720	399.692	-0.098	-0.202
-156.706	-121.326	-0.286	0.047
-155.691	-200.000	0.017	0.099
-154.677	9.406	0.130	-0.096
-153.662	597.843	-0.077	0.188
-152.647	555.614	-0.143	0.338
-151.633	-50.683	0.129	0.059
-150.618	-130.759	0.354	0.047
-149.604	192.853	0.065	0.097
-148.589	-153.225	-0.130	0.009
-147.574	-200.000	0.029	-0.338
-146.560	-41.084	-0.232	0.118
-145.545	27.106	-0.146	0.120
-144.531	-127.932	0.095	-0.013
-143.516	-149.767	-0.332	-0.026
-142.502	-155.621	-0.107	0.007
-141.487	299.080	0.266	0.481
-140.472	-84.667	-0.081	0.025
-139.458	-170.642	0.192	0.007
-138.443	226.416	0.024	0.038
-137.429	82.351	-0.172	-0.184
-136.414	128.822	-0.168	-0.211
-135.399	800.000	0.023	-0.085
-134.385	148.216	0.131	0.174
-133.370	-118.634	-0.204	0.035
-132.356	800.000	0.124	-0.346
-131.341	-200.000	0.028	0.282
-130.326	800.000	0.030	0.095
-129.312	371.320	-0.039	-0.077
-128.297	-37.690	0.171	0.089
-127.283	-75.923	-0.235	0.082
-126.268	284.797	-0.210	-0.372
-125.253	-66.250	-0.185	0.072
-124.239	-8.083	0.114	-0.075
-123.224	190.326	-0.059	0.087
-122.210	-25.253	-0.270	-0.157
-121.195	48.625	-0.114	0.105
-120.180	798.686	-0.049	0.134
-119.166	-22.229	0.404	0.241
-118.151	-122.357	-0.100	-0.016
-117.137	419.851	-0.134	-0.282
-116.122	800.000	-0.068	-0.227
-115.107	-200.000	-0.012	-0.266
-114.093	-41.684	-0.192	0.097
-113.078	-70.042	0.245	0.092
-112.064	430.028	0.091	0.194
-111.049	35.665	-0.247	-0.213
-110.034	-126.078	0.340	0.050
-109.020	381.426	-0.132	-0.267
-108.005	800.000	0.057	-0.204
-106.991	137.660	0.188	0.241
-105.976	-99.227	-0.225	-0.056
-104.962	225.120	-0.136	0.217
-103.947	322.655	0.020	0.038
-102.932	-200.000	-0.019	0.367
-101.918	164.973	0.290	0.402
-100.903	-200.000	0.043	-0.234
-99.889	-14.827	0.055	0.035
-98.874	-129.918	0.094	0.013
-97.859	800.000	0.103	-0.327
-96.845	31.074	-0.256	0.215
-95.830	253.270	0.227	0.380
-94.816	800.000	0.015	0.055
-93.801	70.585	0.278	-0.282
-92.786	-57.866	-0.311	-0.133
-91.772	-65.048	-0.555	-0.220
-90.757	216.676	-0.161	-0.251
-89.743	-66.155	-0.374	0.146
-88.728	726.642	-0.073	-0.191
-87.713	-108.629	-0.146	0.031
-86.699	-43.993	-0.401	0.198
-85.684	10.195	0.185	-0.138
-84.670	326.885	0.049	0.092
-83.655	-32.685	-0.064	0.035
-82.640	88.160	0.221	0.240
-81.626	800.000	0.063	-0.265
-80.611	-122.710	0.388	-0.062
-79.597	-200.000	-0.052	-0.258
-78.582	323.597	0.143	0.268
-77.567	89.906	0.360	0.394
-76.553	57.275	-0.186	-0.178
-75.538	-86.032	-0.125	-0.038
-74.524	-22.983	-0.085	-0.050
-73.509	29.987	0.153	0.127
-72.494	-200.000	-0.013	0.187
-71.480	23.625	0.189	-0.152
-70.465	-71.140	-0.305	0.112
-69.451	800.000	0.081	-0.308
-68.436	-200.000	0.098	0.471
-67.422	-132.837	0.366	-0.046
-66.407	111.002	0.076	0.090
-65.392	-66.713	-0.125	0.048
-64.378	-200.000	0.071	0.380
-63.363	-54.639	0.277	0.123
-62.349	-88.039	0.212	0.062
-61.334	125.101	-0.800	-0.988
-60.319	-54.044	0.770	0.343
-59.305	334.806	-0.574	-1.088
-58.290	393.961	0.564	1.151
-57.276	-200.000	0.394	1.931
-56.261	-200.000	112.279	633.440
-55.246	467.224	1504.608	3302.494
-54.232	148.196	2668.757	3526.289
-53.217	102.948	2175.383	2494.553
-52.203	37.840	1704.817	1483.052
-51.188	30.621	1522.713	1275.294
-50.173	28.357	1498.622	1239.766
-49.159	52.354	1555.231	1452.513
-48.144	51.044	1571.397	1458.543
-47.130	30.880	1528.228	1281.492
-46.115	27.862	1513.021	1248.102
-45.100	27.669	1509.636	1243.939
-44.086	27.669	1507.281	1241.949
-43.071	27.605	1505.693	1240.155
-42.057	27.633	1504.008	1238.911
-41.042	27.560	1502.387	1237.033
-40.027	27.588	1501.061	1236.083
-39.013	27.470	1499.596	1234.027
-37.998	27.492	1498.582	1233.292
-36.984	27.446	1497.442	1231.989
-35.969	27.522	1495.341	1230.730
-34.954	27.604	1494.024	1230.151
-33.940	27.472	1493.207	1228.535
-32.925	27.448	1491.619	1227.017
-31.911	27.569	1490.282	1226.685
-30.896	27.469	1489.330	1225.178
-29.881	27.585	1487.207	1224.162
-28.867	27.548	1486.914	1223.630
-27.852	27.605	1485.030	1222.406
-26.838	27.562	1484.017	1221.241
-25.823	27.583	1482.401	1220.004
-24.809	27.647	1480.130	1218.511
-23.794	27.624	1479.090	1217.453
-22.779	27.567	1478.117	1216.224
-21.765	27.624	1477.104	1215.721
-20.750	27.594	1475.721	1214.337
-19.736	27.622	1474.791	1213.711
-18.721	27.509	1473.781	1212.078
-17.706	27.621	1472.771	1211.944
-16.692	27.408	1472.098	1209.929
-15.677	27.549	1470.260	1209.302
-14.663	27.599	1469.337	1208.829
-13.648	27.530	1468.749	1207.841
-12.633	27.593	1467.907	1207.517
-11.619	27.675	1466.989	1207.259
-10.604	27.566	1466.544	1206.121
-9.590	27.523	1465.583	1205.000
-8.575	27.609	1464.670	1204.765
-7.560	27.595	1463.411	1203.593
-6.546	27.520	1463.013	1202.719
-5.531	27.474	1462.341	1201.820
-4.517	27.567	1461.022	1201.300
-3.502	27.509	1459.834	1199.891
-2.487	27.570	1458.945	1199.514
-1.473	27.498	1457.788	1198.044
-0.458	27.505	1456.209	1196.742
0.556	25.766	1447.215	1186.656
1.571	22.993	1421.754	1147.693
2.586	19.722	1359.589	1077.072
3.600	18.011	1276.603	1001.219
4.615	16.858	1232.401	959.940
5.629	14.680	1175.542	903.795
6.644	7.422	1091.318	802.371
7.659	1.228	1052.473	743.457
8.673	0.406	1046.824	735.394
9.688	0.056	1044.030	731.664
10.702	0.045	1042.223	730.282
11.717	-0.006	1040.427	728.712
12.731	2.445	1042.603	742.063
13.746	10.061	1052.936	786.528
14.761	16.143	1060.215	821.608
15.775	17.203	1060.994	827.304
16.790	16.490	1058.517	821.836
17.804	15.587	1056.299	815.656
18.819	14.560	1054.810	809.456
19.834	14.041	1053.295	805.707
20.848	13.903	1052.635	804.461
21.863	13.601	1051.714	802.222
22.877	13.402	1050.537	800.291
23.892	13.338	1049.300	798.970
24.907	13.127	1049.295	797.876
25.921	13.032	1048.690	796.886
26.936	13.260	1047.103	796.708
27.950	13.254	1047.013	796.543
28.965	13.126	1046.228	795.260
29.980	13.169	1045.747	795.028
30.994	13.355	1044.265	794.727
32.009	13.432	1043.572	794.499
33.023	13.403	1042.711	793.634
34.038	13.573	1041.897	793.759
35.053	13.369	1041.699	792.558
36.067	13.290	1040.492	791.194
37.082	13.281	1039.512	790.336
38.096	13.261	1039.130	789.877
39.111	13.388	1038.521	789.951
40.126	13.226	1037.392	788.250
41.140	13.178	1036.709	787.436
42.155	13.380	1034.715	786.812
43.169	13.162	1034.118	785.251
44.184	13.205	1033.261	784.733
45.199	13.190	1032.039	783.666
46.213	13.161	1031.365	782.945
47.228	13.116	1030.439	781.964
48.242	13.286	1028.897	781.527
49.257	13.178	1028.654	780.763
50.271	13.296	1027.349	780.262
51.286	13.249	1026.412	779.256
52.301	13.225	1025.463	778.356
53.315	13.353	1024.664	778.284
54.330	13.448	1023.214	777.556
55.344	13.302	1022.790	776.483
56.359	13.196	1021.907	775.243
57.374	13.186	1021.353	774.708
58.388	13.253	1020.146	774.039
59.403	13.287	1019.477	773.621
60.417	13.116	1018.799	772.239
61.432	13.102	1018.720	772.045
62.447	13.115	1017.641	771.220
63.461	13.107	1016.689	770.394
64.476	13.092	1015.711	769.515
65.490	13.089	1015.061	768.940
66.505	13.088	1014.316	768.302
67.520	13.075	1013.157	767.296
68.534	13.004	1012.622	766.493
69.549	13.148	1011.665	766.371
70.563	13.107	1011.171	765.738
71.578	13.029	1010.452	764.763
72.593	13.079	1009.471	764.187
73.607	12.999	1008.256	762.827
74.622	13.054	1007.336	762.320
75.636	13.129	1006.644	762.075
76.651	13.034	1005.524	760.722
77.666	13.034	1005.189	760.398
78.680	13.107	1004.166	759.894
79.695	13.063	1003.868	759.399
80.709	13.119	1003.194	759.078
81.724	13.024	1002.600	758.125
82.739	13.213	1001.353	757.981
83.753	13.254	1000.674	757.590
84.768	13.231	1000.117	756.995
85.782	13.296	998.659	756.121
86.797	13.386	998.130	756.069
87.812	13.370	997.356	755.340
88.826	13.258	996.353	754.003
89.841	13.334	995.666	753.764
90.855	13.290	995.210	753.151
91.870	13.339	994.335	752.646
92.884	13.527	993.068	752.473
93.899	13.388	992.811	751.583
94.914	13.410	992.327	751.249
95.928	13.291	991.659	750.136
96.943	13.416	990.444	749.717
97.957	13.433	989.733	749.190
98.972	13.393	988.869	748.289
99.987	13.292	988.012	747.116
101.001	13.359	987.602	747.043
102.016	13.344	986.708	746.233
103.030	13.496	985.598	746.014
104.045	13.453	984.881	745.209
105.060	13.307	984.064	743.868
106.074	13.310	982.829	742.885
107.089	13.265	981.969	741.964
108.103	13.077	981.891	740.996
109.118	13.241	980.384	740.530
110.133	13.198	979.650	739.717
111.147	13.180	978.846	738.964
112.162	13.191	978.022	738.324
113.176	13.242	976.984	737.706
114.191	13.407	976.011	737.641
115.206	13.352	975.467	736.920
116.220	13.319	974.516	735.989
117.235	13.268	973.572	734.985
118.249	13.296	972.881	734.522
119.264	13.205	971.842	733.266
120.279	13.195	970.969	732.501
121.293	13.241	970.318	732.149
122.308	13.241	969.294	731.311
123.322	13.230	968.619	730.687
124.337	13.223	967.505	729.751
125.352	13.229	966.710	729.115
126.366	13.129	965.553	727.738
127.381	13.271	964.395	727.424
128.395	13.227	963.466	726.466
129.410	13.212	962.542	725.638
130.424	13.185	961.527	724.693
131.439	13.267	960.492	724.206
132.454	13.285	959.933	723.800
133.468	13.343	958.875	723.191
134.483	13.260	958.702	722.636
135.497	13.311	957.717	722.050
136.512	13.199	957.317	721.195
137.527	13.306	956.188	720.749
138.541	13.361	955.482	720.392
139.556	13.324	954.853	719.691
140.570	13.357	954.566	719.558
141.585	13.351	953.392	718.582
142.600	13.392	952.944	718.361
143.614	13.401	952.032	717.646
144.629	13.492	951.248	717.389
145.643	13.478	950.400	716.625
146.658	13.388	950.046	715.905
147.673	13.500	948.510	715.165
148.687	13.474	947.843	714.490
149.702	13.432	946.970	713.587
150.716	13.312	946.469	712.629
151.731	13.507	945.360	712.570
152.746	13.375	944.830	711.539
153.760	13.436	943.811	710.972
154.775	13.537	942.917	710.668
155.789	13.387	942.532	709.672
156.804	13.493	942.069	709.715
157.819	13.432	941.267	708.786
158.833	13.585	940.331	708.673
159.848	13.477	939.985	707.887
160.862	13.609	939.207	707.804
161.877	13.601	938.403	707.101
162.892	13.427	937.745	705.800
163.906	13.450	936.513	704.909
164.921	13.473	935.905	704.485
165.935	13.550	934.489	703.683
166.950	13.592	933.134	702.778
167.964	13.592	932.362	702.136
168.979	13.538	931.664	701.321
169.994	13.662	930.443	700.863
171.008	13.655	929.721	700.228
172.023	13.562	929.164	699.353
173.037	13.687	928.209	699.102
174.052	13.697	927.580	698.607
175.067	13.681	926.541	697.697
176.081	13.578	926.421	697.109
177.096	13.561	925.253	696.099
178.110	13.565	924.888	695.780
179.125	13.607	923.847	695.108
180.140	13.681	922.882	694.632
181.154	13.570	922.913	694.130
182.169	13.721	921.913	693.948
183.183	13.681	921.445	693.365
184.198	13.729	920.446	692.754
185.213	13.716	920.032	692.325
186.227	13.692	919.662	691.886
187.242	13.650	919.225	691.324
188.256	13.895	918.014	691.371
189.271	13.911	917.211	690.771
190.286	13.859	916.369	689.861
191.300	13.755	915.693	688.858
192.315	13.822	914.710	688.337
193.329	13.583	914.482	687.112
194.344	13.615	913.900	686.746
195.359	13.665	913.270	686.420
196.373	13.814	912.825	686.642
197.388	13.824	912.236	686.177
198.402	13.880	911.701	685.945
199.417	14.040	911.041	686.051
200.432	13.982	910.651	685.457
201.446	14.085	910.298	685.554
202.461	13.988	909.806	684.721
203.475	14.066	909.237	684.555
204.490	13.996	908.532	683.677
205.504	13.991	907.986	683.183
206.519	14.158	906.707	682.846
207.534	14.140	905.997	682.180
208.548	14.108	905.377	681.520
209.563	14.167	904.658	681.161
210.577	14.142	904.010	680.510
211.592	14.041	903.608	679.734
212.607	14.169	903.218	679.903
213.621	14.217	902.555	679.539
214.636	14.118	901.315	678.144
215.650	14.134	900.718	677.700
216.665	14.096	900.793	677.541
217.680	14.193	900.004	677.281
218.694	14.188	899.486	676.813
219.709	14.249	899.087	676.702
220.723	14.264	898.204	676.036
221.738	14.148	897.963	675.323
222.753	14.226	896.910	674.787
223.767	14.279	896.266	674.460
224.782	14.370	894.863	673.711
225.796	14.368	894.480	673.357
226.811	14.311	893.895	672.623
227.826	14.234	893.554	671.999
228.840	14.414	892.411	671.806
229.855	14.332	892.052	671.144
230.869	14.321	891.233	670.427
231.884	14.393	890.429	670.049
232.899	14.387	889.785	669.482
233.913	14.289	888.878	668.347
234.928	14.396	888.334	668.309
235.942	14.187	887.984	667.150
236.957	14.279	887.380	667.005
237.972	14.414	886.484	666.810
238.986	14.338	885.983	666.071
240.001	14.368	885.421	665.709
241.015	14.365	884.763	665.146
242.030	14.329	884.002	664.370
243.045	14.436	883.092	664.054
244.059	14.463	882.778	663.867
245.074	14.531	881.886	663.407
246.088	14.482	881.487	662.855
247.103	14.544	880.927	662.620
248.117	14.518	880.102	661.839
249.132	14.574	879.689	661.691
250.147	14.665	879.113	661.561
251.161	14.742	877.920	660.910
252.176	14.775	877.637	660.766
253.190	14.776	877.081	660.295
254.205	14.844	876.453	660.033
255.220	14.994	875.530	659.871
256.234	14.745	875.166	658.556
257.249	14.888	874.836	658.810
258.263	14.881	874.120	658.186
259.278	14.911	873.512	657.788
260.293	15.013	873.044	657.779
261.307	14.923	872.359	656.850
262.322	15.002	871.875	656.740
263.336	15.031	871.149	656.247
264.351	14.982	870.765	655.706
265.366	15.074	869.828	655.307
266.380	14.989	869.751	654.856
267.395	15.075	868.748	654.381
268.409	14.967	868.317	653.577
269.424	15.038	867.479	653.161
270.439	15.010	866.736	652.436
271.453	15.168	865.692	652.208
272.468	15.107	865.049	651.429
273.482	15.023	864.660	650.751
274.497	15.108	863.978	650.509
275.512	15.231	863.232	650.369
276.526	15.008	862.669	649.021
277.541	15.053	861.773	648.466
278.555	15.221	861.238	648.656
279.570	15.194	860.874	648.221
280.585	15.312	860.099	648.037
281.599	15.342	859.564	647.690
282.614	15.291	858.946	646.972
283.628	15.145	858.820	646.256
284.643	15.293	857.835	646.027
285.657	15.199	857.487	645.344
286.672	15.344	856.999	645.482
287.687	15.257	856.440	644.667
288.701	15.329	855.991	644.550
289.716	15.361	855.546	644.279
290.730	15.354	854.674	643.541
291.745	15.344	854.352	643.201
292.760	15.388	853.467	642.648
293.774	15.315	853.135	642.059
294.789	15.416	852.604	641.989
295.803	15.367	851.984	641.280
296.818	15.401	851.314	640.849
297.833	15.571	850.056	640.494
298.847	15.463	849.692	639.750
299.862	15.428	848.929	638.986
300.876	15.486	848.449	638.790
301.891	15.562	847.565	638.355
302.906	15.546	847.203	637.966
303.920	15.744	846.138	637.857
304.935	15.613	845.907	637.132
305.949	15.722	845.246	636.989
306.964	15.554	844.921	636.052
307.979	15.703	843.792	635.710
308.993	15.866	843.356	635.942
310.008	15.795	842.673	635.101
311.022	15.807	842.540	634.990
312.037	15.793	842.019	634.489
313.052	15.706	841.636	633.816
314.066	15.574	840.964	632.756
315.081	15.781	840.289	632.971
316.095	15.778	839.131	632.033
317.110	15.617	839.435	631.598
318.125	15.820	838.625	631.695
319.139	15.760	838.015	630.958
320.154	15.855	837.401	630.794
321.168	15.851	836.971	630.399
322.183	15.674	836.643	629.433
323.197	15.954	835.968	629.917
324.212	15.902	835.644	629.424
325.227	15.969	834.712	628.917
326.241	15.976	834.355	628.617
327.256	15.834	833.775	627.594
328.270	15.846	833.267	627.202
329.285	15.878	832.592	626.758
330.300	15.964	831.942	626.532
331.314	15.919	831.428	625.925
332.329	16.012	830.988	625.884
333.343	15.947	830.834	625.468
334.358	16.052	830.012	625.185
335.373	16.008	829.527	624.601
336.387	16.112	828.410	624.088
337.402	16.138	828.025	623.842
338.416	16.029	827.659	623.107
339.431	15.995	827.259	622.625
340.446	16.081	826.592	622.384
341.460	16.327	825.522	622.433
342.475	16.208	825.272	621.750
343.489	16.178	825.038	621.407
344.504	16.192	824.299	620.846
345.519	16.239	823.824	620.606
346.533	16.355	823.203	620.513
347.548	16.478	822.468	620.351
348.562	16.395	822.260	619.835
349.577	16.187	821.655	618.562
350.592	16.208	821.121	618.184
351.606	16.094	821.060	617.665
352.621	16.173	820.263	617.299
353.635	16.170	819.750	616.849
354.650	16.202	819.497	616.720
355.665	16.340	818.874	616.702
356.679	16.243	818.680	616.146
357.694	16.336	818.145	616.027
358.708	16.316	817.534	615.442
359.723	16.351	816.759	614.931
360.738	16.373	816.513	614.770
361.752	16.392	815.809	614.257
362.767	16.444	815.380	614.068
363.781	16.373	815.184	613.608
364.796	16.399	814.875	613.415
365.810	16.463	814.347	613.196
366.825	16.646	813.692	613.312
367.840	16.737	813.027	613.086
368.854	16.833	812.548	613.018
369.869	16.560	812.616	612.025
370.883	16.641	812.006	611.806
371.898	16.514	811.684	611.050
372.913	16.708	810.889	611.097
373.927	16.760	810.072	610.614
374.942	16.794	809.459	610.223
375.956	16.699	808.941	609.436
376.971	16.723	808.372	609.038
377.986	16.770	808.003	608.875
379.000	16.801	807.511	608.563
380.015	16.805	807.207	608.292
381.029	16.952	806.145	607.967
382.044	16.920	805.483	607.300
383.059	16.981	805.188	607.243
384.073	16.821	804.930	606.420
385.088	17.011	804.160	606.464
386.102	16.778	803.707	605.240
387.117	16.868	803.026	604.994
388.132	16.701	803.010	604.333
389.146	16.753	802.475	604.061
390.161	17.008	801.803	604.411
391.175	16.923	801.523	603.844
392.190	16.917	800.964	603.348
393.205	16.946	800.596	603.121
394.219	17.056	800.429	603.331
395.234	17.010	799.733	602.589
396.248	16.959	799.158	601.922
397.263	17.096	798.374	601.763
398.278	16.953	798.075	600.980
399.292	16.953	797.792	600.712
400.307	16.963	797.684	600.612
401.321	16.948	797.060	600.039
402.336	16.822	796.966	599.467
403.350	16.991	796.353	599.550
404.365	16.942	795.915	598.995
405.380	17.123	795.207	599.047
406.394	17.197	794.738	598.903
407.409	17.060	794.669	598.316
408.423	17.182	794.062	598.233
409.438	17.270	793.639	598.172
410.453	17.309	793.169	597.902
411.467	17.297	792.733	597.478
412.482	17.294	791.890	596.781
413.496	17.217	792.039	596.570
414.511	17.193	791.774	596.234
415.526	17.313	791.311	596.253
416.540	17.237	791.164	595.822
417.555	17.321	790.485	595.552
418.569	17.385	789.899	595.282
419.584	17.400	789.412	594.915
420.599	17.530	788.919	594.945
421.613	111.502	1292.127	1478.543
422.628	95.770	1365.428	1478.658
