DTS Sentinel unit serial number:	SN413079Multiplexer serial number:	ORYXHardware model number:	OX4-SRSoftware version number:	ORYX F/W v4.00 Oryx Data Collector v3.7.2.0data status	okinstallation	princeton_trtdifferential loss correction	single-endedforward channel	channel 3reverse channel	N/Adate	2019/09/15time	02:04:35forward acquisition time	60.00reverse acquisition time	0.00gamma	496.2192k internal	0.2322k external	0.2322temperature offset calibration	0.9967default loss term (dB/km)	0.3790temperature slope calibration	1.0000multiplexer offset coefficient	1.0000multiplexer slope coefficient	1.0000fibre end	0.00T internal ref (°C)	31.75T ext. ref 1 (°C)	4.54T ext. ref 2 (°C)	26.48length (m)	temperature (°C)	Stokes	anti-Stokes-747.200	66.257	-0.246	0.252
-746.185	289.681	0.177	0.324
-745.171	259.422	0.053	-0.092
-744.156	-200.000	-0.034	0.330
-743.142	-200.000	0.008	-0.206
-742.127	116.226	-0.233	0.289
-741.112	-17.717	0.186	-0.118
-740.098	-8.146	-0.132	0.090
-739.083	-12.055	0.082	-0.054
-738.069	-157.096	-0.207	0.013
-737.054	311.277	0.061	-0.116
-736.039	103.386	0.014	-0.016
-735.025	-143.515	0.462	0.045
-734.010	579.065	0.044	-0.108
-732.996	-32.163	-0.186	-0.105
-731.981	86.976	0.048	0.053
-730.966	-200.000	0.001	-0.444
-729.952	-50.429	0.211	0.101
-728.937	-200.000	0.013	-0.066
-727.923	95.339	-0.164	-0.189
-726.908	-63.371	-0.069	0.028
-725.894	170.381	-0.121	-0.174
-724.879	-7.046	0.174	-0.119
-723.864	-7.018	-0.094	0.065
-722.850	216.619	0.223	-0.358
-721.835	-101.004	0.257	-0.064
-720.821	-100.847	-0.355	-0.088
-719.806	143.683	-0.127	0.171
-718.791	-45.807	-0.203	-0.101
-717.777	-77.825	0.348	-0.121
-716.762	50.880	0.188	-0.179
-715.748	800.000	-0.058	-0.176
-714.733	800.000	0.088	-0.319
-713.718	-200.000	-0.020	0.138
-712.704	-200.000	0.038	-0.301
-711.689	-200.000	-0.001	-0.088
-710.675	428.857	0.165	-0.359
-709.660	-168.123	-0.135	0.005
-708.645	-166.062	0.044	0.002
-707.631	24.400	-0.194	0.162
-706.616	253.562	0.144	-0.248
-705.602	45.382	-0.146	0.136
-704.587	-200.000	0.022	0.126
-703.572	-44.760	0.340	-0.171
-702.558	-53.060	0.129	-0.060
-701.543	196.019	-0.099	0.153
-700.529	345.195	0.159	0.315
-699.514	-22.017	0.141	0.086
-698.499	-65.286	0.051	0.021
-697.485	650.067	0.097	-0.250
-696.470	-40.755	-0.163	0.085
-695.456	-74.777	-0.220	0.080
-694.441	152.062	0.124	0.171
-693.426	242.427	0.177	-0.299
-692.412	341.366	-0.121	0.238
-691.397	800.000	0.048	-0.196
-690.383	-200.000	-0.017	-0.156
-689.368	-13.463	-0.171	0.112
-688.354	800.000	-0.038	0.149
-687.339	302.728	0.289	-0.539
-686.324	-47.071	-0.138	0.068
-685.310	-166.324	-0.145	-0.006
-684.295	-78.345	-0.133	-0.046
-683.281	-200.000	0.004	-0.171
-682.266	800.000	0.057	-0.182
-681.251	56.867	0.235	0.231
-680.237	24.133	0.068	0.057
-679.222	-200.000	-0.000	0.143
-678.208	18.580	-0.286	-0.231
-677.193	-33.443	-0.095	-0.053
-676.178	-115.259	-0.485	-0.092
-675.164	-200.000	0.020	-0.471
-674.149	-70.624	-0.161	0.061
-673.135	267.452	-0.117	-0.206
-672.120	-9.259	0.153	-0.103
-671.105	-200.000	-0.006	-0.047
-670.091	59.332	0.162	-0.161
-669.076	-55.712	-0.284	0.128
-668.062	-75.010	0.124	0.045
-667.047	-41.984	0.327	0.169
-666.032	135.595	0.124	0.162
-665.018	-74.895	-0.166	0.060
-664.003	168.503	0.089	-0.128
-662.989	-165.899	-0.020	0.001
-661.974	-200.000	0.045	-0.241
-660.959	-188.819	-0.601	0.007
-659.945	-84.361	0.290	-0.092
-658.930	92.080	0.216	-0.245
-657.916	-90.162	0.230	0.068
-656.901	-109.868	-0.473	-0.100
-655.886	-7.464	-0.063	-0.043
-654.872	762.242	-0.030	0.082
-653.857	250.426	-0.078	-0.133
-652.843	-56.351	-0.165	0.074
-651.828	80.530	-0.098	-0.107
-650.814	-96.206	0.242	0.065
-649.799	61.533	0.226	0.226
-648.784	-200.000	-0.024	-0.192
-647.770	60.399	-0.164	-0.164
-646.755	-200.000	-0.100	0.454
-645.741	219.164	0.118	0.189
-644.726	-200.000	0.024	0.377
-643.711	737.139	-0.048	-0.129
-642.697	-1.393	-0.165	-0.117
-641.682	-188.734	0.292	-0.004
-640.668	194.150	0.069	0.106
-639.653	218.520	0.084	0.135
-638.638	-79.379	-0.203	0.069
-637.624	79.387	0.127	-0.137
-636.609	-107.100	-0.293	0.065
-635.595	324.779	-0.152	-0.293
-634.580	-111.443	-0.302	-0.062
-633.565	-88.777	-0.226	-0.067
-632.551	106.314	-0.142	0.170
-631.536	10.005	-0.073	0.056
-630.522	585.662	-0.133	-0.330
-629.507	800.000	-0.058	-0.192
-628.492	-85.535	-0.104	-0.032
-627.478	306.694	0.108	-0.203
-626.463	-91.778	0.170	0.049
-625.449	-7.003	0.145	-0.099
-624.434	-200.000	0.007	-0.158
-623.419	290.089	-0.031	0.056
-622.405	-165.151	-0.353	0.016
-621.390	113.602	-0.092	0.113
-620.376	122.749	-0.221	-0.278
-619.361	800.000	-0.027	0.107
-618.346	276.026	-0.083	-0.148
-617.332	800.000	-0.139	0.393
-616.317	800.000	-0.039	0.137
-615.303	149.232	0.194	-0.264
-614.288	-143.389	0.192	-0.018
-613.273	-152.935	-0.407	0.029
-612.259	-70.418	0.213	0.081
-611.244	-8.843	0.082	-0.055
-610.230	-59.829	-0.170	-0.073
-609.215	-81.503	-0.192	-0.063
-608.201	164.413	0.241	-0.341
-607.186	-200.000	-0.051	-0.225
-606.171	-112.653	-0.138	-0.028
-605.157	-200.000	-0.060	0.324
-604.142	621.931	-0.037	0.093
-603.128	110.062	-0.035	-0.042
-602.113	58.782	0.072	-0.071
-601.098	312.488	-0.108	-0.204
-600.084	190.381	0.084	-0.126
-599.069	326.723	0.124	-0.239
-598.055	684.084	0.031	-0.081
-597.040	4.445	-0.132	0.098
-596.025	231.826	0.083	-0.137
-595.011	39.083	-0.023	0.021
-593.996	47.405	-0.140	-0.131
-592.982	176.338	-0.163	-0.238
-591.967	-200.000	0.001	-0.042
-590.952	-72.070	-0.245	0.091
-589.938	800.000	0.069	0.277
-588.923	-200.000	0.036	-0.216
-587.909	-127.399	0.120	-0.018
-586.894	-200.000	0.007	-0.043
-585.879	-98.582	-0.070	0.018
-584.865	-200.000	0.040	-0.228
-583.850	-200.000	0.032	0.224
-582.836	69.378	-0.149	0.154
-581.821	37.889	0.163	-0.145
-580.806	32.572	-0.180	-0.156
-579.792	800.000	-0.052	-0.197
-578.777	-97.939	-0.183	0.047
-577.763	-33.004	-0.353	-0.197
-576.748	-51.514	0.131	0.061
-575.733	424.511	0.109	-0.236
-574.719	247.696	0.039	-0.065
-573.704	17.518	-0.173	-0.138
-572.690	-92.099	-0.181	0.051
-571.675	33.164	-0.064	-0.056
-570.661	7.444	0.136	-0.102
-569.646	-200.000	0.029	0.264
-568.631	443.255	0.106	0.233
-567.617	-59.376	0.333	0.144
-566.602	800.000	-0.051	-0.166
-565.588	280.204	-0.043	0.077
-564.573	226.276	0.189	-0.308
-563.558	-173.585	0.199	-0.006
-562.544	-48.082	0.151	-0.073
-561.529	31.725	0.130	-0.113
-560.515	281.221	0.083	-0.149
-559.500	-90.604	-0.242	-0.070
-558.485	-31.358	0.004	0.002
-557.471	-87.163	-0.210	0.064
-556.456	-200.000	-0.004	0.170
-555.442	741.098	0.025	0.066
-554.427	-113.311	-0.060	0.012
-553.412	479.730	-0.002	-0.004
-552.398	-34.494	-0.405	0.222
-551.383	-99.779	-0.384	0.096
-550.369	-165.689	-0.396	0.017
-549.354	-116.134	0.274	0.051
-548.339	485.340	-0.153	-0.350
-547.325	-200.000	0.035	-0.497
-546.310	-101.188	-0.090	0.022
-545.296	95.592	0.088	0.101
-544.281	260.066	-0.087	0.151
-543.266	-196.811	0.308	0.002
-542.252	-47.007	-0.288	-0.141
-541.237	138.167	-0.132	-0.173
-540.223	-200.000	0.003	0.237
-539.208	-25.866	-0.363	0.214
-538.193	269.894	0.091	-0.161
-537.179	-28.384	-0.170	-0.098
-536.164	-200.000	0.309	0.001
-535.150	96.820	0.067	0.077
-534.135	-147.466	0.181	-0.015
-533.121	-129.099	0.327	-0.046
-532.106	465.284	0.073	0.164
-531.091	-200.000	0.007	0.037
-530.077	-49.207	0.161	-0.077
-529.062	-103.887	0.276	0.065
-528.048	-16.394	0.304	-0.193
-527.033	800.000	-0.052	-0.219
-526.018	106.072	0.122	-0.145
-525.004	-147.679	-0.052	-0.004
-523.989	-200.000	-0.014	-0.205
-522.975	-80.823	0.211	0.070
-521.960	-200.000	0.054	0.359
-520.945	-106.479	0.267	-0.060
-519.931	-200.000	-0.009	-0.251
-518.916	745.648	0.093	0.251
-517.902	152.111	-0.064	-0.087
-516.887	-200.000	-0.047	-0.476
-515.872	-101.656	0.137	0.033
-514.858	179.711	0.111	-0.162
-513.843	-3.644	-0.099	0.069
-512.829	-168.928	0.509	0.019
-511.814	-125.562	-0.159	-0.024
-510.799	-41.476	0.303	0.156
-509.785	-200.000	-0.009	-0.151
-508.770	38.566	-0.077	-0.068
-507.756	800.000	0.055	0.174
-506.741	-13.181	-0.218	-0.142
-505.726	155.706	-0.102	-0.141
-504.712	350.349	-0.069	-0.137
-503.697	388.094	-0.080	0.165
-502.683	18.927	0.058	-0.046
-501.668	-94.859	0.255	0.069
-500.653	-200.000	0.027	0.123
-499.639	249.050	0.071	-0.120
-498.624	137.082	-0.214	-0.280
-497.610	192.058	0.237	0.358
-496.595	800.000	0.128	-0.357
-495.581	-108.587	0.521	-0.112
-494.566	86.680	0.091	-0.101
-493.551	-32.273	-0.181	-0.101
-492.537	15.662	0.132	0.104
-491.522	800.000	-0.048	0.200
-490.508	-30.882	-0.278	0.157
-489.493	-118.391	-0.369	0.065
-488.478	102.590	0.036	-0.042
-487.464	-67.453	0.104	-0.041
-486.449	-99.625	0.063	-0.016
-485.435	6.833	-0.248	-0.185
-484.420	-27.531	-0.262	0.152
-483.405	-200.000	-0.004	0.267
-482.391	149.926	-0.056	-0.076
-481.376	52.811	0.221	-0.211
-480.362	-161.661	0.179	0.009
-479.347	166.342	0.511	0.724
-478.332	-200.000	0.011	0.145
-477.318	-200.000	0.008	-0.058
-476.303	800.000	0.061	0.181
-475.289	13.706	-0.251	0.195
-474.274	-83.780	-0.152	-0.048
-473.259	775.509	0.014	-0.040
-472.245	-126.536	0.471	0.070
-471.230	112.927	0.193	-0.234
-470.216	-180.725	-0.177	-0.004
-469.201	-17.784	0.223	0.140
-468.186	128.146	-0.160	0.204
-467.172	-35.823	0.229	-0.124
-466.157	18.714	-0.158	-0.126
-465.143	-32.206	0.204	0.114
-464.128	-115.947	-0.066	-0.012
-463.113	12.444	0.260	-0.201
-462.099	-12.607	-0.212	0.138
-461.084	-50.035	-0.098	-0.046
-460.070	-200.000	0.021	0.271
-459.055	-145.806	0.020	0.002
-458.040	-200.000	0.004	0.197
-457.026	98.503	0.200	0.230
-456.011	194.650	-0.118	0.180
-454.997	491.875	0.038	0.088
-453.982	18.790	-0.338	0.271
-452.968	207.915	0.318	0.496
-451.953	-95.332	0.082	0.022
-450.938	383.717	0.187	0.384
-449.924	-17.018	0.248	-0.156
-448.909	311.401	0.032	-0.061
-447.895	10.124	-0.197	-0.150
-446.880	160.173	0.106	-0.148
-445.865	800.000	-0.034	-0.115
-444.851	-200.000	0.007	-0.094
-443.836	-33.299	-0.339	-0.188
-442.822	-35.408	-0.202	0.110
-441.807	588.901	0.040	-0.099
-440.792	-53.095	0.334	-0.153
-439.778	800.000	-0.113	-0.334
-438.763	-15.802	-0.031	-0.020
-437.749	-73.615	0.378	-0.137
-436.734	246.897	-0.039	0.065
-435.719	-14.758	0.086	0.055
-434.705	15.081	0.033	0.026
-433.690	-159.150	-0.080	-0.005
-432.676	13.237	-0.019	-0.015
-431.661	-2.741	0.248	-0.173
-430.646	-200.000	-0.018	-0.098
-429.632	800.000	0.041	0.175
-428.617	22.484	0.112	0.092
-427.603	70.459	-0.135	-0.139
-426.588	19.918	0.374	-0.301
-425.573	-104.208	-0.328	0.076
-424.559	-200.000	-0.013	0.118
-423.544	800.000	0.106	-0.303
-422.530	-114.207	-0.230	0.044
-421.515	70.862	0.100	0.103
-420.500	222.566	-0.184	-0.295
-419.486	164.827	-0.085	0.120
-418.471	800.000	0.020	0.070
-417.457	-200.000	-0.014	0.208
-416.442	-53.352	-0.121	0.056
-415.428	179.999	0.066	0.097
-414.413	-200.000	-0.018	0.186
-413.398	144.289	-0.121	0.161
-412.384	217.009	-0.097	-0.155
-411.369	-64.375	-0.413	-0.167
-410.355	-136.079	0.293	0.034
-409.340	-200.000	0.052	-0.388
-408.325	800.000	-0.092	0.307
-407.311	-132.694	0.335	-0.043
-406.296	-116.873	-0.194	-0.035
-405.282	800.000	-0.082	-0.334
-404.267	-75.648	0.360	-0.127
-403.252	800.000	0.093	-0.301
-402.238	-147.278	-0.235	-0.020
-401.223	800.000	0.091	0.370
-400.209	117.852	-0.044	0.054
-399.194	-200.000	-0.005	-0.046
-398.179	61.530	0.146	-0.145
-397.165	-52.265	0.158	0.073
-396.150	-200.000	-0.006	-0.202
-395.136	6.894	0.198	0.147
-394.121	-178.009	0.274	0.006
-393.106	-114.703	-0.334	0.064
-392.092	63.408	0.301	0.301
-391.077	-42.239	-0.139	-0.071
-390.063	540.215	0.049	0.115
-389.048	-59.991	0.395	-0.168
-388.033	800.000	-0.031	0.094
-387.019	-84.243	-0.245	0.077
-386.004	694.101	-0.057	-0.150
-384.990	542.775	-0.053	0.126
-383.975	-75.229	-0.114	-0.040
-382.960	-200.000	-0.027	-0.236
-381.946	-200.000	0.021	0.483
-380.931	-22.676	-0.148	0.089
-379.917	-31.795	-0.085	0.047
-378.902	-133.874	-0.196	0.024
-377.888	-47.303	-0.128	0.062
-376.873	-28.441	0.118	-0.068
-375.858	800.000	0.054	-0.209
-374.844	-171.724	0.233	-0.008
-373.829	-104.653	0.137	-0.031
-372.815	-66.155	-0.073	-0.029
-371.800	-88.436	-0.162	0.048
-370.785	-200.000	0.016	-0.347
-369.771	-44.932	0.055	-0.027
-368.756	5.162	0.204	0.150
-367.742	61.959	0.113	0.112
-366.727	-21.639	-0.199	0.120
-365.712	66.460	-0.174	-0.176
-364.698	-200.000	-0.019	-0.244
-363.683	96.670	0.079	-0.090
-362.669	-171.995	-0.187	0.006
-361.654	695.786	-0.098	-0.256
-360.639	800.000	-0.011	-0.042
-359.625	-200.000	-0.025	0.161
-358.610	-157.605	-0.273	-0.016
-357.596	-11.581	0.071	0.047
-356.581	-80.359	-0.195	0.065
-355.566	800.000	0.025	-0.084
-354.552	538.296	-0.026	-0.062
-353.537	-181.230	0.178	0.004
-352.523	800.000	0.007	0.028
-351.508	-200.000	-0.003	-0.069
-350.493	64.880	-0.161	-0.162
-349.479	-200.000	-0.009	0.092
-348.464	-200.000	-0.007	0.099
-347.450	-16.668	-0.195	0.123
-346.435	-26.803	0.188	0.109
-345.420	-51.228	-0.189	0.088
-344.406	-200.000	0.020	-0.264
-343.391	-136.818	0.373	-0.043
-342.377	-107.763	0.180	-0.039
-341.362	-38.240	0.282	0.149
-340.348	630.785	0.051	-0.128
-339.333	-179.867	-0.374	0.008
-338.318	613.390	0.084	0.209
-337.304	-196.036	0.376	0.003
-336.289	-138.763	-0.389	-0.042
-335.275	-108.988	-0.096	0.020
-334.260	-62.672	0.040	0.016
-333.245	-91.659	-0.345	0.098
-332.231	-200.000	-0.008	-0.157
-331.216	800.000	-0.053	-0.153
-330.202	236.132	0.092	-0.152
-329.187	185.391	0.161	-0.238
-328.172	364.946	0.095	0.191
-327.158	184.861	0.103	-0.152
-326.143	-27.725	0.221	-0.127
-325.129	-129.525	-0.275	0.038
-324.114	-22.503	0.108	0.065
-323.099	753.061	-0.053	0.143
-322.085	-200.000	-0.107	-0.538
-321.070	-8.892	-0.048	0.032
-320.056	-200.000	-0.064	-0.335
-319.041	161.868	0.234	0.325
-318.026	143.918	-0.060	-0.080
-317.012	-131.793	0.211	0.027
-315.997	96.481	0.110	0.125
-314.983	-200.000	0.046	0.261
-313.968	-88.934	0.008	-0.002
-312.953	-200.000	0.013	0.187
-311.939	20.335	0.090	0.072
-310.924	-32.226	0.224	-0.125
-309.910	800.000	-0.018	-0.051
-308.895	-200.000	-0.070	0.365
-307.880	-138.814	-0.286	0.031
-306.866	652.039	0.099	0.252
-305.851	-16.905	0.126	-0.079
-304.837	-151.210	-0.367	0.027
-303.822	160.323	0.190	-0.263
-302.807	100.892	-0.050	-0.058
-301.793	-123.999	0.275	0.043
-300.778	-200.000	0.007	0.124
-299.764	18.274	0.017	-0.013
-298.749	120.201	0.071	0.088
-297.735	38.116	0.155	0.137
-296.720	-8.053	0.111	-0.074
-295.705	-162.639	-0.348	-0.017
-294.691	-200.000	0.001	-0.087
-293.676	367.208	0.139	0.278
-292.662	-79.876	-0.081	0.027
-291.647	-200.000	-0.016	-0.080
-290.632	276.693	0.140	-0.246
-289.618	-200.000	-0.023	-0.129
-288.603	-9.506	0.135	-0.089
-287.589	365.241	-0.108	-0.215
-286.574	22.342	0.154	-0.125
-285.559	-97.865	0.162	-0.042
-284.545	800.000	0.037	-0.140
-283.530	-200.000	-0.021	0.287
-282.516	8.523	-0.092	-0.069
-281.501	-172.040	0.131	-0.004
-280.486	-50.188	0.132	0.062
-279.472	91.818	0.039	0.043
-278.457	-200.000	-0.006	0.092
-277.443	279.686	0.092	0.164
-276.428	-94.160	-0.109	-0.030
-275.413	535.208	0.123	-0.290
-274.399	800.000	0.006	0.024
-273.384	-67.148	0.189	0.074
-272.370	54.984	0.180	0.172
-271.355	123.247	-0.136	0.169
-270.340	-100.254	0.070	0.017
-269.326	232.013	-0.144	-0.235
-268.311	289.004	0.033	0.059
-267.297	-200.000	0.041	0.430
-266.282	208.204	-0.090	-0.139
-265.267	800.000	-0.030	-0.108
-264.253	182.665	-0.115	0.169
-263.238	351.499	-0.038	0.075
-262.224	-157.613	-0.195	0.012
-261.209	-38.245	-0.024	-0.012
-260.195	177.621	-0.059	-0.085
-259.180	-95.417	-0.223	-0.059
-258.165	30.819	-0.079	-0.067
-257.151	59.846	0.099	-0.096
-256.136	-120.892	-0.199	0.033
-255.122	-167.493	0.305	-0.012
-254.107	96.716	0.165	-0.188
-253.092	-200.000	-0.049	0.308
-252.078	141.834	0.131	-0.172
-251.063	670.254	0.098	0.251
-250.049	800.000	-0.023	-0.073
-249.034	-200.000	0.027	-0.229
-248.019	207.668	-0.146	-0.226
-247.005	-200.000	0.029	-0.220
-245.990	-152.138	-0.163	0.012
-244.976	-200.000	-0.047	-0.262
-243.961	-80.018	0.156	-0.052
-242.946	-76.019	0.078	0.027
-241.932	-200.000	-0.020	0.258
-240.917	-200.000	0.016	0.073
-239.903	-64.060	0.149	-0.060
-238.888	-156.483	-0.205	-0.013
-237.873	-80.552	-0.231	0.076
-236.859	800.000	0.090	0.314
-235.844	570.724	-0.055	0.133
-234.830	150.569	0.050	-0.068
-233.815	28.303	-0.325	-0.272
-232.800	-5.081	-0.152	-0.104
-231.786	-62.677	-0.160	0.066
-230.771	-47.445	0.185	0.089
-229.757	800.000	0.014	0.045
-228.742	-113.209	0.077	0.015
-227.727	-200.000	-0.003	0.347
-226.713	150.184	-0.091	0.122
-225.698	131.353	-0.129	-0.164
-224.684	-124.848	0.392	-0.060
-223.669	-200.000	-0.004	-0.033
-222.655	251.149	0.185	0.311
-221.640	-200.000	0.001	-0.008
-220.625	176.348	-0.221	0.318
-219.611	-41.425	-0.311	0.158
-218.596	-28.033	-0.384	0.220
-217.582	800.000	0.112	0.341
-216.567	-200.000	0.055	0.320
-215.552	-95.803	0.190	-0.050
-214.538	130.120	0.134	0.169
-213.523	-51.627	-0.112	0.052
-212.509	-200.000	0.084	-0.410
-211.494	673.276	-0.086	0.221
-210.479	152.312	0.142	0.191
-209.465	-200.000	-0.007	-0.095
-208.450	-82.073	-0.189	0.061
-207.436	-56.486	-0.127	-0.056
-206.421	-38.696	-0.289	-0.151
-205.406	-19.127	0.069	-0.042
-204.392	97.849	-0.211	-0.240
-203.377	-133.872	0.376	-0.046
-202.363	135.358	-0.085	0.109
-201.348	46.306	-0.152	-0.139
-200.333	-135.315	0.202	-0.024
-199.319	-200.000	-0.059	-0.277
-198.304	-200.000	0.070	0.313
-197.290	-33.447	-0.076	0.042
-196.275	135.581	-0.135	0.173
-195.260	5.330	-0.114	0.083
-194.246	2.997	0.114	-0.082
-193.231	-200.000	0.003	0.296
-192.217	800.000	0.126	-0.464
-191.202	309.956	-0.117	-0.217
-190.187	85.839	0.075	0.082
-189.173	-52.054	-0.176	-0.081
-188.158	383.903	0.141	0.288
-187.144	-200.000	-0.005	-0.201
-186.129	-143.471	0.254	0.024
-185.114	645.974	0.053	0.135
-184.100	800.000	-0.080	0.250
-183.085	800.000	-0.031	-0.097
-182.071	-88.478	0.125	0.037
-181.056	-200.000	0.046	-0.256
-180.042	556.820	-0.259	0.618
-179.027	209.296	0.069	0.107
-178.012	193.275	0.087	-0.131
-176.998	-17.356	-0.195	-0.121
-175.983	217.012	-0.180	0.283
-174.969	-200.000	0.012	-0.387
-173.954	19.085	0.194	0.154
-172.939	36.791	-0.175	0.153
-171.925	-58.002	0.250	0.108
-170.910	-68.510	-0.369	0.141
-169.896	800.000	0.145	0.426
-168.881	268.970	-0.051	0.088
-167.866	16.648	-0.293	0.229
-166.852	231.349	0.160	-0.258
-165.837	-200.000	-0.034	0.179
-164.823	14.072	-0.137	0.106
-163.808	-141.090	-0.596	-0.060
-162.793	800.000	0.037	-0.115
-161.779	16.410	0.099	-0.077
-160.764	7.637	-0.170	-0.126
-159.750	-127.615	0.102	-0.015
-158.735	478.445	-0.068	0.152
-157.720	164.787	0.051	0.072
-156.706	800.000	-0.046	-0.151
-155.691	-10.499	0.282	-0.185
-154.677	-200.000	0.018	0.255
-153.662	800.000	0.117	0.450
-152.647	423.301	-0.056	-0.118
-151.633	-97.861	0.095	-0.024
-150.618	72.517	0.289	0.297
-149.604	271.228	0.026	0.046
-148.589	173.237	0.176	0.250
-147.574	194.231	-0.216	-0.322
-146.560	122.471	0.018	-0.022
-145.545	-200.000	0.057	-0.275
-144.531	-46.625	-0.123	0.060
-143.516	22.390	0.393	0.317
-142.502	-200.000	0.048	-0.309
-141.487	315.952	-0.151	-0.281
-140.472	-21.250	0.272	-0.164
-139.458	546.297	0.049	0.116
-138.443	582.128	0.027	-0.066
-137.429	626.683	0.051	-0.128
-136.414	-200.000	-0.021	-0.347
-135.399	-106.634	0.346	0.076
-134.385	565.886	-0.031	0.074
-133.370	-200.000	0.049	-0.220
-132.356	-15.563	0.019	0.012
-131.341	-136.857	0.295	-0.033
-130.326	-108.836	-0.272	-0.057
-129.312	-63.128	0.152	0.062
-128.297	-87.631	-0.161	-0.048
-127.283	-165.469	0.084	-0.004
-126.268	85.995	-0.049	0.053
-125.253	54.615	0.139	-0.132
-124.239	800.000	-0.055	-0.231
-123.224	-116.732	0.200	-0.036
-122.210	-28.231	-0.312	-0.178
-121.195	45.841	0.214	0.195
-120.180	-200.000	-0.038	0.246
-119.166	-142.498	-0.166	-0.016
-118.151	-200.000	0.051	-0.261
-117.137	-200.000	0.001	-0.352
-116.122	-138.358	-0.141	-0.015
-115.107	147.851	-0.245	0.325
-114.093	-200.000	0.000	0.286
-113.078	43.264	0.167	-0.150
-112.064	-200.000	-0.018	-0.290
-111.049	612.325	-0.260	0.642
-110.034	18.475	0.197	-0.156
-109.020	-102.586	0.479	-0.113
-108.005	-44.381	-0.112	-0.055
-106.991	246.933	0.209	0.348
-105.976	800.000	0.028	-0.119
-104.962	334.870	-0.137	-0.261
-103.947	-200.000	0.023	0.174
-102.932	-71.654	0.462	-0.170
-101.918	-200.000	0.092	0.000
-100.903	-200.000	-0.044	-0.216
-99.889	563.334	0.089	-0.213
-98.874	284.591	0.021	-0.038
-97.859	31.380	-0.125	-0.105
-96.845	-28.089	-0.066	-0.038
-95.830	160.649	0.171	0.235
-94.816	-200.000	0.027	-0.195
-93.801	-43.991	0.123	0.061
-92.786	-200.000	0.279	0.000
-91.772	-91.097	0.070	-0.020
-90.757	-3.283	0.290	0.199
-89.743	486.444	0.051	0.115
-88.728	-117.704	0.226	0.040
-87.713	101.236	-0.178	-0.205
-86.699	-140.866	-0.204	-0.021
-85.684	-27.963	0.119	-0.068
-84.670	-74.219	-0.323	0.115
-83.655	-104.782	0.383	-0.087
-82.640	484.228	-0.135	-0.303
-81.626	91.943	-0.014	-0.015
-80.611	-200.000	-0.009	0.063
-79.597	-200.000	0.017	0.187
-78.582	218.927	-0.209	-0.329
-77.567	-107.063	-0.292	0.064
-76.553	-200.000	-0.063	0.345
-75.538	196.049	0.178	0.267
-74.524	-200.000	0.007	0.048
-73.509	120.785	0.200	-0.244
-72.494	-36.996	0.114	-0.060
-71.480	29.406	-0.087	-0.073
-70.465	-170.043	0.261	0.009
-69.451	-108.918	-0.138	0.029
-68.436	-81.075	-0.380	-0.124
-67.422	-71.077	0.218	-0.081
-66.407	-163.126	0.333	-0.016
-65.392	2.756	-0.247	0.176
-64.378	-112.901	-0.284	-0.055
-63.363	149.477	0.125	-0.166
-62.349	69.012	0.099	0.100
-61.334	58.996	-0.999	-0.966
-60.319	117.469	0.557	0.675
-59.305	354.070	-0.455	-0.890
-58.290	378.860	0.596	1.200
-57.276	432.783	0.581	1.240
-56.261	-200.000	96.877	603.207
-55.246	642.637	1379.258	3457.232
-54.232	197.629	2557.898	3841.568
-53.217	119.555	2160.612	2631.332
-52.203	42.625	1702.379	1523.858
-51.188	34.995	1514.264	1303.694
-50.173	32.652	1487.373	1264.786
-49.159	52.140	1536.972	1440.340
-48.144	53.990	1554.733	1469.549
-47.130	35.202	1514.650	1305.229
-46.115	32.022	1499.731	1270.825
-45.100	31.906	1496.862	1267.560
-44.086	31.852	1494.555	1265.193
-43.071	31.778	1492.635	1263.021
-42.057	31.802	1490.373	1261.216
-41.042	31.758	1489.410	1260.057
-40.027	31.843	1487.920	1259.320
-39.013	31.756	1486.361	1257.367
-37.998	31.695	1485.315	1256.017
-36.984	31.644	1484.548	1254.982
-35.969	31.691	1483.151	1254.062
-34.954	31.729	1481.483	1252.857
-33.940	31.708	1480.065	1251.470
-32.925	31.839	1478.450	1250.927
-31.911	31.735	1477.177	1249.109
-30.896	31.853	1476.047	1248.889
-29.881	31.885	1474.129	1247.426
-28.867	31.853	1473.140	1246.328
-27.852	31.930	1472.146	1245.954
-26.838	31.823	1470.585	1243.871
-25.823	31.794	1468.864	1242.174
-24.809	31.810	1467.315	1240.922
-23.794	31.758	1465.909	1239.335
-22.779	31.766	1464.722	1238.340
-21.765	31.813	1463.504	1237.566
-20.750	31.751	1462.382	1236.163
-19.736	31.819	1461.293	1235.643
-18.721	31.790	1459.885	1234.213
-17.706	31.676	1459.162	1232.801
-16.692	31.801	1457.973	1232.570
-15.677	31.700	1456.951	1230.991
-14.663	31.740	1455.818	1230.248
-13.648	31.737	1455.235	1229.687
-12.633	31.672	1454.673	1228.736
-11.619	31.757	1453.414	1228.179
-10.604	31.716	1452.779	1227.327
-9.590	31.690	1451.809	1226.291
-8.575	31.659	1451.290	1225.600
-7.560	31.686	1449.708	1224.388
-6.546	31.733	1448.810	1223.892
-5.531	31.735	1448.047	1223.212
-4.517	31.623	1447.097	1221.630
-3.502	31.702	1445.711	1220.928
-2.487	31.751	1444.944	1220.551
-1.473	31.760	1443.621	1219.443
-0.458	31.739	1442.565	1218.365
0.556	30.377	1433.139	1207.395
1.571	27.441	1407.239	1166.692
2.586	24.013	1347.543	1096.026
3.600	22.314	1267.035	1020.611
4.615	20.861	1221.929	976.054
5.629	18.084	1165.886	916.339
6.644	10.867	1083.456	815.397
7.659	5.334	1045.072	759.612
8.673	4.639	1039.588	752.195
9.688	4.530	1036.267	749.202
10.702	4.560	1034.637	748.103
11.717	4.441	1032.978	746.265
12.731	6.624	1034.143	757.530
13.746	13.197	1044.137	796.563
14.761	18.264	1049.810	825.319
15.775	18.446	1048.723	825.269
16.790	17.533	1046.624	819.155
17.804	16.228	1044.936	811.490
18.819	15.355	1042.755	805.533
19.834	14.906	1041.542	802.369
20.848	14.629	1040.777	800.381
21.863	14.556	1039.589	799.049
22.877	14.322	1039.115	797.491
23.892	14.040	1038.365	795.495
24.907	13.997	1037.544	794.590
25.921	14.039	1036.495	793.916
26.936	13.984	1035.769	793.030
27.950	13.972	1035.110	792.398
28.965	14.184	1033.365	792.002
29.980	14.262	1032.597	791.713
30.994	14.183	1031.571	790.483
32.009	14.347	1030.847	790.634
33.023	14.433	1029.988	790.315
34.038	14.221	1029.353	788.752
35.053	14.334	1028.081	788.243
36.067	14.219	1027.245	786.990
37.082	14.182	1026.496	786.172
38.096	14.139	1025.782	785.350
39.111	14.303	1024.778	785.285
40.126	14.237	1024.131	784.412
41.140	14.228	1022.686	783.188
42.155	14.053	1021.901	781.698
43.169	13.866	1020.609	779.761
44.184	13.988	1019.329	779.287
45.199	13.896	1018.593	778.226
46.213	13.899	1017.447	777.294
47.228	14.002	1016.773	777.194
48.242	14.022	1015.747	776.432
49.257	14.036	1015.125	775.956
50.271	14.131	1013.686	775.229
51.286	14.188	1012.672	774.652
52.301	14.195	1012.008	774.107
53.315	14.176	1011.369	773.462
54.330	14.069	1010.672	772.362
55.344	14.012	1009.673	771.264
56.359	14.040	1008.686	770.574
57.374	14.103	1007.802	770.123
58.388	14.075	1006.842	769.189
59.403	13.999	1006.361	768.402
60.417	13.891	1005.628	767.277
61.432	13.963	1004.911	766.992
62.447	13.947	1003.880	766.064
63.461	13.939	1003.118	765.379
64.476	13.729	1002.601	763.949
65.490	13.806	1001.671	763.529
66.505	13.865	1000.740	763.023
67.520	13.794	1000.188	762.205
68.534	13.841	999.166	761.575
69.549	13.806	998.687	760.984
70.563	14.047	997.501	761.116
71.578	13.905	997.470	760.376
72.593	13.738	996.366	758.701
73.607	13.757	995.173	757.815
74.622	13.801	993.992	757.049
75.636	13.671	993.398	755.935
76.651	13.710	992.969	755.719
77.666	13.623	992.624	754.993
78.680	13.762	991.297	754.553
79.695	13.849	990.752	754.465
80.709	13.753	990.450	753.732
81.724	13.842	989.463	753.316
82.739	14.035	988.534	753.417
83.753	14.021	987.982	752.870
84.768	14.060	986.791	752.071
85.782	14.103	986.466	751.952
86.797	14.315	986.238	752.667
87.812	14.214	985.021	751.215
88.826	14.218	984.178	750.526
89.841	14.253	983.442	750.055
90.855	14.128	982.482	748.697
91.870	14.261	981.720	748.648
92.884	14.273	981.482	748.453
93.899	14.208	980.866	747.625
94.914	14.167	979.944	746.670
95.928	14.165	979.217	746.041
96.943	14.365	978.500	746.325
97.957	14.406	977.804	745.914
98.972	14.329	976.332	744.380
99.987	14.230	976.265	743.819
101.001	14.170	975.816	743.143
102.016	14.197	975.145	742.687
103.030	14.271	973.918	742.018
104.045	14.298	972.821	741.239
105.060	14.216	972.166	740.306
106.074	14.214	970.735	739.145
107.089	14.127	970.085	738.199
108.103	14.008	969.401	737.081
109.118	13.884	968.407	735.711
110.133	13.912	968.149	735.574
111.147	14.012	966.308	734.553
112.162	13.909	965.952	733.762
113.176	13.955	964.985	733.167
114.191	13.833	964.260	732.014
115.206	14.067	963.702	732.556
116.220	14.158	962.080	731.658
117.235	14.029	961.673	730.715
118.249	13.863	961.340	729.670
119.264	13.981	960.188	729.248
120.279	13.867	959.107	727.864
121.293	14.013	958.369	727.877
122.308	13.992	957.658	727.180
123.322	13.892	956.848	726.066
124.337	13.773	955.991	724.833
125.352	13.950	954.175	724.160
126.366	13.786	953.394	722.793
127.381	13.941	952.851	722.988
128.395	13.837	951.795	721.670
129.410	13.902	950.649	721.022
130.424	14.031	949.842	720.907
131.439	13.862	949.529	719.871
132.454	13.983	948.520	719.565
133.468	14.025	947.900	719.214
134.483	13.980	946.914	718.208
135.497	14.040	946.620	718.180
136.512	13.999	945.717	717.253
137.527	14.106	944.627	716.829
138.541	13.998	943.995	715.820
139.556	14.128	943.526	715.958
140.570	13.999	942.902	714.866
141.585	14.174	941.522	714.511
142.600	14.214	941.623	714.696
143.614	14.208	940.420	713.694
144.629	14.274	939.630	713.313
145.643	14.267	938.809	712.597
146.658	14.394	938.022	712.478
147.673	14.235	937.396	711.259
148.687	14.239	936.208	710.313
149.702	14.148	935.386	709.238
150.716	14.176	934.939	708.959
151.731	14.119	933.909	707.872
152.746	14.187	932.964	707.382
153.760	14.198	932.182	706.770
154.775	14.142	931.759	706.151
155.789	14.265	930.873	705.940
156.804	14.221	930.230	705.205
157.819	14.459	929.323	705.461
158.833	14.319	929.120	704.650
159.848	14.344	928.581	704.287
160.862	14.375	927.756	703.730
161.877	14.416	926.809	703.122
162.892	14.355	925.926	702.131
163.906	14.202	924.997	700.722
164.921	14.258	924.157	700.260
165.935	14.235	923.158	699.343
166.950	14.265	922.348	698.795
167.964	14.227	921.400	697.856
168.979	14.218	920.658	697.193
169.994	14.460	919.206	697.044
171.008	14.179	918.947	695.609
172.023	14.259	917.898	695.087
173.037	14.362	917.453	695.120
174.052	14.450	916.893	695.000
175.067	14.328	916.060	693.799
176.081	14.369	915.238	693.286
177.096	14.250	914.033	691.818
178.110	14.278	913.466	691.445
179.125	14.241	912.794	690.722
180.140	14.228	912.079	690.063
181.154	14.308	911.430	689.842
182.169	14.392	910.825	689.674
183.183	14.392	910.239	689.168
184.198	14.509	909.496	689.027
185.213	14.508	909.119	688.676
186.227	14.465	908.481	687.957
187.242	14.508	908.313	687.944
188.256	14.565	907.412	687.435
189.271	14.734	906.602	687.458
190.286	14.660	905.939	686.590
191.300	14.556	905.044	685.422
192.315	14.424	904.108	684.113
193.329	14.145	903.751	682.638
194.344	14.203	902.974	682.229
195.359	14.305	902.634	682.328
196.373	14.492	901.915	682.491
197.388	14.541	901.465	682.290
198.402	14.645	900.784	682.138
199.417	14.873	900.393	682.712
200.432	14.838	900.404	682.518
201.446	14.814	899.577	681.732
202.461	14.880	899.266	681.705
203.475	14.786	898.998	681.058
204.490	14.912	898.010	680.762
205.504	14.931	897.201	680.169
206.519	14.643	896.815	678.643
207.534	14.757	895.479	678.034
208.548	14.812	894.873	677.741
209.563	14.761	894.301	677.040
210.577	14.805	893.817	676.790
211.592	14.864	892.997	676.348
212.607	14.844	892.849	676.095
213.621	15.077	892.020	676.351
214.636	15.080	891.337	675.785
215.650	14.882	890.935	674.621
216.665	15.017	889.869	674.299
217.680	15.125	889.461	674.367
218.694	15.028	889.690	674.089
219.709	15.105	888.721	673.605
220.723	14.948	888.367	672.645
221.738	15.041	887.362	672.198
222.753	15.155	886.743	672.129
223.767	15.021	885.744	670.773
224.782	15.094	885.145	670.553
225.796	15.143	884.923	670.521
226.811	15.280	883.741	670.113
227.826	15.247	883.493	669.736
228.840	14.990	882.812	668.131
229.855	15.085	881.967	667.812
230.869	15.125	881.293	667.404
231.884	15.084	880.962	666.930
232.899	14.891	880.411	665.684
233.913	15.079	879.380	665.594
234.928	15.146	878.688	665.280
235.942	15.076	877.557	664.085
236.957	14.951	877.300	663.335
237.972	14.915	876.854	662.800
238.986	15.078	875.972	662.718
240.001	15.007	875.597	662.095
241.015	14.966	874.914	661.357
242.030	14.967	874.094	660.682
243.045	15.008	873.472	660.317
244.059	15.084	872.896	660.121
245.074	15.193	872.080	659.874
246.088	15.145	871.863	659.466
247.103	15.244	871.283	659.357
248.117	15.339	870.459	659.048
249.132	15.472	869.801	659.013
250.147	15.501	869.202	658.613
251.161	15.530	869.030	658.540
252.176	15.693	868.154	658.457
253.190	15.782	867.456	658.218
254.205	15.741	866.847	657.535
255.220	15.852	866.201	657.422
256.234	15.856	865.547	656.884
257.249	15.649	865.562	656.030
258.263	15.593	865.020	655.342
259.278	15.732	863.965	655.024
260.293	15.829	863.221	654.782
261.307	15.916	863.137	654.996
262.322	15.835	862.467	654.115
263.336	16.055	861.579	654.240
264.351	15.838	861.257	653.094
265.366	15.881	860.761	652.829
266.380	15.916	859.960	652.296
267.395	15.927	859.616	652.021
268.409	15.976	858.779	651.521
269.424	15.764	857.819	649.916
270.439	15.903	857.149	649.885
271.453	15.865	856.874	649.474
272.468	15.732	855.714	648.025
273.482	15.770	855.428	647.897
274.497	15.890	854.857	647.869
275.512	15.772	854.296	646.933
276.526	15.797	853.554	646.407
277.541	15.851	852.678	645.894
278.555	15.756	852.191	645.107
279.570	15.992	851.663	645.555
280.585	16.123	850.942	645.451
281.599	16.242	850.249	645.324
282.614	16.048	850.004	644.339
283.628	16.075	849.455	643.966
284.643	15.989	848.648	642.970
285.657	15.892	848.418	642.369
286.672	15.996	847.922	642.335
287.687	15.968	847.354	641.740
288.701	16.137	846.630	641.779
289.716	16.026	846.228	640.995
290.730	16.133	845.533	640.817
291.745	16.121	844.909	640.243
292.760	16.141	844.032	639.596
293.774	16.201	843.545	639.400
294.789	16.152	843.444	639.079
295.803	16.264	842.673	638.865
296.818	16.227	841.908	638.087
297.833	16.105	841.221	637.050
298.847	16.100	840.769	636.631
299.862	16.172	839.892	636.184
300.876	16.122	839.261	635.459
301.891	16.184	838.946	635.399
302.906	16.294	838.275	635.250
303.920	16.415	837.503	635.064
304.935	16.406	837.036	634.619
305.949	16.481	836.213	634.219
306.964	16.441	835.994	633.845
307.979	16.512	835.083	633.367
308.993	16.454	834.668	632.779
310.008	16.547	833.919	632.504
311.022	16.677	833.492	632.610
312.037	16.458	833.654	631.855
313.052	16.412	832.677	630.888
314.066	16.433	832.118	630.489
315.081	16.274	831.312	629.230
316.095	16.292	830.901	628.928
317.110	16.309	830.543	628.665
318.125	16.382	829.927	628.416
319.139	16.402	829.395	628.032
320.154	16.324	829.324	627.630
321.168	16.349	828.368	626.945
322.183	16.313	827.979	626.463
323.197	16.446	827.681	626.675
324.212	16.548	826.961	626.453
325.227	16.572	826.088	625.824
326.241	16.496	825.675	625.176
327.256	16.495	825.189	624.747
328.270	16.508	824.558	624.262
329.285	16.558	824.402	624.274
330.300	16.491	823.515	623.299
331.314	16.406	822.793	622.386
332.329	16.518	822.643	622.629
333.343	16.572	821.540	621.937
334.358	16.702	821.427	622.273
335.373	16.635	821.014	621.660
336.387	16.678	820.147	621.105
337.402	16.857	819.919	621.536
338.416	16.767	819.020	620.468
339.431	16.906	818.850	620.795
340.446	16.908	818.132	620.204
341.460	16.982	817.763	620.138
342.475	16.894	817.365	619.461
343.489	17.116	816.623	619.652
344.504	17.096	816.064	619.103
345.519	16.992	815.826	618.488
346.533	17.215	815.057	618.661
347.548	17.089	814.408	617.658
348.562	17.101	814.143	617.442
349.577	17.012	813.272	616.406
350.592	16.839	812.990	615.507
351.606	17.004	811.701	615.078
352.621	16.878	811.878	614.701
353.635	16.860	811.682	614.431
354.650	16.902	811.204	614.166
355.665	16.975	810.535	613.871
356.679	17.085	810.117	613.899
357.694	17.077	809.837	613.601
358.708	17.097	809.239	613.165
359.723	16.972	808.774	612.309
360.738	17.120	808.033	612.229
361.752	17.023	807.559	611.466
362.767	17.068	806.973	611.130
363.781	17.201	806.676	611.330
364.796	17.233	806.665	611.380
365.810	17.290	805.921	610.969
366.825	17.384	805.590	611.002
367.840	17.407	805.546	610.997
368.854	17.434	805.021	610.643
369.869	17.325	804.394	609.722
370.883	17.386	803.895	609.505
371.898	17.347	803.016	608.647
372.913	17.508	802.400	608.701
373.927	17.425	802.242	608.230
374.942	17.376	801.442	607.396
375.956	17.266	801.086	606.680
376.971	17.403	800.345	606.553
377.986	17.609	799.794	606.817
379.000	17.642	799.205	606.434
380.015	17.599	799.008	606.075
381.029	17.625	798.442	605.688
382.044	17.626	797.824	605.168
383.059	17.588	797.284	604.570
384.073	17.771	796.242	604.373
385.088	17.593	796.213	603.669
386.102	17.534	795.296	602.711
387.117	17.401	795.134	602.064
388.132	17.365	794.639	601.510
389.146	17.503	794.351	601.725
390.161	17.650	793.716	601.711
391.175	17.574	793.323	601.091
392.190	17.593	793.488	601.229
393.205	17.685	792.615	600.838
394.219	17.456	792.236	599.692
395.234	17.496	791.638	599.326
396.248	17.511	791.093	598.913
397.263	17.524	790.604	598.537
398.278	17.571	790.441	598.526
399.292	17.351	790.205	597.521
400.307	17.527	789.527	597.571
401.321	17.434	789.149	596.907
402.336	17.578	788.795	597.093
403.350	17.664	788.467	597.090
404.365	17.523	787.877	596.099
405.380	17.712	787.434	596.373
406.394	17.794	786.856	596.168
407.409	17.962	786.343	596.312
408.423	17.972	785.789	595.875
409.438	17.885	785.631	595.400
410.453	18.134	785.105	595.817
411.467	17.885	784.984	594.804
412.482	17.884	784.283	594.218
413.496	17.968	783.901	594.166
414.511	18.136	783.648	594.507
415.526	18.138	783.400	594.274
416.540	18.034	782.834	593.429
417.555	17.994	782.548	593.022
418.569	18.075	782.125	592.930
419.584	18.093	781.423	592.407
420.599	18.144	780.958	592.181
421.613	156.065	1368.854	1794.207
422.628	134.701	1454.506	1794.287
