DTS Sentinel unit serial number:	SN413079Multiplexer serial number:	ORYXHardware model number:	OX4-SRSoftware version number:	ORYX F/W v4.00 Oryx Data Collector v3.7.2.0data status	okinstallation	princeton_trtdifferential loss correction	single-endedforward channel	channel 3reverse channel	N/Adate	2019/09/14time	19:28:35forward acquisition time	60.00reverse acquisition time	0.00gamma	496.2192k internal	0.2311k external	0.2311temperature offset calibration	1.0013default loss term (dB/km)	0.3790temperature slope calibration	1.0000multiplexer offset coefficient	1.0000multiplexer slope coefficient	1.0000fibre end	0.00T internal ref (°C)	34.81T ext. ref 1 (°C)	4.88T ext. ref 2 (°C)	28.92length (m)	temperature (°C)	Stokes	anti-Stokes-747.200	446.530	0.101	-0.224
-746.185	172.960	-0.131	0.191
-745.171	53.349	0.190	-0.185
-744.156	155.210	-0.116	0.162
-743.142	-31.722	0.280	0.160
-742.127	240.595	0.047	0.079
-741.112	620.096	0.076	0.193
-740.098	44.668	0.210	-0.196
-739.083	-95.256	0.214	-0.058
-738.069	558.229	-0.041	0.101
-737.054	6.000	-0.183	0.137
-736.039	800.000	-0.061	-0.177
-735.025	49.211	0.219	0.209
-734.010	21.203	0.086	0.071
-732.996	-200.000	0.026	0.318
-731.981	2.243	-0.160	0.117
-730.966	182.152	-0.116	-0.174
-729.952	225.089	0.229	0.376
-728.937	-200.000	0.004	-0.050
-727.923	115.814	-0.167	-0.208
-726.908	-119.602	-0.168	-0.029
-725.894	392.588	-0.161	-0.340
-724.879	-83.446	-0.241	-0.078
-723.864	-53.426	-0.195	-0.090
-722.850	-88.184	-0.106	-0.032
-721.835	800.000	0.086	0.351
-720.821	95.486	-0.137	-0.158
-719.806	-39.065	0.127	0.068
-718.791	-125.153	-0.259	0.040
-717.777	-100.653	0.130	-0.032
-716.762	-138.687	-0.085	-0.009
-715.748	-86.170	-0.156	-0.049
-714.733	-200.000	0.002	0.048
-713.718	-141.676	-0.126	0.013
-712.704	13.130	-0.115	0.090
-711.689	195.052	0.153	-0.235
-710.675	-179.227	-0.241	0.005
-709.660	76.409	-0.142	-0.152
-708.645	-80.459	-0.103	0.035
-707.631	-114.573	0.042	0.008
-706.616	-200.000	0.048	-0.228
-705.602	149.306	0.144	0.198
-704.587	65.269	0.218	-0.223
-703.572	-164.291	0.303	-0.014
-702.558	-7.357	-0.433	-0.297
-701.543	-47.979	-0.229	0.112
-700.529	800.000	-0.052	-0.195
-699.514	-200.000	-0.018	-0.101
-698.499	60.102	-0.133	-0.133
-697.485	36.069	-0.133	0.118
-696.470	157.285	0.143	-0.201
-695.456	-14.284	0.277	-0.181
-694.441	9.387	-0.214	-0.164
-693.426	-29.205	-0.086	-0.050
-692.412	-19.279	-0.170	0.107
-691.397	-131.862	-0.271	-0.036
-690.383	800.000	-0.106	-0.307
-689.368	661.370	-0.073	0.191
-688.354	-132.278	-0.202	-0.026
-687.339	-57.677	0.215	0.096
-686.324	149.235	-0.098	0.135
-685.310	-159.140	-0.231	-0.013
-684.295	-127.498	0.218	-0.032
-683.281	-200.000	0.026	-0.217
-682.266	-200.000	0.038	-0.184
-681.251	800.000	0.119	-0.486
-680.237	-17.809	0.207	-0.131
-679.222	-125.064	-0.099	-0.015
-678.208	-200.000	-0.031	0.304
-677.193	-169.972	0.447	0.016
-676.178	-118.535	0.296	-0.053
-675.164	-200.000	0.030	-0.158
-674.149	-200.000	0.034	-0.179
-673.135	-200.000	-0.014	-0.264
-672.120	184.749	0.098	-0.147
-671.105	98.422	0.088	0.102
-670.091	-140.729	-0.012	0.001
-669.076	-108.462	-0.166	0.036
-668.062	800.000	-0.038	0.144
-667.047	-200.000	0.004	-0.140
-666.032	-140.326	-0.274	-0.029
-665.018	-15.994	0.153	-0.099
-664.003	197.789	-0.147	-0.227
-662.989	128.971	0.243	0.313
-661.974	308.301	-0.022	0.041
-660.959	-12.223	0.276	-0.183
-659.945	-114.732	-0.043	0.008
-658.930	-144.033	0.191	-0.018
-657.916	175.660	-0.193	0.283
-656.901	-61.936	0.409	0.173
-655.886	-78.451	0.270	-0.093
-654.872	-130.962	-0.202	0.027
-653.857	-19.174	0.331	0.208
-652.843	103.329	-0.145	0.172
-651.828	472.544	0.078	-0.177
-650.814	266.826	-0.098	0.174
-649.799	447.616	-0.032	-0.071
-648.784	-87.539	0.326	0.100
-647.770	-120.828	-0.123	-0.021
-646.755	-200.000	0.021	-0.186
-645.741	-112.935	0.087	0.017
-644.726	800.000	0.074	-0.223
-643.711	-29.588	-0.209	-0.121
-642.697	800.000	0.040	-0.134
-641.682	-200.000	0.007	0.049
-640.668	-149.169	-0.105	-0.008
-639.653	-31.348	-0.164	0.093
-638.638	2.891	0.132	-0.097
-637.624	-200.000	0.037	-0.227
-636.609	-131.941	0.326	0.043
-635.595	15.870	0.050	0.039
-634.580	800.000	-0.100	-0.299
-633.565	-200.000	-0.008	-0.090
-632.551	-81.781	-0.187	-0.062
-631.536	800.000	-0.019	-0.066
-630.522	-200.000	-0.061	0.272
-629.507	152.355	0.198	0.273
-628.492	800.000	-0.115	-0.350
-627.478	-38.713	-0.127	-0.068
-626.463	-177.975	-0.284	-0.007
-625.449	-152.096	-0.141	0.010
-624.434	48.945	0.180	0.171
-623.419	-200.000	0.004	0.247
-622.405	-77.610	0.151	-0.053
-621.390	-130.357	0.204	0.028
-620.376	-200.000	0.014	-0.104
-619.361	-144.156	0.335	-0.032
-618.346	300.417	-0.016	-0.030
-617.332	383.200	-0.111	-0.231
-616.317	-200.000	0.055	-0.283
-615.303	-87.492	-0.330	-0.101
-614.288	155.574	-0.067	0.094
-613.273	485.575	-0.062	-0.142
-612.259	-55.499	0.318	-0.144
-611.244	56.304	0.123	-0.121
-610.230	68.381	-0.238	-0.246
-609.215	-97.753	0.222	0.058
-608.201	497.286	0.062	-0.145
-607.186	-33.122	-0.160	-0.089
-606.171	800.000	0.040	-0.123
-605.157	800.000	-0.071	0.303
-604.142	-200.000	-0.038	0.228
-603.128	800.000	0.040	0.127
-602.113	-127.686	0.289	-0.042
-601.098	-58.240	0.063	-0.028
-600.084	283.451	-0.060	0.109
-599.069	-0.104	-0.177	-0.127
-598.055	-48.508	0.229	-0.111
-597.040	800.000	-0.082	-0.342
-596.025	-200.000	-0.037	-0.517
-595.011	-13.789	0.155	-0.101
-593.996	185.294	0.090	-0.134
-592.982	-200.000	-0.054	-0.323
-591.967	265.490	-0.115	0.203
-590.952	-103.153	-0.102	0.024
-589.938	-22.602	0.263	0.160
-588.923	-98.277	0.122	-0.032
-587.909	-147.464	-0.336	-0.029
-586.894	-66.133	0.199	-0.080
-585.879	602.264	-0.048	0.121
-584.865	-200.000	0.015	0.138
-583.850	-176.755	0.075	0.002
-582.836	116.505	0.152	0.188
-581.821	-18.468	-0.291	0.183
-580.806	-12.767	0.203	0.133
-579.792	-84.382	0.260	0.083
-578.777	18.161	0.116	0.093
-577.763	-200.000	-0.052	-0.354
-576.748	800.000	-0.059	0.226
-575.733	404.035	0.124	0.263
-574.719	59.045	-0.098	0.097
-573.704	-54.541	-0.057	-0.026
-572.690	-200.000	-0.071	-0.385
-571.675	213.558	-0.068	0.108
-570.661	392.192	-0.153	-0.321
-569.646	-68.574	-0.234	-0.091
-568.631	-77.468	-0.120	0.042
-567.617	402.037	-0.064	0.136
-566.602	-32.976	-0.080	0.045
-565.588	-197.877	0.512	0.003
-564.573	-148.060	-0.130	-0.011
-563.558	-69.929	-0.251	-0.096
-562.544	-17.579	0.103	0.065
-561.529	800.000	-0.018	-0.063
-560.515	-54.004	0.357	-0.164
-559.500	-188.456	-0.342	-0.004
-558.485	-74.598	-0.239	0.087
-557.471	29.889	-0.138	-0.118
-556.456	-200.000	-0.019	-0.248
-555.442	-63.788	-0.451	-0.186
-554.427	800.000	-0.059	0.165
-553.412	-116.685	-0.224	-0.041
-552.398	-200.000	-0.016	-0.168
-551.383	50.797	0.277	0.264
-550.369	296.719	0.015	-0.028
-549.354	-112.544	0.265	0.053
-548.339	-124.196	-0.427	-0.067
-547.325	-169.935	0.144	0.005
-546.310	800.000	-0.015	0.042
-545.296	-174.250	-0.214	-0.006
-544.281	-84.858	0.262	0.083
-543.266	-200.000	0.048	0.213
-542.252	-137.394	-0.067	0.008
-541.237	-200.000	0.049	-0.284
-540.223	-126.727	-0.055	0.008
-539.208	105.642	0.188	0.224
-538.193	800.000	-0.070	0.203
-537.179	163.532	0.177	0.250
-536.164	99.324	-0.066	0.076
-535.150	177.858	-0.038	0.056
-534.135	-200.000	-0.030	-0.333
-533.121	-200.000	-0.006	0.235
-532.106	10.510	0.339	0.260
-531.091	-18.722	0.276	-0.173
-530.077	121.595	0.150	0.188
-529.062	-200.000	-0.043	0.385
-528.048	9.177	0.117	-0.089
-527.033	-63.615	-0.246	-0.102
-526.018	30.150	-0.152	-0.130
-525.004	63.222	-0.186	-0.187
-523.989	-200.000	-0.027	-0.300
-522.975	-38.766	-0.348	0.185
-521.960	800.000	-0.066	-0.196
-520.945	-71.095	0.251	0.095
-519.931	641.870	-0.145	0.372
-518.916	1.277	-0.003	0.003
-517.902	-18.367	0.150	0.094
-516.887	-200.000	0.016	-0.319
-515.872	471.275	-0.022	0.049
-514.858	341.218	-0.085	0.167
-513.843	-64.038	0.084	0.034
-512.829	-135.640	-0.204	-0.024
-511.814	-112.886	0.344	-0.069
-510.799	800.000	0.151	-0.448
-509.785	-108.295	-0.183	0.040
-508.770	14.660	0.075	-0.059
-507.756	-28.547	0.209	-0.121
-506.741	-50.585	-0.167	0.079
-505.726	-200.000	0.008	0.230
-504.712	-200.000	0.039	0.394
-503.697	-88.250	-0.281	0.085
-502.683	399.475	-0.044	-0.092
-501.668	800.000	-0.037	-0.106
-500.653	17.153	0.076	-0.060
-499.639	19.136	0.098	-0.079
-498.624	800.000	0.093	0.330
-497.610	386.579	0.067	-0.139
-496.595	-35.629	0.328	0.179
-495.581	-22.531	-0.338	0.206
-494.566	119.019	0.172	0.214
-493.551	-200.000	-0.000	0.020
-492.537	361.840	-0.020	0.040
-491.522	-150.539	-0.109	-0.008
-490.508	596.378	0.012	-0.029
-489.493	-40.651	-0.273	0.142
-488.478	-10.396	-0.144	-0.096
-487.464	3.251	-0.108	-0.079
-486.449	87.584	0.061	0.068
-485.435	-99.470	0.334	0.084
-484.420	18.013	-0.110	0.088
-483.405	-19.611	0.191	0.119
-482.391	326.571	-0.103	-0.199
-481.376	-141.297	-0.210	-0.021
-480.362	-3.479	-0.214	0.150
-479.347	-200.000	-0.029	0.468
-478.332	-81.941	-0.149	0.049
-477.318	-80.629	-0.197	-0.066
-476.303	-137.494	0.108	0.012
-475.289	-71.573	-0.405	0.152
-474.274	-23.163	0.141	-0.085
-473.259	-6.580	0.077	0.053
-472.245	-200.000	0.077	-0.532
-471.230	156.656	-0.051	-0.070
-470.216	-1.644	-0.138	-0.097
-469.201	-200.000	-0.000	-0.128
-468.186	133.177	-0.094	-0.121
-467.172	-92.895	-0.332	-0.093
-466.157	-200.000	0.001	0.036
-465.143	2.186	-0.073	0.053
-464.128	155.575	-0.121	0.167
-463.113	16.137	0.176	-0.139
-462.099	240.824	-0.028	0.047
-461.084	-200.000	0.004	0.112
-460.070	-53.674	0.177	0.081
-459.055	-200.000	0.057	0.415
-458.040	-200.000	0.006	-0.060
-457.026	69.510	0.139	-0.143
-456.011	-123.731	-0.308	-0.049
-454.997	-44.268	-0.282	-0.142
-453.982	800.000	-0.071	-0.198
-452.968	-116.698	-0.103	-0.019
-451.953	8.913	0.295	-0.223
-450.938	-200.000	-0.023	-0.257
-449.924	0.988	-0.119	-0.085
-448.909	7.160	0.277	0.207
-447.895	121.423	-0.170	0.213
-446.880	536.566	-0.217	0.516
-445.865	26.413	0.117	0.098
-444.851	800.000	-0.014	-0.049
-443.836	59.530	-0.047	0.047
-442.822	784.453	0.060	0.165
-441.807	-200.000	-0.030	-0.223
-440.792	113.506	-0.269	-0.328
-439.778	-155.180	0.161	-0.011
-438.763	-200.000	0.039	0.286
-437.749	-124.406	-0.230	0.036
-436.734	-32.011	0.407	0.229
-435.719	-200.000	-0.053	-0.363
-434.705	-51.717	-0.044	-0.021
-433.690	-42.472	0.123	-0.063
-432.676	-200.000	-0.010	-0.380
-431.661	-19.409	-0.073	0.046
-430.646	255.085	0.210	0.360
-429.632	-135.522	-0.455	0.054
-428.617	-143.372	0.228	-0.022
-427.603	210.264	-0.210	-0.331
-426.588	800.000	0.025	-0.104
-425.573	-50.746	-0.101	0.048
-424.559	800.000	0.023	-0.064
-423.544	-200.000	-0.018	0.136
-422.530	118.438	0.109	-0.134
-421.515	-17.832	-0.114	-0.072
-420.500	-200.000	0.050	-0.230
-419.486	-40.525	-0.137	0.071
-418.471	-21.511	0.145	-0.089
-417.457	800.000	-0.039	-0.124
-416.442	243.445	-0.037	0.062
-415.428	-120.858	-0.207	0.035
-414.413	285.279	0.156	0.281
-413.398	-200.000	0.006	0.149
-412.384	576.799	-0.057	-0.139
-411.369	-71.198	0.108	0.040
-410.355	120.537	-0.247	0.308
-409.340	-132.482	0.189	-0.024
-408.325	-42.738	-0.341	0.174
-407.311	287.158	-0.072	-0.130
-406.296	-108.695	-0.150	0.032
-405.282	306.600	0.134	-0.250
-404.267	-78.917	0.058	-0.020
-403.252	139.786	0.110	0.145
-402.238	-14.826	-0.134	-0.086
-401.223	-14.787	-0.038	0.024
-400.209	-4.969	-0.172	0.118
-399.194	-200.000	-0.005	-0.226
-398.179	101.716	-0.072	-0.084
-397.165	-33.154	-0.190	-0.105
-396.150	-10.065	0.219	0.146
-395.136	167.062	0.163	0.231
-394.121	-200.000	-0.005	0.082
-393.106	-57.098	0.474	-0.209
-392.092	-65.490	-0.317	0.128
-391.077	97.008	0.180	0.206
-390.063	-134.478	0.135	-0.017
-389.048	62.985	-0.312	0.313
-388.033	316.750	0.142	0.269
-387.019	-200.000	0.013	-0.178
-386.004	800.000	-0.052	-0.218
-384.990	-95.535	0.079	0.021
-383.975	543.634	0.112	-0.267
-382.960	-89.379	0.283	0.083
-381.946	-3.433	0.176	0.122
-380.931	74.564	-0.183	0.193
-379.917	-200.000	0.016	0.223
-378.902	-5.405	0.169	0.116
-377.888	-200.000	-0.119	0.001
-376.873	302.609	-0.083	-0.153
-375.858	-138.056	0.143	-0.016
-374.844	-114.584	0.338	0.065
-373.829	-30.505	-0.116	-0.066
-372.815	16.659	-0.122	-0.097
-371.800	-66.072	0.150	0.060
-370.785	10.712	-0.035	0.027
-369.771	-200.000	0.008	0.120
-368.756	22.880	0.184	0.151
-367.742	-110.298	0.210	-0.044
-366.727	249.801	-0.017	-0.029
-365.712	4.463	-0.090	0.066
-364.698	-104.670	0.032	0.007
-363.683	21.014	-0.209	-0.170
-362.669	119.374	0.241	0.298
-361.654	-200.000	0.023	-0.378
-360.639	-200.000	0.005	0.204
-359.625	-180.383	0.325	0.007
-358.610	-113.620	-0.251	0.049
-357.596	800.000	-0.079	-0.243
-356.581	-133.089	0.298	0.038
-355.566	79.773	-0.204	-0.219
-354.552	800.000	0.014	0.055
-353.537	551.006	-0.144	0.345
-352.523	-0.813	0.295	0.209
-351.508	-17.202	-0.085	-0.054
-350.493	79.925	0.073	-0.078
-349.479	-191.511	-0.113	0.001
-348.464	-200.000	-0.011	0.259
-347.450	-137.045	-0.177	0.020
-346.435	724.026	0.070	-0.187
-345.420	800.000	-0.025	-0.101
-344.406	-200.000	-0.037	-0.219
-343.391	-200.000	-0.010	0.057
-342.377	435.858	-0.115	0.250
-341.362	180.785	0.108	0.158
-340.348	-32.581	0.203	-0.113
-339.333	-28.026	0.267	0.154
-338.318	-73.599	0.155	-0.057
-337.304	327.520	-0.034	0.065
-336.289	800.000	-0.074	0.238
-335.275	-36.118	-0.215	0.116
-334.260	-101.333	0.131	-0.032
-333.245	515.895	-0.066	0.153
-332.231	326.851	-0.027	-0.052
-331.216	-117.713	-0.087	-0.016
-330.202	-200.000	0.042	-0.229
-329.187	-192.535	-0.037	-0.000
-328.172	130.255	-0.090	0.115
-327.158	-141.560	-0.035	0.004
-326.143	-135.437	0.042	0.005
-325.129	223.925	0.202	0.326
-324.114	-200.000	-0.004	0.463
-323.099	-70.543	0.037	-0.014
-322.085	93.435	-0.104	0.118
-321.070	-200.000	-0.006	-0.209
-320.056	-194.657	-0.153	-0.001
-319.041	244.129	-0.117	-0.197
-318.026	-77.262	0.096	0.033
-317.012	768.571	0.165	0.448
-315.997	-200.000	0.023	0.176
-314.983	-200.000	0.057	-0.343
-313.968	747.117	0.056	0.150
-312.953	405.135	-0.134	0.281
-311.939	30.849	0.133	-0.114
-310.924	-71.434	0.202	0.075
-309.910	-167.444	-0.141	-0.006
-308.895	-200.000	0.024	-0.133
-307.880	44.360	0.383	0.351
-306.866	3.202	-0.023	0.017
-305.851	135.797	-0.238	-0.309
-304.837	53.019	-0.281	-0.268
-303.822	-200.000	-0.028	0.423
-302.807	-6.798	0.354	0.240
-301.793	800.000	0.070	0.272
-300.778	11.204	0.192	0.147
-299.764	-95.208	-0.235	-0.063
-298.749	293.821	-0.277	-0.505
-297.735	-1.776	0.258	0.181
-296.720	31.200	-0.235	0.201
-295.705	-35.901	-0.115	0.062
-294.691	147.531	0.119	0.160
-293.676	302.193	0.044	0.081
-292.662	210.700	-0.118	-0.185
-291.647	-200.000	0.029	0.243
-290.632	-200.000	0.017	-0.227
-289.618	-92.628	-0.056	-0.016
-288.603	-112.275	0.096	-0.019
-287.589	-200.000	-0.072	0.399
-286.574	61.843	-0.071	0.071
-285.559	109.116	-0.211	0.252
-284.545	-63.711	0.312	-0.127
-283.530	-138.473	-0.179	-0.020
-282.516	-200.000	0.029	0.126
-281.501	125.289	0.254	-0.320
-280.486	-29.222	-0.227	0.129
-279.472	318.114	0.172	-0.324
-278.457	491.459	0.135	0.308
-277.443	-106.250	0.329	0.074
-276.428	-30.666	-0.106	0.060
-275.413	-200.000	-0.016	-0.118
-274.399	-200.000	0.014	0.329
-273.384	135.791	-0.085	-0.110
-272.370	-181.110	0.109	0.002
-271.355	800.000	0.075	-0.207
-270.340	144.321	0.232	-0.308
-269.326	800.000	0.094	-0.280
-268.311	-95.277	-0.209	0.056
-267.297	-120.222	0.185	-0.031
-266.282	800.000	0.116	0.364
-265.267	12.887	0.051	0.040
-264.253	-122.897	-0.252	-0.040
-263.238	390.999	-0.042	0.087
-262.224	-133.708	-0.193	-0.024
-261.209	752.900	0.079	-0.214
-260.195	4.573	0.159	-0.116
-259.180	28.313	-0.291	-0.245
-258.165	-116.584	-0.115	0.021
-257.151	-20.028	-0.168	-0.103
-256.136	162.535	0.054	0.075
-255.122	-200.000	-0.003	0.161
-254.107	-118.395	0.180	-0.032
-253.092	15.622	0.172	0.135
-252.078	-158.481	-0.244	0.014
-251.063	-200.000	-0.039	-0.206
-250.049	31.641	0.058	0.050
-249.034	278.019	0.067	-0.118
-248.019	800.000	0.039	-0.129
-247.005	-200.000	0.009	0.192
-245.990	-200.000	0.034	-0.200
-244.976	-200.000	0.071	-0.323
-243.961	800.000	-0.023	-0.068
-242.946	-173.100	0.146	-0.004
-241.932	-200.000	0.017	0.080
-240.917	91.765	-0.065	-0.073
-239.903	-11.860	0.217	-0.142
-238.888	27.772	-0.160	-0.134
-237.873	77.732	0.107	-0.114
-236.859	66.379	-0.196	0.198
-235.844	18.642	-0.120	-0.096
-234.830	800.000	-0.041	-0.130
-233.815	-54.981	0.075	-0.034
-232.800	46.515	-0.122	0.113
-231.786	144.302	-0.215	0.286
-230.771	-11.044	-0.118	-0.077
-229.757	-20.470	-0.147	-0.090
-228.742	-200.000	-0.029	-0.196
-227.727	-43.736	-0.156	0.078
-226.713	-6.681	0.176	0.119
-225.698	174.817	0.047	-0.068
-224.684	-200.000	-0.045	0.427
-223.669	125.100	-0.163	-0.205
-222.655	-80.739	-0.161	-0.053
-221.640	-77.211	-0.215	-0.074
-220.625	-120.560	0.559	0.094
-219.611	-36.977	0.341	-0.182
-218.596	-17.684	-0.202	0.126
-217.582	800.000	-0.074	0.303
-216.567	-200.000	-0.007	0.050
-215.552	-37.866	0.063	0.033
-214.538	20.369	-0.135	0.108
-213.523	-88.280	-0.102	-0.030
-212.509	209.206	-0.049	-0.077
-211.494	2.684	0.341	-0.246
-210.479	464.060	-0.167	0.370
-209.465	-144.927	0.307	-0.028
-208.450	-200.000	-0.059	0.330
-207.436	-142.539	-0.238	0.023
-206.421	-123.035	0.182	0.029
-205.406	-24.042	0.178	0.106
-204.392	208.883	-0.040	0.062
-203.377	-182.567	0.136	0.002
-202.363	217.456	0.119	-0.189
-201.348	-54.051	-0.293	-0.133
-200.333	-170.033	0.134	-0.005
-199.319	-111.313	0.275	-0.056
-198.304	-200.000	-0.007	-0.175
-197.290	278.132	0.061	-0.108
-196.275	-87.218	0.231	-0.070
-195.260	-59.946	0.251	0.107
-194.246	272.550	0.083	-0.146
-193.231	780.662	0.040	0.108
-192.217	34.116	-0.182	0.157
-191.202	-3.849	-0.113	0.078
-190.187	0.912	0.129	-0.092
-189.173	-122.188	0.480	-0.078
-188.158	545.809	-0.118	-0.281
-187.144	-42.393	0.052	-0.026
-186.129	-40.713	-0.202	-0.104
-185.114	32.638	0.147	0.126
-184.100	-160.386	-0.075	-0.004
-183.085	248.582	-0.197	-0.331
-182.071	87.775	0.054	0.059
-181.056	269.190	0.224	-0.391
-180.042	-200.000	-0.002	-0.369
-179.027	131.004	-0.180	0.229
-178.012	-200.000	-0.063	0.283
-176.998	-112.370	0.118	-0.023
-175.983	-114.753	-0.303	0.057
-174.969	-0.230	0.316	-0.223
-173.954	-200.000	0.024	-0.281
-172.939	-145.259	-0.397	-0.036
-171.925	-200.000	0.023	0.146
-170.910	-92.056	0.125	0.035
-169.896	433.030	-0.098	0.210
-168.881	34.856	0.163	-0.141
-167.866	-26.040	-0.369	0.215
-166.852	86.285	0.281	0.307
-165.837	125.764	-0.122	0.153
-164.823	-200.000	0.038	-0.213
-163.808	-79.342	0.296	-0.099
-162.793	-81.028	-0.031	-0.010
-161.779	128.811	-0.327	-0.413
-160.764	-6.790	-0.271	-0.183
-159.750	32.732	0.095	-0.081
-158.735	-23.171	0.035	-0.021
-157.720	-155.823	-0.049	0.003
-156.706	-134.909	-0.072	-0.009
-155.691	-71.138	-0.366	-0.136
-154.677	163.983	0.144	-0.201
-153.662	-50.874	0.446	-0.208
-152.647	48.814	-0.150	0.140
-151.633	222.777	-0.057	0.092
-150.618	107.045	-0.139	0.164
-149.604	-176.419	-0.116	-0.003
-148.589	51.603	0.129	-0.121
-147.574	306.741	-0.031	-0.057
-146.560	-2.001	0.065	-0.046
-145.545	-200.000	-0.007	0.046
-144.531	-59.723	0.155	-0.066
-143.516	238.942	0.113	-0.186
-142.502	-200.000	0.017	0.245
-141.487	219.948	0.167	-0.265
-140.472	23.488	-0.235	0.191
-139.458	800.000	0.071	0.249
-138.443	-200.000	-0.007	0.067
-137.429	-126.986	-0.047	-0.007
-136.414	782.432	0.054	-0.147
-135.399	800.000	0.016	0.063
-134.385	-44.841	0.117	-0.058
-133.370	-79.115	0.194	-0.065
-132.356	22.856	-0.059	0.048
-131.341	-200.000	0.018	0.285
-130.326	153.451	0.239	0.324
-129.312	-46.094	-0.259	0.127
-128.297	-133.185	-0.292	-0.037
-127.283	800.000	-0.067	0.218
-126.268	128.088	0.128	0.161
-125.253	-154.288	0.222	0.015
-124.239	-200.000	0.005	-0.376
-123.224	-148.734	0.105	0.008
-122.210	347.853	-0.067	-0.131
-121.195	800.000	0.027	0.101
-120.180	30.542	-0.143	-0.121
-119.166	-148.891	-0.236	-0.019
-118.151	330.567	-0.040	-0.076
-117.137	90.505	0.220	0.244
-116.122	442.305	-0.050	0.108
-115.107	-40.621	0.161	-0.083
-114.093	57.034	-0.136	-0.131
-113.078	-133.739	-0.081	-0.010
-112.064	-172.357	0.229	0.007
-111.049	44.687	-0.019	-0.017
-110.034	94.831	-0.285	-0.320
-109.020	800.000	0.047	-0.188
-108.005	-56.818	0.162	-0.071
-106.991	800.000	0.117	0.340
-105.976	39.736	0.112	-0.100
-104.962	-200.000	-0.006	-0.108
-103.947	-22.977	-0.115	0.068
-102.932	-54.388	-0.189	-0.085
-101.918	-200.000	-0.001	0.095
-100.903	121.974	-0.111	0.137
-99.889	53.959	-0.093	-0.089
-98.874	-168.674	-0.379	0.014
-97.859	-160.944	-0.189	-0.010
-96.845	-171.702	0.441	0.014
-95.830	14.874	-0.079	-0.061
-94.816	-200.000	-0.055	-0.387
-93.801	51.180	-0.108	-0.102
-92.786	140.338	-0.078	0.102
-91.772	43.482	-0.083	0.075
-90.757	800.000	-0.044	0.128
-89.743	-126.490	0.496	0.073
-88.728	-137.038	-0.257	0.029
-87.713	-105.134	0.200	-0.045
-86.699	763.049	-0.020	0.055
-85.684	-167.109	0.150	0.006
-84.670	-200.000	-0.002	-0.056
-83.655	70.451	0.048	-0.049
-82.640	325.991	0.082	-0.155
-81.626	-160.123	-0.071	0.004
-80.611	-83.992	-0.309	-0.097
-79.597	-154.732	0.216	-0.014
-78.582	-200.000	0.006	0.045
-77.567	-36.117	0.038	-0.021
-76.553	800.000	-0.105	-0.355
-75.538	-200.000	-0.004	0.053
-74.524	-200.000	0.007	-0.120
-73.509	79.063	-0.230	-0.244
-72.494	58.552	-0.078	0.075
-71.480	81.196	0.242	0.259
-70.465	-22.039	0.438	0.263
-69.451	-200.000	0.052	0.347
-68.436	361.743	0.070	0.138
-67.422	-1.982	-0.019	-0.013
-66.407	800.000	-0.019	-0.066
-65.392	800.000	0.073	-0.221
-64.378	-139.350	0.076	-0.008
-63.363	-6.909	0.323	-0.217
-62.349	120.958	0.086	-0.105
-61.334	13.847	-1.109	-0.852
-60.319	220.764	0.310	0.491
-59.305	328.933	-0.327	-0.621
-58.290	177.044	0.718	1.033
-57.276	260.661	0.902	1.542
-56.261	-200.000	97.933	582.047
-55.246	646.514	1390.904	3510.333
-54.232	189.906	2589.123	3838.124
-53.217	121.752	2183.725	2690.460
-52.203	45.343	1720.381	1567.887
-51.188	37.740	1532.378	1344.279
-50.173	35.490	1504.855	1304.812
-49.159	55.143	1555.522	1484.951
-48.144	58.495	1574.684	1526.328
-47.130	38.402	1529.108	1345.758
-46.115	35.053	1513.954	1309.507
-45.100	34.835	1510.768	1305.211
-44.086	34.774	1509.296	1303.469
-43.071	34.801	1507.130	1301.735
-42.057	34.846	1505.145	1300.273
-41.042	34.704	1504.177	1298.418
-40.027	34.806	1502.668	1297.755
-39.013	34.761	1501.329	1296.243
-37.998	34.846	1500.009	1295.630
-36.984	34.796	1498.924	1294.301
-35.969	34.813	1497.867	1293.453
-34.954	34.775	1496.316	1291.805
-33.940	34.776	1494.894	1290.536
-32.925	34.813	1493.406	1289.446
-31.911	34.818	1492.261	1288.444
-30.896	34.874	1490.715	1287.432
-29.881	34.828	1489.338	1285.880
-28.867	34.795	1488.018	1284.472
-27.852	34.932	1486.698	1284.202
-26.838	34.873	1484.985	1282.276
-25.823	34.859	1483.529	1280.872
-24.809	34.908	1481.618	1279.497
-23.794	34.898	1480.642	1278.537
-22.779	34.798	1480.241	1277.474
-21.765	34.925	1478.577	1276.834
-20.750	34.872	1477.343	1275.366
-19.736	34.836	1476.220	1274.102
-18.721	34.765	1475.780	1273.199
-17.706	34.802	1474.220	1272.050
-16.692	34.877	1472.864	1271.330
-15.677	34.844	1472.241	1270.523
-14.663	34.771	1471.466	1269.314
-13.648	34.825	1470.422	1268.727
-12.633	34.787	1469.481	1267.609
-11.619	34.804	1468.236	1266.601
-10.604	34.747	1467.578	1265.604
-9.590	34.776	1466.765	1265.044
-8.575	34.724	1465.937	1263.932
-7.560	34.806	1464.989	1263.613
-6.546	34.810	1464.383	1263.062
-5.531	34.722	1463.242	1261.445
-4.517	34.736	1462.353	1260.725
-3.502	34.736	1461.373	1259.832
-2.487	34.749	1460.102	1258.771
-1.473	34.753	1459.219	1257.985
-0.458	34.800	1457.829	1257.045
0.556	34.161	1448.474	1245.014
1.571	31.034	1421.561	1201.658
2.586	26.963	1360.171	1124.502
3.600	25.114	1277.222	1045.064
4.615	23.527	1231.008	998.238
5.629	20.241	1174.643	934.770
6.644	12.109	1090.459	826.858
7.659	5.772	1049.614	764.978
8.673	4.845	1044.290	756.527
9.688	4.840	1041.080	754.113
10.702	4.980	1039.398	753.504
11.717	4.855	1037.598	751.528
12.731	6.963	1040.001	763.389
13.746	14.219	1050.324	806.160
14.761	19.526	1056.208	836.387
15.775	19.222	1054.993	833.880
16.790	18.232	1052.322	826.913
17.804	17.193	1050.457	820.360
18.819	16.260	1048.597	814.339
19.834	15.846	1047.309	811.269
20.848	15.546	1046.297	808.967
21.863	15.314	1045.637	807.271
22.877	15.147	1044.877	805.807
23.892	15.026	1043.614	804.181
24.907	14.851	1043.106	802.879
25.921	14.778	1042.568	802.042
26.936	14.918	1041.361	801.714
27.950	14.779	1040.780	800.530
28.965	14.920	1039.777	800.361
29.980	15.023	1038.487	799.790
30.994	15.138	1036.870	799.026
32.009	15.197	1036.349	798.832
33.023	15.239	1035.552	798.349
34.038	15.214	1034.902	797.656
35.053	15.170	1033.993	796.678
36.067	15.070	1032.830	795.234
37.082	15.014	1032.029	794.282
38.096	14.989	1031.277	793.518
39.111	15.186	1030.336	793.656
40.126	15.110	1029.886	792.879
41.140	15.019	1028.653	791.430
42.155	14.870	1027.524	789.786
43.169	14.758	1026.654	788.518
44.184	14.794	1025.314	787.591
45.199	14.827	1024.461	787.020
46.213	14.761	1023.324	785.765
47.228	14.823	1022.655	785.473
48.242	14.917	1021.497	784.958
49.257	14.982	1020.438	784.380
50.271	14.956	1019.784	783.682
51.286	14.927	1018.772	782.704
52.301	15.026	1018.007	782.506
53.315	15.014	1017.230	781.783
54.330	14.993	1016.225	780.847
55.344	14.765	1015.611	779.239
56.359	14.846	1014.152	778.431
57.374	15.058	1013.285	778.682
58.388	14.928	1012.803	777.637
59.403	14.852	1011.721	776.387
60.417	14.780	1011.094	775.502
61.432	14.630	1010.686	774.424
62.447	14.617	1009.944	773.725
63.461	14.656	1009.279	773.329
64.476	14.705	1008.070	772.560
65.490	14.589	1007.157	771.260
66.505	14.590	1006.468	770.665
67.520	14.601	1005.892	770.207
68.534	14.769	1004.607	769.932
69.549	14.709	1003.675	768.872
70.563	14.709	1003.291	768.509
71.578	14.645	1002.530	767.564
72.593	14.657	1001.723	766.935
73.607	14.497	1001.166	765.705
74.622	14.497	999.983	764.734
75.636	14.625	998.889	764.415
76.651	14.730	997.975	764.126
77.666	14.660	997.412	763.310
78.680	14.687	996.809	762.901
79.695	14.627	995.753	761.752
80.709	14.587	996.098	761.769
81.724	14.843	994.837	761.902
82.739	14.616	994.521	760.557
83.753	14.746	993.652	760.419
84.768	14.894	993.000	760.525
85.782	15.071	992.362	760.775
86.797	15.189	991.187	760.342
87.812	15.072	990.698	759.368
88.826	15.014	989.895	758.422
89.841	14.984	989.026	757.553
90.855	14.972	988.406	756.956
91.870	14.965	987.603	756.243
92.884	15.121	986.659	756.161
93.899	15.101	985.981	755.482
94.914	15.060	985.339	754.739
95.928	15.132	984.568	754.404
96.943	15.214	984.199	754.425
97.957	15.075	983.276	753.025
98.972	15.135	982.632	752.736
99.987	14.991	981.921	751.478
101.001	15.150	980.719	751.203
102.016	15.205	979.745	750.638
103.030	15.137	978.799	749.543
104.045	15.106	977.864	748.623
105.060	15.259	976.487	748.185
106.074	15.015	975.996	746.653
107.089	14.908	975.255	745.544
108.103	14.808	974.344	744.334
109.118	14.854	973.040	743.477
110.133	14.838	972.311	742.783
111.147	14.833	971.517	742.092
112.162	14.644	970.874	740.696
113.176	14.687	970.191	740.297
114.191	14.771	969.557	740.123
115.206	14.955	968.012	739.693
116.220	14.901	967.457	738.964
117.235	14.833	966.803	738.100
118.249	14.856	966.052	737.561
119.264	14.909	965.032	736.948
120.279	14.775	963.863	735.402
121.293	14.737	963.573	734.950
122.308	14.795	962.594	734.390
123.322	14.732	961.639	733.322
124.337	14.789	960.618	732.727
125.352	14.661	959.772	731.457
126.366	14.662	959.021	730.824
127.381	14.686	957.544	729.738
128.395	14.592	956.994	728.847
129.410	14.708	956.066	728.581
130.424	14.715	955.075	727.792
131.439	14.874	953.951	727.563
132.454	14.978	953.165	727.351
133.468	14.891	952.763	726.602
134.483	14.810	952.036	725.629
135.497	14.999	951.092	725.665
136.512	14.921	950.314	724.669
137.527	14.929	949.572	724.075
138.541	14.963	949.006	723.725
139.556	14.857	948.556	722.859
140.570	14.926	947.453	722.257
141.585	15.031	946.543	721.949
142.600	15.175	946.303	722.324
143.614	15.081	945.782	721.458
144.629	15.217	944.800	721.229
145.643	15.162	944.257	720.513
146.658	15.160	943.188	719.626
147.673	15.154	941.912	718.563
148.687	15.022	941.430	717.566
149.702	14.986	940.598	716.714
150.716	14.949	939.488	715.646
151.731	14.864	938.773	714.675
152.746	14.867	938.126	714.133
153.760	15.031	937.576	714.350
154.775	15.022	936.498	713.428
155.789	15.027	935.914	712.942
156.804	15.100	935.308	712.727
157.819	14.981	934.476	711.526
158.833	15.232	933.578	711.844
159.848	15.228	933.414	711.639
160.862	15.308	932.652	711.335
161.877	15.239	931.662	710.225
162.892	15.088	931.239	709.200
163.906	14.996	929.925	707.746
164.921	15.021	929.235	707.263
165.935	14.900	928.377	706.039
166.950	14.885	927.235	705.046
167.964	15.179	926.082	705.342
168.979	15.181	925.071	704.519
169.994	15.074	924.333	703.444
171.008	14.948	923.757	702.415
172.023	15.226	922.382	702.475
173.037	15.232	922.047	702.183
174.052	15.299	921.762	702.184
175.067	15.274	920.419	700.993
176.081	15.190	919.962	700.231
177.096	15.025	919.048	698.784
178.110	15.079	918.107	698.232
179.125	14.984	917.830	697.562
180.140	15.090	916.935	697.264
181.154	15.130	916.368	696.939
182.169	15.178	915.809	696.651
183.183	15.273	915.004	696.372
184.198	15.217	914.343	695.575
185.213	15.388	913.529	695.604
186.227	15.439	912.995	695.344
187.242	15.427	912.700	695.008
188.256	15.377	912.026	694.227
189.271	15.503	910.915	693.841
190.286	15.591	910.652	693.943
191.300	15.275	909.615	691.788
192.315	15.031	908.942	690.208
193.329	14.974	908.411	689.511
194.344	14.959	907.837	688.952
195.359	15.218	907.102	689.399
196.373	15.200	906.173	688.556
197.388	15.420	905.862	689.162
198.402	15.401	905.810	688.986
199.417	15.507	905.356	689.013
200.432	15.593	905.086	689.101
201.446	15.625	904.435	688.674
202.461	15.739	903.997	688.747
203.475	15.823	903.563	688.699
204.490	15.744	902.779	687.718
205.504	15.705	901.974	686.883
206.519	15.613	901.207	685.862
207.534	15.523	900.084	684.582
208.548	15.463	899.976	684.195
209.563	15.597	898.928	683.883
210.577	15.572	898.224	683.184
211.592	15.563	897.718	682.701
212.607	15.756	897.278	683.093
213.621	15.784	896.871	682.837
214.636	15.787	895.958	682.090
215.650	15.763	895.307	681.439
216.665	15.823	894.696	681.157
217.680	15.850	894.197	680.823
218.694	15.888	893.851	680.656
219.709	15.847	893.360	680.054
220.723	15.898	892.478	679.528
221.738	15.843	891.877	678.791
222.753	15.855	891.445	678.450
223.767	15.844	890.307	677.479
224.782	15.947	889.505	677.223
225.796	16.032	888.612	676.824
226.811	16.074	887.782	676.302
227.826	15.913	887.575	675.437
228.840	15.839	887.277	674.856
229.855	15.805	886.392	673.984
230.869	15.768	885.810	673.336
231.884	15.914	884.759	673.061
232.899	15.872	884.168	672.382
233.913	15.774	883.550	671.462
234.928	15.788	882.852	670.930
235.942	15.768	882.211	670.304
236.957	15.746	881.381	669.524
237.972	15.801	880.914	669.331
238.986	15.827	880.297	668.906
240.001	15.839	879.756	668.481
241.015	15.885	878.961	668.003
242.030	15.946	877.904	667.380
243.045	15.927	877.709	667.099
244.059	15.976	877.114	666.780
245.074	16.030	876.281	666.304
246.088	16.167	875.668	666.320
247.103	16.064	875.339	665.601
248.117	16.101	874.830	665.304
249.132	16.165	874.185	665.007
250.147	16.382	873.893	665.578
251.161	16.421	873.064	665.043
252.176	16.543	872.533	665.060
253.190	16.485	871.851	664.252
254.205	16.439	871.543	663.781
255.220	16.597	870.793	663.769
256.234	16.425	870.413	662.745
257.249	16.683	869.495	662.999
258.263	16.569	869.117	662.204
259.278	16.686	868.141	661.859
260.293	16.480	868.209	661.050
261.307	16.682	867.232	661.035
262.322	16.645	866.590	660.343
263.336	16.701	866.121	660.145
264.351	16.631	865.435	659.290
265.366	16.732	864.746	659.102
266.380	16.773	864.385	658.926
267.395	16.792	863.591	658.340
268.409	16.695	862.937	657.406
269.424	16.762	861.895	656.814
270.439	16.712	861.469	656.236
271.453	16.763	860.431	655.586
272.468	16.554	859.866	654.288
273.482	16.549	859.374	653.836
274.497	16.633	858.954	653.783
275.512	16.584	858.406	653.120
276.526	16.606	857.177	652.212
277.541	16.713	856.429	651.995
278.555	16.662	856.116	651.502
279.570	16.786	855.824	651.700
280.585	16.866	855.253	651.515
281.599	16.825	854.972	651.087
282.614	16.767	854.241	650.249
283.628	16.877	853.765	650.252
284.643	16.812	853.298	649.590
285.657	16.807	852.363	648.801
286.672	16.807	852.032	648.492
287.687	16.871	851.562	648.323
288.701	16.671	851.066	647.121
289.716	16.924	850.185	647.359
290.730	16.931	849.779	647.023
291.745	16.773	849.096	645.841
292.760	17.043	848.093	646.050
293.774	16.856	848.143	645.320
294.789	16.964	847.102	644.880
295.803	17.154	846.614	645.174
296.818	17.119	845.824	644.379
297.833	16.868	845.362	643.021
298.847	17.069	844.593	643.139
299.862	16.924	844.177	642.217
300.876	17.069	843.090	641.880
301.891	17.183	842.628	641.906
302.906	17.150	841.914	641.180
303.920	17.091	841.732	640.763
304.935	17.183	840.749	640.301
305.949	17.417	840.528	640.958
306.964	17.233	839.860	639.702
307.979	17.190	839.529	639.231
308.993	17.215	838.884	638.777
310.008	17.203	838.137	638.104
311.022	17.381	837.662	638.356
312.037	17.404	836.788	637.718
313.052	17.349	836.609	637.321
314.066	17.216	836.184	636.442
315.081	17.134	835.424	635.502
316.095	17.201	834.580	635.051
317.110	17.139	834.362	634.600
318.125	17.093	833.805	633.950
319.139	17.160	833.338	633.787
320.154	17.139	833.226	633.566
321.168	17.114	832.491	632.860
322.183	17.289	831.650	632.814
323.197	17.357	830.969	632.494
324.212	17.322	830.305	631.803
325.227	17.306	830.547	631.871
326.241	17.283	829.713	631.095
327.256	17.297	829.004	630.552
328.270	17.270	828.647	630.125
329.285	17.245	827.976	629.465
330.300	17.341	827.282	629.237
331.314	17.293	826.682	628.548
332.329	17.240	826.246	627.964
333.343	17.441	825.519	628.100
334.358	17.335	825.110	627.342
335.373	17.524	824.364	627.416
336.387	17.547	823.948	627.129
337.402	17.554	823.653	626.875
338.416	17.424	823.256	626.039
339.431	17.742	822.290	626.415
340.446	17.739	821.758	625.946
341.460	17.734	821.149	625.406
342.475	17.848	820.707	625.433
343.489	17.887	820.148	625.093
344.504	17.899	819.871	624.872
345.519	17.808	819.634	624.302
346.533	17.947	818.642	624.002
347.548	18.051	818.155	623.953
348.562	17.916	817.817	623.148
349.577	17.717	817.087	621.810
350.592	17.724	816.210	621.115
351.606	17.598	815.885	620.352
352.621	17.654	815.614	620.293
353.635	17.651	815.328	620.012
354.650	17.590	815.011	619.495
355.665	17.819	814.237	619.682
356.679	17.706	814.272	619.244
357.694	17.942	813.472	619.436
358.708	17.818	812.819	618.436
359.723	17.943	812.113	618.295
360.738	17.872	811.518	617.530
361.752	17.900	811.348	617.450
362.767	17.809	810.642	616.529
363.781	17.956	810.788	617.117
364.796	18.085	810.118	617.016
365.810	18.028	810.027	616.687
366.825	18.089	809.599	616.526
367.840	18.047	809.492	616.238
368.854	18.194	808.752	616.151
369.869	18.099	808.173	615.314
370.883	18.071	807.559	614.690
371.898	18.195	806.955	614.623
372.913	18.248	806.039	614.059
373.927	18.330	805.590	613.958
374.942	18.186	805.037	612.968
375.956	18.216	804.121	612.322
376.971	18.316	803.860	612.427
377.986	18.398	802.962	611.983
379.000	18.456	803.083	612.226
380.015	18.431	802.333	611.510
381.029	18.541	801.594	611.286
382.044	18.537	801.105	610.846
383.059	18.231	801.254	609.816
384.073	18.378	800.514	609.720
385.088	18.323	799.786	608.916
386.102	18.305	799.094	608.273
387.117	18.275	798.575	607.717
388.132	18.312	797.951	607.318
389.146	18.387	797.800	607.416
390.161	18.363	797.218	606.834
391.175	18.432	797.092	606.930
392.190	18.479	796.629	606.690
393.205	18.488	796.119	606.281
394.219	18.477	795.734	605.895
395.234	18.439	795.228	605.320
396.248	18.280	794.667	604.279
397.263	18.355	794.224	604.154
398.278	18.268	793.466	603.218
399.292	18.253	792.970	602.732
400.307	18.151	793.136	602.445
401.321	18.252	792.385	602.180
402.336	18.298	792.029	602.015
403.350	18.323	791.509	601.657
404.365	18.311	791.599	601.627
405.380	18.548	790.539	601.601
406.394	18.478	790.469	601.248
407.409	18.684	789.809	601.414
408.423	18.757	789.570	601.435
409.438	18.791	789.074	601.123
410.453	18.813	788.691	600.858
411.467	18.780	788.273	600.371
412.482	18.764	787.819	599.916
413.496	19.010	786.960	600.066
414.511	18.914	786.914	599.642
415.526	18.923	786.373	599.210
416.540	18.988	786.158	599.217
417.555	19.026	785.450	598.756
418.569	18.918	785.168	598.115
419.584	18.933	784.809	597.840
420.599	18.896	784.538	597.452
421.613	155.609	1367.936	1790.630
422.628	134.428	1452.965	1790.759
