DTS Sentinel unit serial number:	SN413079Multiplexer serial number:	ORYXHardware model number:	OX4-SRSoftware version number:	ORYX F/W v4.00 Oryx Data Collector v3.7.2.0data status	okinstallation	princeton_trtdifferential loss correction	single-endedforward channel	channel 3reverse channel	N/Adate	2019/09/18time	00:04:35forward acquisition time	60.00reverse acquisition time	0.00gamma	496.2192k internal	0.2344k external	0.2344temperature offset calibration	0.9947default loss term (dB/km)	0.3790temperature slope calibration	1.0000multiplexer offset coefficient	1.0000multiplexer slope coefficient	1.0000fibre end	0.00T internal ref (°C)	23.81T ext. ref 1 (°C)	0.16T ext. ref 2 (°C)	17.30length (m)	temperature (°C)	Stokes	anti-Stokes-747.200	139.404	-0.118	0.156
-746.185	-200.000	0.068	0.389
-745.171	-168.504	0.245	-0.009
-744.156	131.129	-0.071	-0.092
-743.142	-200.000	0.043	-0.333
-742.127	154.039	-0.132	0.181
-741.112	317.097	0.198	0.375
-740.098	174.104	-0.069	0.100
-739.083	-200.000	0.002	-0.498
-738.069	-23.920	-0.309	0.185
-737.054	642.958	0.136	0.346
-736.039	-66.839	-0.339	0.134
-735.025	14.504	0.232	0.181
-734.010	-179.176	-0.188	0.004
-732.996	277.808	-0.092	-0.164
-731.981	101.361	-0.175	-0.204
-730.966	23.262	-0.099	0.081
-729.952	-163.010	0.045	-0.002
-728.937	-200.000	-0.018	-0.417
-727.923	-200.000	0.036	-0.217
-726.908	-174.123	-0.314	0.009
-725.894	104.421	-0.022	0.026
-724.879	437.811	-0.038	0.083
-723.864	342.480	0.082	-0.161
-722.850	593.259	0.114	-0.282
-721.835	-200.000	0.032	0.167
-720.821	800.000	0.050	-0.172
-719.806	477.346	-0.043	-0.098
-718.791	-200.000	-0.002	0.187
-717.777	17.725	0.029	-0.023
-716.762	-94.147	-0.307	0.084
-715.748	213.166	-0.077	-0.122
-714.733	-12.980	0.385	-0.250
-713.718	-34.475	0.273	0.149
-712.704	230.898	0.126	0.206
-711.689	-139.702	-0.223	-0.024
-710.675	-69.814	-0.315	-0.120
-709.660	-15.758	0.134	-0.085
-708.645	-25.605	0.023	0.013
-707.631	77.353	0.251	-0.267
-706.616	-160.145	-0.135	-0.007
-705.602	2.992	0.165	-0.120
-704.587	-99.255	0.144	0.036
-703.572	-200.000	-0.038	-0.321
-702.558	-183.952	0.015	0.000
-701.543	-56.509	-0.310	0.138
-700.529	180.619	-0.013	-0.020
-699.514	-40.848	-0.286	-0.148
-698.499	-145.168	0.302	-0.027
-697.485	53.722	0.213	-0.204
-696.470	-6.682	0.229	-0.156
-695.456	90.198	0.228	-0.254
-694.441	800.000	-0.060	-0.234
-693.426	-200.000	-0.055	0.358
-692.412	-95.967	-0.290	-0.077
-691.397	-178.553	0.214	0.005
-690.383	-68.204	-0.156	0.060
-689.368	-63.789	-0.298	-0.122
-688.354	48.044	0.196	0.183
-687.339	3.807	0.215	-0.156
-686.324	-199.268	-0.049	0.000
-685.310	537.734	-0.093	0.221
-684.295	-28.088	-0.324	-0.187
-683.281	324.916	0.177	-0.338
-682.266	47.820	0.055	0.051
-681.251	-2.954	-0.281	0.196
-680.237	-29.634	0.223	-0.127
-679.222	31.083	-0.149	0.127
-678.208	-64.535	-0.141	0.057
-677.193	-200.000	-0.016	0.164
-676.178	-200.000	-0.027	-0.262
-675.164	-89.027	0.162	-0.048
-674.149	800.000	0.059	0.183
-673.135	-74.986	-0.208	-0.074
-672.120	800.000	0.034	-0.109
-671.105	-106.552	-0.080	0.018
-670.091	800.000	0.015	0.066
-669.076	-10.841	-0.056	-0.037
-668.062	-200.000	0.070	0.395
-667.047	-29.919	-0.397	-0.225
-666.032	39.497	0.034	-0.031
-665.018	-161.440	0.269	0.014
-664.003	12.393	-0.134	-0.103
-662.989	263.450	0.162	0.280
-661.974	50.299	0.154	-0.145
-660.959	-200.000	0.048	0.286
-659.945	-85.987	-0.323	0.100
-658.930	73.376	0.174	-0.182
-657.916	-77.395	0.317	-0.110
-656.901	-139.728	-0.113	-0.012
-655.886	203.689	-0.260	-0.402
-654.872	-92.846	-0.035	0.010
-653.857	-200.000	-0.029	0.130
-652.843	776.791	0.082	-0.224
-651.828	13.679	-0.216	-0.168
-650.814	800.000	0.102	0.297
-649.799	-200.000	-0.102	0.477
-648.784	32.420	0.147	0.127
-647.770	311.112	-0.081	-0.152
-646.755	-92.437	-0.242	0.068
-645.741	57.929	-0.245	-0.239
-644.726	-28.831	-0.157	-0.090
-643.711	216.215	-0.133	0.211
-642.697	-200.000	0.029	0.160
-641.682	190.587	-0.151	-0.226
-640.668	-90.987	-0.276	-0.079
-639.653	800.000	0.046	-0.171
-638.638	800.000	0.133	0.392
-637.624	-200.000	-0.029	0.203
-636.609	-200.000	-0.035	0.186
-635.595	31.236	0.428	0.366
-634.580	23.593	0.324	-0.265
-633.565	-176.181	0.242	0.006
-632.551	10.324	-0.124	-0.094
-631.536	-200.000	-0.023	0.151
-630.522	-63.386	0.161	0.066
-629.507	39.153	0.194	0.173
-628.492	-13.520	-0.407	0.263
-627.478	-200.000	-0.018	0.227
-626.463	-20.904	-0.258	-0.157
-625.449	59.300	0.052	-0.051
-624.434	16.834	0.186	-0.147
-623.419	-200.000	-0.041	0.373
-622.405	545.679	0.111	-0.264
-621.390	482.938	-0.025	0.056
-620.376	800.000	0.088	0.300
-619.361	800.000	-0.036	0.106
-618.346	-200.000	-0.011	0.109
-617.332	-71.579	-0.229	-0.085
-616.317	-102.636	0.508	0.121
-615.303	-200.000	-0.005	0.311
-614.288	456.636	0.163	0.361
-613.273	-103.377	0.231	0.054
-612.259	-200.000	-0.002	-0.184
-611.244	-53.840	-0.278	-0.126
-610.230	10.670	0.316	-0.240
-609.215	294.691	0.255	0.464
-608.201	-200.000	0.056	-0.442
-607.186	540.740	0.117	-0.277
-606.171	-182.252	-0.381	-0.007
-605.157	-88.269	0.116	0.035
-604.142	240.725	0.092	0.153
-603.128	800.000	0.170	0.475
-602.113	-170.871	-0.180	0.006
-601.098	328.621	-0.093	-0.177
-600.084	-36.429	0.283	0.152
-599.069	-151.001	-0.095	-0.007
-598.055	-24.011	0.298	0.177
-597.040	-200.000	-0.011	-0.171
-596.025	-200.000	-0.030	-0.269
-595.011	-98.649	0.041	0.010
-593.996	-151.134	-0.287	0.021
-592.982	800.000	0.099	0.302
-591.967	-200.000	-0.023	-0.174
-590.952	156.441	0.041	0.056
-589.938	719.947	0.043	-0.113
-588.923	103.779	-0.103	-0.120
-587.909	11.873	-0.177	0.135
-586.894	-51.634	-0.045	-0.021
-585.879	-200.000	-0.077	0.444
-584.865	-35.536	-0.107	0.058
-583.850	1.669	0.197	0.141
-582.836	40.061	0.133	-0.119
-581.821	800.000	0.126	-0.436
-580.806	-200.000	-0.034	-0.209
-579.792	326.263	0.076	0.145
-578.777	93.626	-0.279	0.315
-577.763	-104.597	-0.239	0.055
-576.748	91.039	0.194	-0.216
-575.733	-200.000	0.016	0.221
-574.719	111.316	0.185	-0.222
-573.704	-200.000	0.005	0.056
-572.690	109.131	0.066	-0.079
-571.675	-108.858	-0.216	-0.046
-570.661	517.532	0.043	-0.099
-569.646	-162.941	-0.085	-0.004
-568.631	48.595	0.100	0.093
-567.617	-6.599	0.091	-0.061
-566.602	-200.000	-0.010	0.153
-565.588	-24.614	-0.023	0.014
-564.573	-49.780	0.044	0.021
-563.558	-137.720	-0.091	0.010
-562.544	800.000	0.010	-0.044
-561.529	-98.941	-0.318	-0.080
-560.515	-200.000	0.032	0.300
-559.500	-23.193	0.298	0.178
-558.485	-76.822	-0.379	-0.132
-557.471	-122.329	-0.482	0.078
-556.456	-200.000	0.040	-0.192
-555.442	-189.530	0.042	0.000
-554.427	-26.296	-0.273	-0.159
-553.412	360.050	-0.051	0.101
-552.398	800.000	-0.052	-0.180
-551.383	8.270	-0.303	0.226
-550.369	-156.185	-0.183	-0.011
-549.354	70.771	0.195	0.200
-548.339	45.348	0.335	0.307
-547.325	71.946	0.154	-0.159
-546.310	800.000	0.061	-0.203
-545.296	120.718	-0.117	0.145
-544.281	-0.138	0.297	0.210
-543.266	208.918	-0.167	-0.260
-542.252	128.339	-0.064	-0.080
-541.237	-136.163	0.508	0.059
-540.223	-156.089	0.088	-0.006
-539.208	-59.693	-0.243	0.103
-538.193	-129.877	-0.165	-0.022
-537.179	438.305	-0.116	0.252
-536.164	-137.222	-0.080	-0.009
-535.150	800.000	-0.068	-0.241
-534.135	-19.389	-0.154	0.095
-533.121	15.274	-0.167	0.130
-532.106	-84.218	0.103	-0.032
-531.091	800.000	-0.071	-0.222
-530.077	490.917	-0.075	-0.171
-529.062	-200.000	-0.010	0.191
-528.048	-200.000	-0.048	0.272
-527.033	800.000	0.038	-0.132
-526.018	439.481	-0.090	-0.194
-525.004	0.398	0.035	-0.025
-523.989	-141.280	0.124	-0.012
-522.975	61.089	0.184	-0.181
-521.960	-123.086	0.118	0.019
-520.945	329.145	-0.075	0.144
-519.931	-200.000	0.030	0.190
-518.916	-200.000	0.029	-0.230
-517.902	800.000	0.053	-0.165
-516.887	-200.000	-0.011	-0.120
-515.872	-200.000	0.012	0.126
-514.858	-1.569	-0.176	0.123
-513.843	-40.073	0.174	-0.090
-512.829	-65.390	0.180	0.072
-511.814	-80.517	-0.179	0.059
-510.799	108.045	0.349	0.413
-509.785	-133.021	-0.178	0.022
-508.770	-64.457	0.148	-0.060
-507.756	-91.807	-0.302	0.085
-506.741	64.917	0.061	-0.061
-505.726	-78.880	0.044	-0.015
-504.712	-200.000	-0.005	0.053
-503.697	-24.695	-0.249	0.147
-502.683	-200.000	-0.010	-0.048
-501.668	72.928	0.142	0.147
-500.653	-200.000	0.012	-0.082
-499.639	184.391	-0.042	-0.062
-498.624	13.463	0.137	0.106
-497.610	26.539	-0.148	-0.122
-496.595	-71.869	-0.232	-0.086
-495.581	34.587	-0.082	-0.071
-494.566	-200.000	-0.003	-0.056
-493.551	-200.000	-0.007	0.238
-492.537	-96.977	0.064	-0.017
-491.522	-200.000	-0.018	-0.493
-490.508	13.988	0.058	-0.045
-489.493	800.000	0.075	-0.236
-488.478	-200.000	0.039	-0.240
-487.464	800.000	0.036	0.128
-486.449	35.516	-0.142	0.123
-485.435	-122.328	-0.118	-0.019
-484.420	-178.710	0.136	-0.003
-483.405	112.970	-0.336	-0.403
-482.391	-68.454	0.084	0.032
-481.376	-200.000	-0.035	0.167
-480.362	800.000	0.070	-0.303
-479.347	265.555	-0.070	-0.120
-478.332	-62.343	0.346	-0.143
-477.318	-44.684	-0.185	0.091
-476.303	-138.147	-0.116	0.013
-475.289	92.668	-0.027	-0.030
-474.274	-200.000	-0.003	-0.108
-473.259	-152.111	0.207	-0.015
-472.245	280.316	0.143	0.253
-471.230	-72.806	-0.309	-0.113
-470.216	-87.603	0.162	-0.048
-469.201	14.694	-0.185	-0.143
-468.186	-163.131	-0.161	-0.008
-467.172	499.400	-0.177	-0.403
-466.157	-83.059	-0.326	-0.104
-465.143	-8.068	-0.266	0.177
-464.128	399.758	-0.133	0.275
-463.113	99.355	0.038	-0.044
-462.099	-200.000	0.041	-0.368
-461.084	-200.000	0.011	0.104
-460.070	203.793	0.055	0.084
-459.055	-62.993	-0.269	0.110
-458.040	440.892	-0.090	-0.194
-457.026	-193.470	-0.481	0.004
-456.011	-96.007	-0.017	-0.005
-454.997	17.472	0.189	-0.149
-453.982	-200.000	-0.007	-0.119
-452.968	800.000	0.053	0.175
-451.953	-139.456	0.222	-0.024
-450.938	-200.000	0.007	-0.034
-449.924	-164.521	-0.312	-0.014
-448.909	-31.905	0.334	-0.185
-447.895	-186.533	-0.187	-0.003
-446.880	-133.646	-0.423	0.052
-445.865	-200.000	0.026	0.341
-444.851	-41.595	-0.250	-0.127
-443.836	-68.091	0.114	0.044
-442.822	-200.000	-0.049	-0.392
-441.807	-45.259	0.332	-0.163
-440.792	-116.734	0.300	0.054
-439.778	381.331	0.021	-0.042
-438.763	800.000	0.041	-0.159
-437.749	-73.359	0.146	-0.053
-436.734	-200.000	0.018	0.124
-435.719	-200.000	-0.010	-0.109
-434.705	436.573	-0.115	0.247
-433.690	-200.000	-0.033	-0.181
-432.676	-162.947	-0.123	0.006
-431.661	329.263	0.176	-0.335
-430.646	-200.000	-0.002	-0.093
-429.632	-37.928	-0.131	-0.069
-428.617	-10.582	0.256	0.167
-427.603	50.731	0.153	0.143
-426.588	800.000	0.117	0.407
-425.573	59.054	0.081	0.079
-424.559	185.512	0.067	0.098
-423.544	150.802	0.059	-0.080
-422.530	-10.410	-0.382	-0.250
-421.515	533.090	0.062	-0.145
-420.500	706.365	0.110	0.287
-419.486	157.116	-0.093	-0.127
-418.471	201.070	-0.097	0.148
-417.457	-30.047	-0.268	-0.151
-416.442	595.062	0.106	-0.260
-415.428	-22.704	-0.075	0.045
-414.413	-25.177	-0.191	-0.112
-413.398	75.839	-0.224	-0.234
-412.384	714.897	-0.023	-0.060
-411.369	-102.925	0.345	0.081
-410.355	184.140	0.086	-0.126
-409.340	-111.097	0.190	0.038
-408.325	-87.532	0.334	0.100
-407.311	-74.772	-0.229	0.081
-406.296	-200.000	0.013	0.070
-405.282	-200.000	0.023	-0.106
-404.267	706.405	-0.115	0.300
-403.252	396.689	-0.072	-0.148
-402.238	800.000	0.054	-0.153
-401.223	-31.705	-0.171	0.095
-400.209	-200.000	0.059	-0.497
-399.194	-200.000	-0.015	-0.204
-398.179	-156.455	0.107	-0.007
-397.165	-60.334	-0.159	-0.067
-396.150	359.896	-0.082	0.162
-395.136	-122.090	0.346	0.056
-394.121	7.325	-0.289	-0.213
-393.106	-200.000	0.019	-0.164
-392.092	-200.000	0.007	-0.060
-391.077	-87.823	0.245	0.073
-390.063	-2.091	-0.255	-0.177
-389.048	127.213	0.146	-0.182
-388.033	-200.000	0.024	-0.148
-387.019	800.000	0.028	-0.076
-386.004	-95.567	-0.133	-0.035
-384.990	-116.139	-0.143	0.026
-383.975	800.000	0.053	-0.222
-382.960	800.000	-0.023	-0.092
-381.946	-200.000	-0.004	-0.051
-380.931	-200.000	0.032	0.164
-379.917	-38.005	0.148	-0.077
-378.902	302.491	0.081	0.148
-377.888	-132.959	-0.353	-0.044
-376.873	-116.170	-0.054	0.010
-375.858	56.030	-0.059	-0.056
-374.844	-114.078	0.359	-0.069
-373.829	31.127	-0.073	0.062
-372.815	-200.000	-0.003	0.190
-371.800	-47.791	-0.096	0.046
-370.785	69.703	0.362	0.368
-369.771	-200.000	-0.045	-0.263
-368.756	-82.883	-0.473	0.150
-367.742	-56.417	0.182	0.079
-366.727	-139.325	0.169	-0.018
-365.712	-87.509	-0.212	0.063
-364.698	538.826	-0.130	-0.304
-363.683	-200.000	-0.006	0.100
-362.669	-104.378	-0.064	0.015
-361.654	87.833	0.104	0.114
-360.639	800.000	-0.071	0.206
-359.625	25.998	-0.360	0.296
-358.610	800.000	-0.032	-0.102
-357.596	68.484	0.264	0.267
-356.581	-57.780	-0.407	-0.176
-355.566	82.479	0.349	0.374
-354.552	-9.722	0.053	0.035
-353.537	-200.000	0.074	-0.479
-352.523	22.712	0.038	0.031
-351.508	-200.000	-0.019	-0.166
-350.493	3.479	0.042	-0.030
-349.479	-34.899	-0.276	0.149
-348.464	-34.042	-0.240	0.130
-347.450	-24.224	0.165	0.097
-346.435	-114.844	0.215	-0.040
-345.420	-50.741	0.240	-0.111
-344.406	161.607	-0.129	0.178
-343.391	-200.000	-0.063	-0.384
-342.377	63.044	0.106	-0.104
-341.362	91.662	0.189	-0.210
-340.348	374.344	0.030	-0.060
-339.333	-90.984	0.234	-0.066
-338.318	800.000	-0.105	-0.314
-337.304	166.117	0.182	0.254
-336.289	-60.534	-0.380	-0.159
-335.275	351.484	-0.008	0.015
-334.260	284.438	0.189	-0.334
-333.245	-115.916	-0.289	0.053
-332.231	467.043	0.073	-0.162
-331.216	94.060	0.249	-0.278
-330.202	-23.094	-0.221	-0.131
-329.187	800.000	-0.075	-0.278
-328.172	-100.590	-0.240	-0.058
-327.158	-44.269	-0.077	0.038
-326.143	103.327	0.223	-0.257
-325.129	-91.149	0.294	-0.083
-324.114	-102.684	0.174	-0.041
-323.099	-200.000	0.019	0.186
-322.085	-73.587	-0.501	-0.180
-321.070	-65.966	-0.304	0.120
-320.056	-79.483	-0.037	-0.012
-319.041	177.730	0.108	-0.155
-318.026	103.936	0.048	0.056
-317.012	-94.566	0.197	-0.053
-315.997	800.000	0.078	0.261
-314.983	-200.000	0.024	0.229
-313.968	14.447	-0.291	0.224
-312.953	681.835	-0.072	0.185
-311.939	800.000	-0.026	-0.092
-310.924	-200.000	-0.022	-0.120
-309.910	91.186	0.131	-0.145
-308.895	58.524	0.199	0.192
-307.880	12.716	0.137	-0.104
-306.866	284.096	0.091	0.160
-305.851	-200.000	-0.024	0.405
-304.837	-19.758	0.349	0.213
-303.822	571.852	-0.137	0.328
-302.807	498.269	0.055	-0.125
-301.793	-200.000	0.036	0.221
-300.778	-17.097	0.424	-0.263
-299.764	-35.089	0.184	0.099
-298.749	386.711	-0.033	-0.066
-297.735	800.000	0.078	-0.296
-296.720	-154.067	-0.168	0.011
-295.705	-59.569	-0.098	0.041
-294.691	-96.422	0.228	0.059
-293.676	-183.586	0.384	-0.006
-292.662	-200.000	-0.012	0.279
-291.647	98.291	-0.117	-0.133
-290.632	770.256	-0.098	-0.261
-289.618	-100.968	-0.050	0.012
-288.603	-165.643	-0.114	0.005
-287.589	-67.782	0.212	-0.081
-286.574	-141.216	-0.452	-0.045
-285.559	-64.984	0.184	-0.073
-284.545	517.078	0.055	0.126
-283.530	-5.368	0.265	0.179
-282.516	221.564	0.127	0.201
-281.501	-160.553	-0.282	-0.015
-280.486	228.407	0.031	0.049
-279.472	-133.027	0.271	-0.034
-278.457	800.000	-0.136	0.370
-277.443	-85.439	-0.229	0.070
-276.428	-65.342	0.076	0.030
-275.413	36.185	-0.109	0.094
-274.399	-95.584	-0.232	-0.061
-273.384	164.056	0.086	-0.120
-272.370	-200.000	0.014	0.195
-271.355	132.255	-0.196	0.248
-270.340	-111.042	-0.314	-0.063
-269.326	-124.426	-0.130	-0.020
-268.311	409.825	-0.097	0.203
-267.297	39.577	-0.040	-0.035
-266.282	294.805	-0.057	0.103
-265.267	-139.141	0.164	0.017
-264.253	-200.000	0.029	0.170
-263.238	-175.509	0.057	0.002
-262.224	787.042	0.055	-0.148
-261.209	239.281	-0.144	0.236
-260.195	57.868	-0.081	0.078
-259.180	-200.000	-0.031	0.248
-258.165	-69.370	0.116	-0.044
-257.151	-100.175	-0.178	0.044
-256.136	-135.004	0.216	0.026
-255.122	800.000	-0.162	0.545
-254.107	-200.000	0.012	-0.184
-253.092	800.000	0.029	0.106
-252.078	-24.793	0.199	-0.116
-251.063	6.585	-0.243	-0.177
-250.049	110.452	0.242	0.285
-249.034	536.634	-0.132	-0.307
-248.019	-200.000	-0.006	0.277
-247.005	800.000	0.081	0.228
-245.990	77.122	0.340	-0.355
-244.976	-18.121	0.235	0.145
-243.961	4.004	0.209	0.150
-242.946	461.793	0.061	0.134
-241.932	30.662	-0.190	0.160
-240.917	10.010	-0.105	-0.078
-239.903	97.788	0.065	-0.074
-238.888	800.000	0.057	0.232
-237.873	-200.000	0.014	-0.202
-236.859	-200.000	-0.033	-0.348
-235.844	-76.507	0.096	-0.033
-234.830	-200.000	0.056	-0.252
-233.815	-182.993	0.023	0.000
-232.800	-48.363	-0.074	-0.035
-231.786	86.500	0.111	0.120
-230.771	800.000	-0.094	0.356
-229.757	88.271	0.188	-0.204
-228.742	-160.947	0.196	0.010
-227.727	-200.000	0.075	-0.406
-226.713	97.918	0.304	-0.342
-225.698	-185.754	-0.285	-0.004
-224.684	-200.000	0.022	-0.125
-223.669	-23.542	0.037	-0.022
-222.655	651.658	-0.095	-0.240
-221.640	-109.772	-0.266	0.055
-220.625	-36.308	-0.204	0.108
-219.611	-115.391	-0.153	-0.028
-218.596	-200.000	0.004	-0.043
-217.582	84.348	-0.154	0.165
-216.567	-8.157	0.104	-0.069
-215.552	800.000	0.106	0.328
-214.538	800.000	-0.050	-0.166
-213.523	-9.760	-0.136	0.089
-212.509	19.863	-0.082	0.065
-211.494	800.000	0.119	-0.462
-210.479	-118.118	-0.161	-0.028
-209.465	-200.000	0.094	-0.520
-208.450	-149.836	0.308	0.024
-207.436	800.000	-0.037	0.137
-206.421	173.110	-0.125	-0.176
-205.406	192.126	0.204	-0.302
-204.392	1.533	-0.197	0.139
-203.377	-200.000	-0.012	-0.073
-202.363	-200.000	0.011	0.147
-201.348	310.036	-0.101	-0.186
-200.333	800.000	-0.030	0.117
-199.319	21.126	-0.078	0.062
-198.304	-200.000	-0.066	0.300
-197.290	-153.335	0.197	0.013
-196.275	800.000	-0.075	-0.208
-195.260	149.834	-0.190	-0.252
-194.246	574.809	0.050	0.120
-193.231	-200.000	-0.051	0.530
-192.217	-200.000	-0.019	0.250
-191.202	-177.641	-0.448	0.011
-190.187	91.907	-0.195	0.215
-189.173	-80.380	0.358	0.117
-188.158	-200.000	-0.012	0.257
-187.144	800.000	-0.082	-0.231
-186.129	154.582	-0.190	0.255
-185.114	-200.000	-0.021	0.127
-184.100	-170.474	-0.199	-0.007
-183.085	165.350	-0.039	-0.055
-182.071	108.458	-0.081	0.095
-181.056	800.000	0.049	0.141
-180.042	-200.000	-0.048	-0.241
-179.027	255.697	0.205	0.344
-178.012	-50.800	0.151	-0.070
-176.998	7.637	0.126	-0.092
-175.983	-200.000	0.018	-0.210
-174.969	49.236	0.245	0.226
-173.954	-47.657	0.141	-0.067
-172.939	-200.000	0.038	-0.185
-171.925	199.206	0.088	0.133
-170.910	800.000	0.013	0.037
-169.896	130.626	-0.126	0.158
-168.881	29.518	0.112	-0.093
-167.866	800.000	0.034	0.114
-166.852	168.582	0.098	-0.137
-165.837	-200.000	-0.019	-0.155
-164.823	169.837	-0.190	-0.266
-163.808	-42.141	0.048	-0.024
-162.793	-81.566	0.482	-0.155
-161.779	800.000	-0.085	-0.324
-160.764	245.253	0.110	0.182
-159.750	55.896	0.227	-0.215
-158.735	800.000	0.033	-0.129
-157.720	-145.638	0.225	-0.020
-156.706	237.280	-0.113	-0.183
-155.691	-127.305	0.166	0.024
-154.677	577.142	0.073	0.174
-153.662	319.162	0.039	0.072
-152.647	-23.668	0.168	0.099
-151.633	-59.892	0.292	0.122
-150.618	-200.000	-0.007	-0.075
-149.604	-168.148	-0.030	-0.001
-148.589	-200.000	0.020	0.183
-147.574	-200.000	-0.077	0.350
-146.560	800.000	-0.041	-0.152
-145.545	441.973	-0.083	-0.177
-144.531	-110.854	0.209	-0.042
-143.516	-199.519	0.242	0.001
-142.502	119.576	-0.094	0.114
-141.487	800.000	-0.082	0.311
-140.472	-164.587	-0.379	-0.017
-139.458	-95.366	-0.158	0.042
-138.443	-200.000	0.006	0.089
-137.429	-20.508	0.361	0.217
-136.414	-3.446	-0.057	-0.038
-135.399	-57.612	-0.174	-0.075
-134.385	800.000	-0.023	0.099
-133.370	-40.864	0.332	0.168
-132.356	-200.000	0.274	-0.001
-131.341	176.699	-0.256	0.363
-130.326	-115.818	0.426	0.078
-129.312	150.088	-0.143	0.190
-128.297	75.629	-0.128	0.132
-127.283	708.168	-0.162	-0.418
-126.268	-65.244	-0.232	-0.091
-125.253	100.212	-0.151	0.171
-124.239	56.880	-0.044	0.042
-123.224	-200.000	-0.053	0.234
-122.210	136.753	-0.153	0.195
-121.195	-93.736	-0.389	-0.105
-120.180	-24.308	-0.193	-0.112
-119.166	246.203	0.100	-0.165
-118.151	-123.909	0.092	-0.014
-117.137	800.000	0.159	0.439
-116.122	-151.824	0.033	0.002
-115.107	-3.196	-0.196	-0.133
-114.093	10.654	-0.113	-0.084
-113.078	40.386	0.136	0.119
-112.064	27.680	-0.136	-0.112
-111.049	710.487	-0.071	0.185
-110.034	234.135	-0.044	0.070
-109.020	-14.543	-0.270	-0.170
-108.005	227.068	-0.180	-0.285
-106.991	-200.000	0.095	0.430
-105.976	481.175	-0.124	0.274
-104.962	-200.000	0.013	0.212
-103.947	-200.000	0.026	-0.274
-102.932	615.655	0.117	0.286
-101.918	140.707	0.141	-0.181
-100.903	-121.367	0.208	-0.034
-99.889	-200.000	0.055	0.308
-98.874	16.618	-0.175	-0.135
-97.859	800.000	-0.041	0.130
-96.845	10.890	0.106	0.079
-95.830	72.497	0.110	0.112
-94.816	-200.000	0.037	-0.197
-93.801	-200.000	0.046	-0.280
-92.786	609.019	-0.090	-0.219
-91.772	-74.381	0.235	0.083
-90.757	800.000	-0.081	0.268
-89.743	-200.000	0.009	0.258
-88.728	-200.000	-0.013	-0.128
-87.713	389.154	0.110	0.222
-86.699	-199.636	0.170	-0.001
-85.684	-200.000	0.012	-0.076
-84.670	62.358	0.130	0.127
-83.655	120.359	-0.063	-0.077
-82.640	-132.138	-0.083	-0.010
-81.626	-98.065	0.074	-0.019
-80.611	-200.000	0.003	0.352
-79.597	-200.000	0.050	-0.304
-78.582	81.422	0.148	0.156
-77.567	186.464	0.126	-0.183
-76.553	564.747	-0.109	0.257
-75.538	1.015	0.003	-0.002
-74.524	4.800	-0.015	-0.010
-73.509	800.000	-0.083	0.348
-72.494	531.589	0.175	-0.404
-71.480	-130.788	-0.257	-0.034
-70.465	-23.404	0.155	-0.091
-69.451	-128.616	0.304	0.042
-68.436	-143.409	0.028	-0.003
-67.422	-33.571	-0.164	0.088
-66.407	-200.000	-0.010	0.168
-65.392	412.206	0.059	0.123
-64.378	800.000	0.044	-0.155
-63.363	747.380	0.081	0.213
-62.349	-159.694	0.209	-0.011
-61.334	129.452	-0.948	-1.180
-60.319	105.980	0.647	0.746
-59.305	786.731	-0.524	-1.400
-58.290	366.778	0.666	1.309
-57.276	569.328	0.652	1.544
-56.261	-200.000	122.682	659.570
-55.246	444.451	1537.976	3287.759
-54.232	148.870	2683.951	3534.835
-53.217	98.009	2156.833	2417.789
-52.203	34.239	1683.942	1430.394
-51.188	26.841	1503.082	1226.886
-50.173	24.852	1480.157	1194.863
-49.159	48.837	1550.595	1416.972
-48.144	46.277	1563.294	1410.981
-47.130	26.901	1512.693	1234.949
-46.115	24.082	1496.200	1202.424
-45.100	23.900	1493.027	1198.600
-44.086	23.861	1491.340	1196.933
-43.071	23.833	1489.368	1195.118
-42.057	23.692	1487.992	1193.019
-41.042	23.781	1486.235	1192.161
-40.027	23.831	1484.854	1191.337
-39.013	23.792	1483.412	1189.874
-37.998	23.765	1482.615	1189.006
-36.984	23.817	1480.807	1187.859
-35.969	23.884	1479.408	1187.137
-34.954	23.744	1477.942	1184.974
-33.940	23.793	1476.817	1184.358
-32.925	23.811	1475.256	1183.175
-31.911	23.827	1473.986	1182.218
-30.896	23.870	1472.750	1181.462
-29.881	23.773	1472.003	1180.175
-28.867	23.874	1470.181	1179.337
-27.852	23.840	1468.851	1177.999
-26.838	23.803	1467.449	1176.580
-25.823	23.846	1465.808	1175.504
-24.809	23.913	1464.126	1174.552
-23.794	23.924	1462.747	1173.467
-22.779	23.857	1462.174	1172.520
-21.765	23.903	1460.661	1171.564
-20.750	23.858	1459.584	1170.360
-19.736	23.756	1459.083	1169.241
-18.721	23.839	1457.466	1168.440
-17.706	23.810	1456.527	1167.455
-16.692	23.860	1455.353	1166.794
-15.677	23.726	1454.925	1165.528
-14.663	23.849	1453.592	1165.216
-13.648	23.771	1452.540	1163.816
-12.633	23.814	1452.121	1163.717
-11.619	23.875	1451.030	1163.198
-10.604	23.705	1450.677	1161.752
-9.590	23.709	1449.690	1160.945
-8.575	23.893	1448.155	1160.868
-7.560	23.815	1447.583	1159.854
-6.546	23.746	1447.022	1158.910
-5.531	23.779	1445.972	1158.236
-4.517	23.752	1444.418	1156.770
-3.502	23.815	1443.604	1156.485
-2.487	23.869	1442.656	1156.027
-1.473	23.753	1441.652	1154.424
-0.458	23.736	1440.385	1153.252
0.556	21.983	1430.458	1141.765
1.571	18.793	1406.422	1102.048
2.586	15.322	1346.332	1033.511
3.600	13.672	1264.267	960.877
4.615	12.861	1220.928	923.315
5.629	11.048	1165.666	871.740
6.644	5.515	1084.895	783.625
7.659	0.909	1049.399	735.569
8.673	0.303	1044.090	728.856
9.688	0.148	1041.174	726.005
10.702	0.048	1039.758	724.472
11.717	0.131	1037.394	723.162
12.731	1.882	1038.835	732.520
13.746	8.276	1047.051	769.137
14.761	14.507	1055.235	805.257
15.775	16.844	1056.977	817.806
16.790	16.519	1055.639	815.131
17.804	15.379	1054.081	808.368
18.819	14.554	1052.278	802.941
19.834	14.259	1050.383	800.007
20.848	13.839	1050.016	797.642
21.863	13.722	1048.710	796.016
22.877	13.407	1047.860	793.789
23.892	13.236	1047.454	792.592
24.907	13.113	1046.569	791.263
25.921	13.127	1045.706	790.608
26.936	13.052	1045.473	790.003
27.950	13.255	1044.500	790.169
28.965	13.189	1044.198	789.552
29.980	13.296	1042.497	788.710
30.994	13.221	1042.113	787.990
32.009	13.318	1041.098	787.617
33.023	13.477	1040.346	787.734
34.038	13.412	1039.629	786.810
35.053	13.308	1038.646	785.507
36.067	13.273	1037.831	784.651
37.082	13.192	1037.258	783.766
38.096	13.347	1036.489	783.848
39.111	13.334	1035.812	783.206
40.126	13.298	1034.710	782.134
41.140	13.229	1033.913	781.138
42.155	13.185	1033.286	780.385
43.169	13.182	1032.106	779.410
44.184	13.208	1030.939	778.584
45.199	13.171	1029.932	777.583
46.213	13.084	1028.941	776.354
47.228	13.267	1027.969	776.414
48.242	13.296	1027.195	775.893
49.257	13.220	1026.174	774.700
50.271	13.204	1025.616	774.133
51.286	13.425	1023.707	773.656
52.301	13.150	1023.599	772.223
53.315	13.300	1023.190	772.545
54.330	13.320	1021.493	771.291
55.344	13.185	1021.052	770.261
56.359	13.202	1019.861	769.373
57.374	13.363	1018.851	769.289
58.388	13.135	1018.099	767.596
59.403	13.186	1017.686	767.452
60.417	13.174	1016.835	766.688
61.432	13.126	1016.462	766.115
62.447	13.245	1015.079	765.556
63.461	13.064	1014.391	764.131
64.476	13.032	1013.746	763.430
65.490	13.174	1012.490	763.072
66.505	13.171	1012.234	762.799
67.520	13.197	1011.247	762.109
68.534	13.264	1010.421	761.725
69.549	13.142	1009.670	760.531
70.563	13.181	1008.864	760.036
71.578	13.062	1008.410	759.080
72.593	13.129	1007.287	758.474
73.607	13.140	1006.085	757.551
74.622	13.051	1005.642	756.742
75.636	13.031	1004.645	755.837
76.651	13.121	1003.942	755.651
77.666	13.088	1003.324	754.971
78.680	13.142	1002.483	754.518
79.695	12.966	1002.047	753.318
80.709	13.053	1001.635	753.340
81.724	13.067	1000.590	752.548
82.739	13.061	999.905	751.940
83.753	13.301	998.683	752.049
84.768	13.227	998.043	751.160
85.782	13.242	997.523	750.773
86.797	13.260	997.070	750.444
87.812	13.491	995.739	750.424
88.826	13.236	995.189	748.789
89.841	13.185	994.374	747.881
90.855	13.293	993.672	747.774
91.870	13.348	992.956	747.419
92.884	13.356	992.414	746.978
93.899	13.295	991.789	746.167
94.914	13.475	990.364	745.840
95.928	13.390	990.278	745.324
96.943	13.495	988.972	744.749
97.957	13.420	988.342	743.874
98.972	13.335	987.916	743.104
99.987	13.370	986.813	742.366
101.001	13.287	986.369	741.593
102.016	13.401	985.636	741.490
103.030	13.410	984.153	740.345
104.045	13.371	983.605	739.696
105.060	13.463	982.078	738.891
106.074	13.283	981.426	737.533
107.089	13.422	980.062	737.063
108.103	13.204	980.058	736.020
109.118	13.128	979.141	734.930
110.133	13.177	978.362	734.501
111.147	13.263	977.594	734.239
112.162	13.291	976.340	733.355
113.176	13.203	975.672	732.401
114.191	13.377	974.448	732.188
115.206	13.288	973.847	731.278
116.220	13.345	973.023	730.845
117.235	13.248	972.443	729.917
118.249	13.331	971.567	729.559
119.264	13.277	970.722	728.625
120.279	13.332	969.484	727.874
121.293	13.379	968.590	727.344
122.308	13.359	968.016	726.759
123.322	13.200	967.040	725.266
124.337	13.243	966.332	724.859
125.352	13.121	965.318	723.499
126.366	13.196	964.181	722.913
127.381	13.268	962.698	722.049
128.395	13.276	961.737	721.300
129.410	13.265	960.761	720.455
130.424	13.274	960.127	719.957
131.439	13.246	959.189	719.068
132.454	13.274	958.052	718.275
133.468	13.230	957.891	717.899
134.483	13.212	957.317	717.324
135.497	13.337	956.042	716.850
136.512	13.323	955.442	716.274
137.527	13.363	954.439	715.632
138.541	13.290	954.236	715.103
139.556	13.334	953.047	714.339
140.570	13.411	952.462	714.166
141.585	13.258	952.066	713.148
142.600	13.302	951.250	712.661
143.614	13.485	950.277	712.660
144.629	13.606	949.343	712.415
145.643	13.576	948.970	711.945
146.658	13.471	948.263	710.900
147.673	13.418	947.326	709.908
148.687	13.328	946.648	708.950
149.702	13.567	945.283	708.888
150.716	13.296	945.071	707.506
151.731	13.503	943.800	707.377
152.746	13.436	942.777	706.262
153.760	13.384	942.522	705.786
154.775	13.418	941.547	705.138
155.789	13.485	941.200	705.102
156.804	13.583	940.226	704.727
157.819	13.422	939.808	703.668
158.833	13.662	938.463	703.617
159.848	13.613	938.157	703.117
160.862	13.732	937.444	703.025
161.877	13.722	936.333	702.088
162.892	13.531	936.023	700.983
163.906	13.488	934.921	699.914
164.921	13.614	934.285	699.909
165.935	13.555	933.239	698.813
166.950	13.606	932.167	698.166
167.964	13.652	931.326	697.666
168.979	13.525	930.542	696.484
169.994	13.565	929.279	695.644
171.008	13.512	928.635	694.880
172.023	13.629	927.621	694.550
173.037	13.687	927.269	694.467
174.052	13.742	926.195	693.830
175.067	13.771	925.489	693.362
176.081	13.759	924.506	692.515
177.096	13.567	923.851	691.160
178.110	13.540	923.438	690.679
179.125	13.467	922.583	689.673
180.140	13.547	921.832	689.382
181.154	13.758	920.953	689.542
182.169	13.772	920.711	689.358
183.183	13.740	919.724	688.424
184.198	13.737	919.199	687.961
185.213	13.756	918.518	687.470
186.227	13.820	917.453	686.875
187.242	13.693	917.586	686.390
188.256	13.833	916.567	686.146
189.271	13.951	915.540	685.803
190.286	13.834	915.362	685.125
191.300	13.775	914.324	684.046
192.315	13.661	913.634	682.997
193.329	13.853	912.571	682.932
194.344	13.831	911.941	682.309
195.359	13.782	911.603	681.794
196.373	13.885	911.132	681.807
197.388	13.878	910.493	681.240
198.402	13.871	910.177	680.915
199.417	13.976	909.629	680.872
200.432	14.113	909.020	680.920
201.446	14.145	908.608	680.678
202.461	14.184	908.135	680.424
203.475	14.043	907.881	679.597
204.490	14.077	906.881	678.929
205.504	14.189	906.101	678.742
206.519	14.086	904.986	677.427
207.534	14.104	904.386	676.989
208.548	14.044	904.004	676.400
209.563	13.986	903.241	675.535
210.577	14.088	902.488	675.324
211.592	14.171	901.695	675.011
212.607	14.274	901.001	674.849
213.621	14.383	900.545	674.888
214.636	14.283	899.908	673.947
215.650	14.304	899.270	673.495
216.665	14.243	898.858	672.879
217.680	14.208	898.646	672.517
218.694	14.161	898.021	671.804
219.709	14.358	896.965	671.745
220.723	14.301	896.672	671.240
221.738	14.450	895.842	671.157
222.753	14.299	895.091	669.929
223.767	14.347	894.518	669.635
224.782	14.488	893.368	669.278
225.796	14.451	892.755	668.611
226.811	14.502	892.245	668.373
227.826	14.494	891.465	667.700
228.840	14.400	890.942	666.873
229.855	14.592	889.900	666.801
230.869	14.348	889.859	665.739
231.884	14.288	889.248	664.980
232.899	14.347	888.260	664.420
233.913	14.362	887.620	663.940
234.928	14.460	886.975	663.792
235.942	14.422	886.264	663.048
236.957	14.401	885.205	662.114
237.972	14.604	884.637	662.436
238.986	14.446	884.208	661.431
240.001	14.397	883.776	660.854
241.015	14.488	882.919	660.512
242.030	14.440	882.026	659.599
243.045	14.468	881.760	659.452
244.059	14.647	880.753	659.346
245.074	14.659	880.161	658.895
246.088	14.686	879.814	658.681
247.103	14.531	879.461	657.747
248.117	14.719	878.465	657.684
249.132	14.703	877.771	657.045
250.147	14.777	877.496	657.073
251.161	14.882	876.632	656.777
252.176	14.808	876.066	656.007
253.190	14.879	875.367	655.703
254.205	14.986	874.771	655.617
255.220	15.017	874.032	655.126
256.234	14.931	873.937	654.661
257.249	14.807	873.393	653.712
258.263	14.971	872.543	653.657
259.278	14.940	872.311	653.307
260.293	14.951	871.465	652.657
261.307	15.119	870.541	652.561
262.322	15.132	870.168	652.276
263.336	15.084	869.728	651.700
264.351	15.108	869.230	651.363
265.366	15.126	868.446	650.789
266.380	15.126	867.800	650.245
267.395	15.232	866.955	649.966
268.409	15.083	866.592	649.058
269.424	15.048	865.582	648.109
270.439	15.158	864.854	647.932
271.453	15.212	863.906	647.374
272.468	15.302	863.193	647.131
273.482	15.046	863.402	646.242
274.497	15.198	862.399	646.021
275.512	15.254	861.400	645.428
276.526	15.257	860.658	644.829
277.541	15.324	859.942	644.492
278.555	15.144	859.721	643.577
279.570	15.362	859.142	643.925
280.585	15.372	858.604	643.503
281.599	15.242	858.428	642.814
282.614	15.435	857.384	642.715
283.628	15.310	857.011	641.902
284.643	15.360	856.491	641.645
285.657	15.336	855.779	640.965
286.672	15.450	855.397	641.054
287.687	15.383	855.019	640.461
288.701	15.360	854.387	639.842
289.716	15.483	853.680	639.726
290.730	15.396	852.871	638.730
291.745	15.414	852.356	638.358
292.760	15.323	851.625	637.407
293.774	15.547	850.664	637.484
294.789	15.611	850.226	637.339
295.803	15.526	850.033	636.817
296.818	15.598	849.330	636.506
297.833	15.537	848.853	635.864
298.847	15.498	848.314	635.254
299.862	15.606	847.287	634.837
300.876	15.627	846.782	634.481
301.891	15.676	845.630	633.747
302.906	15.621	845.468	633.364
303.920	15.696	844.958	633.208
304.935	15.726	843.901	632.473
305.949	15.771	843.530	632.306
306.964	15.824	843.029	632.075
307.979	15.916	842.109	631.673
308.993	15.891	841.694	631.214
310.008	15.979	841.202	631.117
311.022	15.857	840.783	630.291
312.037	15.804	840.524	629.844
313.052	15.831	840.054	629.535
314.066	15.865	839.238	628.996
315.081	15.719	838.842	628.097
316.095	15.808	837.961	627.716
317.110	15.791	838.095	627.697
318.125	15.887	837.002	627.180
319.139	15.831	836.824	626.783
320.154	15.774	836.409	626.203
321.168	15.905	835.381	625.864
322.183	15.780	835.516	625.446
323.197	15.996	834.570	625.485
324.212	15.918	834.150	624.824
325.227	15.975	833.412	624.427
326.241	16.006	833.010	624.186
327.256	15.925	832.704	623.601
328.270	16.003	831.858	623.203
329.285	15.807	831.478	622.137
330.300	16.099	830.580	622.489
331.314	16.097	830.037	622.019
332.329	15.975	829.491	621.106
333.343	16.049	828.948	620.916
334.358	16.216	828.026	620.787
335.373	16.073	827.920	620.125
336.387	16.041	827.175	619.395
337.402	16.085	826.725	619.163
338.416	16.254	825.894	619.107
339.431	16.047	825.794	618.219
340.446	16.249	824.791	618.152
341.460	16.200	824.448	617.662
342.475	16.292	824.072	617.661
343.489	16.305	823.584	617.288
344.504	16.412	822.736	616.990
345.519	16.546	822.183	617.011
346.533	16.386	822.033	616.259
347.548	16.478	821.292	615.982
348.562	16.353	820.608	614.962
349.577	16.414	820.249	614.858
350.592	16.223	820.017	613.936
351.606	16.337	819.334	613.785
352.621	16.205	818.972	612.981
353.635	16.244	818.877	612.996
354.650	16.155	818.433	612.286
355.665	16.451	817.563	612.656
356.679	16.505	816.967	612.352
357.694	16.595	816.140	612.001
358.708	16.467	816.147	611.490
359.723	16.486	815.265	610.845
360.738	16.444	814.935	610.391
361.752	16.663	814.062	610.472
362.767	16.488	814.135	609.840
363.781	16.609	813.728	609.917
364.796	16.587	813.152	609.356
365.810	16.743	812.396	609.296
366.825	16.558	812.617	608.740
367.840	16.779	811.794	608.865
368.854	16.626	811.539	608.070
369.869	16.720	811.005	607.954
370.883	16.790	810.447	607.733
371.898	16.782	809.974	607.297
372.913	16.674	809.640	606.605
373.927	16.722	808.697	606.018
374.942	16.662	808.660	605.720
375.956	16.871	807.734	605.720
376.971	16.865	807.020	605.109
377.986	16.974	806.463	605.028
379.000	16.961	806.011	604.589
380.015	16.821	805.927	603.972
381.029	17.000	805.286	604.077
382.044	16.949	804.652	603.367
383.059	17.006	803.976	603.009
384.073	16.957	803.583	602.485
385.088	16.880	803.306	601.949
386.102	16.818	802.808	601.305
387.117	16.951	802.163	601.241
388.132	16.928	801.475	600.591
389.146	16.950	801.126	600.352
390.161	16.904	800.822	599.909
391.175	16.928	800.536	599.725
392.190	17.077	799.671	599.550
393.205	17.239	799.116	599.654
394.219	16.990	799.305	598.864
395.234	17.114	798.206	598.426
396.248	17.050	798.034	598.018
397.263	16.970	797.323	597.152
398.278	17.133	796.919	597.367
399.292	17.027	796.739	596.807
400.307	16.914	796.417	596.118
401.321	17.110	795.709	596.223
402.336	17.130	795.411	596.017
403.350	17.110	795.442	595.915
404.365	17.119	794.537	595.216
405.380	17.168	794.076	594.993
406.394	17.183	793.485	594.549
407.409	17.347	792.975	594.687
408.423	17.377	792.745	594.567
409.438	17.332	792.178	593.931
410.453	17.305	791.940	593.605
411.467	17.420	791.369	593.528
412.482	17.464	790.938	593.306
413.496	17.504	790.288	592.904
414.511	17.440	790.168	592.538
415.526	17.525	789.554	592.321
416.540	17.574	789.273	592.229
417.555	17.499	788.732	591.510
418.569	17.496	788.287	591.114
419.584	17.654	787.776	591.226
420.599	17.605	787.622	590.889
421.613	113.929	1296.818	1487.553
422.628	97.885	1370.950	1487.657
