DTS Sentinel unit serial number:	SN413079Multiplexer serial number:	ORYXHardware model number:	OX4-SRSoftware version number:	ORYX F/W v4.00 Oryx Data Collector v3.7.2.0data status	okinstallation	princeton_trtdifferential loss correction	single-endedforward channel	channel 3reverse channel	N/Adate	2019/09/12time	20:09:04forward acquisition time	15.00reverse acquisition time	0.00gamma	496.2192k internal	0.2324k external	0.2324temperature offset calibration	1.0119default loss term (dB/km)	0.3790temperature slope calibration	1.0000multiplexer offset coefficient	1.0000multiplexer slope coefficient	1.0000fibre end	0.00T internal ref (°C)	31.62T ext. ref 1 (°C)	3.45T ext. ref 2 (°C)	26.23length (m)	temperature (°C)	Stokes	anti-Stokes-747.200	19.986	0.413	-0.336
-746.185	-54.708	0.623	-0.284
-745.171	-200.000	-0.045	-0.635
-744.156	-50.432	-0.594	0.283
-743.142	-119.321	0.685	-0.120
-742.127	35.997	-0.406	0.361
-741.112	-33.982	0.507	-0.282
-740.098	-163.153	-0.585	0.028
-739.083	609.103	-0.270	0.680
-738.069	-200.000	0.110	-0.793
-737.054	-200.000	0.026	-0.332
-736.039	30.100	0.451	-0.389
-735.025	119.535	0.542	-0.677
-734.010	800.000	0.088	0.353
-732.996	277.286	-0.124	0.222
-731.981	231.794	-0.233	0.385
-730.966	-51.733	0.497	-0.234
-729.952	125.566	-0.489	0.623
-728.937	-200.000	0.056	-0.594
-727.923	6.806	0.454	-0.341
-726.908	-14.546	-0.863	-0.560
-725.894	600.601	0.446	1.117
-724.879	-122.789	-0.653	-0.106
-723.864	800.000	-0.168	-0.627
-722.850	-127.807	0.107	-0.016
-721.835	-161.735	-0.804	0.041
-720.821	-200.000	0.010	-0.193
-719.806	94.396	0.211	-0.242
-718.791	56.015	-0.264	0.258
-717.777	800.000	0.116	-0.325
-716.762	800.000	0.083	0.301
-715.748	144.384	0.324	0.437
-714.733	276.312	0.034	0.061
-713.718	-39.463	-0.467	0.247
-712.704	800.000	-0.126	0.357
-711.689	19.668	-0.517	0.420
-710.675	696.446	-0.385	-1.019
-709.660	-35.652	-0.286	-0.156
-708.645	-76.623	-0.265	0.094
-707.631	-41.553	-0.239	-0.124
-706.616	694.847	-0.221	-0.584
-705.602	-200.000	0.080	-0.674
-704.587	-90.682	0.351	0.102
-703.572	272.644	0.176	-0.313
-702.558	-60.200	0.248	-0.107
-701.543	-200.000	-0.019	0.216
-700.529	138.757	0.339	-0.448
-699.514	-7.446	0.606	0.414
-698.499	71.711	0.287	-0.301
-697.485	-200.000	-0.018	-0.311
-696.470	-200.000	-0.062	-0.394
-695.456	-133.211	0.442	-0.056
-694.441	84.258	0.298	0.328
-693.426	52.547	-0.243	-0.234
-692.412	-57.743	0.542	-0.239
-691.397	800.000	-0.155	-0.541
-690.383	-169.196	0.429	-0.016
-689.368	-200.000	-0.041	0.194
-688.354	212.855	0.227	-0.361
-687.339	-93.713	-0.486	0.135
-686.324	-200.000	-0.100	0.723
-685.310	-105.713	0.585	-0.133
-684.295	-200.000	0.021	0.888
-683.281	258.900	0.321	-0.557
-682.266	125.188	0.247	0.314
-681.251	-155.873	0.452	-0.029
-680.237	150.155	-0.301	0.412
-679.222	31.648	0.265	0.230
-678.208	-200.000	0.126	0.891
-677.193	-112.339	-0.494	0.100
-676.178	-9.569	0.440	-0.295
-675.164	17.237	0.103	-0.082
-674.149	800.000	-0.091	0.261
-673.135	332.259	-0.221	0.429
-672.120	800.000	-0.202	-0.633
-671.105	-200.000	-0.105	-0.632
-670.091	658.334	0.350	-0.907
-669.076	800.000	0.203	-0.807
-668.062	-44.912	-0.753	-0.378
-667.047	-151.728	-0.174	-0.013
-666.032	111.842	-0.196	-0.239
-665.018	737.681	0.186	0.501
-664.003	800.000	-0.299	-0.882
-662.989	-200.000	-0.041	0.183
-661.974	-114.197	-0.962	-0.187
-660.959	87.280	-0.616	0.686
-659.945	-25.698	0.477	0.283
-658.930	124.372	0.206	0.260
-657.916	-120.626	0.152	0.026
-656.901	-97.705	-0.133	0.035
-655.886	217.341	0.188	0.301
-654.872	3.224	0.477	0.349
-653.857	800.000	-0.071	-0.251
-652.843	800.000	0.122	0.477
-651.828	276.205	-0.086	-0.154
-650.814	800.000	-0.255	-0.709
-649.799	68.511	0.291	-0.300
-648.784	-200.000	0.102	-0.939
-647.770	-69.174	-0.187	-0.072
-646.755	-133.246	0.347	0.044
-645.741	11.703	-0.372	0.287
-644.726	-146.886	-0.410	-0.035
-643.711	787.294	-0.041	0.113
-642.697	-60.228	-0.512	-0.219
-641.682	-200.000	0.071	-0.509
-640.668	-200.000	0.208	-1.143
-639.653	328.272	-0.197	0.381
-638.638	800.000	-0.024	0.073
-637.624	233.312	0.291	-0.481
-636.609	-99.342	-0.694	0.176
-635.595	-163.431	0.383	-0.018
-634.580	-200.000	-0.113	0.646
-633.565	108.529	-0.322	0.386
-632.551	575.044	0.190	-0.466
-631.536	32.981	0.147	-0.128
-630.522	-149.543	-0.435	-0.035
-629.507	586.798	-0.302	-0.748
-628.492	-109.769	-1.248	0.264
-627.478	-133.102	0.384	0.049
-626.463	187.572	-0.419	-0.628
-625.449	26.894	0.641	-0.540
-624.434	-200.000	-0.092	0.488
-623.419	-200.000	-0.044	0.881
-622.405	26.050	0.422	0.354
-621.390	-0.274	-0.490	-0.350
-620.376	-20.555	-0.378	0.234
-619.361	68.297	-0.447	0.461
-618.346	-142.583	0.451	0.044
-617.332	10.586	-0.169	-0.129
-616.317	400.512	-0.236	0.497
-615.303	-140.010	0.206	0.022
-614.288	-28.772	0.676	0.391
-613.273	-122.883	-0.564	0.091
-612.259	-35.419	0.277	0.151
-611.244	111.734	0.107	0.130
-610.230	-106.071	-0.604	-0.136
-609.215	132.275	0.269	-0.348
-608.201	415.557	-0.100	0.214
-607.186	329.225	0.189	0.364
-606.171	-200.000	-0.113	-0.753
-605.157	-200.000	-0.015	0.149
-604.142	-7.346	-0.285	0.194
-603.128	-144.282	0.476	0.045
-602.113	-200.000	0.069	-0.364
-601.098	-23.734	-0.497	-0.299
-600.084	23.968	0.482	0.399
-599.069	-103.454	-0.536	-0.127
-598.055	80.797	-0.668	-0.723
-597.040	22.819	-0.122	-0.101
-596.025	-23.152	-0.778	-0.470
-595.011	-142.953	-0.601	-0.059
-593.996	-7.228	-0.330	0.224
-592.982	43.111	0.248	-0.227
-591.967	393.212	-0.275	-0.574
-590.952	-103.336	0.536	-0.127
-589.938	-200.000	0.757	-0.003
-588.923	95.464	0.321	-0.368
-587.909	800.000	0.156	-0.500
-586.894	-5.245	-0.402	-0.277
-585.879	230.748	0.290	-0.477
-584.865	82.604	-0.122	-0.133
-583.850	800.000	-0.210	-0.694
-582.836	-68.834	-0.335	-0.130
-581.821	4.927	-0.194	0.143
-580.806	-200.000	0.047	-0.362
-579.792	-53.196	-0.296	0.136
-578.777	316.130	0.030	0.056
-577.763	-67.018	-0.277	0.110
-576.748	71.448	-0.221	-0.230
-575.733	-133.824	-0.818	0.102
-574.719	800.000	-0.026	-0.103
-573.704	-200.000	-0.072	0.672
-572.690	-200.000	0.125	0.558
-571.675	-63.465	0.644	0.266
-570.661	-109.637	0.515	-0.109
-569.646	-41.593	-0.574	-0.296
-568.631	154.926	0.651	0.898
-567.617	121.273	-0.209	0.261
-566.602	185.290	-0.494	-0.736
-565.588	83.315	0.361	-0.395
-564.573	-104.743	0.741	-0.171
-563.558	-200.000	0.032	0.150
-562.544	-200.000	0.047	0.424
-561.529	9.740	-0.560	0.426
-560.515	-78.696	0.684	0.234
-559.500	-54.186	0.179	-0.081
-558.485	800.000	0.199	0.591
-557.471	363.407	-0.373	0.751
-556.456	11.461	-0.054	0.042
-555.442	80.273	-0.080	0.086
-554.427	-160.179	0.359	0.020
-553.412	-55.057	-0.818	0.369
-552.398	-48.342	0.494	-0.238
-551.383	360.825	-0.174	0.349
-550.369	-174.952	-0.812	-0.023
-549.354	139.309	0.311	-0.410
-548.339	800.000	-0.308	0.887
-547.325	117.689	-0.084	0.104
-546.310	352.669	-0.252	-0.500
-545.296	-113.451	0.467	-0.092
-544.281	285.654	-0.065	-0.117
-543.266	319.453	0.563	-1.070
-542.252	-200.000	0.034	-0.438
-541.237	225.469	-0.245	0.398
-540.223	-51.365	-0.570	0.267
-539.208	44.132	-0.297	-0.273
-538.193	-132.302	-0.504	-0.065
-537.179	342.770	-0.143	0.281
-536.164	-147.458	0.423	-0.036
-535.150	-100.659	1.175	0.290
-534.135	800.000	0.362	1.395
-533.121	47.425	0.434	-0.405
-532.106	-142.545	-0.525	0.052
-531.091	-200.000	-0.118	-0.591
-530.077	-78.983	0.737	-0.251
-529.062	61.393	-0.158	0.157
-528.048	-200.000	-0.052	-0.788
-527.033	-19.915	0.940	-0.581
-526.018	797.138	-0.261	-0.719
-525.004	-62.198	-0.278	-0.116
-523.989	800.000	0.104	-0.371
-522.975	-102.539	0.904	0.216
-521.960	372.106	-0.439	-0.892
-520.945	800.000	-0.086	0.288
-519.931	155.088	0.148	0.203
-518.916	171.012	0.252	-0.362
-517.902	-200.000	-0.098	0.469
-516.887	-200.000	0.021	-0.368
-515.872	152.701	-0.212	0.290
-514.858	252.497	0.154	0.263
-513.843	-200.000	0.080	0.504
-512.829	-44.688	0.387	0.193
-511.814	-138.077	0.110	0.012
-510.799	79.888	-0.783	-0.842
-509.785	122.013	0.091	-0.113
-508.770	-200.000	-0.061	0.456
-507.756	-25.082	0.571	0.339
-506.741	570.387	-0.097	0.236
-505.726	-120.658	-0.535	-0.091
-504.712	152.277	0.474	-0.647
-503.697	41.925	0.380	-0.345
-502.683	328.471	0.314	-0.603
-501.668	688.289	-0.082	0.214
-500.653	-134.845	-0.708	0.086
-499.639	-200.000	-0.030	-0.906
-498.624	800.000	0.215	0.643
-497.610	800.000	0.210	0.835
-496.595	467.544	-0.304	0.682
-495.581	-154.172	0.105	-0.007
-494.566	13.163	0.848	-0.656
-493.551	-200.000	-0.001	-0.094
-492.537	-200.000	-0.047	-0.964
-491.522	59.154	0.200	-0.196
-490.508	226.212	-0.418	0.678
-489.493	7.038	-0.963	0.718
-488.478	-172.169	1.300	-0.042
-487.464	-56.854	-0.675	-0.298
-486.449	-5.768	0.177	0.121
-485.435	25.307	0.301	-0.250
-484.420	-181.181	-0.608	-0.012
-483.405	-129.474	0.044	0.006
-482.391	-200.000	0.005	0.552
-481.376	261.246	0.073	-0.126
-480.362	67.953	0.715	-0.731
-479.347	103.390	-0.094	0.110
-478.332	-200.000	0.016	0.534
-477.318	74.282	-0.089	0.094
-476.303	800.000	-0.096	0.415
-475.289	-200.000	0.132	0.596
-474.274	800.000	-0.133	-0.464
-473.259	628.125	0.085	-0.213
-472.245	-54.327	-0.040	-0.018
-471.230	174.364	0.071	-0.102
-470.216	160.086	0.115	-0.159
-469.201	70.348	-0.421	0.435
-468.186	-157.314	0.359	0.022
-467.172	-200.000	0.027	0.152
-466.157	41.204	0.162	0.146
-465.143	-48.314	0.555	0.267
-464.128	-171.142	-1.159	-0.039
-463.113	-84.191	0.103	0.033
-462.099	20.084	-0.434	0.350
-461.084	-90.532	0.553	0.160
-460.070	89.526	-0.408	0.454
-459.055	-200.000	-0.009	0.382
-458.040	301.668	-0.374	0.689
-457.026	-153.295	0.618	-0.043
-456.011	214.854	0.325	-0.515
-454.997	-71.772	0.406	-0.151
-453.982	-200.000	-0.042	-0.419
-452.968	-20.042	0.176	0.108
-451.953	800.000	0.104	-0.309
-450.938	-108.438	0.391	0.084
-449.924	7.722	0.250	-0.187
-448.909	800.000	-0.216	0.820
-447.895	-16.243	-0.464	0.294
-446.880	352.175	0.412	-0.814
-445.865	800.000	0.154	0.557
-444.851	608.145	-0.159	-0.395
-443.836	-134.572	0.629	-0.077
-442.822	-16.474	-0.848	-0.536
-441.807	800.000	0.173	0.545
-440.792	800.000	0.119	0.473
-439.778	-200.000	-0.035	0.299
-438.763	237.200	0.382	-0.632
-437.749	316.164	0.312	0.588
-436.734	-3.711	0.209	0.145
-435.719	800.000	-0.041	-0.114
-434.705	-29.630	-0.420	-0.239
-433.690	-200.000	-0.078	-0.550
-432.676	-171.834	-0.866	-0.028
-431.661	-25.191	0.655	-0.387
-430.646	800.000	0.120	0.409
-429.632	109.014	-0.360	0.429
-428.617	-23.508	0.646	-0.387
-427.603	471.326	-0.143	0.321
-426.588	421.047	-0.216	-0.462
-425.573	29.199	0.198	-0.168
-424.559	-111.665	0.539	-0.109
-423.544	800.000	-0.053	0.189
-422.530	-71.184	-0.273	-0.102
-421.515	800.000	0.209	0.747
-420.500	448.773	-0.225	-0.494
-419.486	410.803	0.380	-0.803
-418.471	-58.962	-0.092	-0.039
-417.457	-200.000	-0.009	-0.538
-416.442	96.847	0.258	0.295
-415.428	19.242	0.479	0.384
-414.413	-134.140	1.106	0.136
-413.398	-200.000	-0.050	0.337
-412.384	-58.425	0.557	-0.241
-411.369	298.365	0.438	0.802
-410.355	-70.085	0.438	-0.166
-409.340	3.242	-0.349	0.253
-408.325	29.762	-0.565	-0.479
-407.311	-44.089	-0.802	0.401
-406.296	-111.042	-0.124	0.025
-405.282	-72.856	0.646	-0.237
-404.267	48.608	0.609	0.568
-403.252	-200.000	0.056	-0.534
-402.238	800.000	0.233	-0.857
-401.223	-151.175	0.186	-0.014
-400.209	57.054	-0.336	-0.327
-399.194	-114.226	-0.214	-0.041
-398.179	100.529	-0.196	0.227
-397.165	-34.738	-0.766	-0.417
-396.150	-200.000	-0.139	-1.167
-395.136	33.670	-0.299	0.259
-394.121	-196.392	0.709	0.005
-393.106	493.311	0.215	0.492
-392.092	244.461	-0.290	0.484
-391.077	-4.898	-0.098	-0.067
-390.063	331.147	0.034	0.065
-389.048	102.949	-0.350	-0.408
-388.033	-181.134	-0.503	-0.010
-387.019	-60.583	0.738	0.312
-386.004	-113.788	-0.390	-0.076
-384.990	97.470	-0.681	0.778
-383.975	-200.000	0.039	0.323
-382.960	109.380	0.277	-0.331
-381.946	-11.348	-0.799	-0.524
-380.931	220.922	0.039	0.063
-379.917	-200.000	-0.003	-0.043
-378.902	-114.376	0.791	-0.152
-377.888	-142.936	0.454	0.044
-376.873	97.266	-0.124	-0.142
-375.858	11.763	0.403	0.308
-374.844	-115.329	0.193	0.036
-373.829	-200.000	0.050	0.643
-372.815	20.307	-0.335	-0.269
-371.800	230.284	0.131	0.213
-370.785	-99.418	-0.549	-0.138
-369.771	71.874	-0.374	0.387
-368.756	-200.000	-0.030	0.681
-367.742	800.000	-0.051	-0.167
-366.727	-14.693	-0.234	0.150
-365.712	-95.860	0.371	0.099
-364.698	-99.113	0.350	0.088
-363.683	273.874	0.180	-0.316
-362.669	-19.926	0.353	0.217
-361.654	29.902	0.373	0.316
-360.639	-29.660	0.582	0.331
-359.625	76.759	0.195	0.206
-358.610	2.733	0.233	0.168
-357.596	91.373	-0.625	0.698
-356.581	-187.052	0.467	0.006
-355.566	-22.686	0.033	-0.020
-354.552	-49.413	-0.451	-0.214
-353.537	-200.000	0.089	0.542
-352.523	34.513	-0.660	0.573
-351.508	800.000	-0.061	-0.219
-350.493	15.008	0.469	-0.365
-349.479	-200.000	0.059	0.321
-348.464	-143.625	1.045	-0.099
-347.450	79.419	0.201	-0.214
-346.435	554.059	-0.142	0.340
-345.420	-0.100	-0.080	0.057
-344.406	-63.270	0.375	0.154
-343.391	-74.126	0.561	0.202
-342.377	643.100	0.068	-0.173
-341.362	15.159	-0.282	0.219
-340.348	154.498	-0.145	0.198
-339.333	44.173	-0.712	0.649
-338.318	-112.905	-0.142	-0.028
-337.304	150.331	-0.132	0.178
-336.289	177.636	-0.594	-0.861
-335.275	-66.710	-0.358	0.141
-334.260	800.000	-0.122	0.418
-333.245	-104.654	-0.705	-0.161
-332.231	-127.127	1.181	0.172
-331.216	-165.165	-0.331	-0.015
-330.202	75.156	-0.553	-0.579
-329.187	800.000	-0.133	0.373
-328.172	-7.993	-0.199	0.134
-327.158	170.421	-0.230	0.327
-326.143	-66.325	-0.730	0.288
-325.129	-73.702	-0.657	-0.237
-324.114	119.485	0.107	0.131
-323.099	475.417	-0.167	0.376
-322.085	-20.075	0.440	0.269
-321.070	800.000	-0.033	-0.140
-320.056	258.542	0.297	0.508
-319.041	419.300	0.100	-0.212
-318.026	560.284	0.227	-0.545
-317.012	709.054	-0.176	0.461
-315.997	-91.107	0.950	0.271
-314.983	-110.139	0.479	-0.099
-313.968	-200.000	-0.016	-1.011
-312.953	-200.000	0.008	0.219
-311.939	-91.420	0.168	-0.048
-310.924	-86.283	0.966	0.295
-309.910	233.521	0.214	-0.350
-308.895	-127.285	-0.309	-0.045
-307.880	257.646	0.270	-0.461
-306.866	-57.018	1.015	-0.444
-305.851	-200.000	0.004	0.031
-304.837	100.623	0.350	-0.403
-303.822	-8.096	0.508	0.339
-302.807	-143.367	0.437	-0.041
-301.793	-178.360	-0.113	-0.003
-300.778	273.088	0.270	0.472
-299.764	-82.222	0.355	0.115
-298.749	-83.078	0.710	0.227
-297.735	99.695	0.234	-0.269
-296.720	45.694	0.258	0.237
-295.705	-200.000	0.073	-0.755
-294.691	-72.885	-0.648	-0.236
-293.676	-111.748	0.411	0.083
-292.662	-200.000	0.081	-0.767
-291.647	-6.804	-0.516	0.348
-290.632	132.723	0.512	-0.655
-289.618	-200.000	-0.037	-0.578
-288.603	-8.441	0.222	-0.148
-287.589	-153.593	-0.290	0.020
-286.574	66.981	-0.149	0.150
-285.559	-101.179	-1.194	0.290
-284.545	-7.958	0.855	-0.572
-283.530	-138.366	-0.176	-0.019
-282.516	-97.625	-0.798	-0.205
-281.501	215.492	-0.165	-0.260
-280.486	324.203	-0.046	0.087
-279.472	-200.000	-0.073	0.602
-278.457	461.313	0.435	0.962
-277.443	-200.000	0.169	-0.813
-276.428	-91.684	-0.527	-0.149
-275.413	43.983	0.429	0.389
-274.399	-200.000	-0.014	-0.445
-273.384	-128.512	-0.518	-0.073
-272.370	-79.765	-0.411	-0.137
-271.355	800.000	0.151	0.511
-270.340	86.969	0.599	0.656
-269.326	-40.342	0.549	0.283
-268.311	340.360	0.255	-0.493
-267.297	-68.250	-0.637	0.245
-266.282	638.802	0.140	0.352
-265.267	229.666	-0.241	-0.390
-264.253	361.487	0.152	0.301
-263.238	64.192	-0.428	0.426
-262.224	48.796	0.120	0.112
-261.209	406.876	-0.395	0.826
-260.195	45.582	0.123	0.113
-259.180	-200.000	0.063	-0.656
-258.165	800.000	-0.090	-0.297
-257.151	-54.895	1.040	0.465
-256.136	315.296	-0.370	0.691
-255.122	-146.953	-0.182	0.016
-254.107	-140.147	-0.821	0.085
-253.092	-119.062	0.836	-0.145
-252.078	-91.310	-0.692	-0.196
-251.063	24.707	0.156	-0.128
-250.049	150.870	-0.403	-0.543
-249.034	-200.000	0.094	0.534
-248.019	-105.460	-0.228	0.051
-247.005	-70.970	0.785	-0.293
-245.990	358.135	-0.267	-0.527
-244.976	222.406	0.238	-0.379
-243.961	41.689	-0.668	-0.599
-242.946	264.273	0.387	-0.667
-241.932	-16.924	0.600	0.375
-240.917	-94.823	-0.740	-0.199
-239.903	800.000	-0.241	0.837
-238.888	601.372	0.064	0.157
-237.873	-95.291	-0.583	0.155
-236.859	-133.517	0.822	-0.102
-235.844	-200.000	-0.099	-0.807
-234.830	102.940	-0.347	-0.403
-233.815	-39.302	-0.428	-0.222
-232.800	-9.660	-0.464	-0.306
-231.786	21.492	0.441	0.355
-230.771	-200.000	0.009	-0.501
-229.757	92.887	-0.320	0.358
-228.742	-200.000	0.052	0.498
-227.727	209.010	0.263	-0.408
-226.713	-200.000	0.014	-0.369
-225.698	-22.976	-0.504	-0.300
-224.684	800.000	-0.071	-0.238
-223.669	17.843	0.330	-0.260
-222.655	51.668	-0.442	-0.416
-221.640	104.750	0.720	-0.840
-220.625	800.000	0.158	0.437
-219.611	-48.501	0.569	0.271
-218.596	-20.361	0.274	0.167
-217.582	-200.000	-0.150	-0.681
-216.567	-200.000	0.109	1.058
-215.552	-17.355	0.921	-0.574
-214.538	444.972	-0.215	0.466
-213.523	-27.674	0.486	-0.279
-212.509	185.777	-0.232	-0.341
-211.494	-200.000	-0.090	0.457
-210.479	277.764	-0.259	-0.456
-209.465	-112.860	0.155	0.030
-208.450	366.328	0.281	0.560
-207.436	-175.324	0.879	0.024
-206.421	653.568	-0.427	-1.083
-205.406	-86.739	0.710	-0.215
-204.392	-200.000	0.041	-0.302
-203.377	-34.775	0.568	0.307
-202.363	-41.962	0.202	0.102
-201.348	66.696	0.156	0.157
-200.333	51.100	0.284	0.266
-199.319	200.568	0.401	0.609
-198.304	-113.337	0.354	0.069
-197.290	752.866	-0.205	0.547
-196.275	-64.152	0.284	-0.114
-195.260	-200.000	0.114	0.885
-194.246	800.000	0.363	1.122
-193.231	685.687	-0.113	-0.292
-192.217	-200.000	0.087	0.404
-191.202	-135.090	-0.898	0.107
-190.187	-148.913	0.382	-0.030
-189.173	134.909	-0.389	-0.500
-188.158	322.928	-0.180	-0.339
-187.144	-122.315	-0.268	0.043
-186.129	-117.479	-0.283	-0.050
-185.114	800.000	0.125	-0.492
-184.100	47.807	0.184	-0.169
-183.085	49.026	1.027	0.953
-182.071	-37.556	-0.509	0.268
-181.056	195.612	-0.256	-0.384
-180.042	-200.000	-0.025	0.600
-179.027	175.529	-0.362	0.518
-178.012	645.008	0.118	0.297
-176.998	779.363	-0.089	0.241
-175.983	-65.673	-0.498	-0.197
-174.969	800.000	0.013	0.052
-173.954	-138.572	-0.655	-0.071
-172.939	-14.654	-0.314	-0.199
-171.925	14.171	0.119	0.091
-170.910	-46.949	-0.457	0.220
-169.896	-138.453	1.111	-0.121
-168.881	-200.000	0.038	-0.646
-167.866	-35.952	-1.228	-0.656
-166.852	-41.920	-0.781	-0.395
-165.837	800.000	-0.136	-0.498
-164.823	-114.249	-1.138	0.217
-163.808	63.338	-0.556	0.550
-162.793	-68.002	-0.184	-0.071
-161.779	-85.841	-0.192	0.059
-160.764	34.042	-0.105	-0.091
-159.750	-41.457	0.561	-0.285
-158.735	-153.412	-1.005	-0.069
-157.720	-151.440	-0.517	-0.038
-156.706	37.382	-0.112	-0.098
-155.691	-56.025	-0.364	0.160
-154.677	-28.017	-0.632	0.361
-153.662	128.267	-0.403	0.506
-152.647	800.000	-0.170	0.593
-151.633	3.454	-0.527	-0.379
-150.618	13.333	0.474	0.363
-149.604	161.302	-0.475	0.655
-148.589	30.191	0.550	0.463
-147.574	510.073	-0.396	-0.909
-146.560	-153.364	-0.249	0.017
-145.545	-138.536	0.488	0.053
-144.531	-69.094	0.197	0.075
-143.516	-62.072	0.744	0.306
-142.502	256.399	0.384	-0.650
-141.487	-11.368	-0.926	-0.601
-140.472	-200.000	0.112	-0.811
-139.458	-200.000	0.080	-0.413
-138.443	-117.026	0.815	-0.147
-137.429	-69.272	0.436	0.165
-136.414	800.000	-0.124	-0.406
-135.399	-81.872	-0.448	-0.145
-134.385	719.567	0.326	0.854
-133.370	515.328	-0.162	0.374
-132.356	-17.838	0.726	0.449
-131.341	61.419	0.433	0.424
-130.326	-0.972	-0.659	-0.460
-129.312	88.279	0.612	-0.669
-128.297	657.958	-0.194	-0.492
-127.283	-200.000	-0.037	-0.971
-126.268	206.865	-0.276	0.424
-125.253	-200.000	-0.062	0.405
-124.239	-83.191	-0.823	0.261
-123.224	-55.789	-0.760	0.335
-122.210	-107.220	0.132	0.029
-121.195	-167.605	0.714	0.028
-120.180	-29.924	0.234	0.131
-119.166	131.041	0.440	-0.557
-118.151	-200.000	-0.038	0.227
-117.137	-132.167	-0.359	0.046
-116.122	-148.657	0.075	0.006
-115.107	44.184	0.326	-0.295
-114.093	-45.383	0.427	0.209
-113.078	97.196	0.585	0.661
-112.064	732.140	-0.171	-0.452
-111.049	103.746	0.448	-0.518
-110.034	25.009	-0.521	-0.426
-109.020	115.229	-0.243	-0.292
-108.005	-23.003	0.599	-0.355
-106.991	-11.040	-0.551	-0.358
-105.976	800.000	-0.223	0.911
-104.962	67.658	-0.324	-0.326
-103.947	128.161	0.658	-0.825
-102.932	800.000	0.189	0.689
-101.918	14.717	0.262	-0.202
-100.903	173.327	0.201	-0.286
-99.889	46.442	-0.175	-0.160
-98.874	-107.805	0.215	0.046
-97.859	-88.090	-1.051	-0.310
-96.845	-165.519	0.847	0.036
-95.830	56.513	-0.582	-0.557
-94.816	540.083	0.356	0.835
-93.801	-58.144	-0.949	-0.407
-92.786	562.822	0.324	0.773
-91.772	-2.189	0.160	0.110
-90.757	32.668	0.186	-0.158
-89.743	15.604	-0.640	-0.495
-88.728	108.020	0.158	-0.185
-87.713	592.476	-0.297	-0.721
-86.699	800.000	0.194	-0.758
-85.684	-62.949	0.222	0.090
-84.670	-200.000	0.053	0.611
-83.655	-95.752	0.471	0.124
-82.640	-200.000	-0.022	-0.347
-81.626	-180.770	0.554	-0.011
-80.611	158.459	-0.409	-0.559
-79.597	184.471	-0.224	-0.327
-78.582	800.000	0.154	0.608
-77.567	-179.558	-0.463	0.010
-76.553	-200.000	-0.045	0.363
-75.538	-87.188	-0.601	0.180
-74.524	-200.000	-0.033	-0.556
-73.509	20.862	0.568	-0.453
-72.494	279.067	-0.298	0.523
-71.480	145.308	-0.202	0.266
-70.465	6.842	-0.495	0.362
-69.451	-200.000	-0.085	0.524
-68.436	0.288	0.436	-0.306
-67.422	420.148	0.114	-0.241
-66.407	453.380	-0.167	0.362
-65.392	-200.000	-0.302	1.339
-64.378	60.546	0.430	0.419
-63.363	-46.942	-0.662	0.318
-62.349	50.105	0.138	0.128
-61.334	-105.022	-1.413	-0.318
-60.319	122.561	0.336	0.414
-59.305	-200.000	0.191	-1.091
-58.290	525.893	0.560	1.296
-57.276	255.782	1.129	1.902
-56.261	-200.000	99.649	607.721
-55.246	618.020	1379.144	3403.164
-54.232	199.406	2549.057	3840.753
-53.217	117.271	2140.752	2586.104
-52.203	42.376	1686.727	1506.902
-51.188	34.809	1499.709	1288.989
-50.173	32.529	1474.905	1252.475
-49.159	52.809	1528.118	1435.512
-48.144	53.754	1545.359	1458.054
-47.130	34.796	1504.189	1292.543
-46.115	31.769	1488.646	1258.837
-45.100	31.811	1485.352	1256.286
-44.086	31.928	1482.268	1254.408
-43.071	31.568	1480.582	1250.524
-42.057	31.731	1478.663	1249.946
-41.042	31.703	1478.579	1249.639
-40.027	31.696	1476.772	1248.010
-39.013	31.809	1475.384	1247.543
-37.998	31.508	1474.053	1244.366
-36.984	31.685	1472.466	1244.154
-35.969	31.600	1470.980	1242.286
-34.954	31.629	1469.972	1241.572
-33.940	31.533	1469.096	1240.148
-32.925	31.677	1467.941	1240.079
-31.911	31.808	1465.250	1238.621
-30.896	31.652	1464.833	1237.193
-29.881	31.759	1463.519	1236.739
-28.867	31.647	1461.749	1234.452
-27.852	31.578	1461.682	1233.893
-26.838	31.859	1458.419	1232.937
-25.823	31.442	1458.515	1230.227
-24.809	31.765	1456.234	1230.380
-23.794	31.523	1455.434	1228.061
-22.779	31.625	1453.796	1227.304
-21.765	31.767	1451.738	1226.446
-20.750	31.753	1451.426	1226.044
-19.736	31.557	1450.285	1223.750
-18.721	31.668	1448.383	1222.816
-17.706	31.658	1446.832	1221.397
-16.692	31.677	1446.949	1221.566
-15.677	31.454	1446.165	1219.407
-14.663	31.612	1444.879	1219.305
-13.648	31.653	1443.895	1218.692
-12.633	31.766	1442.769	1218.426
-11.619	31.505	1443.594	1217.374
-10.604	31.759	1440.918	1216.721
-9.590	31.457	1440.901	1214.696
-8.575	31.590	1439.567	1214.384
-7.560	31.554	1438.949	1213.581
-6.546	31.466	1437.950	1212.125
-5.531	31.496	1437.397	1211.802
-4.517	31.663	1436.195	1211.821
-3.502	31.442	1435.183	1209.492
-2.487	31.590	1433.755	1209.199
-1.473	31.671	1433.084	1209.106
-0.458	31.545	1432.168	1207.473
0.556	32.995	1423.159	1196.752
1.571	29.878	1398.289	1156.291
2.586	26.318	1338.213	1085.184
3.600	24.534	1258.525	1010.388
4.615	22.891	1214.028	965.606
5.629	20.055	1157.604	905.840
6.644	11.586	1073.118	798.434
7.659	4.516	1033.551	735.551
8.673	3.686	1028.169	727.748
9.688	3.592	1024.016	724.304
10.702	3.352	1023.485	722.738
11.717	3.170	1022.465	721.102
12.731	6.446	1024.528	737.853
13.746	15.313	1036.462	788.233
14.761	22.640	1045.159	829.375
15.775	23.892	1048.123	837.552
16.790	23.922	1046.500	836.325
17.804	23.425	1044.519	832.336
18.819	23.208	1043.602	830.511
19.834	23.129	1042.145	828.907
20.848	22.956	1041.751	827.711
21.863	22.865	1042.974	828.183
22.877	22.788	1041.887	826.884
23.892	23.035	1040.848	827.146
24.907	22.585	1039.539	823.927
25.921	22.874	1038.979	824.759
26.936	22.739	1037.949	823.240
27.950	22.718	1037.006	822.324
28.965	22.972	1035.122	821.938
29.980	22.985	1033.583	820.704
30.994	22.443	1033.149	817.769
32.009	22.752	1032.963	818.983
33.023	22.639	1032.757	818.221
34.038	22.728	1033.325	819.014
35.053	22.790	1031.174	817.522
36.067	22.799	1029.155	815.894
37.082	22.622	1028.643	814.594
38.096	22.795	1027.692	814.571
39.111	22.589	1027.099	813.080
40.126	22.885	1027.146	814.409
41.140	22.594	1026.331	812.349
42.155	22.319	1025.275	810.176
43.169	22.111	1023.183	807.496
44.184	22.204	1023.050	807.744
45.199	22.153	1020.591	805.499
46.213	21.976	1020.302	804.389
47.228	22.232	1019.364	804.750
48.242	22.655	1018.903	806.250
49.257	22.741	1018.378	806.156
50.271	22.844	1017.697	806.013
51.286	22.913	1017.178	805.849
52.301	23.057	1016.234	805.684
53.315	23.304	1015.691	806.309
54.330	22.856	1014.930	803.596
55.344	22.707	1014.331	802.369
56.359	22.465	1013.704	800.702
57.374	22.381	1012.226	799.084
58.388	22.678	1011.877	800.083
59.403	22.428	1010.304	797.640
60.417	22.388	1009.730	796.935
61.432	22.315	1009.047	795.992
62.447	22.096	1008.347	794.380
63.461	22.018	1007.699	793.449
64.476	21.857	1007.246	792.294
65.490	21.686	1006.468	790.841
66.505	22.049	1003.928	790.410
67.520	21.991	1004.262	790.340
68.534	21.875	1004.906	790.256
69.549	22.368	1002.642	790.617
70.563	21.675	1002.438	787.274
71.578	21.824	1000.451	786.311
72.593	21.848	999.710	785.770
73.607	21.198	998.969	782.207
74.622	21.465	997.581	782.243
75.636	21.450	997.023	781.667
76.651	21.704	996.048	781.968
77.666	21.657	995.706	781.422
78.680	21.799	995.259	781.634
79.695	21.753	994.623	780.862
80.709	21.779	993.979	780.405
81.724	21.936	993.250	780.459
82.739	21.968	993.444	780.688
83.753	22.136	991.394	779.750
84.768	22.363	992.171	781.304
85.782	23.210	990.664	783.800
86.797	23.179	992.120	784.743
87.812	22.982	990.534	782.545
88.826	22.898	989.936	781.636
89.841	23.220	988.050	781.500
90.855	23.411	987.465	781.807
91.870	23.569	987.017	782.081
92.884	22.910	987.601	779.568
93.899	22.754	986.311	777.791
94.914	22.895	984.219	776.694
95.928	22.970	984.509	777.183
96.943	23.256	983.704	777.736
97.957	22.928	981.967	774.855
98.972	22.869	981.137	773.874
99.987	22.547	980.866	772.178
101.001	22.810	980.184	772.725
102.016	23.030	979.537	773.108
103.030	23.066	977.753	771.792
104.045	22.798	977.249	770.154
105.060	22.726	977.783	770.195
106.074	22.969	976.216	769.951
107.089	22.978	974.227	768.354
108.103	22.560	974.110	766.377
109.118	22.502	972.731	764.971
110.133	22.278	971.089	762.639
111.147	21.924	969.570	759.847
112.162	22.032	969.295	760.034
113.176	21.765	967.301	757.248
114.191	22.001	967.772	758.570
115.206	22.198	966.896	758.666
116.220	22.073	966.984	758.131
117.235	21.719	965.957	755.729
118.249	21.784	965.750	755.783
119.264	22.186	963.752	755.880
120.279	21.986	963.049	754.401
121.293	21.435	963.313	752.172
122.308	21.636	960.636	750.878
123.322	21.651	960.479	750.753
124.337	21.625	958.972	749.397
125.352	21.486	958.313	748.223
126.366	21.292	956.931	746.251
127.381	21.564	956.530	747.032
128.395	21.309	956.172	745.599
129.410	21.538	956.023	746.390
130.424	21.460	955.589	745.654
131.439	22.206	953.482	747.114
132.454	22.213	953.276	746.918
133.468	22.401	951.140	745.974
134.483	22.538	950.481	745.972
135.497	22.032	951.309	744.413
136.512	22.082	950.479	743.910
137.527	22.284	949.922	744.260
138.541	22.050	949.150	742.601
139.556	22.081	948.724	742.333
140.570	22.411	947.148	742.428
141.585	22.477	945.714	741.513
142.600	22.436	947.216	742.455
143.614	22.901	945.816	743.247
144.629	23.266	944.758	743.884
145.643	23.469	943.641	743.793
146.658	23.333	942.764	742.465
147.673	23.040	941.865	740.463
148.687	22.761	940.544	738.191
149.702	22.772	939.827	737.610
150.716	22.388	938.084	734.576
151.731	22.125	937.850	733.230
152.746	22.534	937.268	734.415
153.760	22.157	936.323	732.038
154.775	22.486	935.379	732.604
155.789	22.619	935.582	733.254
156.804	22.660	934.899	732.823
157.819	23.172	932.506	733.005
158.833	22.544	933.138	730.830
159.848	22.826	932.557	731.480
160.862	22.987	932.264	731.851
161.877	23.213	930.998	731.727
162.892	22.209	931.011	727.522
163.906	22.266	930.117	726.992
164.921	22.195	929.181	725.904
165.935	22.289	926.390	724.046
166.950	22.362	925.053	723.239
167.964	22.525	925.061	723.848
168.979	22.186	924.720	722.128
169.994	22.208	923.492	721.196
171.008	22.191	922.424	720.228
172.023	22.591	920.864	720.579
173.037	22.735	920.739	721.006
174.052	23.312	919.541	722.359
175.067	23.169	919.648	721.797
176.081	22.576	918.290	718.251
177.096	21.972	917.863	715.391
178.110	21.755	916.602	713.465
179.125	21.735	916.313	713.093
180.140	22.142	914.050	712.922
181.154	22.217	913.970	713.100
182.169	22.274	914.941	714.024
183.183	22.612	914.528	715.013
184.198	22.962	913.378	715.465
185.213	22.657	912.282	713.313
186.227	22.472	912.215	712.449
187.242	22.837	910.904	712.833
188.256	22.645	911.211	712.237
189.271	23.041	910.401	713.140
190.286	23.184	909.573	713.004
191.300	22.944	909.469	711.891
192.315	22.708	907.078	709.009
193.329	21.601	906.916	704.368
194.344	21.877	905.816	704.560
195.359	21.791	906.076	704.352
196.373	22.006	906.416	705.421
197.388	22.466	905.200	706.258
198.402	22.918	904.957	707.817
199.417	23.115	904.314	708.040
200.432	23.416	904.071	708.992
201.446	23.471	903.713	708.868
202.461	23.345	903.571	708.190
203.475	22.972	904.552	707.401
204.490	23.173	902.220	706.317
205.504	22.710	900.748	703.258
206.519	22.657	899.856	702.290
207.534	22.679	899.359	701.927
208.548	22.693	898.579	701.309
209.563	22.676	898.351	701.005
210.577	22.891	897.885	701.431
211.592	22.852	896.322	699.994
212.607	22.884	896.614	700.286
213.621	23.230	895.710	700.890
214.636	22.991	895.831	699.975
215.650	23.176	895.411	700.317
216.665	23.292	894.769	700.213
217.680	23.039	893.603	698.238
218.694	23.232	893.697	699.010
219.709	23.204	893.039	698.324
220.723	23.378	891.220	697.528
221.738	23.246	890.581	696.447
222.753	22.824	890.621	694.755
223.767	22.705	889.885	693.651
224.782	23.332	888.533	694.996
225.796	23.346	887.983	694.557
226.811	23.524	888.099	695.287
227.826	23.369	887.016	693.769
228.840	22.818	887.000	691.537
229.855	22.589	885.500	689.414
230.869	22.820	884.769	689.685
231.884	22.835	884.620	689.567
232.899	22.411	883.649	687.093
233.913	22.439	883.790	687.254
234.928	22.796	881.887	687.100
235.942	22.109	881.484	684.053
236.957	22.404	880.766	684.582
237.972	22.234	879.450	682.840
238.986	22.240	879.532	682.866
240.001	22.224	879.227	682.507
241.015	22.645	877.285	682.569
242.030	22.260	877.535	681.213
243.045	22.378	876.148	680.529
244.059	22.643	876.475	681.749
245.074	22.828	875.963	682.006
246.088	22.776	874.979	680.979
247.103	23.074	875.208	682.247
248.117	22.774	875.220	681.040
249.132	23.257	874.654	682.399
250.147	23.824	874.008	684.018
251.161	23.854	874.607	684.542
252.176	24.237	873.634	685.191
253.190	24.366	872.662	684.866
254.205	24.263	873.504	685.069
255.220	24.129	872.742	683.895
256.234	24.251	871.390	683.244
257.249	23.510	871.338	680.301
258.263	24.021	870.052	681.192
259.278	23.994	869.743	680.787
260.293	23.766	869.352	679.550
261.307	24.123	867.830	679.663
262.322	23.806	868.599	678.995
263.336	24.038	867.333	678.830
264.351	24.136	867.435	679.223
265.366	23.762	866.085	676.680
266.380	23.609	865.939	675.926
267.395	24.025	865.334	676.975
268.409	24.110	865.037	677.008
269.424	23.988	863.390	675.194
270.439	23.524	863.831	673.718
271.453	24.009	862.175	674.204
272.468	23.917	860.635	672.592
273.482	23.957	860.361	672.472
274.497	23.500	860.301	670.636
275.512	23.800	859.355	670.973
276.526	23.817	857.874	669.821
277.541	23.886	858.462	670.481
278.555	23.901	858.054	670.161
279.570	23.885	857.596	669.680
280.585	24.218	857.215	670.578
281.599	24.191	857.102	670.330
282.614	23.789	855.875	667.800
283.628	23.834	853.753	666.253
284.643	23.393	854.830	665.379
285.657	23.617	853.809	665.366
286.672	23.562	853.444	664.815
287.687	23.515	853.046	664.271
288.701	23.623	852.572	664.249
289.716	23.685	851.933	663.922
290.730	23.455	852.407	663.373
291.745	23.817	850.800	663.414
292.760	23.837	850.010	662.815
293.774	23.720	849.658	662.045
294.789	24.001	849.178	662.661
295.803	24.696	848.097	664.341
296.818	24.290	847.682	662.450
297.833	23.814	847.454	660.444
298.847	23.592	846.721	658.991
299.862	24.019	845.279	659.392
300.876	24.108	845.578	659.898
301.891	24.067	845.061	659.285
302.906	24.698	842.986	659.936
303.920	24.535	844.201	660.228
304.935	24.764	843.299	660.308
305.949	24.954	843.126	660.817
306.964	24.388	842.681	658.319
307.979	24.236	842.735	657.745
308.993	23.789	841.965	655.434
310.008	24.141	841.601	656.393
311.022	24.113	840.654	655.493
312.037	24.316	840.020	655.688
313.052	24.081	838.902	653.894
314.066	23.959	837.508	652.302
315.081	23.367	836.876	649.582
316.095	23.566	836.535	649.989
317.110	23.770	836.099	650.340
318.125	23.569	835.632	649.181
319.139	23.568	835.696	649.172
320.154	23.098	835.358	647.134
321.168	23.398	834.339	647.381
322.183	23.530	833.673	647.290
323.197	23.740	833.373	647.765
324.212	23.671	832.520	646.792
325.227	23.989	832.005	647.494
326.241	23.675	831.499	645.901
327.256	23.795	831.310	646.134
328.270	23.472	830.830	644.527
329.285	23.795	829.426	644.553
330.300	23.328	829.780	643.077
331.314	23.472	828.334	642.420
332.329	23.346	828.259	641.851
333.343	23.426	828.088	641.950
334.358	24.050	827.403	643.620
335.373	23.689	827.614	642.420
336.387	24.011	825.947	642.231
337.402	24.142	825.287	642.133
338.416	24.134	825.626	642.312
339.431	24.357	825.854	643.237
340.446	24.982	825.168	644.897
341.460	25.177	824.644	645.132
342.475	24.836	824.129	643.446
343.489	25.196	823.810	644.433
344.504	25.140	823.684	644.079
345.519	25.179	822.340	643.109
346.533	25.337	822.541	643.778
347.548	24.929	822.009	641.842
348.562	24.748	821.399	640.660
349.577	24.432	820.181	638.520
350.592	24.436	818.923	637.499
351.606	24.460	818.540	637.231
352.621	24.149	817.755	635.453
353.635	23.858	818.336	634.811
354.650	23.954	817.707	634.611
355.665	24.002	817.210	634.339
356.679	24.386	816.367	634.997
357.694	24.353	816.849	635.195
358.708	24.393	815.641	634.344
359.723	24.382	814.378	633.267
360.738	24.359	814.415	633.157
361.752	24.323	814.110	632.735
362.767	24.219	813.809	632.077
363.781	24.278	814.045	632.414
364.796	25.091	812.960	634.394
365.810	25.561	812.197	635.405
366.825	25.153	812.722	634.314
367.840	25.122	812.347	633.858
368.854	25.091	812.302	633.657
369.869	24.935	810.481	631.630
370.883	24.523	810.069	629.798
371.898	24.774	809.064	629.848
372.913	25.142	808.895	630.955
373.927	24.644	809.536	629.645
374.942	24.867	807.834	629.048
375.956	24.762	806.630	627.687
376.971	24.909	806.849	628.317
377.986	24.930	806.883	628.362
379.000	24.818	806.327	627.482
380.015	25.296	805.679	628.594
381.029	25.026	805.510	627.461
382.044	24.971	803.823	625.899
383.059	25.124	803.757	626.329
384.073	25.492	802.095	626.259
385.088	25.384	802.501	626.146
386.102	24.822	802.680	624.270
387.117	24.029	802.375	621.211
388.132	24.232	800.721	620.583
389.146	24.228	799.292	619.404
390.161	24.438	799.840	620.505
391.175	25.058	799.422	622.282
392.190	25.142	799.898	622.887
393.205	24.971	799.046	621.576
394.219	24.563	798.596	619.755
395.234	24.444	796.506	617.667
396.248	24.129	796.223	616.303
397.263	24.205	796.297	616.568
398.278	24.144	796.486	616.448
399.292	24.084	795.609	615.510
400.307	23.865	795.290	614.449
401.321	23.597	794.400	612.781
402.336	23.836	793.882	613.153
403.350	24.311	792.502	613.668
404.365	24.166	794.187	614.418
405.380	24.830	793.694	616.270
406.394	25.312	793.564	617.773
407.409	25.364	793.391	617.765
408.423	25.363	792.476	616.992
409.438	25.664	792.017	617.613
410.453	25.672	792.244	617.764
411.467	25.677	791.216	616.926
412.482	25.782	790.134	616.386
413.496	25.667	789.745	615.636
414.511	25.342	790.628	615.156
415.526	25.722	789.925	615.856
416.540	25.614	788.447	614.278
417.555	25.942	787.720	614.779
418.569	25.446	787.206	612.632
419.584	25.634	787.102	613.135
420.599	25.347	787.214	612.192
421.613	162.113	1368.706	1794.399
422.628	140.371	1453.415	1794.436
