DTS Sentinel unit serial number:	SN413079Multiplexer serial number:	ORYXHardware model number:	OX4-SRSoftware version number:	ORYX F/W v4.00 Oryx Data Collector v3.7.2.0data status	okinstallation	princeton_trtdifferential loss correction	single-endedforward channel	channel 3reverse channel	N/Adate	2019/09/14time	01:48:35forward acquisition time	60.00reverse acquisition time	0.00gamma	496.2192k internal	0.2339k external	0.2339temperature offset calibration	1.0057default loss term (dB/km)	0.3790temperature slope calibration	1.0000multiplexer offset coefficient	1.0000multiplexer slope coefficient	1.0000fibre end	0.00T internal ref (°C)	26.44T ext. ref 1 (°C)	3.21T ext. ref 2 (°C)	21.49length (m)	temperature (°C)	Stokes	anti-Stokes-747.200	177.691	-0.174	-0.255
-746.185	-27.792	-0.179	0.104
-745.171	176.988	0.110	-0.161
-744.156	-200.000	-0.100	0.458
-743.142	-113.180	-0.087	-0.017
-742.127	212.206	-0.194	0.307
-741.112	498.156	0.150	0.347
-740.098	-200.000	0.054	0.365
-739.083	30.278	0.104	-0.089
-738.069	800.000	0.034	0.140
-737.054	139.711	-0.126	0.166
-736.039	-48.435	-0.256	0.124
-735.025	-30.367	0.238	-0.135
-734.010	40.181	-0.126	-0.114
-732.996	198.617	0.146	0.224
-731.981	-41.373	-0.262	0.135
-730.966	-5.655	0.142	0.097
-729.952	-6.005	0.445	-0.305
-728.937	36.090	-0.222	-0.196
-727.923	-27.950	-0.166	0.097
-726.908	-98.003	-0.051	-0.013
-725.894	70.409	-0.149	-0.154
-724.879	235.558	0.138	-0.228
-723.864	-65.304	0.067	-0.027
-722.850	-77.784	-0.172	-0.059
-721.835	-87.634	0.112	-0.034
-720.821	588.894	-0.041	0.102
-719.806	17.945	-0.165	-0.132
-718.791	-131.991	-0.312	-0.041
-717.777	43.498	-0.146	0.134
-716.762	800.000	-0.089	0.270
-715.748	-200.000	-0.012	0.184
-714.733	-84.111	-0.184	-0.058
-713.718	-11.822	-0.218	0.143
-712.704	-200.000	-0.101	0.498
-711.689	-124.256	0.177	-0.028
-710.675	150.832	0.038	0.051
-709.660	-200.000	-0.024	0.185
-708.645	-126.673	0.133	-0.020
-707.631	100.095	-0.178	0.206
-706.616	-200.000	-0.040	-0.289
-705.602	-147.430	0.111	0.009
-704.587	800.000	-0.124	0.358
-703.572	800.000	0.065	0.230
-702.558	-79.695	-0.156	-0.053
-701.543	23.290	-0.130	0.107
-700.529	-75.462	-0.137	-0.049
-699.514	-200.000	-0.007	-0.346
-698.499	60.565	0.158	0.157
-697.485	-200.000	0.025	0.123
-696.470	-200.000	-0.004	-0.301
-695.456	-200.000	0.005	-0.107
-694.441	72.797	0.297	-0.310
-693.426	25.409	-0.183	-0.152
-692.412	-57.665	0.176	0.077
-691.397	31.880	-0.301	-0.259
-690.383	-200.000	0.042	0.357
-689.368	-119.474	-0.126	0.022
-688.354	-72.830	-0.140	0.052
-687.339	157.089	0.133	-0.185
-686.324	-0.113	0.268	-0.191
-685.310	176.078	0.132	-0.192
-684.295	-56.454	-0.216	0.096
-683.281	34.327	-0.123	-0.107
-682.266	12.728	0.125	0.097
-681.251	48.703	-0.108	-0.101
-680.237	-93.367	-0.213	-0.059
-679.222	59.318	-0.283	-0.279
-678.208	-44.917	0.422	0.211
-677.193	92.383	-0.042	-0.047
-676.178	-200.000	-0.003	-0.396
-675.164	-41.771	-0.266	0.137
-674.149	-200.000	0.037	-0.218
-673.135	-1.869	0.299	-0.210
-672.120	800.000	0.024	0.067
-671.105	487.175	-0.080	-0.183
-670.091	-151.169	-0.084	-0.006
-669.076	163.550	-0.109	0.153
-668.062	-200.000	-0.027	-0.219
-667.047	-92.871	0.035	-0.010
-666.032	28.326	-0.298	-0.252
-665.018	-15.140	0.265	-0.170
-664.003	-115.264	0.179	-0.034
-662.989	800.000	-0.027	-0.084
-661.974	-98.757	-0.136	0.035
-660.959	-9.589	0.112	0.074
-659.945	-1.420	-0.388	-0.274
-658.930	-129.815	-0.043	0.006
-657.916	501.345	0.048	-0.112
-656.901	24.788	-0.168	0.139
-655.886	800.000	0.063	-0.226
-654.872	403.326	-0.109	-0.229
-653.857	-60.522	0.237	-0.101
-652.843	-8.527	0.229	0.154
-651.828	-200.000	-0.030	0.344
-650.814	263.901	0.126	-0.219
-649.799	105.301	-0.070	-0.083
-648.784	21.957	-0.227	-0.185
-647.770	-156.075	-0.194	0.012
-646.755	-200.000	-0.065	-0.411
-645.741	-62.993	0.045	-0.018
-644.726	374.186	-0.077	-0.156
-643.711	208.122	-0.111	-0.174
-642.697	-200.000	0.007	-0.170
-641.682	32.468	0.004	-0.004
-640.668	27.327	0.173	0.146
-639.653	-118.308	-0.214	-0.038
-638.638	40.042	0.276	-0.248
-637.624	800.000	-0.057	0.230
-636.609	212.733	-0.284	0.447
-635.595	105.675	-0.321	0.379
-634.580	210.720	-0.175	-0.275
-633.565	-200.000	-0.023	0.234
-632.551	-65.731	0.223	-0.089
-631.536	-71.550	0.235	0.088
-630.522	-147.895	-0.396	0.033
-629.507	20.960	0.314	-0.255
-628.492	151.128	0.111	0.150
-627.478	-200.000	0.060	-0.325
-626.463	-179.476	-0.119	0.003
-625.449	187.704	0.117	0.174
-624.434	-62.718	0.196	0.081
-623.419	-117.760	-0.235	0.042
-622.405	-200.000	0.031	0.222
-621.390	-74.679	-0.164	-0.059
-620.376	128.135	-0.223	-0.283
-619.361	-200.000	-0.002	-0.047
-618.346	139.629	0.140	-0.184
-617.332	-52.050	-0.141	0.065
-616.317	-183.351	0.132	0.002
-615.303	-200.000	-0.011	0.069
-614.288	44.383	-0.053	0.049
-613.273	-200.000	0.023	0.127
-612.259	-32.233	0.243	-0.135
-611.244	-200.000	-0.009	0.126
-610.230	559.818	-0.070	0.169
-609.215	-17.748	-0.313	-0.196
-608.201	-200.000	-0.005	-0.361
-607.186	-200.000	0.019	0.277
-606.171	543.288	-0.039	-0.092
-605.157	-200.000	0.014	-0.161
-604.142	800.000	-0.056	-0.194
-603.128	-26.371	0.083	0.049
-602.113	-13.857	0.111	0.072
-601.098	-200.000	0.030	-0.248
-600.084	59.175	-0.251	0.246
-599.069	-70.433	0.306	-0.116
-598.055	-200.000	-0.036	-0.350
-597.040	44.267	-0.099	0.091
-596.025	-53.200	-0.153	0.070
-595.011	-200.000	0.032	0.321
-593.996	800.000	-0.023	0.069
-592.982	-147.756	-0.436	0.036
-591.967	77.946	0.059	0.063
-590.952	-163.634	0.115	0.005
-589.938	-41.438	-0.206	-0.106
-588.923	-17.516	0.165	-0.103
-587.909	-62.439	-0.249	0.103
-586.894	173.730	-0.137	-0.197
-585.879	-200.000	0.052	-0.275
-584.865	44.916	-0.203	-0.186
-583.850	-200.000	-0.024	0.201
-582.836	-25.909	0.050	-0.029
-581.821	-200.000	-0.004	-0.200
-580.806	-55.719	-0.236	0.105
-579.792	-168.983	0.225	0.008
-578.777	33.736	0.210	-0.182
-577.763	-48.480	-0.136	0.065
-576.748	-200.000	0.033	-0.147
-575.733	183.767	-0.117	0.172
-574.719	49.664	0.190	-0.179
-573.704	-32.513	0.244	-0.135
-572.690	-143.722	-0.098	0.009
-571.675	-200.000	-0.030	-0.192
-570.661	50.263	-0.314	-0.296
-569.646	-97.199	-0.237	-0.062
-568.631	318.944	-0.047	0.088
-567.617	-62.020	-0.200	-0.083
-566.602	51.773	-0.243	0.230
-565.588	-45.790	0.209	-0.103
-564.573	-65.164	-0.173	0.069
-563.558	-85.512	0.230	-0.071
-562.544	230.316	-0.041	-0.067
-561.529	800.000	-0.062	-0.234
-560.515	-176.479	-0.325	-0.008
-559.500	-200.000	-0.032	0.146
-558.485	-200.000	0.001	0.119
-557.471	3.275	0.136	-0.099
-556.456	158.224	-0.069	-0.096
-555.442	-68.692	-0.287	-0.111
-554.427	-200.000	-0.003	0.046
-553.412	800.000	-0.030	-0.122
-552.398	-200.000	-0.024	-0.127
-551.383	33.246	-0.315	-0.272
-550.369	-200.000	-0.003	-0.026
-549.354	-25.284	0.324	-0.191
-548.339	-174.001	0.398	0.012
-547.325	800.000	-0.049	-0.204
-546.310	800.000	-0.100	-0.343
-545.296	-200.000	0.011	-0.456
-544.281	-200.000	-0.005	0.173
-543.266	-13.757	0.237	0.153
-542.252	151.685	0.072	0.097
-541.237	50.017	-0.112	0.105
-540.223	-134.701	-0.422	-0.051
-539.208	-200.000	-0.019	0.338
-538.193	800.000	-0.008	-0.033
-537.179	-129.471	-0.522	0.072
-536.164	-27.049	0.395	0.229
-535.150	72.624	0.106	-0.110
-534.135	-200.000	0.000	-0.162
-533.121	61.244	-0.226	-0.224
-532.106	800.000	0.045	-0.126
-531.091	102.188	0.130	-0.151
-530.077	-90.523	0.251	0.072
-529.062	-50.452	-0.265	0.124
-528.048	-53.601	-0.213	-0.097
-527.033	-200.000	0.044	0.260
-526.018	375.675	-0.120	0.244
-525.004	296.083	-0.202	-0.368
-523.989	-12.490	-0.236	-0.153
-522.975	-200.000	0.019	-0.085
-521.960	154.358	-0.161	0.219
-520.945	-7.694	0.188	0.126
-519.931	-200.000	-0.232	-0.000
-518.916	-160.721	-0.187	-0.010
-517.902	-89.143	0.186	0.055
-516.887	-200.000	0.007	-0.136
-515.872	800.000	-0.067	0.200
-514.858	8.178	0.341	-0.254
-513.843	-113.180	-0.121	-0.024
-512.829	-95.554	0.280	-0.075
-511.814	98.077	-0.278	-0.318
-510.799	626.693	0.093	0.235
-509.785	274.332	-0.027	-0.047
-508.770	60.436	-0.055	0.054
-507.756	61.338	0.227	0.224
-506.741	-12.326	0.313	-0.203
-505.726	-117.990	-0.248	0.044
-504.712	800.000	0.048	-0.133
-503.697	-200.000	-0.298	0.001
-502.683	610.637	-0.089	0.221
-501.668	21.912	0.197	-0.160
-500.653	800.000	0.032	0.131
-499.639	-152.899	-0.278	0.020
-498.624	663.487	0.087	0.222
-497.610	-200.000	0.046	-0.214
-496.595	-200.000	-0.020	0.256
-495.581	-200.000	0.017	-0.203
-494.566	800.000	-0.086	-0.247
-493.551	20.553	0.238	-0.191
-492.537	800.000	0.053	0.152
-491.522	-52.951	-0.385	-0.176
-490.508	-110.996	-0.082	-0.017
-489.493	800.000	0.052	0.217
-488.478	46.104	-0.221	0.203
-487.464	-50.336	0.172	0.081
-486.449	-200.000	-0.033	0.354
-485.435	-39.910	-0.376	-0.195
-484.420	800.000	0.071	-0.205
-483.405	-200.000	0.033	-0.150
-482.391	-130.261	-0.124	0.017
-481.376	140.304	-0.123	-0.161
-480.362	-27.190	0.118	-0.068
-479.347	-200.000	0.002	-0.208
-478.332	800.000	0.021	-0.078
-477.318	352.147	0.118	-0.231
-476.303	-26.164	-0.065	-0.038
-475.289	-132.296	0.127	0.016
-474.274	106.819	-0.103	0.122
-473.259	-200.000	0.001	-0.099
-472.245	113.321	0.087	0.105
-471.230	-69.309	0.496	0.189
-470.216	-72.427	-0.185	-0.068
-469.201	-192.204	0.243	0.002
-468.186	460.394	-0.060	0.133
-467.172	-89.437	0.584	-0.170
-466.157	187.761	-0.054	0.079
-465.143	-27.619	-0.041	0.023
-464.128	800.000	0.045	0.172
-463.113	-200.000	-0.022	-0.131
-462.099	800.000	-0.124	-0.352
-461.084	-200.000	-0.001	-0.213
-460.070	-28.744	-0.090	0.051
-459.055	177.045	-0.180	-0.259
-458.040	4.769	0.305	-0.222
-457.026	-200.000	0.007	0.137
-456.011	-155.653	0.332	-0.021
-454.997	28.319	0.255	0.214
-453.982	-29.694	-0.222	-0.126
-452.968	800.000	-0.038	-0.134
-451.953	-31.037	0.230	-0.129
-450.938	-26.067	-0.171	0.100
-449.924	-94.725	0.277	0.075
-448.909	51.908	0.108	-0.102
-447.895	-2.252	0.150	0.104
-446.880	-83.198	0.249	0.079
-445.865	-117.596	0.298	-0.053
-444.851	-120.477	0.461	0.078
-443.836	244.652	0.084	0.139
-442.822	-51.216	0.213	-0.099
-441.807	-46.989	-0.105	-0.051
-440.792	22.003	-0.234	-0.189
-439.778	-200.000	-0.022	0.198
-438.763	-200.000	-0.041	0.177
-437.749	-64.273	0.303	0.122
-436.734	357.727	-0.120	-0.238
-435.719	-200.000	0.026	0.114
-434.705	-25.203	0.137	-0.080
-433.690	-19.506	0.089	0.055
-432.676	-121.625	0.216	-0.036
-431.661	97.667	0.249	0.284
-430.646	800.000	0.117	-0.433
-429.632	11.879	0.356	-0.271
-428.617	-200.000	0.009	0.171
-427.603	51.726	0.120	0.114
-426.588	281.315	0.025	0.044
-425.573	-200.000	-0.083	0.520
-424.559	203.868	0.083	0.127
-423.544	-98.938	-0.508	0.128
-422.530	-59.514	-0.178	0.076
-421.515	-125.061	0.515	-0.078
-420.500	34.435	-0.059	-0.051
-419.486	80.038	-0.112	-0.120
-418.471	-77.823	0.274	0.094
-417.457	-143.638	-0.081	-0.008
-416.442	225.833	0.156	-0.250
-415.428	-145.969	-0.324	0.028
-414.413	599.857	0.073	0.181
-413.398	43.163	0.041	-0.037
-412.384	-80.982	-0.102	-0.033
-411.369	-114.650	-0.175	0.033
-410.355	-200.000	0.017	0.103
-409.340	240.325	0.121	0.200
-408.325	-200.000	0.033	0.159
-407.311	-157.087	-0.112	0.007
-406.296	-1.024	0.229	0.161
-405.282	-200.000	-0.072	-0.378
-404.267	800.000	-0.069	0.240
-403.252	217.484	0.119	0.188
-402.238	800.000	0.030	0.102
-401.223	800.000	0.050	-0.145
-400.209	-58.606	-0.278	-0.119
-399.194	76.245	-0.249	0.261
-398.179	-68.481	0.315	0.121
-397.165	5.809	0.201	0.147
-396.150	-45.617	-0.274	-0.134
-395.136	800.000	0.039	-0.118
-394.121	137.790	-0.073	0.094
-393.106	-200.000	0.043	-0.206
-392.092	-200.000	0.011	0.073
-391.077	13.493	0.205	0.158
-390.063	-136.012	0.126	0.015
-389.048	-157.930	-0.230	0.013
-388.033	395.530	-0.034	-0.070
-387.019	-200.000	-0.026	-0.181
-386.004	-48.565	-0.032	0.015
-384.990	-42.662	-0.056	0.028
-383.975	-89.882	0.121	0.035
-382.960	-156.325	0.262	-0.016
-381.946	578.956	0.020	0.048
-380.931	-36.665	-0.138	-0.073
-379.917	800.000	0.021	0.065
-378.902	800.000	0.016	0.068
-377.888	0.145	-0.162	-0.114
-376.873	118.329	0.289	0.352
-375.858	-108.110	0.135	-0.029
-374.844	-100.219	-0.341	-0.084
-373.829	286.230	0.035	0.062
-372.815	60.783	-0.185	0.182
-371.800	55.788	-0.127	0.122
-370.785	-200.000	-0.082	0.374
-369.771	3.669	-0.261	0.188
-368.756	65.015	-0.169	0.169
-367.742	800.000	0.065	-0.266
-366.727	800.000	-0.021	-0.069
-365.712	353.456	0.086	-0.169
-364.698	575.581	0.010	-0.023
-363.683	-10.344	0.245	-0.160
-362.669	-86.333	-0.042	-0.013
-361.654	-197.323	-0.249	-0.002
-360.639	-200.000	-0.052	0.305
-359.625	184.171	0.193	0.282
-358.610	20.149	0.119	0.095
-357.596	-82.980	0.017	-0.005
-356.581	74.171	0.260	0.270
-355.566	609.082	-0.077	-0.191
-354.552	-75.046	0.103	0.036
-353.537	182.004	0.177	0.258
-352.523	-25.879	-0.089	-0.052
-351.508	57.178	-0.283	0.273
-350.493	-13.458	0.113	0.072
-349.479	617.230	-0.063	-0.156
-348.464	720.786	0.128	-0.337
-347.450	-124.465	-0.190	0.029
-346.435	106.005	-0.095	0.111
-345.420	-11.449	-0.236	-0.153
-344.406	-129.955	-0.111	0.015
-343.391	-200.000	0.026	0.146
-342.377	800.000	0.075	0.237
-341.362	-30.218	0.043	0.024
-340.348	-112.393	-0.280	-0.055
-339.333	-191.327	0.155	0.002
-338.318	65.114	0.113	0.112
-337.304	92.911	-0.239	-0.266
-336.289	-153.860	0.177	0.012
-335.275	800.000	0.083	-0.325
-334.260	-102.778	-0.258	-0.061
-333.245	-29.695	-0.287	-0.161
-332.231	-118.078	-0.264	-0.046
-331.216	-76.428	0.404	-0.140
-330.202	-87.391	-0.056	-0.017
-329.187	-200.000	-0.007	0.085
-328.172	510.266	0.168	0.386
-327.158	-154.928	0.211	0.014
-326.143	-200.000	0.018	0.102
-325.129	-200.000	-0.011	0.242
-324.114	-56.245	-0.258	0.113
-323.099	381.732	-0.202	-0.410
-322.085	9.946	0.298	0.223
-321.070	800.000	0.042	0.120
-320.056	-189.407	-0.263	0.003
-319.041	-138.706	-0.189	0.020
-318.026	37.772	0.159	-0.139
-317.012	-123.236	0.361	-0.057
-315.997	62.163	-0.403	-0.397
-314.983	101.134	-0.083	0.096
-313.968	336.339	0.056	0.107
-312.953	-143.510	0.354	-0.033
-311.939	-200.000	0.002	-0.161
-310.924	267.915	-0.095	-0.163
-309.910	163.820	-0.020	0.028
-308.895	-67.359	-0.172	0.067
-307.880	120.614	-0.370	0.454
-306.866	180.329	-0.100	0.144
-305.851	-200.000	-0.025	0.158
-304.837	-135.721	0.266	0.031
-303.822	-40.335	0.139	-0.071
-302.807	170.084	0.097	0.136
-301.793	97.789	0.119	0.135
-300.778	18.608	-0.083	-0.065
-299.764	695.930	-0.019	0.049
-298.749	-104.182	-0.292	0.067
-297.735	-200.000	-0.005	0.469
-296.720	800.000	-0.081	0.236
-295.705	-183.868	0.129	-0.002
-294.691	-24.923	-0.168	0.098
-293.676	136.160	0.159	-0.204
-292.662	272.341	0.015	-0.026
-291.647	800.000	0.031	0.125
-290.632	-91.702	0.105	0.029
-289.618	-65.053	-0.124	0.049
-288.603	32.056	0.252	-0.214
-287.589	-31.946	0.193	-0.107
-286.574	-65.639	0.150	0.059
-285.559	-97.264	0.238	0.061
-284.545	226.703	0.148	0.237
-283.530	382.249	-0.107	0.217
-282.516	-200.000	0.017	0.221
-281.501	247.253	-0.195	-0.324
-280.486	-143.399	0.075	0.007
-279.472	-200.000	-0.003	-0.077
-278.457	30.568	0.180	0.152
-277.443	-36.844	-0.134	0.071
-276.428	43.545	0.350	-0.315
-275.413	-200.000	0.001	0.009
-274.399	-119.231	0.114	-0.020
-273.384	-40.408	0.272	-0.139
-272.370	7.169	0.206	0.151
-271.355	-97.558	-0.036	0.009
-270.340	-62.310	0.201	-0.083
-269.326	48.583	-0.109	-0.101
-268.311	-200.000	-0.019	-0.129
-267.297	-200.000	-0.010	-0.048
-266.282	-101.408	-0.418	0.100
-265.267	-200.000	0.023	-0.144
-264.253	-200.000	-0.019	0.104
-263.238	800.000	-0.086	0.262
-262.224	-200.000	0.015	0.322
-261.209	88.735	-0.132	-0.144
-260.195	800.000	-0.039	0.138
-259.180	-200.000	-0.025	-0.216
-258.165	800.000	-0.081	0.346
-257.151	-107.449	-0.114	-0.025
-256.136	-25.838	0.119	-0.069
-255.122	-113.615	-0.228	0.044
-254.107	297.429	0.071	-0.128
-253.092	28.683	0.153	-0.128
-252.078	-200.000	-0.017	-0.073
-251.063	800.000	0.033	-0.131
-250.049	-93.485	-0.254	0.069
-249.034	-200.000	0.007	-0.386
-248.019	-101.809	-0.293	0.070
-247.005	-10.362	0.066	0.043
-245.990	403.793	0.121	-0.250
-244.976	150.424	0.064	-0.086
-243.961	19.220	0.124	0.098
-242.946	-200.000	0.078	0.342
-241.932	800.000	0.026	-0.096
-240.917	800.000	0.076	-0.231
-239.903	181.170	0.153	0.220
-238.888	-122.933	0.466	0.074
-237.873	-21.861	-0.012	0.007
-236.859	-20.687	0.259	0.156
-235.844	-159.473	-0.083	0.005
-234.830	-60.633	-0.044	0.018
-233.815	354.031	-0.164	0.320
-232.800	-40.696	-0.137	0.070
-231.786	-200.000	-0.022	-0.124
-230.771	-149.274	-0.409	0.032
-229.757	-96.384	-0.216	-0.056
-228.742	-128.315	0.357	0.050
-227.727	56.837	-0.246	-0.236
-226.713	66.461	-0.142	-0.141
-225.698	800.000	-0.037	0.142
-224.684	322.101	0.103	0.192
-223.669	454.474	-0.086	0.187
-222.655	-157.939	-0.173	-0.010
-221.640	36.026	0.340	0.294
-220.625	254.202	0.079	0.132
-219.611	107.168	-0.258	-0.302
-218.596	-200.000	-0.006	0.032
-217.582	154.206	-0.124	0.168
-216.567	-152.998	0.374	-0.026
-215.552	29.931	0.097	-0.081
-214.538	-154.438	0.287	0.019
-213.523	4.072	-0.216	-0.155
-212.509	-200.000	-0.009	-0.455
-211.494	-83.686	0.100	0.031
-210.479	-200.000	0.016	0.173
-209.465	-0.383	0.296	0.207
-208.450	-24.191	-0.152	-0.089
-207.436	-193.150	0.281	-0.002
-206.421	69.973	0.080	-0.081
-205.406	636.991	0.020	0.049
-204.392	-15.988	0.219	0.137
-203.377	800.000	0.066	0.245
-202.363	-200.000	-0.002	0.128
-201.348	-200.000	-0.085	0.417
-200.333	-200.000	-0.025	0.194
-199.319	-9.435	-0.163	-0.107
-198.304	-200.000	0.030	-0.361
-197.290	5.567	-0.061	0.045
-196.275	207.211	-0.121	-0.185
-195.260	14.213	0.185	-0.141
-194.246	307.622	0.068	-0.124
-193.231	28.107	-0.047	-0.039
-192.217	-200.000	0.025	-0.318
-191.202	-200.000	0.018	-0.110
-190.187	-200.000	0.049	-0.430
-189.173	-200.000	-0.034	-0.222
-188.158	-200.000	-0.038	0.453
-187.144	-138.124	0.239	0.026
-186.129	-143.770	-0.175	0.016
-185.114	-200.000	-0.037	-0.173
-184.100	-67.901	-0.089	-0.034
-183.085	381.365	0.142	0.286
-182.071	-36.261	0.052	0.028
-181.056	218.707	-0.062	-0.098
-180.042	-59.040	0.032	-0.014
-179.027	-200.000	-0.057	0.256
-178.012	96.985	0.164	0.185
-176.998	153.388	-0.050	-0.067
-175.983	21.983	-0.173	0.138
-174.969	60.261	-0.149	-0.145
-173.954	551.934	-0.136	0.320
-172.939	273.018	-0.048	0.084
-171.925	31.415	0.288	0.243
-170.910	-200.000	-0.049	0.240
-169.896	-16.491	-0.191	-0.119
-168.881	800.000	0.060	0.175
-167.866	342.852	0.023	-0.044
-166.852	7.506	0.349	0.256
-165.837	458.219	-0.224	-0.488
-164.823	-35.004	0.305	0.163
-163.808	-138.911	-0.127	-0.014
-162.793	-200.000	-0.025	-0.238
-161.779	-47.201	0.231	0.111
-160.764	-200.000	-0.073	-0.359
-159.750	730.946	-0.048	0.125
-158.735	60.484	-0.096	-0.093
-157.720	-200.000	0.021	0.093
-156.706	-113.891	-0.270	-0.051
-155.691	-80.129	0.139	0.046
-154.677	97.089	0.146	0.164
-153.662	-200.000	-0.216	-0.001
-152.647	-4.347	0.197	-0.134
-151.633	71.919	-0.092	-0.094
-150.618	371.814	0.048	-0.096
-149.604	-200.000	-0.036	-0.172
-148.589	-110.577	-0.249	-0.050
-147.574	-200.000	0.014	0.203
-146.560	221.607	-0.117	-0.184
-145.545	-25.948	0.266	-0.153
-144.531	64.353	0.134	-0.132
-143.516	-148.521	-0.101	-0.008
-142.502	-200.000	-0.027	-0.185
-141.487	83.226	-0.203	-0.217
-140.472	43.118	0.268	-0.240
-139.458	480.807	0.083	-0.183
-138.443	-13.485	-0.092	0.059
-137.429	-200.000	0.032	0.191
-136.414	-200.000	-0.035	0.250
-135.399	453.049	-0.058	-0.126
-134.385	-10.195	-0.112	-0.073
-133.370	-200.000	-0.025	0.159
-132.356	172.975	0.270	0.381
-131.341	800.000	0.093	0.376
-130.326	-104.750	0.112	0.025
-129.312	-200.000	-0.010	-0.219
-128.297	65.209	-0.143	0.142
-127.283	21.512	0.198	0.158
-126.268	298.987	0.012	-0.021
-125.253	-34.023	-0.252	0.135
-124.239	718.655	-0.021	0.055
-123.224	-132.124	0.400	0.051
-122.210	-16.497	0.246	-0.153
-121.195	-200.000	0.010	0.198
-120.180	167.704	0.176	-0.245
-119.166	54.472	-0.088	-0.083
-118.151	800.000	0.062	-0.251
-117.137	-200.000	-0.001	-0.239
-116.122	52.138	-0.242	0.226
-115.107	-200.000	0.001	-0.007
-114.093	-89.661	-0.032	0.009
-113.078	-200.000	0.003	-0.058
-112.064	-42.239	0.256	0.128
-111.049	285.891	0.135	0.238
-110.034	71.289	-0.099	-0.101
-109.020	-115.686	0.338	-0.062
-108.005	-37.783	-0.182	-0.095
-106.991	-140.460	-0.229	0.023
-105.976	29.758	0.093	-0.078
-104.962	-99.521	0.378	0.093
-103.947	-55.648	-0.468	-0.205
-102.932	-86.235	-0.049	0.015
-101.918	-200.000	-0.001	0.403
-100.903	59.549	0.278	0.268
-99.889	398.397	0.040	0.081
-98.874	-103.076	0.136	0.032
-97.859	-200.000	-0.005	0.026
-96.845	800.000	-0.074	0.288
-95.830	123.474	0.207	0.253
-94.816	106.362	-0.031	0.036
-93.801	-71.581	-0.289	-0.106
-92.786	-72.533	-0.335	0.121
-91.772	800.000	0.092	0.326
-90.757	-151.565	0.278	0.020
-89.743	-200.000	-0.026	0.300
-88.728	-61.609	0.182	0.075
-87.713	-169.370	0.407	-0.015
-86.699	800.000	-0.019	-0.077
-85.684	800.000	0.058	-0.186
-84.670	108.388	-0.238	0.278
-83.655	13.844	-0.254	0.193
-82.640	-7.686	0.321	-0.212
-81.626	-124.707	0.382	0.058
-80.611	-126.612	0.169	-0.025
-79.597	-200.000	0.011	0.129
-78.582	-28.816	0.064	-0.036
-77.567	-105.035	-0.143	0.032
-76.553	117.098	-0.192	0.230
-75.538	-66.413	0.320	-0.124
-74.524	420.200	0.035	0.072
-73.509	-16.096	-0.148	-0.092
-72.494	-61.408	0.294	-0.121
-71.480	5.112	-0.125	0.090
-70.465	-35.776	0.254	0.134
-69.451	-200.000	0.032	0.152
-68.436	-200.000	0.026	0.150
-67.422	-104.556	-0.135	0.030
-66.407	138.603	0.193	0.247
-65.392	-21.832	0.115	0.068
-64.378	800.000	0.032	0.121
-63.363	-200.000	0.012	-0.221
-62.349	620.316	0.131	0.322
-61.334	140.766	-0.835	-1.078
-60.319	-63.072	0.588	0.237
-59.305	800.000	-0.337	-1.360
-58.290	286.802	0.613	1.080
-57.276	428.054	0.643	1.356
-56.261	-200.000	116.411	645.050
-55.246	503.891	1540.922	3480.240
-54.232	176.067	2710.573	3841.299
-53.217	104.545	2174.942	2500.359
-52.203	37.016	1691.090	1460.420
-51.188	29.494	1506.387	1250.146
-50.173	27.400	1481.068	1215.126
-49.159	50.140	1541.579	1420.470
-48.144	48.595	1556.086	1423.251
-47.130	29.640	1512.226	1255.786
-46.115	26.601	1497.271	1222.830
-45.100	26.495	1493.043	1218.617
-44.086	26.455	1491.133	1216.741
-43.071	26.432	1489.497	1215.202
-42.057	26.377	1488.058	1213.611
-41.042	26.456	1486.390	1212.730
-40.027	26.438	1484.735	1211.216
-39.013	26.375	1483.464	1209.705
-37.998	26.443	1481.912	1208.848
-36.984	26.318	1481.808	1207.877
-35.969	26.440	1480.292	1207.411
-34.954	26.457	1478.098	1205.684
-33.940	26.297	1477.278	1203.906
-32.925	26.393	1475.554	1203.089
-31.911	26.393	1474.427	1202.124
-30.896	26.489	1473.264	1201.767
-29.881	26.541	1472.011	1201.041
-28.867	26.461	1470.453	1199.192
-27.852	26.525	1469.423	1198.725
-26.838	26.461	1468.165	1197.231
-25.823	26.488	1466.933	1196.355
-24.809	26.564	1464.960	1195.199
-23.794	26.477	1463.243	1193.177
-22.779	26.486	1462.445	1192.539
-21.765	26.441	1461.495	1191.425
-20.750	26.378	1460.519	1190.163
-19.736	26.478	1459.085	1189.607
-18.721	26.460	1458.342	1188.836
-17.706	26.450	1456.527	1187.245
-16.692	26.579	1455.118	1186.894
-15.677	26.511	1454.538	1185.925
-14.663	26.455	1453.872	1184.967
-13.648	26.402	1452.671	1183.595
-12.633	26.464	1451.738	1183.195
-11.619	26.448	1451.108	1182.533
-10.604	26.444	1450.107	1181.643
-9.590	26.340	1449.873	1180.726
-8.575	26.384	1448.517	1179.860
-7.560	26.424	1447.749	1179.448
-6.546	26.382	1446.690	1178.266
-5.531	26.452	1445.627	1177.810
-4.517	26.412	1445.135	1177.105
-3.502	26.431	1443.773	1176.070
-2.487	26.325	1443.685	1175.261
-1.473	26.391	1442.141	1174.387
-0.458	26.401	1440.432	1173.014
0.556	26.647	1431.013	1162.056
1.571	23.805	1406.155	1123.824
2.586	20.429	1346.061	1055.227
3.600	18.907	1264.183	982.262
4.615	17.802	1219.783	941.582
5.629	15.279	1163.907	885.068
6.644	8.736	1083.415	791.537
7.659	3.939	1047.168	742.028
8.673	3.211	1041.707	734.620
9.688	3.221	1038.269	732.177
10.702	3.138	1037.382	731.093
11.717	3.269	1035.278	730.167
12.731	5.185	1036.018	739.706
13.746	11.658	1045.597	777.351
14.761	17.936	1053.239	812.943
15.775	19.653	1054.907	822.339
16.790	19.335	1053.280	819.483
17.804	18.212	1051.573	812.751
18.819	17.471	1049.661	807.686
19.834	16.949	1048.430	804.194
20.848	16.792	1047.351	802.550
21.863	16.683	1046.792	801.534
22.877	16.395	1046.174	799.631
23.892	16.284	1045.485	798.505
24.907	16.227	1044.579	797.473
25.921	16.101	1044.518	796.760
26.936	16.191	1042.761	795.774
27.950	16.163	1042.280	795.208
28.965	16.167	1041.137	794.281
29.980	16.291	1039.672	793.680
30.994	16.539	1038.719	794.045
32.009	16.542	1037.909	793.367
33.023	16.666	1037.221	793.355
34.038	16.608	1036.004	792.080
35.053	16.362	1035.758	790.672
36.067	16.308	1034.566	789.440
37.082	16.235	1033.490	788.209
38.096	16.354	1032.553	787.978
39.111	16.476	1031.920	787.994
40.126	16.525	1031.113	787.539
41.140	16.469	1030.284	786.572
42.155	16.258	1028.734	784.341
43.169	16.116	1027.928	782.997
44.184	15.959	1026.734	781.291
45.199	15.922	1025.854	780.381
46.213	16.010	1024.758	779.884
47.228	16.227	1023.479	779.844
48.242	16.231	1022.628	779.146
49.257	16.286	1021.965	778.826
50.271	16.388	1021.130	778.591
51.286	16.332	1019.972	777.380
52.301	16.446	1019.112	777.182
53.315	16.384	1018.318	776.225
54.330	16.443	1017.370	775.704
55.344	16.123	1016.943	773.840
56.359	16.182	1015.639	773.050
57.374	16.241	1014.875	772.669
58.388	16.176	1014.130	771.737
59.403	16.080	1013.278	770.582
60.417	16.047	1012.255	769.585
61.432	15.900	1012.404	768.958
62.447	16.008	1011.152	768.431
63.461	16.000	1009.991	767.446
64.476	15.879	1009.826	766.701
65.490	15.863	1008.632	765.655
66.505	15.851	1007.970	765.028
67.520	15.993	1006.892	764.786
68.534	15.969	1006.533	764.340
69.549	15.964	1005.272	763.289
70.563	15.968	1004.570	762.706
71.578	15.934	1004.312	762.291
72.593	15.868	1002.698	760.699
73.607	15.886	1001.896	760.106
74.622	15.698	1001.253	758.700
75.636	15.804	1000.076	758.221
76.651	15.742	999.710	757.599
77.666	15.980	998.786	757.898
78.680	15.916	997.902	756.877
79.695	15.838	997.529	756.176
80.709	15.874	997.310	756.102
81.724	15.977	996.417	755.822
82.739	16.132	995.233	755.551
83.753	16.056	995.077	755.025
84.768	16.289	993.848	755.069
85.782	16.472	993.398	755.480
86.797	16.425	993.478	755.262
87.812	16.604	992.396	755.174
88.826	16.384	991.044	753.095
89.841	16.342	990.186	752.189
90.855	16.447	989.599	752.144
91.870	16.455	988.838	751.536
92.884	16.566	988.519	751.718
93.899	16.501	987.487	750.578
94.914	16.523	986.907	750.169
95.928	16.537	985.944	749.436
96.943	16.546	985.448	749.030
97.957	16.631	983.971	748.219
98.972	16.418	983.758	747.045
99.987	16.533	982.755	746.728
101.001	16.440	982.098	745.752
102.016	16.558	981.381	745.660
103.030	16.534	980.292	744.663
104.045	16.497	979.431	743.779
105.060	16.545	978.380	743.128
106.074	16.461	977.416	741.958
107.089	16.230	976.944	740.523
108.103	16.034	975.715	738.666
109.118	15.972	974.521	737.428
110.133	15.955	974.091	736.963
111.147	16.062	972.800	736.388
112.162	15.951	972.235	735.408
113.176	16.090	971.392	735.312
114.191	16.063	970.549	734.493
115.206	16.162	969.948	734.403
116.220	16.205	968.814	733.664
117.235	16.126	968.090	732.710
118.249	16.187	967.081	732.144
119.264	16.219	965.963	731.372
120.279	16.043	965.642	730.304
121.293	15.883	964.898	728.981
122.308	16.103	963.491	728.804
123.322	15.813	963.221	727.282
124.337	15.835	962.033	726.419
125.352	15.678	961.583	725.335
126.366	15.899	960.252	725.221
127.381	15.692	959.029	723.341
128.395	15.877	957.960	723.267
129.410	15.800	957.106	722.226
130.424	15.872	956.682	722.153
131.439	15.970	955.437	721.568
132.454	16.067	954.542	721.245
133.468	16.237	953.855	721.387
134.483	16.315	952.983	721.000
135.497	16.129	952.450	719.738
136.512	16.055	951.991	719.013
137.527	16.231	950.988	718.940
138.541	16.223	950.135	718.196
139.556	16.186	949.512	717.505
140.570	16.069	949.142	716.664
141.585	16.247	948.412	716.805
142.600	16.337	947.816	716.673
143.614	16.400	947.052	716.303
144.629	16.519	946.468	716.300
145.643	16.458	945.663	715.369
146.658	16.678	944.581	715.415
147.673	16.517	943.922	714.173
148.687	16.231	943.320	712.449
149.702	16.232	941.698	711.165
150.716	16.232	940.943	710.531
151.731	16.227	940.046	709.769
152.746	16.328	939.088	709.407
153.760	16.261	939.016	709.011
154.775	16.271	937.809	708.080
155.789	16.432	937.282	708.291
156.804	16.526	936.384	707.943
157.819	16.280	936.133	706.662
158.833	16.692	935.062	707.512
159.848	16.568	934.751	706.697
160.862	16.574	934.095	706.166
161.877	16.527	933.294	705.300
162.892	16.371	932.479	703.972
163.906	16.193	931.340	702.310
164.921	16.240	930.587	701.875
165.935	16.331	929.259	701.188
166.950	16.298	928.456	700.383
167.964	16.287	927.909	699.862
168.979	16.315	927.113	699.316
169.994	16.388	925.902	698.645
171.008	16.367	924.832	697.687
172.023	16.461	924.151	697.502
173.037	16.601	923.640	697.630
174.052	16.682	922.975	697.401
175.067	16.492	922.413	696.131
176.081	16.389	921.541	694.988
177.096	16.303	920.364	693.686
178.110	16.306	919.983	693.348
179.125	16.426	918.570	692.715
180.140	16.374	918.228	692.184
181.154	16.366	917.438	691.494
182.169	16.398	917.236	691.413
183.183	16.547	916.979	691.767
184.198	16.528	916.167	691.014
185.213	16.714	915.302	691.060
186.227	16.598	915.108	690.379
187.242	16.789	914.269	690.462
188.256	16.786	913.545	689.844
189.271	16.903	912.720	689.636
190.286	16.865	912.090	688.945
191.300	16.678	911.106	687.382
192.315	16.382	910.022	685.300
193.329	16.386	909.234	684.665
194.344	16.367	908.614	684.058
195.359	16.406	908.475	684.050
196.373	16.577	907.774	684.154
197.388	16.618	907.594	684.125
198.402	16.722	907.201	684.189
199.417	16.868	906.993	684.562
200.432	17.050	906.206	684.641
201.446	16.993	905.841	684.072
202.461	16.975	905.351	683.571
203.475	17.221	904.709	684.018
204.490	17.155	904.423	683.475
205.504	16.964	903.191	681.713
206.519	16.824	902.545	680.606
207.534	16.970	901.455	680.307
208.548	16.881	900.805	679.398
209.563	16.846	900.208	678.747
210.577	16.974	899.132	678.390
211.592	16.786	899.206	677.636
212.607	17.029	898.543	678.045
213.621	17.234	898.018	678.407
214.636	17.129	897.207	677.317
215.650	17.033	896.518	676.355
216.665	17.140	895.972	676.308
217.680	17.050	895.915	675.846
218.694	17.189	895.351	675.913
219.709	17.275	894.772	675.760
220.723	17.247	894.085	675.069
221.738	17.245	893.161	674.305
222.753	17.114	892.931	673.553
223.767	17.246	891.857	673.206
224.782	17.228	891.097	672.502
225.796	17.457	890.464	672.869
226.811	17.397	889.769	672.047
227.826	17.311	889.243	671.250
228.840	17.206	888.558	670.262
229.855	17.179	887.734	669.474
230.869	17.134	887.268	668.884
231.884	17.155	886.591	668.398
232.899	17.185	885.551	667.671
233.913	17.103	885.067	666.928
234.928	17.045	884.481	666.198
235.942	16.929	884.100	665.399
236.957	16.982	883.171	664.849
237.972	17.142	882.514	664.922
238.986	17.143	881.702	664.254
240.001	17.117	880.910	663.497
241.015	17.051	880.743	663.054
242.030	17.275	879.759	663.127
243.045	17.152	879.415	662.330
244.059	17.211	878.680	661.948
245.074	17.248	878.246	661.706
246.088	17.521	877.150	661.882
247.103	17.417	876.925	661.252
248.117	17.499	876.517	661.203
249.132	17.480	876.261	660.877
250.147	17.596	875.736	660.876
251.161	17.886	874.827	661.253
252.176	18.050	874.245	661.391
253.190	17.950	873.612	660.465
254.205	17.874	873.403	659.955
255.220	17.940	872.862	659.744
256.234	17.991	871.998	659.228
257.249	17.904	871.478	658.443
258.263	17.962	870.783	658.083
259.278	18.045	870.021	657.766
260.293	18.011	869.598	657.260
261.307	18.004	869.013	656.731
262.322	17.998	868.988	656.630
263.336	18.284	867.653	656.662
264.351	18.142	867.622	656.034
265.366	18.299	866.083	655.413
266.380	18.102	866.431	654.866
267.395	18.199	865.577	654.534
268.409	18.166	864.733	653.709
269.424	17.963	863.931	652.272
270.439	18.208	863.277	652.655
271.453	18.113	862.636	651.750
272.468	17.945	861.980	650.557
273.482	18.027	861.214	650.231
274.497	17.952	860.908	649.660
275.512	18.030	860.444	649.549
276.526	18.040	859.090	648.508
277.541	18.083	858.599	648.240
278.555	17.896	858.472	647.378
279.570	18.071	858.081	647.690
280.585	18.180	857.226	647.401
281.599	18.240	856.963	647.373
282.614	18.053	856.476	646.240
283.628	18.112	855.449	645.631
284.643	18.205	854.763	645.408
285.657	18.107	853.981	644.389
286.672	18.109	853.913	644.290
287.687	18.128	853.165	643.740
288.701	18.244	852.739	643.796
289.716	18.236	851.847	643.037
290.730	18.183	851.270	642.344
291.745	18.249	850.975	642.312
292.760	18.265	850.657	642.075
293.774	18.358	849.705	641.648
294.789	18.328	849.388	641.241
295.803	18.512	848.436	641.154
296.818	18.499	847.393	640.260
297.833	18.167	846.798	638.515
298.847	18.307	846.470	638.731
299.862	18.347	845.410	638.026
300.876	18.352	845.195	637.826
301.891	18.302	844.330	636.932
302.906	18.529	843.874	637.375
303.920	18.602	843.222	637.098
304.935	18.614	842.741	636.721
305.949	18.765	842.453	637.007
306.964	18.560	841.883	635.759
307.979	18.644	841.213	635.508
308.993	18.624	840.646	634.949
310.008	18.646	840.069	634.541
311.022	18.621	839.400	633.887
312.037	18.620	839.091	633.594
313.052	18.662	838.427	633.190
314.066	18.585	837.522	632.166
315.081	18.432	837.120	631.245
316.095	18.323	836.339	630.197
317.110	18.362	836.323	630.275
318.125	18.401	835.721	629.908
319.139	18.385	834.979	629.234
320.154	18.345	834.467	628.647
321.168	18.512	833.757	628.667
322.183	18.351	833.466	627.802
323.197	18.410	833.061	627.659
324.212	18.496	832.209	627.276
325.227	18.721	831.549	627.546
326.241	18.604	831.238	626.826
327.256	18.539	830.579	626.038
328.270	18.563	830.286	625.850
329.285	18.564	829.864	625.480
330.300	18.532	828.969	624.634
331.314	18.570	828.544	624.395
332.329	18.559	828.143	623.998
333.343	18.655	827.435	623.759
334.358	18.715	826.979	623.578
335.373	18.700	826.313	622.965
336.387	18.811	825.611	622.782
337.402	18.800	825.301	622.454
338.416	19.025	824.825	622.855
339.431	19.008	824.493	622.487
340.446	19.021	823.788	621.948
341.460	18.980	823.326	621.396
342.475	19.251	823.057	622.115
343.489	19.124	822.316	621.043
344.504	19.242	821.786	621.014
345.519	19.366	820.922	620.753
346.533	19.294	820.576	620.176
347.548	19.227	820.421	619.763
348.562	19.230	819.252	618.835
349.577	19.142	818.923	618.217
350.592	19.014	818.412	617.315
351.606	18.896	818.081	616.589
352.621	18.827	817.664	615.974
353.635	18.868	817.218	615.729
354.650	18.941	816.767	615.596
355.665	18.910	816.424	615.172
356.679	19.002	815.702	614.903
357.694	19.030	815.526	614.816
358.708	19.141	814.939	614.717
359.723	19.155	814.206	614.159
360.738	19.048	813.785	613.404
361.752	19.042	813.280	612.949
362.767	18.992	812.671	612.255
363.781	19.279	812.524	613.114
364.796	19.309	812.190	612.913
365.810	19.577	811.603	613.367
366.825	19.483	811.413	612.835
367.840	19.826	810.891	613.606
368.854	19.493	810.792	612.294
369.869	19.447	810.171	611.607
370.883	19.489	809.452	611.162
371.898	19.465	809.037	610.710
372.913	19.710	807.975	610.716
373.927	19.602	807.675	610.057
374.942	19.518	807.058	609.239
375.956	19.499	806.405	608.625
376.971	19.674	805.878	608.789
377.986	19.775	805.368	608.706
379.000	19.696	805.153	608.213
380.015	19.846	804.643	608.301
381.029	19.673	804.006	607.159
382.044	19.822	803.033	606.892
383.059	19.701	802.909	606.320
384.073	19.868	802.184	606.303
385.088	19.787	801.886	605.741
386.102	19.573	801.271	604.475
387.117	19.493	800.543	603.591
388.132	19.453	800.219	603.156
389.146	19.592	799.697	603.194
390.161	19.655	799.198	602.985
391.175	19.615	798.807	602.495
392.190	19.684	798.734	602.627
393.205	19.727	798.247	602.358
394.219	19.709	797.612	601.761
395.234	19.758	796.947	601.376
396.248	19.812	796.392	601.092
397.263	19.511	796.197	599.846
398.278	19.423	795.417	598.901
399.292	19.522	795.074	598.932
400.307	19.708	794.471	599.071
401.321	19.534	794.125	598.154
402.336	19.606	793.799	598.104
403.350	19.622	793.545	597.916
404.365	19.487	793.461	597.330
405.380	19.685	792.499	597.240
406.394	19.830	792.430	597.634
407.409	20.061	791.838	597.935
408.423	19.898	791.751	597.253
409.438	20.095	790.828	597.182
410.453	20.168	790.459	597.104
411.467	20.036	790.462	596.598
412.482	20.225	789.574	596.524
413.496	20.271	789.058	596.238
414.511	20.303	789.115	596.339
415.526	20.238	788.647	595.710
416.540	20.224	788.288	595.337
417.555	20.209	787.747	594.824
418.569	20.253	787.163	594.483
419.584	20.145	786.728	593.731
420.599	20.159	786.396	593.476
421.613	162.286	1370.479	1796.454
422.628	140.476	1455.563	1796.552
