DTS Sentinel unit serial number:	SN413079Multiplexer serial number:	ORYXHardware model number:	OX4-SRSoftware version number:	ORYX F/W v4.00 Oryx Data Collector v3.7.2.0data status	okinstallation	princeton_trtdifferential loss correction	single-endedforward channel	channel 3reverse channel	N/Adate	2019/09/18time	10:44:35forward acquisition time	60.00reverse acquisition time	0.00gamma	496.2192k internal	0.2328k external	0.2328temperature offset calibration	0.9955default loss term (dB/km)	0.3790temperature slope calibration	1.0000multiplexer offset coefficient	1.0000multiplexer slope coefficient	1.0000fibre end	0.00T internal ref (°C)	28.83T ext. ref 1 (°C)	0.37T ext. ref 2 (°C)	25.46length (m)	temperature (°C)	Stokes	anti-Stokes-747.200	594.991	-0.226	0.564
-746.185	172.429	-0.226	0.328
-745.171	800.000	0.033	-0.115
-744.156	-200.000	0.057	0.334
-743.142	-200.000	0.024	0.152
-742.127	-115.223	-0.255	0.049
-741.112	-200.000	-0.090	-0.000
-740.098	-45.484	-0.134	0.067
-739.083	-47.745	-0.133	0.065
-738.069	-36.704	0.248	0.134
-737.054	-4.150	0.142	-0.099
-736.039	-43.514	-0.146	-0.074
-735.025	800.000	0.021	-0.065
-734.010	-196.897	-0.306	-0.002
-732.996	13.068	-0.141	0.110
-731.981	402.371	0.145	-0.308
-730.966	-28.111	0.047	0.027
-729.952	-60.106	0.194	0.083
-728.937	-200.000	0.003	0.122
-727.923	18.982	-0.194	0.156
-726.908	-200.000	0.023	-0.192
-725.894	-151.780	0.272	0.020
-724.879	-35.283	0.236	0.129
-723.864	-70.360	-0.177	0.068
-722.850	-68.421	-0.010	-0.004
-721.835	-137.783	0.292	-0.033
-720.821	172.256	-0.136	-0.197
-719.806	-109.755	-0.124	-0.026
-718.791	739.998	0.063	-0.171
-717.777	455.771	-0.127	-0.285
-716.762	-154.087	-0.164	0.011
-715.748	800.000	-0.080	-0.227
-714.733	-122.941	-0.538	0.087
-713.718	-200.000	0.006	-0.171
-712.704	-87.186	-0.417	0.127
-711.689	444.255	0.138	0.305
-710.675	-78.700	-0.133	0.046
-709.660	97.188	-0.273	-0.316
-708.645	45.321	0.221	-0.205
-707.631	800.000	-0.118	-0.422
-706.616	344.362	0.082	0.161
-705.602	-74.304	-0.351	-0.128
-704.587	-200.000	-0.039	0.202
-703.572	74.884	0.116	0.123
-702.558	-8.274	-0.236	-0.160
-701.543	-200.000	-0.006	0.150
-700.529	226.004	-0.124	-0.202
-699.514	-79.164	-0.315	-0.107
-698.499	243.099	-0.086	-0.144
-697.485	191.350	0.266	-0.403
-696.470	-200.000	0.002	0.068
-695.456	360.457	0.117	-0.235
-694.441	-105.059	0.349	-0.080
-693.426	-200.000	0.021	0.220
-692.412	9.140	-0.233	-0.177
-691.397	490.797	0.073	-0.168
-690.383	-161.162	0.171	0.009
-689.368	-44.456	-0.302	-0.152
-688.354	28.502	0.245	-0.209
-687.339	-47.585	-0.057	-0.028
-686.324	-31.146	0.020	-0.011
-685.310	114.882	0.089	-0.109
-684.295	-73.389	0.161	0.059
-683.281	-61.822	-0.234	0.098
-682.266	-200.000	0.020	-0.243
-681.251	-58.573	-0.147	-0.064
-680.237	336.150	-0.189	-0.369
-679.222	87.179	-0.275	0.306
-678.208	474.834	0.145	-0.330
-677.193	-200.000	-0.019	-0.173
-676.178	-98.899	-0.184	0.047
-675.164	194.563	-0.035	0.053
-674.149	-173.051	0.016	-0.001
-673.135	-160.521	0.114	0.006
-672.120	-113.968	-0.293	0.057
-671.105	-114.168	-0.107	0.021
-670.091	-81.904	-0.291	-0.096
-669.076	-102.423	0.298	0.072
-668.062	-144.821	-0.223	-0.021
-667.047	800.000	0.012	0.048
-666.032	-200.000	-0.005	-0.318
-665.018	145.601	-0.177	-0.239
-664.003	800.000	-0.066	-0.231
-662.989	800.000	0.011	-0.041
-661.974	240.623	-0.050	-0.084
-660.959	-74.291	-0.180	0.065
-659.945	93.745	-0.116	0.131
-658.930	-81.344	0.145	0.048
-657.916	155.056	0.130	-0.180
-656.901	477.232	0.055	-0.125
-655.886	-91.719	0.038	-0.011
-654.872	647.795	-0.022	0.056
-653.857	177.883	-0.195	0.286
-652.843	-200.000	-0.018	0.232
-651.828	121.811	-0.122	0.153
-650.814	-56.055	0.164	0.073
-649.799	217.029	0.096	0.153
-648.784	-55.501	0.103	-0.047
-647.770	-148.817	0.269	0.022
-646.755	462.075	-0.102	0.229
-645.741	-22.886	-0.269	0.163
-644.726	-43.307	-0.168	0.085
-643.711	-38.767	-0.071	0.038
-642.697	160.825	-0.076	-0.106
-641.682	-200.000	-0.002	0.129
-640.668	56.204	-0.257	0.251
-639.653	310.048	0.141	0.265
-638.638	736.769	0.023	-0.063
-637.624	88.360	-0.104	-0.116
-636.609	-200.000	-0.025	0.117
-635.595	49.633	0.131	0.123
-634.580	-200.000	0.019	-0.195
-633.565	800.000	-0.077	-0.290
-632.551	800.000	0.037	-0.104
-631.536	-76.721	0.144	-0.051
-630.522	161.913	-0.136	-0.192
-629.507	180.853	-0.211	-0.311
-628.492	-53.854	0.379	0.174
-627.478	-21.206	0.424	0.260
-626.463	7.685	0.110	-0.083
-625.449	-200.000	0.043	0.203
-624.434	-166.041	0.130	-0.006
-623.419	457.385	-0.057	-0.128
-622.405	-200.000	-0.033	-0.224
-621.390	-161.357	0.084	-0.004
-620.376	9.157	-0.106	0.081
-619.361	268.968	-0.192	-0.338
-618.346	800.000	0.029	-0.090
-617.332	76.491	0.287	0.305
-616.317	93.060	-0.163	0.184
-615.303	-200.000	0.017	0.168
-614.288	-113.270	0.599	-0.118
-613.273	-200.000	-0.027	0.163
-612.259	-132.463	-0.264	-0.034
-611.244	-159.670	-0.202	-0.011
-610.230	57.544	-0.245	0.240
-609.215	-21.637	0.108	-0.066
-608.201	-2.927	-0.312	-0.219
-607.186	-200.000	-0.045	-0.429
-606.171	-200.000	0.015	0.212
-605.157	800.000	-0.080	0.326
-604.142	800.000	0.099	0.294
-603.128	-49.622	0.223	-0.106
-602.113	-17.772	-0.048	-0.030
-601.098	-85.090	-0.079	0.025
-600.084	800.000	0.045	-0.140
-599.069	-88.637	-0.166	0.050
-598.055	-84.792	0.334	0.105
-597.040	3.636	-0.079	0.058
-596.025	800.000	-0.050	0.162
-595.011	321.546	-0.114	0.217
-593.996	-151.222	-0.381	-0.029
-592.982	-15.889	0.031	-0.019
-591.967	-14.540	-0.084	0.054
-590.952	-58.583	-0.194	-0.084
-589.938	800.000	-0.145	0.444
-588.923	-70.661	-0.343	0.130
-587.909	-200.000	0.013	0.183
-586.894	663.488	0.073	0.189
-585.879	682.643	-0.069	0.179
-584.865	538.776	-0.109	-0.259
-583.850	-82.587	-0.269	-0.087
-582.836	64.203	-0.044	-0.044
-581.821	-14.944	0.187	-0.120
-580.806	348.159	0.099	0.195
-579.792	-200.000	-0.005	0.153
-578.777	-200.000	-0.021	0.229
-577.763	-95.749	-0.181	0.048
-576.748	-200.000	0.050	-0.299
-575.733	800.000	-0.026	0.088
-574.719	-41.724	-0.140	0.072
-573.704	31.228	-0.136	0.116
-572.690	-94.810	-0.191	0.052
-571.675	11.976	0.121	-0.093
-570.661	-200.000	0.011	-0.354
-569.646	145.863	0.110	0.148
-568.631	513.184	-0.104	0.243
-567.617	-103.416	-0.044	-0.010
-566.602	-200.000	-0.005	-0.118
-565.588	-61.609	-0.127	-0.053
-564.573	48.279	-0.204	0.191
-563.558	101.936	0.081	-0.095
-562.544	70.309	0.183	0.189
-561.529	800.000	-0.065	0.262
-560.515	-107.801	-0.222	0.048
-559.500	206.944	0.125	0.195
-558.485	-113.903	0.198	0.039
-557.471	430.722	-0.067	-0.146
-556.456	387.208	0.251	-0.520
-555.442	-92.124	-0.143	-0.040
-554.427	-200.000	-0.013	-0.164
-553.412	800.000	-0.040	-0.118
-552.398	173.689	-0.282	0.408
-551.383	800.000	0.074	-0.226
-550.369	-38.039	0.393	0.209
-549.354	2.560	-0.079	-0.057
-548.339	-5.798	-0.308	-0.211
-547.325	74.901	-0.138	-0.145
-546.310	218.907	-0.043	-0.068
-545.296	606.840	0.044	0.110
-544.281	-89.116	-0.157	-0.046
-543.266	-143.374	-0.112	-0.011
-542.252	-154.433	0.256	0.017
-541.237	-155.928	-0.227	0.014
-540.223	-79.529	-0.297	-0.100
-539.208	221.335	0.166	-0.266
-538.193	800.000	-0.050	-0.189
-537.179	-104.374	0.139	0.032
-536.164	-15.207	-0.104	-0.067
-535.150	175.962	-0.080	-0.117
-534.135	404.081	-0.104	0.219
-533.121	-115.359	0.093	0.018
-532.106	8.317	-0.108	-0.081
-531.091	-85.185	-0.173	0.054
-530.077	-103.069	-0.099	0.024
-529.062	132.228	-0.054	-0.069
-528.048	-114.548	0.239	-0.046
-527.033	-109.347	0.164	0.035
-526.018	800.000	-0.080	0.284
-525.004	-13.021	0.233	0.151
-523.989	-200.000	0.054	-0.321
-522.975	69.994	-0.093	-0.096
-521.960	98.724	0.063	-0.072
-520.945	-145.205	-0.288	-0.026
-519.931	17.002	-0.095	-0.075
-518.916	-88.623	-0.319	-0.095
-517.902	-117.703	-0.222	0.040
-516.887	-200.000	0.016	-0.471
-515.872	-150.211	0.333	-0.026
-514.858	343.811	0.110	0.215
-513.843	-200.000	-0.065	0.296
-512.829	-200.000	0.006	-0.112
-511.814	-200.000	-0.012	0.052
-510.799	-8.080	0.227	-0.153
-509.785	-130.937	-0.106	0.014
-508.770	64.659	-0.238	0.239
-507.756	-69.949	-0.163	0.062
-506.741	-178.564	-0.222	0.005
-505.726	-200.000	-0.037	-0.178
-504.712	-77.330	-0.160	-0.056
-503.697	-86.062	0.288	-0.089
-502.683	4.624	-0.083	-0.061
-501.668	436.841	0.091	0.197
-500.653	482.800	0.118	0.268
-499.639	-106.643	0.223	-0.049
-498.624	800.000	-0.083	0.316
-497.610	228.611	0.039	-0.064
-496.595	13.961	-0.125	-0.097
-495.581	294.882	0.079	-0.145
-494.566	-54.979	-0.066	-0.030
-493.551	138.728	-0.107	-0.140
-492.537	73.850	0.284	0.297
-491.522	-122.801	0.238	-0.038
-490.508	343.814	0.088	0.173
-489.493	800.000	0.068	0.226
-488.478	-200.000	-0.078	-0.348
-487.464	312.485	0.052	0.097
-486.449	-73.283	0.062	0.022
-485.435	82.077	-0.136	-0.147
-484.420	-80.174	0.264	-0.088
-483.405	383.612	-0.094	0.192
-482.391	-94.112	-0.375	-0.103
-481.376	-66.949	0.322	-0.127
-480.362	-3.970	-0.020	0.014
-479.347	-83.098	0.289	-0.093
-478.332	-33.432	-0.202	-0.111
-477.318	-200.000	-0.009	-0.054
-476.303	800.000	0.047	-0.153
-475.289	64.790	-0.156	0.157
-474.274	-32.568	-0.111	-0.062
-473.259	800.000	0.078	-0.237
-472.245	37.638	0.322	0.285
-471.230	-54.990	0.043	-0.019
-470.216	-200.000	0.009	0.045
-469.201	800.000	0.059	0.225
-468.186	141.253	0.093	0.123
-467.172	738.087	0.068	0.183
-466.157	179.822	0.054	0.078
-465.143	-44.028	-0.385	0.193
-464.128	445.971	-0.048	-0.104
-463.113	9.534	-0.210	0.158
-462.099	-174.531	0.049	0.001
-461.084	-200.000	0.004	0.083
-460.070	19.740	0.183	-0.147
-459.055	-200.000	0.023	0.128
-458.040	-109.841	-0.349	0.073
-457.026	-130.704	-0.131	0.018
-456.011	189.245	-0.122	0.182
-454.997	-132.621	0.258	-0.033
-453.982	110.257	0.149	0.178
-452.968	125.439	0.202	0.254
-451.953	-200.000	0.008	-0.120
-450.938	-83.952	-0.102	-0.032
-449.924	159.243	-0.182	-0.252
-448.909	800.000	-0.068	0.240
-447.895	157.212	0.056	0.077
-446.880	20.121	-0.078	-0.062
-445.865	800.000	-0.048	0.163
-444.851	800.000	0.072	0.303
-443.836	-200.000	-0.032	-0.329
-442.822	-39.647	-0.346	-0.181
-441.807	-170.767	0.179	0.006
-440.792	800.000	-0.047	-0.194
-439.778	-90.506	0.214	0.062
-438.763	4.711	0.091	-0.066
-437.749	11.446	0.268	0.205
-436.734	354.240	-0.107	-0.211
-435.719	-59.231	-0.173	0.074
-434.705	-147.435	-0.075	-0.006
-433.690	18.588	-0.186	-0.148
-432.676	124.653	-0.102	0.128
-431.661	-200.000	-0.016	0.345
-430.646	-200.000	-0.004	0.121
-429.632	165.447	-0.062	-0.087
-428.617	800.000	0.108	-0.326
-427.603	-33.527	0.125	0.069
-426.588	-142.484	0.257	-0.025
-425.573	171.808	0.223	0.319
-424.559	141.865	0.096	-0.127
-423.544	-200.000	0.017	-0.143
-422.530	272.696	0.175	0.307
-421.515	-161.485	0.149	0.008
-420.500	53.470	-0.255	-0.244
-419.486	-122.737	0.006	-0.001
-418.471	-118.470	-0.164	0.029
-417.457	39.746	-0.133	-0.119
-416.442	-200.000	0.024	0.113
-415.428	-200.000	0.056	-0.248
-414.413	800.000	-0.046	0.165
-413.398	-200.000	-0.104	0.000
-412.384	800.000	0.037	0.128
-411.369	16.969	-0.243	0.192
-410.355	-200.000	-0.035	0.174
-409.340	-89.232	-0.472	0.139
-408.325	-16.479	0.255	-0.161
-407.311	-200.000	-0.000	-0.265
-406.296	-39.384	-0.121	0.063
-405.282	-19.854	-0.389	0.239
-404.267	4.297	0.023	0.017
-403.252	800.000	0.075	0.208
-402.238	800.000	0.039	-0.120
-401.223	101.907	0.055	-0.064
-400.209	494.298	-0.088	-0.201
-399.194	-56.197	-0.119	0.053
-398.179	-86.320	-0.110	0.034
-397.165	20.656	-0.137	0.110
-396.150	470.141	0.156	-0.349
-395.136	-200.000	0.032	0.371
-394.121	70.483	0.200	-0.205
-393.106	-200.000	-0.034	-0.220
-392.092	-44.585	-0.178	0.088
-391.077	-200.000	0.067	0.351
-390.063	-79.146	0.206	0.069
-389.048	194.712	0.198	-0.298
-388.033	800.000	0.032	0.093
-387.019	683.162	0.051	0.132
-386.004	-52.464	-0.306	0.141
-384.990	-14.604	0.370	-0.237
-383.975	3.905	-0.217	-0.158
-382.960	-93.498	0.228	-0.063
-381.946	-118.745	0.155	-0.027
-380.931	115.365	-0.196	-0.238
-379.917	-41.074	-0.092	0.047
-378.902	-109.941	-0.104	-0.022
-377.888	533.134	0.168	0.395
-376.873	-111.897	-0.134	-0.027
-375.858	-137.461	0.073	-0.008
-374.844	106.472	0.182	0.214
-373.829	-145.060	0.111	0.010
-372.815	-185.700	0.302	0.005
-371.800	-164.022	0.201	0.009
-370.785	-95.166	-0.171	-0.046
-369.771	-200.000	-0.028	-0.298
-368.756	-148.961	0.168	0.013
-367.742	-62.297	0.077	-0.032
-366.727	355.375	-0.091	0.179
-365.712	800.000	-0.084	0.281
-364.698	-147.651	-0.242	0.020
-363.683	223.213	0.076	-0.122
-362.669	-144.410	-0.249	-0.023
-361.654	-200.000	-0.003	-0.139
-360.639	-79.758	-0.027	-0.009
-359.625	136.188	0.169	-0.218
-358.610	67.929	-0.235	0.238
-357.596	36.929	-0.037	-0.033
-356.581	-69.287	0.162	-0.062
-355.566	-200.000	0.028	0.185
-354.552	-106.692	0.102	0.023
-353.537	-82.847	0.209	0.067
-352.523	-42.381	0.315	0.159
-351.508	41.619	0.111	-0.100
-350.493	-54.258	0.156	-0.070
-349.479	-52.670	-0.333	0.153
-348.464	-46.234	0.250	0.122
-347.450	779.360	-0.070	0.189
-346.435	216.648	-0.057	0.090
-345.420	-84.522	-0.262	0.082
-344.406	8.059	0.259	0.193
-343.391	-200.000	0.035	0.265
-342.377	800.000	-0.033	0.113
-341.362	-196.291	0.377	-0.003
-340.348	99.612	-0.183	-0.210
-339.333	102.699	0.172	-0.200
-338.318	-200.000	-0.112	0.493
-337.304	144.116	0.140	0.186
-336.289	-200.000	0.042	-0.306
-335.275	421.580	-0.066	0.140
-334.260	256.851	0.132	0.225
-333.245	88.250	-0.295	-0.325
-332.231	-90.186	0.140	-0.040
-331.216	-12.899	0.280	0.181
-330.202	-32.260	-0.396	-0.219
-329.187	-200.000	-0.053	0.521
-328.172	-200.000	-0.199	-0.001
-327.158	800.000	0.035	-0.125
-326.143	127.158	0.042	0.053
-325.129	800.000	0.083	0.230
-324.114	-69.308	-0.148	0.056
-323.099	-149.415	-0.383	-0.030
-322.085	295.830	-0.119	-0.216
-321.070	-200.000	0.021	-0.306
-320.056	-57.997	0.055	-0.024
-319.041	115.247	-0.151	-0.183
-318.026	25.872	0.338	-0.279
-317.012	-200.000	0.002	-0.147
-315.997	49.211	0.135	-0.126
-314.983	-169.575	-0.191	-0.007
-313.968	-200.000	0.020	-0.127
-312.953	395.369	-0.094	0.195
-311.939	93.541	0.029	0.032
-310.924	-69.624	0.172	-0.065
-309.910	800.000	-0.024	0.077
-308.895	-200.000	-0.017	-0.110
-307.880	800.000	-0.047	0.147
-306.866	-200.000	-0.003	-0.065
-305.851	64.109	-0.116	-0.116
-304.837	763.538	0.040	0.107
-303.822	-77.483	0.402	-0.138
-302.807	-72.396	-0.392	0.144
-301.793	-151.421	-0.273	0.020
-300.778	-34.068	0.196	-0.107
-299.764	-127.736	0.148	0.021
-298.749	-200.000	0.031	0.232
-297.735	-200.000	0.025	0.318
-296.720	157.140	-0.198	-0.272
-295.705	-85.972	-0.279	0.085
-294.691	-36.435	-0.111	-0.059
-293.676	98.805	0.255	-0.292
-292.662	124.196	0.074	0.093
-291.647	29.392	0.284	-0.239
-290.632	-123.306	-0.204	0.032
-289.618	-44.829	0.171	-0.084
-288.603	-31.682	-0.056	-0.031
-287.589	-34.263	-0.158	0.086
-286.574	322.311	0.175	-0.329
-285.559	-92.161	-0.449	-0.126
-284.545	-172.419	-0.154	0.005
-283.530	24.815	0.074	-0.061
-282.516	124.304	0.197	0.245
-281.501	176.219	-0.020	0.028
-280.486	-114.842	-0.412	0.078
-279.472	397.552	0.083	0.172
-278.457	-117.443	0.240	-0.043
-277.443	-86.351	0.303	0.092
-276.428	131.929	0.121	-0.154
-275.413	100.302	0.043	-0.049
-274.399	-200.000	0.030	0.169
-273.384	-51.606	-0.089	-0.041
-272.370	127.508	-0.167	-0.210
-271.355	45.293	0.234	-0.214
-270.340	-144.308	-0.091	-0.008
-269.326	40.206	-0.153	0.136
-268.311	-181.508	0.318	-0.006
-267.297	800.000	0.106	-0.408
-266.282	800.000	-0.041	-0.136
-265.267	-4.810	0.136	-0.093
-264.253	-200.000	-0.038	-0.384
-263.238	270.521	-0.081	-0.141
-262.224	295.686	-0.173	0.313
-261.209	99.326	0.096	0.110
-260.195	195.545	0.231	0.347
-259.180	-119.324	-0.056	-0.010
-258.165	-129.932	0.088	0.012
-257.151	-200.000	-0.009	-0.335
-256.136	-87.575	0.183	0.055
-255.122	-85.765	-0.098	0.030
-254.107	98.584	0.250	-0.285
-253.092	-47.567	-0.113	0.054
-252.078	-117.956	0.185	-0.033
-251.063	-42.066	0.194	-0.098
-250.049	291.660	0.045	0.081
-249.034	745.011	0.075	-0.198
-248.019	-177.858	0.459	-0.011
-247.005	39.794	0.250	-0.221
-245.990	1.489	0.115	-0.082
-244.976	60.959	-0.097	0.096
-243.961	7.025	0.233	0.172
-242.946	246.581	0.161	-0.268
-241.932	800.000	-0.076	-0.235
-240.917	800.000	-0.026	0.088
-239.903	-200.000	0.042	-0.275
-238.888	-200.000	-0.036	-0.168
-237.873	382.285	0.129	-0.262
-236.859	88.717	0.245	0.269
-235.844	570.394	0.035	-0.085
-234.830	-200.000	-0.031	0.253
-233.815	800.000	0.041	0.158
-232.800	-200.000	0.021	-0.128
-231.786	800.000	0.046	0.191
-230.771	32.579	0.216	0.185
-229.757	103.005	-0.041	-0.047
-228.742	-52.158	0.148	-0.068
-227.727	29.297	-0.275	-0.231
-226.713	560.695	-0.119	-0.283
-225.698	-200.000	0.019	0.196
-224.684	800.000	-0.056	-0.215
-223.669	-200.000	-0.012	0.068
-222.655	-129.689	-0.114	-0.016
-221.640	800.000	0.080	-0.278
-220.625	475.538	-0.085	-0.189
-219.611	164.323	0.272	0.378
-218.596	4.099	0.275	-0.199
-217.582	149.333	-0.043	0.058
-216.567	-109.641	-0.214	-0.045
-215.552	-125.703	0.134	-0.020
-214.538	-78.374	0.177	0.060
-213.523	105.330	-0.086	0.101
-212.509	32.958	-0.145	0.124
-211.494	13.632	-0.120	-0.092
-210.479	-163.627	0.040	-0.002
-209.465	-75.700	-0.358	-0.126
-208.450	519.296	-0.079	-0.183
-207.436	296.573	-0.109	-0.197
-206.421	800.000	0.067	0.213
-205.406	800.000	0.061	0.236
-204.392	317.528	0.075	-0.141
-203.377	-96.178	0.161	0.042
-202.363	-128.874	-0.118	0.016
-201.348	-108.357	0.157	-0.033
-200.333	-200.000	0.024	0.371
-199.319	-36.541	-0.216	-0.115
-198.304	117.972	-0.084	-0.102
-197.290	252.429	-0.167	0.281
-196.275	-74.192	-0.075	-0.027
-195.260	-120.775	0.156	0.026
-194.246	-159.022	-0.160	0.009
-193.231	247.148	0.234	-0.390
-192.217	-200.000	0.001	0.036
-191.202	112.163	-0.199	-0.237
-190.187	-95.290	0.155	-0.041
-189.173	127.622	-0.088	-0.111
-188.158	30.687	0.126	-0.106
-187.144	-200.000	0.008	-0.063
-186.129	-200.000	-0.018	0.176
-185.114	-128.824	0.188	-0.026
-184.100	187.715	-0.077	-0.114
-183.085	217.892	0.043	-0.067
-182.071	-200.000	-0.019	0.345
-181.056	-61.743	0.059	0.025
-180.042	-107.262	0.328	0.071
-179.027	-31.457	-0.163	0.090
-178.012	90.075	-0.068	-0.075
-176.998	18.475	-0.227	-0.179
-175.983	27.268	0.162	-0.134
-174.969	-66.489	-0.472	-0.185
-173.954	-76.379	-0.211	-0.073
-172.939	-106.846	0.364	-0.080
-171.925	645.053	0.074	-0.186
-170.910	60.272	0.227	-0.221
-169.896	-93.474	0.312	0.085
-168.881	-79.318	0.239	0.080
-167.866	495.743	0.116	0.263
-166.852	-104.156	-0.387	0.089
-165.837	39.564	-0.193	0.170
-164.823	-81.901	-0.094	-0.030
-163.808	160.558	-0.125	-0.172
-162.793	-63.567	-0.047	0.019
-161.779	800.000	-0.053	0.197
-160.764	-200.000	-0.010	0.086
-159.750	135.708	-0.132	-0.169
-158.735	-107.276	0.167	0.036
-157.720	141.083	-0.146	-0.190
-156.706	-0.025	-0.190	0.134
-155.691	-200.000	0.047	0.245
-154.677	-144.746	-0.135	0.012
-153.662	-47.137	0.389	-0.187
-152.647	-200.000	-0.074	-0.346
-151.633	81.629	0.290	-0.309
-150.618	209.664	-0.140	0.215
-149.604	-63.814	-0.081	-0.033
-148.589	-151.192	0.101	-0.007
-147.574	-120.399	0.166	-0.028
-146.560	758.764	0.082	0.220
-145.545	87.647	0.162	-0.177
-144.531	800.000	-0.075	0.277
-143.516	108.574	-0.146	0.172
-142.502	43.268	0.114	-0.102
-141.487	510.285	0.075	-0.171
-140.472	-181.803	-0.288	0.005
-139.458	-200.000	0.030	0.421
-138.443	69.334	-0.265	0.269
-137.429	800.000	-0.061	0.207
-136.414	-4.305	0.202	0.137
-135.399	393.245	-0.134	0.275
-134.385	25.147	-0.163	0.133
-133.370	-103.316	-0.094	0.022
-132.356	800.000	0.077	0.220
-131.341	259.763	0.049	0.084
-130.326	-44.929	-0.133	0.065
-129.312	800.000	-0.066	-0.231
-128.297	-111.545	0.139	-0.028
-127.283	800.000	0.025	-0.076
-126.268	-23.910	-0.248	-0.146
-125.253	-121.901	0.195	-0.032
-124.239	-108.419	-0.196	0.042
-123.224	82.251	0.188	0.201
-122.210	-151.177	0.078	0.006
-121.195	800.000	0.026	-0.108
-120.180	800.000	0.045	-0.150
-119.166	-49.520	-0.115	-0.054
-118.151	9.752	0.090	0.067
-117.137	31.051	0.104	-0.088
-116.122	-200.000	-0.003	-0.127
-115.107	-106.581	-0.323	0.071
-114.093	-118.591	0.191	0.033
-113.078	-28.900	0.343	0.194
-112.064	97.194	-0.034	-0.038
-111.049	449.706	-0.229	-0.496
-110.034	47.657	-0.150	-0.137
-109.020	-49.885	0.177	-0.083
-108.005	-86.442	-0.096	-0.029
-106.991	69.432	0.083	0.084
-105.976	-200.000	-0.004	-0.111
-104.962	-80.262	0.335	-0.110
-103.947	-200.000	-0.003	-0.119
-102.932	800.000	0.037	-0.135
-101.918	-29.406	-0.230	0.129
-100.903	-96.379	-0.426	0.111
-99.889	-146.937	0.330	0.028
-98.874	88.732	-0.258	0.282
-97.859	-200.000	-0.014	0.066
-96.845	-43.095	-0.012	0.006
-95.830	-200.000	-0.008	-0.183
-94.816	-45.568	0.288	-0.140
-93.801	749.475	-0.062	0.165
-92.786	-160.900	0.343	-0.018
-91.772	-137.635	0.131	0.014
-90.757	-56.581	-0.115	-0.050
-89.743	161.992	0.160	-0.221
-88.728	34.455	0.326	-0.280
-87.713	73.660	-0.110	0.113
-86.699	-24.193	0.049	-0.029
-85.684	128.345	0.071	0.089
-84.670	-200.000	0.017	0.136
-83.655	-200.000	0.019	0.296
-82.640	-105.247	0.114	0.026
-81.626	-200.000	-0.053	-0.464
-80.611	38.183	0.186	-0.163
-79.597	77.043	0.153	-0.160
-78.582	-72.581	-0.082	-0.030
-77.567	-191.572	0.262	-0.003
-76.553	2.708	-0.240	-0.171
-75.538	-200.000	0.011	-0.052
-74.524	-37.279	-0.068	0.036
-73.509	-44.454	-0.213	-0.105
-72.494	-71.683	-0.231	-0.085
-71.480	-88.637	0.279	-0.082
-70.465	176.019	0.191	0.272
-69.451	-174.253	0.465	-0.013
-68.436	211.252	0.197	0.304
-67.422	472.682	0.095	0.211
-66.407	200.805	0.054	-0.081
-65.392	-26.431	0.319	-0.184
-64.378	-200.000	-0.008	0.128
-63.363	63.019	-0.261	-0.256
-62.349	-122.459	-0.172	0.027
-61.334	27.024	-1.286	-1.058
-60.319	51.676	0.451	0.420
-59.305	800.000	-0.319	-1.062
-58.290	190.716	0.709	1.045
-57.276	569.391	0.690	1.645
-56.261	-200.000	108.393	576.686
-55.246	412.077	1518.548	3163.756
-54.232	140.149	2722.206	3521.707
-53.217	101.244	2220.609	2535.734
-52.203	38.840	1741.726	1525.672
-51.188	31.896	1554.912	1313.544
-50.173	29.544	1529.140	1275.502
-49.159	49.700	1584.543	1464.088
-48.144	49.754	1601.624	1480.195
-47.130	32.145	1557.651	1317.394
-46.115	29.140	1542.241	1283.406
-45.100	28.974	1539.014	1279.517
-44.086	29.007	1536.864	1277.907
-43.071	28.846	1535.135	1275.303
-42.057	28.882	1533.196	1273.893
-41.042	28.849	1531.648	1272.323
-40.027	28.839	1530.921	1271.600
-39.013	28.743	1529.187	1269.450
-37.998	28.735	1527.985	1268.342
-36.984	28.849	1526.365	1267.732
-35.969	28.763	1524.989	1265.950
-34.954	28.842	1523.848	1265.495
-33.940	28.840	1522.362	1264.199
-32.925	28.869	1520.585	1262.871
-31.911	28.845	1519.832	1262.029
-30.896	28.911	1517.966	1260.881
-29.881	28.885	1517.169	1259.993
-28.867	28.825	1515.889	1258.469
-27.852	28.880	1514.430	1257.585
-26.838	28.826	1513.329	1256.250
-25.823	28.824	1511.724	1254.857
-24.809	28.907	1510.141	1254.061
-23.794	28.901	1508.371	1252.498
-22.779	28.873	1507.261	1251.332
-21.765	28.868	1506.134	1250.317
-20.750	28.876	1505.067	1249.437
-19.736	28.871	1503.983	1248.455
-18.721	28.839	1502.605	1247.040
-17.706	28.790	1502.054	1246.201
-16.692	28.922	1499.831	1245.201
-15.677	28.795	1499.175	1243.751
-14.663	28.785	1498.497	1243.070
-13.648	28.877	1497.135	1242.515
-12.633	28.853	1496.285	1241.597
-11.619	28.818	1495.181	1240.393
-10.604	28.793	1494.515	1239.626
-9.590	28.863	1493.608	1239.295
-8.575	28.807	1493.081	1238.432
-7.560	28.793	1491.853	1237.269
-6.546	28.802	1491.279	1236.803
-5.531	28.714	1490.151	1235.225
-4.517	28.768	1489.076	1234.650
-3.502	28.678	1488.064	1233.159
-2.487	28.706	1486.912	1232.338
-1.473	28.832	1485.886	1232.289
-0.458	28.849	1484.194	1230.945
0.556	27.451	1475.248	1221.541
1.571	24.974	1449.358	1183.652
2.586	21.732	1386.828	1111.948
3.600	20.136	1301.798	1034.164
4.615	18.562	1256.589	989.090
5.629	16.014	1198.696	929.403
6.644	8.075	1111.905	821.268
7.659	1.515	1071.377	758.609
8.673	0.464	1065.871	749.424
9.688	0.518	1062.695	747.393
10.702	0.272	1061.555	745.311
11.717	0.247	1059.375	743.590
12.731	2.785	1061.876	757.827
13.746	10.448	1072.592	803.516
14.761	16.263	1079.087	837.235
15.775	16.828	1079.649	840.395
16.790	16.530	1077.715	837.342
17.804	15.478	1076.130	830.831
18.819	14.703	1073.921	825.227
19.834	14.252	1072.849	822.102
20.848	14.029	1071.578	819.954
21.863	13.690	1070.708	817.548
22.877	13.363	1069.954	815.287
23.892	13.283	1068.966	814.070
24.907	13.101	1068.423	812.688
25.921	13.217	1067.488	812.475
26.936	13.257	1066.917	812.167
27.950	13.156	1066.134	811.002
28.965	13.210	1065.373	810.617
29.980	13.240	1064.648	810.139
30.994	13.365	1063.563	809.851
32.009	13.411	1062.963	809.548
33.023	13.383	1062.319	808.852
34.038	13.398	1061.462	808.198
35.053	13.338	1060.360	806.997
36.067	13.279	1059.610	806.064
37.082	13.379	1058.137	805.360
38.096	13.359	1057.539	804.739
39.111	13.370	1056.938	804.264
40.126	13.360	1055.813	803.289
41.140	13.287	1054.912	802.176
42.155	13.265	1053.869	801.208
43.169	13.153	1053.295	800.158
44.184	13.198	1051.870	799.221
45.199	13.155	1050.667	798.028
46.213	13.182	1049.922	797.523
47.228	13.222	1048.933	796.891
48.242	13.273	1047.945	796.316
49.257	13.286	1047.287	795.808
50.271	13.294	1046.045	794.832
51.286	13.255	1045.410	794.095
52.301	13.249	1044.355	793.192
53.315	13.288	1043.712	792.822
54.330	13.256	1042.608	791.761
55.344	13.295	1041.871	791.317
56.359	13.348	1040.844	790.722
57.374	13.234	1039.880	789.373
58.388	13.212	1039.300	788.758
59.403	13.260	1038.050	787.969
60.417	13.280	1037.283	787.411
61.432	13.221	1036.762	786.664
62.447	13.101	1036.377	785.731
63.461	13.151	1035.191	785.002
64.476	13.034	1034.302	783.705
65.490	13.103	1033.396	783.275
66.505	13.056	1032.470	782.278
67.520	13.142	1031.691	782.030
68.534	13.174	1031.200	781.740
69.549	13.154	1030.297	780.891
70.563	13.058	1029.691	779.906
71.578	13.175	1028.752	779.678
72.593	13.077	1027.911	778.512
73.607	13.147	1026.791	777.925
74.622	13.141	1025.754	777.041
75.636	13.130	1025.197	776.500
76.651	13.044	1024.677	775.635
77.666	12.972	1023.653	774.451
78.680	12.976	1022.919	773.846
79.695	13.018	1022.405	773.585
80.709	13.018	1022.020	773.227
81.724	13.224	1020.716	773.133
82.739	13.037	1020.231	771.823
83.753	13.169	1019.182	771.578
84.768	13.240	1018.161	771.070
85.782	13.306	1017.536	770.836
86.797	13.288	1017.324	770.520
87.812	13.359	1016.232	769.959
88.826	13.150	1015.680	768.501
89.841	13.191	1014.602	767.806
90.855	13.155	1013.816	766.977
91.870	13.329	1012.631	766.817
92.884	13.450	1012.081	766.896
93.899	13.229	1011.906	765.669
94.914	13.345	1010.382	764.985
95.928	13.374	1009.895	764.685
96.943	13.404	1009.358	764.350
97.957	13.535	1008.220	764.021
98.972	13.470	1007.356	762.999
99.987	13.340	1007.092	762.134
101.001	13.304	1006.265	761.278
102.016	13.304	1005.483	760.615
103.030	13.332	1004.531	759.958
104.045	13.360	1003.468	759.213
105.060	13.447	1002.488	758.804
106.074	13.352	1001.427	757.501
107.089	13.292	1000.933	756.784
108.103	13.239	1000.315	756.009
109.118	13.215	998.978	754.819
110.133	13.241	998.173	754.266
111.147	13.231	997.180	753.401
112.162	13.228	996.501	752.810
113.176	13.184	995.345	751.667
114.191	13.421	994.173	751.794
115.206	13.377	993.638	751.123
116.220	13.341	992.780	750.243
117.235	13.149	992.375	749.001
118.249	13.305	991.133	748.704
119.264	13.248	990.594	747.972
120.279	13.178	989.725	746.934
121.293	13.172	988.803	746.148
122.308	13.206	987.969	745.605
123.322	13.236	986.965	744.915
124.337	13.184	985.877	743.794
125.352	13.289	984.634	743.263
126.366	13.078	983.893	741.688
127.381	13.191	982.451	741.042
128.395	13.277	981.827	740.894
129.410	13.206	980.896	739.806
130.424	13.348	979.820	739.563
131.439	13.279	978.937	738.524
132.454	13.326	978.042	737.993
133.468	13.378	976.912	737.310
134.483	13.302	976.670	736.721
135.497	13.267	975.900	735.918
136.512	13.302	975.222	735.500
137.527	13.367	974.103	734.880
138.541	13.251	973.592	733.915
139.556	13.232	973.163	733.441
140.570	13.415	971.808	733.165
141.585	13.465	971.400	733.014
142.600	13.388	970.952	732.268
143.614	13.418	970.218	731.786
144.629	13.416	969.401	731.095
145.643	13.513	968.535	730.805
146.658	13.366	967.927	729.635
147.673	13.329	966.871	728.608
148.687	13.347	966.048	728.006
149.702	13.373	964.969	727.242
150.716	13.353	964.468	726.709
151.731	13.280	963.533	725.624
152.746	13.313	962.864	725.200
153.760	13.465	962.028	725.172
154.775	13.330	961.237	723.920
155.789	13.463	960.211	723.666
156.804	13.483	959.305	723.003
157.819	13.417	958.809	722.279
158.833	13.405	957.888	721.467
159.848	13.537	957.170	721.439
160.862	13.602	956.563	721.201
161.877	13.608	955.648	720.472
162.892	13.497	955.508	719.820
163.906	13.437	954.426	718.683
164.921	13.416	953.395	717.752
165.935	13.403	952.476	716.941
166.950	13.454	951.221	716.151
167.964	13.411	950.519	715.373
168.979	13.569	949.354	715.116
169.994	13.657	948.129	714.511
171.008	13.620	947.420	713.753
172.023	13.680	946.454	713.221
173.037	13.521	946.355	712.398
174.052	13.597	945.382	711.931
175.067	13.598	944.921	711.522
176.081	13.527	943.905	710.390
177.096	13.503	943.122	709.634
178.110	13.511	942.436	709.093
179.125	13.578	941.284	708.447
180.140	13.605	940.774	708.118
181.154	13.559	939.991	707.268
182.169	13.688	939.514	707.399
183.183	13.728	939.156	707.235
184.198	13.784	937.896	706.464
185.213	13.790	936.969	705.728
186.227	13.657	937.091	705.191
187.242	13.740	936.322	704.903
188.256	13.765	935.614	704.414
189.271	13.853	934.576	703.942
190.286	13.757	933.601	702.741
191.300	13.719	933.415	702.378
192.315	13.480	932.568	700.668
193.329	13.500	932.145	700.369
194.344	13.618	931.314	700.182
195.359	13.592	930.518	699.413
196.373	13.751	929.962	699.603
197.388	13.740	929.423	699.090
198.402	13.875	928.960	699.251
199.417	13.909	928.334	698.859
200.432	13.823	928.179	698.318
201.446	13.948	927.308	698.128
202.461	13.932	927.303	697.993
203.475	13.926	927.010	697.686
204.490	14.044	926.005	697.362
205.504	14.017	925.176	696.563
206.519	14.039	924.391	696.005
207.534	13.999	923.381	695.013
208.548	14.013	922.587	694.415
209.563	14.046	921.928	693.993
210.577	13.979	921.448	693.291
211.592	14.003	920.602	692.693
212.607	14.147	920.032	692.805
213.621	14.197	919.945	692.886
214.636	14.097	918.879	691.606
215.650	14.158	918.473	691.492
216.665	14.111	917.608	690.586
217.680	14.272	917.287	690.949
218.694	14.266	916.689	690.413
219.709	14.234	916.055	689.743
220.723	14.372	915.416	689.771
221.738	14.351	914.646	689.045
222.753	14.349	913.651	688.225
223.767	14.311	913.406	687.821
224.782	14.285	912.718	687.137
225.796	14.301	911.707	686.380
226.811	14.378	910.825	685.971
227.826	14.368	910.331	685.500
228.840	14.277	909.992	684.806
229.855	14.304	908.955	684.078
230.869	14.373	908.268	683.785
231.884	14.328	908.001	683.337
232.899	14.384	906.934	682.704
233.913	14.250	906.108	681.471
234.928	14.369	905.596	681.514
235.942	14.250	905.120	680.608
236.957	14.322	904.636	680.480
237.972	14.170	904.017	679.334
238.986	14.247	902.913	678.756
240.001	14.384	902.344	678.826
241.015	14.340	901.763	678.153
242.030	14.421	900.850	677.733
243.045	14.489	900.417	677.623
244.059	14.500	899.963	677.270
245.074	14.523	898.790	676.419
246.088	14.467	898.664	676.037
247.103	14.570	897.798	675.744
248.117	14.578	897.450	675.453
249.132	14.675	896.486	675.059
250.147	14.552	896.234	674.312
251.161	14.677	895.542	674.238
252.176	14.818	894.558	674.006
253.190	14.767	893.959	673.291
254.205	14.762	893.601	672.940
255.220	14.899	893.290	673.200
256.234	14.794	892.455	672.086
257.249	14.871	891.852	671.881
258.263	14.847	891.418	671.401
259.278	14.874	890.536	670.783
260.293	15.058	889.762	670.881
261.307	14.891	889.372	669.856
262.322	14.996	888.774	669.769
263.336	14.980	888.108	669.144
264.351	15.057	887.460	668.905
265.366	15.073	886.974	668.542
266.380	15.113	886.241	668.092
267.395	14.953	885.611	666.919
268.409	15.118	884.877	666.963
269.424	15.154	883.972	666.364
270.439	15.143	883.298	665.757
271.453	15.095	882.672	665.035
272.468	14.963	882.335	664.196
273.482	14.988	881.616	663.694
274.497	15.057	880.696	663.216
275.512	14.965	880.519	662.661
276.526	14.977	879.837	662.137
277.541	15.195	878.417	661.870
278.555	15.086	877.893	660.986
279.570	15.010	878.024	660.725
280.585	15.207	877.122	660.769
281.599	15.164	876.299	659.918
282.614	15.216	875.971	659.819
283.628	15.212	875.341	659.270
284.643	15.306	874.684	659.088
285.657	15.318	874.088	658.624
286.672	15.341	873.482	658.200
287.687	15.272	873.175	657.642
288.701	15.508	872.175	657.753
289.716	15.292	871.892	656.635
290.730	15.275	871.430	656.166
291.745	15.356	870.548	655.760
292.760	15.313	870.071	655.172
293.774	15.366	869.383	654.804
294.789	15.299	868.897	654.120
295.803	15.416	868.071	653.895
296.818	15.441	867.681	653.642
297.833	15.570	866.546	653.228
298.847	15.414	866.236	652.332
299.862	15.345	865.558	651.497
300.876	15.518	864.651	651.428
301.891	15.519	864.241	651.063
302.906	15.531	863.502	650.495
303.920	15.586	862.630	649.993
304.935	15.545	862.113	649.387
305.949	15.582	861.564	649.061
306.964	15.575	861.145	648.660
307.979	15.627	860.359	648.212
308.993	15.694	859.858	648.033
310.008	15.634	859.195	647.247
311.022	15.768	858.801	647.409
312.037	15.660	858.432	646.657
313.052	15.798	857.437	646.382
314.066	15.670	857.046	645.537
315.081	15.644	856.158	644.711
316.095	15.653	855.964	644.542
317.110	15.617	855.499	643.997
318.125	15.697	854.535	643.520
319.139	15.716	854.122	643.227
320.154	15.803	853.464	643.008
321.168	15.720	853.300	642.508
322.183	15.817	852.350	642.105
323.197	15.808	851.907	641.682
324.212	15.879	851.365	641.489
325.227	15.880	850.934	641.108
326.241	15.775	850.212	640.109
327.256	15.737	849.795	639.594
328.270	15.883	849.252	639.685
329.285	15.816	848.802	639.036
330.300	15.765	848.319	638.420
331.314	15.828	847.524	638.005
332.329	15.901	846.944	637.786
333.343	15.843	846.063	636.848
334.358	16.022	845.637	637.150
335.373	15.926	845.166	636.374
336.387	16.066	844.270	636.171
337.402	16.145	843.813	636.068
338.416	16.134	843.142	635.464
339.431	16.020	843.112	634.959
340.446	16.176	842.425	634.972
341.460	16.159	841.677	634.285
342.475	16.179	841.265	633.995
343.489	16.108	841.009	633.480
344.504	16.301	840.347	633.648
345.519	16.169	839.933	632.787
346.533	16.230	839.045	632.290
347.548	16.238	838.619	631.943
348.562	16.421	837.903	632.032
349.577	16.341	837.574	631.428
350.592	16.239	836.945	630.518
351.606	16.220	836.825	630.302
352.621	16.123	836.168	629.390
353.635	16.148	835.706	629.077
354.650	16.230	835.292	629.017
355.665	16.307	835.009	629.033
356.679	16.399	834.256	628.753
357.694	16.268	834.137	628.120
358.708	16.293	833.369	627.579
359.723	16.439	832.415	627.349
360.738	16.498	831.782	627.035
361.752	16.255	831.829	626.113
362.767	16.402	831.462	626.326
363.781	16.357	830.951	625.717
364.796	16.454	830.210	625.464
365.810	16.394	830.053	625.068
366.825	16.530	829.541	625.133
367.840	16.673	829.193	625.342
368.854	16.573	828.787	624.611
369.869	16.571	828.258	624.150
370.883	16.624	827.699	623.867
371.898	16.608	826.715	623.014
372.913	16.781	826.383	623.345
373.927	16.585	826.154	622.396
374.942	16.565	825.431	621.722
375.956	16.664	824.533	621.353
376.971	16.694	823.746	620.817
377.986	16.816	823.050	620.683
379.000	16.777	823.258	620.641
380.015	16.811	822.691	620.284
381.029	16.752	822.300	619.719
382.044	16.850	821.268	619.244
383.059	16.854	820.613	618.711
384.073	16.824	820.250	618.274
385.088	16.835	819.844	617.951
386.102	16.904	819.360	617.783
387.117	16.870	818.867	617.232
388.132	16.848	818.209	616.604
389.146	16.747	818.019	616.038
390.161	16.866	817.347	615.909
391.175	16.849	816.991	615.525
392.190	16.930	816.411	615.329
393.205	16.814	816.262	614.739
394.219	16.813	815.864	614.382
395.234	16.941	815.295	614.362
396.248	16.854	814.838	613.651
397.263	16.952	814.395	613.615
398.278	16.896	813.649	612.798
399.292	17.026	813.181	612.861
400.307	16.917	812.640	612.006
401.321	16.903	812.377	611.701
402.336	16.967	812.080	611.656
403.350	16.975	811.693	611.339
404.365	16.925	811.395	610.881
405.380	17.035	810.795	610.770
406.394	16.993	810.270	610.168
407.409	17.140	809.763	610.261
408.423	17.181	809.155	609.898
409.438	17.166	808.729	609.470
410.453	17.274	808.150	609.364
411.467	17.323	807.443	608.954
412.482	17.304	807.005	608.500
413.496	17.345	806.649	608.325
414.511	17.290	806.798	608.189
415.526	17.263	806.336	607.687
416.540	17.380	805.976	607.782
417.555	17.400	805.476	607.422
418.569	17.453	804.685	606.962
419.584	17.395	804.110	606.268
420.599	17.310	803.899	605.750
421.613	109.801	1294.849	1473.906
422.628	94.589	1366.367	1474.007
