DTS Sentinel unit serial number:	SN413079Multiplexer serial number:	ORYXHardware model number:	OX4-SRSoftware version number:	ORYX F/W v4.00 Oryx Data Collector v3.7.2.0data status	okinstallation	princeton_trtdifferential loss correction	single-endedforward channel	channel 3reverse channel	N/Adate	2019/09/17time	22:44:35forward acquisition time	60.00reverse acquisition time	0.00gamma	496.2192k internal	0.2344k external	0.2344temperature offset calibration	0.9948default loss term (dB/km)	0.3790temperature slope calibration	1.0000multiplexer offset coefficient	1.0000multiplexer slope coefficient	1.0000fibre end	0.00T internal ref (°C)	25.06T ext. ref 1 (°C)	0.17T ext. ref 2 (°C)	18.40length (m)	temperature (°C)	Stokes	anti-Stokes-747.200	-120.171	-0.268	0.046
-746.185	-93.943	-0.355	0.098
-745.171	14.642	-0.169	0.132
-744.156	-12.129	-0.169	0.111
-743.142	46.629	0.256	-0.238
-742.127	305.455	0.225	0.418
-741.112	-99.103	-0.293	0.074
-740.098	-26.016	-0.274	0.161
-739.083	-200.000	-0.043	-0.297
-738.069	501.091	-0.139	0.321
-737.054	-161.943	-0.032	0.002
-736.039	-117.733	-0.348	-0.063
-735.025	-57.997	0.114	0.050
-734.010	16.453	-0.206	0.163
-732.996	123.590	-0.177	-0.222
-731.981	-53.989	-0.223	0.102
-730.966	-60.256	-0.435	-0.185
-729.952	205.188	0.055	0.086
-728.937	-121.920	0.196	-0.032
-727.923	-200.000	0.001	0.044
-726.908	5.708	0.132	0.097
-725.894	-178.913	-0.273	-0.006
-724.879	27.460	-0.216	-0.182
-723.864	-34.106	-0.262	-0.144
-722.850	-103.599	-0.173	-0.041
-721.835	800.000	-0.036	-0.148
-720.821	-32.325	0.128	0.071
-719.806	800.000	0.045	-0.177
-718.791	-200.000	0.019	-0.195
-717.777	307.377	0.090	-0.167
-716.762	-31.694	-0.121	-0.068
-715.748	-0.276	-0.205	-0.146
-714.733	766.168	0.096	0.260
-713.718	20.665	0.078	-0.063
-712.704	-67.374	-0.276	-0.109
-711.689	-200.000	0.001	-0.069
-710.675	-135.281	0.266	-0.032
-709.660	-39.992	0.246	-0.128
-708.645	-200.000	-0.046	-0.226
-707.631	800.000	-0.087	-0.310
-706.616	-82.687	0.413	-0.133
-705.602	703.110	-0.055	-0.145
-704.587	285.737	0.032	-0.057
-703.572	121.856	-0.194	-0.242
-702.558	800.000	-0.077	-0.248
-701.543	133.018	0.112	-0.144
-700.529	-72.248	-0.160	0.059
-699.514	579.638	-0.087	0.212
-698.499	-118.824	0.049	0.009
-697.485	56.960	-0.091	0.088
-696.470	-200.000	-0.011	0.309
-695.456	39.607	-0.277	-0.248
-694.441	-112.310	0.007	0.001
-693.426	528.600	-0.125	0.294
-692.412	130.113	0.058	0.075
-691.397	-200.000	0.005	0.175
-690.383	475.065	-0.071	0.159
-689.368	-200.000	-0.015	-0.312
-688.354	132.442	0.327	0.421
-687.339	125.821	-0.032	0.041
-686.324	288.586	0.006	0.011
-685.310	273.122	-0.037	-0.064
-684.295	-200.000	-0.040	-0.235
-683.281	800.000	-0.046	-0.147
-682.266	-69.718	0.115	0.044
-681.251	800.000	-0.061	-0.175
-680.237	-200.000	-0.065	-0.324
-679.222	-200.000	-0.024	-0.000
-678.208	-200.000	0.038	-0.229
-677.193	-200.000	0.018	0.401
-676.178	800.000	-0.107	0.297
-675.164	-74.126	-0.219	0.079
-674.149	-166.723	0.312	0.013
-673.135	-154.772	0.107	-0.007
-672.120	-200.000	0.008	0.090
-671.105	-51.053	-0.317	0.148
-670.091	-200.000	0.006	0.072
-669.076	-138.970	0.160	-0.017
-668.062	359.051	-0.036	-0.071
-667.047	-200.000	-0.038	0.200
-666.032	-200.000	0.006	-0.116
-665.018	-45.699	-0.079	-0.039
-664.003	-200.000	-0.054	-0.273
-662.989	184.789	0.094	0.139
-661.974	-102.870	-0.390	-0.093
-660.959	-86.634	0.309	-0.095
-659.945	264.669	0.063	-0.109
-658.930	-132.437	-0.242	-0.031
-657.916	88.925	0.059	-0.066
-656.901	335.415	-0.190	0.367
-655.886	168.476	-0.069	-0.098
-654.872	800.000	0.098	-0.277
-653.857	-138.017	0.094	-0.010
-652.843	-77.822	-0.145	-0.050
-651.828	-200.000	-0.001	0.013
-650.814	78.252	-0.136	-0.145
-649.799	-200.000	0.000	0.061
-648.784	13.601	-0.150	0.116
-647.770	690.049	0.077	-0.200
-646.755	176.811	-0.198	0.287
-645.741	-24.522	0.097	0.058
-644.726	-48.511	-0.205	-0.098
-643.711	-29.186	-0.125	-0.071
-642.697	-52.513	-0.337	-0.155
-641.682	-200.000	-0.012	-0.057
-640.668	-200.000	0.034	-0.445
-639.653	-60.472	-0.244	0.103
-638.638	-200.000	0.000	-0.012
-637.624	-200.000	-0.006	-0.130
-636.609	-200.000	-0.006	0.050
-635.595	757.859	0.070	0.189
-634.580	800.000	0.061	0.240
-633.565	-98.374	-0.166	-0.042
-632.551	-123.136	-0.054	-0.009
-631.536	370.905	0.174	0.351
-630.522	165.478	-0.109	-0.154
-629.507	-132.382	0.072	-0.009
-628.492	-200.000	0.002	0.260
-627.478	91.594	-0.340	-0.381
-626.463	800.000	-0.088	0.271
-625.449	-13.309	-0.261	-0.169
-624.434	-49.045	0.100	-0.048
-623.419	800.000	-0.052	-0.151
-622.405	8.218	0.076	0.057
-621.390	-29.673	-0.173	0.098
-620.376	771.147	0.038	-0.104
-619.361	490.368	0.022	0.050
-618.346	-200.000	-0.102	-0.518
-617.332	104.485	-0.272	-0.319
-616.317	-106.545	0.201	-0.045
-615.303	-200.000	-0.023	0.146
-614.288	188.791	-0.169	-0.251
-613.273	71.221	-0.183	-0.189
-612.259	12.966	0.215	-0.166
-611.244	-34.727	-0.084	-0.046
-610.230	800.000	-0.066	-0.286
-609.215	-88.182	-0.154	-0.046
-608.201	-54.101	-0.114	0.052
-607.186	18.998	-0.209	0.167
-606.171	15.022	0.188	-0.147
-605.157	4.165	-0.186	-0.135
-604.142	-37.724	-0.247	-0.131
-603.128	40.364	-0.133	-0.119
-602.113	-36.994	-0.258	0.138
-601.098	-81.629	0.274	-0.090
-600.084	65.898	0.060	0.061
-599.069	290.118	-0.219	0.395
-598.055	787.229	0.075	-0.205
-597.040	792.689	0.101	-0.278
-596.025	-135.832	-0.123	-0.014
-595.011	-200.000	-0.000	-0.178
-593.996	65.210	0.128	-0.129
-592.982	111.358	-0.057	0.068
-591.967	-168.678	0.257	0.010
-590.952	-200.000	-0.000	0.043
-589.938	-119.834	-0.225	0.039
-588.923	-200.000	0.025	0.161
-587.909	26.703	0.189	0.158
-586.894	800.000	-0.031	0.119
-585.879	-200.000	0.026	-0.146
-584.865	-106.031	0.216	0.048
-583.850	-135.054	-0.207	0.025
-582.836	-90.582	-0.169	-0.049
-581.821	-200.000	0.000	0.182
-580.806	163.665	0.146	0.204
-579.792	-200.000	0.030	0.282
-578.777	-200.000	-0.014	0.140
-577.763	-15.156	0.038	-0.024
-576.748	52.035	0.116	0.110
-575.733	-150.851	-0.218	-0.016
-574.719	452.395	0.106	-0.233
-573.704	800.000	-0.118	0.330
-572.690	221.755	0.105	0.169
-571.675	800.000	-0.058	0.210
-570.661	800.000	-0.049	0.212
-569.646	-116.115	-0.092	0.017
-568.631	79.505	0.022	-0.023
-567.617	58.267	-0.208	-0.202
-566.602	11.439	0.212	0.161
-565.588	150.098	-0.169	-0.227
-564.573	-51.362	0.308	-0.143
-563.558	33.297	-0.142	0.123
-562.544	169.988	0.124	0.176
-561.529	33.997	0.178	0.154
-560.515	-5.207	-0.178	-0.122
-559.500	658.916	-0.116	0.296
-558.485	88.292	0.138	-0.152
-557.471	-200.000	-0.060	-0.294
-556.456	148.629	0.116	-0.155
-555.442	157.863	-0.091	-0.125
-554.427	294.479	-0.170	-0.308
-553.412	25.144	0.119	0.098
-552.398	-13.420	-0.235	0.152
-551.383	24.733	0.472	0.389
-550.369	-200.000	-0.018	0.119
-549.354	-35.093	0.239	0.129
-548.339	168.819	0.182	-0.257
-547.325	381.688	0.157	0.320
-546.310	-200.000	0.026	0.352
-545.296	-99.925	-0.318	-0.079
-544.281	195.010	-0.069	-0.104
-543.266	266.404	0.149	0.259
-542.252	512.845	-0.079	0.183
-541.237	-23.397	-0.060	0.036
-540.223	-200.000	0.034	-0.179
-539.208	-114.815	-0.230	-0.044
-538.193	-123.208	-0.048	-0.008
-537.179	-36.390	0.144	-0.077
-536.164	69.567	-0.167	-0.171
-535.150	149.232	-0.126	0.170
-534.135	-105.471	-0.068	-0.015
-533.121	51.532	0.160	-0.150
-532.106	97.559	-0.212	0.242
-531.091	57.218	-0.173	-0.167
-530.077	-148.125	-0.195	0.016
-529.062	800.000	0.024	-0.084
-528.048	61.216	0.120	0.118
-527.033	56.649	-0.113	0.109
-526.018	-200.000	-0.026	0.124
-525.004	-69.530	0.031	0.012
-523.989	49.245	0.179	-0.167
-522.975	44.442	-0.225	-0.205
-521.960	-139.412	-0.064	-0.007
-520.945	-63.490	0.313	0.127
-519.931	146.604	-0.037	0.049
-518.916	-30.681	0.168	-0.095
-517.902	167.150	0.087	-0.123
-516.887	-200.000	-0.028	0.232
-515.872	56.403	0.059	-0.057
-514.858	322.912	-0.174	-0.328
-513.843	-0.762	0.241	-0.169
-512.829	800.000	0.039	-0.112
-511.814	25.505	-0.239	-0.197
-510.799	43.820	0.207	-0.188
-509.785	-109.011	-0.165	0.035
-508.770	-200.000	-0.014	-0.062
-507.756	31.625	-0.067	-0.057
-506.741	52.397	0.241	0.228
-505.726	-140.723	-0.327	-0.034
-504.712	0.283	-0.134	-0.095
-503.697	-57.882	-0.207	-0.090
-502.683	-39.527	0.322	0.167
-501.668	18.973	-0.185	-0.147
-500.653	-200.000	-0.003	-0.027
-499.639	-111.622	-0.047	-0.010
-498.624	-83.480	0.301	0.095
-497.610	421.823	-0.048	-0.101
-496.595	800.000	-0.059	-0.172
-495.581	665.825	-0.067	0.170
-494.566	6.803	-0.271	-0.200
-493.551	-41.107	-0.278	0.142
-492.537	260.297	0.084	-0.145
-491.522	-39.733	0.247	0.128
-490.508	752.516	0.071	-0.190
-489.493	-57.097	0.275	0.120
-488.478	-200.000	-0.017	-0.386
-487.464	-173.667	-0.280	0.008
-486.449	220.160	-0.043	-0.069
-485.435	79.294	0.145	0.154
-484.420	35.879	-0.292	0.255
-483.405	-48.351	0.107	0.051
-482.391	414.565	-0.061	0.130
-481.376	-98.481	0.013	0.003
-480.362	-66.304	0.273	-0.107
-479.347	-116.964	-0.320	-0.058
-478.332	187.888	0.044	-0.066
-477.318	-28.032	-0.218	0.125
-476.303	13.276	0.172	0.132
-475.289	-200.000	-0.018	0.313
-474.274	-200.000	0.040	-0.390
-473.259	119.021	0.013	0.016
-472.245	270.548	-0.068	0.119
-471.230	-200.000	0.042	0.203
-470.216	-31.487	-0.080	0.045
-469.201	-99.126	-0.173	-0.043
-468.186	-200.000	-0.041	-0.284
-467.172	-113.320	0.198	-0.039
-466.157	95.495	0.119	0.135
-465.143	-200.000	-0.010	0.081
-464.128	101.399	0.128	-0.148
-463.113	-200.000	0.007	-0.194
-462.099	-96.668	-0.239	0.062
-461.084	25.728	-0.180	-0.149
-460.070	2.852	-0.178	-0.128
-459.055	-129.172	-0.157	-0.022
-458.040	-200.000	-0.003	0.381
-457.026	552.213	0.051	-0.122
-456.011	125.653	-0.262	-0.328
-454.997	-124.226	-0.124	-0.019
-453.982	-126.070	0.322	0.048
-452.968	-62.241	-0.153	0.063
-451.953	-129.244	-0.151	0.021
-450.938	7.476	0.150	0.111
-449.924	800.000	0.027	0.090
-448.909	-135.264	-0.283	-0.034
-447.895	-64.098	0.373	0.151
-446.880	-84.691	-0.329	-0.102
-445.865	28.056	0.181	-0.151
-444.851	-64.388	0.408	0.164
-443.836	287.203	-0.130	-0.233
-442.822	81.911	0.133	-0.142
-441.807	-118.938	0.403	0.070
-440.792	-82.853	0.223	0.071
-439.778	254.489	0.028	-0.047
-438.763	15.012	0.021	0.016
-437.749	-107.570	-0.558	-0.121
-436.734	142.802	0.108	-0.143
-435.719	800.000	-0.092	0.305
-434.705	-200.000	-0.042	0.618
-433.690	-77.372	0.166	0.057
-432.676	-40.294	0.331	-0.170
-431.661	800.000	-0.042	-0.158
-430.646	-200.000	0.006	-0.071
-429.632	-200.000	0.084	-0.496
-428.617	474.617	0.116	-0.259
-427.603	800.000	0.114	-0.387
-426.588	535.062	0.130	-0.305
-425.573	-200.000	0.053	0.255
-424.559	-200.000	0.002	0.379
-423.544	-142.532	0.076	-0.007
-422.530	-179.826	-0.141	-0.003
-421.515	544.417	-0.070	0.165
-420.500	-137.753	0.184	0.020
-419.486	800.000	0.057	-0.187
-418.471	-47.334	0.225	0.108
-417.457	136.523	-0.157	0.202
-416.442	800.000	-0.031	0.085
-415.428	-197.092	0.343	-0.002
-414.413	126.242	0.179	0.224
-413.398	622.677	-0.139	-0.347
-412.384	-200.000	0.004	0.118
-411.369	99.589	-0.176	0.201
-410.355	800.000	0.037	0.124
-409.340	-155.437	-0.085	-0.005
-408.325	-21.352	0.209	0.126
-407.311	179.820	0.065	0.094
-406.296	244.937	-0.009	0.014
-405.282	-200.000	0.019	0.202
-404.267	-200.000	-0.031	-0.227
-403.252	-123.913	0.120	-0.019
-402.238	225.670	-0.112	-0.179
-401.223	-12.522	0.110	-0.071
-400.209	-162.326	0.283	0.014
-399.194	57.179	0.141	-0.136
-398.179	-97.844	-0.135	-0.034
-397.165	694.981	-0.082	-0.213
-396.150	155.060	0.245	0.333
-395.136	-28.110	-0.223	0.127
-394.121	-186.514	0.202	-0.003
-393.106	-57.960	0.127	0.055
-392.092	-200.000	0.012	0.212
-391.077	-200.000	0.015	0.359
-390.063	-116.884	0.167	-0.030
-389.048	22.177	0.056	0.045
-388.033	-188.660	-0.376	0.005
-387.019	101.731	-0.304	0.350
-386.004	260.827	-0.183	-0.312
-384.990	145.498	0.220	0.291
-383.975	-200.000	-0.054	0.412
-382.960	-13.155	-0.161	-0.103
-381.946	-200.000	-0.033	-0.154
-380.931	-200.000	0.004	0.064
-379.917	502.096	-0.064	-0.146
-378.902	-120.407	0.128	0.022
-377.888	-200.000	0.004	-0.144
-376.873	-59.462	0.299	0.127
-375.858	-200.000	-0.025	-0.167
-374.844	29.076	-0.132	-0.110
-373.829	-65.730	-0.359	-0.142
-372.815	36.195	0.109	0.095
-371.800	-80.665	0.103	0.034
-370.785	444.021	0.081	0.175
-369.771	163.182	-0.093	0.128
-368.756	-200.000	-0.000	-0.155
-367.742	-200.000	-0.037	0.252
-366.727	800.000	0.041	-0.115
-365.712	800.000	-0.053	0.159
-364.698	800.000	0.040	-0.165
-363.683	-140.675	0.459	0.047
-362.669	-97.633	0.191	-0.049
-361.654	800.000	0.091	0.384
-360.639	-75.130	0.117	-0.041
-359.625	-144.250	-0.240	-0.022
-358.610	-43.767	-0.237	-0.118
-357.596	467.383	-0.077	-0.171
-356.581	231.162	-0.211	0.340
-355.566	-200.000	0.010	-0.144
-354.552	51.639	0.053	0.049
-353.537	55.871	0.189	-0.180
-352.523	-124.019	0.559	-0.087
-351.508	800.000	0.054	-0.192
-350.493	-200.000	0.052	-0.260
-349.479	-106.409	0.184	-0.041
-348.464	-100.188	0.278	-0.068
-347.450	-7.726	-0.176	-0.117
-346.435	-65.118	0.234	0.093
-345.420	-54.056	0.080	-0.036
-344.406	-50.411	0.211	0.098
-343.391	800.000	0.087	-0.259
-342.377	111.676	-0.143	0.171
-341.362	-200.000	-0.032	-0.233
-340.348	264.905	-0.202	-0.348
-339.333	-200.000	-0.026	0.187
-338.318	800.000	0.019	-0.064
-337.304	-70.084	-0.252	-0.094
-336.289	-52.351	0.502	0.229
-335.275	292.375	0.044	-0.080
-334.260	259.026	0.045	0.076
-333.245	117.088	-0.118	0.143
-332.231	-31.312	0.163	0.091
-331.216	-51.009	0.177	-0.082
-330.202	-200.000	-0.009	-0.060
-329.187	-68.782	-0.201	-0.077
-328.172	41.980	-0.225	-0.201
-327.158	-160.460	-0.373	0.020
-326.143	80.499	0.250	-0.265
-325.129	-174.697	-0.036	0.001
-324.114	-41.201	-0.236	0.120
-323.099	278.199	0.301	-0.528
-322.085	739.626	-0.132	0.348
-321.070	93.557	0.224	0.250
-320.056	800.000	0.066	-0.274
-319.041	287.559	-0.057	0.102
-318.026	-39.036	-0.025	-0.013
-317.012	-200.000	-0.048	0.577
-315.997	-93.194	0.223	0.061
-314.983	-82.980	0.426	-0.135
-313.968	4.095	0.113	-0.081
-312.953	3.743	0.125	0.090
-311.939	800.000	-0.060	-0.193
-310.924	-137.659	-0.255	-0.028
-309.910	-200.000	0.007	-0.101
-308.895	84.041	0.305	0.328
-307.880	-63.981	0.217	0.087
-306.866	-200.000	0.007	-0.312
-305.851	-169.025	0.249	-0.009
-304.837	-200.000	-0.006	-0.077
-303.822	222.283	0.167	0.265
-302.807	-36.774	0.215	-0.114
-301.793	800.000	-0.041	-0.168
-300.778	67.408	0.337	-0.338
-299.764	446.456	-0.101	-0.219
-298.749	111.433	0.060	0.071
-297.735	-200.000	-0.023	-0.249
-296.720	-172.635	-0.134	0.004
-295.705	-200.000	-0.010	0.191
-294.691	-69.372	0.063	-0.024
-293.676	195.124	0.113	0.169
-292.662	800.000	-0.090	-0.368
-291.647	-83.882	0.231	-0.072
-290.632	-72.113	0.013	0.005
-289.618	-200.000	0.012	-0.102
-288.603	198.449	0.068	0.102
-287.589	-81.603	-0.136	0.044
-286.574	267.171	0.092	-0.158
-285.559	193.813	-0.197	0.293
-284.545	214.846	-0.103	-0.161
-283.530	4.985	0.068	0.049
-282.516	-169.069	-0.078	-0.003
-281.501	-88.750	-0.204	-0.060
-280.486	182.796	-0.007	0.010
-279.472	293.371	0.032	0.057
-278.457	-200.000	-0.028	0.138
-277.443	-130.418	-0.053	-0.007
-276.428	75.975	0.160	0.166
-275.413	76.490	0.388	0.404
-274.399	-64.805	-0.336	-0.133
-273.384	-71.667	0.287	-0.105
-272.370	800.000	0.154	-0.418
-271.355	-23.253	-0.165	-0.097
-270.340	-200.000	-0.026	0.123
-269.326	-9.356	0.132	-0.087
-268.311	-200.000	-0.028	-0.161
-267.297	101.457	-0.232	0.265
-266.282	11.839	0.143	-0.108
-265.267	-76.971	-0.080	-0.027
-264.253	-27.209	0.288	-0.165
-263.238	106.015	-0.121	0.141
-262.224	800.000	0.104	0.338
-261.209	-33.069	-0.212	0.116
-260.195	-65.933	0.208	-0.082
-259.180	42.303	-0.271	-0.242
-258.165	-24.789	-0.105	-0.061
-257.151	23.280	0.128	0.103
-256.136	82.444	-0.221	0.236
-255.122	-200.000	-0.081	0.391
-254.107	-38.566	0.118	-0.061
-253.092	-12.473	0.076	0.049
-252.078	59.182	0.214	0.207
-251.063	800.000	-0.126	0.511
-250.049	800.000	0.061	-0.218
-249.034	431.051	-0.244	-0.520
-248.019	-103.755	-0.192	0.044
-247.005	2.237	0.140	0.099
-245.990	-130.558	0.220	-0.029
-244.976	800.000	-0.043	-0.149
-243.961	800.000	0.052	-0.203
-242.946	77.179	0.055	-0.058
-241.932	-94.508	0.082	-0.022
-240.917	-200.000	-0.010	0.056
-239.903	219.459	0.151	-0.238
-238.888	22.437	-0.199	0.160
-237.873	-161.598	0.548	0.028
-236.859	-59.647	-0.231	-0.097
-235.844	800.000	0.006	-0.018
-234.830	-200.000	-0.016	0.462
-233.815	-200.000	-0.025	-0.145
-232.800	477.671	-0.135	-0.299
-231.786	800.000	-0.040	0.137
-230.771	-110.752	-0.221	-0.045
-229.757	-200.000	0.015	0.169
-228.742	147.058	0.237	-0.312
-227.727	800.000	-0.046	0.167
-226.713	542.012	0.032	-0.074
-225.698	633.218	-0.103	0.256
-224.684	-144.695	-0.180	-0.016
-223.669	267.176	0.056	0.096
-222.655	137.757	0.052	0.067
-221.640	560.621	-0.092	0.218
-220.625	107.507	-0.287	-0.335
-219.611	-200.000	-0.011	0.281
-218.596	-167.395	0.210	-0.008
-217.582	-127.794	-0.113	-0.016
-216.567	118.111	-0.225	0.272
-215.552	-67.400	-0.098	0.038
-214.538	-67.003	0.169	-0.066
-213.523	-104.837	-0.147	-0.033
-212.509	55.992	-0.093	-0.089
-211.494	213.282	-0.112	0.174
-210.479	-90.747	-0.123	-0.035
-209.465	-9.256	0.154	-0.101
-208.450	503.607	-0.206	0.467
-207.436	-42.940	-0.236	0.117
-206.421	-131.081	-0.331	-0.043
-205.406	-178.031	-0.311	0.007
-204.392	72.789	-0.218	0.223
-203.377	137.305	0.136	0.174
-202.363	-200.000	0.021	0.102
-201.348	800.000	-0.025	0.086
-200.333	22.749	-0.101	0.081
-199.319	34.467	0.136	-0.116
-198.304	583.752	0.095	0.228
-197.290	263.702	0.043	0.074
-196.275	-88.908	-0.109	-0.032
-195.260	-114.312	0.200	-0.038
-194.246	282.831	-0.131	-0.230
-193.231	162.351	0.111	0.153
-192.217	184.599	-0.138	-0.200
-191.202	88.851	0.066	-0.072
-190.187	158.332	0.083	0.112
-189.173	224.194	0.195	-0.309
-188.158	233.302	-0.077	-0.124
-187.144	275.675	0.090	0.156
-186.129	800.000	0.028	-0.115
-185.114	-119.673	0.338	-0.057
-184.100	-65.797	-0.020	0.008
-183.085	-115.090	-0.153	-0.028
-182.071	41.088	0.197	0.174
-181.056	-58.488	-0.328	-0.140
-180.042	190.110	0.059	0.087
-179.027	67.396	-0.255	-0.254
-178.012	-200.000	-0.004	0.222
-176.998	-145.769	-0.263	0.023
-175.983	-91.165	-0.431	-0.121
-174.969	-22.035	0.147	-0.087
-173.954	688.700	-0.069	-0.177
-172.939	226.816	-0.087	0.138
-171.925	800.000	0.102	-0.361
-170.910	-67.823	-0.019	0.007
-169.896	613.192	0.058	0.142
-168.881	-55.112	0.304	0.134
-167.866	343.139	0.064	0.122
-166.852	-134.114	-0.319	-0.039
-165.837	-109.373	0.284	0.059
-164.823	44.459	0.146	0.131
-163.808	-200.000	0.012	-0.199
-162.793	-53.169	0.252	0.113
-161.779	-200.000	0.114	0.530
-160.764	-7.277	0.013	0.009
-159.750	637.233	-0.023	0.057
-158.735	800.000	-0.092	0.372
-157.720	-57.256	0.213	0.092
-156.706	-55.168	-0.186	-0.082
-155.691	277.104	-0.065	0.113
-154.677	128.565	-0.161	-0.201
-153.662	-185.580	-0.197	-0.003
-152.647	-122.281	0.300	-0.048
-151.633	501.660	0.186	-0.421
-150.618	135.914	0.153	-0.194
-149.604	800.000	-0.052	0.169
-148.589	34.923	-0.116	0.099
-147.574	307.275	-0.140	0.255
-146.560	28.794	-0.224	0.186
-145.545	137.591	-0.171	-0.219
-144.531	-102.627	0.298	-0.070
-143.516	800.000	0.034	-0.125
-142.502	-200.000	0.027	-0.165
-141.487	-37.822	0.233	0.121
-140.472	-200.000	-0.031	0.269
-139.458	800.000	0.099	-0.282
-138.443	-130.212	0.163	-0.022
-137.429	-142.468	0.075	0.007
-136.414	74.892	0.025	-0.025
-135.399	97.317	0.130	-0.146
-134.385	-200.000	-0.027	-0.221
-133.370	-102.983	0.305	0.071
-132.356	-22.187	-0.031	-0.018
-131.341	-127.147	0.230	-0.033
-130.326	-200.000	-0.043	-0.207
-129.312	-67.169	-0.317	0.122
-128.297	800.000	-0.051	0.163
-127.283	-47.239	-0.114	0.054
-126.268	398.580	-0.074	0.151
-125.253	-41.100	-0.435	-0.219
-124.239	-127.218	-0.266	0.038
-123.224	232.891	0.248	-0.398
-122.210	54.990	-0.030	-0.029
-121.195	111.080	-0.086	0.101
-120.180	800.000	0.033	0.119
-119.166	-200.000	-0.066	-0.379
-118.151	15.796	0.347	-0.267
-117.137	-117.483	0.313	-0.055
-116.122	-137.522	0.512	0.056
-115.107	-106.070	-0.229	-0.050
-114.093	342.559	0.074	-0.142
-113.078	135.019	-0.172	0.218
-112.064	133.947	0.105	-0.133
-111.049	386.081	-0.134	-0.269
-110.034	603.647	0.074	-0.181
-109.020	92.350	-0.271	0.298
-108.005	23.621	-0.253	-0.203
-106.991	147.605	-0.205	0.269
-105.976	-80.735	0.233	0.075
-104.962	-200.000	-0.044	-0.274
-103.947	800.000	0.156	0.479
-102.932	795.822	-0.020	-0.053
-101.918	57.171	0.050	-0.048
-100.903	-133.164	-0.540	0.067
-99.889	-51.788	0.271	0.123
-98.874	22.033	-0.247	0.197
-97.859	-44.431	0.051	-0.025
-96.845	147.173	0.133	-0.174
-95.830	85.955	0.161	-0.172
-94.816	18.467	-0.028	-0.022
-93.801	11.610	0.155	0.116
-92.786	12.804	-0.337	-0.254
-91.772	43.960	-0.096	0.086
-90.757	43.623	0.096	0.085
-89.743	-45.212	0.361	0.175
-88.728	-200.000	0.016	-0.194
-87.713	-12.265	0.327	0.209
-86.699	64.571	0.092	0.091
-85.684	-62.280	-0.098	0.040
-84.670	-200.000	0.038	0.196
-83.655	-200.000	0.704	-0.001
-82.640	11.685	0.145	-0.109
-81.626	-81.548	-0.203	0.065
-80.611	724.570	-0.045	0.116
-79.597	-125.262	-0.133	0.020
-78.582	128.834	-0.163	0.202
-77.567	-200.000	-0.014	0.126
-76.553	-200.000	-0.004	-0.022
-75.538	89.865	0.151	0.164
-74.524	41.222	0.177	0.156
-73.509	329.409	0.059	0.110
-72.494	123.597	-0.125	0.153
-71.480	-121.705	0.149	-0.024
-70.465	-156.875	-0.299	-0.018
-69.451	-71.315	0.285	-0.104
-68.436	-200.000	0.057	0.270
-67.422	-166.115	0.337	-0.014
-66.407	43.077	0.091	0.081
-65.392	71.722	0.178	0.180
-64.378	28.656	0.105	-0.087
-63.363	34.902	-0.150	0.128
-62.349	133.550	-0.233	0.293
-61.334	11.508	-1.242	-0.928
-60.319	213.417	0.364	0.560
-59.305	-200.000	-0.039	-0.992
-58.290	800.000	0.486	1.495
-57.276	287.590	0.765	1.347
-56.261	-200.000	118.924	613.301
-55.246	412.348	1530.222	3167.342
-54.232	149.512	2675.976	3531.075
-53.217	96.321	2148.030	2393.552
-52.203	34.938	1675.965	1429.019
-51.188	28.133	1494.735	1228.913
-50.173	26.057	1471.344	1195.893
-49.159	47.269	1538.961	1395.948
-48.144	45.561	1553.090	1397.068
-47.130	28.128	1503.752	1236.097
-46.115	25.301	1487.674	1203.906
-45.100	25.148	1484.268	1200.076
-44.086	25.145	1482.066	1198.229
-43.071	24.952	1480.721	1195.802
-42.057	24.999	1478.791	1194.509
-41.042	24.973	1477.330	1193.112
-40.027	25.059	1476.012	1192.572
-39.013	24.962	1474.420	1190.589
-37.998	25.010	1473.688	1190.272
-36.984	25.053	1472.277	1189.370
-35.969	25.095	1470.059	1187.807
-34.954	25.011	1469.289	1186.582
-33.940	25.068	1467.982	1185.860
-32.925	25.124	1466.588	1185.055
-31.911	25.017	1465.504	1183.425
-30.896	25.066	1464.127	1182.591
-29.881	25.099	1463.461	1182.222
-28.867	25.110	1461.885	1180.976
-27.852	25.031	1460.167	1179.023
-26.838	25.118	1458.681	1178.347
-25.823	25.080	1457.160	1176.819
-24.809	25.236	1454.984	1176.038
-23.794	24.995	1454.825	1174.284
-22.779	24.968	1453.264	1172.806
-21.765	25.092	1452.032	1172.574
-20.750	25.007	1451.305	1171.386
-19.736	25.110	1450.138	1171.071
-18.721	25.064	1449.226	1169.986
-17.706	25.132	1447.623	1169.090
-16.692	25.124	1446.548	1168.119
-15.677	25.035	1445.990	1167.043
-14.663	25.006	1445.478	1166.396
-13.648	25.065	1444.202	1165.703
-12.633	25.054	1443.350	1164.901
-11.619	25.076	1442.685	1164.456
-10.604	25.053	1441.581	1163.371
-9.590	25.045	1440.990	1162.798
-8.575	25.252	1439.763	1163.101
-7.560	25.048	1439.192	1161.275
-6.546	25.064	1438.343	1160.643
-5.531	25.079	1437.370	1159.915
-4.517	25.008	1436.163	1158.434
-3.502	25.081	1435.345	1158.200
-2.487	25.033	1434.366	1157.053
-1.473	25.012	1433.550	1156.213
-0.458	25.142	1431.836	1155.624
0.556	23.179	1422.506	1143.152
1.571	19.882	1397.756	1102.202
2.586	16.318	1335.846	1031.555
3.600	14.514	1254.224	958.083
4.615	13.532	1210.561	919.204
5.629	11.644	1155.230	867.103
6.644	5.849	1075.403	778.427
7.659	0.928	1039.395	728.651
8.673	0.285	1033.564	721.421
9.688	0.089	1030.828	718.511
10.702	0.117	1028.793	717.166
11.717	0.209	1026.934	716.243
12.731	2.114	1028.250	726.160
13.746	8.531	1036.950	762.937
14.761	14.854	1044.173	798.479
15.775	16.677	1046.460	808.873
16.790	16.425	1045.288	806.694
17.804	15.430	1043.279	800.332
18.819	14.601	1041.495	794.941
19.834	14.132	1040.180	791.636
20.848	13.847	1038.908	789.246
21.863	13.692	1038.071	787.800
22.877	13.321	1037.947	785.876
23.892	13.273	1036.441	784.439
24.907	13.166	1035.823	783.396
25.921	13.195	1035.176	782.974
26.936	13.156	1034.346	782.090
27.950	13.157	1033.708	781.542
28.965	13.366	1032.773	781.753
29.980	13.329	1032.024	780.945
30.994	13.400	1031.261	780.635
32.009	13.360	1030.331	779.670
33.023	13.443	1029.738	779.547
34.038	13.326	1029.309	778.600
35.053	13.270	1028.549	777.691
36.067	13.371	1027.307	777.158
37.082	13.338	1026.395	776.245
38.096	13.250	1025.948	775.428
39.111	13.258	1025.217	774.843
40.126	13.405	1024.006	774.547
41.140	13.354	1023.128	773.576
42.155	13.355	1021.853	772.546
43.169	13.221	1020.899	771.135
44.184	13.140	1020.028	770.031
45.199	13.154	1018.948	769.211
46.213	13.209	1018.043	768.714
47.228	13.127	1017.458	767.826
48.242	13.243	1016.031	767.216
49.257	13.174	1015.239	766.233
50.271	13.208	1014.143	765.497
51.286	13.183	1013.528	764.849
52.301	13.311	1012.721	764.764
53.315	13.326	1011.895	764.141
54.330	13.165	1011.354	762.923
55.344	13.196	1010.555	762.393
56.359	13.147	1009.722	761.470
57.374	13.231	1008.232	760.667
58.388	13.315	1007.588	760.503
59.403	13.175	1007.124	759.441
60.417	13.160	1006.413	758.767
61.432	13.127	1005.472	757.841
62.447	13.169	1004.642	757.340
63.461	13.206	1003.467	756.558
64.476	13.082	1003.062	755.616
65.490	13.101	1001.670	754.589
66.505	13.186	1001.108	754.485
67.520	13.220	1000.208	753.897
68.534	13.243	999.610	753.482
69.549	13.239	998.780	752.772
70.563	13.094	998.501	751.836
71.578	13.065	997.745	751.071
72.593	13.136	996.456	750.353
73.607	13.182	995.666	749.901
74.622	13.177	994.734	749.112
75.636	13.108	994.183	748.314
76.651	13.060	993.114	747.226
77.666	13.216	992.058	747.074
78.680	13.241	991.851	746.966
79.695	13.138	991.615	746.257
80.709	13.225	990.694	745.889
81.724	13.131	990.293	745.096
82.739	13.175	989.221	744.422
83.753	13.238	988.511	744.107
84.768	13.332	987.842	743.961
85.782	13.242	987.217	743.016
86.797	13.386	986.120	742.774
87.812	13.335	985.652	742.128
88.826	13.296	984.553	741.059
89.841	13.250	984.100	740.443
90.855	13.358	983.025	740.056
91.870	13.377	982.012	739.313
92.884	13.396	981.744	739.131
93.899	13.410	981.260	738.762
94.914	13.405	980.216	737.889
95.928	13.492	979.699	737.821
96.943	13.441	979.069	737.056
97.957	13.550	977.839	736.549
98.972	13.394	977.471	735.511
99.987	13.432	976.460	734.853
101.001	13.388	975.846	734.134
102.016	13.338	975.261	733.407
103.030	13.372	974.203	732.696
104.045	13.373	973.562	732.155
105.060	13.374	972.800	731.521
106.074	13.335	971.514	730.316
107.089	13.394	970.321	729.615
108.103	13.145	970.240	728.392
109.118	13.132	969.145	727.449
110.133	13.172	968.316	726.936
111.147	13.329	967.674	727.079
112.162	13.201	966.625	725.668
113.176	13.261	965.854	725.289
114.191	13.289	964.893	724.623
115.206	13.272	964.248	723.999
116.220	13.306	963.309	723.379
117.235	13.444	962.085	723.003
118.249	13.360	961.423	722.073
119.264	13.388	960.554	721.476
120.279	13.362	959.946	720.846
121.293	13.397	959.062	720.270
122.308	13.298	958.225	719.147
123.322	13.249	957.702	718.476
124.337	13.230	956.513	717.441
125.352	13.356	955.074	716.841
126.366	13.230	954.064	715.475
127.381	13.069	953.874	714.570
128.395	13.167	952.192	713.673
129.410	13.171	951.427	713.055
130.424	13.180	950.732	712.508
131.439	13.365	949.867	712.596
132.454	13.387	948.799	711.826
133.468	13.317	947.828	710.732
134.483	13.343	947.598	710.610
135.497	13.294	946.898	709.811
136.512	13.378	945.908	709.366
137.527	13.333	945.410	708.738
138.541	13.360	944.238	707.909
139.556	13.433	943.671	707.736
140.570	13.407	942.921	707.000
141.585	13.274	942.447	706.016
142.600	13.466	941.879	706.346
143.614	13.543	940.850	705.837
144.629	13.463	940.078	704.856
145.643	13.410	939.567	704.186
146.658	13.514	938.468	703.743
147.673	13.424	937.744	702.755
148.687	13.509	936.426	702.067
149.702	13.388	935.998	701.168
150.716	13.534	934.901	700.903
151.731	13.524	934.153	700.238
152.746	13.505	933.358	699.501
153.760	13.408	932.682	698.521
154.775	13.477	931.722	698.033
155.789	13.485	931.069	697.515
156.804	13.551	930.230	697.103
157.819	13.561	929.893	696.832
158.833	13.577	928.939	696.119
159.848	13.744	928.228	696.229
160.862	13.437	927.865	694.607
161.877	13.734	926.953	695.108
162.892	13.526	926.295	693.681
163.906	13.457	925.379	692.646
164.921	13.543	924.422	692.224
165.935	13.621	923.433	691.749
166.950	13.613	922.103	690.657
167.964	13.597	921.713	690.241
168.979	13.639	920.884	689.731
169.994	13.617	919.407	688.473
171.008	13.544	918.982	687.790
172.023	13.609	918.087	687.329
173.037	13.656	917.608	687.107
174.052	13.763	916.449	686.619
175.067	13.707	916.132	686.091
176.081	13.814	914.834	685.497
177.096	13.621	914.604	684.468
178.110	13.683	913.619	683.925
179.125	13.696	912.690	683.224
180.140	13.688	911.972	682.592
181.154	13.582	911.571	681.795
182.169	13.802	911.018	682.228
183.183	13.734	910.253	681.316
184.198	13.754	909.586	680.840
185.213	13.854	908.750	680.562
186.227	13.948	908.197	680.471
187.242	13.855	907.679	679.645
188.256	13.757	907.223	678.842
189.271	13.964	906.250	678.898
190.286	13.916	905.810	678.311
191.300	13.810	904.706	676.995
192.315	13.827	904.014	676.487
193.329	13.758	903.648	675.869
194.344	13.807	902.605	675.228
195.359	13.913	901.969	675.124
196.373	13.729	901.337	673.845
197.388	13.912	901.004	674.280
198.402	14.093	900.894	674.870
199.417	14.041	900.043	673.964
200.432	14.077	899.750	673.831
201.446	14.257	899.269	674.139
202.461	14.082	898.869	673.074
203.475	14.188	898.433	673.117
204.490	14.066	897.840	672.120
205.504	14.074	897.333	671.712
206.519	14.147	896.277	671.154
207.534	14.101	895.331	670.203
208.548	14.181	894.506	669.849
209.563	14.068	894.205	669.108
210.577	14.145	893.253	668.645
211.592	14.178	892.649	668.267
212.607	14.214	892.388	668.157
213.621	14.282	891.547	667.744
214.636	14.303	890.613	667.068
215.650	14.264	890.187	666.532
216.665	14.325	889.392	666.124
217.680	14.218	889.339	665.597
218.694	14.251	888.890	665.334
219.709	14.389	888.120	665.248
220.723	14.340	887.639	664.633
221.738	14.343	886.920	664.048
222.753	14.306	886.273	663.361
223.767	14.213	885.782	662.561
224.782	14.383	884.749	662.408
225.796	14.452	884.083	662.123
226.811	14.424	883.276	661.351
227.826	14.582	882.781	661.549
228.840	14.391	882.038	660.174
229.855	14.334	881.929	659.809
230.869	14.500	880.778	659.548
231.884	14.481	880.209	658.987
232.899	14.423	879.597	658.242
233.913	14.429	879.028	657.781
234.928	14.376	878.350	657.005
235.942	14.374	877.411	656.239
236.957	14.470	876.880	656.161
237.972	14.574	875.768	655.680
238.986	14.423	875.476	654.807
240.001	14.431	874.815	654.290
241.015	14.339	874.544	653.668
242.030	14.615	873.593	653.981
243.045	14.423	873.036	652.751
244.059	14.558	872.283	652.660
245.074	14.536	871.991	652.297
246.088	14.642	871.039	651.941
247.103	14.735	870.449	651.806
248.117	14.714	869.919	651.271
249.132	14.705	869.168	650.614
250.147	14.855	868.905	650.944
251.161	14.814	868.035	650.076
252.176	14.776	867.598	649.543
253.190	14.896	866.810	649.361
254.205	14.871	866.598	649.047
255.220	14.915	865.748	648.524
256.234	15.026	864.992	648.332
257.249	14.926	864.490	647.511
258.263	14.933	863.857	647.008
259.278	15.141	862.766	646.936
260.293	15.005	862.851	646.418
261.307	15.138	861.855	646.128
262.322	15.008	862.015	645.688
263.336	15.164	861.316	645.709
264.351	15.073	860.513	644.699
265.366	15.281	859.802	644.909
266.380	15.046	859.880	644.006
267.395	15.069	859.039	643.408
268.409	15.085	857.931	642.581
269.424	15.230	857.193	642.529
270.439	15.300	856.315	642.083
271.453	15.208	855.463	641.036
272.468	15.167	855.004	640.478
273.482	15.155	854.404	639.927
274.497	15.085	854.038	639.326
275.512	15.278	853.416	639.542
276.526	15.295	852.662	638.986
277.541	15.252	852.104	638.345
278.555	15.171	851.644	637.636
279.570	15.299	850.915	637.523
280.585	15.420	850.510	637.620
281.599	15.228	850.228	636.625
282.614	15.386	849.429	636.571
283.628	15.403	848.406	635.811
284.643	15.360	848.309	635.519
285.657	15.414	847.553	635.100
286.672	15.494	846.762	634.755
287.687	15.367	846.812	634.255
288.701	15.515	846.007	634.156
289.716	15.431	845.346	633.285
290.730	15.483	844.792	633.011
291.745	15.536	844.190	632.704
292.760	15.509	843.707	632.183
293.774	15.515	843.025	631.641
294.789	15.540	842.517	631.296
295.803	15.516	841.651	630.501
296.818	15.530	841.284	630.226
297.833	15.645	840.410	629.945
298.847	15.584	840.021	629.370
299.862	15.624	839.446	629.033
300.876	15.576	838.880	628.373
301.891	15.552	838.292	627.789
302.906	15.716	837.556	627.792
303.920	15.740	836.650	627.149
304.935	15.713	836.408	626.810
305.949	15.795	835.383	626.292
306.964	15.747	835.128	625.867
307.979	15.813	834.250	625.398
308.993	15.776	833.880	624.928
310.008	15.813	833.617	624.815
311.022	15.827	833.235	624.525
312.037	15.902	832.402	624.121
313.052	15.852	832.168	623.705
314.066	15.884	831.285	623.109
315.081	15.879	830.771	622.651
316.095	15.599	830.625	621.451
317.110	15.910	829.581	621.761
318.125	15.871	829.179	621.262
319.139	15.918	828.735	621.047
320.154	15.854	827.919	620.144
321.168	15.810	827.594	619.686
322.183	15.951	826.947	619.663
323.197	15.946	826.549	619.294
324.212	15.896	826.190	618.784
325.227	16.028	825.410	618.630
326.241	15.939	825.194	618.088
327.256	15.984	824.222	617.469
328.270	15.889	823.756	616.718
329.285	15.868	823.199	616.170
330.300	16.068	822.573	616.376
331.314	16.021	822.192	615.864
332.329	16.111	821.340	615.502
333.343	16.153	821.041	615.378
334.358	15.988	820.674	614.445
335.373	16.045	820.164	614.217
336.387	16.169	819.675	614.247
337.402	16.020	819.024	613.165
338.416	16.088	818.598	613.038
339.431	16.206	817.737	612.768
340.446	16.219	817.036	612.233
341.460	16.414	816.624	612.579
342.475	16.265	816.239	611.697
343.489	16.303	815.765	611.423
344.504	16.419	814.962	611.187
345.519	16.417	814.800	611.005
346.533	16.443	814.133	610.544
347.548	16.455	813.788	610.275
348.562	16.358	813.199	609.429
349.577	16.306	812.893	608.959
350.592	16.339	812.246	608.539
351.606	16.426	811.510	608.248
352.621	16.309	811.355	607.657
353.635	16.263	811.105	607.251
354.650	16.331	810.238	606.791
355.665	16.459	809.974	607.000
356.679	16.406	809.559	606.445
357.694	16.455	809.280	606.357
358.708	16.449	808.743	605.879
359.723	16.362	808.222	605.126
360.738	16.523	807.177	604.863
361.752	16.654	806.424	604.714
362.767	16.538	806.371	604.208
363.781	16.545	806.067	603.951
364.796	16.585	805.917	603.926
365.810	16.646	805.186	603.544
366.825	16.675	804.664	603.202
367.840	16.737	804.660	603.367
368.854	16.701	804.263	602.887
369.869	16.804	803.671	602.756
370.883	16.807	803.184	602.349
371.898	16.619	802.488	601.105
372.913	16.595	802.328	600.846
373.927	16.888	801.254	601.029
374.942	16.840	800.632	600.341
375.956	16.907	800.022	600.067
376.971	16.771	799.580	599.202
377.986	16.890	798.995	599.128
379.000	16.970	798.458	598.956
380.015	16.923	797.996	598.393
381.029	16.918	797.259	597.768
382.044	16.819	797.179	597.304
383.059	16.980	796.398	597.235
384.073	16.861	796.243	596.648
385.088	16.982	795.807	596.695
386.102	16.990	794.685	595.828
387.117	17.038	794.261	595.625
388.132	16.899	793.932	594.838
389.146	16.983	793.474	594.738
390.161	17.038	793.276	594.730
391.175	16.990	792.552	593.964
392.190	17.018	792.530	593.992
393.205	16.973	791.884	593.301
394.219	16.972	791.901	593.256
395.234	16.987	791.201	592.731
396.248	17.154	790.421	592.679
397.263	16.913	790.211	591.626
398.278	17.002	789.772	591.558
399.292	17.074	789.294	591.396
400.307	17.110	788.577	590.932
401.321	17.057	788.345	590.522
402.336	17.138	787.879	590.401
403.350	17.159	787.799	590.363
404.365	17.267	787.159	590.208
405.380	17.280	786.721	589.870
406.394	17.233	785.961	589.085
407.409	17.391	785.406	589.165
408.423	17.376	785.118	588.844
409.438	17.181	784.954	587.994
410.453	17.359	784.469	588.196
411.467	17.204	784.174	587.388
412.482	17.274	783.536	587.099
413.496	17.531	782.901	587.458
414.511	17.614	782.753	587.580
415.526	17.458	782.394	586.719
416.540	17.428	782.087	586.334
417.555	17.598	781.556	586.471
418.569	17.544	781.099	585.890
419.584	17.360	780.899	585.057
420.599	17.597	779.924	585.088
421.613	113.642	1295.144	1484.226
422.628	97.424	1370.160	1484.332
