DTS Sentinel unit serial number:	SN413079Multiplexer serial number:	ORYXHardware model number:	OX4-SRSoftware version number:	ORYX F/W v4.00 Oryx Data Collector v3.7.2.0data status	okinstallation	princeton_trtdifferential loss correction	single-endedforward channel	channel 3reverse channel	N/Adate	2019/09/15time	07:20:35forward acquisition time	60.00reverse acquisition time	0.00gamma	496.2192k internal	0.2324k external	0.2324temperature offset calibration	0.9976default loss term (dB/km)	0.3790temperature slope calibration	1.0000multiplexer offset coefficient	1.0000multiplexer slope coefficient	1.0000fibre end	0.00T internal ref (°C)	30.56T ext. ref 1 (°C)	4.85T ext. ref 2 (°C)	25.85length (m)	temperature (°C)	Stokes	anti-Stokes-747.200	-200.000	0.013	0.227
-746.185	-26.046	0.106	0.063
-745.171	526.830	-0.057	0.135
-744.156	-102.958	-0.294	-0.071
-743.142	451.327	-0.086	-0.191
-742.127	-136.165	-0.183	-0.022
-741.112	108.516	0.152	0.183
-740.098	5.037	0.096	-0.071
-739.083	50.465	0.208	-0.198
-738.069	451.663	-0.111	-0.248
-737.054	80.202	0.185	-0.201
-736.039	9.181	-0.042	-0.032
-735.025	53.458	-0.161	0.156
-734.010	-40.655	-0.304	-0.159
-732.996	-72.393	-0.195	-0.073
-731.981	-146.559	-0.081	-0.007
-730.966	57.425	-0.077	-0.076
-729.952	34.274	0.144	0.126
-728.937	-200.000	-0.030	-0.218
-727.923	-200.000	0.016	-0.106
-726.908	210.382	-0.220	0.348
-725.894	75.981	0.103	-0.110
-724.879	633.078	0.050	-0.127
-723.864	-90.942	-0.172	0.050
-722.850	78.295	-0.226	-0.244
-721.835	-37.166	-0.172	-0.093
-720.821	-46.649	0.201	0.099
-719.806	800.000	-0.033	-0.097
-718.791	84.973	-0.114	0.126
-717.777	142.361	0.151	0.203
-716.762	155.338	-0.101	0.140
-715.748	-168.183	-0.007	-0.000
-714.733	-15.038	-0.138	0.089
-713.718	36.805	-0.396	0.353
-712.704	117.473	-0.031	-0.039
-711.689	13.951	-0.026	-0.020
-710.675	436.597	-0.050	0.110
-709.660	167.615	-0.309	-0.443
-708.645	-58.645	0.137	0.060
-707.631	-16.639	0.056	0.036
-706.616	-30.259	-0.132	-0.076
-705.602	74.636	-0.118	-0.125
-704.587	437.207	-0.073	-0.160
-703.572	-76.990	0.247	-0.087
-702.558	672.198	0.120	-0.312
-701.543	58.627	-0.063	0.063
-700.529	153.081	-0.062	0.086
-699.514	110.447	0.135	0.164
-698.499	-54.511	-0.182	-0.083
-697.485	547.940	0.140	0.337
-696.470	-200.000	-0.003	0.315
-695.456	-7.796	-0.253	0.172
-694.441	54.444	-0.102	0.099
-693.426	114.516	0.169	-0.207
-692.412	3.557	-0.230	-0.169
-691.397	-40.377	-0.247	0.129
-690.383	317.931	-0.108	0.206
-689.368	-52.123	-0.370	-0.173
-688.354	355.031	-0.093	0.187
-687.339	-33.821	-0.238	0.132
-686.324	-200.000	0.010	-0.172
-685.310	604.130	0.161	0.405
-684.295	-90.975	0.167	-0.048
-683.281	25.557	-0.208	-0.174
-682.266	-55.160	-0.073	-0.033
-681.251	-200.000	0.024	-0.283
-680.237	-64.404	-0.307	-0.126
-679.222	-53.144	-0.218	-0.101
-678.208	-200.000	-0.002	-0.071
-677.193	-200.000	-0.038	-0.178
-676.178	58.315	0.133	0.132
-675.164	664.455	0.119	0.308
-674.149	262.208	0.147	-0.256
-673.135	134.466	-0.233	0.304
-672.120	-200.000	0.012	0.149
-671.105	800.000	0.043	0.142
-670.091	709.920	0.077	-0.205
-669.076	531.852	-0.089	-0.212
-668.062	-200.000	0.007	0.378
-667.047	190.098	-0.133	0.200
-666.032	-148.010	0.118	0.010
-665.018	621.368	-0.047	-0.119
-664.003	-96.125	-0.084	-0.022
-662.989	-38.991	0.070	0.037
-661.974	-124.405	-0.177	0.028
-660.959	-114.450	0.356	-0.069
-659.945	-46.156	-0.310	-0.154
-658.930	-102.875	0.411	-0.098
-657.916	-11.247	-0.137	0.091
-656.901	-117.515	0.245	0.045
-655.886	-200.000	0.002	0.335
-654.872	-200.000	-0.074	0.365
-653.857	97.897	-0.014	0.016
-652.843	-71.986	-0.224	-0.084
-651.828	125.230	0.075	-0.095
-650.814	-101.404	0.194	0.047
-649.799	-71.452	0.213	-0.080
-648.784	94.398	-0.026	-0.030
-647.770	-200.000	-0.466	0.001
-646.755	30.081	-0.265	-0.227
-645.741	-11.403	0.318	0.211
-644.726	139.562	-0.031	0.042
-643.711	3.029	0.210	-0.154
-642.697	-110.492	-0.158	-0.033
-641.682	-34.716	0.157	0.086
-640.668	800.000	0.051	0.221
-639.653	492.346	-0.071	-0.163
-638.638	194.139	-0.107	-0.163
-637.624	89.800	0.085	-0.095
-636.609	-42.881	0.149	-0.076
-635.595	20.533	-0.211	-0.172
-634.580	530.385	0.138	-0.328
-633.565	351.668	0.189	-0.376
-632.551	-123.106	-0.226	0.037
-631.536	-200.000	-0.016	0.156
-630.522	-97.968	-0.232	-0.060
-629.507	-200.000	-0.060	-0.282
-628.492	124.740	0.084	-0.106
-627.478	195.524	-0.162	-0.248
-626.463	675.509	0.028	-0.074
-625.449	-52.619	0.347	-0.161
-624.434	-160.909	0.202	0.011
-623.419	301.237	0.080	-0.149
-622.405	297.618	-0.027	0.050
-621.390	-39.131	0.119	0.063
-620.376	-74.956	0.323	0.116
-619.361	437.498	0.118	0.259
-618.346	145.049	-0.134	0.180
-617.332	-70.539	-0.135	-0.051
-616.317	80.911	-0.036	-0.039
-615.303	448.709	0.026	-0.057
-614.288	61.546	-0.165	-0.165
-613.273	-200.000	-0.029	-0.271
-612.259	601.607	-0.092	-0.230
-611.244	11.479	-0.159	0.122
-610.230	419.932	0.025	0.054
-609.215	800.000	0.061	0.193
-608.201	65.916	0.060	-0.061
-607.186	800.000	-0.046	0.134
-606.171	-200.000	-0.033	0.197
-605.157	-18.653	0.075	-0.047
-604.142	65.522	0.067	-0.068
-603.128	-66.418	0.102	0.041
-602.113	800.000	0.170	-0.473
-601.098	-65.176	0.386	-0.156
-600.084	-200.000	-0.008	-0.283
-599.069	-200.000	0.008	0.115
-598.055	-58.751	-0.380	0.165
-597.040	-176.497	-0.265	-0.007
-596.025	-200.000	-0.049	-0.280
-595.011	75.003	0.224	0.237
-593.996	-200.000	-0.001	0.079
-592.982	800.000	0.025	-0.092
-591.967	150.476	0.054	0.073
-590.952	-104.059	-0.416	-0.097
-589.938	383.173	-0.073	-0.150
-588.923	-131.641	0.503	-0.066
-587.909	108.449	-0.153	0.184
-586.894	-83.411	-0.263	0.085
-585.879	-200.000	-0.027	0.206
-584.865	-99.777	-0.280	0.070
-583.850	-200.000	-0.025	-0.295
-582.836	800.000	-0.035	-0.105
-581.821	-1.129	-0.240	-0.170
-580.806	-114.437	0.210	-0.041
-579.792	327.968	-0.083	0.160
-578.777	-200.000	-0.020	-0.325
-577.763	800.000	0.050	-0.164
-576.748	-72.966	-0.310	-0.114
-575.733	-200.000	0.002	0.416
-574.719	110.838	-0.062	-0.075
-573.704	-69.058	-0.024	0.009
-572.690	66.937	0.300	-0.306
-571.675	16.597	0.214	0.170
-570.661	10.752	0.175	-0.134
-569.646	14.586	-0.265	-0.207
-568.631	-50.598	0.018	-0.008
-567.617	16.148	-0.255	-0.201
-566.602	-30.776	0.139	-0.079
-565.588	259.502	0.025	-0.044
-564.573	-146.004	0.002	-0.000
-563.558	-21.207	0.153	-0.094
-562.544	415.741	-0.144	-0.309
-561.529	-103.357	0.126	0.030
-560.515	-37.027	-0.058	-0.031
-559.500	-87.798	-0.222	0.067
-558.485	431.274	-0.038	-0.082
-557.471	612.977	-0.118	0.296
-556.456	-134.208	0.326	-0.040
-555.442	14.748	-0.316	-0.248
-554.427	-154.520	0.287	0.019
-553.412	-200.000	0.037	-0.161
-552.398	-200.000	0.003	0.305
-551.383	104.394	0.081	0.095
-550.369	651.190	0.041	0.105
-549.354	299.035	0.149	-0.276
-548.339	800.000	0.079	0.222
-547.325	-76.425	0.154	-0.054
-546.310	800.000	0.077	-0.284
-545.296	78.109	0.095	0.101
-544.281	6.257	0.073	-0.054
-543.266	-146.825	-0.158	-0.014
-542.252	74.950	0.107	0.113
-541.237	35.580	-0.129	-0.114
-540.223	-155.368	-0.235	0.015
-539.208	-107.062	-0.242	0.053
-538.193	-99.381	0.338	0.085
-537.179	-85.318	-0.312	-0.098
-536.164	274.551	-0.106	0.188
-535.150	-110.186	-0.270	-0.056
-534.135	57.715	0.174	0.170
-533.121	12.693	-0.069	0.053
-532.106	744.518	0.024	-0.066
-531.091	-181.368	0.326	0.006
-530.077	-200.000	-0.040	-0.340
-529.062	-200.000	0.048	0.248
-528.048	278.255	-0.061	-0.109
-527.033	-79.149	0.224	0.076
-526.018	-200.000	-0.046	-0.464
-525.004	-200.000	-0.032	0.142
-523.989	-100.649	0.064	-0.016
-522.975	-78.363	-0.184	0.063
-521.960	-157.693	-0.331	-0.020
-520.945	-115.244	0.359	-0.068
-519.931	-200.000	0.002	0.159
-518.916	-200.000	0.028	0.182
-517.902	85.012	-0.073	0.080
-516.887	-43.937	-0.301	0.151
-515.872	-108.154	0.346	-0.075
-514.858	139.965	0.315	-0.415
-513.843	-142.491	-0.433	-0.043
-512.829	-200.000	-0.002	-0.102
-511.814	-200.000	-0.025	0.181
-510.799	-54.210	0.187	0.085
-509.785	-133.439	-0.194	0.024
-508.770	-200.000	0.017	0.111
-507.756	172.785	0.201	-0.290
-506.741	623.138	0.145	-0.366
-505.726	180.926	-0.195	-0.287
-504.712	45.755	-0.142	0.132
-503.697	167.310	0.209	-0.296
-502.683	602.865	-0.038	0.095
-501.668	-129.466	0.234	0.032
-500.653	800.000	0.037	-0.128
-499.639	-80.394	-0.129	0.043
-498.624	226.083	-0.063	-0.103
-497.610	-200.000	-0.022	0.245
-496.595	54.965	-0.165	0.159
-495.581	-99.510	0.279	0.070
-494.566	125.775	0.132	-0.167
-493.551	472.936	-0.145	0.327
-492.537	-48.057	0.382	-0.184
-491.522	-158.376	-0.319	0.018
-490.508	5.217	0.181	-0.133
-489.493	-97.012	-0.079	0.021
-488.478	-21.172	-0.481	0.294
-487.464	800.000	-0.068	-0.220
-486.449	288.275	0.212	-0.383
-485.435	92.131	-0.136	0.153
-484.420	-90.311	-0.342	-0.099
-483.405	-42.745	-0.297	0.151
-482.391	49.032	0.049	0.046
-481.376	800.000	-0.090	0.361
-480.362	40.173	-0.184	-0.165
-479.347	-144.382	-0.319	0.030
-478.332	-64.953	-0.164	0.066
-477.318	-120.641	0.490	0.083
-476.303	-47.768	-0.189	0.091
-475.289	-87.048	0.105	0.032
-474.274	-90.440	0.155	-0.045
-473.259	-67.599	0.115	-0.045
-472.245	-198.109	0.247	-0.001
-471.230	-70.312	-0.403	0.153
-470.216	-74.287	-0.165	0.059
-469.201	58.733	-0.166	0.163
-468.186	-73.135	-0.113	0.041
-467.172	148.596	-0.112	0.151
-466.157	-40.225	0.116	0.061
-465.143	-77.039	-0.098	-0.034
-464.128	-200.000	0.026	0.250
-463.113	573.699	0.072	-0.176
-462.099	33.072	0.065	0.056
-461.084	-84.657	0.097	0.031
-460.070	125.879	-0.175	-0.221
-459.055	-77.985	-0.126	0.043
-458.040	800.000	0.113	0.322
-457.026	-116.555	0.460	-0.085
-456.011	800.000	0.010	0.041
-454.997	-200.000	-0.003	-0.258
-453.982	54.118	-0.150	0.144
-452.968	800.000	0.082	-0.243
-451.953	223.458	0.095	-0.152
-450.938	-37.811	-0.227	-0.120
-449.924	-200.000	-0.027	-0.346
-448.909	-200.000	0.026	-0.225
-447.895	113.946	0.131	0.158
-446.880	-200.000	-0.019	0.187
-445.865	-133.906	0.283	-0.035
-444.851	-54.101	-0.405	0.184
-443.836	800.000	-0.146	0.476
-442.822	-163.825	-0.110	0.005
-441.807	19.721	-0.146	-0.117
-440.792	800.000	0.070	0.282
-439.778	700.050	0.028	0.073
-438.763	124.772	0.168	-0.211
-437.749	-64.966	-0.238	-0.096
-436.734	800.000	0.042	-0.183
-435.719	30.956	0.214	0.183
-434.705	125.837	0.146	-0.183
-433.690	-200.000	0.002	0.016
-432.676	191.550	-0.069	0.103
-431.661	-87.652	-0.109	-0.033
-430.646	115.832	0.095	0.116
-429.632	-200.000	-0.037	0.278
-428.617	-200.000	-0.009	-0.102
-427.603	-200.000	-0.017	-0.149
-426.588	-200.000	0.056	0.341
-425.573	-123.215	-0.148	0.024
-424.559	-89.765	-0.033	0.010
-423.544	-106.580	-0.151	-0.033
-422.530	-35.779	0.288	-0.155
-421.515	68.538	0.072	0.074
-420.500	97.137	-0.076	0.087
-419.486	-126.644	0.177	0.026
-418.471	790.307	-0.071	-0.193
-417.457	800.000	-0.055	-0.156
-416.442	-40.258	0.344	0.178
-415.428	-116.629	-0.210	0.038
-414.413	491.309	0.236	0.539
-413.398	-200.000	-0.019	0.131
-412.384	-200.000	-0.040	-0.276
-411.369	-75.666	0.245	-0.087
-410.355	342.344	0.065	-0.127
-409.340	61.356	0.172	0.171
-408.325	27.402	0.226	0.189
-407.311	-200.000	-0.094	-0.462
-406.296	-102.785	0.154	0.036
-405.282	-200.000	-0.018	-0.128
-404.267	61.750	0.127	-0.126
-403.252	557.105	-0.041	0.099
-402.238	-117.616	-0.171	-0.031
-401.223	-30.170	-0.200	-0.113
-400.209	-129.969	-0.454	0.062
-399.194	-41.382	-0.063	-0.032
-398.179	421.936	-0.079	0.169
-397.165	-200.000	0.078	0.352
-396.150	-91.195	-0.099	0.028
-395.136	3.491	-0.023	-0.016
-394.121	-3.569	0.202	-0.140
-393.106	-200.000	0.004	0.175
-392.092	22.843	0.097	-0.080
-391.077	-130.705	0.377	0.050
-390.063	-129.474	-0.623	0.086
-389.048	254.248	-0.058	-0.099
-388.033	-135.786	-0.328	-0.039
-387.019	-158.811	-0.308	0.018
-386.004	-95.825	-0.095	-0.025
-384.990	-75.093	0.329	0.117
-383.975	-200.000	-0.025	-0.288
-382.960	800.000	-0.058	0.162
-381.946	-8.358	0.131	-0.088
-380.931	800.000	0.016	-0.065
-379.917	-161.617	-0.231	-0.012
-378.902	-200.000	-0.006	-0.182
-377.888	227.949	0.043	-0.070
-376.873	180.269	-0.168	-0.245
-375.858	-62.682	0.263	-0.108
-374.844	168.391	0.179	0.254
-373.829	-200.000	-0.022	0.285
-372.815	-38.362	0.108	0.057
-371.800	162.517	0.060	-0.084
-370.785	187.990	0.083	-0.124
-369.771	-87.020	0.135	-0.041
-368.756	-157.424	0.435	-0.026
-367.742	-146.282	-0.171	0.015
-366.727	-113.721	-0.519	0.101
-365.712	-58.498	-0.176	-0.076
-364.698	63.799	-0.100	0.100
-363.683	-130.027	-0.527	0.072
-362.669	-104.945	-0.047	0.011
-361.654	-200.000	-0.034	0.204
-360.639	112.728	0.326	0.392
-359.625	288.462	-0.168	0.303
-358.610	-131.896	0.165	0.021
-357.596	638.839	-0.156	0.395
-356.581	-75.262	0.176	-0.063
-355.566	-64.829	-0.303	-0.122
-354.552	-175.605	-0.318	-0.009
-353.537	-86.884	-0.090	-0.027
-352.523	-79.684	0.139	-0.047
-351.508	-78.079	-0.130	0.044
-350.493	-71.208	-0.188	-0.070
-349.479	155.383	0.019	-0.025
-348.464	-144.448	0.364	0.034
-347.450	251.162	-0.171	0.289
-346.435	-200.000	0.036	0.175
-345.420	-13.319	0.112	0.072
-344.406	800.000	0.062	0.223
-343.391	800.000	-0.028	0.085
-342.377	238.916	-0.078	-0.129
-341.362	-28.464	-0.073	-0.042
-340.348	-10.358	0.155	-0.102
-339.333	127.891	-0.044	-0.056
-338.318	25.674	-0.051	-0.043
-337.304	-75.680	0.130	0.046
-336.289	500.533	0.146	-0.335
-335.275	-165.287	0.396	0.017
-334.260	144.149	0.324	0.430
-333.245	-41.805	0.142	-0.072
-332.231	-96.793	0.150	-0.039
-331.216	-200.000	0.026	0.170
-330.202	-200.000	-0.014	-0.117
-329.187	225.829	0.086	-0.139
-328.172	-109.137	-0.038	-0.008
-327.158	-70.720	-0.249	-0.093
-326.143	-144.465	0.027	-0.002
-325.129	-200.000	-0.053	-0.294
-324.114	-95.652	0.192	-0.051
-323.099	123.623	-0.108	-0.134
-322.085	10.464	0.092	0.070
-321.070	332.352	-0.125	0.240
-320.056	-200.000	0.032	-0.220
-319.041	-151.413	-0.152	0.011
-318.026	248.518	-0.153	0.257
-317.012	-72.983	-0.140	-0.051
-315.997	72.173	0.248	-0.256
-314.983	-22.687	0.326	0.195
-313.968	-111.736	-0.370	-0.074
-312.953	-109.469	0.203	-0.043
-311.939	-200.000	0.008	-0.248
-310.924	252.610	-0.141	-0.239
-309.910	800.000	-0.107	0.427
-308.895	-200.000	0.041	-0.241
-307.880	-200.000	-0.016	-0.096
-306.866	54.587	-0.031	0.030
-305.851	202.534	0.214	-0.328
-304.837	-188.009	-0.067	0.001
-303.822	-72.821	0.269	0.098
-302.807	-190.945	0.289	-0.003
-301.793	800.000	0.081	-0.224
-300.778	-12.306	0.265	-0.172
-299.764	38.963	-0.146	0.129
-298.749	495.498	-0.049	-0.111
-297.735	-200.000	-0.025	-0.545
-296.720	75.180	0.133	-0.139
-295.705	800.000	-0.048	-0.149
-294.691	-11.545	0.215	0.140
-293.676	105.410	-0.209	0.245
-292.662	-200.000	0.009	0.059
-291.647	-200.000	0.002	-0.112
-290.632	-81.819	0.280	0.091
-289.618	-63.160	-0.205	-0.084
-288.603	-98.606	0.105	-0.027
-287.589	-200.000	0.015	0.091
-286.574	93.676	0.027	-0.030
-285.559	-15.935	0.127	0.080
-284.545	-87.196	-0.246	0.074
-283.530	-138.297	-0.116	-0.013
-282.516	-192.255	0.083	-0.001
-281.501	30.179	0.044	0.037
-280.486	115.976	-0.140	0.169
-279.472	-174.148	0.225	-0.006
-278.457	-7.712	-0.331	-0.222
-277.443	-41.239	-0.318	-0.163
-276.428	-56.375	0.241	0.106
-275.413	-200.000	0.001	0.185
-274.399	-80.666	0.260	0.086
-273.384	-122.769	0.249	0.040
-272.370	-54.321	-0.034	-0.015
-271.355	-200.000	0.043	0.270
-270.340	-88.610	-0.234	-0.069
-269.326	351.404	-0.106	-0.209
-268.311	20.360	0.236	0.189
-267.297	-47.695	-0.265	0.127
-266.282	-118.347	-0.113	-0.020
-265.267	-30.032	-0.239	-0.135
-264.253	112.681	-0.189	0.226
-263.238	-200.000	0.041	0.347
-262.224	-143.098	0.269	-0.026
-261.209	800.000	0.066	0.287
-260.195	-145.417	0.271	-0.024
-259.180	800.000	0.140	-0.411
-258.165	-59.484	-0.115	-0.049
-257.151	88.958	0.026	0.029
-256.136	145.352	-0.127	0.169
-255.122	800.000	0.040	-0.110
-254.107	453.267	0.298	-0.653
-253.092	-200.000	-0.002	0.139
-252.078	417.558	-0.060	-0.127
-251.063	-200.000	0.003	0.127
-250.049	-13.733	-0.279	-0.179
-249.034	-1.696	0.237	0.165
-248.019	5.058	0.167	0.121
-247.005	-84.094	0.109	-0.034
-245.990	-200.000	-0.010	0.204
-244.976	79.516	-0.154	0.164
-243.961	144.530	-0.289	0.382
-242.946	592.982	-0.131	0.321
-241.932	-200.000	0.047	0.231
-240.917	-168.080	-0.228	0.009
-239.903	378.372	0.083	-0.168
-238.888	132.163	0.179	-0.229
-237.873	8.781	-0.304	-0.227
-236.859	25.194	0.132	0.109
-235.844	97.487	-0.144	0.164
-234.830	117.261	-0.097	-0.118
-233.815	248.006	0.127	-0.212
-232.800	-43.201	0.370	-0.185
-231.786	800.000	0.093	-0.334
-230.771	-151.199	-0.381	0.028
-229.757	74.881	-0.184	0.192
-228.742	-200.000	-0.026	-0.134
-227.727	288.117	-0.025	0.044
-226.713	-21.311	0.034	-0.020
-225.698	-123.967	-0.218	0.034
-224.684	800.000	-0.081	0.233
-223.669	-75.403	-0.245	-0.086
-222.655	-100.311	-0.259	-0.064
-221.640	12.550	0.078	0.059
-220.625	-125.223	0.205	-0.031
-219.611	392.471	0.099	0.203
-218.596	-127.617	0.238	0.034
-217.582	800.000	0.182	0.570
-216.567	800.000	-0.080	-0.314
-215.552	-200.000	0.017	-0.111
-214.538	-82.491	0.479	-0.154
-213.523	130.358	0.210	-0.266
-212.509	-60.832	-0.216	-0.090
-211.494	-151.629	-0.248	-0.018
-210.479	61.408	0.214	-0.210
-209.465	-92.542	0.280	0.078
-208.450	165.305	0.069	0.097
-207.436	-3.827	0.136	0.094
-206.421	-45.057	0.225	-0.110
-205.406	-200.000	0.012	0.182
-204.392	-200.000	-0.004	-0.224
-203.377	-153.093	0.290	0.020
-202.363	57.691	-0.077	0.074
-201.348	-36.974	-0.032	0.017
-200.333	442.628	0.047	0.102
-199.319	543.149	-0.072	0.169
-198.304	-22.985	0.208	-0.124
-197.290	280.504	-0.123	-0.217
-196.275	-200.000	0.025	0.207
-195.260	21.731	0.281	0.226
-194.246	290.252	-0.078	-0.139
-193.231	-109.377	0.125	0.026
-192.217	800.000	0.079	0.305
-191.202	-137.209	0.452	0.051
-190.187	-20.533	-0.168	0.102
-189.173	-200.000	0.029	0.425
-188.158	-9.384	0.210	0.139
-187.144	167.576	-0.151	-0.212
-186.129	-200.000	-0.050	0.405
-185.114	148.271	-0.145	-0.194
-184.100	39.491	-0.173	0.153
-183.085	-38.353	-0.226	0.118
-182.071	800.000	-0.029	0.125
-181.056	171.581	-0.130	0.184
-180.042	32.070	0.123	0.105
-179.027	800.000	-0.025	-0.082
-178.012	29.578	0.151	0.127
-176.998	212.199	-0.058	-0.090
-175.983	-11.634	0.127	0.082
-174.969	-156.820	0.383	0.023
-173.954	53.577	0.131	-0.124
-172.939	-200.000	0.017	0.095
-171.925	-125.625	0.109	-0.016
-170.910	-200.000	0.007	-0.030
-169.896	25.618	-0.409	-0.336
-168.881	-188.932	0.252	-0.003
-167.866	-200.000	-0.000	0.051
-166.852	-200.000	-0.024	0.199
-165.837	-34.166	-0.209	-0.113
-164.823	-200.000	0.014	-0.244
-163.808	-82.005	-0.290	0.094
-162.793	693.536	0.040	0.104
-161.779	-102.759	-0.130	-0.031
-160.764	218.845	-0.046	0.073
-159.750	41.144	0.218	0.194
-158.735	800.000	-0.094	0.320
-157.720	127.833	0.153	0.192
-156.706	36.314	-0.306	-0.266
-155.691	541.220	0.040	-0.095
-154.677	-156.579	-0.205	0.013
-153.662	-200.000	0.046	0.455
-152.647	432.838	-0.192	0.410
-151.633	229.862	-0.092	0.148
-150.618	-200.000	0.001	-0.379
-149.604	11.836	0.078	-0.059
-148.589	12.013	0.205	-0.155
-147.574	-152.323	-0.233	-0.017
-146.560	-20.653	-0.109	0.066
-145.545	65.610	-0.159	0.158
-144.531	107.856	0.044	0.051
-143.516	-84.026	-0.100	-0.031
-142.502	-125.524	-0.081	-0.012
-141.487	800.000	-0.022	-0.085
-140.472	265.264	0.136	0.234
-139.458	136.555	0.199	0.256
-138.443	-9.783	-0.108	0.071
-137.429	118.386	0.105	0.128
-136.414	-118.301	-0.183	-0.032
-135.399	-9.776	-0.152	0.100
-134.385	-200.000	0.026	0.180
-133.370	-134.863	0.308	-0.037
-132.356	63.248	-0.284	0.281
-131.341	800.000	0.100	-0.418
-130.326	13.335	-0.187	-0.143
-129.312	-96.153	-0.563	0.147
-128.297	171.286	0.151	-0.213
-127.283	-11.384	0.321	0.208
-126.268	800.000	-0.051	0.157
-125.253	193.825	0.180	0.269
-124.239	-58.919	0.206	0.088
-123.224	800.000	-0.045	-0.181
-122.210	800.000	0.027	-0.110
-121.195	93.372	0.280	-0.312
-120.180	-36.409	-0.229	-0.121
-119.166	273.099	0.151	0.263
-118.151	-60.873	0.119	0.050
-117.137	34.003	0.110	0.094
-116.122	-79.034	-0.172	0.058
-115.107	167.544	-0.165	0.230
-114.093	-200.000	-0.014	-0.264
-113.078	-87.804	-0.139	-0.041
-112.064	28.944	0.105	-0.088
-111.049	178.447	0.018	0.025
-110.034	-200.000	-0.024	-0.188
-109.020	-200.000	-0.021	0.231
-108.005	-42.412	-0.118	0.059
-106.991	140.893	-0.200	0.260
-105.976	-200.000	0.009	-0.159
-104.962	-48.607	-0.320	0.151
-103.947	-200.000	0.027	0.484
-102.932	800.000	-0.060	0.184
-101.918	-131.946	0.264	0.034
-100.903	-97.567	0.084	0.021
-99.889	46.196	0.050	0.045
-98.874	-121.775	-0.173	0.028
-97.859	94.257	0.179	-0.201
-96.845	123.098	0.053	-0.066
-95.830	-3.147	0.143	0.098
-94.816	-125.240	0.135	0.020
-93.801	117.725	-0.287	-0.348
-92.786	-125.164	-0.346	-0.052
-91.772	-116.546	-0.163	0.029
-90.757	-41.790	-0.060	-0.030
-89.743	-200.000	0.015	-0.184
-88.728	-118.530	0.114	-0.020
-87.713	77.041	-0.078	0.082
-86.699	689.036	-0.033	0.086
-85.684	-200.000	0.043	0.273
-84.670	800.000	-0.088	-0.259
-83.655	800.000	0.098	-0.391
-82.640	-52.370	0.417	-0.190
-81.626	-88.910	-0.207	0.060
-80.611	67.155	-0.191	0.191
-79.597	-82.996	-0.307	-0.097
-78.582	-92.917	-0.233	-0.064
-77.567	-143.151	-0.228	0.022
-76.553	-119.535	-0.400	0.068
-75.538	591.383	-0.071	-0.172
-74.524	518.165	0.117	0.269
-73.509	800.000	-0.016	-0.061
-72.494	-107.839	-0.070	-0.015
-71.480	-4.568	0.115	0.078
-70.465	-200.000	-0.048	-0.252
-69.451	13.435	-0.069	-0.053
-68.436	-46.146	-0.504	-0.244
-67.422	800.000	0.016	0.049
-66.407	-62.959	-0.086	-0.035
-65.392	56.133	0.192	-0.183
-64.378	357.437	0.102	-0.200
-63.363	149.130	-0.046	0.061
-62.349	22.705	0.173	0.139
-61.334	117.344	-0.929	-1.123
-60.319	40.902	0.427	0.378
-59.305	800.000	-0.239	-0.718
-58.290	280.866	0.639	1.124
-57.276	312.748	0.826	1.526
-56.261	-200.000	103.160	598.807
-55.246	560.781	1436.090	3410.410
-54.232	186.822	2624.783	3842.416
-53.217	116.659	2169.402	2615.189
-52.203	41.371	1697.584	1508.830
-51.188	33.728	1506.342	1287.213
-50.173	31.337	1479.863	1248.581
-49.159	52.082	1533.242	1435.269
-48.144	53.007	1550.346	1457.512
-47.130	33.906	1507.868	1289.521
-46.115	30.774	1493.137	1255.783
-45.100	30.593	1489.557	1251.501
-44.086	30.649	1487.165	1249.823
-43.071	30.482	1485.441	1247.197
-42.057	30.546	1483.693	1246.115
-41.042	30.503	1482.495	1244.767
-40.027	30.544	1480.915	1243.670
-39.013	30.562	1479.197	1242.298
-37.998	30.538	1478.229	1241.275
-36.984	30.568	1476.477	1239.954
-35.969	30.587	1474.796	1238.620
-34.954	30.518	1474.050	1237.481
-33.940	30.536	1472.498	1236.248
-32.925	30.614	1471.214	1235.642
-31.911	30.522	1470.372	1234.275
-30.896	30.638	1469.176	1233.993
-29.881	30.628	1467.584	1232.539
-28.867	30.614	1466.042	1231.103
-27.852	30.582	1464.756	1229.759
-26.838	30.613	1463.615	1228.959
-25.823	30.561	1462.304	1227.467
-24.809	30.632	1460.106	1226.040
-23.794	30.583	1459.209	1224.916
-22.779	30.636	1457.825	1224.058
-21.765	30.610	1456.652	1222.853
-20.750	30.582	1455.736	1221.851
-19.736	30.659	1454.472	1221.245
-18.721	30.609	1453.602	1220.138
-17.706	30.564	1452.386	1218.774
-16.692	30.488	1451.505	1217.486
-15.677	30.485	1450.402	1216.494
-14.663	30.643	1448.860	1216.185
-13.648	30.585	1448.670	1215.598
-12.633	30.636	1447.277	1214.717
-11.619	30.486	1446.945	1213.408
-10.604	30.544	1445.814	1212.791
-9.590	30.528	1444.871	1211.852
-8.575	30.566	1444.215	1211.496
-7.560	30.454	1443.393	1210.032
-6.546	30.459	1442.555	1209.315
-5.531	30.521	1441.488	1208.774
-4.517	30.480	1440.718	1207.815
-3.502	30.541	1439.415	1207.072
-2.487	30.477	1438.383	1205.739
-1.473	30.447	1437.430	1204.697
-0.458	30.452	1436.370	1203.794
0.556	29.399	1426.652	1193.481
1.571	26.610	1401.555	1154.626
2.586	23.264	1344.141	1086.732
3.600	21.713	1263.873	1012.788
4.615	20.270	1218.762	968.502
5.629	17.747	1163.009	910.657
6.644	10.729	1081.718	811.959
7.659	5.680	1043.399	758.724
8.673	4.965	1038.494	751.647
9.688	4.898	1035.170	748.852
10.702	4.797	1033.613	747.176
11.717	4.750	1031.688	745.490
12.731	6.677	1033.391	755.894
13.746	13.173	1042.405	793.717
14.761	18.241	1047.980	822.309
15.775	18.433	1047.517	822.795
16.790	17.362	1045.394	815.921
17.804	16.326	1043.155	809.138
18.819	15.510	1040.999	803.492
19.834	15.027	1040.033	800.367
20.848	14.685	1039.416	798.185
21.863	14.557	1038.022	796.433
22.877	14.194	1037.675	794.366
23.892	14.034	1036.582	792.693
24.907	14.155	1035.468	792.350
25.921	14.016	1035.429	791.588
26.936	14.198	1034.123	791.383
27.950	14.142	1033.545	790.607
28.965	14.185	1032.212	789.718
29.980	14.167	1031.629	789.117
30.994	14.307	1029.944	788.422
32.009	14.341	1029.096	787.865
33.023	14.355	1028.424	787.348
34.038	14.280	1027.833	786.472
35.053	14.265	1026.639	785.419
36.067	14.246	1025.802	784.620
37.082	14.172	1024.766	783.407
38.096	14.246	1023.759	782.915
39.111	14.316	1023.314	782.835
40.126	14.249	1022.527	781.849
41.140	14.235	1021.427	780.873
42.155	14.109	1020.299	779.351
43.169	13.937	1019.353	777.757
44.184	13.960	1017.858	776.652
45.199	13.941	1016.860	775.734
46.213	14.035	1016.003	775.451
47.228	13.977	1015.401	774.653
48.242	14.001	1014.717	774.175
49.257	14.149	1013.796	774.089
50.271	14.188	1012.511	773.223
51.286	14.222	1011.619	772.630
52.301	14.179	1011.123	771.984
53.315	14.141	1010.080	770.944
54.330	14.189	1009.319	770.515
55.344	14.033	1008.329	768.971
56.359	14.150	1007.070	768.484
57.374	14.157	1006.278	767.845
58.388	14.050	1005.462	766.660
59.403	13.987	1004.559	765.611
60.417	13.981	1003.990	765.083
61.432	14.058	1003.112	764.702
62.447	14.008	1002.338	763.813
63.461	13.911	1001.804	762.896
64.476	13.861	1000.640	761.710
65.490	13.753	999.934	760.610
66.505	14.002	998.859	760.864
67.520	13.890	998.407	759.942
68.534	14.000	997.216	759.471
69.549	13.836	996.892	758.409
70.563	14.013	995.853	758.359
71.578	13.883	995.680	757.567
72.593	13.833	994.829	756.624
73.607	13.778	993.626	755.392
74.622	13.576	992.970	753.905
75.636	13.688	991.911	753.544
76.651	13.732	991.383	753.276
77.666	13.641	990.869	752.406
78.680	13.845	989.455	752.191
79.695	13.761	989.623	751.873
80.709	13.854	988.586	751.438
81.724	14.009	987.634	751.351
82.739	13.872	987.312	750.419
83.753	13.867	986.798	749.938
84.768	14.012	985.825	749.788
85.782	14.185	984.950	749.835
86.797	14.315	984.274	749.840
87.812	14.238	983.296	748.680
88.826	14.201	982.699	747.992
89.841	14.114	981.913	746.940
90.855	14.152	981.021	746.365
91.870	14.292	980.297	746.378
92.884	14.298	979.206	745.505
93.899	14.344	978.515	745.118
94.914	14.299	978.176	744.595
95.928	14.271	977.348	743.773
96.943	14.407	976.552	743.707
97.957	14.276	975.720	742.426
98.972	14.246	974.838	741.553
99.987	14.239	974.421	741.139
101.001	14.397	973.659	741.198
102.016	14.339	972.541	740.022
103.030	14.303	971.799	739.234
104.045	14.282	971.112	738.553
105.060	14.348	970.152	738.048
106.074	14.344	968.941	737.045
107.089	14.146	968.240	735.572
108.103	14.002	967.338	734.187
109.118	14.016	966.341	733.428
110.133	13.820	965.838	732.113
111.147	13.936	965.269	732.131
112.162	13.988	963.832	731.206
113.176	13.903	963.347	730.398
114.191	14.087	962.064	730.167
115.206	14.000	961.582	729.354
116.220	14.185	960.301	729.132
117.235	13.963	960.151	727.980
118.249	14.003	959.582	727.657
119.264	14.053	958.291	726.832
120.279	14.055	957.734	726.357
121.293	13.997	956.736	725.282
122.308	13.987	956.027	724.636
123.322	13.969	955.500	724.093
124.337	13.869	954.392	722.756
125.352	13.970	953.066	722.128
126.366	13.896	952.318	721.174
127.381	13.964	950.970	720.383
128.395	13.915	950.271	719.580
129.410	14.023	949.456	719.364
130.424	13.952	948.196	718.043
131.439	13.999	947.479	717.635
132.454	14.001	946.936	717.169
133.468	14.154	946.109	717.139
134.483	14.033	945.712	716.257
135.497	14.033	944.907	715.583
136.512	14.017	944.472	715.119
137.527	14.089	943.314	714.488
138.541	14.021	942.668	713.646
139.556	14.180	941.493	713.373
140.570	13.963	941.009	712.013
141.585	14.182	940.561	712.551
142.600	14.271	939.843	712.325
143.614	14.388	938.933	712.073
144.629	14.272	938.527	711.203
145.643	14.325	937.733	710.768
146.658	14.349	936.700	710.022
147.673	14.250	936.037	709.037
148.687	14.116	935.299	707.845
149.702	14.174	934.368	707.324
150.716	14.164	933.243	706.368
151.731	14.187	932.628	705.935
152.746	14.029	931.806	704.581
153.760	14.015	931.326	704.097
154.775	14.106	930.654	703.913
155.789	14.346	929.877	704.278
156.804	14.355	928.701	703.364
157.819	14.392	928.233	703.103
158.833	14.363	927.443	702.318
159.848	14.270	927.478	701.889
160.862	14.335	926.458	701.333
161.877	14.436	925.431	700.914
162.892	14.365	924.444	699.807
163.906	14.226	923.484	698.434
164.921	14.272	922.811	698.057
165.935	14.175	921.907	696.907
166.950	14.310	920.476	696.329
167.964	14.320	919.570	695.622
168.979	14.297	918.964	695.005
169.994	14.250	918.162	694.144
171.008	14.215	917.499	693.435
172.023	14.333	916.574	693.164
173.037	14.303	915.896	692.465
174.052	14.370	915.157	692.123
175.067	14.418	914.463	691.736
176.081	14.289	913.895	690.711
177.096	14.357	912.640	689.984
178.110	14.196	912.021	688.787
179.125	14.379	911.176	688.847
180.140	14.459	910.200	688.376
181.154	14.395	909.810	687.756
182.169	14.307	909.154	686.838
183.183	14.621	908.383	687.489
184.198	14.515	908.093	686.771
185.213	14.504	907.187	685.979
186.227	14.544	906.596	685.637
187.242	14.614	906.195	685.560
188.256	14.546	905.760	684.890
189.271	14.783	904.616	684.937
190.286	14.672	903.891	683.872
191.300	14.540	903.600	683.054
192.315	14.346	902.462	681.338
193.329	14.361	901.292	680.457
194.344	14.461	900.796	680.431
195.359	14.400	900.636	679.999
196.373	14.438	900.352	679.878
197.388	14.470	899.864	679.581
198.402	14.567	899.263	679.462
199.417	14.909	898.171	679.968
200.432	14.764	898.543	679.598
201.446	14.892	897.625	679.367
202.461	14.917	897.420	679.251
203.475	14.874	896.883	678.609
204.490	14.867	896.128	677.951
205.504	14.870	894.862	676.947
206.519	14.829	894.658	676.566
207.534	14.731	893.979	675.595
208.548	14.731	893.133	674.897
209.563	14.862	891.844	674.393
210.577	14.862	891.435	674.024
211.592	14.731	891.236	673.283
212.607	14.838	890.897	673.398
213.621	14.971	890.253	673.388
214.636	14.930	889.701	672.745
215.650	14.983	888.659	672.114
216.665	15.037	888.128	671.869
217.680	15.068	887.517	671.472
218.694	15.046	887.208	671.087
219.709	14.990	887.210	670.806
220.723	15.090	886.073	670.290
221.738	15.168	884.866	669.628
222.753	14.923	885.147	668.801
223.767	14.996	884.240	668.350
224.782	15.083	883.415	668.011
225.796	15.150	882.657	667.648
226.811	15.371	881.720	667.759
227.826	15.178	881.042	666.419
228.840	15.107	880.368	665.568
229.855	15.060	879.698	664.815
230.869	15.009	879.454	664.372
231.884	15.061	878.627	663.892
232.899	15.203	877.656	663.664
233.913	15.090	877.277	662.872
234.928	15.116	876.678	662.463
235.942	15.052	875.946	661.596
236.957	15.120	874.933	661.042
237.972	15.028	874.546	660.329
238.986	15.153	873.976	660.334
240.001	15.054	873.293	659.367
241.015	15.134	872.321	658.892
242.030	15.181	871.825	658.644
243.045	15.307	871.455	658.801
244.059	15.175	870.940	657.834
245.074	15.184	870.144	657.208
246.088	15.180	869.729	656.821
247.103	15.247	869.180	656.611
248.117	15.314	868.578	656.360
249.132	15.420	867.984	656.268
250.147	15.378	867.842	655.938
251.161	15.551	867.014	655.931
252.176	15.582	866.248	655.414
253.190	15.668	865.703	655.278
254.205	15.737	864.953	654.923
255.220	15.660	864.658	654.343
256.234	15.779	863.664	653.995
257.249	15.776	863.211	653.581
258.263	15.740	862.814	653.084
259.278	15.755	862.086	652.531
260.293	15.784	862.038	652.551
261.307	15.759	861.270	651.817
262.322	15.921	860.346	651.687
263.336	15.795	860.129	650.977
264.351	15.874	859.177	650.503
265.366	15.939	858.694	650.329
266.380	16.030	858.036	650.128
267.395	15.821	857.590	648.925
268.409	15.830	856.923	648.397
269.424	15.820	856.243	647.785
270.439	15.870	855.153	647.099
271.453	15.832	854.112	646.107
272.468	15.767	853.875	645.622
273.482	15.941	852.924	645.510
274.497	15.867	852.422	644.791
275.512	15.863	851.918	644.337
276.526	15.833	851.076	643.528
277.541	15.821	850.832	643.239
278.555	15.931	850.473	643.333
279.570	16.045	849.678	643.107
280.585	16.042	849.079	642.589
281.599	16.043	848.986	642.464
282.614	15.955	848.222	641.495
283.628	16.019	847.683	641.273
284.643	15.873	847.138	640.251
285.657	15.874	847.054	640.132
286.672	16.007	845.799	639.633
287.687	15.933	845.664	639.192
288.701	16.041	845.055	639.086
289.716	16.089	844.090	638.481
290.730	16.114	843.674	638.204
291.745	16.072	842.910	637.412
292.760	16.162	842.161	637.130
293.774	16.235	841.745	637.035
294.789	16.244	841.325	636.691
295.803	16.327	840.908	636.635
296.818	16.277	839.865	635.599
297.833	16.096	839.505	634.590
298.847	15.999	838.989	633.780
299.862	16.254	838.011	633.943
300.876	16.220	837.422	633.313
301.891	16.328	836.387	632.879
302.906	16.284	836.109	632.447
303.920	16.334	835.593	632.189
304.935	16.470	834.942	632.149
305.949	16.472	834.461	631.735
306.964	16.411	833.665	630.849
307.979	16.452	833.276	630.654
308.993	16.458	832.574	630.086
310.008	16.548	832.078	629.990
311.022	16.441	831.649	629.214
312.037	16.490	831.084	628.911
313.052	16.383	830.574	628.075
314.066	16.291	830.151	627.355
315.081	16.300	829.638	626.947
316.095	16.439	828.527	626.568
317.110	16.383	828.093	625.975
318.125	16.341	827.763	625.515
319.139	16.302	827.337	624.992
320.154	16.406	826.679	624.826
321.168	16.504	825.870	624.521
322.183	16.467	825.443	624.007
323.197	16.381	825.323	623.542
324.212	16.515	824.701	623.513
325.227	16.447	824.154	622.791
326.241	16.488	823.726	622.566
327.256	16.569	822.840	622.137
328.270	16.509	822.217	621.391
329.285	16.449	821.752	620.764
330.300	16.408	821.507	620.374
331.314	16.516	820.819	620.195
332.329	16.510	820.372	619.780
333.343	16.450	819.762	619.044
334.358	16.517	819.357	618.932
335.373	16.614	818.420	618.523
336.387	16.827	817.533	618.573
337.402	16.793	817.630	618.469
338.416	16.856	816.768	617.992
339.431	16.636	816.956	617.277
340.446	16.724	816.332	617.070
341.460	16.860	815.802	617.111
342.475	16.946	815.039	616.791
343.489	16.984	814.281	616.302
344.504	16.939	814.133	615.973
345.519	17.157	813.016	615.863
346.533	17.027	812.890	615.243
347.548	17.026	812.453	614.854
348.562	16.982	811.875	614.202
349.577	16.867	811.317	613.311
350.592	16.943	810.509	612.919
351.606	16.773	810.327	612.113
352.621	16.975	809.409	612.096
353.635	16.920	809.324	611.778
354.650	16.891	808.720	611.163
355.665	16.804	808.836	610.884
356.679	16.992	808.150	610.988
357.694	16.922	807.709	610.348
358.708	17.104	806.826	610.281
359.723	17.103	806.446	609.936
360.738	16.990	805.883	609.052
361.752	17.152	805.630	609.385
362.767	17.059	805.516	608.912
363.781	17.119	805.009	608.690
364.796	17.210	804.400	608.502
365.810	17.272	804.030	608.391
366.825	17.367	803.708	608.433
367.840	17.367	803.463	608.193
368.854	17.501	802.286	607.728
369.869	17.348	802.318	607.152
370.883	17.365	801.552	606.578
371.898	17.271	801.194	605.919
372.913	17.345	800.567	605.657
373.927	17.262	800.225	605.049
374.942	17.446	799.186	604.863
375.956	17.482	798.250	604.228
376.971	17.328	798.091	603.507
377.986	17.444	797.961	603.768
379.000	17.583	797.033	603.506
380.015	17.588	796.937	603.397
381.029	17.693	796.205	603.162
382.044	17.457	795.626	601.835
383.059	17.528	794.987	601.549
384.073	17.569	794.659	601.390
385.088	17.534	794.191	600.862
386.102	17.488	793.545	600.158
387.117	17.344	793.077	599.241
388.132	17.521	792.145	599.108
389.146	17.566	791.881	599.015
390.161	17.566	791.861	598.944
391.175	17.654	791.545	598.964
392.190	17.663	790.786	598.367
393.205	17.587	790.399	597.756
394.219	17.568	790.334	597.586
395.234	17.708	789.584	597.457
396.248	17.567	788.986	596.458
397.263	17.557	788.542	596.032
398.278	17.513	788.058	595.460
399.292	17.505	787.515	594.968
400.307	17.457	787.259	594.557
401.321	17.326	787.291	594.071
402.336	17.560	786.499	594.235
403.350	17.583	786.144	593.996
404.365	17.562	785.931	593.708
405.380	17.746	785.456	593.939
406.394	17.838	784.621	593.576
407.409	17.819	784.398	593.287
408.423	17.864	783.756	592.905
409.438	17.930	783.495	592.885
410.453	17.932	783.207	592.623
411.467	18.127	782.693	592.855
412.482	18.122	781.820	592.127
413.496	18.052	781.711	591.749
414.511	18.009	781.403	591.313
415.526	18.162	780.934	591.436
416.540	18.026	780.820	590.827
417.555	18.044	780.032	590.240
418.569	18.037	779.490	589.755
419.584	18.042	779.253	589.541
420.599	18.115	778.849	589.435
421.613	156.754	1369.488	1795.180
422.628	135.246	1455.528	1795.283
