DTS Sentinel unit serial number:	SN413079Multiplexer serial number:	ORYXHardware model number:	OX4-SRSoftware version number:	ORYX F/W v4.00 Oryx Data Collector v3.7.2.0data status	okinstallation	princeton_trtdifferential loss correction	single-endedforward channel	channel 3reverse channel	N/Adate	2019/09/10time	19:34:11forward acquisition time	60.00reverse acquisition time	0.00gamma	496.2192k internal	0.2320k external	0.2320temperature offset calibration	0.9912default loss term (dB/km)	0.3790temperature slope calibration	1.0000multiplexer offset coefficient	1.0000multiplexer slope coefficient	1.0000fibre end	0.00T internal ref (°C)	33.36T ext. ref 1 (°C)	-0.35T ext. ref 2 (°C)	26.03length (m)	temperature (°C)	Stokes	anti-Stokes-747.200	139.631	0.058	-0.077
-746.185	-200.000	0.024	-0.124
-745.171	160.503	-0.204	-0.288
-744.156	800.000	-0.127	0.368
-743.142	51.709	0.110	0.106
-742.127	-16.725	-0.353	0.226
-741.112	376.853	-0.100	0.207
-740.098	444.594	0.140	0.310
-739.083	212.975	-0.198	0.317
-738.069	-200.000	0.012	0.174
-737.054	-8.277	0.079	-0.054
-736.039	-80.620	-0.186	0.063
-735.025	440.638	0.082	0.180
-734.010	30.428	-0.238	-0.206
-732.996	48.901	-0.121	-0.115
-731.981	171.845	0.113	-0.164
-730.966	-94.682	0.351	-0.096
-729.952	-152.583	0.022	0.002
-728.937	800.000	0.102	-0.317
-727.923	86.618	-0.143	0.160
-726.908	-200.000	-0.079	-0.416
-725.894	-76.512	-0.254	-0.090
-724.879	-45.045	-0.186	-0.094
-723.864	-134.966	0.362	0.044
-722.850	218.987	-0.080	0.129
-721.835	-200.000	0.010	0.096
-720.821	217.332	0.052	0.084
-719.806	-133.986	-0.345	0.043
-718.791	-83.915	-0.269	-0.087
-717.777	-74.148	-0.299	-0.109
-716.762	20.299	0.256	0.209
-715.748	73.756	-0.082	-0.087
-714.733	60.563	0.438	-0.438
-713.718	-200.000	-0.030	-0.262
-712.704	-200.000	-0.024	-0.348
-711.689	-144.536	0.204	0.019
-710.675	-7.953	0.190	-0.129
-709.660	33.352	-0.072	-0.063
-708.645	62.984	0.101	-0.103
-707.631	-141.760	0.231	-0.023
-706.616	-200.000	0.029	0.151
-705.602	-131.338	0.183	0.024
-704.587	-36.790	-0.207	0.112
-703.572	130.022	0.172	-0.223
-702.558	43.097	0.063	0.058
-701.543	-200.000	-0.071	-0.641
-700.529	-57.808	-0.137	-0.061
-699.514	-2.543	-0.264	-0.186
-698.499	254.192	0.180	-0.310
-697.485	147.884	-0.053	0.072
-696.470	-76.131	0.303	0.108
-695.456	637.189	-0.041	-0.106
-694.441	458.665	0.060	0.135
-693.426	800.000	0.130	-0.425
-692.412	51.774	0.105	0.101
-691.397	136.628	0.315	-0.415
-690.383	-200.000	-0.002	-0.012
-689.368	-0.934	0.223	-0.159
-688.354	800.000	0.065	-0.208
-687.339	-91.582	0.348	-0.100
-686.324	800.000	-0.020	-0.088
-685.310	93.182	0.190	-0.217
-684.295	-90.977	0.192	-0.056
-683.281	-132.686	-0.213	-0.028
-682.266	800.000	-0.058	0.163
-681.251	-146.307	-0.187	-0.017
-680.237	-49.113	0.327	0.158
-679.222	-52.787	0.129	0.060
-678.208	387.332	0.123	0.257
-677.193	-200.000	0.030	-0.374
-676.178	-59.830	0.207	0.090
-675.164	-39.530	-0.165	-0.087
-674.149	-111.468	0.157	-0.032
-673.135	-122.725	-0.224	-0.037
-672.120	366.821	0.044	-0.089
-671.105	-87.419	-0.138	0.042
-670.091	-200.000	0.007	-0.109
-669.076	800.000	-0.063	-0.185
-668.062	35.436	-0.305	0.270
-667.047	390.463	-0.079	-0.165
-666.032	40.024	0.325	-0.295
-665.018	800.000	-0.066	-0.228
-664.003	-108.615	-0.187	-0.041
-662.989	580.737	0.119	0.294
-661.974	-16.617	-0.295	-0.188
-660.959	-151.075	0.169	-0.013
-659.945	-200.000	-0.020	0.294
-658.930	80.247	-0.171	-0.186
-657.916	-160.839	-0.279	0.015
-656.901	-31.357	0.207	-0.117
-655.886	-73.496	-0.157	0.058
-654.872	-93.945	-0.107	-0.030
-653.857	-146.037	-0.060	0.005
-652.843	-58.350	-0.108	-0.047
-651.828	-200.000	-0.027	-0.143
-650.814	-108.987	0.188	0.040
-649.799	-109.901	-0.450	-0.095
-648.784	-125.132	0.084	0.013
-647.770	216.006	0.176	0.281
-646.755	-200.000	-0.022	0.243
-645.741	-200.000	-0.072	-0.357
-644.726	-114.827	-0.242	-0.047
-643.711	-200.000	-0.060	0.276
-642.697	800.000	-0.090	0.385
-641.682	-60.434	-0.242	0.104
-640.668	-200.000	0.019	0.364
-639.653	104.579	-0.094	0.112
-638.638	249.083	0.092	0.158
-637.624	-168.918	-0.177	0.007
-636.609	-54.047	-0.127	0.058
-635.595	691.797	-0.096	-0.252
-634.580	593.763	-0.105	-0.262
-633.565	-2.915	-0.192	-0.135
-632.551	-54.121	-0.082	0.038
-631.536	180.048	0.136	-0.201
-630.522	54.299	0.220	0.213
-629.507	19.555	-0.101	0.082
-628.492	518.095	-0.092	-0.218
-627.478	-3.482	-0.134	-0.094
-626.463	-72.198	-0.294	-0.110
-625.449	157.465	-0.081	-0.113
-624.434	-107.173	0.391	0.087
-623.419	-175.675	0.114	-0.003
-622.405	800.000	-0.062	0.197
-621.390	584.931	-0.012	0.029
-620.376	-58.174	-0.176	0.077
-619.361	-170.931	-0.228	-0.008
-618.346	-13.983	0.278	-0.181
-617.332	-200.000	0.005	-0.115
-616.317	-118.958	0.264	0.047
-615.303	457.441	0.123	-0.274
-614.288	73.681	0.044	-0.047
-613.273	82.752	-0.261	-0.285
-612.259	-31.436	0.145	-0.082
-611.244	-200.000	-0.009	0.234
-610.230	-143.171	-0.193	0.019
-609.215	21.620	-0.147	-0.121
-608.201	-120.022	-0.073	-0.013
-607.186	-132.378	0.435	0.056
-606.171	-135.161	0.236	-0.029
-605.157	-73.353	-0.270	-0.099
-604.142	199.449	-0.110	-0.169
-603.128	2.888	-0.141	0.103
-602.113	201.945	-0.291	-0.451
-601.098	-96.460	0.128	0.034
-600.084	-143.844	0.063	-0.006
-599.069	800.000	-0.074	-0.281
-598.055	-200.000	0.047	-0.208
-597.040	38.295	-0.349	-0.313
-596.025	-10.780	-0.237	-0.158
-595.011	31.382	0.142	-0.123
-593.996	62.728	0.307	-0.309
-592.982	-24.958	-0.158	0.094
-591.967	-73.223	-0.312	0.115
-590.952	-63.791	0.300	-0.123
-589.938	-106.377	-0.378	-0.085
-588.923	-91.355	-0.215	-0.062
-587.909	63.060	0.100	0.100
-586.894	-53.512	-0.121	0.056
-585.879	20.594	-0.138	0.112
-584.865	-200.000	-0.007	0.080
-583.850	-53.120	-0.219	-0.101
-582.836	800.000	0.068	-0.244
-581.821	-108.863	0.287	0.062
-580.806	16.960	-0.172	-0.137
-579.792	-200.000	-0.021	0.332
-578.777	-200.000	-0.009	-0.171
-577.763	21.993	-0.127	0.104
-576.748	800.000	0.089	0.283
-575.733	285.052	0.033	0.059
-574.719	-200.000	-0.015	-0.077
-573.704	-72.034	-0.093	-0.035
-572.690	-54.502	0.223	0.101
-571.675	29.567	-0.230	0.196
-570.661	-96.074	0.166	-0.044
-569.646	36.964	0.134	0.119
-568.631	-189.392	-0.163	-0.002
-567.617	33.066	0.242	-0.210
-566.602	800.000	0.009	-0.026
-565.588	150.937	0.092	0.126
-564.573	48.573	-0.052	0.049
-563.558	-146.849	-0.169	-0.015
-562.544	-78.152	0.269	-0.093
-561.529	-200.000	-0.021	0.184
-560.515	-10.509	-0.184	0.122
-559.500	14.519	0.075	0.058
-558.485	-200.000	0.019	0.143
-557.471	800.000	-0.150	0.498
-556.456	149.423	-0.298	-0.406
-555.442	241.498	-0.029	-0.048
-554.427	-200.000	0.010	0.253
-553.412	380.570	-0.035	-0.071
-552.398	81.856	0.063	0.068
-551.383	137.869	-0.125	0.164
-550.369	-61.449	-0.096	0.041
-549.354	-165.037	-0.108	0.005
-548.339	-200.000	0.016	0.125
-547.325	158.570	-0.288	-0.401
-546.310	-58.049	0.090	-0.039
-545.296	-200.000	0.036	-0.270
-544.281	59.149	-0.081	-0.080
-543.266	-46.286	-0.202	-0.100
-542.252	-3.515	-0.225	-0.157
-541.237	-55.120	-0.251	-0.113
-540.223	800.000	0.042	0.119
-539.208	-104.682	-0.244	-0.056
-538.193	54.604	0.078	0.075
-537.179	-98.454	0.324	0.083
-536.164	409.842	-0.020	0.042
-535.150	5.868	-0.328	-0.244
-534.135	709.673	0.091	-0.242
-533.121	-27.594	-0.106	0.062
-532.106	128.403	-0.138	0.177
-531.091	335.992	-0.096	0.187
-530.077	146.086	-0.093	0.126
-529.062	-109.937	0.034	-0.007
-528.048	16.313	-0.164	0.130
-527.033	-38.541	-0.355	0.188
-526.018	800.000	-0.051	-0.205
-525.004	-96.274	0.613	0.163
-523.989	215.141	-0.197	0.313
-522.975	-76.659	-0.245	0.086
-521.960	233.637	-0.032	-0.053
-520.945	358.418	0.088	0.176
-519.931	-200.000	0.027	-0.334
-518.916	201.439	-0.031	-0.048
-517.902	-72.816	0.220	0.081
-516.887	-200.000	-0.015	-0.068
-515.872	280.886	-0.079	-0.141
-514.858	122.946	-0.249	0.312
-513.843	-200.000	0.008	-0.448
-512.829	143.690	-0.122	-0.163
-511.814	-200.000	-0.011	0.220
-510.799	-200.000	0.029	-0.136
-509.785	-144.337	0.095	-0.009
-508.770	-101.549	-0.280	-0.068
-507.756	591.975	-0.109	0.269
-506.741	-15.473	0.195	0.125
-505.726	133.375	0.152	0.197
-504.712	16.530	-0.237	0.187
-503.697	-154.018	-0.168	0.011
-502.683	-71.096	0.207	-0.078
-501.668	354.098	-0.033	0.065
-500.653	68.790	0.263	-0.271
-499.639	-32.597	-0.174	0.097
-498.624	-178.106	0.134	-0.003
-497.610	-11.846	0.120	0.079
-496.595	-200.000	-0.004	-0.115
-495.581	143.945	0.130	-0.174
-494.566	51.756	0.131	-0.125
-493.551	17.952	0.153	-0.122
-492.537	-200.000	-0.001	-0.102
-491.522	-94.405	0.217	0.059
-490.508	-51.440	-0.022	0.010
-489.493	377.042	-0.104	-0.212
-488.478	-200.000	-0.002	0.356
-487.464	270.075	0.201	-0.353
-486.449	300.193	-0.136	-0.252
-485.435	1.133	-0.237	-0.170
-484.420	78.879	0.167	0.179
-483.405	73.873	-0.189	-0.198
-482.391	-132.576	-0.095	-0.012
-481.376	36.438	0.205	-0.181
-480.362	-63.498	-0.059	-0.024
-479.347	93.844	-0.143	0.162
-478.332	2.705	0.177	0.129
-477.318	325.923	-0.057	0.108
-476.303	237.864	0.103	-0.171
-475.289	-169.349	-0.205	-0.008
-474.274	424.939	-0.018	-0.039
-473.259	-200.000	-0.056	0.330
-472.245	-19.731	0.198	0.122
-471.230	612.247	0.064	0.161
-470.216	800.000	0.008	0.035
-469.201	800.000	0.059	0.212
-468.186	164.522	0.090	-0.128
-467.172	66.148	0.037	0.037
-466.157	170.837	0.059	-0.085
-465.143	-10.228	-0.408	-0.271
-464.128	258.980	-0.025	0.044
-463.113	438.353	0.101	-0.219
-462.099	-176.595	-0.112	-0.003
-461.084	351.493	0.183	0.363
-460.070	-2.580	-0.283	-0.198
-459.055	800.000	-0.042	0.121
-458.040	70.640	0.121	-0.125
-457.026	789.299	-0.129	0.355
-456.011	-67.388	-0.078	-0.031
-454.997	-69.554	-0.159	0.061
-453.982	-36.252	0.317	0.171
-452.968	-200.000	-0.002	-0.053
-451.953	-200.000	0.004	-0.027
-450.938	-200.000	-0.001	0.165
-449.924	-146.045	0.406	0.036
-448.909	237.725	0.159	-0.263
-447.895	151.475	0.103	0.140
-446.880	428.161	-0.098	0.212
-445.865	454.498	0.060	0.132
-444.851	-109.254	0.405	-0.086
-443.836	41.624	0.161	-0.146
-442.822	46.180	0.245	-0.227
-441.807	-128.335	-0.048	-0.007
-440.792	-25.404	-0.180	0.106
-439.778	-200.000	0.007	-0.221
-438.763	-191.418	-0.072	-0.001
-437.749	508.188	-0.092	0.213
-436.734	64.855	0.118	0.119
-435.719	122.320	-0.235	0.293
-434.705	-200.000	0.028	0.365
-433.690	-81.904	-0.229	0.075
-432.676	129.132	0.114	-0.146
-431.661	131.130	-0.148	-0.190
-430.646	213.824	0.166	-0.262
-429.632	231.940	0.097	-0.159
-428.617	-78.571	0.281	-0.096
-427.603	-108.389	-0.074	0.016
-426.588	-200.000	-0.019	-0.184
-425.573	-200.000	0.231	-0.001
-424.559	-200.000	-0.012	0.131
-423.544	11.745	-0.258	-0.198
-422.530	800.000	0.057	0.166
-421.515	-200.000	0.003	-0.129
-420.500	-51.448	-0.177	0.082
-419.486	-12.680	0.182	-0.118
-418.471	-105.160	0.156	0.035
-417.457	800.000	0.049	0.189
-416.442	-117.585	0.121	-0.022
-415.428	800.000	-0.132	-0.393
-414.413	-200.000	0.012	-0.166
-413.398	800.000	0.012	-0.049
-412.384	-25.895	0.337	-0.198
-411.369	6.411	-0.119	-0.088
-410.355	-186.796	0.147	-0.002
-409.340	800.000	0.056	0.213
-408.325	800.000	-0.058	-0.160
-407.311	-78.476	0.460	0.157
-406.296	800.000	0.058	-0.170
-405.282	53.587	0.146	-0.140
-404.267	-146.452	-0.229	0.020
-403.252	-91.220	-0.250	0.071
-402.238	-96.176	-0.070	0.018
-401.223	-16.573	-0.250	-0.158
-400.209	-149.538	-0.175	-0.014
-399.194	-50.902	-0.269	-0.126
-398.179	-120.341	0.300	-0.051
-397.165	-184.325	-0.139	-0.002
-396.150	391.298	-0.061	-0.127
-395.136	-51.571	0.125	0.058
-394.121	-138.725	-0.185	-0.020
-393.106	-115.972	0.155	0.029
-392.092	-118.868	0.217	0.038
-391.077	384.050	-0.054	-0.112
-390.063	-144.956	-0.135	0.012
-389.048	800.000	-0.055	0.240
-388.033	-13.346	0.157	0.102
-387.019	-24.345	0.236	0.140
-386.004	296.974	-0.142	0.259
-384.990	-44.518	0.137	-0.068
-383.975	54.052	-0.074	0.071
-382.960	-46.206	0.147	-0.072
-381.946	78.970	-0.058	-0.062
-380.931	-16.452	0.109	-0.069
-379.917	-200.000	0.006	0.103
-378.902	-200.000	-0.011	0.127
-377.888	-76.218	0.093	-0.033
-376.873	-200.000	-0.049	-0.239
-375.858	417.388	0.054	-0.116
-374.844	55.775	0.160	0.155
-373.829	-37.355	0.180	-0.096
-372.815	12.004	-0.258	-0.198
-371.800	800.000	0.004	-0.015
-370.785	-110.890	-0.180	-0.037
-369.771	-123.984	-0.046	-0.007
-368.756	-68.739	0.177	0.068
-367.742	7.048	-0.247	0.184
-366.727	-82.217	-0.203	-0.066
-365.712	800.000	0.102	0.362
-364.698	774.197	0.100	0.272
-363.683	275.934	0.035	0.062
-362.669	-46.118	0.266	-0.131
-361.654	-200.000	-0.044	0.238
-360.639	-200.000	0.017	-0.324
-359.625	-200.000	0.006	0.252
-358.610	-63.567	-0.189	-0.077
-357.596	-64.845	0.511	-0.206
-356.581	449.959	-0.090	-0.198
-355.566	-87.470	0.211	0.064
-354.552	662.124	-0.107	-0.274
-353.537	-200.000	0.004	-0.135
-352.523	-114.726	-0.162	0.031
-351.508	-49.850	0.281	-0.133
-350.493	257.375	0.054	0.093
-349.479	514.626	-0.114	0.264
-348.464	-107.486	0.294	-0.064
-347.450	71.752	-0.104	0.107
-346.435	-111.465	0.303	-0.061
-345.420	-34.937	0.179	-0.097
-344.406	354.446	-0.147	-0.290
-343.391	800.000	-0.102	-0.311
-342.377	223.932	-0.122	0.196
-341.362	-68.562	0.404	0.156
-340.348	800.000	0.056	0.198
-339.333	105.222	0.047	-0.055
-338.318	-131.788	0.245	-0.032
-337.304	223.162	-0.076	-0.123
-336.289	255.878	-0.064	-0.109
-335.275	-110.508	-0.540	0.112
-334.260	800.000	0.045	-0.178
-333.245	170.788	0.326	0.465
-332.231	13.507	0.261	0.202
-331.216	155.699	0.024	-0.033
-330.202	209.490	0.170	-0.265
-329.187	-120.615	0.354	0.060
-328.172	800.000	-0.080	0.327
-327.158	-176.600	0.227	0.006
-326.143	44.097	-0.124	-0.113
-325.129	128.702	0.138	-0.175
-324.114	-200.000	0.017	0.126
-323.099	-155.299	-0.104	0.007
-322.085	-125.742	-0.301	-0.045
-321.070	130.283	-0.101	0.129
-320.056	-200.000	0.044	0.238
-319.041	241.891	0.143	-0.238
-318.026	-200.000	0.019	-0.154
-317.012	-200.000	0.022	-0.171
-315.997	-3.083	0.347	0.241
-314.983	-124.566	-0.227	0.035
-313.968	-137.804	0.603	-0.067
-312.953	-125.166	-0.176	0.027
-311.939	800.000	-0.107	-0.332
-310.924	-200.000	0.024	-0.417
-309.910	-200.000	-0.021	-0.127
-308.895	-28.133	-0.069	0.040
-307.880	-9.806	0.075	-0.049
-306.866	-92.401	0.180	-0.050
-305.851	800.000	0.100	0.284
-304.837	61.256	0.098	0.097
-303.822	648.899	0.090	-0.229
-302.807	612.525	0.108	-0.269
-301.793	-200.000	-0.012	-0.063
-300.778	-79.637	-0.176	0.059
-299.764	-56.065	-0.179	0.079
-298.749	-72.842	0.177	-0.065
-297.735	128.698	0.127	0.160
-296.720	125.136	-0.270	-0.339
-295.705	4.936	0.161	-0.117
-294.691	371.059	0.063	0.127
-293.676	-0.267	-0.056	0.040
-292.662	138.634	-0.042	-0.054
-291.647	104.210	0.100	0.117
-290.632	694.596	0.132	0.345
-289.618	63.242	-0.155	-0.154
-288.603	-120.354	-0.069	0.012
-287.589	396.811	-0.078	-0.163
-286.574	800.000	0.042	-0.143
-285.559	-135.233	-0.009	-0.001
-284.545	76.560	-0.236	-0.248
-283.530	-144.476	0.266	0.024
-282.516	-116.747	-0.225	0.041
-281.501	-62.425	-0.229	-0.094
-280.486	800.000	-0.128	0.460
-279.472	800.000	-0.082	-0.257
-278.457	-135.914	0.052	-0.006
-277.443	-70.331	-0.157	0.059
-276.428	-112.095	0.223	-0.045
-275.413	-164.622	0.084	-0.004
-274.399	-47.643	0.210	-0.101
-273.384	-31.240	-0.089	-0.050
-272.370	128.152	-0.065	-0.082
-271.355	143.538	0.150	0.198
-270.340	-200.000	-0.034	-0.190
-269.326	-51.351	-0.123	-0.057
-268.311	800.000	0.025	0.087
-267.297	-200.000	0.000	-0.272
-266.282	55.632	-0.334	-0.321
-265.267	-11.660	0.129	0.084
-264.253	439.574	-0.154	0.334
-263.238	-129.598	-0.201	0.028
-262.224	24.279	-0.286	0.235
-261.209	800.000	0.054	-0.202
-260.195	800.000	0.072	-0.249
-259.180	287.339	-0.091	0.164
-258.165	-200.000	0.043	0.206
-257.151	327.315	-0.212	-0.404
-256.136	320.374	-0.069	-0.129
-255.122	-50.220	-0.331	0.155
-254.107	38.242	0.122	0.108
-253.092	456.084	-0.061	0.133
-252.078	64.481	0.090	0.090
-251.063	84.591	-0.114	0.124
-250.049	800.000	-0.055	-0.236
-249.034	-200.000	0.026	0.240
-248.019	-61.854	0.151	0.063
-247.005	800.000	-0.106	-0.355
-245.990	43.161	0.074	-0.067
-244.976	49.138	-0.220	0.205
-243.961	-73.569	-0.220	0.080
-242.946	89.533	0.114	-0.126
-241.932	-200.000	-0.012	-0.103
-240.917	-12.710	-0.087	-0.056
-239.903	26.414	0.073	0.061
-238.888	147.084	0.117	0.156
-237.873	-125.612	0.523	-0.079
-236.859	270.359	0.071	0.124
-235.844	-88.699	0.019	0.006
-234.830	42.272	0.144	0.130
-233.815	44.296	-0.052	-0.048
-232.800	-119.962	0.123	0.021
-231.786	-200.000	-0.059	0.359
-230.771	-162.812	0.228	-0.011
-229.757	-55.846	-0.270	0.119
-228.742	-125.687	0.283	0.042
-227.727	-200.000	-0.044	-0.303
-226.713	-138.878	-0.337	0.036
-225.698	-55.351	-0.054	0.024
-224.684	800.000	0.051	-0.155
-223.669	452.560	0.058	0.127
-222.655	402.153	-0.126	0.263
-221.640	-200.000	0.025	0.318
-220.625	-200.000	-0.006	0.116
-219.611	800.000	0.040	0.118
-218.596	149.453	-0.129	0.174
-217.582	-200.000	-0.048	0.336
-216.567	800.000	0.055	0.155
-215.552	160.368	0.096	-0.132
-214.538	-29.233	-0.248	-0.141
-213.523	359.358	0.141	0.279
-212.509	188.598	-0.120	-0.178
-211.494	790.525	0.105	-0.286
-210.479	-67.329	0.051	0.020
-209.465	-124.308	-0.449	0.069
-208.450	-17.679	-0.096	-0.060
-207.436	-200.000	0.025	-0.131
-206.421	-200.000	0.038	-0.170
-205.406	688.800	0.083	0.215
-204.392	126.505	-0.144	-0.181
-203.377	800.000	-0.058	0.203
-202.363	255.848	0.089	-0.151
-201.348	708.700	0.027	0.071
-200.333	4.485	-0.229	-0.166
-199.319	-20.053	0.142	0.086
-198.304	800.000	0.091	0.281
-197.290	-200.000	-0.035	0.269
-196.275	146.580	-0.169	0.224
-195.260	777.310	-0.104	0.282
-194.246	-200.000	0.018	0.093
-193.231	6.189	-0.191	-0.140
-192.217	800.000	0.092	0.293
-191.202	71.696	-0.227	0.233
-190.187	800.000	0.072	0.214
-189.173	551.003	-0.128	-0.304
-188.158	800.000	-0.061	-0.180
-187.144	-132.377	0.129	-0.016
-186.129	722.897	0.048	0.127
-185.114	-200.000	0.063	0.410
-184.100	747.469	0.097	0.259
-183.085	800.000	0.069	-0.211
-182.071	-81.561	0.184	0.060
-181.056	-103.279	0.128	0.030
-180.042	800.000	0.074	0.287
-179.027	548.970	0.069	0.163
-178.012	-200.000	0.010	-0.184
-176.998	-186.555	0.328	0.005
-175.983	-6.971	0.034	0.023
-174.969	123.941	0.098	0.122
-173.954	98.697	0.088	-0.100
-172.939	-101.802	-0.126	-0.030
-171.925	353.302	-0.210	-0.412
-170.910	-146.542	0.470	0.040
-169.896	-200.000	0.005	0.372
-168.881	800.000	-0.040	-0.109
-167.866	-200.000	0.070	0.323
-166.852	-37.230	0.050	-0.027
-165.837	-146.021	-0.145	0.013
-164.823	-186.955	0.121	0.002
-163.808	89.881	0.280	-0.309
-162.793	-178.857	0.239	0.005
-161.779	-200.000	0.040	0.183
-160.764	-73.085	-0.186	0.067
-159.750	-74.849	0.294	-0.104
-158.735	619.271	0.119	0.295
-157.720	321.794	0.092	-0.173
-156.706	-200.000	0.047	-0.355
-155.691	120.730	0.094	0.115
-154.677	-65.794	-0.226	-0.089
-153.662	209.247	0.167	0.259
-152.647	-200.000	-0.009	-0.433
-151.633	-171.849	0.328	-0.011
-150.618	-150.533	-0.174	-0.013
-149.604	-134.669	0.240	0.029
-148.589	-3.596	0.290	0.199
-147.574	-40.113	-0.110	-0.057
-146.560	121.487	-0.070	-0.086
-145.545	-50.660	0.251	-0.117
-144.531	-78.870	-0.214	-0.072
-143.516	40.904	0.095	-0.085
-142.502	-144.843	-0.234	-0.021
-141.487	-200.000	-0.016	-0.126
-140.472	-200.000	-0.054	0.362
-139.458	-23.100	-0.250	-0.149
-138.443	217.663	-0.144	-0.227
-137.429	122.563	0.125	0.155
-136.414	116.003	-0.108	0.131
-135.399	-115.712	0.272	0.050
-134.385	91.997	0.159	0.177
-133.370	-28.799	0.147	0.083
-132.356	-112.784	-0.248	-0.049
-131.341	-200.000	0.023	-0.237
-130.326	92.095	0.195	-0.216
-129.312	399.017	-0.063	-0.131
-128.297	74.698	0.090	-0.094
-127.283	-131.736	0.091	0.012
-126.268	205.606	-0.223	-0.342
-125.253	-48.720	0.170	-0.080
-124.239	24.920	-0.074	0.061
-123.224	-59.208	-0.261	-0.111
-122.210	501.395	0.055	-0.125
-121.195	-200.000	-0.195	-0.000
-120.180	136.860	-0.031	-0.041
-119.166	9.920	-0.127	0.095
-118.151	-27.506	0.237	0.136
-117.137	-200.000	0.025	-0.182
-116.122	521.281	0.048	-0.110
-115.107	7.278	0.169	-0.124
-114.093	73.388	0.118	0.121
-113.078	18.508	-0.087	-0.069
-112.064	-19.636	-0.168	0.103
-111.049	128.580	0.062	-0.078
-110.034	-170.863	-0.136	-0.005
-109.020	-53.388	0.279	0.126
-108.005	245.682	0.062	0.102
-106.991	-156.870	-0.310	-0.019
-105.976	800.000	0.065	-0.278
-104.962	213.163	0.035	-0.054
-103.947	-50.696	-0.239	-0.111
-102.932	-41.487	-0.155	0.079
-101.918	-138.489	0.212	0.023
-100.903	59.100	0.173	0.168
-99.889	502.759	-0.089	-0.203
-98.874	-200.000	-0.039	-0.274
-97.859	-72.750	-0.260	0.094
-96.845	108.964	0.036	-0.042
-95.830	726.130	-0.074	-0.194
-94.816	97.499	-0.197	0.223
-93.801	800.000	0.026	0.074
-92.786	-200.000	0.014	-0.170
-91.772	-41.928	0.071	0.036
-90.757	-133.677	0.372	0.046
-89.743	-28.935	-0.265	0.150
-88.728	55.900	-0.297	0.284
-87.713	-49.949	0.185	0.087
-86.699	34.954	0.116	-0.100
-85.684	61.978	0.111	0.109
-84.670	248.102	-0.037	-0.061
-83.655	-200.000	-0.025	-0.260
-82.640	463.430	0.091	0.200
-81.626	-96.796	-0.272	0.071
-80.611	39.363	0.075	0.066
-79.597	-26.568	-0.240	0.139
-78.582	800.000	0.073	-0.243
-77.567	-97.549	0.116	-0.030
-76.553	0.371	-0.092	0.065
-75.538	12.695	-0.043	0.033
-74.524	116.771	-0.050	0.061
-73.509	19.114	0.111	0.088
-72.494	800.000	-0.062	0.205
-71.480	-41.471	-0.336	-0.171
-70.465	-45.516	0.294	0.143
-69.451	-63.078	-0.184	-0.075
-68.436	77.871	-0.184	0.194
-67.422	129.591	0.042	0.053
-66.407	800.000	-0.132	-0.518
-65.392	-115.093	-0.172	-0.032
-64.378	-73.623	0.223	-0.080
-63.363	176.341	-0.164	0.235
-62.349	-39.728	0.150	0.077
-61.334	24.696	-1.280	-1.044
-60.319	-70.633	0.293	0.109
-59.305	-200.000	-0.029	-0.836
-58.290	49.496	0.705	0.654
-57.276	-200.000	0.274	1.698
-56.261	-200.000	101.299	618.604
-55.246	598.953	1438.887	3513.294
-54.232	182.789	2644.494	3841.141
-53.217	116.460	2192.914	2646.390
-52.203	43.678	1724.576	1553.213
-51.188	36.545	1538.340	1336.341
-50.173	34.122	1511.872	1296.811
-49.159	53.028	1564.115	1473.212
-48.144	55.128	1582.032	1504.596
-47.130	36.758	1537.067	1336.496
-46.115	33.612	1522.137	1301.904
-45.100	33.461	1518.639	1297.830
-44.086	33.391	1516.962	1295.863
-43.071	33.439	1514.861	1294.351
-42.057	33.406	1513.009	1292.488
-41.042	33.377	1511.611	1291.043
-40.027	33.310	1510.595	1289.672
-39.013	33.377	1508.918	1288.646
-37.998	33.355	1508.257	1287.876
-36.984	33.371	1507.012	1286.874
-35.969	33.474	1505.238	1286.004
-34.954	33.367	1504.076	1284.232
-33.940	33.301	1502.796	1282.642
-32.925	33.364	1501.475	1281.890
-31.911	33.374	1500.382	1280.974
-30.896	33.420	1498.953	1280.017
-29.881	33.412	1497.614	1278.767
-28.867	33.407	1496.098	1277.389
-27.852	33.412	1494.661	1276.146
-26.838	33.367	1493.298	1274.627
-25.823	33.377	1492.161	1273.672
-24.809	33.416	1490.272	1272.275
-23.794	33.382	1488.907	1270.830
-22.779	33.405	1487.738	1269.936
-21.765	33.287	1486.972	1268.440
-20.750	33.388	1485.456	1267.770
-19.736	33.429	1484.386	1267.081
-18.721	33.335	1483.725	1265.838
-17.706	33.410	1482.277	1265.055
-16.692	33.430	1481.043	1264.084
-15.677	33.376	1480.546	1263.250
-14.663	33.373	1479.476	1262.268
-13.648	33.330	1478.179	1260.825
-12.633	33.251	1477.739	1259.876
-11.619	33.274	1477.027	1259.367
-10.604	33.372	1475.682	1258.822
-9.590	33.295	1475.179	1257.835
-8.575	33.328	1473.916	1256.926
-7.560	33.321	1473.355	1256.351
-6.546	33.374	1472.592	1256.005
-5.531	33.309	1471.582	1254.662
-4.517	33.277	1470.059	1253.100
-3.502	33.338	1469.312	1252.816
-2.487	33.259	1468.626	1251.658
-1.473	33.280	1467.053	1250.410
-0.458	33.273	1466.127	1249.521
0.556	30.822	1455.920	1237.441
1.571	27.487	1428.800	1192.490
2.586	23.511	1366.131	1115.138
3.600	21.723	1282.230	1036.002
4.615	20.511	1237.157	992.578
5.629	17.562	1181.692	931.881
6.644	8.553	1095.422	817.886
7.659	0.880	1053.785	748.865
8.673	-0.223	1048.146	739.360
9.688	-0.268	1044.655	736.615
10.702	-0.401	1042.880	734.643
11.717	-0.497	1041.442	733.094
12.731	2.632	1044.838	750.768
13.746	11.847	1057.524	805.330
14.761	17.955	1065.310	841.369
15.775	18.341	1064.936	842.903
16.790	18.185	1064.035	841.347
17.804	17.869	1063.227	839.078
18.819	17.615	1062.432	837.130
19.834	17.732	1061.556	836.941
20.848	17.735	1060.882	836.351
21.863	17.786	1060.598	836.300
22.877	17.623	1060.660	835.477
23.892	17.768	1059.043	834.841
24.907	17.586	1058.817	833.697
25.921	17.729	1057.976	833.660
26.936	17.817	1057.096	833.323
27.950	17.715	1055.808	831.737
28.965	17.647	1055.350	830.969
29.980	17.682	1053.044	829.253
30.994	17.603	1051.416	827.515
32.009	17.772	1050.624	827.637
33.023	17.780	1050.195	827.264
34.038	17.637	1048.687	825.308
35.053	17.681	1047.783	824.739
36.067	17.835	1047.258	824.998
37.082	17.804	1046.266	823.991
38.096	17.838	1045.663	823.609
39.111	18.071	1044.755	823.944
40.126	18.023	1043.791	822.879
41.140	18.027	1042.258	821.619
42.155	17.672	1041.242	819.041
43.169	17.546	1039.632	817.095
44.184	17.502	1039.180	816.457
45.199	17.586	1037.790	815.695
46.213	17.560	1036.706	814.644
47.228	17.399	1035.692	813.006
48.242	17.545	1034.699	812.854
49.257	17.614	1033.348	812.049
50.271	17.708	1032.548	811.799
51.286	17.741	1031.929	811.395
52.301	17.651	1030.885	810.072
53.315	17.769	1029.939	809.818
54.330	17.769	1028.897	808.930
55.344	17.724	1028.457	808.299
56.359	17.710	1027.484	807.397
57.374	17.709	1026.396	806.466
58.388	17.645	1025.061	805.043
59.403	17.649	1024.687	804.694
60.417	17.756	1023.717	804.366
61.432	17.663	1022.558	802.949
62.447	17.520	1022.119	801.859
63.461	17.689	1021.647	802.212
64.476	17.741	1020.870	801.777
65.490	17.675	1019.902	800.636
66.505	17.577	1018.404	798.930
67.520	17.546	1017.672	798.136
68.534	17.682	1016.816	798.034
69.549	17.724	1015.740	797.313
70.563	17.403	1014.721	794.944
71.578	17.209	1014.320	793.655
72.593	17.416	1013.229	793.694
73.607	17.400	1011.885	792.497
74.622	17.329	1011.112	791.490
75.636	17.477	1010.269	791.449
76.651	17.625	1009.588	791.536
77.666	17.472	1008.975	790.271
78.680	17.420	1007.755	789.006
79.695	17.362	1007.419	788.405
80.709	17.509	1006.876	788.590
81.724	17.544	1005.963	787.968
82.739	17.583	1004.558	786.979
83.753	17.585	1004.053	786.522
84.768	17.848	1003.382	787.141
85.782	17.900	1002.823	786.871
86.797	18.073	1001.289	786.397
87.812	17.983	1001.048	785.721
88.826	17.982	999.628	784.532
89.841	17.920	998.780	783.515
90.855	17.976	998.238	783.275
91.870	18.024	997.537	782.876
92.884	18.001	996.636	781.996
93.899	17.843	995.547	780.351
94.914	17.806	994.870	779.582
95.928	17.909	994.464	779.665
96.943	18.111	992.894	779.287
97.957	17.729	991.972	776.751
98.972	17.542	991.251	775.267
99.987	17.387	989.754	773.323
101.001	17.396	988.975	772.687
102.016	17.606	988.840	773.465
103.030	17.816	987.777	773.517
104.045	17.674	986.640	771.917
105.060	17.526	985.193	770.046
106.074	17.203	984.468	767.955
107.089	17.309	983.781	767.829
108.103	17.706	983.305	769.182
109.118	17.901	982.477	769.344
110.133	17.773	980.848	767.425
111.147	17.668	980.340	766.487
112.162	17.472	979.557	764.926
113.176	17.524	977.993	763.868
114.191	17.577	977.125	763.360
115.206	17.666	976.294	763.046
116.220	17.265	974.863	760.063
117.235	17.223	973.605	758.827
118.249	17.473	973.097	759.480
119.264	17.412	972.519	758.690
120.279	17.498	971.135	757.930
121.293	17.443	970.033	756.754
122.308	17.552	969.585	756.824
123.322	17.567	968.469	755.953
124.337	17.543	967.764	755.229
125.352	17.494	966.316	753.816
126.366	17.073	964.675	750.607
127.381	16.868	962.985	748.319
128.395	17.257	962.592	749.664
129.410	17.704	962.327	751.365
130.424	17.890	961.289	751.307
131.439	17.930	960.308	750.649
132.454	17.842	958.930	749.115
133.468	17.876	957.975	748.454
134.483	17.661	957.697	747.230
135.497	17.825	956.666	747.076
136.512	17.922	956.290	747.142
137.527	18.016	955.109	746.565
138.541	18.207	954.180	746.603
139.556	18.063	953.724	745.554
140.570	18.041	952.743	744.625
141.585	18.070	951.859	743.994
142.600	17.997	951.162	743.065
143.614	17.932	950.028	741.833
144.629	18.018	949.354	741.614
145.643	18.163	948.872	741.801
146.658	18.158	947.398	740.560
147.673	17.986	946.492	739.043
148.687	17.900	945.331	737.698
149.702	17.867	944.501	736.846
150.716	17.714	943.585	735.405
151.731	17.950	942.174	735.254
152.746	17.903	941.703	734.620
153.760	18.111	940.836	734.775
154.775	18.147	940.713	734.768
155.789	18.186	939.567	733.974
156.804	18.203	938.032	732.782
157.819	18.154	937.444	732.049
158.833	18.169	936.644	731.425
159.848	18.192	936.085	731.023
160.862	18.237	935.010	730.311
161.877	18.135	933.749	728.825
162.892	18.076	933.466	728.287
163.906	18.340	932.597	728.669
164.921	18.115	932.126	727.278
165.935	18.241	930.435	726.433
166.950	18.298	929.113	725.575
167.964	18.217	928.283	724.523
168.979	18.177	927.434	723.623
169.994	18.190	926.096	722.570
171.008	18.079	925.231	721.363
172.023	18.156	924.567	721.109
173.037	18.202	924.032	720.819
174.052	18.028	922.817	719.078
175.067	17.805	922.032	717.463
176.081	17.950	921.238	717.391
177.096	18.124	920.223	717.269
178.110	17.988	919.759	716.274
179.125	17.908	918.090	714.573
180.140	17.656	917.211	712.774
181.154	17.777	916.414	712.595
182.169	17.867	916.099	712.666
183.183	18.018	915.513	712.776
184.198	18.197	914.786	712.893
185.213	18.200	914.019	712.246
186.227	18.151	913.229	711.362
187.242	18.260	913.083	711.638
188.256	18.257	912.257	710.918
189.271	18.144	911.585	709.862
190.286	18.161	910.973	709.397
191.300	18.229	909.980	708.840
192.315	17.722	908.841	705.792
193.329	17.097	907.408	702.034
194.344	16.787	906.061	699.650
195.359	17.246	906.415	701.756
196.373	18.027	906.410	704.915
197.388	18.163	906.341	705.360
198.402	18.148	905.038	704.219
199.417	17.908	904.600	702.829
200.432	17.977	904.203	702.743
201.446	17.789	903.267	701.181
202.461	17.556	902.378	699.470
203.475	17.560	901.889	699.049
204.490	17.189	900.560	696.434
205.504	16.386	898.579	691.557
206.519	16.718	898.787	693.013
207.534	17.580	899.042	696.674
208.548	17.699	898.416	696.616
209.563	17.937	898.046	697.240
210.577	18.096	897.329	697.266
211.592	17.802	896.503	695.365
212.607	18.043	896.824	696.538
213.621	18.211	895.646	696.242
214.636	18.210	894.858	695.563
215.650	18.097	894.404	694.694
216.665	18.112	894.076	694.435
217.680	18.190	893.418	694.180
218.694	18.480	892.111	694.278
219.709	18.020	891.377	691.784
220.723	17.651	890.921	689.877
221.738	17.902	890.421	690.443
222.753	18.226	889.610	691.060
223.767	18.104	888.664	689.774
224.782	18.025	888.077	688.936
225.796	18.260	887.493	689.370
226.811	18.357	887.031	689.342
227.826	17.873	885.667	686.276
228.840	17.370	883.833	682.774
229.855	17.402	883.221	682.371
230.869	17.582	883.351	683.130
231.884	17.324	881.774	680.820
232.899	17.466	881.107	680.812
233.913	18.144	881.505	683.771
234.928	18.242	880.996	683.706
235.942	18.171	880.464	682.952
236.957	18.156	879.988	682.462
237.972	17.926	878.718	680.498
238.986	17.873	878.013	679.681
240.001	17.903	877.485	679.331
241.015	17.892	876.856	678.740
242.030	17.975	875.889	678.261
243.045	18.021	875.487	678.074
244.059	18.204	874.891	678.278
245.074	18.359	874.121	678.234
246.088	18.407	873.199	677.651
247.103	17.906	872.534	675.093
248.117	17.860	871.645	674.163
249.132	18.373	871.649	676.134
250.147	18.452	871.541	676.302
251.161	18.638	870.437	676.116
252.176	18.739	869.797	675.957
253.190	18.728	869.018	675.250
254.205	18.898	868.540	675.487
255.220	18.897	868.196	675.156
256.234	18.978	867.518	674.886
257.249	18.946	866.451	673.872
258.263	18.729	865.896	672.530
259.278	18.754	865.757	672.461
260.293	18.788	865.125	672.043
261.307	18.908	864.316	671.824
262.322	18.704	863.767	670.541
263.336	18.672	862.781	669.591
264.351	18.290	861.676	667.186
265.366	17.082	859.855	661.016
266.380	16.804	858.610	658.921
267.395	17.617	858.923	662.264
268.409	18.430	858.927	665.364
269.424	18.483	858.299	665.024
270.439	18.556	858.059	665.065
271.453	18.647	857.414	664.857
272.468	18.808	856.749	664.908
273.482	19.048	855.856	665.084
274.497	19.036	855.570	664.754
275.512	18.867	854.059	662.870
276.526	18.322	853.029	659.913
277.541	18.518	852.783	660.420
278.555	18.921	852.286	661.525
279.570	18.604	851.515	659.650
280.585	18.362	850.697	658.030
281.599	18.523	850.139	658.159
282.614	18.731	849.321	658.264
283.628	18.427	848.280	656.233
284.643	18.056	847.571	654.206
285.657	18.424	847.658	655.627
286.672	18.300	846.875	654.488
287.687	17.850	846.274	652.245
288.701	18.210	845.736	653.149
289.716	18.644	845.010	654.186
290.730	18.338	844.362	652.461
291.745	18.030	843.761	650.764
292.760	17.985	842.348	649.445
293.774	17.835	841.988	648.542
294.789	18.662	842.430	651.967
295.803	19.248	842.424	654.130
296.818	19.222	841.962	653.616
297.833	19.555	840.745	653.874
298.847	19.142	840.212	651.838
299.862	18.876	839.102	649.915
300.876	19.000	838.983	650.232
301.891	19.232	838.203	650.448
302.906	19.124	837.652	649.554
303.920	18.880	836.315	647.540
304.935	18.577	835.801	645.943
305.949	19.024	835.400	647.258
306.964	19.239	834.669	647.442
307.979	19.104	833.927	646.305
308.993	19.055	833.991	646.113
310.008	19.463	833.471	647.183
311.022	19.470	833.138	646.893
312.037	19.337	832.131	645.557
313.052	19.139	831.677	644.405
314.066	19.187	830.611	643.701
315.081	18.539	830.023	640.769
316.095	17.992	828.470	637.474
317.110	18.267	828.879	638.758
318.125	18.930	828.922	641.206
319.139	18.850	827.747	639.945
320.154	17.882	826.224	635.109
321.168	17.410	825.065	632.408
322.183	17.891	825.662	634.600
323.197	18.710	825.673	637.596
324.212	18.972	825.186	638.136
325.227	19.092	824.708	638.154
326.241	19.249	824.531	638.541
327.256	19.415	823.558	638.346
328.270	19.053	823.397	636.827
329.285	18.952	822.597	635.776
330.300	19.026	821.834	635.403
331.314	18.724	821.227	633.765
332.329	18.908	820.092	633.511
333.343	19.144	819.705	634.026
334.358	19.252	819.426	634.149
335.373	19.205	818.776	633.418
336.387	19.346	818.470	633.642
337.402	19.421	818.131	633.600
338.416	19.575	817.976	633.989
339.431	19.467	816.706	632.554
340.446	19.484	816.036	632.041
341.460	19.727	815.579	632.520
342.475	19.845	814.684	632.199
343.489	19.423	814.335	630.334
344.504	19.363	813.833	629.671
345.519	19.650	813.649	630.518
346.533	19.869	813.365	631.041
347.548	19.805	812.744	630.272
348.562	19.995	812.119	630.422
349.577	20.018	811.840	630.234
350.592	20.035	811.185	629.731
351.606	19.916	810.925	629.040
352.621	19.989	810.409	628.849
353.635	19.805	809.662	627.549
354.650	19.839	809.075	627.159
355.665	19.479	808.270	625.176
356.679	18.550	806.689	620.540
357.694	18.471	805.959	619.635
358.708	19.025	805.680	621.367
359.723	18.934	805.490	620.839
360.738	19.292	804.903	621.623
361.752	19.698	804.887	623.019
362.767	19.692	804.530	622.665
363.781	19.851	804.546	623.197
364.796	20.147	803.707	623.555
365.810	20.303	803.520	623.917
366.825	20.233	803.379	623.502
367.840	20.114	803.112	622.809
368.854	20.016	802.214	621.708
369.869	19.754	801.569	620.213
370.883	19.715	800.726	619.368
371.898	19.778	800.273	619.186
372.913	19.703	799.384	618.175
373.927	19.518	798.687	616.920
374.942	19.645	798.496	617.171
375.956	19.804	797.930	617.245
376.971	19.862	797.438	617.018
377.986	19.999	796.816	616.972
379.000	20.010	796.422	616.651
380.015	20.051	795.813	616.270
381.029	20.086	795.102	615.791
382.044	19.984	794.698	615.059
383.059	20.173	794.213	615.302
384.073	20.077	794.010	614.750
385.088	20.050	793.479	614.188
386.102	20.237	792.712	614.200
387.117	20.163	792.257	613.533
388.132	20.160	791.790	613.105
389.146	20.000	791.205	612.033
390.161	19.500	789.880	609.191
391.175	19.482	789.806	609.015
392.190	19.945	789.578	610.421
393.205	19.974	788.952	609.984
394.219	19.089	787.423	605.636
395.234	17.900	785.814	600.165
396.248	17.292	784.686	597.117
397.263	18.324	785.647	601.420
398.278	19.677	786.750	606.970
399.292	20.083	786.681	608.286
400.307	19.885	785.377	606.532
401.321	19.868	785.357	606.403
402.336	19.829	785.153	606.053
403.350	20.248	784.702	607.120
404.365	20.483	784.607	607.813
405.380	20.451	784.178	607.316
406.394	20.785	783.878	608.198
407.409	20.903	783.477	608.243
408.423	20.786	782.685	607.167
409.438	20.748	782.288	606.674
410.453	20.720	782.100	606.376
411.467	20.756	781.598	606.060
412.482	20.891	780.778	605.841
413.496	20.672	780.775	605.023
414.511	20.790	780.510	605.171
415.526	20.787	779.689	604.472
416.540	20.879	779.807	604.830
417.555	20.752	778.811	603.564
418.569	20.682	778.296	602.869
419.584	20.435	777.881	601.639
420.599	20.582	777.120	601.503
421.613	156.289	1359.501	1794.494
422.628	134.952	1444.366	1794.587
