DTS Sentinel unit serial number:	SN413079Multiplexer serial number:	ORYXHardware model number:	OX4-SRSoftware version number:	ORYX F/W v4.00 Oryx Data Collector v3.7.2.0data status	okinstallation	princeton_trtdifferential loss correction	single-endedforward channel	channel 3reverse channel	N/Adate	2019/09/12time	08:22:11forward acquisition time	60.00reverse acquisition time	0.00gamma	496.2192k internal	0.2312k external	0.2312temperature offset calibration	1.0031default loss term (dB/km)	0.3790temperature slope calibration	1.0000multiplexer offset coefficient	1.0000multiplexer slope coefficient	1.0000fibre end	0.00T internal ref (°C)	33.52T ext. ref 1 (°C)	1.69T ext. ref 2 (°C)	30.05length (m)	temperature (°C)	Stokes	anti-Stokes-747.200	800.000	-0.165	0.505
-746.185	-200.000	-0.026	0.329
-745.171	72.222	0.079	-0.083
-744.156	57.525	-0.141	0.140
-743.142	62.022	-0.181	0.183
-742.127	-200.000	-0.021	0.561
-741.112	24.820	-0.103	0.086
-740.098	-200.000	0.034	0.419
-739.083	-17.255	0.097	0.062
-738.069	70.949	-0.213	0.223
-737.054	261.217	0.098	0.172
-736.039	-123.711	-0.364	0.058
-735.025	800.000	0.059	-0.224
-734.010	527.182	-0.086	-0.206
-732.996	91.404	0.103	0.117
-731.981	-87.972	0.300	0.091
-730.966	-139.207	-0.269	-0.029
-729.952	452.897	0.137	-0.306
-728.937	36.671	0.028	0.025
-727.923	800.000	0.080	-0.259
-726.908	-200.000	-0.028	-0.154
-725.894	-200.000	0.002	0.135
-724.879	800.000	-0.033	0.116
-723.864	172.856	-0.003	0.005
-722.850	-3.976	-0.053	-0.037
-721.835	-177.694	-0.253	-0.006
-720.821	800.000	-0.098	0.328
-719.806	20.474	-0.213	0.175
-718.791	800.000	0.044	-0.135
-717.777	232.707	0.083	-0.138
-716.762	-10.139	-0.096	0.065
-715.748	-69.390	0.038	0.015
-714.733	113.115	-0.119	-0.146
-713.718	-122.042	0.061	0.010
-712.704	-128.397	0.233	-0.034
-711.689	-78.880	-0.334	-0.115
-710.675	-200.000	-0.011	-0.171
-709.660	-4.038	0.131	0.092
-708.645	45.357	-0.239	0.224
-707.631	178.292	-0.097	-0.143
-706.616	-142.460	-0.251	-0.025
-705.602	-80.464	0.160	-0.054
-704.587	-37.798	-0.214	-0.115
-703.572	-95.660	-0.397	0.108
-702.558	67.444	0.293	-0.303
-701.543	-152.531	0.516	0.037
-700.529	-8.904	0.023	-0.015
-699.514	120.085	0.019	-0.024
-698.499	19.490	0.047	0.038
-697.485	-200.000	-0.017	0.142
-696.470	-3.920	0.137	0.096
-695.456	54.436	-0.234	-0.228
-694.441	59.886	-0.174	0.174
-693.426	-60.857	-0.336	-0.144
-692.412	385.149	-0.043	-0.089
-691.397	-43.885	-0.158	0.080
-690.383	20.107	-0.092	0.076
-689.368	82.067	-0.050	-0.054
-688.354	-56.603	0.048	0.021
-687.339	-200.000	0.050	-0.349
-686.324	-67.512	-0.242	-0.096
-685.310	-62.303	-0.389	0.164
-684.295	194.476	-0.111	-0.170
-683.281	-182.217	0.284	0.005
-682.266	332.837	-0.112	0.219
-681.251	-200.000	-0.022	0.142
-680.237	-23.165	0.180	0.110
-679.222	45.818	-0.290	-0.272
-678.208	800.000	-0.056	-0.167
-677.193	360.898	-0.115	-0.232
-676.178	87.834	-0.179	-0.201
-675.164	-200.000	-0.087	0.488
-674.149	69.674	0.098	0.103
-673.135	4.241	-0.305	-0.226
-672.120	433.628	-0.091	-0.201
-671.105	-43.404	-0.343	-0.176
-670.091	-44.874	-0.285	-0.144
-669.076	-155.181	0.114	-0.008
-668.062	800.000	0.108	0.340
-667.047	-200.000	0.002	-0.100
-666.032	254.862	0.085	-0.147
-665.018	65.063	0.221	0.226
-664.003	-142.710	-0.566	0.056
-662.989	181.180	0.314	0.467
-661.974	104.192	-0.128	-0.153
-660.959	-14.505	-0.422	0.275
-659.945	160.690	-0.047	-0.067
-658.930	-108.476	0.068	0.015
-657.916	800.000	-0.095	-0.370
-656.901	141.937	-0.394	-0.528
-655.886	134.525	-0.206	-0.270
-654.872	-200.000	-0.020	0.096
-653.857	51.965	0.087	0.084
-652.843	-13.731	-0.380	-0.248
-651.828	-200.000	0.060	-0.341
-650.814	220.911	0.085	-0.139
-649.799	323.299	-0.129	-0.248
-648.784	59.986	-0.062	-0.062
-647.770	57.817	-0.281	0.278
-646.755	-94.499	0.369	-0.102
-645.741	-63.188	-0.360	-0.150
-644.726	280.467	-0.119	0.215
-643.711	-200.000	-0.075	0.379
-642.697	-151.729	0.062	-0.005
-641.682	123.394	0.158	-0.200
-640.668	-146.177	-0.183	-0.016
-639.653	-3.551	0.235	-0.165
-638.638	101.030	-0.108	-0.127
-637.624	5.764	-0.272	-0.203
-636.609	49.772	-0.153	0.146
-635.595	-100.249	-0.065	0.016
-634.580	-154.247	-0.270	0.018
-633.565	558.975	-0.042	-0.103
-632.551	329.193	-0.017	0.033
-631.536	-90.885	-0.082	0.024
-630.522	77.950	-0.243	0.261
-629.507	800.000	-0.047	0.133
-628.492	-200.000	0.040	0.337
-627.478	-200.000	0.032	0.307
-626.463	-200.000	0.081	-0.000
-625.449	800.000	-0.111	-0.365
-624.434	215.732	-0.014	0.022
-623.419	86.779	0.032	-0.036
-622.405	800.000	-0.048	0.184
-621.390	11.975	-0.172	-0.134
-620.376	-89.946	0.093	-0.027
-619.361	-119.661	0.190	-0.033
-618.346	419.517	0.193	0.416
-617.332	793.504	-0.051	0.142
-616.317	793.557	0.049	-0.136
-615.303	-42.187	0.069	0.035
-614.288	362.940	-0.084	0.169
-613.273	-65.550	-0.119	0.048
-612.259	800.000	-0.042	-0.175
-611.244	-144.916	0.139	0.013
-610.230	-200.000	0.036	0.298
-609.215	77.772	0.115	0.123
-608.201	202.048	0.228	-0.354
-607.186	-200.000	0.053	-0.264
-606.171	-85.755	0.244	0.076
-605.157	800.000	0.020	-0.077
-604.142	-200.000	0.005	-0.273
-603.128	-71.447	-0.065	-0.025
-602.113	-200.000	-0.108	0.000
-601.098	-200.000	-0.017	-0.138
-600.084	98.267	-0.113	0.132
-599.069	-200.000	-0.043	-0.213
-598.055	-75.065	0.161	0.058
-597.040	415.157	0.055	-0.119
-596.025	-36.159	-0.067	-0.036
-595.011	59.837	0.280	0.279
-593.996	-118.836	0.418	0.074
-592.982	-44.119	0.346	-0.175
-591.967	71.002	-0.187	0.195
-590.952	-71.415	-0.218	0.082
-589.938	-193.745	-0.420	0.004
-588.923	7.219	0.360	-0.271
-587.909	-200.000	0.033	-0.196
-586.894	-96.033	0.326	-0.088
-585.879	25.542	-0.180	-0.151
-584.865	-34.475	0.051	0.028
-583.850	159.924	0.082	-0.115
-582.836	63.119	-0.041	-0.042
-581.821	-195.770	-0.290	0.002
-580.806	-40.169	0.192	0.101
-579.792	-177.297	-0.328	0.008
-578.777	800.000	0.032	0.095
-577.763	-145.059	-0.027	-0.002
-576.748	-61.761	0.186	0.078
-575.733	-158.515	0.480	0.028
-574.719	174.741	0.036	-0.053
-573.704	5.160	-0.324	0.241
-572.690	-200.000	0.009	-0.116
-571.675	62.986	-0.024	-0.024
-570.661	178.096	0.147	0.216
-569.646	-36.708	-0.427	0.231
-568.631	6.321	0.187	0.140
-567.617	-68.460	-0.110	-0.043
-566.602	-76.139	0.301	-0.107
-565.588	428.403	0.086	0.187
-564.573	800.000	-0.123	0.373
-563.558	137.129	0.151	-0.199
-562.544	-200.000	0.011	0.181
-561.529	506.989	-0.147	-0.343
-560.515	-36.153	0.210	0.114
-559.500	69.762	-0.292	-0.303
-558.485	123.707	-0.139	-0.176
-557.471	-200.000	0.019	0.105
-556.456	17.703	-0.081	-0.065
-555.442	19.505	-0.095	0.077
-554.427	250.467	0.154	0.264
-553.412	-83.506	0.289	-0.093
-552.398	-129.872	0.335	0.046
-551.383	-147.415	0.235	0.020
-550.369	58.101	0.185	-0.183
-549.354	-83.332	-0.115	-0.037
-548.339	-137.216	-0.061	-0.007
-547.325	-34.464	0.092	-0.051
-546.310	29.084	0.303	0.259
-545.296	479.510	0.143	0.326
-544.281	501.963	0.036	0.085
-543.266	-74.525	0.206	0.075
-542.252	91.645	-0.335	0.379
-541.237	800.000	0.085	-0.247
-540.223	48.990	0.224	-0.212
-539.208	402.629	0.148	0.314
-538.193	-13.919	-0.106	-0.069
-537.179	-105.265	0.246	0.056
-536.164	100.143	0.124	-0.144
-535.150	-200.000	-0.057	0.293
-534.135	191.974	-0.019	0.028
-533.121	-160.319	-0.222	0.012
-532.106	-200.000	-0.014	0.207
-531.091	-164.230	-0.097	0.004
-530.077	800.000	0.082	-0.282
-529.062	475.488	0.075	0.170
-528.048	141.757	-0.050	-0.067
-527.033	-21.856	0.169	-0.103
-526.018	339.141	0.075	-0.148
-525.004	37.509	0.038	0.034
-523.989	126.563	-0.134	-0.171
-522.975	-200.000	0.011	-0.229
-521.960	-24.990	0.144	0.086
-520.945	-200.000	-0.001	-0.026
-519.931	-179.669	0.098	-0.002
-518.916	800.000	0.034	0.137
-517.902	-200.000	-0.081	-0.368
-516.887	261.045	0.146	-0.254
-515.872	121.806	-0.142	-0.179
-514.858	-61.119	0.190	0.081
-513.843	-189.505	-0.539	-0.006
-512.829	-33.240	0.136	-0.076
-511.814	265.229	-0.102	-0.179
-510.799	-200.000	0.012	0.072
-509.785	-48.017	-0.082	0.040
-508.770	-200.000	0.032	-0.153
-507.756	-14.472	-0.076	0.049
-506.741	239.292	-0.021	-0.036
-505.726	-142.858	0.227	-0.022
-504.712	800.000	-0.104	-0.323
-503.697	393.369	0.095	0.199
-502.683	-50.496	-0.075	0.036
-501.668	12.765	0.283	0.220
-500.653	713.490	-0.116	-0.310
-499.639	421.246	-0.058	0.125
-498.624	-16.577	-0.088	0.056
-497.610	-200.000	0.007	-0.137
-496.595	407.274	-0.096	-0.205
-495.581	800.000	0.119	-0.364
-494.566	543.104	0.099	-0.237
-493.551	-200.000	-0.052	-0.287
-492.537	-83.685	-0.011	-0.004
-491.522	-148.868	-0.306	0.025
-490.508	800.000	-0.039	-0.167
-489.493	-41.350	-0.264	-0.137
-488.478	-79.901	0.346	-0.117
-487.464	325.347	0.147	-0.282
-486.449	444.256	0.077	-0.170
-485.435	147.305	-0.060	-0.081
-484.420	800.000	0.009	0.032
-483.405	-72.607	-0.328	0.122
-482.391	-115.784	0.178	-0.034
-481.376	39.026	0.106	0.095
-480.362	227.640	0.092	-0.150
-479.347	800.000	-0.075	0.278
-478.332	-200.000	0.114	0.000
-477.318	37.954	-0.209	-0.187
-476.303	-29.700	-0.156	0.089
-475.289	-100.442	-0.217	-0.054
-474.274	-25.675	0.153	0.091
-473.259	-109.834	0.383	0.081
-472.245	408.456	-0.075	0.159
-471.230	409.571	0.089	0.190
-470.216	48.706	-0.208	0.196
-469.201	-49.407	-0.107	-0.051
-468.186	15.108	0.258	0.203
-467.172	-200.000	-0.011	0.135
-466.157	66.133	0.257	-0.261
-465.143	14.333	-0.126	0.098
-464.128	5.121	-0.323	0.239
-463.113	75.877	0.139	-0.147
-462.099	-103.469	0.350	-0.083
-461.084	-200.000	-0.038	0.236
-460.070	-121.857	-0.374	0.062
-459.055	-74.045	0.355	-0.129
-458.040	-200.000	0.044	0.231
-457.026	-43.347	-0.128	0.065
-456.011	-38.888	-0.192	0.102
-454.997	-89.612	-0.112	-0.033
-453.982	24.957	-0.228	-0.190
-452.968	-200.000	0.062	-0.367
-451.953	167.224	-0.137	0.195
-450.938	797.663	0.157	0.434
-449.924	800.000	0.127	-0.438
-448.909	-200.000	0.027	-0.133
-447.895	97.293	0.118	0.136
-446.880	-200.000	-0.044	0.311
-445.865	-143.901	-0.160	-0.015
-444.851	423.462	-0.081	0.174
-443.836	-65.761	-0.139	0.056
-442.822	84.126	0.103	0.113
-441.807	-200.000	-0.024	0.234
-440.792	3.635	-0.389	0.284
-439.778	-200.000	0.074	0.360
-438.763	-59.371	0.282	-0.122
-437.749	800.000	-0.049	-0.168
-436.734	-126.246	0.247	0.037
-435.719	-200.000	-0.038	-0.277
-434.705	-200.000	-0.019	-0.259
-433.690	-106.525	0.157	-0.035
-432.676	-200.000	-0.007	0.075
-431.661	236.661	-0.096	-0.160
-430.646	50.819	0.020	-0.019
-429.632	-125.405	-0.264	0.040
-428.617	-200.000	0.000	0.051
-427.603	53.053	0.238	0.228
-426.588	-131.720	0.388	-0.051
-425.573	-164.538	0.271	0.012
-424.559	10.625	0.091	0.070
-423.544	-164.209	-0.189	-0.009
-422.530	311.689	-0.061	-0.115
-421.515	511.001	0.120	-0.280
-420.500	-76.245	-0.220	0.078
-419.486	23.722	-0.087	0.072
-418.471	-200.000	0.002	-0.203
-417.457	800.000	0.008	0.023
-416.442	-104.574	0.286	0.066
-415.428	450.191	0.164	-0.362
-414.413	123.240	0.116	-0.146
-413.398	-200.000	-0.010	0.378
-412.384	-55.110	-0.218	0.098
-411.369	-92.577	0.180	-0.051
-410.355	-1.243	0.336	0.238
-409.340	-1.976	-0.227	0.160
-408.325	-200.000	0.010	0.136
-407.311	-113.553	-0.040	0.008
-406.296	62.669	-0.280	0.280
-405.282	80.444	0.350	0.378
-404.267	800.000	0.080	-0.308
-403.252	-200.000	-0.013	-0.166
-402.238	-200.000	-0.002	-0.027
-401.223	800.000	0.023	-0.067
-400.209	115.965	0.065	0.080
-399.194	-70.242	0.383	-0.146
-398.179	34.713	-0.244	-0.213
-397.165	362.842	0.174	-0.350
-396.150	23.781	-0.191	-0.158
-395.136	-34.477	-0.022	-0.012
-394.121	89.099	-0.066	-0.073
-393.106	800.000	-0.080	0.311
-392.092	269.684	-0.127	-0.223
-391.077	-148.793	0.257	0.021
-390.063	-56.949	-0.221	-0.098
-389.048	795.953	-0.131	-0.360
-388.033	-112.905	0.055	0.011
-387.019	-82.040	-0.127	0.041
-386.004	195.364	-0.094	0.142
-384.990	-24.262	0.342	0.204
-383.975	-33.623	-0.150	-0.083
-382.960	1.546	0.077	0.055
-381.946	800.000	-0.024	-0.099
-380.931	800.000	-0.096	0.358
-379.917	145.066	-0.169	-0.226
-378.902	309.145	-0.167	-0.311
-377.888	-131.367	0.231	0.031
-376.873	800.000	-0.094	0.327
-375.858	-27.513	-0.077	0.045
-374.844	-12.902	-0.304	-0.198
-373.829	-21.574	-0.140	-0.086
-372.815	0.225	-0.131	0.094
-371.800	-200.000	-0.042	-0.216
-370.785	800.000	0.139	-0.438
-369.771	800.000	0.035	0.141
-368.756	-88.280	-0.159	0.048
-367.742	594.119	0.092	0.227
-366.727	-32.824	0.097	-0.054
-365.712	189.283	-0.162	0.243
-364.698	-23.605	0.075	0.045
-363.683	-130.726	0.238	0.032
-362.669	-15.329	0.181	0.116
-361.654	-64.552	0.237	0.096
-360.639	-200.000	-0.024	0.178
-359.625	453.691	-0.090	-0.200
-358.610	-7.686	0.160	0.108
-357.596	-200.000	0.003	0.234
-356.581	168.654	0.066	0.094
-355.566	-116.604	-0.445	0.082
-354.552	236.385	0.080	0.132
-353.537	-200.000	0.044	0.204
-352.523	-37.751	-0.375	0.200
-351.508	-74.724	0.225	-0.081
-350.493	551.850	-0.082	0.197
-349.479	-167.985	0.257	0.010
-348.464	-67.275	0.145	-0.057
-347.450	-30.099	-0.276	-0.157
-346.435	800.000	0.012	0.033
-345.420	-197.006	0.032	-0.000
-344.406	215.311	0.145	0.230
-343.391	-200.000	0.014	-0.159
-342.377	157.100	-0.114	-0.157
-341.362	-200.000	-0.028	0.160
-340.348	-63.098	-0.067	-0.027
-339.333	729.620	0.038	0.102
-338.318	202.336	-0.123	0.190
-337.304	90.895	-0.144	-0.161
-336.289	-153.457	-0.123	0.008
-335.275	-146.643	-0.222	0.019
-334.260	252.247	-0.089	0.152
-333.245	-200.000	0.003	0.129
-332.231	418.909	0.100	-0.214
-331.216	-200.000	-0.040	0.319
-330.202	-168.440	0.233	0.009
-329.187	-200.000	-0.015	-0.072
-328.172	-22.790	0.101	0.061
-327.158	-119.723	0.230	-0.040
-326.143	800.000	0.054	-0.165
-325.129	30.195	-0.199	0.170
-324.114	-151.139	0.180	-0.013
-323.099	-200.000	-0.038	0.197
-322.085	-121.811	-0.235	-0.039
-321.070	-200.000	0.026	-0.252
-320.056	-200.000	0.100	-0.457
-319.041	-200.000	-0.045	-0.230
-318.026	-124.385	-0.261	0.041
-317.012	104.365	-0.019	-0.023
-315.997	-200.000	0.007	-0.067
-314.983	-155.909	0.282	-0.018
-313.968	88.225	-0.175	0.194
-312.953	-170.533	0.164	-0.006
-311.939	-52.615	0.057	0.026
-310.924	-200.000	-0.003	-0.070
-309.910	78.093	0.075	-0.079
-308.895	352.154	0.039	0.077
-307.880	-200.000	-0.007	0.245
-306.866	149.643	0.053	0.072
-305.851	549.322	-0.085	-0.203
-304.837	366.917	0.043	-0.086
-303.822	-157.034	-0.058	-0.004
-302.807	-200.000	0.047	0.234
-301.793	-45.831	0.170	0.084
-300.778	800.000	0.070	0.254
-299.764	800.000	-0.064	-0.187
-298.749	-112.998	0.159	0.031
-297.735	-138.752	-0.240	0.026
-296.720	10.014	-0.155	0.118
-295.705	-46.489	-0.159	0.078
-294.691	27.627	0.193	-0.162
-293.676	399.465	0.148	-0.310
-292.662	22.625	-0.244	-0.199
-291.647	-193.894	0.181	0.002
-290.632	-146.440	0.213	0.018
-289.618	8.440	-0.230	-0.173
-288.603	800.000	0.098	0.376
-287.589	579.669	-0.145	0.355
-286.574	-116.286	0.377	-0.070
-285.559	-64.415	-0.184	-0.075
-284.545	800.000	0.037	-0.153
-283.530	-200.000	0.035	-0.178
-282.516	318.430	0.116	-0.219
-281.501	-200.000	0.006	-0.066
-280.486	800.000	-0.109	-0.301
-279.472	204.797	0.102	-0.158
-278.457	-66.405	0.254	-0.101
-277.443	227.973	0.121	-0.197
-276.428	-94.800	0.416	-0.112
-275.413	-11.608	0.085	0.056
-274.399	-41.217	-0.141	-0.073
-273.384	438.719	0.047	-0.102
-272.370	-141.420	-0.137	-0.014
-271.355	-29.854	0.287	-0.163
-270.340	-159.538	0.192	-0.011
-269.326	-200.000	-0.026	-0.257
-268.311	174.215	0.104	-0.150
-267.297	527.125	0.055	-0.129
-266.282	-200.000	0.017	0.414
-265.267	779.377	-0.122	0.331
-264.253	28.785	0.224	0.189
-263.238	76.435	0.112	0.118
-262.224	93.852	-0.253	-0.285
-261.209	147.717	0.136	0.183
-260.195	-66.521	-0.179	0.071
-259.180	-11.579	-0.306	0.200
-258.165	643.579	0.053	0.134
-257.151	-200.000	0.023	0.300
-256.136	-194.674	-0.030	0.000
-255.122	-200.000	0.066	0.461
-254.107	709.222	-0.073	-0.192
-253.092	-111.398	0.146	0.030
-252.078	37.033	-0.155	-0.136
-251.063	-117.901	-0.431	0.077
-250.049	-200.000	0.013	0.095
-249.034	-46.354	0.163	0.080
-248.019	-200.000	-0.088	-0.613
-247.005	-29.456	0.166	-0.094
-245.990	-89.633	-0.277	0.081
-244.976	-11.213	0.202	-0.132
-243.961	-171.172	-0.439	-0.015
-242.946	-200.000	0.086	0.415
-241.932	-72.625	0.252	0.092
-240.917	-133.533	0.237	-0.030
-239.903	76.276	-0.361	0.380
-238.888	-70.107	0.043	-0.016
-237.873	116.925	0.112	0.137
-236.859	-36.508	-0.135	-0.072
-235.844	-186.181	-0.158	-0.002
-234.830	-1.465	-0.076	0.053
-233.815	-91.148	0.152	0.043
-232.800	-77.442	-0.476	-0.164
-231.786	374.529	-0.077	-0.157
-230.771	131.998	-0.179	0.229
-229.757	-178.149	0.048	0.001
-228.742	-200.000	0.080	-0.465
-227.727	68.111	-0.190	-0.194
-226.713	-33.055	-0.352	-0.194
-225.698	338.102	0.066	-0.128
-224.684	-200.000	0.030	-0.357
-223.669	-124.329	-0.390	0.061
-222.655	62.194	-0.209	-0.208
-221.640	151.845	-0.140	-0.190
-220.625	72.797	-0.096	-0.100
-219.611	-46.381	-0.199	0.097
-218.596	-19.807	0.046	0.028
-217.582	-29.706	0.164	-0.093
-216.567	800.000	-0.114	-0.458
-215.552	-75.913	0.096	-0.034
-214.538	800.000	-0.063	0.246
-213.523	-112.487	0.025	-0.005
-212.509	-200.000	0.048	-0.242
-211.494	-76.195	0.183	0.064
-210.479	-200.000	-0.050	0.324
-209.465	-86.934	0.275	-0.083
-208.450	-166.857	0.073	0.003
-207.436	-4.104	-0.237	-0.163
-206.421	46.775	0.165	0.152
-205.406	800.000	0.123	0.423
-204.392	-125.721	-0.175	-0.026
-203.377	18.158	0.143	0.113
-202.363	66.987	-0.155	-0.157
-201.348	-74.304	-0.288	-0.103
-200.333	132.411	-0.206	-0.264
-199.319	-22.877	-0.260	-0.156
-198.304	-74.531	0.301	0.108
-197.290	-200.000	-0.003	0.101
-196.275	-9.676	0.077	-0.051
-195.260	108.451	-0.085	-0.100
-194.246	-200.000	0.033	0.228
-193.231	-29.189	-0.113	0.065
-192.217	779.541	-0.103	-0.280
-191.202	-146.385	0.134	-0.012
-190.187	-166.325	0.072	0.003
-189.173	-200.000	-0.023	0.179
-188.158	-29.670	0.061	-0.035
-187.144	20.202	0.121	-0.097
-186.129	-123.115	0.179	-0.028
-185.114	60.804	-0.029	0.028
-184.100	-18.401	-0.362	0.224
-183.085	-28.413	-0.216	0.124
-182.071	-104.442	-0.171	-0.039
-181.056	261.743	0.049	0.085
-180.042	46.003	0.267	-0.246
-179.027	454.925	0.005	-0.011
-178.012	-3.990	0.287	0.198
-176.998	-104.580	0.230	0.053
-175.983	-54.497	0.182	0.082
-174.969	-175.410	-0.429	-0.012
-173.954	-104.271	0.333	-0.077
-172.939	800.000	0.054	0.210
-171.925	-200.000	-0.014	-0.170
-170.910	-3.066	0.218	-0.151
-169.896	-117.165	-0.103	-0.019
-168.881	109.384	-0.238	0.282
-167.866	98.058	0.116	-0.133
-166.852	-146.737	0.278	0.024
-165.837	-59.631	0.093	-0.040
-164.823	-1.910	-0.261	0.182
-163.808	-200.000	-0.040	0.203
-162.793	-66.825	-0.319	0.125
-161.779	-200.000	-0.019	0.191
-160.764	-188.104	-0.215	-0.003
-159.750	-96.484	0.301	-0.079
-158.735	214.504	0.023	0.036
-157.720	62.347	-0.186	-0.184
-156.706	-120.015	0.074	0.013
-155.691	17.308	-0.289	0.228
-154.677	-147.887	-0.092	-0.008
-153.662	-82.124	-0.244	-0.079
-152.647	191.314	0.058	0.087
-151.633	140.624	-0.119	0.156
-150.618	-200.000	0.003	-0.065
-149.604	800.000	-0.055	-0.183
-148.589	80.402	0.034	0.036
-147.574	483.228	-0.116	0.260
-146.560	-200.000	-0.011	0.051
-145.545	597.960	-0.069	-0.170
-144.531	-173.567	0.447	0.013
-143.516	-200.000	-0.009	-0.369
-142.502	-200.000	0.026	0.139
-141.487	139.895	-0.130	0.170
-140.472	-18.721	0.330	0.204
-139.458	225.078	0.033	0.053
-138.443	337.427	-0.050	0.095
-137.429	40.649	-0.371	0.331
-136.414	177.617	-0.099	0.142
-135.399	-200.000	-0.032	0.205
-134.385	312.680	0.122	-0.227
-133.370	80.725	-0.206	-0.220
-132.356	192.831	0.213	-0.319
-131.341	55.293	0.261	-0.250
-130.326	-96.302	-0.155	0.041
-129.312	-166.332	0.434	-0.018
-128.297	93.173	-0.146	-0.163
-127.283	185.282	0.145	0.213
-126.268	18.639	-0.090	0.071
-125.253	800.000	-0.047	-0.186
-124.239	-90.638	-0.217	-0.062
-123.224	48.375	0.050	-0.047
-122.210	-200.000	-0.009	-0.521
-121.195	364.792	0.065	0.129
-120.180	-160.920	0.315	0.016
-119.166	348.148	0.062	0.120
-118.151	-78.336	-0.012	-0.004
-117.137	81.138	0.193	0.206
-116.122	27.048	-0.193	0.160
-115.107	-4.980	0.329	-0.224
-114.093	800.000	0.023	0.087
-113.078	-200.000	-0.021	0.205
-112.064	-63.295	-0.233	-0.095
-111.049	-95.676	0.507	-0.134
-110.034	27.559	-0.223	-0.186
-109.020	23.991	-0.245	-0.200
-108.005	-200.000	-0.025	-0.118
-106.991	378.558	0.129	-0.261
-105.976	-200.000	0.057	-0.279
-104.962	-63.324	0.172	0.070
-103.947	-200.000	-0.016	0.291
-102.932	-195.849	-0.172	0.001
-101.918	301.594	0.028	-0.051
-100.903	-82.918	0.296	-0.094
-99.889	-137.401	0.295	0.033
-98.874	8.854	-0.324	0.242
-97.859	-200.000	0.024	0.288
-96.845	32.543	0.144	-0.123
-95.830	-200.000	0.010	-0.085
-94.816	660.118	0.015	-0.039
-93.801	-200.000	0.030	0.244
-92.786	62.316	-0.166	0.164
-91.772	-160.108	-0.165	0.009
-90.757	800.000	0.052	-0.142
-89.743	800.000	0.021	0.064
-88.728	120.005	0.247	-0.303
-87.713	-124.149	-0.039	-0.006
-86.699	-14.964	0.220	0.140
-85.684	-89.140	0.391	-0.114
-84.670	233.200	-0.099	0.161
-83.655	-119.416	0.020	0.004
-82.640	573.190	0.041	-0.098
-81.626	800.000	-0.064	-0.233
-80.611	359.103	0.039	-0.078
-79.597	512.826	-0.006	0.014
-78.582	800.000	0.080	-0.234
-77.567	139.178	-0.097	-0.126
-76.553	-200.000	0.004	0.331
-75.538	586.848	0.027	-0.067
-74.524	-200.000	-0.007	-0.040
-73.509	-200.000	-0.062	0.305
-72.494	-39.826	-0.164	0.085
-71.480	-200.000	-0.013	-0.119
-70.465	-58.177	0.232	0.100
-69.451	-35.865	0.220	-0.118
-68.436	278.495	-0.123	0.217
-67.422	-64.501	0.154	0.062
-66.407	269.830	0.039	-0.068
-65.392	-200.000	0.002	-0.079
-64.378	-200.000	-0.022	-0.139
-63.363	-119.881	0.198	0.034
-62.349	131.616	-0.183	-0.233
-61.334	101.635	-0.842	-0.970
-60.319	99.583	0.385	0.440
-59.305	-200.000	-0.085	-0.953
-58.290	166.947	0.471	0.661
-57.276	800.000	0.540	1.507
-56.261	-200.000	98.522	592.290
-55.246	530.450	1417.240	3307.382
-54.232	149.156	2618.140	3498.529
-53.217	111.002	2194.492	2609.307
-52.203	43.742	1727.227	1561.182
-51.188	36.598	1539.794	1342.352
-50.173	34.225	1513.489	1303.149
-49.159	53.875	1564.412	1484.144
-48.144	56.790	1582.446	1521.455
-47.130	37.023	1538.694	1344.126
-46.115	33.851	1523.152	1308.681
-45.100	33.682	1519.913	1304.686
-44.086	33.638	1517.670	1302.403
-43.071	33.556	1515.763	1300.157
-42.057	33.500	1514.159	1298.341
-41.042	33.537	1512.767	1297.355
-40.027	33.573	1511.491	1296.457
-39.013	33.484	1510.239	1294.720
-37.998	33.521	1508.777	1293.667
-36.984	33.592	1507.640	1293.125
-35.969	33.593	1505.911	1291.599
-34.954	33.567	1505.298	1290.842
-33.940	33.534	1503.508	1289.032
-32.925	33.527	1502.128	1287.755
-31.911	33.633	1500.625	1287.135
-30.896	33.530	1499.501	1285.419
-29.881	33.633	1498.083	1284.850
-28.867	33.545	1497.232	1283.471
-27.852	33.567	1495.871	1282.402
-26.838	33.534	1494.460	1280.921
-25.823	33.506	1492.583	1279.070
-24.809	33.579	1491.094	1278.238
-23.794	33.524	1489.584	1276.519
-22.779	33.558	1488.080	1275.411
-21.765	33.603	1487.291	1274.989
-20.750	33.606	1486.105	1273.939
-19.736	33.580	1485.167	1272.912
-18.721	33.395	1484.428	1270.984
-17.706	33.511	1482.984	1270.473
-16.692	33.456	1482.468	1269.614
-15.677	33.420	1481.147	1268.191
-14.663	33.477	1480.038	1267.574
-13.648	33.491	1479.081	1266.797
-12.633	33.464	1478.357	1265.946
-11.619	33.475	1477.313	1265.074
-10.604	33.481	1476.004	1263.947
-9.590	33.534	1474.847	1263.255
-8.575	33.422	1474.847	1262.461
-7.560	33.496	1473.814	1262.017
-6.546	33.459	1473.212	1261.209
-5.531	33.473	1471.992	1260.203
-4.517	33.410	1471.340	1259.180
-3.502	33.475	1469.972	1258.389
-2.487	33.374	1469.290	1257.084
-1.473	33.555	1467.455	1256.667
-0.458	33.465	1466.041	1254.809
0.556	33.423	1457.737	1245.486
1.571	30.897	1432.283	1207.286
2.586	27.796	1373.996	1138.740
3.600	26.143	1293.920	1062.560
4.615	24.778	1246.993	1016.185
5.629	20.691	1189.551	947.092
6.644	10.662	1100.851	825.627
7.659	3.037	1057.279	755.514
8.673	1.950	1052.249	746.534
9.688	1.794	1048.778	743.245
10.702	1.508	1047.203	740.669
11.717	1.499	1045.537	739.381
12.731	4.757	1048.763	757.475
13.746	14.714	1063.478	816.960
14.761	22.815	1074.093	864.904
15.775	24.807	1076.100	876.212
16.790	25.175	1075.713	877.621
17.804	24.975	1075.087	876.053
18.819	24.743	1074.157	874.084
19.834	24.990	1073.228	874.456
20.848	25.056	1072.901	874.432
21.863	25.091	1072.812	874.455
22.877	25.117	1072.417	874.184
23.892	25.118	1071.417	873.296
24.907	25.010	1070.675	872.088
25.921	25.115	1069.553	871.608
26.936	25.025	1069.196	870.799
27.950	24.966	1068.488	869.860
28.965	25.032	1066.800	868.728
29.980	24.832	1065.656	866.755
30.994	24.851	1064.618	865.926
32.009	25.097	1063.874	866.431
33.023	25.157	1063.345	866.214
34.038	24.951	1062.034	864.076
35.053	24.873	1061.372	863.082
36.067	25.204	1060.087	863.557
37.082	24.977	1060.204	862.484
38.096	25.138	1058.733	861.984
39.111	25.210	1058.489	862.057
40.126	25.283	1057.676	861.669
41.140	25.215	1056.223	860.082
42.155	25.109	1054.440	858.048
43.169	24.599	1053.706	854.931
44.184	24.715	1052.334	854.297
45.199	24.725	1051.638	853.706
46.213	24.761	1050.187	852.623
47.228	24.685	1049.352	851.511
48.242	24.780	1048.913	851.530
49.257	25.013	1048.283	852.053
50.271	24.880	1047.724	850.887
51.286	25.046	1047.045	851.052
52.301	25.214	1045.940	850.872
53.315	25.127	1045.597	850.105
54.330	25.113	1044.772	849.297
55.344	25.000	1043.944	848.011
56.359	25.086	1042.991	847.569
57.374	25.014	1042.247	846.551
58.388	24.672	1041.531	844.279
59.403	24.794	1040.758	844.151
60.417	24.806	1039.920	843.453
61.432	24.561	1038.960	841.446
62.447	24.690	1038.409	841.535
63.461	24.805	1037.466	841.234
64.476	24.791	1036.823	840.574
65.490	24.724	1036.699	840.084
66.505	24.710	1035.172	838.707
67.520	24.705	1034.441	838.015
68.534	24.790	1033.800	837.820
69.549	24.781	1032.546	836.690
70.563	24.335	1031.485	833.672
71.578	24.165	1031.022	832.427
72.593	24.385	1029.838	832.426
73.607	24.228	1028.939	830.892
74.622	24.215	1027.628	829.699
75.636	24.453	1027.129	830.335
76.651	24.553	1026.620	830.312
77.666	24.566	1025.428	829.335
78.680	24.417	1024.786	828.051
79.695	24.451	1024.439	827.854
80.709	24.564	1023.736	827.739
81.724	24.640	1022.834	827.287
82.739	24.599	1022.248	826.549
83.753	24.666	1021.183	825.924
84.768	24.929	1020.659	826.641
85.782	25.093	1020.391	827.109
86.797	25.520	1019.331	828.146
87.812	25.319	1018.357	826.353
88.826	25.190	1017.716	825.169
89.841	25.114	1017.035	824.195
90.855	25.359	1016.024	824.428
91.870	25.361	1015.228	823.717
92.884	25.410	1014.417	823.212
93.899	25.127	1014.056	821.548
94.914	25.089	1012.479	820.022
95.928	25.306	1011.776	820.372
96.943	25.365	1010.495	819.532
97.957	25.001	1009.825	817.255
98.972	24.795	1008.744	815.370
99.987	24.569	1007.535	813.290
101.001	24.583	1007.151	812.972
102.016	24.924	1006.688	814.080
103.030	25.002	1005.675	813.541
104.045	24.975	1004.511	812.407
105.060	24.900	1003.161	810.900
106.074	24.797	1001.914	809.357
107.089	24.776	1001.554	808.898
108.103	24.910	1001.763	809.604
109.118	25.036	1000.597	809.158
110.133	24.752	999.659	807.046
111.147	24.619	998.742	805.636
112.162	24.718	997.360	804.894
113.176	24.519	996.018	802.847
114.191	24.566	995.329	802.428
115.206	24.681	994.548	802.243
116.220	24.423	993.212	799.940
117.235	24.431	992.044	798.967
118.249	24.330	992.213	798.579
119.264	24.395	991.374	798.124
120.279	24.416	990.257	797.248
121.293	24.356	989.384	796.206
122.308	24.411	988.871	795.970
123.322	24.450	988.152	795.492
124.337	24.365	987.034	794.144
125.352	24.350	985.700	792.932
126.366	23.940	983.655	789.399
127.381	23.601	982.733	787.085
128.395	24.126	982.530	789.181
129.410	24.845	982.309	792.118
130.424	24.958	981.453	791.855
131.439	24.950	980.458	790.947
132.454	24.811	979.910	789.822
133.468	24.971	978.751	789.523
134.483	24.886	977.942	788.427
135.497	24.853	977.804	788.101
136.512	25.118	976.887	788.459
137.527	25.126	976.472	788.089
138.541	25.206	975.260	787.392
139.556	25.186	974.974	787.003
140.570	25.109	974.129	785.916
141.585	25.140	973.328	785.335
142.600	25.192	972.640	784.937
143.614	25.199	971.404	783.900
144.629	25.321	970.467	783.609
145.643	25.544	969.786	783.961
146.658	25.473	968.994	782.942
147.673	25.247	967.487	780.671
148.687	25.186	966.924	779.885
149.702	25.041	966.094	778.517
150.716	24.960	964.503	776.815
151.731	24.937	964.088	776.312
152.746	24.923	963.506	775.713
153.760	25.178	962.967	776.313
154.775	25.415	961.901	776.410
155.789	25.341	961.151	775.416
156.804	25.380	960.023	774.605
157.819	25.224	959.377	773.343
158.833	25.375	958.144	772.930
159.848	25.458	957.918	773.037
160.862	25.530	957.042	772.573
161.877	25.357	955.986	770.907
162.892	25.414	954.907	770.214
163.906	25.438	954.152	769.641
164.921	25.401	953.094	768.559
165.935	25.169	952.149	766.737
166.950	25.292	951.622	766.770
167.964	25.338	950.398	765.916
168.979	25.314	949.304	764.862
169.994	25.233	948.102	763.481
171.008	25.023	946.999	761.636
172.023	25.217	946.562	762.039
173.037	25.381	945.923	762.153
174.052	25.339	944.815	761.013
175.067	24.990	943.860	758.700
176.081	24.955	943.321	758.053
177.096	25.165	942.239	758.005
178.110	25.135	941.214	756.986
179.125	24.923	940.746	755.645
180.140	24.601	939.564	753.273
181.154	24.665	939.137	753.135
182.169	24.690	938.605	752.746
183.183	25.100	937.726	753.698
184.198	25.352	937.733	754.697
185.213	25.187	937.196	753.503
186.227	25.110	936.570	752.613
187.242	25.355	935.668	752.848
188.256	25.430	935.122	752.654
189.271	25.261	934.664	751.513
190.286	25.426	933.819	751.458
191.300	25.112	932.773	749.237
192.315	24.755	931.381	746.564
193.329	23.905	929.638	741.557
194.344	23.549	928.094	738.776
195.359	24.202	928.893	742.066
196.373	25.020	929.303	745.737
197.388	25.285	929.053	746.571
198.402	25.252	928.398	745.843
199.417	25.206	927.530	744.887
200.432	25.174	927.709	744.832
201.446	25.052	926.525	743.309
202.461	24.818	925.869	741.748
203.475	24.831	925.825	741.700
204.490	24.395	923.962	738.338
205.504	23.246	921.825	731.820
206.519	23.654	921.598	733.259
207.534	24.711	922.235	738.067
208.548	24.770	921.651	737.779
209.563	24.999	921.649	738.658
210.577	25.187	920.539	738.476
211.592	25.029	919.074	736.587
212.607	25.241	919.421	737.670
213.621	25.451	919.142	738.243
214.636	25.414	918.254	737.314
215.650	25.485	917.625	737.036
216.665	25.325	917.259	736.018
217.680	25.375	916.946	735.908
218.694	25.476	916.447	735.857
219.709	25.164	915.299	733.593
220.723	24.778	914.496	731.305
221.738	25.026	914.053	731.903
222.753	25.191	913.702	732.228
223.767	25.135	912.619	731.067
224.782	25.216	912.103	730.922
225.796	25.374	911.477	730.997
226.811	25.495	911.080	731.108
227.826	25.122	910.071	728.717
228.840	24.251	908.132	723.567
229.855	24.258	907.591	723.097
230.869	24.622	907.091	724.113
231.884	24.180	906.560	721.833
232.899	24.113	906.028	721.075
233.913	24.905	905.880	724.097
234.928	25.141	905.700	724.846
235.942	25.038	904.821	723.658
236.957	25.231	903.810	723.565
237.972	24.725	903.216	720.986
238.986	24.644	902.784	720.250
240.001	24.863	901.858	720.331
241.015	24.962	901.164	720.110
242.030	24.948	900.805	719.705
243.045	24.974	900.108	719.189
244.059	24.978	900.028	719.077
245.074	25.343	899.380	719.959
246.088	25.199	898.732	718.800
247.103	24.904	897.935	716.916
248.117	24.918	897.179	716.306
249.132	25.445	897.247	718.406
250.147	25.795	897.069	719.597
251.161	25.887	896.698	719.602
252.176	26.054	896.414	719.977
253.190	26.161	895.338	719.477
254.205	26.082	895.152	718.950
255.220	26.389	894.645	719.699
256.234	26.309	893.696	718.557
257.249	26.177	893.109	717.495
258.263	25.944	892.950	716.378
259.278	26.133	891.662	716.031
260.293	26.084	891.511	715.650
261.307	26.278	890.879	715.850
262.322	26.093	890.376	714.649
263.336	25.973	889.684	713.555
264.351	25.572	888.435	710.905
265.366	24.347	886.472	704.439
266.380	23.909	885.498	701.872
267.395	24.915	885.766	705.993
268.409	25.605	886.144	708.953
269.424	25.599	885.615	708.442
270.439	25.794	884.714	708.426
271.453	25.941	884.335	708.640
272.468	25.960	883.340	707.854
273.482	25.941	883.105	707.529
274.497	26.248	882.609	708.273
275.512	25.887	881.765	706.117
276.526	25.268	880.689	702.768
277.541	25.479	880.369	703.277
278.555	26.020	879.737	704.828
279.570	25.877	879.183	703.760
280.585	25.507	878.695	701.863
281.599	25.690	877.825	701.822
282.614	25.716	877.423	701.537
283.628	25.255	876.902	699.264
284.643	24.991	875.672	697.194
285.657	25.410	875.553	698.667
286.672	25.270	874.753	697.423
287.687	24.825	873.579	694.700
288.701	25.254	873.627	696.340
289.716	25.648	873.291	697.540
290.730	25.254	872.098	694.999
291.745	25.120	872.177	694.482
292.760	24.919	870.915	692.638
293.774	24.928	870.195	692.038
294.789	25.781	871.132	696.019
295.803	26.306	870.927	697.825
296.818	26.258	870.816	697.485
297.833	26.547	870.012	697.896
298.847	26.247	868.564	695.518
299.862	25.975	867.690	693.709
300.876	26.148	867.630	694.266
301.891	26.401	867.175	694.815
302.906	26.393	866.642	694.291
303.920	26.119	865.291	692.100
304.935	25.908	864.990	690.987
305.949	26.367	864.650	692.414
306.964	26.599	863.764	692.531
307.979	26.189	863.791	690.921
308.993	26.058	862.952	689.688
310.008	26.354	862.894	690.714
311.022	26.666	862.506	691.535
312.037	26.452	861.781	690.073
313.052	26.300	860.942	688.762
314.066	26.010	860.447	687.202
315.081	25.368	858.667	683.278
316.095	24.639	857.280	679.344
317.110	25.065	857.697	681.233
318.125	25.992	858.073	684.993
319.139	25.606	857.018	682.626
320.154	24.483	854.967	676.678
321.168	24.092	853.818	674.227
322.183	24.671	854.233	676.689
323.197	25.573	855.206	680.815
324.212	25.994	854.590	681.856
325.227	26.092	854.477	682.077
326.241	26.227	853.758	681.953
327.256	26.094	853.336	681.054
328.270	25.994	852.476	679.929
329.285	25.822	851.883	678.750
330.300	25.880	850.890	678.116
331.314	25.587	849.950	676.205
332.329	25.694	849.601	676.270
333.343	26.119	849.116	677.420
334.358	26.406	848.978	678.326
335.373	26.212	848.840	677.430
336.387	26.371	848.143	677.407
337.402	26.533	847.844	677.716
338.416	26.853	847.198	678.338
339.431	26.689	846.691	677.259
340.446	26.793	846.308	677.279
341.460	27.030	845.445	677.415
342.475	26.916	845.215	676.743
343.489	26.590	844.801	675.137
344.504	26.549	844.164	674.416
345.519	26.930	843.685	675.390
346.533	27.084	843.240	675.550
347.548	27.167	842.979	675.588
348.562	27.146	842.723	675.247
349.577	27.257	841.810	674.865
350.592	27.053	841.139	673.511
351.606	27.181	840.834	673.683
352.621	26.975	840.483	672.578
353.635	26.857	839.893	671.609
354.650	26.876	838.998	670.907
355.665	26.572	838.099	669.005
356.679	25.390	836.293	663.144
357.694	25.346	836.029	662.713
358.708	26.058	836.022	665.275
359.723	25.894	835.490	664.186
360.738	26.001	835.430	664.473
361.752	26.642	835.014	666.446
362.767	26.873	834.638	666.936
363.781	27.083	834.621	667.633
364.796	27.435	834.315	668.624
365.810	27.421	834.001	668.262
366.825	27.516	833.636	668.257
367.840	27.551	833.323	668.075
368.854	27.359	832.366	666.546
369.869	26.871	831.744	664.202
370.883	26.725	831.002	663.020
371.898	26.845	830.612	663.087
372.913	26.574	830.270	661.764
373.927	26.716	829.293	661.447
374.942	26.847	828.818	661.487
375.956	26.801	828.518	661.020
376.971	27.239	827.481	661.731
377.986	27.206	827.222	661.344
379.000	27.499	826.837	662.044
380.015	27.477	826.606	661.718
381.029	27.208	825.796	660.035
382.044	27.225	824.922	659.342
383.059	27.439	824.423	659.660
384.073	27.346	824.206	659.089
385.088	27.556	823.308	659.072
386.102	27.193	823.302	657.696
387.117	27.363	822.178	657.354
388.132	27.068	821.673	655.828
389.146	27.038	820.774	654.944
390.161	26.383	820.144	652.021
391.175	26.458	819.756	651.928
392.190	26.977	820.085	654.001
393.205	27.071	819.476	653.797
394.219	26.036	817.726	648.623
395.234	24.348	815.170	640.482
396.248	23.638	814.241	637.146
397.263	24.671	815.266	641.605
398.278	26.528	816.461	649.153
399.292	26.976	816.478	650.718
400.307	26.692	815.802	649.105
401.321	26.745	815.197	648.756
402.336	26.515	815.115	647.808
403.350	26.935	814.641	648.877
404.365	27.300	815.188	650.561
405.380	27.660	814.749	651.439
406.394	28.082	814.035	652.317
407.409	28.211	813.932	652.636
408.423	28.183	813.351	652.012
409.438	27.929	812.834	650.635
410.453	28.169	812.435	651.114
411.467	28.241	811.700	650.721
412.482	27.941	811.959	649.805
413.496	28.111	810.750	649.384
414.511	28.185	810.451	649.349
415.526	28.042	810.281	648.650
416.540	28.115	809.827	648.488
417.555	28.016	809.354	647.700
418.569	27.601	808.830	645.755
419.584	27.621	808.108	645.193
420.599	27.908	807.480	645.647
421.613	107.653	1284.715	1450.559
422.628	92.893	1354.241	1450.662
