DTS Sentinel unit serial number:	SN413079Multiplexer serial number:	ORYXHardware model number:	OX4-SRSoftware version number:	ORYX F/W v4.00 Oryx Data Collector v3.7.2.0data status	okinstallation	princeton_trtdifferential loss correction	single-endedforward channel	channel 3reverse channel	N/Adate	2019/09/19time	11:52:34forward acquisition time	60.00reverse acquisition time	0.00gamma	496.2192k internal	0.2341k external	0.2341temperature offset calibration	0.9986default loss term (dB/km)	0.3790temperature slope calibration	1.0000multiplexer offset coefficient	1.0000multiplexer slope coefficient	1.0000fibre end	0.00T internal ref (°C)	25.86T ext. ref 1 (°C)	0.82T ext. ref 2 (°C)	21.80length (m)	temperature (°C)	Stokes	anti-Stokes-747.200	-200.000	-0.033	-0.372
-746.185	-200.000	-0.027	0.161
-745.171	30.549	-0.247	-0.212
-744.156	46.504	0.145	0.135
-743.142	569.797	-0.032	-0.078
-742.127	203.444	0.143	-0.221
-741.112	-200.000	0.021	0.430
-740.098	148.037	-0.123	0.166
-739.083	-200.000	0.036	0.483
-738.069	-194.666	-0.469	-0.004
-737.054	544.995	-0.074	0.178
-736.039	0.137	0.244	-0.174
-735.025	-200.000	0.042	0.239
-734.010	125.866	0.212	-0.268
-732.996	61.041	-0.063	-0.062
-731.981	68.913	-0.086	0.088
-730.966	-200.000	0.005	-0.083
-729.952	404.808	0.110	-0.233
-728.937	-66.909	0.426	0.169
-727.923	-200.000	0.044	0.217
-726.908	-1.664	-0.164	-0.116
-725.894	195.043	-0.233	-0.354
-724.879	-5.063	-0.072	0.050
-723.864	-200.000	-0.000	0.154
-722.850	-76.905	-0.215	-0.075
-721.835	-25.257	-0.221	0.131
-720.821	-147.919	-0.395	-0.033
-719.806	800.000	-0.098	-0.368
-718.791	-146.772	0.163	0.014
-717.777	110.003	-0.238	0.286
-716.762	386.566	-0.178	-0.367
-715.748	-103.700	-0.300	-0.070
-714.733	-86.922	0.331	0.101
-713.718	-200.000	0.020	-0.318
-712.704	-134.861	-0.307	-0.037
-711.689	800.000	-0.060	0.168
-710.675	254.636	-0.102	0.175
-709.660	548.039	0.100	0.240
-708.645	-47.677	-0.254	0.124
-707.631	-79.124	-0.284	-0.096
-706.616	-37.101	0.084	-0.045
-705.602	-200.000	-0.077	0.356
-704.587	714.109	0.053	0.140
-703.572	-200.000	-0.024	0.205
-702.558	-63.938	0.021	0.009
-701.543	800.000	-0.048	0.182
-700.529	688.938	0.060	-0.157
-699.514	621.967	-0.130	-0.328
-698.499	45.202	0.240	0.222
-697.485	800.000	-0.055	0.207
-696.470	2.396	0.438	-0.317
-695.456	-97.894	-0.156	0.040
-694.441	800.000	0.074	0.301
-693.426	800.000	-0.099	0.369
-692.412	713.145	-0.106	0.280
-691.397	-131.747	-0.115	0.015
-690.383	-59.626	-0.469	0.201
-689.368	-20.405	-0.226	0.139
-688.354	59.286	-0.023	-0.023
-687.339	800.000	-0.035	-0.106
-686.324	108.297	0.057	-0.068
-685.310	103.859	0.246	0.289
-684.295	-107.915	0.124	0.027
-683.281	800.000	0.045	0.195
-682.266	57.187	-0.069	0.068
-681.251	800.000	0.063	0.250
-680.237	800.000	0.052	-0.171
-679.222	-2.725	-0.225	0.158
-678.208	-200.000	-0.081	-0.456
-677.193	25.319	-0.047	-0.039
-676.178	-80.267	-0.088	-0.029
-675.164	-154.758	0.258	0.017
-674.149	-137.117	-0.345	-0.039
-673.135	166.300	0.022	-0.031
-672.120	-42.823	0.068	0.035
-671.105	118.579	0.183	-0.226
-670.091	-9.767	0.190	0.126
-669.076	102.629	0.098	-0.114
-668.062	-53.367	-0.201	-0.092
-667.047	-165.925	0.163	-0.007
-666.032	69.605	0.022	0.023
-665.018	-82.860	0.190	-0.061
-664.003	26.309	-0.279	0.233
-662.989	-92.325	-0.453	0.128
-661.974	-200.000	-0.008	-0.182
-660.959	14.772	-0.104	0.081
-659.945	131.218	-0.099	-0.127
-658.930	800.000	-0.028	0.110
-657.916	800.000	0.086	-0.274
-656.901	-200.000	0.069	-0.324
-655.886	-102.239	0.316	-0.076
-654.872	-180.712	-0.159	-0.003
-653.857	-160.817	-0.270	-0.014
-652.843	800.000	-0.059	-0.208
-651.828	-200.000	0.027	-0.316
-650.814	800.000	-0.049	0.208
-649.799	160.671	-0.145	0.202
-648.784	152.562	-0.208	-0.283
-647.770	74.424	-0.101	-0.106
-646.755	138.953	-0.092	0.121
-645.741	119.570	-0.074	-0.091
-644.726	-29.787	0.161	0.092
-643.711	78.531	-0.055	-0.058
-642.697	-200.000	-0.049	-0.275
-641.682	800.000	-0.112	-0.317
-640.668	46.700	0.160	-0.148
-639.653	-146.749	-0.337	-0.029
-638.638	-200.000	0.013	0.317
-637.624	690.355	0.058	-0.151
-636.609	-54.469	-0.190	0.086
-635.595	52.664	-0.273	0.260
-634.580	4.731	0.179	0.131
-633.565	532.032	-0.125	-0.296
-632.551	185.023	0.057	0.084
-631.536	106.600	-0.283	0.335
-630.522	-1.006	0.095	0.067
-629.507	370.274	0.141	0.284
-628.492	-124.191	0.272	0.043
-627.478	171.413	-0.145	0.208
-626.463	223.187	-0.151	0.243
-625.449	-49.894	0.080	0.038
-624.434	-200.000	-0.013	0.074
-623.419	-200.000	0.009	0.185
-622.405	-200.000	-0.027	0.181
-621.390	800.000	0.092	0.275
-620.376	144.724	0.210	0.280
-619.361	14.215	0.120	-0.093
-618.346	141.237	-0.043	0.057
-617.332	-98.645	-0.134	-0.034
-616.317	333.643	-0.210	-0.405
-615.303	-200.000	0.017	0.097
-614.288	-37.224	0.250	-0.133
-613.273	-200.000	-0.042	-0.509
-612.259	275.042	-0.116	-0.204
-611.244	800.000	-0.141	-0.421
-610.230	-200.000	0.017	-0.270
-609.215	242.563	-0.150	-0.250
-608.201	-200.000	0.045	-0.357
-607.186	57.535	-0.128	-0.125
-606.171	-54.669	-0.085	0.038
-605.157	-5.176	0.076	-0.052
-604.142	-136.996	-0.278	0.032
-603.128	-200.000	-0.020	-0.121
-602.113	21.594	0.111	0.090
-601.098	-1.125	-0.329	0.232
-600.084	-17.692	-0.234	0.147
-599.069	4.913	-0.135	0.099
-598.055	-152.302	-0.074	0.005
-597.040	-144.748	-0.118	0.011
-596.025	-76.323	-0.134	0.047
-595.011	-67.264	-0.064	0.025
-593.996	582.677	-0.078	-0.190
-592.982	34.685	0.058	-0.051
-591.967	-162.158	-0.137	0.007
-590.952	-141.204	-0.240	-0.024
-589.938	-20.112	0.219	0.135
-588.923	-12.611	-0.047	0.031
-587.909	439.379	-0.021	0.045
-586.894	-101.803	0.025	0.006
-585.879	800.000	0.079	-0.228
-584.865	65.732	0.246	0.248
-583.850	-152.837	-0.315	-0.022
-582.836	-175.897	-0.273	0.007
-581.821	57.831	0.201	0.196
-580.806	-200.000	0.041	-0.182
-579.792	192.335	0.111	0.166
-578.777	-71.867	-0.203	-0.075
-577.763	48.448	-0.349	-0.325
-576.748	142.666	-0.026	-0.034
-575.733	-79.876	-0.441	0.148
-574.719	-29.226	-0.072	-0.041
-573.704	-42.764	0.113	0.057
-572.690	-166.692	-0.237	0.010
-571.675	16.318	-0.168	-0.132
-570.661	-64.691	-0.365	-0.147
-569.646	-200.000	-0.069	-0.302
-568.631	-200.000	0.011	-0.274
-567.617	-62.098	0.193	0.080
-566.602	-112.909	-0.162	0.032
-565.588	-40.812	-0.081	0.042
-564.573	-63.059	-0.318	-0.131
-563.558	35.290	-0.054	-0.047
-562.544	110.625	0.214	-0.256
-561.529	48.341	-0.367	-0.342
-560.515	800.000	-0.058	0.182
-559.500	-66.995	-0.390	-0.153
-558.485	-35.217	0.325	-0.176
-557.471	68.732	0.163	0.167
-556.456	-65.072	0.483	0.194
-555.442	126.111	0.055	0.069
-554.427	46.640	0.110	-0.101
-553.412	-200.000	0.009	0.194
-552.398	-13.561	0.234	-0.151
-551.383	-200.000	0.011	0.221
-550.369	340.191	0.060	-0.117
-549.354	-200.000	0.071	0.370
-548.339	-48.149	0.149	-0.071
-547.325	-140.506	-0.291	-0.030
-546.310	-160.555	-0.173	-0.009
-545.296	299.915	0.032	0.059
-544.281	800.000	-0.031	0.098
-543.266	-122.691	-0.226	-0.036
-542.252	-123.643	0.053	-0.008
-541.237	57.906	-0.179	-0.175
-540.223	-200.000	0.325	-0.001
-539.208	800.000	0.067	-0.198
-538.193	800.000	-0.025	-0.075
-537.179	-83.995	0.331	0.105
-536.164	15.182	-0.053	-0.042
-535.150	314.758	0.052	-0.097
-534.135	43.976	-0.169	-0.154
-533.121	-26.477	-0.088	-0.051
-532.106	540.684	0.128	0.303
-531.091	294.482	0.106	0.193
-530.077	800.000	0.068	0.253
-529.062	-59.635	-0.049	-0.021
-528.048	800.000	-0.042	-0.130
-527.033	-77.651	-0.201	-0.069
-526.018	274.626	-0.035	-0.062
-525.004	800.000	-0.039	0.112
-523.989	759.303	-0.036	-0.098
-522.975	63.352	0.235	0.234
-521.960	-200.000	-0.004	0.042
-520.945	-168.644	0.267	-0.010
-519.931	0.774	0.025	-0.018
-518.916	-96.272	0.161	0.042
-517.902	-76.757	-0.233	-0.081
-516.887	43.468	-0.159	-0.144
-515.872	-18.712	0.068	-0.042
-514.858	-72.875	-0.120	-0.044
-513.843	-8.371	-0.247	0.165
-512.829	-137.512	-0.251	-0.028
-511.814	-50.896	0.146	0.068
-510.799	800.000	-0.113	-0.468
-509.785	-107.954	0.440	0.095
-508.770	103.938	-0.070	-0.081
-507.756	423.637	0.108	-0.230
-506.741	92.496	0.184	-0.207
-505.726	-10.048	-0.147	0.097
-504.712	800.000	-0.058	0.158
-503.697	-200.000	-0.020	-0.420
-502.683	196.919	0.081	0.122
-501.668	-95.197	0.217	0.058
-500.653	-200.000	0.016	0.331
-499.639	-39.472	-0.171	-0.089
-498.624	167.775	-0.179	0.253
-497.610	12.522	0.207	0.159
-496.595	-76.145	0.224	-0.078
-495.581	377.378	0.014	0.029
-494.566	45.315	-0.157	0.144
-493.551	-118.701	-0.152	0.027
-492.537	197.600	0.129	0.195
-491.522	-14.961	0.214	0.136
-490.508	-156.867	-0.105	0.006
-489.493	-200.000	0.060	0.300
-488.478	279.009	0.203	-0.359
-487.464	490.794	0.061	0.139
-486.449	-98.942	0.109	0.027
-485.435	-6.554	0.062	0.042
-484.420	368.841	0.163	0.328
-483.405	-200.000	0.010	0.378
-482.391	-95.929	-0.141	-0.037
-481.376	-38.542	0.193	0.101
-480.362	111.898	-0.145	0.174
-479.347	-33.080	0.063	0.034
-478.332	534.929	-0.095	0.224
-477.318	-87.909	-0.229	-0.068
-476.303	144.319	-0.171	-0.226
-475.289	404.424	0.101	0.211
-474.274	31.958	0.272	-0.232
-473.259	261.668	0.061	-0.104
-472.245	9.498	-0.035	-0.027
-471.230	-125.957	-0.193	0.029
-470.216	-100.637	0.227	-0.055
-469.201	-121.965	-0.278	0.045
-468.186	-200.000	-0.083	0.524
-467.172	651.058	0.015	0.038
-466.157	-200.000	0.009	0.141
-465.143	-200.000	-0.015	0.185
-464.128	7.821	0.076	0.057
-463.113	-200.000	-0.055	0.260
-462.099	221.705	0.042	0.067
-461.084	142.373	-0.120	-0.157
-460.070	-200.000	-0.086	-0.388
-459.055	-151.815	0.126	0.009
-458.040	256.529	-0.082	-0.139
-457.026	67.593	-0.068	-0.069
-456.011	90.341	0.364	-0.404
-454.997	-200.000	-0.005	0.362
-453.982	221.177	0.021	0.034
-452.968	-63.163	0.120	-0.049
-451.953	-62.674	-0.341	0.140
-450.938	19.709	0.199	-0.159
-449.924	-92.535	-0.243	0.067
-448.909	-200.000	-0.029	0.304
-447.895	-49.770	0.093	0.044
-446.880	-53.406	-0.088	0.040
-445.865	-41.789	0.038	-0.019
-444.851	-200.000	-0.022	0.136
-443.836	-146.993	-0.258	0.022
-442.822	-145.464	0.175	-0.016
-441.807	-163.614	0.206	0.010
-440.792	-89.091	0.206	0.060
-439.778	111.639	0.217	0.259
-438.763	-66.013	0.161	-0.063
-437.749	236.309	-0.117	-0.191
-436.734	523.588	0.167	-0.389
-435.719	-200.000	0.082	0.436
-434.705	120.154	0.196	-0.241
-433.690	-200.000	-0.003	0.225
-432.676	97.232	-0.223	-0.253
-431.661	30.881	0.134	0.114
-430.646	-200.000	0.021	0.094
-429.632	-200.000	-0.035	-0.190
-428.617	267.941	-0.076	0.131
-427.603	-81.363	-0.415	0.135
-426.588	-15.890	-0.232	0.147
-425.573	-7.844	0.150	0.101
-424.559	-108.879	0.098	0.021
-423.544	800.000	-0.058	0.186
-422.530	506.076	0.033	-0.075
-421.515	-22.764	0.163	0.097
-420.500	-126.186	-0.319	-0.047
-419.486	800.000	-0.085	-0.256
-418.471	99.873	0.213	-0.244
-417.457	-200.000	0.033	-0.248
-416.442	-136.987	-0.380	-0.043
-415.428	-53.778	0.097	0.044
-414.413	-6.339	-0.248	0.167
-413.398	-26.929	-0.177	0.102
-412.384	-73.607	0.213	0.077
-411.369	-73.077	0.318	0.115
-410.355	151.304	0.054	0.072
-409.340	15.508	0.177	0.137
-408.325	64.535	0.240	0.239
-407.311	564.508	0.118	-0.284
-406.296	114.586	-0.157	-0.189
-405.282	189.054	0.111	-0.165
-404.267	47.477	0.128	-0.118
-403.252	52.348	0.136	0.128
-402.238	313.074	0.051	0.094
-401.223	119.384	-0.163	-0.199
-400.209	800.000	-0.081	0.272
-399.194	106.355	-0.150	0.176
-398.179	483.050	0.047	0.105
-397.165	-29.852	-0.162	-0.091
-396.150	-52.843	-0.216	-0.098
-395.136	-200.000	0.069	-0.383
-394.121	800.000	-0.048	0.192
-393.106	374.668	-0.025	-0.050
-392.092	800.000	-0.158	0.468
-391.077	60.121	0.102	0.100
-390.063	51.059	-0.065	-0.061
-389.048	-29.344	-0.505	-0.286
-388.033	-95.859	0.277	0.073
-387.019	-200.000	0.006	-0.215
-386.004	129.230	-0.247	-0.311
-384.990	685.689	-0.085	-0.218
-383.975	-123.269	-0.217	-0.034
-382.960	156.043	-0.083	0.112
-381.946	34.199	-0.067	0.058
-380.931	169.780	0.076	0.107
-379.917	513.398	0.113	0.261
-378.902	-53.494	-0.385	-0.174
-377.888	-200.000	0.055	-0.279
-376.873	159.842	-0.199	0.274
-375.858	-118.887	-0.173	0.030
-374.844	-89.809	0.187	-0.054
-373.829	29.597	-0.255	-0.214
-372.815	-200.000	-0.012	0.084
-371.800	116.159	0.068	-0.082
-370.785	-103.819	-0.216	-0.050
-369.771	-84.737	0.355	0.110
-368.756	-200.000	-0.036	0.205
-367.742	8.186	-0.351	0.260
-366.727	-200.000	-0.006	-0.188
-365.712	-84.843	-0.361	-0.112
-364.698	71.324	-0.107	0.109
-363.683	-65.467	0.445	-0.176
-362.669	-79.391	0.338	0.113
-361.654	259.282	-0.068	-0.117
-360.639	800.000	0.069	-0.226
-359.625	-96.862	0.295	0.076
-358.610	70.852	-0.170	0.174
-357.596	-38.715	0.217	0.113
-356.581	800.000	0.043	-0.119
-355.566	153.524	-0.149	0.202
-354.552	128.054	0.123	0.155
-353.537	-200.000	-0.026	-0.171
-352.523	-200.000	0.008	-0.249
-351.508	293.541	0.176	-0.317
-350.493	55.838	-0.277	-0.265
-349.479	307.196	-0.061	-0.111
-348.464	-187.072	0.131	-0.002
-347.450	-89.725	-0.383	-0.111
-346.435	-88.521	0.160	0.047
-345.420	-200.000	-0.003	-0.254
-344.406	173.806	0.092	0.132
-343.391	-49.371	0.207	0.098
-342.377	-113.238	0.099	0.019
-341.362	-66.062	0.317	0.125
-340.348	-68.457	-0.161	0.062
-339.333	-44.272	0.223	-0.110
-338.318	14.504	-0.040	-0.031
-337.304	-200.000	-0.003	-0.175
-336.289	66.562	-0.175	-0.176
-335.275	-120.160	-0.025	-0.004
-334.260	-51.922	0.133	-0.061
-333.245	-90.222	-0.190	-0.055
-332.231	10.124	-0.080	0.060
-331.216	747.858	0.071	-0.190
-330.202	68.905	0.268	0.272
-329.187	-33.508	0.199	0.108
-328.172	672.239	0.059	0.150
-327.158	800.000	0.119	0.414
-326.143	57.944	0.272	0.262
-325.129	-42.966	0.258	0.129
-324.114	800.000	-0.036	-0.150
-323.099	159.776	-0.212	0.291
-322.085	90.696	-0.221	0.244
-321.070	-196.182	0.240	-0.002
-320.056	124.875	0.131	-0.163
-319.041	117.880	0.025	-0.030
-318.026	17.436	-0.017	-0.013
-317.012	-76.193	0.312	-0.108
-315.997	-159.456	0.170	-0.009
-314.983	604.127	-0.082	0.202
-313.968	-34.912	0.239	-0.128
-312.953	-59.856	0.273	-0.115
-311.939	-93.268	0.271	-0.074
-310.924	28.238	-0.053	0.044
-309.910	800.000	0.048	0.146
-308.895	-8.287	-0.209	0.139
-307.880	19.917	-0.247	0.196
-306.866	-12.260	-0.070	-0.045
-305.851	8.687	0.157	0.116
-304.837	49.886	-0.124	0.116
-303.822	-121.378	0.294	-0.048
-302.807	-91.730	0.392	0.110
-301.793	87.332	0.050	0.055
-300.778	240.951	0.100	-0.164
-299.764	-100.173	-0.168	-0.041
-298.749	662.427	0.158	0.401
-297.735	-25.178	0.128	0.075
-296.720	206.602	-0.139	0.213
-295.705	-82.582	0.269	0.086
-294.691	481.910	-0.053	-0.120
-293.676	-66.046	0.196	0.077
-292.662	98.926	-0.271	0.308
-291.647	800.000	-0.039	0.109
-290.632	196.544	0.082	0.123
-289.618	800.000	0.097	0.409
-288.603	800.000	0.048	0.200
-287.589	565.114	0.069	0.164
-286.574	424.005	-0.052	-0.111
-285.559	-12.107	0.119	0.077
-284.545	48.151	-0.085	-0.078
-283.530	800.000	-0.141	-0.479
-282.516	-59.132	-0.355	-0.151
-281.501	552.165	-0.073	-0.174
-280.486	77.645	-0.221	-0.231
-279.472	-128.165	-0.165	-0.023
-278.457	646.630	0.078	-0.197
-277.443	620.754	-0.031	0.078
-276.428	-200.000	0.056	-0.357
-275.413	-103.421	-0.040	-0.009
-274.399	-200.000	-0.021	-0.270
-273.384	-152.145	0.158	-0.011
-272.370	42.279	-0.264	0.236
-271.355	389.638	-0.088	-0.180
-270.340	-200.000	0.061	-0.315
-269.326	-128.783	0.171	0.024
-268.311	-105.541	0.103	-0.023
-267.297	193.610	0.133	-0.198
-266.282	800.000	0.098	0.320
-265.267	-114.260	-0.219	-0.042
-264.253	-69.035	0.159	0.060
-263.238	-54.210	-0.105	0.047
-262.224	-142.597	0.548	-0.053
-261.209	-94.419	-0.234	0.063
-260.195	107.252	-0.142	-0.166
-259.180	168.876	0.150	-0.211
-258.165	366.464	-0.034	-0.067
-257.151	-55.113	-0.313	0.138
-256.136	112.285	0.183	-0.218
-255.122	250.249	-0.063	0.105
-254.107	188.636	0.243	-0.357
-253.092	19.371	-0.022	-0.017
-252.078	411.401	0.059	0.124
-251.063	-24.827	0.268	-0.156
-250.049	-21.644	-0.323	0.193
-249.034	336.930	0.102	0.196
-248.019	342.964	0.230	0.442
-247.005	-115.682	0.182	-0.034
-245.990	-62.509	0.115	0.047
-244.976	194.802	-0.262	-0.391
-243.961	156.792	-0.081	0.109
-242.946	-84.896	0.285	0.088
-241.932	-200.000	-0.034	-0.187
-240.917	-22.825	0.269	0.159
-239.903	-200.000	-0.021	-0.375
-238.888	46.949	0.175	0.160
-237.873	-140.785	0.261	-0.026
-236.859	106.997	-0.189	-0.220
-235.844	-200.000	0.068	0.312
-234.830	800.000	-0.048	-0.171
-233.815	245.430	0.098	0.162
-232.800	-75.202	-0.232	0.082
-231.786	43.797	-0.235	0.212
-230.771	-0.668	-0.047	0.033
-229.757	-104.238	0.227	-0.052
-228.742	247.988	0.054	0.090
-227.727	202.819	-0.054	0.082
-226.713	205.109	0.077	-0.117
-225.698	-137.130	-0.038	-0.004
-224.684	34.676	0.229	0.197
-223.669	89.257	-0.204	0.223
-222.655	550.869	0.123	0.290
-221.640	-166.984	0.273	0.011
-220.625	-103.361	0.093	0.022
-219.611	-49.754	0.204	-0.095
-218.596	-19.844	-0.137	-0.083
-217.582	-200.000	-0.033	-0.183
-216.567	296.201	-0.134	-0.242
-215.552	-12.880	-0.092	0.059
-214.538	676.917	0.075	-0.192
-213.523	80.653	-0.035	-0.037
-212.509	-132.463	-0.029	-0.004
-211.494	9.850	0.185	-0.137
-210.479	10.888	-0.117	-0.088
-209.465	-116.103	-0.171	-0.031
-208.450	-87.090	-0.169	-0.051
-207.436	244.092	-0.232	0.383
-206.421	-200.000	0.011	0.058
-205.406	503.069	0.221	-0.503
-204.392	-167.740	-0.180	0.007
-203.377	157.383	0.122	-0.166
-202.363	74.704	0.102	0.105
-201.348	521.402	0.071	0.163
-200.333	-178.412	-0.435	-0.010
-199.319	20.983	0.182	-0.145
-198.304	-200.000	-0.005	0.053
-197.290	-19.237	0.333	0.203
-196.275	258.384	-0.196	-0.330
-195.260	-5.992	-0.052	-0.035
-194.246	-200.000	-0.028	-0.177
-193.231	616.755	0.045	-0.112
-192.217	100.737	-0.049	-0.056
-191.202	220.577	-0.078	0.122
-190.187	406.808	0.142	0.295
-189.173	-61.959	-0.373	-0.153
-188.158	158.060	0.302	0.410
-187.144	239.837	0.166	0.272
-186.129	143.611	-0.043	-0.056
-185.114	-73.467	-0.049	0.017
-184.100	-200.000	-0.017	0.116
-183.085	-52.973	0.116	-0.052
-182.071	-200.000	0.002	-0.097
-181.056	-119.174	-0.187	0.032
-180.042	110.730	-0.166	-0.196
-179.027	-91.268	-0.290	-0.081
-178.012	800.000	0.140	-0.402
-176.998	-139.037	0.021	0.002
-175.983	307.315	0.105	0.191
-174.969	-128.727	-0.250	0.035
-173.954	707.034	0.086	0.222
-172.939	-80.052	-0.370	-0.122
-171.925	-29.715	-0.176	-0.098
-170.910	-61.360	-0.078	0.032
-169.896	-111.555	-0.132	-0.026
-168.881	-21.090	-0.044	0.027
-167.866	-104.983	0.162	0.036
-166.852	-177.618	0.088	-0.002
-165.837	-131.618	0.291	0.038
-164.823	181.188	-0.111	-0.159
-163.808	-111.279	0.094	0.019
-162.793	-126.992	0.319	-0.046
-161.779	-200.000	-0.068	-0.359
-160.764	-1.067	0.285	-0.197
-159.750	800.000	-0.035	0.135
-158.735	174.401	0.188	0.266
-157.720	-12.834	0.090	0.057
-156.706	-200.000	0.014	0.072
-155.691	800.000	0.055	-0.150
-154.677	192.080	0.303	-0.447
-153.662	241.659	0.106	0.174
-152.647	-84.373	-0.225	0.070
-151.633	96.633	0.431	-0.484
-150.618	100.192	0.327	0.371
-149.604	-122.552	0.201	-0.032
-148.589	-71.388	-0.209	0.077
-147.574	-200.000	-0.009	-0.160
-146.560	-200.000	0.001	-0.017
-145.545	651.847	-0.078	-0.195
-144.531	-200.000	-0.005	0.203
-143.516	-127.753	0.265	-0.038
-142.502	681.543	-0.055	0.141
-141.487	684.513	-0.107	-0.274
-140.472	-185.140	0.331	-0.005
-139.458	-200.000	-0.001	-0.034
-138.443	153.860	0.235	-0.315
-137.429	-48.174	0.182	0.086
-136.414	210.685	0.171	-0.264
-135.399	-84.329	0.259	0.080
-134.385	-48.662	0.022	0.010
-133.370	-126.348	-0.198	0.029
-132.356	-88.518	-0.122	-0.035
-131.341	-200.000	0.228	0.001
-130.326	-67.697	-0.258	0.099
-129.312	212.271	0.194	0.299
-128.297	-151.755	0.408	0.029
-127.283	531.172	-0.118	0.273
-126.268	-77.253	-0.332	-0.113
-125.253	-73.259	0.280	0.100
-124.239	197.245	-0.165	0.247
-123.224	-200.000	-0.037	0.179
-122.210	800.000	0.060	0.172
-121.195	25.075	0.346	-0.281
-120.180	-200.000	0.014	0.145
-119.166	-200.000	-0.053	-0.366
-118.151	800.000	-0.032	0.109
-117.137	-200.000	0.002	0.028
-116.122	609.563	0.144	-0.352
-115.107	-131.088	-0.032	0.004
-114.093	-200.000	-0.026	0.162
-113.078	44.470	0.005	0.005
-112.064	-200.000	0.050	0.370
-111.049	472.891	-0.008	0.018
-110.034	173.182	-0.098	0.138
-109.020	-200.000	-0.063	0.288
-108.005	113.692	0.188	-0.223
-106.991	800.000	0.095	0.331
-105.976	562.570	-0.071	0.167
-104.962	-17.321	0.008	0.005
-103.947	266.083	-0.107	-0.183
-102.932	151.197	0.086	0.114
-101.918	-132.474	0.352	0.044
-100.903	114.651	0.110	-0.130
-99.889	-200.000	0.003	0.063
-98.874	-170.116	0.103	0.004
-97.859	589.462	0.134	0.324
-96.845	41.795	0.202	-0.179
-95.830	-70.763	-0.271	-0.100
-94.816	-163.781	0.172	0.008
-93.801	-200.000	0.003	0.027
-92.786	-200.000	-0.033	0.261
-91.772	-200.000	0.026	-0.160
-90.757	-36.486	-0.105	0.055
-89.743	216.060	0.196	-0.304
-88.728	22.797	0.113	0.090
-87.713	-200.000	0.001	0.086
-86.699	314.608	-0.105	-0.194
-85.684	495.618	0.041	-0.092
-84.670	-42.352	0.180	0.090
-83.655	-200.000	-0.030	0.162
-82.640	178.291	0.112	-0.160
-81.626	451.517	-0.115	0.248
-80.611	29.698	0.087	0.072
-79.597	407.107	-0.113	0.233
-78.582	-165.102	0.147	0.006
-77.567	140.826	-0.170	0.220
-76.553	412.602	-0.157	0.326
-75.538	-200.000	0.036	0.265
-74.524	-143.945	0.149	0.014
-73.509	370.944	0.135	0.267
-72.494	11.007	-0.213	-0.159
-71.480	800.000	0.094	0.258
-70.465	486.687	0.057	-0.126
-69.451	-3.739	-0.226	0.153
-68.436	680.673	-0.080	0.203
-67.422	-143.164	0.154	0.015
-66.407	60.534	0.137	-0.132
-65.392	27.219	-0.216	0.177
-64.378	338.757	-0.038	0.073
-63.363	26.075	-0.201	-0.164
-62.349	-28.004	-0.404	0.228
-61.334	62.974	-1.091	-1.066
-60.319	321.827	0.456	0.846
-59.305	333.268	-0.561	-1.058
-58.290	166.375	0.862	1.192
-57.276	311.297	0.869	1.589
-56.261	-200.000	116.947	615.235
-55.246	412.766	1548.357	3210.803
-54.232	141.220	2735.876	3531.246
-53.217	97.794	2211.098	2480.495
-52.203	36.635	1723.262	1484.454
-51.188	29.005	1536.305	1270.892
-50.173	26.702	1511.636	1234.764
-49.159	48.821	1571.958	1438.585
-48.144	47.210	1586.884	1440.972
-47.130	29.111	1542.084	1276.207
-46.115	26.132	1526.249	1242.581
-45.100	25.908	1523.233	1238.535
-44.086	25.876	1521.365	1236.751
-43.071	25.933	1518.802	1235.006
-42.057	25.819	1517.790	1233.356
-41.042	26.002	1515.424	1232.634
-40.027	25.748	1515.076	1230.568
-39.013	25.875	1513.310	1229.948
-37.998	25.786	1512.481	1228.617
-36.984	25.825	1510.603	1227.312
-35.969	25.937	1509.677	1227.272
-34.954	25.719	1508.359	1224.670
-33.940	25.870	1506.243	1223.929
-32.925	25.850	1504.776	1222.553
-31.911	25.869	1503.798	1221.839
-30.896	25.917	1502.678	1221.203
-29.881	25.918	1501.360	1220.094
-28.867	25.961	1499.957	1219.194
-27.852	25.911	1498.407	1217.550
-26.838	25.963	1496.771	1216.522
-25.823	25.908	1495.181	1214.811
-24.809	25.903	1493.960	1213.735
-23.794	25.845	1492.539	1212.143
-22.779	25.829	1492.215	1211.727
-21.765	25.839	1491.271	1210.977
-20.750	25.859	1489.474	1209.605
-19.736	25.912	1488.164	1208.846
-18.721	25.912	1486.691	1207.605
-17.706	25.867	1486.086	1206.766
-16.692	25.877	1485.088	1205.973
-15.677	25.880	1484.042	1205.093
-14.663	25.870	1483.318	1204.389
-13.648	25.804	1482.338	1203.104
-12.633	25.889	1480.715	1202.308
-11.619	25.892	1479.938	1201.648
-10.604	25.851	1479.217	1200.741
-9.590	25.881	1478.516	1200.327
-8.575	25.835	1477.434	1199.099
-7.560	25.850	1476.852	1198.677
-6.546	25.856	1475.690	1197.723
-5.531	25.693	1475.354	1196.321
-4.517	25.781	1473.976	1195.740
-3.502	25.839	1473.111	1195.376
-2.487	25.800	1472.068	1194.225
-1.473	25.711	1471.295	1192.957
-0.458	25.855	1469.182	1192.154
0.556	25.015	1460.012	1182.645
1.571	22.310	1434.724	1144.489
2.586	18.948	1372.263	1073.610
3.600	17.261	1287.612	997.397
4.615	16.128	1243.218	956.503
5.629	14.111	1186.351	901.747
6.644	7.457	1101.730	803.743
7.659	1.797	1063.363	747.953
8.673	0.968	1058.168	740.186
9.688	0.848	1055.102	737.391
10.702	0.717	1053.553	735.604
11.717	0.756	1051.240	734.114
12.731	3.068	1052.836	746.394
13.746	9.856	1062.191	786.116
14.761	15.506	1069.411	819.021
15.775	17.203	1071.108	828.527
16.790	16.910	1069.952	826.132
17.804	15.986	1067.593	819.745
18.819	15.093	1066.030	814.132
19.834	14.691	1064.673	811.071
20.848	14.378	1063.804	808.821
21.863	14.107	1062.836	806.697
22.877	13.873	1062.203	805.010
23.892	13.722	1061.076	803.355
24.907	13.556	1060.573	802.100
25.921	13.768	1058.841	801.741
26.936	13.735	1058.676	801.386
27.950	13.706	1058.404	800.968
28.965	13.860	1056.880	800.489
29.980	13.715	1056.575	799.489
30.994	13.718	1055.369	798.516
32.009	13.825	1054.907	798.614
33.023	13.814	1054.363	798.078
34.038	13.810	1053.338	797.211
35.053	13.890	1052.215	796.677
36.067	13.720	1051.488	795.240
37.082	13.760	1050.700	794.766
38.096	13.643	1049.942	793.561
39.111	13.946	1048.876	794.136
40.126	13.835	1048.329	793.118
41.140	13.735	1046.670	791.319
42.155	13.738	1046.243	790.937
43.169	13.656	1045.410	789.849
44.184	13.728	1044.252	789.244
45.199	13.766	1042.709	788.190
46.213	13.787	1041.596	787.378
47.228	13.766	1040.723	786.551
48.242	13.852	1039.608	786.044
49.257	13.694	1039.100	784.846
50.271	13.810	1037.989	784.485
51.286	13.735	1037.038	783.340
52.301	13.744	1036.846	783.171
53.315	13.784	1035.591	782.343
54.330	13.815	1034.710	781.752
55.344	13.733	1033.870	780.664
56.359	13.758	1032.967	780.031
57.374	13.708	1032.426	779.314
58.388	13.861	1031.255	779.083
59.403	13.796	1030.437	778.092
60.417	13.729	1029.663	777.121
61.432	13.578	1029.452	776.185
62.447	13.657	1028.493	775.765
63.461	13.643	1027.551	774.923
64.476	13.658	1026.673	774.259
65.490	13.566	1025.792	773.097
66.505	13.634	1024.955	772.714
67.520	13.665	1024.225	772.241
68.534	13.676	1023.408	771.607
69.549	13.752	1022.745	771.394
70.563	13.596	1022.213	770.201
71.578	13.517	1021.413	769.161
72.593	13.678	1020.229	768.948
73.607	13.657	1019.060	767.902
74.622	13.539	1018.438	766.821
75.636	13.628	1017.398	766.379
76.651	13.532	1016.780	765.401
77.666	13.533	1016.541	765.162
78.680	13.543	1015.165	764.105
79.695	13.730	1014.465	764.370
80.709	13.709	1014.309	764.089
81.724	13.589	1013.513	762.870
82.739	13.737	1012.272	762.549
83.753	13.688	1011.783	761.889
84.768	13.816	1010.842	761.698
85.782	13.826	1010.375	761.323
86.797	13.768	1009.440	760.285
87.812	13.892	1008.147	759.813
88.826	13.884	1007.623	759.314
89.841	13.682	1007.027	757.874
90.855	13.768	1005.943	757.384
91.870	13.881	1005.341	757.380
92.884	13.775	1004.854	756.461
93.899	13.868	1004.249	756.366
94.914	13.953	1002.976	755.727
95.928	13.937	1002.681	755.364
96.943	13.979	1001.375	754.504
97.957	13.964	1000.741	753.892
98.972	13.895	1000.013	752.964
99.987	13.966	998.882	752.365
101.001	13.904	998.388	751.646
102.016	13.914	997.655	751.072
103.030	13.817	996.852	749.964
104.045	13.844	995.998	749.378
105.060	14.003	994.469	748.878
106.074	13.933	993.877	748.049
107.089	13.790	993.231	746.855
108.103	13.738	992.403	745.931
109.118	13.805	991.098	745.186
110.133	13.774	990.451	744.493
111.147	13.698	989.602	743.451
112.162	13.810	988.386	742.973
113.176	13.755	988.137	742.472
114.191	13.807	987.240	741.966
115.206	13.750	986.417	741.026
116.220	13.859	985.699	740.910
117.235	13.892	984.528	740.109
118.249	13.829	983.649	739.103
119.264	13.644	983.111	737.809
120.279	13.834	982.104	737.832
121.293	13.812	981.302	737.066
122.308	13.738	980.728	736.241
123.322	13.857	979.533	735.807
124.337	13.715	978.442	734.295
125.352	13.807	977.408	733.862
126.366	13.736	976.460	732.772
127.381	13.807	974.892	731.841
128.395	13.810	974.308	731.351
129.410	13.830	973.119	730.484
130.424	13.844	972.222	729.807
131.439	13.860	971.073	728.949
132.454	13.831	970.492	728.321
133.468	13.820	969.989	727.833
134.483	13.850	969.431	727.480
135.497	13.792	968.939	726.793
136.512	13.898	967.910	726.420
137.527	13.874	967.144	725.678
138.541	13.800	966.527	724.826
139.556	13.733	965.846	723.957
140.570	13.809	964.900	723.518
141.585	13.811	963.796	722.635
142.600	13.839	963.245	722.277
143.614	14.001	962.526	722.381
144.629	14.087	961.617	722.009
145.643	13.973	961.164	721.106
146.658	14.005	960.272	720.516
147.673	13.979	959.242	719.564
148.687	13.947	958.281	718.642
149.702	14.016	957.241	718.095
150.716	13.830	957.003	717.051
151.731	13.927	956.129	716.753
152.746	14.049	954.874	716.274
153.760	13.915	954.628	715.449
154.775	13.955	953.935	715.039
155.789	14.068	953.041	714.791
156.804	14.009	952.313	713.925
157.819	14.010	951.139	712.987
158.833	14.072	951.077	713.145
159.848	14.031	950.452	712.439
160.862	14.113	949.451	711.975
161.877	14.155	948.766	711.579
162.892	14.024	948.198	710.527
163.906	14.027	946.913	709.513
164.921	14.093	946.382	709.338
165.935	14.134	945.387	708.704
166.950	14.040	944.777	707.781
167.964	14.193	943.210	707.198
168.979	14.122	942.564	706.346
169.994	14.261	941.434	706.027
171.008	14.095	940.771	704.766
172.023	14.181	940.036	704.516
173.037	14.119	939.602	703.865
174.052	14.263	938.489	703.579
175.067	14.165	938.031	702.758
176.081	14.206	937.208	702.252
177.096	14.206	936.230	701.457
178.110	14.232	935.193	700.730
179.125	14.181	935.100	700.383
180.140	14.174	934.104	699.546
181.154	14.264	933.116	699.124
182.169	14.218	932.874	698.684
183.183	14.252	932.376	698.393
184.198	14.328	931.256	697.810
185.213	14.327	930.878	697.463
186.227	14.318	929.975	696.686
187.242	14.388	929.552	696.600
188.256	14.396	928.795	696.005
189.271	14.251	928.403	695.043
190.286	14.501	927.174	695.106
191.300	14.462	926.856	694.640
192.315	14.322	925.835	693.232
193.329	14.324	925.258	692.750
194.344	14.386	924.265	692.202
195.359	14.353	923.846	691.688
196.373	14.408	923.236	691.400
197.388	14.525	922.823	691.514
198.402	14.541	922.302	691.128
199.417	14.516	921.557	690.406
200.432	14.575	921.011	690.179
201.446	14.702	920.906	690.565
202.461	14.679	920.743	690.285
203.475	14.617	920.292	689.630
204.490	14.603	919.530	688.942
205.504	14.550	918.405	687.818
206.519	14.584	917.730	687.391
207.534	14.577	917.017	686.767
208.548	14.583	916.409	686.279
209.563	14.471	915.701	685.224
210.577	14.667	914.701	685.220
211.592	14.739	914.205	685.086
212.607	14.648	913.895	684.417
213.621	14.648	913.278	683.894
214.636	14.797	912.225	683.656
215.650	14.818	911.718	683.301
216.665	14.737	911.187	682.512
217.680	14.794	910.587	682.235
218.694	14.884	910.371	682.382
219.709	14.872	909.766	681.819
220.723	14.852	908.942	681.059
221.738	14.888	908.366	680.713
222.753	14.803	907.302	679.510
223.767	14.950	906.510	679.454
224.782	14.847	906.023	678.611
225.796	14.899	905.023	678.011
226.811	15.025	904.370	677.973
227.826	15.080	903.904	677.787
228.840	14.966	903.330	676.834
229.855	14.983	902.236	676.025
230.869	14.981	901.647	675.516
231.884	15.076	900.746	675.166
232.899	15.086	900.630	675.059
233.913	15.077	899.255	673.932
234.928	14.994	899.293	673.564
235.942	15.093	898.421	673.251
236.957	15.079	897.555	672.484
237.972	14.874	897.316	671.423
238.986	14.989	896.366	671.117
240.001	15.072	895.435	670.693
241.015	15.017	894.852	669.976
242.030	15.115	894.269	669.873
243.045	15.071	893.629	669.158
244.059	15.016	893.164	668.531
245.074	15.137	892.232	668.257
246.088	15.260	891.532	668.162
247.103	15.195	891.456	667.788
248.117	15.122	890.854	666.986
249.132	15.280	890.183	667.056
250.147	15.300	889.223	666.354
251.161	15.272	888.586	665.707
252.176	15.372	887.985	665.596
253.190	15.308	887.394	664.840
254.205	15.534	886.898	665.305
255.220	15.438	886.227	664.361
256.234	15.406	885.602	663.710
257.249	15.429	884.911	663.224
258.263	15.611	883.873	663.104
259.278	15.508	883.465	662.334
260.293	15.540	883.111	662.137
261.307	15.596	882.518	661.855
262.322	15.489	882.261	661.181
263.336	15.610	881.148	660.765
264.351	15.667	880.768	660.644
265.366	15.506	880.426	659.696
266.380	15.485	879.906	659.167
267.395	15.654	878.632	658.818
268.409	15.788	877.631	658.533
269.424	15.705	877.229	657.848
270.439	15.686	876.835	657.420
271.453	15.693	876.099	656.837
272.468	15.646	875.500	656.148
273.482	15.700	874.803	655.776
274.497	15.756	874.075	655.390
275.512	15.764	872.932	654.507
276.526	15.787	872.583	654.279
277.541	15.670	872.039	653.355
278.555	15.718	871.460	653.052
279.570	15.736	871.022	652.736
280.585	15.822	870.409	652.551
281.599	15.842	869.687	652.030
282.614	15.859	868.933	651.472
283.628	15.949	868.204	651.216
284.643	15.800	868.263	650.627
285.657	15.854	867.575	650.264
286.672	15.891	867.272	650.120
287.687	15.843	866.578	649.356
288.701	15.908	865.814	648.977
289.716	16.000	865.142	648.772
290.730	15.839	864.581	647.672
291.745	15.975	863.875	647.609
292.760	16.177	862.854	647.562
293.774	16.169	862.065	646.883
294.789	16.113	861.725	646.355
295.803	16.088	860.968	645.634
296.818	16.015	860.631	645.046
297.833	16.074	859.947	644.701
298.847	16.098	859.351	644.290
299.862	16.100	858.694	643.748
300.876	16.140	857.913	643.259
301.891	16.036	857.500	642.497
302.906	16.215	856.578	642.429
303.920	16.376	855.997	642.549
304.935	16.400	855.654	642.324
305.949	16.461	854.481	641.621
306.964	16.279	854.296	640.734
307.979	16.263	853.583	640.081
308.993	16.424	852.777	640.029
310.008	16.445	852.488	639.838
311.022	16.243	852.293	638.869
312.037	16.426	851.612	638.995
313.052	16.344	851.314	638.401
314.066	16.353	849.994	637.393
315.081	16.339	849.867	637.185
316.095	16.206	849.384	636.265
317.110	16.352	848.802	636.326
318.125	16.468	848.237	636.280
319.139	16.344	847.914	635.517
320.154	16.512	847.167	635.532
321.168	16.483	846.622	634.956
322.183	16.360	846.156	634.091
323.197	16.400	845.869	633.969
324.212	16.525	844.944	633.689
325.227	16.480	844.432	633.079
326.241	16.488	844.045	632.763
327.256	16.525	843.282	632.275
328.270	16.441	842.604	631.397
329.285	16.605	842.124	631.591
330.300	16.515	841.749	630.920
331.314	16.481	841.358	630.442
332.329	16.546	840.679	630.122
333.343	16.575	839.935	629.615
334.358	16.618	839.586	629.458
335.373	16.664	838.718	628.925
336.387	16.654	838.420	628.606
337.402	16.649	838.073	628.271
338.416	16.616	837.190	627.433
339.431	16.715	836.437	627.180
340.446	16.807	836.017	627.149
341.460	16.650	835.511	626.132
342.475	16.847	834.644	626.158
343.489	16.894	833.813	625.652
344.504	16.912	833.467	625.403
345.519	16.862	833.455	625.154
346.533	17.054	832.435	625.041
347.548	16.961	832.364	624.590
348.562	16.869	831.826	623.793
349.577	17.032	831.051	623.756
350.592	16.888	830.736	622.934
351.606	16.856	830.437	622.535
352.621	16.924	829.678	622.162
353.635	16.913	829.427	621.879
354.650	16.966	829.468	622.050
355.665	17.028	828.193	621.263
356.679	16.952	827.962	620.759
357.694	16.951	827.422	620.294
358.708	17.104	826.725	620.276
359.723	17.137	826.136	619.900
360.738	17.087	825.535	619.212
361.752	17.071	824.949	618.659
362.767	17.126	825.134	618.943
363.781	17.328	824.332	619.024
364.796	17.191	823.909	618.153
365.810	17.279	823.623	618.202
366.825	17.293	822.844	617.615
367.840	17.159	822.944	617.148
368.854	17.314	822.517	617.334
369.869	17.172	821.990	616.372
370.883	17.219	821.426	616.064
371.898	17.284	820.583	615.610
372.913	17.316	820.156	615.354
373.927	17.327	819.731	615.020
374.942	17.339	818.896	614.381
375.956	17.313	818.171	613.689
376.971	17.429	817.572	613.606
377.986	17.352	817.315	613.080
379.000	17.279	817.013	612.535
380.015	17.538	816.334	612.906
381.029	17.612	815.845	612.749
382.044	17.413	815.158	611.463
383.059	17.487	814.340	611.063
384.073	17.464	814.237	610.849
385.088	17.353	813.963	610.191
386.102	17.438	813.035	609.747
387.117	17.519	812.319	609.444
388.132	17.362	812.366	608.864
389.146	17.534	811.706	608.929
390.161	17.490	811.728	608.735
391.175	17.604	810.758	608.363
392.190	17.622	810.551	608.217
393.205	17.573	809.982	607.560
394.219	17.606	809.598	607.335
395.234	17.599	809.374	607.091
396.248	17.561	808.605	606.323
397.263	17.568	808.212	606.003
398.278	17.576	807.557	605.486
399.292	17.668	806.963	605.312
400.307	17.625	806.620	604.847
401.321	17.715	806.247	604.835
402.336	17.698	805.750	604.349
403.350	17.692	805.558	604.129
404.365	17.775	804.922	603.892
405.380	17.883	804.285	603.744
406.394	17.837	804.141	603.422
407.409	17.855	803.761	603.146
408.423	17.929	803.065	602.829
409.438	17.910	802.380	602.197
410.453	17.864	802.473	602.050
411.467	18.003	801.894	602.052
412.482	17.945	801.275	601.331
413.496	17.905	800.854	600.819
414.511	18.230	800.150	601.380
415.526	17.936	800.349	600.445
416.540	17.946	799.866	600.063
417.555	17.967	799.781	600.022
418.569	17.992	798.965	599.444
419.584	17.877	798.249	598.450
420.599	17.992	798.012	598.621
421.613	114.105	1295.786	1483.717
422.628	98.360	1368.293	1483.793
