DTS Sentinel unit serial number:	SN413079Multiplexer serial number:	ORYXHardware model number:	OX4-SRSoftware version number:	ORYX F/W v4.00 Oryx Data Collector v3.7.2.0data status	okinstallation	princeton_trtdifferential loss correction	single-endedforward channel	channel 3reverse channel	N/Adate	2019/09/17time	10:00:35forward acquisition time	60.00reverse acquisition time	0.00gamma	496.2192k internal	0.2323k external	0.2323temperature offset calibration	0.9943default loss term (dB/km)	0.3790temperature slope calibration	1.0000multiplexer offset coefficient	1.0000multiplexer slope coefficient	1.0000fibre end	0.00T internal ref (°C)	29.62T ext. ref 1 (°C)	0.17T ext. ref 2 (°C)	25.31length (m)	temperature (°C)	Stokes	anti-Stokes-747.200	-89.356	0.139	-0.041
-746.185	-101.753	0.085	-0.021
-745.171	-11.309	-0.029	-0.019
-744.156	56.091	-0.217	0.213
-743.142	-200.000	-0.015	0.111
-742.127	445.634	-0.014	-0.030
-741.112	800.000	0.126	0.429
-740.098	30.645	-0.217	0.187
-739.083	-9.244	0.141	-0.095
-738.069	-93.946	-0.455	-0.126
-737.054	800.000	0.047	0.204
-736.039	-23.246	0.325	0.198
-735.025	1.610	-0.082	0.060
-734.010	-73.948	-0.321	-0.118
-732.996	-112.012	-0.165	-0.034
-731.981	-50.853	-0.297	-0.141
-730.966	163.795	-0.055	0.079
-729.952	-3.125	-0.115	-0.081
-728.937	-200.000	0.016	-0.175
-727.923	-88.582	-0.204	-0.061
-726.908	-18.280	-0.158	0.100
-725.894	-85.250	0.066	0.021
-724.879	10.643	-0.245	-0.188
-723.864	-12.156	-0.122	-0.080
-722.850	-200.000	-0.062	-0.291
-721.835	-57.694	-0.075	-0.033
-720.821	191.317	-0.054	-0.082
-719.806	-131.996	0.079	0.010
-718.791	-200.000	-0.023	-0.283
-717.777	137.189	0.128	0.169
-716.762	34.658	-0.280	0.247
-715.748	-200.000	0.034	0.263
-714.733	324.725	0.046	0.089
-713.718	-64.531	-0.078	-0.032
-712.704	-82.257	0.091	-0.030
-711.689	-165.715	0.195	-0.009
-710.675	-200.000	-0.002	0.140
-709.660	117.634	0.058	0.072
-708.645	-200.000	0.052	-0.316
-707.631	800.000	0.049	-0.135
-706.616	-200.000	-0.036	-0.221
-705.602	94.194	0.074	0.085
-704.587	-200.000	-0.006	-0.073
-703.572	658.450	-0.127	0.329
-702.558	314.572	-0.100	-0.190
-701.543	-99.440	0.131	0.033
-700.529	349.124	-0.054	0.108
-699.514	-155.155	0.259	0.017
-698.499	-133.897	-0.122	0.015
-697.485	-64.944	0.220	0.090
-696.470	-200.000	0.069	0.438
-695.456	-102.145	-0.157	-0.038
-694.441	-137.492	0.122	0.014
-693.426	106.048	0.076	-0.091
-692.412	800.000	-0.055	-0.164
-691.397	-200.000	0.022	-0.473
-690.383	-24.248	-0.158	-0.095
-689.368	800.000	-0.062	0.199
-688.354	152.700	0.060	-0.083
-687.339	-172.753	-0.036	0.001
-686.324	800.000	-0.017	0.071
-685.310	368.992	0.134	-0.274
-684.295	-200.000	0.005	0.187
-683.281	232.549	-0.208	0.345
-682.266	-200.000	0.061	0.278
-681.251	800.000	-0.109	0.344
-680.237	800.000	-0.124	0.384
-679.222	-200.000	-0.027	-0.254
-678.208	41.573	-0.200	0.182
-677.193	4.188	0.285	0.210
-676.178	-196.474	0.070	-0.000
-675.164	533.355	-0.040	0.095
-674.149	119.190	0.177	-0.220
-673.135	84.275	-0.197	-0.217
-672.120	-117.247	-0.122	0.022
-671.105	244.217	-0.066	0.111
-670.091	94.853	-0.098	-0.112
-669.076	800.000	-0.023	-0.082
-668.062	-150.445	0.141	-0.011
-667.047	-85.153	-0.289	0.091
-666.032	-82.875	-0.142	0.046
-665.018	-200.000	0.005	-0.154
-664.003	205.613	-0.142	-0.223
-662.989	116.083	-0.060	-0.074
-661.974	-200.000	0.182	-0.000
-660.959	26.103	-0.284	0.239
-659.945	15.212	-0.084	0.066
-658.930	-200.000	0.017	0.340
-657.916	-11.386	-0.060	0.039
-656.901	-200.000	-0.048	0.318
-655.886	-130.771	-0.024	-0.003
-654.872	-57.535	-0.240	-0.106
-653.857	85.988	0.041	-0.045
-652.843	-200.000	-0.004	0.201
-651.828	-119.881	0.172	-0.030
-650.814	103.660	-0.116	0.137
-649.799	417.973	0.177	-0.380
-648.784	328.272	-0.171	-0.331
-647.770	89.066	0.098	-0.110
-646.755	121.878	0.165	-0.207
-645.741	-200.000	0.018	-0.302
-644.726	241.969	-0.086	-0.145
-643.711	-4.848	0.089	0.062
-642.697	-99.587	0.223	-0.056
-641.682	-57.532	0.222	0.098
-640.668	70.786	-0.255	-0.265
-639.653	-8.805	0.111	-0.075
-638.638	-81.562	0.057	0.019
-637.624	-200.000	-0.233	-0.000
-636.609	366.273	-0.075	-0.152
-635.595	146.391	-0.307	-0.414
-634.580	-200.000	-0.019	-0.311
-633.565	-200.000	0.063	-0.340
-632.551	21.718	0.332	-0.272
-631.536	183.975	-0.116	0.172
-630.522	-10.727	0.097	0.064
-629.507	-20.977	-0.158	-0.097
-628.492	130.542	0.179	-0.231
-627.478	-151.741	0.150	0.011
-626.463	-200.000	-0.016	-0.236
-625.449	-103.178	-0.205	0.049
-624.434	-200.000	-0.005	-0.134
-623.419	-200.000	0.015	0.189
-622.405	-4.404	-0.282	-0.196
-621.390	-172.860	0.376	-0.012
-620.376	-200.000	0.015	-0.067
-619.361	539.253	-0.026	-0.061
-618.346	800.000	-0.028	-0.079
-617.332	-113.873	0.414	-0.081
-616.317	-140.198	-0.274	0.029
-615.303	-73.013	-0.295	0.109
-614.288	-120.704	-0.158	-0.027
-613.273	-73.352	0.211	-0.078
-612.259	-200.000	-0.019	0.459
-611.244	-22.633	-0.206	0.125
-610.230	110.461	-0.068	0.082
-609.215	-38.461	0.037	-0.020
-608.201	-200.000	0.007	-0.273
-607.186	800.000	-0.098	-0.287
-606.171	-159.619	-0.122	0.007
-605.157	800.000	-0.114	-0.379
-604.142	145.756	-0.236	-0.318
-603.128	800.000	-0.045	-0.134
-602.113	-39.344	0.122	0.064
-601.098	11.493	-0.239	-0.184
-600.084	162.392	0.041	0.058
-599.069	85.195	-0.278	-0.306
-598.055	-200.000	-0.002	0.179
-597.040	29.900	-0.265	0.226
-596.025	14.411	-0.222	-0.174
-595.011	-200.000	0.042	0.219
-593.996	-200.000	-0.040	0.179
-592.982	-200.000	0.032	0.142
-591.967	800.000	0.105	0.335
-590.952	48.446	0.168	0.158
-589.938	-9.257	-0.129	0.087
-588.923	-162.029	0.516	0.026
-587.909	-158.587	-0.180	-0.010
-586.894	-21.497	0.228	0.139
-585.879	210.932	0.294	0.464
-584.865	800.000	0.114	0.324
-583.850	-97.613	0.327	0.085
-582.836	-83.463	-0.384	0.123
-581.821	294.482	0.068	0.125
-580.806	-40.656	0.245	-0.128
-579.792	-109.019	-0.047	0.010
-578.777	-200.000	-0.053	0.330
-577.763	-7.463	0.093	-0.063
-576.748	-43.978	-0.072	-0.036
-575.733	-200.000	0.003	-0.025
-574.719	-124.030	-0.324	0.051
-573.704	19.541	-0.080	-0.065
-572.690	-157.095	0.046	0.003
-571.675	135.993	0.301	0.393
-570.661	19.965	0.164	0.133
-569.646	-200.000	0.117	-0.542
-568.631	312.836	-0.068	0.127
-567.617	-200.000	0.019	0.187
-566.602	-38.833	-0.331	0.175
-565.588	-200.000	0.034	0.217
-564.573	217.967	0.189	0.302
-563.558	-114.910	-0.069	-0.013
-562.544	8.367	-0.146	-0.110
-561.529	222.517	0.099	-0.160
-560.515	54.214	0.074	-0.071
-559.500	-83.412	0.385	-0.124
-558.485	-200.000	0.013	-0.081
-557.471	-200.000	-0.047	-0.269
-556.456	200.657	-0.104	-0.160
-555.442	-200.000	-0.022	-0.135
-554.427	-200.000	-0.009	0.065
-553.412	54.943	0.065	-0.063
-552.398	-138.507	-0.210	0.023
-551.383	-100.341	0.120	0.030
-550.369	262.091	0.026	0.046
-549.354	-148.455	-0.111	-0.009
-548.339	255.315	0.131	0.225
-547.325	281.056	0.048	-0.086
-546.310	-15.643	-0.256	0.163
-545.296	-60.349	0.078	0.033
-544.281	50.476	0.220	0.209
-543.266	79.360	-0.046	0.050
-542.252	800.000	-0.087	0.254
-541.237	239.533	0.248	-0.413
-540.223	-69.376	-0.190	0.073
-539.208	496.286	-0.115	0.265
-538.193	503.524	0.128	0.296
-537.179	-46.586	0.116	0.057
-536.164	160.309	0.293	-0.409
-535.150	255.110	-0.164	-0.282
-534.135	0.112	-0.104	0.074
-533.121	14.613	0.183	-0.143
-532.106	800.000	0.085	-0.341
-531.091	44.606	-0.243	0.223
-530.077	349.358	-0.177	-0.351
-529.062	103.559	-0.014	0.016
-528.048	154.811	0.030	-0.041
-527.033	-51.012	-0.316	0.149
-526.018	330.967	-0.149	0.287
-525.004	800.000	0.102	-0.369
-523.989	-90.532	-0.426	0.123
-522.975	122.603	-0.052	0.065
-521.960	-200.000	-0.021	-0.192
-520.945	-52.668	0.400	0.185
-519.931	-52.264	0.011	-0.005
-518.916	400.205	-0.035	-0.072
-517.902	198.422	0.254	0.388
-516.887	126.824	0.200	-0.254
-515.872	360.135	-0.062	0.123
-514.858	-200.000	-0.032	0.172
-513.843	412.394	-0.144	0.306
-512.829	-134.193	-0.210	0.026
-511.814	270.359	0.171	0.302
-510.799	800.000	0.121	0.419
-509.785	-2.938	-0.108	0.075
-508.770	-123.583	-0.095	-0.015
-507.756	-200.000	0.089	0.455
-506.741	84.360	-0.117	0.128
-505.726	-159.555	0.161	-0.009
-504.712	-23.210	-0.116	0.070
-503.697	784.112	0.062	0.170
-502.683	800.000	0.030	0.130
-501.668	724.626	-0.097	-0.260
-500.653	-200.000	-0.004	0.089
-499.639	498.353	0.076	0.174
-498.624	50.497	-0.237	-0.224
-497.610	-45.974	-0.130	-0.064
-496.595	-142.659	-0.336	-0.033
-495.581	-19.497	0.175	-0.108
-494.566	-16.739	-0.050	0.031
-493.551	127.527	0.144	-0.183
-492.537	-129.649	-0.312	0.043
-491.522	11.775	0.128	0.098
-490.508	-72.805	0.100	0.037
-489.493	-49.887	-0.411	-0.195
-488.478	-77.358	-0.127	-0.044
-487.464	789.902	-0.086	-0.237
-486.449	-148.413	-0.511	-0.042
-485.435	-108.152	0.118	0.026
-484.420	-66.543	-0.226	0.090
-483.405	-200.000	0.001	0.071
-482.391	13.359	0.052	0.040
-481.376	-61.956	0.398	-0.166
-480.362	800.000	0.028	-0.094
-479.347	16.215	0.350	0.276
-478.332	384.753	-0.062	-0.128
-477.318	-131.928	0.239	0.031
-476.303	32.027	-0.114	-0.098
-475.289	-118.443	0.111	0.020
-474.274	800.000	-0.090	0.333
-473.259	-58.583	0.366	-0.159
-472.245	-21.058	-0.333	-0.204
-471.230	-128.816	-0.102	0.014
-470.216	-74.583	-0.377	0.135
-469.201	-102.974	-0.202	-0.048
-468.186	-149.217	0.358	0.029
-467.172	36.208	0.129	0.113
-466.157	-200.000	0.006	-0.092
-465.143	-105.656	-0.235	0.053
-464.128	-104.881	-0.430	0.099
-463.113	-91.158	0.037	0.011
-462.099	-200.000	-0.009	0.099
-461.084	800.000	-0.113	-0.366
-460.070	800.000	0.089	0.257
-459.055	-200.000	0.007	0.124
-458.040	40.794	-0.145	0.130
-457.026	178.701	0.115	-0.168
-456.011	-200.000	-0.031	0.189
-454.997	-200.000	-0.022	0.124
-453.982	353.026	-0.068	-0.135
-452.968	561.799	0.089	-0.216
-451.953	8.127	0.184	-0.138
-450.938	-200.000	0.057	-0.503
-449.924	-60.668	0.349	0.148
-448.909	-104.722	0.147	-0.034
-447.895	489.375	0.053	0.120
-446.880	-121.780	0.300	0.049
-445.865	92.942	0.239	0.270
-444.851	-78.087	-0.272	0.093
-443.836	-200.000	-0.023	-0.239
-442.822	62.266	-0.259	-0.258
-441.807	11.587	0.113	0.087
-440.792	317.538	0.224	0.422
-439.778	92.585	0.036	0.040
-438.763	82.096	-0.151	-0.163
-437.749	116.193	0.169	-0.207
-436.734	-56.486	0.076	0.034
-435.719	422.356	-0.107	0.230
-434.705	800.000	0.134	-0.374
-433.690	763.379	-0.067	0.181
-432.676	800.000	0.084	-0.267
-431.661	-118.469	0.459	0.081
-430.646	-200.000	-0.006	-0.088
-429.632	-132.868	-0.153	-0.019
-428.617	-200.000	-0.039	-0.184
-427.603	800.000	-0.018	0.058
-426.588	239.616	-0.054	0.090
-425.573	-56.457	-0.426	-0.189
-424.559	-136.127	-0.066	0.008
-423.544	-55.024	0.191	0.086
-422.530	-200.000	-0.003	0.185
-421.515	-55.533	0.085	0.038
-420.500	-70.452	-0.215	0.081
-419.486	95.276	0.237	0.269
-418.471	800.000	-0.037	0.151
-417.457	-41.795	0.299	-0.153
-416.442	800.000	-0.096	-0.296
-415.428	626.869	0.066	-0.166
-414.413	317.604	-0.119	0.225
-413.398	414.426	-0.087	-0.185
-412.384	-200.000	-0.032	0.231
-411.369	-200.000	0.004	0.121
-410.355	-200.000	-0.079	-0.357
-409.340	191.280	0.135	0.202
-408.325	115.992	0.038	-0.046
-407.311	-16.917	0.223	-0.140
-406.296	68.352	0.071	0.072
-405.282	119.094	0.140	0.172
-404.267	199.280	0.063	-0.097
-403.252	-95.354	0.184	-0.049
-402.238	150.101	0.129	-0.174
-401.223	-26.197	-0.221	0.129
-400.209	-200.000	0.059	0.321
-399.194	-14.214	0.042	0.027
-398.179	-104.813	-0.306	-0.070
-397.165	73.994	-0.027	0.028
-396.150	-200.000	0.034	-0.218
-395.136	481.420	0.057	-0.128
-394.121	-139.185	-0.411	0.044
-393.106	-88.258	-0.291	0.087
-392.092	-66.529	-0.222	-0.088
-391.077	54.082	-0.195	-0.187
-390.063	-69.360	-0.401	-0.153
-389.048	-93.984	-0.207	-0.057
-388.033	-0.669	0.084	-0.059
-387.019	-110.817	0.484	0.099
-386.004	159.879	-0.220	-0.306
-384.990	-200.000	-0.003	-0.456
-383.975	489.571	-0.057	-0.131
-382.960	546.442	-0.134	-0.319
-381.946	-26.099	0.015	-0.008
-380.931	100.721	-0.189	0.219
-379.917	327.160	0.132	0.253
-378.902	701.480	-0.108	0.284
-377.888	-34.468	-0.234	-0.128
-376.873	-127.672	0.299	0.043
-375.858	-92.753	0.170	-0.047
-374.844	62.898	0.078	-0.078
-373.829	-200.000	0.019	0.212
-372.815	-77.220	-0.281	0.097
-371.800	80.843	-0.181	0.194
-370.785	66.183	0.179	0.181
-369.771	285.247	-0.031	0.056
-368.756	800.000	-0.021	0.058
-367.742	-3.109	-0.070	0.049
-366.727	-73.605	-0.125	-0.045
-365.712	-53.482	0.276	0.126
-364.698	148.705	-0.148	-0.199
-363.683	22.132	0.126	0.103
-362.669	54.538	-0.165	0.159
-361.654	-37.029	0.117	0.062
-360.639	95.019	0.091	-0.103
-359.625	-200.000	-0.072	-0.416
-358.610	-200.000	0.008	-0.146
-357.596	-43.809	-0.231	0.116
-356.581	-19.651	-0.210	0.129
-355.566	-81.686	0.314	0.103
-354.552	40.778	-0.323	0.289
-353.537	-53.818	0.139	0.063
-352.523	256.054	-0.102	0.174
-351.508	446.351	-0.075	-0.163
-350.493	-200.000	0.015	0.093
-349.479	-109.821	-0.067	0.014
-348.464	108.341	-0.182	-0.216
-347.450	-23.669	0.501	0.298
-346.435	-200.000	-0.006	0.111
-345.420	247.273	0.073	0.122
-344.406	19.612	-0.125	0.100
-343.391	119.226	-0.278	-0.342
-342.377	-60.709	0.108	0.046
-341.362	800.000	-0.062	-0.193
-340.348	-130.722	-0.342	0.046
-339.333	-104.614	-0.227	0.052
-338.318	-99.840	0.304	0.076
-337.304	46.493	-0.235	0.217
-336.289	-126.964	0.225	-0.033
-335.275	-200.000	-0.020	0.188
-334.260	-114.169	0.386	0.074
-333.245	-85.519	-0.347	-0.107
-332.231	-200.000	0.054	0.252
-331.216	-42.714	0.353	-0.178
-330.202	196.090	-0.023	-0.034
-329.187	519.400	-0.096	-0.224
-328.172	-111.450	0.079	0.016
-327.158	349.697	0.196	0.384
-326.143	-200.000	0.000	0.207
-325.129	-200.000	-0.035	0.207
-324.114	-78.030	0.333	-0.114
-323.099	614.694	0.146	-0.363
-322.085	629.393	-0.133	-0.334
-321.070	-95.442	0.178	-0.048
-320.056	-127.627	0.285	0.041
-319.041	-37.150	-0.192	0.102
-318.026	207.691	-0.100	-0.155
-317.012	-85.884	-0.128	-0.039
-315.997	-200.000	-0.008	-0.204
-314.983	-12.878	0.098	0.064
-313.968	-124.172	0.566	0.088
-312.953	612.445	-0.164	-0.408
-311.939	800.000	-0.014	-0.040
-310.924	-101.617	0.181	0.044
-309.910	-68.897	0.260	-0.100
-308.895	216.860	-0.174	0.275
-307.880	312.644	-0.175	-0.327
-306.866	130.311	-0.171	-0.217
-305.851	171.971	0.036	0.051
-304.837	800.000	-0.056	-0.233
-303.822	-200.000	-0.017	0.319
-302.807	16.247	0.234	0.183
-301.793	477.179	0.054	-0.122
-300.778	-140.685	0.374	0.038
-299.764	800.000	0.052	-0.157
-298.749	448.478	0.047	0.102
-297.735	188.950	0.106	-0.157
-296.720	-200.000	-0.001	-0.011
-295.705	353.548	0.097	0.192
-294.691	26.283	0.301	0.250
-293.676	-74.406	-0.187	-0.067
-292.662	-200.000	-0.000	-0.190
-291.647	-50.519	-0.315	0.148
-290.632	180.585	0.167	0.243
-289.618	-109.539	-0.275	-0.057
-288.603	-15.860	0.185	-0.117
-287.589	12.200	-0.423	-0.323
-286.574	-200.000	-0.006	-0.381
-285.559	-163.812	0.135	-0.006
-284.545	-149.660	-0.188	0.015
-283.530	-200.000	0.046	-0.215
-282.516	-27.744	-0.129	-0.074
-281.501	119.406	0.093	-0.115
-280.486	800.000	-0.072	-0.234
-279.472	41.464	-0.158	-0.142
-278.457	800.000	0.043	0.184
-277.443	544.870	-0.034	-0.081
-276.428	-18.497	-0.278	0.172
-275.413	-170.167	0.318	-0.011
-274.399	136.746	-0.192	0.249
-273.384	800.000	0.039	0.140
-272.370	77.982	0.126	-0.133
-271.355	620.082	0.039	-0.097
-270.340	-72.689	-0.039	-0.014
-269.326	712.712	-0.053	0.139
-268.311	-200.000	-0.008	-0.072
-267.297	-200.000	0.035	-0.460
-266.282	800.000	-0.063	0.215
-265.267	-88.078	-0.325	0.097
-264.253	-124.677	0.188	0.029
-263.238	50.985	-0.134	0.126
-262.224	221.511	0.053	0.084
-261.209	94.382	-0.130	-0.146
-260.195	-200.000	-0.011	0.084
-259.180	30.022	0.062	-0.053
-258.165	229.913	0.112	0.181
-257.151	-107.681	-0.214	0.046
-256.136	-31.195	0.258	-0.144
-255.122	35.198	-0.187	-0.163
-254.107	593.290	0.100	0.244
-253.092	101.836	-0.081	0.094
-252.078	-200.000	0.043	0.214
-251.063	-69.016	-0.276	-0.105
-250.049	800.000	-0.098	0.364
-249.034	-54.989	0.196	0.088
-248.019	-200.000	0.000	0.016
-247.005	-98.049	0.057	-0.015
-245.990	-81.841	0.197	-0.064
-244.976	800.000	0.051	0.179
-243.961	-200.000	-0.009	0.082
-242.946	-28.185	0.092	-0.052
-241.932	32.232	0.212	-0.181
-240.917	36.068	-0.192	-0.168
-239.903	-34.549	0.118	-0.064
-238.888	-54.614	-0.047	0.021
-237.873	-200.000	-0.120	-0.529
-236.859	800.000	-0.073	-0.228
-235.844	25.319	-0.142	0.117
-234.830	-114.935	0.197	0.037
-233.815	29.143	-0.191	0.160
-232.800	-117.032	-0.114	-0.021
-231.786	-200.000	0.045	0.405
-230.771	18.651	-0.231	0.183
-229.757	800.000	0.078	0.227
-228.742	96.190	-0.159	0.180
-227.727	652.298	0.080	0.202
-226.713	-135.053	0.352	0.042
-225.698	800.000	-0.023	-0.076
-224.684	-200.000	-0.047	-0.389
-223.669	800.000	0.026	0.092
-222.655	-109.908	-0.264	-0.055
-221.640	-91.768	-0.055	0.015
-220.625	-14.551	0.419	0.266
-219.611	-200.000	0.011	-0.424
-218.596	-155.258	-0.365	-0.023
-217.582	800.000	-0.055	-0.180
-216.567	-200.000	0.005	0.042
-215.552	-200.000	-0.002	-0.150
-214.538	318.512	0.124	-0.231
-213.523	143.903	0.075	-0.099
-212.509	81.249	-0.133	0.142
-211.494	175.788	0.060	0.086
-210.479	-200.000	-0.004	0.247
-209.465	22.198	-0.079	-0.064
-208.450	-152.457	0.392	-0.028
-207.436	83.587	0.220	-0.237
-206.421	-200.000	0.050	0.454
-205.406	-190.447	-0.196	-0.002
-204.392	463.640	0.022	-0.048
-203.377	-200.000	0.023	-0.136
-202.363	-200.000	-0.001	0.140
-201.348	327.861	-0.080	-0.151
-200.333	85.066	0.199	0.215
-199.319	800.000	-0.027	0.115
-198.304	-1.330	-0.066	-0.046
-197.290	-200.000	0.015	0.191
-196.275	-200.000	-0.012	0.641
-195.260	50.784	-0.084	-0.078
-194.246	388.021	0.112	-0.230
-193.231	-200.000	-0.025	0.302
-192.217	-200.000	-0.005	0.080
-191.202	-98.453	0.319	0.081
-190.187	665.178	0.010	-0.025
-189.173	-21.859	-0.069	0.041
-188.158	-200.000	0.003	0.182
-187.144	800.000	-0.093	0.292
-186.129	-7.879	0.196	0.131
-185.114	-200.000	0.021	-0.142
-184.100	-62.859	0.016	0.007
-183.085	52.648	0.044	-0.041
-182.071	-179.185	-0.090	-0.002
-181.056	-200.000	-0.015	0.260
-180.042	221.415	-0.101	-0.160
-179.027	96.656	0.152	0.172
-178.012	62.830	-0.104	-0.103
-176.998	6.232	-0.158	-0.116
-175.983	697.623	0.092	-0.238
-174.969	126.043	-0.281	-0.351
-173.954	-61.945	0.219	0.090
-172.939	-200.000	-0.052	-0.270
-171.925	65.884	0.124	-0.124
-170.910	-170.491	-0.185	0.006
-169.896	-151.773	0.243	0.018
-168.881	87.466	0.113	-0.123
-167.866	-200.000	-0.024	0.155
-166.852	-125.301	0.117	0.018
-165.837	75.216	0.088	0.092
-164.823	-32.334	-0.210	-0.116
-163.808	-200.000	0.047	0.305
-162.793	287.810	-0.042	-0.076
-161.779	-47.534	0.263	-0.126
-160.764	-114.694	-0.062	-0.012
-159.750	-200.000	-0.015	-0.322
-158.735	-44.807	0.250	-0.123
-157.720	-28.182	0.270	-0.154
-156.706	244.335	-0.133	0.221
-155.691	-98.345	0.044	0.011
-154.677	49.312	0.072	0.067
-153.662	-200.000	-0.050	0.348
-152.647	75.509	0.100	0.104
-151.633	-200.000	-0.011	0.143
-150.618	-126.732	-0.207	0.030
-149.604	209.945	-0.074	0.115
-148.589	688.994	0.033	0.085
-147.574	43.232	-0.069	-0.062
-146.560	-59.232	-0.026	-0.011
-145.545	53.393	-0.123	0.116
-144.531	-148.115	-0.178	-0.015
-143.516	-133.111	0.293	0.037
-142.502	-70.586	-0.494	0.184
-141.487	14.584	-0.295	0.227
-140.472	-28.985	-0.266	0.151
-139.458	800.000	0.126	0.478
-138.443	108.194	0.183	0.215
-137.429	-78.995	-0.154	0.052
-136.414	68.412	-0.250	-0.253
-135.399	701.343	0.034	-0.088
-134.385	-78.553	-0.016	-0.006
-133.370	180.616	-0.060	-0.086
-132.356	37.149	0.390	0.340
-131.341	0.065	0.121	0.085
-130.326	-200.000	0.032	0.164
-129.312	-121.483	0.522	0.086
-128.297	776.573	-0.123	-0.332
-127.283	-41.751	0.255	-0.129
-126.268	485.334	0.153	0.343
-125.253	-170.851	-0.067	-0.002
-124.239	89.634	-0.229	0.251
-123.224	800.000	-0.053	0.193
-122.210	800.000	-0.078	0.330
-121.195	-200.000	-0.009	0.096
-120.180	7.401	-0.334	0.246
-119.166	123.920	0.184	-0.227
-118.151	-62.624	-0.089	-0.036
-117.137	-28.242	0.003	-0.002
-116.122	-200.000	-0.002	-0.147
-115.107	-200.000	0.038	-0.253
-114.093	22.363	0.133	0.107
-113.078	297.517	-0.115	0.208
-112.064	800.000	-0.041	0.127
-111.049	64.562	0.129	-0.128
-110.034	800.000	-0.117	0.436
-109.020	-200.000	0.010	-0.074
-108.005	-132.024	0.418	-0.054
-106.991	-73.492	-0.250	-0.090
-105.976	-16.610	0.128	-0.080
-104.962	800.000	0.012	-0.045
-103.947	-200.000	-0.013	-0.180
-102.932	-165.427	0.328	-0.014
-101.918	167.849	-0.269	0.377
-100.903	196.221	-0.037	0.056
-99.889	154.839	0.163	-0.221
-98.874	-200.000	0.052	0.283
-97.859	-200.000	-0.059	0.366
-96.845	-71.115	-0.119	0.044
-95.830	41.956	0.081	-0.073
-94.816	-200.000	0.025	-0.171
-93.801	9.129	0.165	-0.123
-92.786	-200.000	-0.043	-0.193
-91.772	-46.112	0.015	0.007
-90.757	98.996	0.135	0.153
-89.743	-32.906	0.332	0.182
-88.728	301.828	0.096	-0.174
-87.713	-200.000	-0.002	0.048
-86.699	-74.687	0.347	0.123
-85.684	518.538	-0.056	0.130
-84.670	-200.000	-0.058	0.253
-83.655	800.000	-0.030	0.087
-82.640	-200.000	0.127	-0.000
-81.626	21.387	0.086	-0.069
-80.611	680.601	0.047	0.121
-79.597	361.770	-0.052	-0.102
-78.582	53.101	-0.145	0.137
-77.567	-129.839	-0.057	-0.008
-76.553	-41.091	0.233	0.118
-75.538	53.397	-0.078	-0.074
-74.524	-160.063	-0.278	-0.015
-73.509	-200.000	0.012	-0.286
-72.494	-42.443	-0.139	-0.070
-71.480	800.000	0.054	-0.184
-70.465	-200.000	0.017	-0.120
-69.451	-153.204	-0.201	-0.014
-68.436	-8.812	-0.070	-0.046
-67.422	110.565	-0.119	0.140
-66.407	-88.857	0.160	0.047
-65.392	250.786	0.100	-0.168
-64.378	-81.338	-0.176	0.057
-63.363	-34.698	0.283	-0.152
-62.349	122.977	-0.186	0.229
-61.334	208.150	-0.579	-0.889
-60.319	14.261	0.522	0.400
-59.305	800.000	-0.316	-1.193
-58.290	109.745	0.874	1.030
-57.276	800.000	0.566	1.811
-56.261	-200.000	105.010	568.417
-55.246	448.104	1463.362	3167.440
-54.232	147.468	2656.147	3515.842
-53.217	105.182	2190.357	2541.026
-52.203	39.936	1715.636	1514.247
-51.188	32.789	1526.298	1298.118
-50.173	30.385	1499.200	1258.746
-49.159	50.834	1553.274	1445.844
-48.144	51.012	1570.651	1463.188
-47.130	32.917	1527.739	1300.016
-46.115	29.908	1512.861	1266.750
-45.100	29.789	1509.153	1262.783
-44.086	29.681	1507.223	1260.376
-43.071	29.708	1504.809	1258.493
-42.057	29.470	1504.040	1256.184
-41.042	29.633	1502.024	1255.559
-40.027	29.613	1500.781	1254.332
-39.013	29.626	1498.742	1252.666
-37.998	29.545	1497.515	1251.038
-36.984	29.567	1496.601	1250.380
-35.969	29.556	1495.470	1249.311
-34.954	29.614	1493.567	1248.064
-33.940	29.546	1492.822	1246.932
-32.925	29.588	1491.311	1245.904
-31.911	29.647	1489.942	1245.103
-30.896	29.728	1488.262	1244.198
-29.881	29.696	1487.202	1243.047
-28.867	29.660	1486.273	1241.980
-27.852	29.703	1484.985	1241.140
-26.838	29.654	1483.031	1239.133
-25.823	29.729	1481.400	1238.222
-24.809	29.666	1479.922	1236.519
-23.794	29.704	1478.773	1235.759
-22.779	29.657	1477.428	1234.273
-21.765	29.735	1476.156	1233.680
-20.750	29.669	1475.430	1232.587
-19.736	29.699	1474.070	1231.603
-18.721	29.686	1472.606	1230.242
-17.706	29.659	1471.602	1229.177
-16.692	29.644	1470.524	1228.128
-15.677	29.660	1469.296	1227.158
-14.663	29.669	1468.521	1226.524
-13.648	29.572	1467.946	1225.351
-12.633	29.606	1466.752	1224.529
-11.619	29.510	1466.239	1223.417
-10.604	29.589	1465.224	1223.041
-9.590	29.549	1464.220	1221.895
-8.575	29.629	1463.255	1221.569
-7.560	29.576	1462.348	1220.414
-6.546	29.574	1461.462	1219.615
-5.531	29.577	1460.846	1219.068
-4.517	29.499	1459.884	1217.704
-3.502	29.549	1458.777	1217.061
-2.487	29.600	1457.446	1216.239
-1.473	29.581	1456.289	1215.099
-0.458	29.610	1454.940	1214.118
0.556	27.870	1445.813	1203.765
1.571	25.096	1419.987	1164.174
2.586	21.755	1357.509	1092.075
3.600	20.141	1274.424	1015.695
4.615	18.822	1230.227	972.917
5.629	16.503	1174.110	915.907
6.644	8.202	1088.589	807.268
7.659	1.413	1047.827	743.815
8.673	0.295	1042.029	734.190
9.688	0.194	1038.628	731.238
10.702	0.095	1037.513	729.906
11.717	0.096	1035.592	728.496
12.731	2.770	1038.213	743.243
13.746	11.133	1049.564	792.120
14.761	17.058	1056.465	826.182
15.775	17.406	1055.797	827.278
16.790	16.445	1054.371	821.421
17.804	15.538	1051.284	814.547
18.819	14.673	1049.651	809.018
19.834	14.159	1048.667	805.701
20.848	13.811	1047.807	803.285
21.863	13.561	1046.967	801.358
22.877	13.417	1046.311	800.088
23.892	13.231	1044.934	798.067
24.907	13.118	1044.617	797.207
25.921	13.148	1043.297	796.274
26.936	13.075	1042.976	795.609
27.950	13.153	1042.292	795.394
28.965	13.216	1041.515	795.034
29.980	13.300	1040.269	794.414
30.994	13.233	1039.740	793.619
32.009	13.389	1038.436	793.302
33.023	13.385	1038.357	793.153
34.038	13.390	1037.187	792.210
35.053	13.302	1036.492	791.186
36.067	13.344	1035.336	790.438
37.082	13.214	1035.256	789.684
38.096	13.234	1034.297	788.977
39.111	13.239	1033.467	788.302
40.126	13.328	1032.305	787.770
41.140	13.353	1031.493	787.196
42.155	13.144	1030.071	785.051
43.169	13.164	1029.355	784.531
44.184	13.155	1028.422	783.705
45.199	13.026	1027.444	782.281
46.213	13.100	1026.290	781.682
47.228	13.234	1025.678	781.783
48.242	13.153	1024.787	780.651
49.257	13.204	1023.823	780.087
50.271	13.219	1022.582	779.145
51.286	13.248	1021.687	778.529
52.301	13.226	1021.279	778.046
53.315	13.246	1019.937	777.046
54.330	13.222	1019.167	776.282
55.344	13.222	1018.493	775.700
56.359	13.228	1017.286	774.740
57.374	13.256	1016.404	774.129
58.388	13.173	1015.694	773.130
59.403	13.092	1015.260	772.354
60.417	13.069	1014.446	771.559
61.432	13.084	1013.819	771.085
62.447	13.102	1013.072	770.530
63.461	13.008	1012.101	769.285
64.476	12.958	1010.985	768.140
65.490	12.937	1010.385	767.515
66.505	13.003	1009.488	767.074
67.520	13.133	1009.065	767.290
68.534	13.120	1007.812	766.206
69.549	13.108	1007.467	765.823
70.563	13.188	1006.283	765.223
71.578	13.007	1006.172	764.236
72.593	13.113	1004.622	763.480
73.607	13.096	1003.641	762.590
74.622	12.999	1003.331	761.835
75.636	12.909	1001.898	760.265
76.651	12.954	1001.544	760.139
77.666	13.007	1000.824	759.768
78.680	13.001	999.849	758.934
79.695	12.960	999.781	758.627
80.709	13.089	998.831	758.430
81.724	12.976	998.182	757.352
82.739	13.056	996.991	756.748
83.753	13.126	996.503	756.630
84.768	13.063	995.946	755.854
85.782	13.305	995.043	756.208
86.797	13.217	994.477	755.308
87.812	13.334	993.224	754.826
88.826	13.224	992.718	753.871
89.841	13.198	991.661	752.882
90.855	13.319	990.871	752.769
91.870	13.345	990.312	752.395
92.884	13.289	989.502	751.460
93.899	13.299	989.137	751.160
94.914	13.312	987.740	750.094
95.928	13.371	987.223	749.902
96.943	13.331	987.109	749.565
97.957	13.348	985.951	748.698
98.972	13.395	985.016	748.132
99.987	13.300	984.288	747.083
101.001	13.231	984.037	746.518
102.016	13.291	982.782	745.770
103.030	13.316	982.069	745.274
104.045	13.356	980.884	744.490
105.060	13.190	980.322	743.253
106.074	13.343	979.135	742.975
107.089	13.424	978.141	742.514
108.103	13.095	977.933	740.816
109.118	13.204	976.497	740.153
110.133	13.085	976.038	739.205
111.147	13.207	975.105	738.979
112.162	13.225	973.775	737.986
113.176	13.158	973.222	737.202
114.191	13.228	972.362	736.797
115.206	13.217	971.355	735.920
116.220	13.235	970.758	735.482
117.235	13.197	969.762	734.496
118.249	13.177	969.064	733.813
119.264	13.216	967.893	733.033
120.279	13.165	966.906	731.997
121.293	13.069	966.814	731.436
122.308	13.283	965.707	731.480
123.322	13.247	964.713	730.503
124.337	13.255	963.718	729.721
125.352	13.176	962.725	728.555
126.366	13.039	961.774	727.170
127.381	13.066	960.871	726.542
128.395	13.076	959.811	725.718
129.410	13.188	958.729	725.327
130.424	13.146	957.696	724.298
131.439	13.256	956.867	724.088
132.454	13.226	956.099	723.312
133.468	13.269	955.700	723.133
134.483	13.247	955.015	722.455
135.497	13.329	953.959	721.952
136.512	13.229	953.140	720.833
137.527	13.249	952.191	720.135
138.541	13.258	951.528	719.610
139.556	13.170	950.680	718.525
140.570	13.090	950.463	717.947
141.585	13.289	949.124	717.739
142.600	13.279	948.769	717.363
143.614	13.488	947.712	717.405
144.629	13.421	947.062	716.558
145.643	13.531	946.286	716.386
146.658	13.375	945.886	715.343
147.673	13.334	944.515	714.065
148.687	13.324	943.647	713.306
149.702	13.379	942.825	712.857
150.716	13.208	942.506	711.814
151.731	13.348	941.126	711.312
152.746	13.428	940.400	711.045
153.760	13.286	939.822	709.936
154.775	13.261	939.329	709.392
155.789	13.438	938.295	709.306
156.804	13.350	937.669	708.397
157.819	13.442	936.888	708.137
158.833	13.336	936.158	707.067
159.848	13.442	935.761	707.160
160.862	13.545	934.707	706.741
161.877	13.461	933.923	705.727
162.892	13.320	933.118	704.456
163.906	13.428	932.481	704.371
164.921	13.486	931.385	703.727
165.935	13.459	930.216	702.669
166.950	13.485	929.288	702.013
167.964	13.567	928.536	701.733
168.979	13.515	927.440	700.619
169.994	13.626	926.135	700.044
171.008	13.516	926.170	699.541
172.023	13.543	925.428	699.034
173.037	13.491	924.612	698.137
174.052	13.594	924.049	698.082
175.067	13.474	923.281	696.936
176.081	13.573	922.156	696.440
177.096	13.459	921.377	695.311
178.110	13.401	920.580	694.407
179.125	13.285	919.981	693.406
180.140	13.667	918.779	694.038
181.154	13.602	918.403	693.422
182.169	13.502	918.335	692.892
183.183	13.667	917.215	692.673
184.198	13.906	916.274	692.897
185.213	13.744	915.867	691.853
186.227	13.818	915.080	691.507
187.242	13.689	914.979	690.830
188.256	13.726	914.340	690.442
189.271	13.822	913.364	690.042
190.286	13.856	912.522	689.490
191.300	13.829	911.635	688.643
192.315	13.532	911.454	687.217
193.329	13.636	910.421	686.807
194.344	13.577	909.794	686.028
195.359	13.807	909.012	686.330
196.373	13.798	908.677	685.976
197.388	13.820	908.411	685.808
198.402	13.793	907.980	685.310
199.417	13.785	907.533	684.877
200.432	13.900	906.685	684.652
201.446	13.866	906.360	684.206
202.461	13.978	906.020	684.350
203.475	14.088	905.521	684.364
204.490	14.148	904.560	683.826
205.504	13.981	903.729	682.449
206.519	14.088	902.860	682.173
207.534	13.928	902.370	681.086
208.548	13.896	901.405	680.169
209.563	13.975	901.024	680.145
210.577	13.901	900.403	679.313
211.592	13.974	899.245	678.674
212.607	14.122	898.931	678.983
213.621	14.153	898.536	678.752
214.636	14.045	897.911	677.777
215.650	14.166	897.135	677.624
216.665	14.260	896.452	677.433
217.680	14.051	896.208	676.339
218.694	14.154	895.600	676.237
219.709	14.095	895.198	675.636
220.723	14.205	894.279	675.327
221.738	14.219	893.797	674.961
222.753	14.262	892.677	674.229
223.767	14.292	892.047	673.815
224.782	14.292	891.156	673.085
225.796	14.246	890.842	672.598
226.811	14.226	890.400	672.126
227.826	14.287	889.491	671.626
228.840	14.275	888.798	670.995
229.855	14.227	888.571	670.569
230.869	14.265	887.534	669.880
231.884	14.262	886.786	669.245
232.899	14.233	886.404	668.783
233.913	14.431	885.191	668.600
234.928	14.412	884.187	667.709
235.942	14.293	883.852	666.921
236.957	14.257	883.285	666.287
237.972	14.191	882.779	665.586
238.986	14.291	881.867	665.239
240.001	14.306	881.487	664.953
241.015	14.359	880.687	664.501
242.030	14.324	880.042	663.817
243.045	14.359	879.552	663.528
244.059	14.388	878.972	663.147
245.074	14.407	878.260	662.625
246.088	14.477	877.539	662.300
247.103	14.612	876.612	662.078
248.117	14.575	876.347	661.672
249.132	14.433	876.354	661.058
250.147	14.643	875.200	660.959
251.161	14.736	874.801	660.968
252.176	14.672	874.517	660.441
253.190	14.803	873.419	660.071
254.205	14.706	872.951	659.277
255.220	14.774	872.521	659.162
256.234	14.953	871.487	659.028
257.249	14.876	870.924	658.240
258.263	14.854	870.756	657.969
259.278	14.734	870.124	656.962
260.293	14.822	869.405	656.707
261.307	14.967	868.948	656.872
262.322	14.834	868.289	655.793
263.336	14.932	867.635	655.624
264.351	14.977	867.247	655.451
265.366	15.017	866.550	655.023
266.380	14.991	865.914	654.381
267.395	14.873	865.823	653.796
268.409	15.043	864.718	653.566
269.424	15.050	863.695	652.761
270.439	15.012	863.169	652.158
271.453	15.163	861.717	651.593
272.468	15.107	861.287	650.993
273.482	15.029	860.992	650.408
274.497	14.981	860.401	649.715
275.512	15.046	859.826	649.477
276.526	14.975	859.384	648.812
277.541	15.077	858.340	648.359
278.555	15.025	858.025	647.863
279.570	15.205	857.466	648.081
280.585	15.157	856.869	647.387
281.599	15.132	856.384	646.865
282.614	15.218	855.590	646.541
283.628	15.084	855.293	645.741
284.643	15.226	854.274	645.462
285.657	15.222	854.085	645.248
286.672	15.093	853.551	644.289
287.687	15.303	852.895	644.546
288.701	15.282	852.729	644.283
289.716	15.214	852.177	643.547
290.730	15.272	851.350	643.087
291.745	15.143	850.944	642.232
292.760	15.273	849.846	641.843
293.774	15.402	849.145	641.748
294.789	15.417	848.785	641.479
295.803	15.416	848.091	640.893
296.818	15.413	847.554	640.418
297.833	15.300	846.788	639.354
298.847	15.291	846.241	638.848
299.862	15.378	845.389	638.480
300.876	15.287	845.438	638.116
301.891	15.461	844.229	637.808
302.906	15.414	843.740	637.203
303.920	15.668	842.696	637.320
304.935	15.613	842.209	636.689
305.949	15.607	841.700	636.225
306.964	15.587	841.135	635.664
307.979	15.627	840.531	635.305
308.993	15.599	840.083	634.803
310.008	15.653	839.468	634.487
311.022	15.626	839.204	634.129
312.037	15.710	838.769	634.060
313.052	15.593	838.107	633.064
314.066	15.597	837.518	632.578
315.081	15.597	836.918	632.069
316.095	15.590	836.768	631.871
317.110	15.576	835.830	631.055
318.125	15.595	834.843	630.326
319.139	15.623	834.588	630.183
320.154	15.753	833.897	630.091
321.168	15.757	833.535	629.776
322.183	15.704	833.213	629.279
323.197	15.676	832.636	628.685
324.212	15.790	831.728	628.369
325.227	15.771	831.333	627.945
326.241	15.725	831.370	627.742
327.256	15.742	830.406	627.023
328.270	15.829	829.638	626.713
329.285	15.718	829.302	625.990
330.300	15.709	828.732	625.473
331.314	15.816	828.026	625.279
332.329	15.668	827.839	624.533
333.343	15.852	826.915	624.464
334.358	15.736	826.652	623.780
335.373	15.990	825.776	624.006
336.387	15.932	825.417	623.462
337.402	16.005	824.491	622.979
338.416	15.976	824.103	622.523
339.431	16.008	823.820	622.374
340.446	15.961	823.099	621.600
341.460	16.029	822.753	621.534
342.475	16.069	822.278	621.270
343.489	16.205	821.540	621.157
344.504	16.083	821.135	620.348
345.519	16.147	820.624	620.143
346.533	16.210	819.917	619.783
347.548	16.222	819.645	619.568
348.562	16.224	818.884	618.944
349.577	16.095	818.519	618.140
350.592	15.994	818.025	617.344
351.606	15.973	817.580	616.876
352.621	16.140	816.701	616.769
353.635	16.116	816.406	616.404
354.650	16.205	815.823	616.232
355.665	16.282	815.500	616.215
356.679	16.285	815.125	615.890
357.694	16.173	814.620	615.046
358.708	16.276	814.085	614.960
359.723	16.173	813.764	614.290
360.738	16.286	813.221	614.235
361.752	16.286	812.662	613.759
362.767	16.335	812.133	613.485
363.781	16.400	811.781	613.401
364.796	16.454	811.449	613.289
365.810	16.496	810.925	612.994
366.825	16.525	810.274	612.551
367.840	16.548	810.320	612.616
368.854	16.604	809.814	612.380
369.869	16.600	809.225	611.867
370.883	16.543	808.404	610.987
371.898	16.620	807.772	610.731
372.913	16.323	807.572	609.454
373.927	16.658	806.793	610.022
374.942	16.544	806.212	609.117
375.956	16.542	805.609	608.601
376.971	16.723	804.879	608.648
377.986	16.607	804.814	608.126
379.000	16.729	803.969	607.873
380.015	16.777	803.548	607.670
381.029	16.695	803.452	607.252
382.044	16.872	802.259	606.928
383.059	16.790	802.083	606.448
384.073	16.787	801.249	605.754
385.088	16.927	800.520	605.651
386.102	16.855	800.296	605.171
387.117	16.858	799.587	604.591
388.132	16.665	799.800	604.010
389.146	16.682	799.329	603.660
390.161	16.874	798.598	603.739
391.175	16.949	798.260	603.698
392.190	17.005	797.667	603.393
393.205	16.783	797.453	602.390
394.219	16.904	796.726	602.217
395.234	16.898	796.325	601.840
396.248	16.732	796.277	601.162
397.263	16.914	795.308	601.022
398.278	16.873	795.000	600.589
399.292	16.846	794.932	600.389
400.307	16.847	794.174	599.769
401.321	16.794	793.733	599.194
402.336	16.767	793.686	599.012
403.350	16.950	792.796	598.931
404.365	16.989	792.225	598.586
405.380	16.992	792.301	598.599
406.394	16.830	791.831	597.620
407.409	17.128	791.019	598.004
408.423	17.190	790.911	598.088
409.438	17.084	790.496	597.350
410.453	17.163	789.886	597.114
411.467	17.102	789.718	596.717
412.482	17.278	789.034	596.766
413.496	17.209	788.294	595.911
414.511	17.191	788.338	595.831
415.526	17.258	787.947	595.717
416.540	17.333	786.974	595.190
417.555	17.355	786.883	595.147
418.569	17.120	786.745	594.168
419.584	17.273	785.689	593.849
420.599	17.268	785.659	593.759
421.613	108.931	1289.307	1467.965
422.628	93.357	1362.679	1468.071
