DTS Sentinel unit serial number:	SN413079Multiplexer serial number:	ORYXHardware model number:	OX4-SRSoftware version number:	ORYX F/W v4.00 Oryx Data Collector v3.7.2.0data status	okinstallation	princeton_trtdifferential loss correction	single-endedforward channel	channel 3reverse channel	N/Adate	2019/09/12time	19:34:03forward acquisition time	15.00reverse acquisition time	0.00gamma	496.2192k internal	0.2322k external	0.2322temperature offset calibration	1.0119default loss term (dB/km)	0.3790temperature slope calibration	1.0000multiplexer offset coefficient	1.0000multiplexer slope coefficient	1.0000fibre end	0.00T internal ref (°C)	32.19T ext. ref 1 (°C)	3.31T ext. ref 2 (°C)	26.78length (m)	temperature (°C)	Stokes	anti-Stokes-747.200	800.000	-0.177	-0.496
-746.185	182.437	0.448	-0.668
-745.171	169.058	0.341	0.492
-744.156	493.064	0.175	0.406
-743.142	800.000	-0.414	-1.224
-742.127	-27.820	0.307	0.180
-741.112	-123.923	1.096	-0.174
-740.098	309.053	0.323	-0.611
-739.083	-200.000	0.020	-0.155
-738.069	800.000	-0.003	-0.010
-737.054	228.615	-0.321	0.528
-736.039	800.000	0.260	-0.801
-735.025	12.252	-0.457	-0.356
-734.010	-180.051	0.587	-0.013
-732.996	-200.000	-0.039	0.390
-731.981	77.329	-0.152	-0.164
-730.966	-89.083	-0.465	0.139
-729.952	208.883	-0.414	-0.654
-728.937	182.553	-0.299	-0.445
-727.923	-149.449	-0.764	0.061
-726.908	-145.345	-0.682	0.062
-725.894	-56.367	0.999	0.448
-724.879	800.000	-0.162	-0.509
-723.864	48.620	-0.618	-0.585
-722.850	-113.456	0.384	0.076
-721.835	1.671	-0.539	0.392
-720.821	-151.263	-0.132	-0.010
-719.806	150.691	-0.406	0.557
-718.791	34.768	1.046	-0.924
-717.777	400.048	0.298	0.631
-716.762	-200.000	-0.020	0.092
-715.748	-200.000	0.042	-0.208
-714.733	2.914	0.229	-0.168
-713.718	81.121	-0.671	-0.731
-712.704	-153.128	0.551	0.039
-711.689	-28.632	0.546	0.317
-710.675	-104.316	1.473	0.345
-709.660	-127.750	0.619	0.090
-708.645	-154.219	-0.917	-0.062
-707.631	205.767	-0.046	-0.072
-706.616	516.241	-0.177	0.418
-705.602	34.695	-0.042	0.037
-704.587	-105.155	0.708	0.163
-703.572	-200.000	-0.002	0.419
-702.558	-34.769	-0.411	0.226
-701.543	225.284	0.175	0.286
-700.529	-39.725	0.380	0.201
-699.514	-30.265	-0.697	-0.399
-698.499	-18.443	0.027	-0.017
-697.485	39.949	-0.602	-0.545
-696.470	-6.153	-0.544	-0.375
-695.456	-71.788	-1.070	-0.402
-694.441	176.297	0.418	-0.612
-693.426	75.287	-0.051	0.055
-692.412	-200.000	-0.017	0.814
-691.397	11.370	-0.335	0.259
-690.383	171.462	0.335	0.486
-689.368	-65.985	0.223	0.090
-688.354	470.588	0.191	0.432
-687.339	-109.285	-0.967	-0.207
-686.324	-56.799	0.106	-0.047
-685.310	-200.000	-0.139	-0.880
-684.295	-162.675	-0.629	0.031
-683.281	-191.448	-0.414	0.004
-682.266	68.480	0.132	-0.136
-681.251	116.213	-0.194	0.240
-680.237	-145.860	0.800	-0.072
-679.222	-154.872	-1.137	0.076
-678.208	-128.070	-0.532	0.077
-677.193	-200.000	-0.014	0.369
-676.178	33.728	0.118	-0.104
-675.164	-200.000	-0.035	0.406
-674.149	-108.274	0.639	0.139
-673.135	138.956	-0.174	-0.231
-672.120	-22.183	-0.415	0.254
-671.105	-160.425	0.321	-0.017
-670.091	81.016	0.154	0.167
-669.076	302.115	-0.357	-0.666
-668.062	-77.386	-0.567	0.199
-667.047	212.839	-0.356	-0.566
-666.032	800.000	-0.110	-0.402
-665.018	-117.949	0.121	0.022
-664.003	-200.000	0.159	-0.780
-662.989	-200.000	-0.067	0.450
-661.974	24.665	-0.194	0.161
-660.959	-160.808	0.489	-0.026
-659.945	-8.716	-0.355	-0.240
-658.930	-85.511	0.342	0.107
-657.916	19.400	0.106	-0.086
-656.901	512.538	0.169	0.397
-655.886	-14.351	0.245	0.159
-654.872	-200.000	0.012	-0.847
-653.857	-115.633	0.402	-0.076
-652.843	-54.713	0.103	-0.047
-651.828	-200.000	-0.020	-0.244
-650.814	-200.000	-0.074	0.418
-649.799	-91.229	-0.465	-0.134
-648.784	207.553	-0.164	-0.257
-647.770	651.880	-0.283	0.729
-646.755	-200.000	-0.004	-0.110
-645.741	200.527	0.255	0.395
-644.726	398.097	-0.309	0.650
-643.711	-200.000	0.111	0.540
-642.697	18.460	-0.272	0.219
-641.682	-200.000	-0.054	0.636
-640.668	-93.336	-0.362	-0.101
-639.653	-35.646	0.367	-0.200
-638.638	-74.437	-0.363	-0.132
-637.624	317.493	0.555	-1.056
-636.609	-119.914	0.268	-0.046
-635.595	-77.934	0.449	-0.156
-634.580	-16.738	-0.215	0.137
-633.565	-200.000	0.082	-0.585
-632.551	264.927	0.427	-0.748
-631.536	-200.000	0.065	0.378
-630.522	-200.000	-0.016	-0.292
-629.507	381.602	-0.088	0.181
-628.492	-12.898	0.276	-0.180
-627.478	-200.000	0.018	0.529
-626.463	-77.762	-0.289	0.100
-625.449	100.400	-0.138	0.161
-624.434	-200.000	-0.153	0.816
-623.419	685.596	0.082	-0.215
-622.405	-162.713	-0.542	-0.027
-621.390	-200.000	0.011	0.386
-620.376	-104.391	0.420	-0.098
-619.361	27.125	-0.679	0.573
-618.346	-68.098	-0.470	0.184
-617.332	108.147	-0.239	-0.287
-616.317	-103.833	0.108	-0.025
-615.303	-113.196	0.788	0.156
-614.288	-151.224	0.406	-0.031
-613.273	-60.063	-0.809	-0.347
-612.259	-200.000	0.096	-0.965
-611.244	-70.373	0.291	0.111
-610.230	800.000	-0.106	0.346
-609.215	-116.949	-0.615	-0.113
-608.201	-46.154	-0.263	-0.130
-607.186	-200.000	-0.162	0.747
-606.171	-200.000	-0.089	-0.438
-605.157	-148.959	-0.855	-0.069
-604.142	800.000	0.127	0.553
-603.128	-198.789	-1.026	-0.006
-602.113	218.050	0.619	-0.992
-601.098	-76.488	0.477	0.168
-600.084	249.501	-0.331	-0.564
-599.069	-33.646	-0.767	-0.425
-598.055	-42.612	-0.285	0.146
-597.040	-200.000	0.021	0.987
-596.025	710.155	-0.209	0.555
-595.011	-46.427	0.885	0.437
-593.996	31.018	0.108	0.093
-592.982	164.043	-0.195	-0.276
-591.967	63.481	-0.118	0.119
-590.952	-49.476	0.372	-0.178
-589.938	800.000	0.166	0.675
-588.923	-200.000	0.008	0.312
-587.909	227.480	0.490	-0.801
-586.894	118.598	-0.436	0.540
-585.879	100.624	-0.207	0.241
-584.865	-44.885	-0.489	-0.245
-583.850	-168.080	-0.290	0.011
-582.836	11.269	0.449	-0.345
-581.821	-166.811	-1.509	-0.062
-580.806	619.103	0.114	-0.287
-579.792	775.326	0.167	-0.457
-578.777	800.000	-0.066	0.227
-577.763	-200.000	-0.079	-0.548
-576.748	537.465	0.109	0.260
-575.733	64.763	0.290	-0.294
-574.719	-121.419	-0.578	0.097
-573.704	-51.414	0.778	0.365
-572.690	-97.210	0.214	-0.056
-571.675	650.415	0.378	0.972
-570.661	-141.202	-1.033	-0.106
-569.646	-81.439	-0.913	0.302
-568.631	-200.000	-0.045	0.202
-567.617	57.491	-0.286	-0.281
-566.602	-105.361	-0.539	0.123
-565.588	163.403	0.129	-0.182
-564.573	460.371	-0.206	-0.460
-563.558	64.924	0.531	-0.538
-562.544	-200.000	0.103	-0.786
-561.529	239.291	-0.307	-0.513
-560.515	-66.583	-0.701	-0.279
-559.500	-32.683	0.984	0.549
-558.485	-107.091	0.270	0.060
-557.471	-76.247	-0.984	0.348
-556.456	800.000	0.081	0.234
-555.442	-200.000	0.039	0.202
-554.427	166.548	0.066	0.093
-553.412	-200.000	-0.260	-1.298
-552.398	458.525	0.108	-0.241
-551.383	-200.000	-0.025	0.292
-550.369	-200.000	0.010	-0.357
-549.354	-38.232	-0.439	-0.234
-548.339	-132.089	1.196	0.156
-547.325	-144.832	0.253	-0.023
-546.310	270.923	0.122	0.216
-545.296	60.036	0.491	-0.486
-544.281	-200.000	-0.073	-0.735
-543.266	164.328	0.200	0.283
-542.252	21.589	0.637	-0.520
-541.237	145.852	0.050	-0.067
-540.223	-76.500	0.892	-0.314
-539.208	800.000	-0.230	0.938
-538.193	101.121	-0.375	-0.437
-537.179	800.000	-0.296	1.116
-536.164	800.000	-0.076	-0.272
-535.150	-200.000	0.030	-0.646
-534.135	250.630	-0.268	-0.457
-533.121	67.606	0.485	0.497
-532.106	59.691	-0.246	0.243
-531.091	-60.886	-1.362	-0.578
-530.077	312.428	0.172	-0.324
-529.062	64.163	0.523	-0.528
-528.048	800.000	0.070	-0.228
-527.033	86.531	0.465	-0.514
-526.018	-97.805	-0.214	-0.055
-525.004	-200.000	0.026	0.812
-523.989	149.694	0.611	0.830
-522.975	165.957	-0.363	0.514
-521.960	-113.955	0.366	-0.071
-520.945	-139.792	-0.092	-0.010
-519.931	-109.906	0.756	-0.159
-518.916	800.000	-0.215	0.696
-517.902	-65.477	-0.615	0.248
-516.887	-200.000	0.098	-0.454
-515.872	228.347	0.334	0.545
-514.858	-60.458	0.789	-0.336
-513.843	75.981	0.277	-0.294
-512.829	238.586	-0.189	-0.315
-511.814	-147.301	-0.546	0.046
-510.799	-18.154	0.644	-0.403
-509.785	800.000	-0.092	0.349
-508.770	-42.207	-0.234	0.120
-507.756	-26.756	-0.104	0.061
-506.741	43.341	-0.521	-0.476
-505.726	-117.241	0.301	-0.055
-504.712	-122.820	-0.464	-0.075
-503.697	330.037	-0.227	-0.438
-502.683	-175.446	0.147	-0.004
-501.668	-34.464	-0.615	-0.337
-500.653	800.000	-0.146	0.563
-499.639	-89.021	-1.197	-0.354
-498.624	-66.759	-0.345	0.137
-497.610	-200.000	-0.101	-0.582
-496.595	-200.000	-0.065	-0.813
-495.581	-67.913	0.593	0.232
-494.566	226.925	-0.360	0.585
-493.551	-17.922	-0.139	-0.087
-492.537	-200.000	0.059	-0.357
-491.522	-126.465	-0.352	0.052
-490.508	184.449	0.266	0.395
-489.493	731.622	-0.114	0.306
-488.478	-155.526	0.640	-0.041
-487.464	-32.246	-0.462	0.258
-486.449	-146.144	0.192	0.017
-485.435	329.105	0.246	0.473
-484.420	217.988	-0.210	-0.334
-483.405	7.429	-0.517	-0.387
-482.391	800.000	-0.236	-0.718
-481.376	81.511	-0.698	-0.755
-480.362	-33.548	-0.716	0.395
-479.347	193.187	0.360	-0.544
-478.332	-28.338	-0.612	-0.353
-477.318	51.073	-0.515	-0.489
-476.303	334.549	-0.584	1.130
-475.289	-46.879	0.286	0.140
-474.274	25.867	0.612	0.510
-473.259	452.735	-0.383	0.847
-472.245	118.407	0.241	-0.298
-471.230	800.000	0.287	0.988
-470.216	-200.000	-0.043	-0.233
-469.201	15.635	-0.162	0.128
-468.186	88.446	0.774	-0.860
-467.172	-200.000	-0.177	0.878
-466.157	223.311	-0.158	-0.255
-465.143	730.178	-0.121	0.322
-464.128	183.063	-0.487	-0.719
-463.113	-200.000	-0.139	0.626
-462.099	-200.000	-0.047	0.280
-461.084	42.706	-0.372	-0.338
-460.070	490.563	0.322	0.736
-459.055	-95.771	-0.388	-0.103
-458.040	-200.000	-0.195	-1.345
-457.026	-41.775	0.607	-0.311
-456.011	-106.693	0.571	-0.127
-454.997	33.061	0.167	0.144
-453.982	264.616	-0.228	-0.396
-452.968	-84.959	0.505	0.158
-451.953	33.246	0.176	-0.153
-450.938	6.575	-0.398	-0.296
-449.924	79.836	0.294	0.316
-448.909	-149.604	0.839	0.066
-447.895	769.353	-0.093	0.253
-446.880	-200.000	-0.015	0.543
-445.865	-24.040	0.468	-0.279
-444.851	357.448	0.571	1.137
-443.836	-200.000	0.056	-1.072
-442.822	-109.755	0.194	-0.041
-441.807	-92.709	-0.281	-0.079
-440.792	-125.238	-0.631	-0.096
-439.778	329.993	0.290	-0.558
-438.763	-77.613	0.604	0.209
-437.749	-200.000	-0.064	-0.303
-436.734	-200.000	0.023	-0.807
-435.719	43.692	-0.519	-0.474
-434.705	-26.595	0.191	0.112
-433.690	-200.000	0.166	1.195
-432.676	-200.000	-0.052	-0.541
-431.661	674.182	0.550	1.424
-430.646	-200.000	0.135	0.667
-429.632	93.052	-0.380	0.429
-428.617	-30.963	0.644	0.363
-427.603	-10.376	0.509	0.337
-426.588	11.366	0.855	0.654
-425.573	-91.109	-0.381	-0.109
-424.559	-30.705	-0.548	-0.310
-423.544	-200.000	0.064	-0.704
-422.530	-4.794	-0.315	-0.217
-421.515	592.668	0.103	-0.255
-420.500	-7.057	-0.290	0.196
-419.486	-200.000	-0.004	0.710
-418.471	-62.744	-0.966	0.400
-417.457	-63.868	-0.311	-0.127
-416.442	-200.000	-0.046	-0.884
-415.428	-47.979	0.790	0.381
-414.413	640.677	-0.298	-0.756
-413.398	-85.425	-0.915	0.284
-412.384	-113.443	0.576	-0.113
-411.369	-83.631	0.323	-0.103
-410.355	79.299	-0.395	-0.423
-409.340	440.224	-0.154	0.336
-408.325	480.255	-0.109	0.247
-407.311	69.915	0.379	-0.390
-406.296	-24.168	0.330	0.196
-405.282	223.408	-0.458	-0.737
-404.267	112.238	0.185	0.223
-403.252	-200.000	-0.487	0.001
-402.238	-64.890	0.187	0.075
-401.223	-200.000	-0.031	0.839
-400.209	-166.705	-0.316	-0.013
-399.194	800.000	-0.148	0.483
-398.179	-35.243	-0.359	0.195
-397.165	42.776	0.541	0.492
-396.150	-45.844	-0.617	-0.304
-395.136	-39.847	0.658	0.343
-394.121	-200.000	0.011	1.247
-393.106	-131.999	-0.482	0.063
-392.092	68.810	0.797	-0.815
-391.077	-42.129	0.738	0.376
-390.063	800.000	0.209	-0.653
-389.048	-60.416	0.793	0.336
-388.033	-127.547	1.014	-0.147
-387.019	-200.000	0.101	1.040
-386.004	515.242	-0.159	-0.369
-384.990	435.399	0.113	-0.245
-383.975	-200.000	0.081	0.354
-382.960	-184.336	-0.339	0.006
-381.946	-104.944	0.197	-0.045
-380.931	-174.663	0.492	-0.014
-379.917	-200.000	0.041	-0.233
-378.902	-165.048	0.480	-0.021
-377.888	573.792	0.210	0.511
-376.873	-24.662	0.362	0.215
-375.858	132.806	0.450	-0.579
-374.844	-54.964	-0.358	0.161
-373.829	52.076	0.436	0.414
-372.815	646.212	0.096	-0.245
-371.800	24.141	0.198	-0.163
-370.785	800.000	-0.119	-0.352
-369.771	-182.791	-0.627	-0.011
-368.756	-200.000	0.051	0.692
-367.742	337.407	-0.229	0.442
-366.727	-200.000	-0.048	0.468
-365.712	74.622	-0.835	-0.874
-364.698	-6.435	0.867	0.588
-363.683	57.828	-0.936	0.912
-362.669	52.831	0.533	-0.508
-361.654	81.448	-0.197	0.212
-360.639	149.047	-0.525	0.707
-359.625	18.037	-0.609	-0.483
-358.610	520.365	0.083	-0.194
-357.596	-124.678	-0.466	-0.072
-356.581	-200.000	0.013	0.408
-355.566	800.000	-0.137	-0.509
-354.552	-200.000	0.089	0.761
-353.537	-200.000	0.050	0.584
-352.523	800.000	0.246	0.813
-351.508	47.894	-0.462	0.430
-350.493	-88.891	-0.228	0.067
-349.479	-19.966	-0.324	0.199
-348.464	61.039	-0.237	-0.235
-347.450	-179.737	0.915	0.020
-346.435	1.962	0.410	0.294
-345.420	-109.589	-0.568	0.119
-344.406	800.000	0.260	-1.006
-343.391	78.222	-0.206	0.218
-342.377	308.408	-0.178	-0.331
-341.362	800.000	-0.123	-0.370
-340.348	4.290	-0.191	0.139
-339.333	-94.882	0.200	-0.054
-338.318	126.176	0.284	0.358
-337.304	-40.140	0.821	0.426
-336.289	-94.176	0.598	-0.163
-335.275	-200.000	0.139	-0.625
-334.260	-51.975	0.111	-0.051
-333.245	781.845	-0.181	-0.493
-332.231	65.183	-0.463	0.465
-331.216	-200.000	0.085	-0.388
-330.202	87.204	0.682	-0.750
-329.187	-23.092	-0.574	0.344
-328.172	-200.000	0.168	0.867
-327.158	-28.939	-0.368	-0.210
-326.143	233.365	-0.354	0.580
-325.129	-200.000	-0.100	0.484
-324.114	190.507	-0.248	-0.370
-323.099	34.531	0.618	0.537
-322.085	-200.000	0.058	-0.671
-321.070	-200.000	-0.028	-0.214
-320.056	323.468	0.140	0.265
-319.041	785.268	0.145	0.395
-318.026	100.218	-0.381	-0.439
-317.012	258.095	-0.242	-0.414
-315.997	-26.260	-0.800	-0.467
-314.983	214.929	-0.216	0.340
-313.968	18.523	0.351	0.278
-312.953	461.622	0.269	-0.596
-311.939	-200.000	0.099	-0.991
-310.924	-200.000	-0.067	-0.685
-309.910	-2.073	0.479	-0.334
-308.895	52.406	0.205	0.195
-307.880	378.086	0.147	0.299
-306.866	-93.106	0.804	0.222
-305.851	-85.049	-0.436	-0.136
-304.837	93.766	0.434	0.488
-303.822	274.120	0.256	-0.450
-302.807	47.430	0.285	-0.264
-301.793	-108.844	-1.048	0.223
-300.778	800.000	-0.074	0.260
-299.764	-0.144	0.142	-0.100
-298.749	-132.634	0.529	-0.067
-297.735	-200.000	0.004	-0.767
-296.720	-200.000	-0.000	-1.006
-295.705	187.594	-0.405	-0.600
-294.691	-200.000	0.077	0.719
-293.676	-109.136	-0.450	-0.095
-292.662	251.956	-0.026	-0.044
-291.647	392.994	-0.097	0.200
-290.632	-104.948	0.349	0.080
-289.618	313.622	-0.241	-0.450
-288.603	-109.548	0.447	0.094
-287.589	-70.355	-0.395	0.149
-286.574	-162.534	-0.403	-0.020
-285.559	20.086	0.260	0.208
-284.545	773.980	0.188	0.510
-283.530	249.453	0.585	0.985
-282.516	129.396	0.215	0.272
-281.501	800.000	-0.087	-0.297
-280.486	800.000	-0.087	-0.246
-279.472	12.221	-0.204	-0.156
-278.457	446.733	0.180	-0.392
-277.443	-46.292	-0.394	0.192
-276.428	27.364	-0.282	-0.235
-275.413	94.707	-0.357	-0.402
-274.399	-14.061	-0.419	-0.268
-273.384	-149.982	-0.444	0.034
-272.370	4.064	0.455	-0.330
-271.355	-200.000	0.058	0.254
-270.340	-104.838	-0.350	-0.080
-269.326	91.097	0.348	0.388
-268.311	70.106	-0.169	0.173
-267.297	-200.000	-0.001	0.122
-266.282	52.233	0.205	0.194
-265.267	10.721	-0.058	0.044
-264.253	-84.105	-0.702	0.221
-263.238	79.401	0.310	-0.329
-262.224	728.086	-0.161	-0.427
-261.209	800.000	-0.188	0.523
-260.195	-112.355	-0.716	-0.142
-259.180	594.480	0.207	0.508
-258.165	800.000	-0.349	1.234
-257.151	-200.000	-0.071	-0.831
-256.136	257.425	-0.361	0.616
-255.122	-2.964	0.472	-0.327
-254.107	159.222	0.268	-0.369
-253.092	-200.000	0.004	0.560
-252.078	-32.463	0.792	-0.438
-251.063	38.519	-0.190	0.168
-250.049	800.000	0.197	-0.696
-249.034	738.306	0.219	0.581
-248.019	139.716	0.370	-0.483
-247.005	-200.000	0.041	0.357
-245.990	-200.000	0.002	0.674
-244.976	321.810	-0.138	0.259
-243.961	178.251	0.494	-0.714
-242.946	-130.230	-0.268	-0.036
-241.932	-200.000	0.141	-1.064
-240.917	-78.214	0.709	-0.241
-239.903	-64.547	-0.700	-0.282
-238.888	104.075	-0.484	-0.564
-237.873	-134.442	-0.491	-0.060
-236.859	64.001	-0.287	0.286
-235.844	118.588	0.369	0.451
-234.830	-200.000	0.204	-1.197
-233.815	-134.925	0.433	-0.052
-232.800	-138.106	0.252	-0.028
-231.786	-10.984	0.324	0.212
-230.771	131.533	-0.220	-0.280
-229.757	396.903	-0.089	-0.184
-228.742	66.991	-0.408	-0.412
-227.727	-200.000	-0.020	-0.498
-226.713	-118.297	0.253	-0.045
-225.698	76.133	-0.248	0.260
-224.684	-149.231	0.396	-0.031
-223.669	145.083	-0.319	0.423
-222.655	-200.000	0.000	0.214
-221.640	-93.456	-0.899	-0.246
-220.625	-200.000	-0.052	0.772
-219.611	35.488	0.901	-0.783
-218.596	800.000	0.068	0.185
-217.582	-115.698	-0.386	-0.072
-216.567	-200.000	-0.007	0.141
-215.552	-3.499	0.261	-0.180
-214.538	14.465	-0.702	-0.543
-213.523	502.618	-0.175	-0.401
-212.509	-200.000	-0.033	0.363
-211.494	21.124	0.493	0.396
-210.479	-110.429	0.323	-0.066
-209.465	-200.000	-0.005	-0.644
-208.450	19.182	0.513	-0.407
-207.436	-200.000	0.058	-0.598
-206.421	-89.234	-1.186	0.346
-205.406	-200.000	0.046	0.332
-204.392	-200.000	0.008	0.100
-203.377	-199.991	-0.492	0.002
-202.363	25.292	-0.396	0.325
-201.348	-69.568	0.950	-0.360
-200.333	174.442	-0.307	-0.440
-199.319	-1.498	0.853	-0.595
-198.304	-52.251	0.500	0.229
-197.290	15.946	-0.451	-0.351
-196.275	-200.000	0.073	-0.376
-195.260	123.347	-0.429	-0.532
-194.246	-160.393	-0.180	-0.010
-193.231	-130.617	-0.427	0.057
-192.217	70.468	-0.309	0.316
-191.202	-77.356	-0.740	0.254
-190.187	-200.000	0.085	-0.394
-189.173	800.000	-0.280	0.912
-188.158	2.511	0.376	0.269
-187.144	-200.000	-0.022	1.023
-186.129	-143.206	0.786	0.075
-185.114	-200.000	-0.005	1.035
-184.100	-75.567	-0.340	-0.120
-183.085	-200.000	0.040	0.498
-182.071	93.274	0.368	0.411
-181.056	48.017	-0.410	0.379
-180.042	-200.000	0.039	-0.784
-179.027	321.762	0.537	-1.009
-178.012	-75.858	0.439	0.154
-176.998	-42.297	0.708	0.357
-175.983	310.057	0.296	-0.548
-174.969	7.691	0.915	0.677
-173.954	-153.439	-0.265	-0.018
-172.939	-117.982	-0.938	-0.166
-171.925	-97.351	0.237	-0.061
-170.910	-36.801	0.603	0.320
-169.896	-145.155	0.332	0.030
-168.881	-22.751	0.252	-0.150
-167.866	-65.663	-0.252	0.100
-166.852	127.069	0.405	0.508
-165.837	800.000	-0.265	0.875
-164.823	-59.638	1.056	0.448
-163.808	-55.882	0.157	-0.069
-162.793	-200.000	0.105	-0.612
-161.779	575.650	0.188	0.453
-160.764	-200.000	0.015	-0.228
-159.750	-149.467	-0.580	-0.045
-158.735	800.000	-0.125	-0.405
-157.720	800.000	0.140	-0.428
-156.706	64.368	0.356	0.354
-155.691	453.078	0.202	-0.442
-154.677	591.259	0.277	-0.675
-153.662	-33.379	0.313	0.171
-152.647	-74.879	0.551	0.195
-151.633	72.634	0.120	0.123
-150.618	-43.464	0.992	0.495
-149.604	-200.000	-0.114	0.696
-148.589	-200.000	-0.040	0.182
-147.574	372.764	0.296	0.593
-146.560	112.802	0.350	0.418
-145.545	140.521	-0.537	0.700
-144.531	388.105	-0.129	0.263
-143.516	-105.325	0.830	0.187
-142.502	800.000	0.157	-0.531
-141.487	-158.921	0.656	0.037
-140.472	38.174	-0.498	0.437
-139.458	25.684	-0.121	-0.100
-138.443	201.711	-0.542	-0.824
-137.429	-78.892	1.528	-0.514
-136.414	-200.000	-0.018	0.151
-135.399	3.249	0.712	-0.511
-134.385	44.003	-0.477	0.431
-133.370	125.979	0.131	0.164
-132.356	-137.077	0.535	-0.060
-131.341	8.772	0.660	0.491
-130.326	122.756	-0.684	-0.844
-129.312	-62.687	-0.835	-0.342
-128.297	38.466	0.311	0.273
-127.283	-8.544	0.252	0.167
-126.268	-113.102	1.009	0.196
-125.253	72.482	0.382	0.392
-124.239	-97.983	-0.506	0.129
-123.224	-71.370	-0.714	-0.264
-122.210	-55.508	-0.648	0.286
-121.195	-112.756	-0.726	0.142
-120.180	8.382	0.376	0.279
-119.166	-67.656	-0.326	0.126
-118.151	75.318	0.243	-0.253
-117.137	72.962	-0.319	0.329
-116.122	-200.000	0.004	0.093
-115.107	-35.428	0.779	0.417
-114.093	-200.000	0.008	-0.181
-113.078	-200.000	-0.028	-0.487
-112.064	800.000	-0.192	-0.538
-111.049	95.460	0.298	-0.335
-110.034	17.855	0.750	0.588
-109.020	-69.102	-0.459	0.174
-108.005	800.000	-0.283	-1.017
-106.991	-200.000	-0.047	0.890
-105.976	633.459	0.137	-0.343
-104.962	-89.586	-0.268	-0.077
-103.947	-156.403	-0.433	-0.027
-102.932	102.260	-0.353	-0.406
-101.918	-122.776	-0.423	-0.067
-100.903	-200.000	-0.090	0.689
-99.889	94.582	0.434	0.487
-98.874	-200.000	0.002	-0.620
-97.859	-67.641	0.673	-0.260
-96.845	-200.000	0.025	0.377
-95.830	-200.000	0.002	-0.318
-94.816	65.270	0.549	0.547
-93.801	362.865	0.372	0.736
-92.786	432.463	-0.054	0.115
-91.772	-158.024	0.725	0.042
-90.757	4.713	-0.678	0.491
-89.743	-91.815	1.224	-0.342
-88.728	-200.000	-0.046	-1.068
-87.713	-200.000	0.003	-0.755
-86.699	29.267	0.909	-0.760
-85.684	33.137	-0.455	0.388
-84.670	-97.163	-0.889	0.229
-83.655	481.020	-0.185	0.413
-82.640	265.284	0.268	-0.459
-81.626	-51.857	-0.193	-0.088
-80.611	-157.780	0.168	-0.010
-79.597	800.000	0.541	-1.529
-78.582	-200.000	0.013	-0.715
-77.567	29.515	0.830	0.695
-76.553	-8.699	-0.545	0.360
-75.538	37.292	0.764	-0.667
-74.524	500.343	-0.241	0.548
-73.509	-40.715	-0.029	-0.015
-72.494	73.227	-0.334	0.344
-71.480	27.228	0.429	-0.355
-70.465	-80.425	-0.154	-0.051
-69.451	-137.295	0.681	0.076
-68.436	178.911	0.365	-0.526
-67.422	-200.000	0.025	-0.327
-66.407	-78.778	-0.457	0.153
-65.392	-92.941	0.855	0.235
-64.378	-64.525	-0.194	-0.078
-63.363	110.020	0.606	0.716
-62.349	800.000	-0.268	-0.783
-61.334	62.015	-1.238	-1.215
-60.319	133.633	0.108	-0.138
-59.305	25.189	-0.482	-0.394
-58.290	385.889	0.789	1.602
-57.276	800.000	0.528	1.933
-56.261	-200.000	96.657	601.285
-55.246	671.853	1354.735	3453.716
-54.232	204.130	2519.237	3838.866
-53.217	118.822	2138.846	2599.121
-52.203	42.808	1690.591	1514.948
-51.188	35.535	1505.665	1300.167
-50.173	33.178	1478.632	1261.074
-49.159	53.271	1531.307	1442.884
-48.144	53.969	1547.214	1462.551
-47.130	35.269	1507.294	1299.560
-46.115	32.540	1492.146	1268.108
-45.100	32.211	1489.213	1263.354
-44.086	32.237	1487.587	1262.098
-43.071	32.324	1485.259	1260.655
-42.057	32.261	1484.057	1259.160
-41.042	32.152	1482.743	1257.269
-40.027	32.142	1481.037	1255.704
-39.013	32.194	1479.771	1254.931
-37.998	32.275	1478.327	1254.193
-36.984	32.330	1476.006	1252.545
-35.969	32.147	1476.502	1251.693
-34.954	32.246	1474.528	1250.631
-33.940	31.984	1473.172	1247.686
-32.925	32.087	1472.571	1247.816
-31.911	32.398	1469.669	1247.371
-30.896	32.239	1468.712	1245.455
-29.881	32.030	1468.598	1243.922
-28.867	32.367	1465.810	1243.740
-27.852	32.347	1464.381	1242.345
-26.838	32.137	1463.573	1240.222
-25.823	32.269	1462.401	1240.056
-24.809	32.363	1458.882	1237.638
-23.794	32.195	1458.604	1236.246
-22.779	31.925	1458.684	1234.487
-21.765	32.344	1456.267	1235.146
-20.750	32.051	1455.462	1232.493
-19.736	32.357	1453.910	1233.134
-18.721	32.248	1452.756	1231.393
-17.706	32.350	1450.696	1230.265
-16.692	32.105	1451.757	1229.512
-15.677	32.140	1449.703	1227.957
-14.663	32.083	1449.727	1227.552
-13.648	31.973	1448.223	1225.513
-12.633	32.147	1447.053	1225.610
-11.619	32.235	1446.804	1225.926
-10.604	32.112	1446.083	1224.461
-9.590	32.216	1443.857	1223.209
-8.575	32.182	1443.405	1222.556
-7.560	32.314	1442.196	1222.338
-6.546	31.993	1440.829	1219.045
-5.531	32.220	1441.258	1220.835
-4.517	32.025	1440.244	1218.663
-3.502	31.927	1438.763	1216.728
-2.487	32.000	1438.898	1217.265
-1.473	32.072	1437.308	1216.337
-0.458	31.984	1436.251	1214.827
0.556	33.415	1426.467	1203.214
1.571	30.128	1401.562	1161.540
2.586	26.800	1342.089	1092.150
3.600	25.164	1262.411	1017.940
4.615	23.631	1216.375	972.341
5.629	20.343	1159.509	909.604
6.644	11.468	1075.465	800.276
7.659	4.190	1036.262	736.556
8.673	3.756	1030.205	730.132
9.688	3.299	1026.365	725.195
10.702	2.777	1025.856	722.315
11.717	3.412	1022.931	723.172
12.731	6.459	1026.408	739.892
13.746	15.377	1039.083	791.192
14.761	22.955	1047.395	833.336
15.775	24.625	1049.377	842.721
16.790	24.371	1048.028	840.368
17.804	23.757	1046.670	836.315
18.819	23.521	1046.129	834.698
19.834	23.674	1044.674	834.184
20.848	23.701	1044.164	833.827
21.863	24.044	1043.398	834.753
22.877	23.579	1044.690	833.524
23.892	23.777	1042.084	832.299
24.907	23.450	1042.627	831.129
25.921	23.380	1042.583	830.693
26.936	23.006	1041.818	828.257
27.950	23.295	1039.268	827.508
28.965	23.027	1038.557	825.616
29.980	23.036	1038.249	825.339
30.994	23.484	1036.536	825.993
32.009	23.747	1035.106	826.002
33.023	23.779	1034.444	825.549
34.038	23.459	1033.928	823.581
35.053	23.464	1033.419	823.127
36.067	23.416	1033.046	822.533
37.082	23.377	1031.077	820.710
38.096	23.228	1030.594	819.564
39.111	23.503	1029.419	819.830
40.126	23.434	1030.443	820.250
41.140	23.820	1027.298	819.459
42.155	23.270	1026.486	816.201
43.169	22.958	1025.967	814.277
44.184	22.608	1025.290	812.056
45.199	23.065	1023.217	812.445
46.213	22.444	1023.350	809.623
47.228	22.745	1022.928	810.602
48.242	23.348	1021.564	812.213
49.257	23.188	1022.125	811.852
50.271	23.574	1020.196	812.016
51.286	23.654	1018.649	811.082
52.301	23.588	1019.441	811.336
53.315	23.449	1019.567	810.730
54.330	23.504	1017.366	809.158
55.344	23.648	1016.212	808.826
56.359	23.456	1014.599	806.596
57.374	23.471	1014.358	806.404
58.388	23.245	1014.688	805.567
59.403	23.272	1012.996	804.274
60.417	23.030	1011.873	802.212
61.432	22.777	1012.866	801.780
62.447	22.917	1011.994	801.653
63.461	22.949	1010.234	800.331
64.476	23.002	1008.826	799.386
65.490	22.866	1008.640	798.551
66.505	22.742	1008.214	797.584
67.520	22.651	1007.241	796.332
68.534	23.161	1005.636	797.294
69.549	22.704	1005.425	794.997
70.563	22.230	1005.333	792.715
71.578	22.307	1003.422	791.487
72.593	21.995	1002.986	789.667
73.607	22.149	1001.047	788.765
74.622	21.847	1001.347	787.572
75.636	22.041	1000.300	787.550
76.651	22.363	998.971	787.878
77.666	22.082	998.484	786.164
78.680	22.289	998.095	786.718
79.695	22.152	997.943	785.912
80.709	22.336	996.621	785.624
81.724	22.616	996.396	786.628
82.739	22.601	995.713	785.950
83.753	22.440	994.610	784.295
84.768	22.864	994.434	785.975
85.782	23.656	994.167	789.215
86.797	24.083	993.070	790.171
87.812	23.713	993.504	788.802
88.826	23.779	992.171	787.968
89.841	23.752	991.473	787.225
90.855	23.553	990.886	785.806
91.870	23.954	989.918	786.745
92.884	23.809	989.317	785.554
93.899	23.954	987.887	784.993
94.914	23.876	987.456	784.236
95.928	23.514	986.743	782.002
96.943	23.466	986.770	781.745
97.957	23.258	984.775	779.178
98.972	23.488	984.189	779.658
99.987	23.576	982.714	778.808
101.001	23.709	982.743	779.344
102.016	23.532	981.631	777.617
103.030	23.563	980.876	777.088
104.045	23.423	979.364	775.207
105.060	23.444	980.009	775.742
106.074	23.771	977.423	775.054
107.089	23.703	976.622	774.055
108.103	23.132	976.843	771.669
109.118	23.017	975.013	769.655
110.133	22.872	973.892	768.072
111.147	22.810	972.817	766.886
112.162	22.712	970.861	764.852
113.176	22.560	969.967	763.420
114.191	22.747	970.511	764.592
115.206	22.682	969.846	763.720
116.220	22.799	968.333	762.966
117.235	22.888	967.283	762.456
118.249	22.724	966.649	761.179
119.264	22.307	965.816	758.658
120.279	22.390	965.601	758.782
121.293	22.320	964.832	757.806
122.308	22.296	963.750	756.787
123.322	22.091	963.204	755.411
124.337	22.070	962.307	754.549
125.352	22.167	960.084	753.157
126.366	22.204	959.351	752.672
127.381	21.989	959.607	751.888
128.395	22.295	959.160	752.781
129.410	22.383	957.044	751.429
130.424	22.546	956.699	751.786
131.439	22.484	956.254	751.106
132.454	22.781	955.588	751.779
133.468	22.991	954.590	751.824
134.483	22.950	953.833	750.984
135.497	22.923	952.546	749.791
136.512	22.961	952.895	750.160
137.527	23.070	951.714	749.626
138.541	23.135	950.607	748.963
139.556	22.968	950.424	748.048
140.570	23.107	949.535	747.870
141.585	23.029	948.484	746.648
142.600	23.643	948.148	748.908
143.614	23.415	948.459	748.125
144.629	23.671	946.838	747.859
145.643	23.770	946.482	747.927
146.658	24.102	945.204	748.246
147.673	23.569	944.382	745.291
148.687	23.255	942.928	742.759
149.702	23.247	941.775	741.754
150.716	23.007	940.522	739.696
151.731	22.838	940.415	738.839
152.746	22.957	939.281	738.382
153.760	22.901	939.290	738.086
154.775	23.023	938.938	738.254
155.789	23.523	937.370	739.041
156.804	23.583	936.933	738.883
157.819	23.403	935.956	737.295
158.833	23.153	935.749	736.027
159.848	23.639	934.874	737.296
160.862	24.097	933.338	737.917
161.877	23.908	932.697	736.561
162.892	23.054	932.104	732.492
163.906	22.984	931.541	731.696
164.921	23.180	929.705	730.997
165.935	23.130	928.286	729.613
166.950	23.203	927.340	729.102
167.964	23.363	927.146	729.546
168.979	23.196	926.267	728.102
169.994	23.079	925.183	726.707
171.008	23.083	923.372	725.233
172.023	23.117	923.809	725.652
173.037	23.760	921.763	726.613
174.052	23.916	922.040	727.406
175.067	23.569	921.701	725.654
176.081	23.133	920.582	722.929
177.096	22.355	920.306	719.468
178.110	22.841	918.661	720.101
179.125	22.790	917.273	718.742
180.140	22.636	916.431	717.393
181.154	23.011	915.142	717.841
182.169	23.115	915.184	718.236
183.183	23.451	915.355	719.667
184.198	23.533	914.828	719.525
185.213	23.681	914.277	719.626
186.227	23.615	912.870	718.189
187.242	23.274	913.296	717.078
188.256	23.511	912.611	717.439
189.271	23.913	911.520	718.141
190.286	23.653	911.151	716.735
191.300	23.556	910.377	715.673
192.315	22.883	909.307	712.056
193.329	22.511	907.807	709.318
194.344	22.573	907.368	709.164
195.359	22.675	906.372	708.732
196.373	22.994	907.278	710.660
197.388	23.330	907.081	711.794
198.402	23.510	906.011	711.614
199.417	23.723	906.155	712.519
200.432	23.985	906.276	713.603
201.446	23.876	906.697	713.431
202.461	24.228	904.872	713.342
203.475	24.257	904.547	713.140
204.490	24.091	903.620	711.681
205.504	23.823	901.382	708.787
206.519	23.289	901.531	706.711
207.534	23.275	900.900	706.098
208.548	23.311	900.620	705.961
209.563	23.735	899.980	707.086
210.577	23.780	898.501	706.040
211.592	23.293	898.555	704.084
212.607	23.255	899.282	704.440
213.621	24.099	897.469	706.306
214.636	23.776	898.138	705.489
215.650	23.811	896.754	704.478
216.665	23.742	896.257	703.750
217.680	23.672	896.277	703.429
218.694	23.945	895.485	703.824
219.709	24.147	894.069	703.446
220.723	23.441	893.562	700.196
221.738	23.519	893.829	700.654
222.753	23.516	892.865	699.826
223.767	23.554	891.422	698.780
224.782	23.855	889.990	698.778
225.796	23.420	890.870	697.695
226.811	24.230	890.167	700.267
227.826	23.758	888.900	697.360
228.840	23.463	888.582	695.888
229.855	23.639	887.076	695.338
230.869	23.307	886.255	693.331
231.884	23.598	885.155	693.549
232.899	23.401	885.198	692.751
233.913	23.251	885.018	691.963
234.928	23.411	884.854	692.396
235.942	23.056	884.024	690.302
236.957	23.057	882.673	689.190
237.972	22.775	882.384	687.802
238.986	22.676	882.077	687.120
240.001	23.256	880.529	688.106
241.015	22.952	880.054	686.495
242.030	22.835	880.107	686.020
243.045	23.242	879.648	687.181
244.059	22.848	879.309	685.325
245.074	23.287	878.481	686.321
246.088	23.362	877.846	686.055
247.103	23.583	877.710	686.745
248.117	23.650	877.556	686.823
249.132	23.916	877.504	687.749
250.147	24.679	876.587	689.916
251.161	24.312	876.534	688.395
252.176	24.732	876.025	689.555
253.190	24.676	874.993	688.466
254.205	24.864	873.998	688.345
255.220	24.617	875.051	688.164
256.234	24.434	874.256	686.771
257.249	24.480	872.900	685.824
258.263	24.440	872.954	685.652
259.278	24.202	871.889	683.842
260.293	24.360	871.215	683.858
261.307	24.773	869.908	684.352
262.322	24.628	869.865	683.703
263.336	24.798	868.694	683.370
264.351	24.601	867.761	681.824
265.366	24.401	868.290	681.418
266.380	24.460	866.958	680.537
267.395	24.531	867.170	680.912
268.409	24.943	865.850	681.384
269.424	24.521	865.775	679.659
270.439	24.569	864.756	678.983
271.453	24.742	863.781	678.815
272.468	24.319	863.377	676.830
273.482	24.267	862.806	676.125
274.497	24.393	862.710	676.468
275.512	24.453	861.613	675.775
276.526	24.376	860.716	674.721
277.541	24.322	859.945	673.851
278.555	24.351	859.847	673.828
279.570	24.527	859.330	674.025
280.585	25.118	858.233	675.332
281.599	24.919	858.659	674.857
282.614	24.665	857.708	673.096
283.628	24.377	856.535	671.032
284.643	24.409	856.181	670.816
285.657	24.195	856.228	669.988
286.672	24.418	855.011	669.813
287.687	24.099	854.498	668.155
288.701	24.401	853.911	668.771
289.716	24.759	853.224	669.511
290.730	24.287	852.834	667.380
291.745	24.765	851.990	668.447
292.760	24.352	851.286	666.296
293.774	24.586	851.116	666.978
294.789	24.793	851.280	667.820
295.803	25.422	850.329	669.357
296.818	24.812	850.166	666.896
297.833	24.591	849.379	665.398
298.847	24.725	847.687	664.511
299.862	23.853	848.107	661.538
300.876	24.520	847.385	663.395
301.891	24.626	847.129	663.530
302.906	24.883	847.572	664.774
303.920	25.047	846.296	664.322
304.935	25.025	845.436	663.507
305.949	25.067	845.068	663.314
306.964	25.308	843.677	663.055
307.979	25.105	842.918	661.651
308.993	24.612	843.672	660.360
310.008	24.837	842.319	660.074
311.022	25.325	841.891	661.480
312.037	24.761	841.610	659.121
313.052	24.867	840.378	658.487
314.066	24.661	839.660	657.109
315.081	23.767	839.850	653.911
316.095	23.499	839.365	652.490
317.110	24.256	837.822	654.012
318.125	24.761	836.533	654.798
319.139	24.484	835.999	653.308
320.154	23.992	835.792	651.289
321.168	23.970	835.387	650.834
322.183	24.000	834.734	650.379
323.197	24.256	835.429	651.797
324.212	24.076	834.697	650.513
325.227	24.305	833.111	650.051
326.241	24.064	833.346	649.301
327.256	23.814	832.879	647.968
328.270	24.115	832.521	648.729
329.285	24.244	830.800	647.797
330.300	23.991	830.866	646.872
331.314	23.884	830.738	646.325
332.329	24.239	829.312	646.450
333.343	24.343	828.398	646.056
334.358	24.700	829.494	648.146
335.373	24.752	828.425	647.443
336.387	24.791	828.427	647.526
337.402	24.751	829.109	647.859
338.416	24.853	826.807	646.373
339.431	24.914	826.317	646.150
340.446	25.315	826.573	647.742
341.460	25.495	826.341	648.151
342.475	25.560	826.049	648.101
343.489	25.517	826.246	648.040
344.504	25.853	823.963	647.400
345.519	25.762	824.362	647.333
346.533	25.941	823.702	647.397
347.548	25.522	824.129	646.170
348.562	25.500	822.712	644.924
349.577	25.469	821.477	643.786
350.592	25.054	820.664	641.608
351.606	24.778	821.048	640.863
352.621	24.770	820.196	640.114
353.635	24.602	819.425	638.854
354.650	24.731	818.607	638.618
355.665	24.908	818.319	638.969
356.679	24.796	818.036	638.292
357.694	24.915	818.193	638.785
358.708	24.935	817.750	638.454
359.723	24.785	816.953	637.239
360.738	24.688	816.783	636.705
361.752	24.551	816.080	635.614
362.767	24.925	815.777	636.651
363.781	25.193	815.717	637.501
364.796	25.121	815.953	637.373
365.810	25.374	814.199	636.844
366.825	25.920	814.483	638.944
367.840	25.233	814.979	636.842
368.854	25.203	813.886	635.824
369.869	25.678	812.333	636.234
370.883	25.094	812.142	633.964
371.898	25.044	811.510	633.235
372.913	25.222	810.639	633.131
373.927	25.690	810.416	634.551
374.942	25.262	809.611	632.357
375.956	25.198	808.787	631.432
376.971	25.392	808.465	631.805
377.986	25.239	809.492	632.013
379.000	25.843	807.557	632.569
380.015	25.780	807.248	632.050
381.029	25.535	807.002	630.939
382.044	25.668	806.368	630.856
383.059	25.618	805.610	630.033
384.073	25.724	804.905	629.796
385.088	25.885	804.418	629.922
386.102	25.429	804.059	627.991
387.117	25.352	802.784	626.673
388.132	25.185	802.792	626.038
389.146	24.927	801.359	623.969
390.161	24.765	801.565	623.509
391.175	25.015	801.759	624.476
392.190	26.059	799.701	626.444
393.205	25.804	799.998	625.736
394.219	25.153	798.967	622.614
395.234	24.999	798.186	621.415
396.248	24.346	797.537	618.593
397.263	24.690	798.087	620.159
398.278	24.976	797.980	621.013
399.292	24.851	797.449	620.110
400.307	24.810	795.716	618.566
401.321	24.507	795.432	617.244
402.336	24.848	795.386	618.331
403.350	24.759	795.830	618.315
404.365	24.827	795.868	618.526
405.380	25.905	794.252	620.928
406.394	26.188	793.857	621.540
407.409	25.992	794.760	621.516
408.423	25.884	794.827	621.142
409.438	26.003	794.124	620.945
410.453	26.546	792.594	621.562
411.467	26.306	792.136	620.323
412.482	25.884	792.000	618.713
413.496	25.918	791.420	618.323
414.511	26.407	791.283	619.837
415.526	26.067	790.709	618.166
416.540	26.193	790.388	618.294
417.555	25.976	790.182	617.337
418.569	26.027	789.590	616.993
419.584	26.331	789.153	617.635
420.599	26.490	787.719	617.003
421.613	161.173	1369.332	1792.305
422.628	139.534	1454.042	1792.356
