DTS Sentinel unit serial number:	SN413079Multiplexer serial number:	ORYXHardware model number:	OX4-SRSoftware version number:	ORYX F/W v4.00 Oryx Data Collector v3.7.2.0data status	okinstallation	princeton_trtdifferential loss correction	single-endedforward channel	channel 3reverse channel	N/Adate	2019/09/18time	11:56:35forward acquisition time	60.00reverse acquisition time	0.00gamma	496.2192k internal	0.2323k external	0.2323temperature offset calibration	0.9958default loss term (dB/km)	0.3790temperature slope calibration	1.0000multiplexer offset coefficient	1.0000multiplexer slope coefficient	1.0000fibre end	0.00T internal ref (°C)	31.44T ext. ref 1 (°C)	0.48T ext. ref 2 (°C)	27.70length (m)	temperature (°C)	Stokes	anti-Stokes-747.200	239.578	-0.027	0.045
-746.185	402.824	-0.050	0.107
-745.171	-200.000	0.002	0.308
-744.156	-200.000	-0.021	0.211
-743.142	-64.923	0.195	-0.080
-742.127	177.554	0.179	0.263
-741.112	266.703	-0.095	-0.168
-740.098	-200.000	0.001	0.024
-739.083	589.093	0.053	0.133
-738.069	-17.479	0.071	0.045
-737.054	-140.965	0.180	-0.019
-736.039	12.851	-0.096	0.075
-735.025	800.000	0.082	0.355
-734.010	-200.000	0.000	0.186
-732.996	-51.073	0.105	-0.050
-731.981	-0.571	0.216	0.155
-730.966	117.006	-0.211	-0.262
-729.952	800.000	-0.060	-0.247
-728.937	-61.843	-0.457	0.193
-727.923	-100.276	-0.310	0.078
-726.908	800.000	0.046	-0.196
-725.894	-151.457	-0.235	-0.018
-724.879	3.230	-0.275	0.202
-723.864	16.351	0.079	0.063
-722.850	-200.000	-0.014	-0.105
-721.835	600.725	-0.044	-0.109
-720.821	368.462	-0.160	-0.326
-719.806	612.546	-0.049	-0.125
-718.791	215.148	0.164	0.262
-717.777	-57.346	-0.453	-0.201
-716.762	14.941	0.058	0.046
-715.748	1.040	0.108	-0.078
-714.733	364.400	0.137	-0.279
-713.718	251.128	0.091	-0.156
-712.704	289.293	-0.139	-0.254
-711.689	164.055	0.097	-0.138
-710.675	28.939	0.108	-0.093
-709.660	-45.621	0.157	0.078
-708.645	-200.000	0.008	0.067
-707.631	-71.790	0.269	-0.101
-706.616	90.834	0.054	-0.061
-705.602	-200.000	-0.019	-0.221
-704.587	-33.816	0.214	0.119
-703.572	800.000	0.082	-0.352
-702.558	-193.560	-0.417	-0.004
-701.543	800.000	0.069	0.218
-700.529	-200.000	-0.039	-0.189
-699.514	54.430	-0.154	-0.150
-698.499	61.546	0.067	-0.067
-697.485	800.000	0.037	-0.148
-696.470	-7.668	-0.266	-0.181
-695.456	-130.947	-0.274	-0.037
-694.441	-116.831	0.352	-0.065
-693.426	376.603	-0.072	0.148
-692.412	-45.604	-0.168	0.084
-691.397	-200.000	-0.029	0.260
-690.383	83.496	-0.058	0.064
-689.368	416.786	0.184	0.397
-688.354	553.813	-0.069	0.168
-687.339	515.327	-0.053	0.126
-686.324	-69.869	-0.091	-0.035
-685.310	250.756	-0.089	-0.153
-684.295	8.343	-0.270	-0.205
-683.281	-63.948	-0.215	0.089
-682.266	317.907	-0.077	0.147
-681.251	101.273	-0.192	0.225
-680.237	142.619	0.146	0.195
-679.222	-65.177	0.479	-0.195
-678.208	163.037	-0.191	-0.270
-677.193	442.031	-0.095	-0.210
-676.178	-200.000	-0.008	-0.240
-675.164	162.867	-0.141	-0.200
-674.149	250.080	0.158	0.269
-673.135	195.153	0.140	-0.213
-672.120	95.109	-0.110	0.126
-671.105	-81.423	0.179	-0.059
-670.091	52.666	0.321	-0.308
-669.076	12.178	0.158	0.122
-668.062	198.847	0.134	-0.207
-667.047	-108.241	-0.396	0.086
-666.032	800.000	-0.079	0.310
-665.018	583.455	-0.065	-0.160
-664.003	-200.000	-0.003	0.091
-662.989	800.000	-0.094	-0.345
-661.974	104.355	0.112	0.133
-660.959	373.099	0.070	-0.143
-659.945	800.000	0.051	0.149
-658.930	-136.649	-0.222	-0.026
-657.916	450.449	0.061	-0.135
-656.901	800.000	-0.046	0.161
-655.886	-8.376	-0.306	0.207
-654.872	66.853	-0.236	-0.241
-653.857	-49.807	0.103	-0.049
-652.843	800.000	0.145	-0.426
-651.828	800.000	-0.058	-0.182
-650.814	-200.000	0.005	0.073
-649.799	10.696	0.379	0.291
-648.784	-152.692	-0.321	-0.023
-647.770	360.403	-0.085	-0.171
-646.755	339.942	0.075	-0.147
-645.741	-12.651	-0.095	-0.062
-644.726	-200.000	0.005	-0.233
-643.711	-84.012	-0.150	-0.048
-642.697	468.220	0.099	0.224
-641.682	-51.331	0.089	-0.042
-640.668	-200.000	0.001	-0.027
-639.653	-119.061	0.093	0.016
-638.638	-85.866	-0.166	-0.052
-637.624	35.263	-0.163	0.143
-636.609	-72.622	-0.224	-0.083
-635.595	-156.186	0.331	-0.021
-634.580	-51.568	-0.182	0.085
-633.565	800.000	-0.050	0.186
-632.551	800.000	0.020	0.080
-631.536	116.272	-0.152	0.187
-630.522	7.072	-0.162	-0.121
-629.507	-200.000	0.066	-0.354
-628.492	-200.000	-0.010	-0.302
-627.478	800.000	0.122	-0.339
-626.463	167.469	0.146	-0.208
-625.449	800.000	0.083	-0.246
-624.434	800.000	0.104	-0.297
-623.419	-200.000	-0.004	0.034
-622.405	-14.104	0.004	-0.003
-621.390	143.799	-0.142	0.190
-620.376	-200.000	-0.015	0.241
-619.361	-162.112	-0.164	0.008
-618.346	79.219	-0.105	0.114
-617.332	85.216	-0.042	-0.047
-616.317	800.000	-0.087	0.351
-615.303	238.316	0.079	0.131
-614.288	800.000	0.043	0.120
-613.273	253.236	-0.160	-0.274
-612.259	113.894	0.113	0.138
-611.244	353.272	-0.172	0.343
-610.230	-200.000	-0.049	0.552
-609.215	800.000	0.048	0.209
-608.201	-16.268	-0.204	-0.130
-607.186	-200.000	-0.003	-0.472
-606.171	800.000	-0.088	-0.296
-605.157	-85.723	-0.139	0.043
-604.142	4.972	-0.306	-0.226
-603.128	314.975	-0.122	-0.230
-602.113	-85.856	0.066	0.021
-601.098	86.300	0.058	0.064
-600.084	163.586	-0.070	0.099
-599.069	-100.572	0.097	-0.024
-598.055	-72.109	-0.221	0.082
-597.040	-200.000	-0.019	0.113
-596.025	800.000	-0.044	0.154
-595.011	800.000	0.056	0.236
-593.996	0.725	0.212	-0.152
-592.982	-200.000	0.017	0.133
-591.967	-24.406	0.199	0.119
-590.952	74.258	-0.163	0.172
-589.938	-78.666	0.393	0.135
-588.923	800.000	0.052	0.210
-587.909	-200.000	0.050	-0.223
-586.894	39.609	-0.044	0.039
-585.879	-200.000	-0.032	0.230
-584.865	-171.895	-0.224	-0.007
-583.850	-105.828	-0.361	-0.082
-582.836	-200.000	-0.037	0.273
-581.821	52.017	0.125	0.120
-580.806	5.790	-0.342	-0.254
-579.792	-9.951	0.553	-0.369
-578.777	-172.988	0.332	-0.010
-577.763	-27.418	0.068	-0.039
-576.748	800.000	0.028	-0.084
-575.733	23.500	0.355	-0.293
-574.719	-167.222	-0.118	-0.005
-573.704	-200.000	-0.045	-0.273
-572.690	800.000	-0.036	-0.113
-571.675	356.461	-0.050	-0.101
-570.661	-181.733	0.233	-0.004
-569.646	-6.672	-0.008	0.005
-568.631	-135.118	-0.187	0.023
-567.617	-126.443	0.092	-0.014
-566.602	377.962	0.071	-0.146
-565.588	-200.000	-0.039	-0.274
-564.573	91.959	0.136	0.153
-563.558	17.057	0.188	-0.149
-562.544	-97.368	-0.103	0.027
-561.529	-14.744	-0.292	-0.188
-560.515	468.890	0.120	-0.271
-559.500	-200.000	0.033	-0.313
-558.485	772.354	0.047	-0.129
-557.471	-172.270	0.237	0.008
-556.456	-200.000	-0.040	-0.208
-555.442	-2.200	0.162	0.114
-554.427	-54.104	0.080	0.036
-553.412	333.953	0.154	0.298
-552.398	-94.326	-0.421	0.115
-551.383	48.120	-0.138	0.130
-550.369	252.755	0.152	0.260
-549.354	302.050	0.192	0.356
-548.339	-98.003	-0.081	-0.021
-547.325	-32.218	-0.250	0.140
-546.310	-123.122	-0.056	-0.009
-545.296	182.151	-0.112	-0.165
-544.281	-168.908	-0.228	0.009
-543.266	-101.724	0.070	0.017
-542.252	255.337	-0.105	-0.181
-541.237	-121.262	0.183	0.031
-540.223	-103.907	-0.123	0.029
-539.208	427.999	0.152	0.328
-538.193	-109.696	-0.152	0.032
-537.179	75.585	0.057	-0.061
-536.164	800.000	-0.024	0.075
-535.150	-200.000	-0.041	0.288
-534.135	198.087	0.085	-0.130
-533.121	-23.161	-0.110	-0.066
-532.106	211.916	0.152	-0.239
-531.091	-200.000	-0.026	-0.348
-530.077	-84.995	-0.187	-0.059
-529.062	800.000	0.082	0.255
-528.048	800.000	-0.050	-0.146
-527.033	703.215	0.153	-0.403
-526.018	-59.992	-0.295	0.126
-525.004	-200.000	-0.028	-0.206
-523.989	-33.594	-0.192	0.106
-522.975	-94.852	-0.227	-0.062
-521.960	390.418	-0.052	0.107
-520.945	-200.000	0.027	0.287
-519.931	-87.478	0.160	0.048
-518.916	278.449	-0.110	-0.196
-517.902	-107.047	0.420	0.093
-516.887	81.555	-0.176	-0.191
-515.872	10.944	0.256	-0.196
-514.858	34.844	-0.192	-0.168
-513.843	157.694	-0.301	0.417
-512.829	780.816	-0.022	-0.061
-511.814	-200.000	0.094	0.569
-510.799	-82.910	0.208	0.067
-509.785	18.790	-0.106	0.085
-508.770	10.429	-0.253	0.193
-507.756	-200.000	0.003	-0.284
-506.741	-64.451	-0.199	0.081
-505.726	-4.941	0.410	0.283
-504.712	627.280	-0.051	-0.130
-503.697	-45.263	0.079	-0.039
-502.683	-87.475	0.140	-0.042
-501.668	618.592	-0.055	-0.138
-500.653	255.769	0.084	0.145
-499.639	49.086	0.222	0.209
-498.624	-200.000	0.017	-0.167
-497.610	115.705	-0.258	0.315
-496.595	-105.660	-0.162	0.037
-495.581	189.448	-0.238	0.357
-494.566	-200.000	0.079	-0.408
-493.551	-128.805	-0.167	0.024
-492.537	-9.955	0.245	0.163
-491.522	-200.000	-0.019	0.349
-490.508	392.260	0.186	0.387
-489.493	800.000	0.036	0.145
-488.478	655.683	-0.041	-0.105
-487.464	776.379	0.090	-0.246
-486.449	0.750	-0.149	-0.107
-485.435	-125.446	-0.324	0.049
-484.420	-171.765	0.379	-0.012
-483.405	-200.000	0.010	0.264
-482.391	293.460	-0.096	-0.175
-481.376	-130.929	0.306	0.041
-480.362	-28.005	-0.128	0.074
-479.347	-134.777	-0.182	-0.022
-478.332	-86.875	0.122	0.037
-477.318	-76.419	-0.133	-0.047
-476.303	-150.967	-0.288	0.022
-475.289	800.000	0.080	-0.292
-474.274	414.004	-0.087	0.184
-473.259	-37.718	0.152	-0.081
-472.245	-65.930	-0.196	-0.078
-471.230	268.778	0.193	-0.338
-470.216	-200.000	0.012	0.076
-469.201	89.065	0.119	-0.133
-468.186	267.252	-0.163	-0.285
-467.172	-200.000	0.034	-0.237
-466.157	-83.017	0.480	0.155
-465.143	106.413	-0.191	0.226
-464.128	-153.909	-0.321	0.022
-463.113	-0.954	-0.111	-0.079
-462.099	800.000	-0.097	0.365
-461.084	-136.419	-0.162	0.019
-460.070	-166.733	0.026	0.001
-459.055	-135.718	-0.196	-0.023
-458.040	339.053	0.096	-0.186
-457.026	188.534	0.158	-0.236
-456.011	359.096	-0.114	0.227
-454.997	39.029	0.173	0.155
-453.982	-152.157	0.054	0.004
-452.968	200.640	-0.088	-0.135
-451.953	-146.601	0.238	-0.021
-450.938	-102.710	0.050	0.012
-449.924	13.477	-0.181	0.141
-448.909	-134.951	0.082	0.010
-447.895	84.545	-0.183	0.199
-446.880	-63.725	0.266	0.109
-445.865	261.125	-0.093	0.160
-444.851	-27.157	-0.284	-0.165
-443.836	-109.664	-0.287	0.060
-442.822	-200.000	0.025	-0.138
-441.807	-106.235	0.304	0.068
-440.792	156.920	-0.023	0.031
-439.778	57.980	0.293	0.286
-438.763	129.397	-0.026	-0.033
-437.749	-128.009	0.121	-0.017
-436.734	-95.820	0.093	0.025
-435.719	73.897	-0.029	-0.031
-434.705	7.415	-0.201	0.150
-433.690	102.586	0.109	0.127
-432.676	-16.778	0.209	0.132
-431.661	-200.000	-0.000	0.232
-430.646	-64.905	0.074	-0.030
-429.632	305.022	0.051	0.095
-428.617	59.455	-0.157	-0.154
-427.603	159.872	-0.076	-0.105
-426.588	-119.363	-0.154	0.027
-425.573	-99.685	-0.103	0.026
-424.559	-123.744	0.328	0.052
-423.544	661.894	-0.169	-0.435
-422.530	73.090	0.327	-0.340
-421.515	800.000	-0.007	-0.021
-420.500	800.000	-0.018	0.058
-419.486	27.779	-0.146	0.123
-418.471	-62.873	0.272	-0.112
-417.457	437.597	-0.048	-0.105
-416.442	-200.000	0.027	0.178
-415.428	-103.904	-0.096	0.022
-414.413	-86.384	0.399	-0.122
-413.398	-113.132	0.175	0.034
-412.384	-18.618	0.155	0.097
-411.369	23.608	0.176	0.145
-410.355	800.000	-0.017	0.058
-409.340	800.000	-0.023	-0.069
-408.325	-200.000	-0.002	-0.131
-407.311	-63.681	0.217	0.089
-406.296	-88.194	-0.256	0.076
-405.282	-200.000	0.001	0.235
-404.267	27.858	0.324	0.272
-403.252	437.220	0.069	0.149
-402.238	-49.485	-0.156	0.074
-401.223	36.139	0.184	-0.162
-400.209	124.579	0.164	0.206
-399.194	-200.000	0.047	-0.257
-398.179	800.000	-0.054	-0.181
-397.165	-200.000	0.041	-0.290
-396.150	-152.848	-0.174	0.012
-395.136	-161.372	0.090	0.005
-394.121	-104.756	0.103	-0.024
-393.106	-200.000	-0.005	0.051
-392.092	118.057	0.154	0.190
-391.077	-57.559	0.036	-0.016
-390.063	47.194	0.075	-0.069
-389.048	-43.762	-0.306	-0.154
-388.033	-151.598	0.268	0.020
-387.019	92.170	0.027	0.030
-386.004	-200.000	0.016	-0.135
-384.990	-90.779	-0.123	0.035
-383.975	-131.487	-0.348	0.046
-382.960	-98.537	-0.470	0.120
-381.946	-111.681	-0.367	-0.074
-380.931	-200.000	-0.035	-0.157
-379.917	-184.104	0.427	0.007
-378.902	718.297	-0.064	-0.170
-377.888	111.694	-0.103	-0.123
-376.873	800.000	-0.100	0.393
-375.858	0.439	0.019	0.014
-374.844	800.000	-0.042	-0.121
-373.829	-6.177	0.352	-0.240
-372.815	535.847	0.030	0.070
-371.800	231.188	0.050	-0.082
-370.785	197.703	0.123	0.187
-369.771	214.961	-0.101	0.160
-368.756	-85.586	0.076	0.024
-367.742	-80.011	0.165	0.055
-366.727	141.516	0.075	0.099
-365.712	-72.608	-0.297	-0.109
-364.698	443.838	0.150	-0.327
-363.683	496.513	-0.022	0.050
-362.669	800.000	-0.096	0.278
-361.654	-200.000	-0.029	0.195
-360.639	317.747	-0.115	0.216
-359.625	800.000	-0.056	0.214
-358.610	-117.093	-0.204	0.037
-357.596	0.153	-0.372	-0.264
-356.581	24.607	0.103	0.085
-355.566	22.651	-0.321	0.261
-354.552	3.471	-0.143	-0.104
-353.537	-78.314	0.106	0.036
-352.523	-47.345	0.102	-0.049
-351.508	-40.173	0.218	0.113
-350.493	800.000	-0.021	-0.081
-349.479	-134.333	0.275	-0.034
-348.464	102.675	-0.182	0.212
-347.450	368.890	0.100	0.201
-346.435	65.492	0.112	0.113
-345.420	800.000	0.035	0.151
-344.406	119.652	0.022	-0.027
-343.391	-133.351	0.263	0.033
-342.377	67.299	0.119	-0.121
-341.362	-18.301	0.263	0.164
-340.348	800.000	-0.104	-0.414
-339.333	-7.150	0.188	0.127
-338.318	114.323	-0.161	-0.194
-337.304	-53.190	-0.312	-0.142
-336.289	-13.108	-0.295	-0.191
-335.275	153.712	-0.123	-0.167
-334.260	281.712	-0.208	-0.371
-333.245	57.421	0.054	-0.052
-332.231	257.965	0.125	-0.214
-331.216	-90.649	0.152	0.044
-330.202	62.874	0.255	-0.253
-329.187	800.000	-0.035	0.143
-328.172	-72.360	0.159	-0.059
-327.158	-200.000	-0.047	-0.233
-326.143	208.224	-0.123	-0.191
-325.129	526.842	-0.042	-0.098
-324.114	-40.078	0.205	0.106
-323.099	-55.779	0.152	-0.067
-322.085	-26.778	-0.308	0.179
-321.070	800.000	0.010	0.040
-320.056	-42.961	0.184	-0.093
-319.041	767.326	0.120	0.325
-318.026	-80.604	0.096	-0.032
-317.012	-200.000	0.033	-0.303
-315.997	26.848	0.135	0.112
-314.983	-181.645	-0.253	0.005
-313.968	-42.289	0.053	0.027
-312.953	-28.847	0.029	-0.017
-311.939	-200.000	0.027	0.283
-310.924	-200.000	-0.014	0.062
-309.910	355.253	0.093	0.183
-308.895	186.440	-0.102	-0.151
-307.880	69.559	0.174	-0.178
-306.866	-62.187	0.120	0.050
-305.851	-136.475	-0.026	0.003
-304.837	800.000	-0.025	0.075
-303.822	-30.500	-0.167	-0.094
-302.807	50.421	0.039	0.037
-301.793	-130.405	-0.200	0.027
-300.778	219.758	0.028	0.044
-299.764	-200.000	-0.030	0.329
-298.749	800.000	0.116	-0.359
-297.735	-54.993	-0.166	0.074
-296.720	-77.161	-0.120	0.042
-295.705	-67.819	0.435	0.169
-294.691	-98.886	0.311	0.079
-293.676	800.000	-0.114	0.455
-292.662	-117.313	-0.296	-0.053
-291.647	6.618	-0.176	-0.130
-290.632	13.226	0.060	0.046
-289.618	389.513	-0.247	0.508
-288.603	-200.000	-0.062	-0.276
-287.589	-64.311	-0.053	0.022
-286.574	-7.943	-0.113	-0.075
-285.559	-52.317	-0.359	-0.165
-284.545	-6.198	-0.156	-0.106
-283.530	100.042	-0.254	0.293
-282.516	-62.458	-0.139	0.057
-281.501	-82.458	-0.204	-0.066
-280.486	800.000	0.006	0.020
-279.472	-124.106	0.173	-0.027
-278.457	-4.824	-0.371	-0.254
-277.443	-5.962	0.291	-0.198
-276.428	800.000	-0.116	-0.481
-275.413	-31.838	0.236	0.131
-274.399	104.927	0.064	-0.075
-273.384	-63.595	-0.208	-0.084
-272.370	-89.015	-0.014	0.004
-271.355	125.913	-0.173	0.217
-270.340	-200.000	0.043	0.198
-269.326	-136.818	0.260	-0.030
-268.311	800.000	0.035	0.147
-267.297	51.924	-0.195	-0.184
-266.282	208.663	-0.174	-0.269
-265.267	-200.000	0.001	0.488
-264.253	-6.626	-0.164	0.111
-263.238	-127.719	0.084	0.012
-262.224	-48.912	-0.132	-0.063
-261.209	-119.241	-0.396	0.068
-260.195	-200.000	0.018	-0.163
-259.180	800.000	-0.067	-0.242
-258.165	135.415	-0.086	0.110
-257.151	-104.549	0.249	0.057
-256.136	-22.003	0.118	0.071
-255.122	387.539	-0.083	0.169
-254.107	696.486	0.120	0.311
-253.092	-38.940	0.130	-0.068
-252.078	800.000	0.025	-0.109
-251.063	53.182	0.166	0.157
-250.049	-113.820	0.210	0.041
-249.034	-192.865	-0.070	0.001
-248.019	-106.177	-0.229	0.051
-247.005	-200.000	-0.043	0.283
-245.990	204.904	0.061	0.094
-244.976	567.596	0.072	-0.174
-243.961	-97.619	-0.124	0.032
-242.946	-106.109	0.029	0.006
-241.932	17.614	-0.186	-0.147
-240.917	261.535	-0.137	0.235
-239.903	20.890	0.161	-0.129
-238.888	-58.705	0.180	-0.077
-237.873	161.683	-0.183	-0.253
-236.859	-93.562	0.206	-0.056
-235.844	2.921	0.216	0.155
-234.830	-45.035	0.161	-0.079
-233.815	549.376	0.096	0.228
-232.800	-94.770	0.357	-0.096
-231.786	-139.195	0.139	0.015
-230.771	-99.994	0.152	0.037
-229.757	565.780	0.112	0.270
-228.742	-21.261	0.152	-0.092
-227.727	106.294	-0.185	-0.217
-226.713	-200.000	-0.008	0.111
-225.698	-200.000	-0.014	-0.155
-224.684	-94.714	0.179	-0.048
-223.669	-146.631	0.253	-0.022
-222.655	104.540	-0.253	-0.295
-221.640	800.000	0.015	-0.043
-220.625	-30.562	0.235	0.132
-219.611	25.331	0.094	-0.077
-218.596	458.506	0.114	-0.251
-217.582	385.780	-0.085	0.173
-216.567	-64.100	0.295	-0.119
-215.552	267.401	-0.090	0.156
-214.538	-17.518	0.130	0.081
-213.523	-182.717	0.097	0.002
-212.509	243.023	-0.091	0.152
-211.494	-200.000	-0.001	0.222
-210.479	-102.925	0.293	-0.069
-209.465	140.266	-0.068	-0.089
-208.450	-200.000	0.020	-0.135
-207.436	200.693	-0.153	-0.233
-206.421	57.890	0.229	-0.222
-205.406	-200.000	-0.002	0.236
-204.392	-16.501	0.219	-0.137
-203.377	9.927	0.126	-0.095
-202.363	-107.718	-0.209	-0.045
-201.348	223.254	-0.052	-0.082
-200.333	-200.000	-0.036	-0.172
-199.319	378.566	0.057	0.115
-198.304	-200.000	-0.013	-0.074
-197.290	253.749	0.251	-0.423
-196.275	-130.617	-0.215	-0.029
-195.260	414.688	-0.115	0.243
-194.246	-200.000	0.018	-0.140
-193.231	132.437	-0.144	0.183
-192.217	392.272	0.048	0.098
-191.202	800.000	0.087	-0.245
-190.187	42.228	-0.123	-0.111
-189.173	455.817	-0.057	-0.124
-188.158	142.600	0.100	0.131
-187.144	741.328	0.129	-0.342
-186.129	176.560	-0.077	-0.111
-185.114	-38.713	-0.338	-0.176
-184.100	-17.896	0.024	-0.015
-183.085	-200.000	0.001	0.401
-182.071	121.817	-0.217	-0.268
-181.056	-102.635	0.339	-0.080
-180.042	800.000	0.061	-0.195
-179.027	800.000	-0.028	0.087
-178.012	800.000	-0.091	0.289
-176.998	-200.000	-0.003	0.243
-175.983	800.000	-0.103	0.295
-174.969	113.335	-0.156	0.187
-173.954	-93.084	0.478	0.131
-172.939	252.257	0.073	-0.123
-171.925	800.000	-0.060	0.252
-170.910	-200.000	-0.026	-0.159
-169.896	208.098	0.153	0.235
-168.881	164.901	0.206	-0.288
-167.866	169.614	0.070	-0.099
-166.852	-41.366	0.273	0.139
-165.837	164.722	-0.049	-0.068
-164.823	-40.382	-0.314	-0.161
-163.808	368.218	-0.149	-0.298
-162.793	-200.000	-0.007	0.218
-161.779	-118.944	-0.106	0.018
-160.764	-200.000	-0.073	-0.355
-159.750	-73.651	-0.300	0.108
-158.735	-200.000	-0.021	0.203
-157.720	-200.000	-0.003	0.028
-156.706	-128.841	0.090	-0.013
-155.691	243.202	-0.155	0.257
-154.677	-160.265	-0.279	-0.015
-153.662	384.945	-0.071	-0.145
-152.647	-38.489	0.189	-0.099
-151.633	-200.000	-0.032	-0.280
-150.618	800.000	0.032	0.097
-149.604	25.977	0.251	-0.207
-148.589	-26.685	-0.208	-0.120
-147.574	116.666	-0.092	0.112
-146.560	-72.515	0.167	-0.061
-145.545	-133.087	-0.130	-0.016
-144.531	-200.000	0.071	0.374
-143.516	54.973	0.138	0.132
-142.502	-68.055	-0.080	-0.031
-141.487	-92.678	0.276	0.076
-140.472	-105.835	0.019	0.004
-139.458	-82.945	-0.181	-0.057
-138.443	800.000	0.063	-0.265
-137.429	-200.000	0.030	-0.304
-136.414	440.257	-0.087	-0.188
-135.399	88.081	0.137	-0.149
-134.385	-104.260	0.049	-0.011
-133.370	-143.809	-0.125	0.012
-132.356	-120.188	-0.257	0.043
-131.341	56.375	-0.137	0.131
-130.326	-180.440	0.053	-0.001
-129.312	-3.074	-0.072	-0.050
-128.297	117.725	-0.185	0.224
-127.283	143.046	-0.260	0.342
-126.268	-69.253	0.330	0.125
-125.253	75.297	0.253	0.264
-124.239	800.000	0.045	0.167
-123.224	11.763	0.108	0.082
-122.210	-90.016	0.242	-0.070
-121.195	800.000	0.057	0.175
-120.180	-26.854	-0.261	-0.150
-119.166	-91.807	0.146	-0.041
-118.151	-200.000	0.025	0.553
-117.137	-79.640	-0.171	-0.057
-116.122	-200.000	0.055	0.321
-115.107	-200.000	-0.359	-0.002
-114.093	-200.000	-0.031	-0.217
-113.078	-82.492	0.275	-0.088
-112.064	800.000	0.034	0.094
-111.049	-200.000	0.048	0.252
-110.034	588.192	0.138	-0.336
-109.020	120.863	0.136	0.166
-108.005	778.768	0.111	0.300
-106.991	-22.453	-0.271	0.162
-105.976	800.000	0.066	0.225
-104.962	-200.000	0.022	0.097
-103.947	-84.640	0.165	0.051
-102.932	100.051	0.203	0.232
-101.918	-137.460	-0.406	-0.045
-100.903	-104.571	-0.039	0.009
-99.889	-8.215	0.162	0.107
-98.874	259.802	-0.046	0.078
-97.859	800.000	-0.085	0.352
-96.845	14.978	0.028	-0.022
-95.830	-103.052	-0.450	-0.105
-94.816	198.610	-0.061	0.091
-93.801	-49.951	0.150	-0.070
-92.786	-122.458	0.192	0.031
-91.772	479.568	-0.058	0.130
-90.757	-31.035	-0.406	0.226
-89.743	93.044	0.093	-0.103
-88.728	800.000	0.035	0.138
-87.713	9.779	-0.112	0.083
-86.699	-128.867	0.148	-0.020
-85.684	-200.000	-0.016	0.156
-84.670	342.574	0.058	-0.113
-83.655	-104.535	-0.112	0.025
-82.640	-108.905	0.071	-0.015
-81.626	-29.584	0.328	0.184
-80.611	98.748	0.375	0.426
-79.597	800.000	0.069	0.250
-78.582	800.000	0.043	0.168
-77.567	231.642	0.139	0.225
-76.553	-140.404	0.109	0.011
-75.538	-78.797	-0.205	0.069
-74.524	800.000	0.110	0.385
-73.509	13.357	0.086	-0.065
-72.494	-142.853	0.278	-0.027
-71.480	-15.196	-0.134	-0.084
-70.465	247.924	0.063	-0.105
-69.451	-200.000	-0.010	-0.101
-68.436	401.786	-0.045	0.093
-67.422	224.578	-0.081	0.129
-66.407	88.303	0.148	0.162
-65.392	-148.038	-0.377	-0.031
-64.378	-128.775	0.263	-0.037
-63.363	4.972	-0.289	0.209
-62.349	-49.356	0.294	0.138
-61.334	94.823	-1.011	-1.131
-60.319	-32.678	0.652	0.357
-59.305	729.393	-0.446	-1.172
-58.290	104.858	0.822	0.953
-57.276	416.914	0.722	1.515
-56.261	-200.000	95.372	568.437
-55.246	508.100	1408.206	3213.968
-54.232	153.827	2605.795	3510.929
-53.217	109.447	2210.242	2602.302
-52.203	42.307	1739.311	1553.798
-51.188	34.656	1546.598	1328.611
-50.173	32.142	1519.746	1288.270
-49.159	51.634	1568.409	1465.697
-48.144	52.862	1585.691	1490.338
-47.130	34.839	1546.148	1329.282
-46.115	31.668	1532.008	1295.181
-45.100	31.527	1528.309	1291.032
-44.086	31.570	1525.952	1289.284
-43.071	31.542	1523.692	1287.135
-42.057	31.454	1522.742	1285.676
-41.042	31.493	1521.055	1284.469
-40.027	31.430	1519.549	1282.712
-39.013	31.494	1517.504	1281.375
-37.998	31.341	1516.330	1279.280
-36.984	31.444	1515.661	1279.373
-35.969	31.488	1513.925	1278.161
-34.954	31.432	1512.854	1276.823
-33.940	31.306	1511.949	1275.143
-32.925	31.463	1510.053	1274.567
-31.911	31.530	1508.458	1273.628
-30.896	31.596	1507.152	1272.919
-29.881	31.567	1505.708	1271.458
-28.867	31.515	1504.523	1270.051
-27.852	31.515	1503.092	1268.790
-26.838	31.508	1501.693	1267.513
-25.823	31.488	1500.399	1266.237
-24.809	31.470	1498.491	1264.451
-23.794	31.538	1496.796	1263.433
-22.779	31.449	1495.939	1262.057
-21.765	31.583	1494.509	1261.704
-20.750	31.345	1494.356	1259.920
-19.736	31.445	1492.260	1258.774
-18.721	31.386	1491.457	1257.654
-17.706	31.453	1490.089	1256.901
-16.692	31.359	1489.045	1255.337
-15.677	31.488	1487.940	1255.224
-14.663	31.361	1487.294	1253.773
-13.648	31.365	1486.160	1252.794
-12.633	31.407	1485.162	1252.185
-11.619	31.523	1483.863	1251.818
-10.604	31.388	1483.251	1250.347
-9.590	31.355	1482.664	1249.584
-8.575	31.425	1481.684	1249.175
-7.560	31.400	1480.546	1247.997
-6.546	31.331	1479.734	1246.809
-5.531	31.342	1479.306	1246.468
-4.517	31.345	1477.827	1245.190
-3.502	31.423	1476.484	1244.534
-2.487	31.461	1475.493	1243.898
-1.473	31.318	1474.976	1242.462
-0.458	31.400	1473.728	1241.906
0.556	29.994	1464.004	1231.382
1.571	27.391	1438.756	1193.009
2.586	23.779	1376.372	1118.488
3.600	21.826	1291.940	1038.228
4.615	19.984	1246.453	991.052
5.629	17.091	1189.206	929.634
6.644	8.782	1101.953	819.025
7.659	1.607	1060.390	752.662
8.673	0.508	1054.830	743.240
9.688	0.511	1051.490	740.835
10.702	0.431	1050.130	739.417
11.717	0.470	1048.060	738.087
12.731	2.992	1050.999	752.451
13.746	11.008	1061.817	799.653
14.761	16.668	1068.827	832.784
15.775	17.171	1068.992	835.315
16.790	16.674	1066.208	830.626
17.804	15.724	1064.730	824.747
18.819	14.780	1063.244	818.898
19.834	14.296	1061.932	815.445
20.848	14.053	1060.278	812.912
21.863	13.699	1060.036	810.927
22.877	13.495	1058.851	808.950
23.892	13.241	1058.132	807.090
24.907	13.275	1057.114	806.407
25.921	13.252	1056.299	805.601
26.936	13.264	1056.276	805.573
27.950	13.352	1055.420	805.275
28.965	13.287	1054.488	804.177
29.980	13.296	1053.899	803.698
30.994	13.409	1052.490	803.105
32.009	13.458	1051.779	802.729
33.023	13.416	1051.072	801.911
34.038	13.389	1050.410	801.204
35.053	13.343	1049.852	800.487
36.067	13.289	1048.684	799.263
37.082	13.349	1047.641	798.689
38.096	13.419	1046.935	798.416
39.111	13.449	1046.281	797.994
40.126	13.404	1045.244	796.912
41.140	13.411	1044.464	796.282
42.155	13.311	1043.621	795.092
43.169	13.345	1042.359	794.220
44.184	13.278	1041.613	793.260
45.199	13.316	1040.405	792.451
46.213	13.285	1039.490	791.539
47.228	13.335	1038.520	790.967
48.242	13.321	1037.394	789.975
49.257	13.359	1036.596	789.479
50.271	13.287	1035.644	788.339
51.286	13.347	1034.415	787.620
52.301	13.359	1034.010	787.300
53.315	13.256	1033.312	786.209
54.330	13.373	1032.553	786.119
55.344	13.347	1031.395	785.043
56.359	13.367	1030.379	784.293
57.374	13.315	1029.471	783.288
58.388	13.289	1028.896	782.656
59.403	13.233	1028.204	781.799
60.417	13.308	1027.013	781.176
61.432	13.175	1027.098	780.545
62.447	13.084	1026.577	779.648
63.461	13.370	1024.469	779.326
64.476	13.085	1024.334	777.814
65.490	13.065	1023.870	777.297
66.505	13.137	1022.691	776.672
67.520	13.178	1022.056	776.313
68.534	13.223	1021.172	775.783
69.549	13.249	1020.527	775.348
70.563	13.248	1019.759	774.691
71.578	13.164	1019.115	773.741
72.593	13.248	1018.122	773.309
73.607	13.268	1016.858	772.376
74.622	13.245	1015.967	771.523
75.636	13.053	1015.292	770.045
76.651	13.167	1014.517	769.923
77.666	13.190	1013.782	769.401
78.680	13.184	1012.786	768.551
79.695	13.250	1012.132	768.293
80.709	13.202	1011.973	767.881
81.724	13.291	1010.677	767.242
82.739	13.295	1010.204	766.838
83.753	13.270	1009.700	766.267
84.768	13.340	1008.653	765.732
85.782	13.359	1007.735	765.056
86.797	13.340	1007.121	764.432
87.812	13.398	1006.257	763.975
88.826	13.330	1005.919	763.337
89.841	13.240	1005.102	762.238
90.855	13.314	1004.191	761.819
91.870	13.360	1003.743	761.623
92.884	13.500	1002.333	761.132
93.899	13.523	1001.729	760.709
94.914	13.411	1001.042	759.608
95.928	13.429	1000.140	758.936
96.943	13.509	999.756	758.947
97.957	13.438	998.923	757.919
98.972	13.499	997.687	757.195
99.987	13.581	997.012	756.988
101.001	13.535	996.460	756.295
102.016	13.456	996.002	755.517
103.030	13.519	994.881	754.891
104.045	13.307	994.043	753.219
105.060	13.405	993.180	752.947
106.074	13.503	992.017	752.443
107.089	13.396	991.372	751.403
108.103	13.347	990.232	750.248
109.118	13.310	989.265	749.282
110.133	13.343	988.378	748.693
111.147	13.467	987.406	748.453
112.162	13.377	986.766	747.491
113.176	13.243	985.848	746.125
114.191	13.309	985.364	745.992
115.206	13.363	984.435	745.466
116.220	13.388	983.532	744.829
117.235	13.432	982.633	744.281
118.249	13.381	982.156	743.624
119.264	13.467	980.986	743.057
120.279	13.356	980.251	741.938
121.293	13.410	979.266	741.368
122.308	13.374	978.731	740.736
123.322	13.356	977.668	739.786
124.337	13.424	976.663	739.267
125.352	13.304	975.659	737.903
126.366	13.383	974.307	737.169
127.381	13.321	973.514	736.225
128.395	13.239	972.680	735.168
129.410	13.248	972.005	734.632
130.424	13.392	970.812	734.303
131.439	13.413	969.806	733.571
132.454	13.468	968.770	732.968
133.468	13.445	968.694	732.740
134.483	13.364	967.764	731.614
135.497	13.485	966.837	731.384
136.512	13.478	966.121	730.746
137.527	13.481	965.305	730.079
138.541	13.453	965.014	729.670
139.556	13.510	964.014	729.102
140.570	13.530	963.294	728.581
141.585	13.501	962.419	727.726
142.600	13.468	962.070	727.252
143.614	13.644	961.104	727.230
144.629	13.498	960.686	726.210
145.643	13.540	959.680	725.569
146.658	13.434	959.141	724.634
147.673	13.425	957.669	723.417
148.687	13.500	957.118	723.263
149.702	13.609	956.042	722.864
150.716	13.445	955.155	721.414
151.731	13.442	954.400	720.765
152.746	13.555	953.708	720.671
153.760	13.547	952.970	720.017
154.775	13.514	952.481	719.440
155.789	13.597	951.545	719.028
156.804	13.401	951.341	717.962
157.819	13.704	949.907	718.126
158.833	13.634	949.165	717.200
159.848	13.707	948.749	717.137
160.862	13.645	947.882	716.150
161.877	13.622	946.891	715.241
162.892	13.635	946.452	714.899
163.906	13.581	945.659	714.004
164.921	13.605	944.509	713.178
165.935	13.576	943.802	712.455
166.950	13.676	942.656	711.959
167.964	13.704	941.542	711.174
168.979	13.698	940.640	710.403
169.994	13.766	939.458	709.737
171.008	13.499	939.517	708.578
172.023	13.664	938.378	708.364
173.037	13.753	937.684	708.153
174.052	13.787	936.795	707.566
175.067	13.762	936.032	706.820
176.081	13.796	935.243	706.306
177.096	13.581	934.464	704.743
178.110	13.631	933.861	704.435
179.125	13.711	933.093	704.134
180.140	13.854	931.900	703.779
181.154	13.831	931.384	703.231
182.169	13.828	930.632	702.587
183.183	13.716	930.580	702.011
184.198	13.908	929.118	701.656
185.213	13.869	928.417	700.903
186.227	13.920	927.961	700.711
187.242	13.894	927.565	700.240
188.256	14.046	926.523	700.030
189.271	13.985	926.044	699.350
190.286	14.031	925.011	698.702
191.300	13.901	924.393	697.630
192.315	13.829	923.899	696.889
193.329	13.734	923.105	695.831
194.344	13.809	922.271	695.456
195.359	13.884	921.861	695.397
196.373	13.928	921.312	695.107
197.388	13.892	920.579	694.342
198.402	14.097	919.909	694.634
199.417	14.041	919.700	694.178
200.432	14.178	918.996	694.157
201.446	14.123	918.733	693.670
202.461	14.151	918.672	693.678
203.475	14.140	917.996	693.060
204.490	14.297	917.029	692.923
205.504	14.144	916.564	691.873
206.519	14.063	915.570	690.726
207.534	14.058	915.083	690.277
208.548	14.126	914.278	689.889
209.563	14.135	913.681	689.414
210.577	14.013	913.130	688.433
211.592	14.126	912.416	688.300
212.607	14.286	911.386	688.125
213.621	14.202	911.321	687.670
214.636	14.230	910.081	686.788
215.650	14.345	909.599	686.834
216.665	14.308	908.783	686.006
217.680	14.408	908.091	685.836
218.694	14.303	907.715	685.061
219.709	14.406	907.268	685.085
220.723	14.489	906.118	684.495
221.738	14.373	905.911	683.803
222.753	14.451	904.974	683.355
223.767	14.462	904.108	682.688
224.782	14.448	903.354	682.001
225.796	14.401	903.062	681.527
226.811	14.431	902.482	681.149
227.826	14.397	901.484	680.200
228.840	14.386	901.092	679.796
229.855	14.413	900.064	679.073
230.869	14.604	899.456	679.332
231.884	14.481	899.005	678.430
232.899	14.503	897.932	677.648
233.913	14.444	897.392	676.942
234.928	14.486	896.668	676.508
235.942	14.524	896.029	676.117
236.957	14.571	895.112	675.557
237.972	14.567	894.478	675.003
238.986	14.492	894.215	674.441
240.001	14.504	893.334	673.766
241.015	14.625	892.773	673.773
242.030	14.551	892.435	673.159
243.045	14.572	891.494	672.472
244.059	14.582	890.986	672.071
245.074	14.515	890.081	671.061
246.088	14.603	889.516	670.927
247.103	14.674	889.384	671.056
248.117	14.707	888.364	670.358
249.132	14.725	888.087	670.163
250.147	14.789	887.391	669.832
251.161	14.859	886.752	669.574
252.176	14.874	885.999	669.004
253.190	14.922	885.461	668.730
254.205	15.009	884.712	668.453
255.220	14.978	884.160	667.852
256.234	14.969	883.328	667.130
257.249	15.042	883.172	667.245
258.263	14.950	882.306	666.167
259.278	14.948	881.959	665.838
260.293	14.981	881.626	665.656
261.307	15.077	881.063	665.554
262.322	15.146	880.099	665.041
263.336	15.083	879.839	664.537
264.351	15.150	878.778	663.942
265.366	15.181	878.096	663.490
266.380	15.129	877.753	662.966
267.395	15.215	877.134	662.781
268.409	15.152	875.961	661.587
269.424	15.206	875.331	661.266
270.439	15.228	874.650	660.779
271.453	15.106	873.981	659.736
272.468	15.183	873.173	659.369
273.482	15.148	872.998	659.040
274.497	15.107	872.439	658.400
275.512	15.206	871.545	658.056
276.526	15.239	870.460	657.306
277.541	15.386	869.966	657.452
278.555	15.353	869.356	656.806
279.570	15.331	869.163	656.515
280.585	15.415	868.446	656.242
281.599	15.256	867.928	655.174
282.614	15.454	867.161	655.308
283.628	15.457	866.333	654.638
284.643	15.412	865.888	654.068
285.657	15.355	865.434	653.445
286.672	15.382	865.385	653.455
287.687	15.446	864.755	653.171
288.701	15.379	864.361	652.552
289.716	15.366	863.602	651.874
290.730	15.413	862.738	651.346
291.745	15.612	861.883	651.412
292.760	15.509	861.468	650.643
293.774	15.434	861.281	650.152
294.789	15.598	860.299	649.989
295.803	15.679	859.679	649.776
296.818	15.544	859.085	648.750
297.833	15.557	858.429	648.246
298.847	15.591	857.666	647.742
299.862	15.661	857.416	647.766
300.876	15.605	856.086	646.491
301.891	15.579	855.935	646.218
302.906	15.742	854.864	645.979
303.920	15.818	854.201	645.714
304.935	15.744	853.861	645.115
305.949	15.882	853.199	645.085
306.964	15.837	852.660	644.449
307.979	15.856	851.765	643.788
308.993	15.853	851.609	643.601
310.008	15.957	850.741	643.285
311.022	15.867	850.595	642.776
312.037	15.762	850.314	642.107
313.052	15.967	849.518	642.228
314.066	15.805	848.851	641.049
315.081	15.829	848.063	640.492
316.095	15.926	847.497	640.374
317.110	15.759	847.266	639.507
318.125	15.799	846.599	639.102
319.139	15.843	846.193	638.904
320.154	15.881	845.591	638.537
321.168	15.948	844.926	638.231
322.183	15.889	844.465	637.604
323.197	15.831	844.264	637.178
324.212	15.938	843.948	637.286
325.227	16.002	842.904	636.683
326.241	15.983	842.237	636.055
327.256	15.954	841.726	635.500
328.270	16.105	841.150	635.579
329.285	15.956	840.446	634.428
330.300	16.100	839.969	634.555
331.314	16.077	839.570	634.110
332.329	16.046	838.715	633.293
333.343	16.069	838.161	632.906
334.358	16.096	837.728	632.624
335.373	16.340	836.693	632.701
336.387	16.286	836.117	632.008
337.402	16.129	836.165	631.398
338.416	16.256	835.042	630.969
339.431	16.177	834.900	630.512
340.446	16.209	834.248	630.081
341.460	16.213	834.084	629.918
342.475	16.372	833.350	629.902
343.489	16.381	832.965	629.590
344.504	16.277	832.851	629.060
345.519	16.367	831.706	628.474
346.533	16.448	831.130	628.285
347.548	16.412	830.549	627.656
348.562	16.392	830.136	627.214
349.577	16.271	829.322	626.095
350.592	16.284	829.081	625.906
351.606	16.397	828.883	626.117
352.621	16.278	828.175	625.088
353.635	16.335	827.668	624.858
354.650	16.363	827.380	624.693
355.665	16.470	826.986	624.733
356.679	16.487	826.274	624.202
357.694	16.440	825.563	623.439
358.708	16.593	824.992	623.516
359.723	16.476	824.709	622.817
360.738	16.544	823.789	622.315
361.752	16.673	823.419	622.457
362.767	16.596	823.216	621.963
363.781	16.707	822.545	621.811
364.796	16.660	822.144	621.280
365.810	16.648	821.849	620.955
366.825	16.800	821.225	620.990
367.840	16.570	821.397	620.218
368.854	16.784	820.451	620.236
369.869	16.574	820.223	619.236
370.883	16.773	819.709	619.524
371.898	16.746	819.265	619.035
372.913	16.697	818.507	618.227
373.927	16.900	817.934	618.482
374.942	16.847	817.330	617.776
375.956	16.935	816.603	617.491
376.971	16.933	816.042	617.007
377.986	16.832	815.372	616.077
379.000	16.927	814.914	616.022
380.015	17.017	814.520	615.998
381.029	16.994	814.114	615.552
382.044	16.975	813.217	614.750
383.059	17.080	812.838	614.790
384.073	17.071	812.134	614.171
385.088	17.047	811.967	613.901
386.102	16.897	811.530	612.975
387.117	16.982	810.662	612.571
388.132	16.950	810.190	612.047
389.146	16.862	810.430	611.856
390.161	17.003	809.726	611.777
391.175	17.031	809.471	611.631
392.190	16.997	809.147	611.211
393.205	17.068	808.476	610.904
394.219	17.162	807.530	610.477
395.234	17.051	807.735	610.178
396.248	16.982	807.003	609.324
397.263	16.964	806.344	608.707
398.278	17.169	805.717	608.913
399.292	17.088	805.521	608.421
400.307	16.964	805.104	607.610
401.321	17.091	804.634	607.654
402.336	17.196	804.157	607.616
403.350	17.079	803.830	606.897
404.365	17.015	803.836	606.618
405.380	17.199	802.871	606.495
406.394	17.182	802.616	606.187
407.409	17.370	801.919	606.278
408.423	17.347	801.792	606.045
409.438	17.298	801.700	605.748
410.453	17.388	800.686	605.249
411.467	17.325	800.195	604.599
412.482	17.373	800.103	604.645
413.496	17.453	799.432	604.371
414.511	17.437	799.039	603.963
415.526	17.393	798.632	603.445
416.540	17.561	798.160	603.631
417.555	17.526	798.056	603.377
418.569	17.438	797.522	602.609
419.584	17.405	797.142	602.150
420.599	17.587	796.157	601.997
421.613	108.221	1289.791	1462.960
422.628	92.990	1361.717	1463.039
