DTS Sentinel unit serial number:	SN413079Multiplexer serial number:	ORYXHardware model number:	OX4-SRSoftware version number:	ORYX F/W v4.00 Oryx Data Collector v3.7.2.0data status	okinstallation	princeton_trtdifferential loss correction	single-endedforward channel	channel 3reverse channel	N/Adate	2019/09/12time	10:46:10forward acquisition time	60.00reverse acquisition time	0.00gamma	496.2192k internal	0.2295k external	0.2295temperature offset calibration	1.0028default loss term (dB/km)	0.3790temperature slope calibration	1.0000multiplexer offset coefficient	1.0000multiplexer slope coefficient	1.0000fibre end	0.00T internal ref (°C)	37.75T ext. ref 1 (°C)	1.90T ext. ref 2 (°C)	36.27length (m)	temperature (°C)	Stokes	anti-Stokes-747.200	39.822	0.183	-0.168
-746.185	-87.917	-0.105	0.032
-745.171	290.267	-0.079	0.147
-744.156	-45.960	-0.247	0.124
-743.142	438.880	0.115	-0.257
-742.127	92.125	0.051	0.059
-741.112	5.929	-0.226	0.171
-740.098	114.032	-0.377	0.469
-739.083	-50.072	-0.341	-0.165
-738.069	195.761	0.074	0.116
-737.054	-166.025	0.102	-0.004
-736.039	-148.661	-0.493	0.041
-735.025	-200.000	0.004	0.105
-734.010	-65.981	0.071	0.029
-732.996	-150.029	-0.522	0.042
-731.981	-200.000	0.016	0.131
-730.966	-91.543	-0.328	0.095
-729.952	-118.615	-0.135	-0.024
-728.937	21.132	-0.190	-0.158
-727.923	800.000	-0.061	-0.262
-726.908	95.237	0.150	0.175
-725.894	126.403	-0.176	-0.227
-724.879	800.000	-0.030	0.100
-723.864	-8.192	-0.101	0.070
-722.850	437.483	0.049	-0.109
-721.835	120.230	0.139	-0.176
-720.821	25.539	-0.095	0.081
-719.806	-16.068	-0.320	-0.208
-718.791	-125.922	0.153	0.023
-717.777	-1.886	0.221	-0.158
-716.762	-182.230	0.242	0.005
-715.748	200.254	-0.192	-0.302
-714.733	106.514	0.119	-0.144
-713.718	-41.343	0.235	-0.124
-712.704	513.246	0.199	0.474
-711.689	-200.000	-0.036	0.243
-710.675	529.208	0.049	0.119
-709.660	-200.000	0.002	-0.183
-708.645	307.891	-0.174	0.331
-707.631	209.175	0.125	0.200
-706.616	9.183	-0.108	-0.083
-705.602	331.216	-0.029	0.057
-704.587	-200.000	-0.008	0.070
-703.572	-200.000	0.014	-0.134
-702.558	311.325	-0.055	-0.105
-701.543	-80.417	-0.329	-0.112
-700.529	-152.098	-0.338	0.025
-699.514	-108.894	-0.352	-0.077
-698.499	-200.000	-0.002	-0.079
-697.485	-124.596	-0.136	-0.021
-696.470	-170.763	-0.165	0.006
-695.456	79.857	-0.152	0.167
-694.441	494.410	0.085	-0.199
-693.426	-97.494	0.193	-0.051
-692.412	-148.622	0.251	-0.021
-691.397	-22.239	0.111	-0.069
-690.383	-124.143	0.211	0.034
-689.368	-80.894	-0.211	0.071
-688.354	-137.458	-0.117	-0.013
-687.339	554.914	-0.059	-0.146
-686.324	95.736	-0.220	0.257
-685.310	800.000	-0.087	-0.260
-684.295	-74.952	0.290	0.106
-683.281	800.000	-0.066	0.255
-682.266	-153.434	0.113	-0.008
-681.251	-80.463	0.290	0.099
-680.237	800.000	-0.050	0.179
-679.222	168.114	0.194	0.282
-678.208	582.142	0.144	0.361
-677.193	-135.018	-0.295	-0.036
-676.178	12.936	0.093	-0.073
-675.164	-122.057	0.365	-0.061
-674.149	-200.000	-0.061	-0.280
-673.135	-58.057	-0.390	-0.173
-672.120	-0.542	0.164	-0.119
-671.105	381.039	-0.062	-0.129
-670.091	25.491	0.089	0.075
-669.076	-48.680	-0.300	-0.147
-668.062	-69.539	0.278	-0.108
-667.047	-200.000	-0.002	-0.181
-666.032	146.629	0.083	-0.113
-665.018	800.000	0.053	-0.157
-664.003	-31.395	-0.061	0.035
-662.989	-49.300	-0.089	0.043
-661.974	-92.212	-0.150	-0.043
-660.959	-101.872	-0.288	0.071
-659.945	461.479	0.038	0.087
-658.930	-200.000	-0.028	0.324
-657.916	-200.000	0.008	0.085
-656.901	-151.270	-0.170	0.013
-655.886	800.000	0.117	-0.329
-654.872	-43.046	-0.310	0.160
-653.857	-153.551	0.177	-0.012
-652.843	78.081	0.127	0.138
-651.828	-200.000	-0.023	-0.201
-650.814	68.449	0.205	-0.214
-649.799	28.837	0.083	-0.071
-648.784	-38.955	0.103	-0.055
-647.770	-140.159	-0.212	-0.023
-646.755	89.337	0.151	-0.172
-645.741	-51.792	0.283	-0.134
-644.726	-98.673	-0.067	0.017
-643.711	-2.396	-0.228	0.163
-642.697	-200.000	0.000	0.014
-641.682	169.098	0.109	-0.158
-640.668	-138.442	-0.334	0.037
-639.653	31.953	0.111	0.098
-638.638	-81.018	0.210	0.071
-637.624	99.309	0.263	-0.309
-636.609	800.000	0.021	-0.074
-635.595	32.673	0.054	-0.048
-634.580	-200.000	0.022	0.136
-633.565	1.849	-0.020	0.015
-632.551	-200.000	0.016	0.079
-631.536	124.215	0.208	0.266
-630.522	800.000	-0.054	-0.214
-629.507	-200.000	-0.014	0.147
-628.492	-56.075	-0.140	0.064
-627.478	250.474	0.163	0.283
-626.463	-200.000	0.059	0.378
-625.449	800.000	0.082	0.285
-624.434	9.019	-0.121	0.093
-623.419	-200.000	0.001	-0.250
-622.405	747.632	0.078	-0.215
-621.390	182.167	-0.068	0.102
-620.376	-87.880	0.170	-0.052
-619.361	-57.812	-0.226	0.101
-618.346	41.938	-0.192	-0.177
-617.332	59.164	-0.045	-0.045
-616.317	800.000	0.030	0.134
-615.303	-200.000	-0.056	-0.474
-614.288	151.848	0.122	0.169
-613.273	-101.762	-0.329	0.081
-612.259	134.434	0.177	-0.233
-611.244	678.148	0.063	-0.166
-610.230	-133.650	-0.134	-0.017
-609.215	275.126	0.071	-0.127
-608.201	-200.000	0.013	0.208
-607.186	450.866	-0.067	0.151
-606.171	-84.030	-0.027	-0.009
-605.157	-25.815	-0.201	0.121
-604.142	-200.000	-0.026	0.179
-603.128	182.006	0.078	0.117
-602.113	64.014	0.074	0.076
-601.098	398.783	-0.049	0.104
-600.084	320.416	0.093	-0.179
-599.069	-129.677	0.104	0.015
-598.055	-48.347	0.048	0.023
-597.040	269.744	-0.087	0.155
-596.025	-39.973	0.055	0.029
-595.011	-200.000	0.047	-0.235
-593.996	-163.296	0.190	0.009
-592.982	452.420	0.073	0.164
-591.967	531.744	-0.099	-0.237
-590.952	73.460	-0.233	0.247
-589.938	98.533	0.059	-0.070
-588.923	-200.000	0.009	0.108
-587.909	-200.000	0.018	0.094
-586.894	-200.000	0.009	0.122
-585.879	-20.129	0.231	0.145
-584.865	-10.517	-0.330	-0.222
-583.850	-135.800	-0.525	-0.063
-582.836	-120.315	-0.247	-0.043
-581.821	113.547	0.325	-0.401
-580.806	-96.261	-0.180	-0.048
-579.792	124.823	-0.204	0.261
-578.777	-165.390	-0.034	0.002
-577.763	211.691	0.116	-0.185
-576.748	800.000	-0.040	-0.121
-575.733	762.580	0.107	0.296
-574.719	-50.213	-0.226	-0.109
-573.704	-200.000	-0.020	0.259
-572.690	800.000	0.106	-0.300
-571.675	-67.358	-0.540	-0.215
-570.661	81.415	-0.121	-0.133
-569.646	-49.032	0.267	0.130
-568.631	157.050	0.067	-0.095
-567.617	135.595	-0.085	-0.112
-566.602	800.000	-0.010	0.044
-565.588	800.000	-0.066	0.199
-564.573	-12.920	-0.199	-0.132
-563.558	-200.000	-0.030	-0.213
-562.544	-116.600	-0.148	0.028
-561.529	502.983	0.055	-0.128
-560.515	800.000	-0.084	-0.247
-559.500	800.000	0.099	-0.379
-558.485	169.140	-0.088	-0.127
-557.471	-157.196	-0.185	-0.011
-556.456	-3.926	0.175	-0.123
-555.442	-56.062	0.194	-0.088
-554.427	-50.848	-0.261	0.124
-553.412	33.987	0.195	0.172
-552.398	-200.000	0.063	0.427
-551.383	-200.000	-0.025	-0.290
-550.369	639.271	-0.048	-0.125
-549.354	-43.396	-0.227	0.116
-548.339	81.039	-0.069	-0.076
-547.325	328.090	-0.258	0.502
-546.310	-75.840	-0.101	-0.036
-545.296	179.788	-0.047	-0.070
-544.281	208.303	-0.189	0.300
-543.266	-41.027	-0.296	-0.155
-542.252	-83.957	-0.138	0.044
-541.237	738.625	0.064	-0.174
-540.223	-34.752	-0.049	0.027
-539.208	570.642	-0.047	0.116
-538.193	-200.000	-0.003	-0.028
-537.179	9.431	-0.351	0.269
-536.164	136.335	0.161	0.213
-535.150	19.372	-0.289	-0.235
-534.135	-134.369	-0.317	-0.039
-533.121	162.237	0.254	0.361
-532.106	175.956	0.157	0.231
-531.091	86.762	0.167	-0.187
-530.077	-200.000	-0.014	-0.445
-529.062	93.719	-0.091	0.105
-528.048	148.777	0.119	0.162
-527.033	-165.726	-0.053	-0.002
-526.018	-84.042	0.161	0.052
-525.004	195.343	-0.235	0.361
-523.989	67.102	-0.125	0.129
-522.975	-111.139	-0.308	-0.064
-521.960	-200.000	0.009	0.524
-520.945	-50.417	-0.180	-0.086
-519.931	-14.986	-0.145	-0.094
-518.916	486.225	-0.017	0.038
-517.902	9.317	-0.204	0.157
-516.887	143.063	-0.133	0.179
-515.872	316.627	-0.108	-0.207
-514.858	-104.168	0.130	0.031
-513.843	800.000	-0.033	-0.112
-512.829	233.286	0.057	0.095
-511.814	-200.000	-0.020	-0.312
-510.799	800.000	-0.137	-0.452
-509.785	-120.324	-0.140	-0.024
-508.770	85.782	-0.144	0.161
-507.756	-200.000	-0.013	0.126
-506.741	-50.337	-0.174	-0.083
-505.726	-14.147	0.221	0.144
-504.712	535.062	-0.009	0.021
-503.697	431.090	-0.107	0.235
-502.683	-4.629	-0.238	0.166
-501.668	-70.888	0.336	0.128
-500.653	-69.035	0.302	0.118
-499.639	11.168	0.137	0.106
-498.624	729.504	-0.162	-0.439
-497.610	-0.985	-0.275	-0.197
-496.595	-51.579	0.230	-0.109
-495.581	-200.000	-0.027	0.216
-494.566	-163.163	0.150	0.007
-493.551	-4.211	-0.194	0.136
-492.537	188.672	0.006	0.009
-491.522	-97.046	-0.059	-0.016
-490.508	138.402	-0.159	0.210
-489.493	-108.639	0.276	-0.060
-488.478	394.137	0.069	0.145
-487.464	-200.000	-0.058	0.693
-486.449	45.267	-0.007	-0.006
-485.435	296.784	0.106	-0.197
-484.420	1.620	-0.040	0.029
-483.405	-200.000	0.017	0.266
-482.391	-155.010	-0.253	0.017
-481.376	800.000	-0.042	-0.132
-480.362	-121.437	0.061	-0.010
-479.347	-42.747	0.237	0.122
-478.332	-117.618	0.274	-0.050
-477.318	-138.012	0.053	0.006
-476.303	800.000	-0.046	0.151
-475.289	-200.000	-0.004	-0.053
-474.274	-34.212	-0.270	-0.150
-473.259	137.891	-0.092	0.122
-472.245	-72.692	-0.089	-0.033
-471.230	-63.648	0.095	-0.039
-470.216	773.824	-0.045	0.124
-469.201	-11.335	-0.083	-0.055
-468.186	59.248	0.150	-0.149
-467.172	255.219	-0.204	-0.353
-466.157	90.308	-0.151	0.171
-465.143	-14.115	-0.211	-0.138
-464.128	165.320	-0.201	-0.287
-463.113	800.000	0.093	-0.287
-462.099	-129.775	-0.256	0.036
-461.084	-200.000	0.001	-0.097
-460.070	-200.000	-0.002	-0.119
-459.055	800.000	-0.078	-0.294
-458.040	45.814	0.207	-0.194
-457.026	156.155	-0.100	-0.139
-456.011	-200.000	-0.003	-0.063
-454.997	6.310	0.182	-0.137
-453.982	-200.000	-0.015	0.216
-452.968	-200.000	-0.044	-0.285
-451.953	296.493	-0.068	0.126
-450.938	181.247	-0.026	0.039
-449.924	-125.914	0.466	-0.071
-448.909	24.999	-0.112	0.094
-447.895	130.685	-0.170	0.221
-446.880	-131.576	0.190	0.025
-445.865	26.696	-0.224	-0.190
-444.851	250.818	-0.047	-0.081
-443.836	-200.000	0.039	-0.174
-442.822	-119.596	-0.415	0.073
-441.807	-187.872	0.019	-0.000
-440.792	213.821	0.091	0.146
-439.778	-200.000	0.024	-0.171
-438.763	245.107	0.180	-0.305
-437.749	212.300	-0.136	-0.216
-436.734	-200.000	0.035	0.362
-435.719	-2.025	-0.141	-0.100
-434.705	276.969	0.235	-0.421
-433.690	800.000	0.054	-0.231
-432.676	409.134	0.139	-0.297
-431.661	-74.659	-0.169	0.061
-430.646	-27.766	-0.393	0.230
-429.632	-50.924	0.155	-0.073
-428.617	-200.000	0.002	0.045
-427.603	131.335	0.093	-0.121
-426.588	-200.000	-0.012	0.183
-425.573	-122.436	-0.285	-0.047
-424.559	259.557	-0.025	-0.044
-423.544	-114.221	-0.318	0.062
-422.530	-90.368	0.599	0.175
-421.515	-104.800	-0.039	0.009
-420.500	559.379	-0.057	-0.139
-419.486	-19.835	0.276	-0.172
-418.471	-200.000	-0.059	-0.304
-417.457	-64.895	-0.128	0.052
-416.442	56.777	0.351	0.345
-415.428	-88.937	-0.152	-0.045
-414.413	-33.948	-0.083	0.046
-413.398	396.424	0.091	-0.191
-412.384	-41.434	0.177	-0.092
-411.369	-141.417	-0.321	0.033
-410.355	28.088	0.033	-0.028
-409.340	-108.116	0.085	-0.019
-408.325	-96.042	0.163	0.044
-407.311	222.456	-0.087	-0.141
-406.296	-46.185	0.536	-0.266
-405.282	238.087	0.127	-0.212
-404.267	233.427	-0.060	0.100
-403.252	87.889	-0.187	0.209
-402.238	-200.000	-0.063	-0.343
-401.223	187.938	0.120	0.181
-400.209	164.516	0.104	0.147
-399.194	24.874	-0.064	0.053
-398.179	-200.000	0.012	-0.207
-397.165	201.555	0.019	-0.030
-396.150	178.699	-0.130	-0.191
-395.136	110.275	-0.134	-0.162
-394.121	-61.116	-0.377	-0.161
-393.106	51.793	0.300	-0.288
-392.092	-79.010	-0.276	-0.095
-391.077	-200.000	0.018	0.147
-390.063	-200.000	0.023	-0.157
-389.048	62.450	0.298	-0.300
-388.033	-200.000	0.052	0.324
-387.019	-125.994	-0.373	0.057
-386.004	745.941	0.133	0.362
-384.990	800.000	-0.071	0.252
-383.975	-200.000	0.059	0.294
-382.960	-73.137	0.113	0.042
-381.946	-72.598	0.160	0.060
-380.931	85.528	0.300	-0.333
-379.917	-200.000	0.077	0.447
-378.902	17.985	0.211	0.170
-377.888	-50.802	-0.199	0.094
-376.873	5.652	0.118	0.088
-375.858	-174.098	0.227	0.007
-374.844	72.414	-0.183	-0.193
-373.829	65.371	-0.184	0.187
-372.815	149.795	0.175	0.238
-371.800	-200.000	-0.034	-0.273
-370.785	-119.153	-0.364	-0.064
-369.771	133.092	-0.063	0.082
-368.756	-59.577	-0.149	0.064
-367.742	-200.000	0.000	0.218
-366.727	214.493	-0.084	-0.134
-365.712	-200.000	-0.043	0.237
-364.698	-35.382	-0.050	0.027
-363.683	-84.279	-0.031	0.010
-362.669	268.025	0.206	-0.364
-361.654	-47.281	0.438	0.215
-360.639	309.007	0.089	0.167
-359.625	-200.000	-0.038	0.301
-358.610	33.689	-0.241	0.211
-357.596	-183.006	-0.282	0.005
-356.581	-85.637	-0.113	0.035
-355.566	-42.574	0.200	-0.102
-354.552	-170.249	0.147	0.005
-353.537	-200.000	0.022	0.214
-352.523	-111.967	0.184	-0.037
-351.508	12.306	0.255	-0.197
-350.493	-200.000	-0.090	-0.406
-349.479	-144.551	-0.276	0.026
-348.464	766.711	-0.105	0.286
-347.450	-127.126	0.192	-0.028
-346.435	157.964	-0.185	-0.258
-345.420	800.000	-0.083	0.259
-344.406	19.651	-0.136	-0.110
-343.391	337.513	-0.200	-0.391
-342.377	74.320	0.222	0.234
-341.362	-40.294	-0.177	0.093
-340.348	-200.000	-0.013	0.118
-339.333	305.670	0.081	-0.152
-338.318	-200.000	-0.010	-0.219
-337.304	-200.000	-0.034	0.183
-336.289	-34.529	0.184	-0.101
-335.275	-71.564	-0.301	-0.113
-334.260	403.795	0.160	0.340
-333.245	27.474	0.130	0.110
-332.231	179.480	-0.128	0.189
-331.216	340.086	-0.191	-0.375
-330.202	800.000	0.052	-0.218
-329.187	-26.494	0.220	-0.130
-328.172	-28.739	0.352	-0.203
-327.158	-16.827	-0.280	-0.178
-326.143	9.217	0.114	0.087
-325.129	426.926	-0.115	0.248
-324.114	165.302	-0.189	-0.268
-323.099	270.827	0.095	0.168
-322.085	-200.000	-0.029	0.354
-321.070	361.514	0.085	-0.172
-320.056	602.420	-0.123	0.308
-319.041	-72.690	0.352	-0.130
-318.026	39.022	-0.176	0.158
-317.012	332.313	0.103	-0.199
-315.997	350.649	-0.036	-0.072
-314.983	-200.000	-0.010	0.078
-313.968	86.850	0.175	0.194
-312.953	-115.933	0.234	0.044
-311.939	-0.327	-0.166	-0.118
-310.924	-200.000	0.024	-0.243
-309.910	-200.000	0.012	-0.088
-308.895	-148.464	0.207	-0.017
-307.880	125.655	0.194	0.247
-306.866	-53.130	0.111	-0.051
-305.851	185.217	-0.108	0.160
-304.837	-96.129	0.095	0.025
-303.822	-200.000	0.028	0.301
-302.807	133.023	-0.127	-0.165
-301.793	-200.000	-0.066	0.307
-300.778	-123.813	-0.345	-0.055
-299.764	-111.106	-0.190	-0.039
-298.749	-200.000	-0.069	0.439
-297.735	-32.692	0.164	0.092
-296.720	800.000	-0.012	-0.033
-295.705	-200.000	0.000	-0.061
-294.691	-200.000	-0.017	0.237
-293.676	71.676	0.215	0.225
-292.662	-115.029	0.130	-0.025
-291.647	-105.635	0.361	-0.082
-290.632	-200.000	0.002	-0.086
-289.618	-158.341	0.463	0.027
-288.603	-77.730	-0.178	0.062
-287.589	131.787	0.166	0.214
-286.574	-116.067	0.253	0.047
-285.559	-101.910	-0.397	0.096
-284.545	13.726	0.061	0.047
-283.530	588.138	-0.021	-0.051
-282.516	-200.000	-0.002	0.054
-281.501	-46.148	0.632	0.312
-280.486	-27.940	0.133	-0.078
-279.472	800.000	-0.072	0.209
-278.457	800.000	0.132	-0.373
-277.443	-200.000	-0.017	-0.183
-276.428	-44.210	-0.197	0.099
-275.413	-74.528	0.124	0.045
-274.399	800.000	0.094	-0.346
-273.384	107.221	-0.182	0.217
-272.370	56.345	0.222	0.217
-271.355	137.782	0.172	0.226
-270.340	-73.103	-0.291	-0.107
-269.326	333.895	0.110	-0.213
-268.311	670.406	0.134	0.348
-267.297	-200.000	-0.046	0.212
-266.282	126.041	-0.064	0.081
-265.267	180.526	0.221	0.325
-264.253	135.306	-0.099	0.129
-263.238	194.308	0.213	0.323
-262.224	150.166	-0.038	0.052
-261.209	-2.568	-0.041	0.029
-260.195	-31.279	0.230	-0.130
-259.180	304.645	0.181	-0.336
-258.165	598.151	-0.031	-0.078
-257.151	-91.861	-0.293	0.083
-256.136	-37.272	0.447	-0.240
-255.122	-3.487	0.301	-0.210
-254.107	-200.000	-0.019	0.094
-253.092	109.431	-0.089	0.107
-252.078	-45.964	0.312	0.154
-251.063	-51.102	0.024	0.011
-250.049	-200.000	0.002	-0.087
-249.034	-200.000	-0.038	0.405
-248.019	-24.403	-0.453	0.270
-247.005	24.280	-0.247	-0.204
-245.990	114.492	0.247	-0.301
-244.976	599.796	0.132	-0.328
-243.961	127.715	-0.166	0.211
-242.946	-157.488	0.162	-0.010
-241.932	-64.208	0.326	-0.133
-240.917	-53.657	-0.094	0.043
-239.903	114.011	-0.095	-0.116
-238.888	22.426	0.220	-0.180
-237.873	-159.879	0.181	0.010
-236.859	-94.077	0.222	-0.061
-235.844	-145.728	0.187	-0.017
-234.830	-96.188	0.170	-0.045
-233.815	461.169	0.137	0.307
-232.800	59.574	-0.087	-0.086
-231.786	-17.060	-0.228	0.144
-230.771	-24.024	0.132	0.079
-229.757	-200.000	-0.019	-0.273
-228.742	412.145	0.144	0.307
-227.727	800.000	0.116	0.323
-226.713	-170.116	-0.206	0.007
-225.698	-200.000	0.022	0.211
-224.684	-127.747	0.011	0.002
-223.669	-200.000	0.053	-0.378
-222.655	-200.000	-0.003	0.124
-221.640	-200.000	-0.031	-0.373
-220.625	-111.378	0.320	0.065
-219.611	173.513	0.079	0.114
-218.596	58.394	-0.150	-0.148
-217.582	153.202	0.066	0.090
-216.567	-200.000	0.005	0.107
-215.552	-187.220	-0.390	-0.005
-214.538	67.536	0.074	0.076
-213.523	27.016	-0.222	0.187
-212.509	-200.000	-0.007	-0.195
-211.494	-9.850	0.144	-0.096
-210.479	-126.288	-0.227	-0.034
-209.465	-200.000	-0.058	-0.282
-208.450	-76.066	-0.142	-0.050
-207.436	-100.727	0.058	-0.014
-206.421	183.226	0.119	0.176
-205.406	236.794	-0.047	-0.078
-204.392	90.330	0.186	-0.208
-203.377	-79.766	0.441	-0.149
-202.363	-53.300	-0.056	0.026
-201.348	-51.045	-0.241	0.113
-200.333	209.731	0.111	0.174
-199.319	544.936	0.114	0.273
-198.304	11.353	-0.273	-0.209
-197.290	330.588	-0.073	0.140
-196.275	-18.430	0.104	-0.065
-195.260	800.000	0.035	0.136
-194.246	-200.000	0.057	-0.278
-193.231	703.785	-0.112	-0.295
-192.217	658.972	0.073	0.189
-191.202	-200.000	-0.052	0.229
-190.187	800.000	0.034	0.135
-189.173	-9.463	0.297	-0.198
-188.158	-65.860	-0.126	-0.050
-187.144	24.855	0.102	0.084
-186.129	-139.309	0.434	-0.047
-185.114	-57.999	-0.129	-0.056
-184.100	-200.000	0.000	-0.037
-183.085	266.882	0.194	-0.338
-182.071	13.815	-0.147	-0.114
-181.056	303.800	-0.130	-0.241
-180.042	-126.663	-0.201	-0.030
-179.027	-200.000	0.015	0.127
-178.012	-187.848	0.065	-0.001
-176.998	-157.702	0.166	-0.010
-175.983	436.443	-0.059	-0.128
-174.969	-200.000	-0.044	0.315
-173.954	-8.927	0.423	-0.283
-172.939	-120.873	-0.318	-0.054
-171.925	-200.000	0.025	-0.111
-170.910	194.430	0.103	-0.157
-169.896	-200.000	-0.011	-0.309
-168.881	-162.963	0.272	-0.013
-167.866	800.000	-0.109	-0.319
-166.852	174.632	-0.153	0.221
-165.837	-200.000	-0.030	0.363
-164.823	125.313	0.186	-0.234
-163.808	183.929	-0.151	-0.223
-162.793	280.042	-0.091	0.162
-161.779	-39.142	0.273	0.143
-160.764	800.000	-0.058	-0.185
-159.750	70.430	-0.240	-0.248
-158.735	-73.362	-0.098	-0.036
-157.720	-200.000	0.058	0.346
-156.706	22.287	-0.248	0.203
-155.691	-200.000	0.005	0.034
-154.677	800.000	0.123	-0.340
-153.662	-97.354	-0.056	0.015
-152.647	86.217	-0.100	-0.110
-151.633	421.760	0.074	-0.159
-150.618	-106.038	0.155	-0.035
-149.604	242.118	-0.065	0.109
-148.589	57.356	0.169	-0.165
-147.574	-8.882	0.058	-0.039
-146.560	-143.636	-0.136	-0.013
-145.545	-23.310	0.409	0.246
-144.531	277.843	0.204	0.363
-143.516	161.011	-0.078	0.108
-142.502	234.644	0.191	-0.314
-141.487	220.377	0.032	-0.052
-140.472	88.545	-0.454	0.504
-139.458	-200.000	-0.050	-0.257
-138.443	-162.894	0.415	-0.020
-137.429	-24.547	-0.143	-0.085
-136.414	-200.000	-0.037	0.209
-135.399	109.173	0.157	0.187
-134.385	-177.453	-0.225	0.006
-133.370	-26.347	-0.111	0.065
-132.356	296.463	-0.287	-0.526
-131.341	-200.000	-0.097	0.720
-130.326	-53.900	-0.241	0.110
-129.312	-23.951	-0.217	0.130
-128.297	800.000	-0.091	-0.338
-127.283	800.000	-0.056	-0.165
-126.268	26.901	-0.069	-0.058
-125.253	635.004	-0.070	0.178
-124.239	-135.764	-0.188	-0.022
-123.224	-26.085	0.094	-0.055
-122.210	27.035	0.054	0.045
-121.195	-200.000	0.025	0.231
-120.180	-101.822	-0.099	-0.024
-119.166	127.759	0.057	-0.073
-118.151	-200.000	-0.017	0.076
-117.137	-167.985	0.241	0.009
-116.122	-200.000	0.040	0.356
-115.107	-178.708	0.102	-0.002
-114.093	-90.984	0.129	-0.037
-113.078	-200.000	-0.007	0.507
-112.064	800.000	-0.059	0.185
-111.049	-120.096	-0.145	0.025
-110.034	-107.735	0.174	-0.038
-109.020	-100.590	0.273	-0.067
-108.005	800.000	-0.126	0.418
-106.991	237.055	-0.106	0.175
-105.976	-134.183	0.150	0.018
-104.962	-200.000	-0.035	-0.332
-103.947	-18.646	-0.133	-0.083
-102.932	-13.703	-0.099	-0.064
-101.918	543.399	0.131	-0.311
-100.903	53.382	-0.168	0.161
-99.889	-91.264	0.251	0.072
-98.874	-200.000	-0.023	0.204
-97.859	47.519	-0.229	-0.213
-96.845	-102.680	0.042	0.010
-95.830	-121.112	-0.118	-0.020
-94.816	395.613	-0.079	-0.164
-93.801	-100.622	-0.249	0.061
-92.786	-138.628	0.460	-0.050
-91.772	59.569	0.129	0.127
-90.757	24.951	0.467	0.385
-89.743	-61.936	0.149	0.062
-88.728	23.931	-0.078	0.064
-87.713	-24.299	-0.245	0.145
-86.699	-164.797	0.077	0.003
-85.684	-159.488	-0.045	-0.002
-84.670	-200.000	0.014	0.140
-83.655	-200.000	-0.053	-0.547
-82.640	529.177	0.042	-0.099
-81.626	-105.096	-0.195	0.044
-80.611	-200.000	0.033	-0.181
-79.597	124.997	0.065	0.082
-78.582	-99.134	0.131	0.033
-77.567	375.306	-0.104	-0.211
-76.553	-200.000	-0.052	-0.234
-75.538	68.150	0.141	-0.143
-74.524	118.984	0.132	0.162
-73.509	477.444	-0.140	0.315
-72.494	-84.916	0.123	-0.039
-71.480	-145.821	0.146	0.013
-70.465	-146.655	0.498	-0.043
-69.451	-200.000	0.032	-0.378
-68.436	-112.744	0.115	0.023
-67.422	-200.000	-0.002	-0.058
-66.407	34.174	-0.145	-0.126
-65.392	28.237	0.262	0.220
-64.378	-157.729	-0.495	-0.029
-63.363	-72.418	-0.064	-0.024
-62.349	225.263	0.168	0.271
-61.334	104.644	-0.711	-0.833
-60.319	82.675	0.297	0.321
-59.305	800.000	-0.208	-0.611
-58.290	205.486	0.515	0.796
-57.276	800.000	0.650	1.866
-56.261	-200.000	83.843	493.810
-55.246	455.152	1390.350	3066.341
-54.232	143.730	2610.947	3461.227
-53.217	109.165	2256.967	2686.594
-52.203	47.233	1781.378	1649.883
-51.188	40.766	1586.846	1423.501
-50.173	38.328	1558.999	1381.264
-49.159	54.395	1602.260	1534.923
-48.144	58.698	1621.604	1584.204
-47.130	41.443	1582.159	1423.902
-46.115	38.122	1566.826	1386.515
-45.100	37.878	1563.724	1381.989
-44.086	37.806	1561.743	1379.675
-43.071	37.735	1559.768	1377.367
-42.057	37.727	1557.739	1375.467
-41.042	37.748	1556.364	1374.349
-40.027	37.811	1554.586	1373.167
-39.013	37.721	1553.432	1371.457
-37.998	37.732	1551.910	1370.141
-36.984	37.667	1550.773	1368.620
-35.969	37.791	1549.320	1368.155
-34.954	37.766	1547.829	1366.613
-33.940	37.770	1546.771	1365.654
-32.925	37.788	1545.178	1364.319
-31.911	37.766	1544.199	1363.244
-30.896	37.833	1542.683	1362.317
-29.881	37.836	1541.072	1360.865
-28.867	37.820	1539.735	1359.517
-27.852	37.751	1538.308	1357.723
-26.838	37.788	1536.614	1356.432
-25.823	37.807	1534.958	1355.047
-24.809	37.824	1532.761	1353.173
-23.794	37.838	1532.049	1352.585
-22.779	37.832	1531.176	1351.719
-21.765	37.939	1529.539	1350.967
-20.750	37.769	1528.725	1349.015
-19.736	37.790	1527.435	1347.966
-18.721	37.704	1526.545	1346.534
-17.706	37.803	1524.852	1345.673
-16.692	37.789	1523.388	1344.232
-15.677	37.755	1523.018	1343.613
-14.663	37.688	1521.928	1342.137
-13.648	37.710	1520.881	1341.313
-12.633	37.644	1520.012	1340.039
-11.619	37.787	1518.478	1339.616
-10.604	37.677	1517.931	1338.325
-9.590	37.718	1516.919	1337.661
-8.575	37.651	1516.559	1336.832
-7.560	37.716	1515.242	1336.062
-6.546	37.679	1514.705	1335.280
-5.531	37.604	1514.023	1334.112
-4.517	37.714	1512.522	1333.494
-3.502	37.685	1511.379	1332.233
-2.487	37.707	1510.070	1331.177
-1.473	37.765	1509.346	1330.882
-0.458	37.689	1508.261	1329.352
0.556	37.863	1499.036	1320.751
1.571	35.691	1472.284	1282.593
2.586	32.472	1410.345	1207.909
3.600	30.857	1326.179	1125.969
4.615	29.095	1276.521	1073.449
5.629	23.944	1215.806	993.612
6.644	12.148	1122.498	856.068
7.659	3.423	1076.121	776.812
8.673	2.131	1070.154	765.960
9.688	1.960	1066.391	762.345
10.702	1.739	1065.101	760.252
11.717	1.760	1063.213	758.941
12.731	5.021	1067.603	778.300
13.746	15.727	1083.504	843.807
14.761	23.894	1094.037	893.133
15.775	25.170	1095.085	900.319
16.790	25.233	1094.674	900.221
17.804	25.090	1093.611	898.550
18.819	25.009	1092.352	897.031
19.834	25.066	1092.406	897.281
20.848	25.174	1091.523	897.016
21.863	25.217	1091.209	896.893
22.877	25.389	1090.419	897.023
23.892	25.240	1090.155	895.984
24.907	25.098	1089.383	894.560
25.921	25.148	1088.727	894.193
26.936	25.119	1087.747	893.161
27.950	25.069	1086.804	892.063
28.965	25.145	1085.473	891.265
29.980	24.906	1084.222	888.976
30.994	24.914	1082.877	887.834
32.009	25.130	1081.773	887.921
33.023	25.282	1081.154	888.087
34.038	25.064	1080.310	886.235
35.053	24.967	1079.722	885.193
36.067	25.207	1078.912	885.638
37.082	25.068	1078.256	884.336
38.096	25.223	1077.211	884.163
39.111	25.350	1076.716	884.305
40.126	25.504	1075.441	883.935
41.140	25.374	1074.526	882.469
42.155	25.062	1073.059	879.651
43.169	24.770	1071.760	877.082
44.184	24.789	1071.002	876.473
45.199	24.764	1069.799	875.288
46.213	24.679	1069.104	874.230
47.228	24.673	1068.093	873.297
48.242	24.940	1067.061	873.677
49.257	25.073	1066.542	873.824
50.271	25.135	1065.765	873.413
51.286	25.142	1065.275	872.966
52.301	25.169	1064.353	872.264
53.315	25.263	1063.487	871.936
54.330	25.175	1063.024	871.051
55.344	25.044	1062.321	869.761
56.359	25.055	1061.295	868.899
57.374	25.077	1060.763	868.491
58.388	24.845	1059.607	866.348
59.403	24.926	1058.637	865.868
60.417	24.829	1058.580	865.274
61.432	24.821	1057.579	864.343
62.447	24.705	1056.782	863.054
63.461	24.819	1056.406	863.220
64.476	24.989	1055.319	863.074
65.490	24.939	1054.058	861.727
66.505	24.729	1053.750	860.388
67.520	24.741	1053.126	859.859
68.534	24.986	1051.543	859.668
69.549	24.857	1051.176	858.676
70.563	24.485	1049.644	855.562
71.578	24.300	1049.167	854.215
72.593	24.261	1048.501	853.408
73.607	24.273	1047.005	852.174
74.622	24.267	1046.301	851.496
75.636	24.572	1045.865	852.520
76.651	24.543	1045.138	851.715
77.666	24.612	1044.016	851.053
78.680	24.435	1043.263	849.522
79.695	24.513	1042.386	849.103
80.709	24.561	1042.026	848.965
81.724	24.802	1040.868	849.087
82.739	24.714	1040.078	847.951
83.753	24.752	1039.595	847.665
84.768	25.002	1038.844	848.160
85.782	25.206	1038.573	848.828
86.797	25.523	1037.600	849.458
87.812	25.445	1036.943	848.474
88.826	25.279	1035.619	846.535
89.841	25.243	1035.104	845.870
90.855	25.439	1034.117	845.909
91.870	25.331	1033.824	845.087
92.884	25.436	1032.683	844.576
93.899	25.268	1031.456	842.706
94.914	25.183	1030.444	841.407
95.928	25.303	1029.945	841.487
96.943	25.280	1029.165	840.670
97.957	25.089	1028.198	838.911
98.972	24.756	1026.865	836.192
99.987	24.536	1025.940	834.334
101.001	24.594	1025.354	834.054
102.016	25.009	1024.880	835.534
103.030	25.039	1024.055	834.925
104.045	24.958	1022.914	833.545
105.060	24.833	1021.579	831.805
106.074	24.699	1020.349	830.107
107.089	24.793	1019.602	829.863
108.103	24.969	1019.448	830.477
109.118	25.206	1018.404	830.650
110.133	24.792	1017.516	827.940
111.147	24.823	1016.326	827.042
112.162	24.730	1015.193	825.616
113.176	24.597	1013.836	823.825
114.191	24.694	1013.566	823.982
115.206	24.740	1012.603	823.338
116.220	24.379	1011.409	820.633
117.235	24.284	1010.429	819.327
118.249	24.319	1010.191	819.225
119.264	24.438	1009.207	818.898
120.279	24.275	1008.351	817.383
121.293	24.376	1007.821	817.344
122.308	24.408	1006.961	816.721
123.322	24.495	1005.871	816.163
124.337	24.394	1005.047	814.962
125.352	24.410	1003.583	813.774
126.366	24.019	1001.552	810.276
127.381	23.683	1000.659	807.956
128.395	24.239	1000.290	810.114
129.410	24.726	1000.496	812.419
130.424	24.994	999.647	812.874
131.439	24.789	999.109	811.438
132.454	25.074	997.529	811.373
133.468	25.016	996.748	810.402
134.483	25.045	995.892	809.767
135.497	25.008	995.263	809.014
136.512	25.151	995.005	809.382
137.527	25.289	994.060	809.163
138.541	25.164	993.604	808.156
139.556	25.259	992.668	807.751
140.570	25.211	991.891	806.831
141.585	25.231	990.708	805.889
142.600	25.467	989.708	806.060
143.614	25.262	989.199	804.659
144.629	25.486	988.271	804.832
145.643	25.498	988.253	804.801
146.658	25.384	987.024	803.219
147.673	25.237	985.456	801.215
148.687	25.007	984.901	799.669
149.702	25.084	983.152	798.522
150.716	25.028	982.071	797.322
151.731	24.992	981.400	796.547
152.746	25.046	980.735	796.176
153.760	25.275	980.099	796.606
154.775	25.301	979.292	795.993
155.789	25.489	978.331	795.978
156.804	25.366	977.643	794.801
157.819	25.364	976.696	793.954
158.833	25.223	976.203	792.861
159.848	25.548	974.606	792.926
160.862	25.675	973.970	792.897
161.877	25.446	973.033	791.056
162.892	25.298	972.289	789.728
163.906	25.463	971.423	789.681
164.921	25.400	970.292	788.419
165.935	25.296	969.317	787.100
166.950	25.264	968.510	786.233
167.964	25.281	967.690	785.573
168.979	25.223	966.793	784.520
169.994	25.245	964.990	783.083
171.008	25.061	964.307	781.659
172.023	25.240	963.690	781.868
173.037	25.328	963.106	781.711
174.052	25.215	961.854	780.135
175.067	24.992	960.657	778.124
176.081	25.058	959.714	777.577
177.096	25.053	959.111	777.001
178.110	25.091	958.549	776.638
179.125	24.928	957.329	774.877
180.140	24.590	956.335	772.543
181.154	24.732	955.764	772.628
182.169	24.739	955.247	772.169
183.183	25.076	954.881	773.263
184.198	25.243	954.367	773.495
185.213	25.309	953.350	772.887
186.227	25.189	952.888	771.930
187.242	25.182	953.084	771.987
188.256	25.211	952.100	771.247
189.271	25.251	951.037	770.490
190.286	25.508	950.430	771.032
191.300	25.323	949.476	769.400
192.315	24.835	947.763	765.856
193.329	23.923	946.104	760.550
194.344	23.495	945.558	758.211
195.359	24.078	945.724	760.770
196.373	24.967	945.998	764.720
197.388	25.253	945.995	765.873
198.402	25.186	945.314	764.967
199.417	25.227	944.464	764.387
200.432	25.102	944.234	763.600
201.446	24.994	943.549	762.517
202.461	24.745	942.500	760.546
203.475	24.869	941.953	760.561
204.490	24.527	940.579	757.935
205.504	23.201	938.527	750.595
206.519	23.726	938.008	752.337
207.534	24.699	938.279	756.609
208.548	24.785	938.107	756.768
209.563	25.177	937.717	758.043
210.577	25.202	936.969	757.476
211.592	24.892	936.122	755.418
212.607	25.286	936.035	756.941
213.621	25.482	935.687	757.419
214.636	25.332	934.927	756.104
215.650	25.360	934.269	755.622
216.665	25.195	934.053	754.689
217.680	25.289	933.452	754.533
218.694	25.384	932.554	754.138
219.709	25.151	931.721	752.420
220.723	24.809	930.600	750.016
221.738	24.972	930.328	750.413
222.753	25.121	930.136	750.814
223.767	25.008	929.561	749.810
224.782	25.328	928.119	749.918
225.796	25.398	927.502	749.647
226.811	25.440	927.238	749.541
227.826	25.158	925.838	747.171
228.840	24.320	924.674	742.677
229.855	24.076	923.862	740.940
230.869	24.458	923.610	742.262
231.884	24.340	922.357	740.702
232.899	24.134	921.966	739.466
233.913	24.951	921.949	742.777
234.928	25.177	921.716	743.461
235.942	25.079	920.825	742.272
236.957	25.113	920.299	741.920
237.972	24.922	919.001	740.021
238.986	24.810	918.528	739.112
240.001	24.847	917.934	738.722
241.015	24.867	917.198	738.144
242.030	24.877	916.818	737.816
243.045	25.012	916.307	737.892
244.059	25.202	915.674	738.100
245.074	25.452	915.202	738.684
246.088	25.358	914.491	737.657
247.103	24.929	913.487	735.021
248.117	24.849	913.016	734.249
249.132	25.398	913.285	736.655
250.147	25.834	913.317	738.401
251.161	25.975	912.270	738.066
252.176	26.141	912.013	738.474
253.190	25.959	911.359	737.135
254.205	26.021	911.045	737.069
255.220	26.234	910.576	737.493
256.234	26.225	909.772	736.738
257.249	26.079	908.899	735.372
258.263	26.062	908.299	734.754
259.278	26.048	907.823	734.245
260.293	25.993	907.697	733.854
261.307	26.183	907.056	734.045
262.322	25.941	906.517	732.558
263.336	25.998	905.474	731.882
264.351	25.643	904.013	729.200
265.366	24.495	902.064	722.917
266.380	24.005	901.268	720.232
267.395	24.995	901.434	724.307
268.409	25.697	901.999	727.537
269.424	25.578	901.110	726.273
270.439	25.712	900.704	726.424
271.453	25.811	900.090	726.263
272.468	25.793	899.671	725.789
273.482	26.039	899.050	726.213
274.497	26.087	898.749	726.100
275.512	26.031	897.363	724.691
276.526	25.433	896.192	721.282
277.541	25.699	895.731	721.914
278.555	25.957	895.483	722.684
279.570	25.740	895.131	721.465
280.585	25.634	894.173	720.205
281.599	25.686	893.750	720.011
282.614	25.772	893.176	719.827
283.628	25.202	892.133	716.646
284.643	24.976	891.199	714.933
285.657	25.358	891.324	716.491
286.672	25.342	890.355	715.586
287.687	24.893	889.274	712.865
288.701	25.152	889.548	714.056
289.716	25.539	888.872	714.990
290.730	25.276	888.102	713.262
291.745	24.903	887.871	711.531
292.760	24.901	886.193	710.113
293.774	24.895	885.840	709.743
294.789	25.721	886.592	713.561
295.803	26.267	886.396	715.503
296.818	26.373	886.537	715.971
297.833	26.384	885.789	715.350
298.847	26.245	884.323	713.552
299.862	25.959	883.052	711.335
300.876	26.060	882.785	711.455
301.891	26.265	882.883	712.281
302.906	26.535	881.990	712.560
303.920	26.209	880.786	710.243
304.935	25.816	880.663	708.534
305.949	26.231	880.310	709.819
306.964	26.424	879.681	710.005
307.979	26.241	878.377	708.176
308.993	26.179	878.235	707.752
310.008	26.395	878.153	708.472
311.022	26.605	877.723	708.886
312.037	26.441	876.852	707.476
313.052	26.049	876.788	705.830
314.066	26.091	875.430	704.836
315.081	25.363	873.913	700.713
316.095	24.585	872.513	696.497
317.110	25.145	872.996	699.007
318.125	26.007	873.296	702.545
319.139	25.592	872.344	700.100
320.154	24.310	870.099	693.257
321.168	23.866	869.336	690.860
322.183	24.442	869.920	693.503
323.197	25.440	869.950	697.342
324.212	25.880	869.603	698.707
325.227	26.047	869.127	698.910
326.241	26.095	869.141	699.048
327.256	26.093	868.389	698.371
328.270	25.878	867.551	696.806
329.285	25.857	866.800	696.060
330.300	25.768	865.991	695.005
331.314	25.583	865.001	693.433
332.329	25.526	864.998	693.153
333.343	26.032	864.486	694.629
334.358	26.319	864.463	695.653
335.373	26.183	863.812	694.547
336.387	26.263	863.283	694.368
337.402	26.486	862.810	694.781
338.416	26.749	862.096	695.155
339.431	26.776	861.905	695.040
340.446	26.733	861.358	694.372
341.460	26.860	861.180	694.655
342.475	26.759	860.237	693.447
343.489	26.599	859.923	692.521
344.504	26.582	859.035	691.679
345.519	26.976	858.521	692.708
346.533	27.158	858.327	693.186
347.548	27.140	857.761	692.597
348.562	27.017	857.495	691.850
349.577	27.065	856.772	691.391
350.592	27.038	856.062	690.653
351.606	26.945	855.645	689.903
352.621	26.994	855.267	689.723
353.635	26.776	854.956	688.585
354.650	26.830	854.257	688.163
355.665	26.518	853.025	685.928
356.679	25.347	851.592	680.281
357.694	25.196	851.110	679.267
358.708	25.982	850.853	681.974
359.723	26.019	850.047	681.405
360.738	26.176	850.145	682.018
361.752	26.741	849.721	683.751
362.767	26.767	849.512	683.621
363.781	26.972	849.397	684.241
364.796	27.208	849.638	685.262
365.810	27.326	849.026	685.152
366.825	27.378	848.571	684.919
367.840	27.396	848.467	684.845
368.854	27.219	847.787	683.568
369.869	26.937	846.425	681.352
370.883	26.665	845.738	679.719
371.898	26.697	845.448	679.544
372.913	26.592	844.772	678.547
373.927	26.676	843.945	678.138
374.942	26.778	843.676	678.245
375.956	26.975	842.757	678.182
376.971	27.179	842.116	678.367
377.986	27.153	841.988	678.107
379.000	27.476	841.120	678.551
380.015	27.327	841.042	677.874
381.029	27.124	840.534	676.648
382.044	26.989	840.024	675.673
383.059	27.263	839.136	675.918
384.073	27.342	838.479	675.622
385.088	27.288	838.099	675.059
386.102	27.397	837.501	674.918
387.117	27.158	836.341	673.039
388.132	27.215	835.836	672.784
389.146	26.966	835.155	671.257
390.161	26.224	834.690	668.081
391.175	26.502	834.132	668.603
392.190	26.990	834.215	670.412
393.205	26.988	833.935	670.119
394.219	26.102	831.847	665.118
395.234	24.464	829.389	657.071
396.248	23.610	828.136	652.882
397.263	24.564	829.443	657.366
398.278	26.294	830.719	664.689
399.292	26.857	830.851	666.806
400.307	26.610	829.962	665.128
401.321	26.696	829.683	665.161
402.336	26.610	829.380	664.543
403.350	26.951	829.314	665.683
404.365	27.356	829.010	666.861
405.380	27.639	828.867	667.726
406.394	27.825	828.503	668.055
407.409	28.147	828.250	668.970
408.423	28.093	827.390	668.018
409.438	27.959	827.106	667.238
410.453	27.903	826.618	666.582
411.467	28.045	826.208	666.712
412.482	28.102	825.525	666.307
413.496	27.908	825.300	665.360
414.511	28.035	824.697	665.279
415.526	28.106	824.529	665.342
416.540	28.168	823.953	665.043
417.555	28.174	823.202	664.402
418.569	27.739	822.817	662.451
419.584	27.707	822.036	661.650
420.599	27.832	821.385	661.521
421.613	100.209	1274.821	1413.213
422.628	86.575	1340.926	1413.345
