DTS Sentinel unit serial number:	SN413079Multiplexer serial number:	ORYXHardware model number:	OX4-SRSoftware version number:	ORYX F/W v4.00 Oryx Data Collector v3.7.2.0data status	okinstallation	princeton_trtdifferential loss correction	single-endedforward channel	channel 3reverse channel	N/Adate	2019/09/16time	05:48:35forward acquisition time	60.00reverse acquisition time	0.00gamma	496.2192k internal	0.2335k external	0.2335temperature offset calibration	0.9959default loss term (dB/km)	0.3790temperature slope calibration	1.0000multiplexer offset coefficient	1.0000multiplexer slope coefficient	1.0000fibre end	0.00T internal ref (°C)	27.37T ext. ref 1 (°C)	11.20T ext. ref 2 (°C)	22.21length (m)	temperature (°C)	Stokes	anti-Stokes-747.200	-45.853	0.347	-0.172
-746.185	-200.000	0.016	0.171
-745.171	16.582	0.245	0.195
-744.156	-200.000	-0.013	0.337
-743.142	-83.203	-0.195	-0.063
-742.127	202.868	-0.172	0.268
-741.112	163.250	-0.136	0.193
-740.098	107.554	-0.412	0.493
-739.083	121.799	-0.044	0.056
-738.069	-74.161	-0.327	0.119
-737.054	-22.277	-0.255	-0.156
-736.039	68.976	-0.035	-0.036
-735.025	59.715	-0.044	-0.043
-734.010	-82.307	-0.242	-0.079
-732.996	-45.560	-0.302	0.150
-731.981	23.498	-0.051	-0.042
-730.966	469.495	0.091	-0.206
-729.952	28.020	-0.127	-0.107
-728.937	-68.211	-0.265	0.104
-727.923	-51.310	-0.169	-0.079
-726.908	800.000	-0.026	0.098
-725.894	-105.890	0.145	-0.033
-724.879	-102.420	0.374	0.090
-723.864	-117.522	-0.367	0.067
-722.850	119.405	-0.096	-0.119
-721.835	-114.815	-0.372	-0.071
-720.821	-113.732	-0.493	-0.097
-719.806	-200.000	-0.013	-0.132
-718.791	-102.801	0.109	0.026
-717.777	-26.113	0.080	-0.047
-716.762	-200.000	0.003	-0.031
-715.748	-79.405	-0.184	-0.062
-714.733	38.353	0.223	0.199
-713.718	294.884	-0.213	0.392
-712.704	800.000	0.058	-0.168
-711.689	101.722	-0.218	-0.255
-710.675	-139.300	-0.037	-0.004
-709.660	-107.969	0.327	-0.071
-708.645	-200.000	-0.045	-0.299
-707.631	-101.380	0.212	0.052
-706.616	-52.435	-0.170	0.079
-705.602	-200.000	-0.004	0.236
-704.587	82.038	-0.090	0.098
-703.572	-98.551	-0.230	-0.059
-702.558	-46.154	-0.058	-0.029
-701.543	-41.242	0.146	-0.076
-700.529	29.895	0.059	-0.050
-699.514	533.621	0.078	-0.185
-698.499	-114.638	-0.247	-0.047
-697.485	28.973	-0.338	-0.288
-696.470	-116.112	-0.259	0.048
-695.456	114.088	-0.135	0.164
-694.441	-114.263	-0.173	-0.033
-693.426	-86.867	0.211	0.065
-692.412	429.833	0.199	0.432
-691.397	-148.004	-0.264	0.022
-690.383	-73.748	0.280	-0.102
-689.368	23.453	-0.279	-0.230
-688.354	246.495	0.105	-0.177
-687.339	77.124	0.080	-0.085
-686.324	57.194	0.090	0.088
-685.310	-61.585	0.227	-0.095
-684.295	-149.684	-0.263	-0.021
-683.281	800.000	-0.081	0.226
-682.266	218.735	-0.192	-0.307
-681.251	128.172	0.143	-0.183
-680.237	-24.133	0.104	-0.062
-679.222	800.000	-0.052	-0.148
-678.208	-200.000	0.056	-0.377
-677.193	-63.475	-0.123	-0.051
-676.178	800.000	-0.040	0.171
-675.164	-45.080	0.047	-0.024
-674.149	-200.000	-0.083	-0.536
-673.135	800.000	-0.084	0.309
-672.120	-186.473	-0.164	-0.002
-671.105	-200.000	0.017	0.086
-670.091	169.305	0.036	0.052
-669.076	68.875	-0.056	0.057
-668.062	-144.339	-0.269	-0.025
-667.047	604.069	0.093	0.232
-666.032	-187.097	0.214	-0.003
-665.018	-200.000	-0.090	0.425
-664.003	-200.000	0.016	0.175
-662.989	-120.878	-0.376	-0.063
-661.974	-57.537	0.237	0.104
-660.959	-92.691	-0.331	-0.093
-659.945	-108.061	-0.027	0.006
-658.930	-200.000	-0.025	0.252
-657.916	277.265	-0.102	0.182
-656.901	-200.000	-0.032	0.239
-655.886	140.086	-0.287	-0.379
-654.872	87.805	0.070	0.077
-653.857	342.406	0.106	-0.208
-652.843	-58.885	-0.292	0.126
-651.828	45.321	0.257	-0.238
-650.814	-126.438	-0.124	0.018
-649.799	360.451	-0.011	0.023
-648.784	-200.000	-0.007	-0.265
-647.770	-200.000	-0.033	0.174
-646.755	-143.793	-0.400	0.038
-645.741	47.079	-0.392	-0.365
-644.726	128.302	0.092	0.117
-643.711	800.000	-0.097	0.333
-642.697	-35.332	-0.124	-0.068
-641.682	295.738	0.022	-0.041
-640.668	-30.413	0.127	0.072
-639.653	667.480	-0.059	0.152
-638.638	-121.410	-0.111	0.019
-637.624	-120.925	-0.361	-0.061
-636.609	-200.000	-0.044	-0.273
-635.595	-200.000	0.012	0.057
-634.580	800.000	-0.057	0.183
-633.565	-22.155	0.242	-0.147
-632.551	800.000	0.075	-0.297
-631.536	204.444	0.087	0.135
-630.522	-6.860	-0.200	0.136
-629.507	36.077	0.158	-0.139
-628.492	473.585	0.120	0.271
-627.478	-200.000	0.073	0.325
-626.463	-7.673	-0.232	-0.157
-625.449	-200.000	0.049	-0.322
-624.434	-127.678	0.163	0.024
-623.419	173.358	0.209	0.302
-622.405	-72.660	0.146	-0.054
-621.390	208.929	-0.110	-0.171
-620.376	12.786	-0.198	-0.153
-619.361	461.707	0.141	-0.314
-618.346	-36.617	-0.407	-0.219
-617.332	122.321	0.069	-0.086
-616.317	111.877	-0.146	-0.177
-615.303	800.000	-0.025	-0.087
-614.288	800.000	-0.040	-0.159
-613.273	-200.000	-0.050	-0.361
-612.259	-170.288	0.307	-0.011
-611.244	41.466	0.299	0.271
-610.230	-122.342	-0.114	-0.019
-609.215	-49.099	-0.250	-0.120
-608.201	-138.795	0.264	0.029
-607.186	-128.388	-0.235	0.033
-606.171	-37.074	-0.342	-0.183
-605.157	-4.582	-0.126	0.087
-604.142	359.262	0.097	-0.194
-603.128	-137.398	-0.066	0.007
-602.113	-100.556	0.171	0.042
-601.098	-200.000	-0.021	-0.107
-600.084	67.453	0.243	0.248
-599.069	-13.447	-0.273	-0.177
-598.055	-148.498	0.265	0.022
-597.040	-188.414	-0.270	-0.003
-596.025	310.836	-0.157	0.295
-595.011	-19.449	0.209	0.129
-593.996	51.552	-0.054	-0.052
-592.982	800.000	0.104	-0.377
-591.967	-200.000	-0.004	-0.086
-590.952	-200.000	0.019	-0.311
-589.938	244.563	0.040	-0.068
-588.923	402.767	-0.031	-0.065
-587.909	-19.835	-0.324	0.200
-586.894	3.760	-0.132	0.096
-585.879	84.310	0.102	-0.111
-584.865	-27.942	-0.049	-0.029
-583.850	-141.602	-0.324	-0.033
-582.836	-170.537	-0.385	0.013
-581.821	98.089	0.106	0.122
-580.806	-192.840	-0.199	0.002
-579.792	-120.215	-0.242	0.041
-578.777	-62.927	0.226	0.093
-577.763	-24.987	-0.065	-0.038
-576.748	-142.087	0.257	0.026
-575.733	207.755	0.092	-0.144
-574.719	-104.035	-0.136	-0.032
-573.704	-200.000	0.025	-0.355
-572.690	-95.471	0.239	0.064
-571.675	-140.799	0.275	0.028
-570.661	-200.000	0.032	0.291
-569.646	266.724	-0.080	0.139
-568.631	527.666	-0.135	-0.317
-567.617	800.000	-0.070	-0.240
-566.602	-25.847	-0.111	0.065
-565.588	-118.418	-0.208	-0.037
-564.573	-29.313	-0.049	0.028
-563.558	-145.716	0.134	0.012
-562.544	-77.397	-0.200	0.069
-561.529	142.560	0.212	-0.281
-560.515	-200.000	0.004	0.275
-559.500	-32.030	0.064	-0.036
-558.485	-138.021	-0.285	-0.032
-557.471	-87.591	0.226	-0.068
-556.456	-158.836	0.289	-0.016
-555.442	272.856	0.201	0.353
-554.427	101.838	0.195	0.226
-553.412	-25.339	0.115	0.068
-552.398	-200.000	-0.019	0.141
-551.383	-200.000	-0.006	0.072
-550.369	172.118	-0.087	-0.124
-549.354	-24.604	-0.242	0.144
-548.339	290.956	0.058	0.105
-547.325	26.796	0.158	0.132
-546.310	20.735	0.043	0.035
-545.296	-101.105	-0.211	-0.051
-544.281	-200.000	0.043	0.226
-543.266	-200.000	0.001	-0.379
-542.252	-26.201	0.166	0.097
-541.237	485.031	0.104	0.237
-540.223	-108.422	0.340	-0.073
-539.208	-83.090	-0.174	0.056
-538.193	447.771	0.123	0.270
-537.179	-200.000	0.015	-0.071
-536.164	370.001	-0.216	0.436
-535.150	-200.000	0.007	0.293
-534.135	47.003	0.228	0.211
-533.121	-60.779	0.161	0.068
-532.106	-78.763	-0.098	0.033
-531.091	-78.036	-0.076	-0.026
-530.077	-25.882	0.204	-0.120
-529.062	-144.114	-0.251	-0.023
-528.048	145.945	-0.071	0.095
-527.033	510.135	-0.036	0.083
-526.018	223.956	0.132	-0.212
-525.004	-88.864	-0.146	0.043
-523.989	80.776	0.145	-0.155
-522.975	-34.535	-0.310	0.169
-521.960	-64.697	-0.121	-0.049
-520.945	242.824	0.112	0.187
-519.931	-200.000	0.026	-0.154
-518.916	800.000	0.096	0.270
-517.902	230.695	-0.143	-0.233
-516.887	371.418	-0.123	-0.248
-515.872	-97.210	-0.144	-0.037
-514.858	800.000	0.067	0.200
-513.843	239.136	0.195	0.322
-512.829	-54.045	0.179	0.081
-511.814	-171.353	0.128	-0.004
-510.799	800.000	-0.069	-0.276
-509.785	272.290	0.077	-0.136
-508.770	134.448	-0.197	-0.254
-507.756	-200.000	0.034	-0.215
-506.741	382.301	-0.079	0.162
-505.726	800.000	0.094	-0.290
-504.712	91.410	-0.185	-0.207
-503.697	-200.000	-0.018	-0.195
-502.683	644.798	0.073	0.185
-501.668	38.585	-0.141	-0.125
-500.653	-138.972	0.240	-0.026
-499.639	-68.361	0.580	-0.224
-498.624	162.423	0.144	-0.200
-497.610	496.151	0.060	0.137
-496.595	-121.737	0.087	0.014
-495.581	491.216	-0.074	-0.168
-494.566	61.907	-0.079	-0.078
-493.551	-41.875	-0.193	-0.098
-492.537	-129.891	-0.155	-0.021
-491.522	77.470	-0.226	-0.239
-490.508	86.856	-0.058	0.064
-489.493	-200.000	0.013	-0.095
-488.478	-88.733	0.501	0.148
-487.464	-200.000	-0.047	-0.263
-486.449	148.293	0.074	0.100
-485.435	-89.788	0.222	0.065
-484.420	-19.453	-0.223	-0.138
-483.405	-13.485	-0.064	0.041
-482.391	-200.000	0.051	-0.232
-481.376	-162.893	-0.387	0.019
-480.362	-71.434	0.449	-0.167
-479.347	-149.796	-0.200	0.016
-478.332	-125.173	-0.292	0.045
-477.318	-67.574	0.059	-0.023
-476.303	800.000	-0.068	-0.237
-475.289	-79.798	0.231	0.077
-474.274	712.275	-0.093	-0.244
-473.259	-117.622	-0.072	0.013
-472.245	-110.592	-0.193	0.040
-471.230	59.658	-0.240	0.235
-470.216	701.393	0.040	0.104
-469.201	166.918	-0.060	0.085
-468.186	-175.603	-0.150	0.004
-467.172	800.000	-0.085	-0.251
-466.157	-123.248	0.076	0.012
-465.143	-200.000	-0.002	0.041
-464.128	-66.476	-0.198	0.078
-463.113	800.000	-0.048	0.189
-462.099	52.232	0.115	-0.109
-461.084	138.978	0.094	-0.123
-460.070	-149.641	0.321	-0.025
-459.055	91.221	-0.060	0.067
-458.040	-173.164	0.235	0.007
-457.026	106.496	-0.091	0.108
-456.011	574.361	0.091	-0.221
-454.997	27.918	-0.071	0.060
-453.982	9.747	0.305	-0.230
-452.968	800.000	0.089	0.278
-451.953	256.260	0.119	0.202
-450.938	436.839	0.021	-0.044
-449.924	-200.000	-0.002	0.366
-448.909	-23.995	0.340	-0.202
-447.895	-78.105	-0.217	-0.074
-446.880	-58.280	-0.205	0.088
-445.865	53.026	0.125	-0.119
-444.851	-186.737	0.179	-0.002
-443.836	169.196	-0.129	-0.183
-442.822	131.048	-0.068	-0.086
-441.807	-200.000	-0.037	0.229
-440.792	71.496	0.097	-0.100
-439.778	604.652	0.152	0.376
-438.763	215.539	0.179	-0.282
-437.749	29.774	0.149	0.126
-436.734	-66.106	-0.224	0.089
-435.719	-80.020	0.022	0.007
-434.705	-163.883	-0.322	-0.015
-433.690	-115.862	0.238	0.044
-432.676	-200.000	-0.049	0.253
-431.661	-11.998	-0.149	0.097
-430.646	-146.632	-0.198	-0.017
-429.632	0.359	0.153	0.109
-428.617	800.000	-0.020	0.064
-427.603	0.767	0.360	-0.256
-426.588	12.505	0.142	0.109
-425.573	145.445	-0.228	-0.302
-424.559	-81.777	0.123	-0.040
-423.544	12.742	-0.188	-0.144
-422.530	34.255	0.283	-0.245
-421.515	213.808	0.255	0.400
-420.500	41.374	-0.250	-0.224
-419.486	309.875	-0.148	-0.275
-418.471	92.272	-0.032	0.036
-417.457	-157.858	0.386	-0.023
-416.442	5.401	-0.213	-0.156
-415.428	-59.431	0.129	0.055
-414.413	-27.547	0.184	0.106
-413.398	575.577	0.011	0.027
-412.384	-200.000	-0.048	0.223
-411.369	398.671	0.072	0.149
-410.355	-127.736	0.103	0.015
-409.340	-167.273	-0.144	-0.006
-408.325	163.795	0.068	0.096
-407.311	662.610	0.076	0.195
-406.296	-63.904	0.160	0.065
-405.282	16.679	0.161	-0.126
-404.267	72.142	0.260	0.269
-403.252	-86.699	0.096	-0.029
-402.238	-200.000	-0.009	-0.158
-401.223	339.483	-0.035	-0.067
-400.209	-200.000	-0.025	-0.151
-399.194	-200.000	0.266	-0.000
-398.179	800.000	-0.057	0.168
-397.165	130.145	0.329	-0.418
-396.150	171.822	-0.196	-0.280
-395.136	-43.816	0.355	-0.177
-394.121	-130.953	-0.047	0.006
-393.106	80.194	-0.050	-0.054
-392.092	23.376	-0.068	-0.055
-391.077	147.008	-0.194	0.258
-390.063	-44.139	-0.190	-0.094
-389.048	-102.453	0.473	0.112
-388.033	298.976	0.098	0.179
-387.019	-200.000	0.031	-0.309
-386.004	47.579	-0.196	-0.181
-384.990	800.000	-0.071	0.194
-383.975	-73.939	-0.390	-0.140
-382.960	265.030	-0.156	0.270
-381.946	-200.000	0.030	-0.144
-380.931	-10.367	-0.101	0.066
-379.917	90.793	-0.099	-0.110
-378.902	-89.124	-0.049	-0.014
-377.888	297.811	-0.250	-0.455
-376.873	140.491	0.188	0.246
-375.858	475.511	-0.130	0.291
-374.844	-98.449	-0.263	0.067
-373.829	-158.097	-0.119	-0.007
-372.815	-200.000	0.062	-0.288
-371.800	222.845	0.075	0.120
-370.785	326.101	-0.053	0.101
-369.771	-30.502	-0.406	0.228
-368.756	-147.028	0.059	-0.005
-367.742	181.974	-0.125	-0.182
-366.727	67.041	-0.227	-0.229
-365.712	800.000	0.084	0.302
-364.698	-165.909	-0.217	0.009
-363.683	-27.591	0.147	-0.085
-362.669	126.189	0.082	-0.103
-361.654	-140.555	-0.227	0.023
-360.639	-118.843	-0.295	-0.051
-359.625	108.673	0.038	-0.044
-358.610	-44.938	-0.219	-0.108
-357.596	-35.041	-0.107	-0.058
-356.581	17.859	-0.034	0.027
-355.566	-200.000	0.019	-0.191
-354.552	-113.548	-0.205	0.040
-353.537	800.000	-0.027	0.113
-352.523	120.904	0.108	0.133
-351.508	-49.984	-0.039	0.018
-350.493	79.284	-0.180	-0.191
-349.479	390.269	0.126	0.259
-348.464	-99.949	0.309	0.076
-347.450	-39.420	0.194	-0.101
-346.435	54.996	-0.200	0.191
-345.420	-158.837	0.128	-0.007
-344.406	-200.000	-0.006	0.171
-343.391	-142.197	-0.367	0.036
-342.377	-5.094	-0.144	0.098
-341.362	250.073	0.138	-0.232
-340.348	185.502	-0.089	-0.131
-339.333	30.855	-0.205	0.174
-338.318	259.918	0.118	0.202
-337.304	79.980	0.199	0.212
-336.289	-31.327	-0.175	0.098
-335.275	-102.168	0.091	0.022
-334.260	89.894	0.097	0.108
-333.245	-200.000	0.014	0.398
-332.231	-200.000	0.011	0.125
-331.216	-81.754	-0.042	0.014
-330.202	-90.333	0.025	-0.007
-329.187	-200.000	-0.006	-0.281
-328.172	241.797	-0.154	0.254
-327.158	-124.579	0.309	-0.047
-326.143	-27.118	0.230	-0.133
-325.129	-200.000	0.296	0.000
-324.114	800.000	-0.016	-0.060
-323.099	-19.294	-0.215	-0.132
-322.085	-76.077	0.103	-0.036
-321.070	-1.851	-0.095	0.066
-320.056	800.000	0.104	-0.315
-319.041	-74.813	0.196	-0.070
-318.026	161.100	-0.107	0.148
-317.012	-200.000	0.037	0.209
-315.997	211.797	-0.209	0.326
-314.983	-76.803	0.325	0.112
-313.968	44.427	0.089	-0.081
-312.953	-200.000	-0.044	-0.465
-311.939	33.378	-0.157	-0.134
-310.924	800.000	0.029	0.105
-309.910	800.000	-0.073	0.245
-308.895	-154.796	-0.317	-0.021
-307.880	185.388	-0.061	-0.089
-306.866	99.012	0.134	0.153
-305.851	377.010	-0.089	0.180
-304.837	-200.000	0.012	0.192
-303.822	-200.000	0.040	-0.195
-302.807	68.604	-0.020	0.020
-301.793	432.432	-0.126	0.270
-300.778	-105.173	-0.407	0.092
-299.764	-2.310	-0.066	-0.046
-298.749	132.306	0.113	-0.144
-297.735	88.657	0.107	-0.117
-296.720	127.252	-0.082	-0.102
-295.705	-140.489	0.280	0.029
-294.691	346.136	-0.097	0.189
-293.676	27.316	-0.147	-0.122
-292.662	286.083	0.131	0.234
-291.647	-69.853	0.375	-0.141
-290.632	116.753	0.184	0.223
-289.618	-200.000	-0.040	0.242
-288.603	-200.000	-0.002	-0.047
-287.589	-121.681	-0.243	-0.040
-286.574	105.549	-0.015	-0.018
-285.559	800.000	-0.077	0.243
-284.545	104.370	0.232	-0.270
-283.530	800.000	0.083	-0.226
-282.516	800.000	-0.053	0.157
-281.501	251.019	0.155	0.260
-280.486	-78.369	0.214	-0.072
-279.472	800.000	-0.102	0.368
-278.457	-200.000	-0.043	0.275
-277.443	-137.968	0.298	-0.033
-276.428	800.000	-0.049	0.199
-275.413	36.179	0.118	0.103
-274.399	-45.620	0.225	-0.110
-273.384	58.365	-0.294	-0.285
-272.370	1.665	0.057	0.041
-271.355	-27.904	-0.322	-0.184
-270.340	191.329	-0.042	-0.063
-269.326	655.463	-0.099	0.251
-268.311	2.059	0.216	-0.154
-267.297	800.000	-0.052	-0.161
-266.282	730.670	-0.083	0.218
-265.267	800.000	0.047	0.199
-264.253	451.365	0.065	-0.143
-263.238	-179.907	-0.107	0.002
-262.224	219.211	0.098	-0.155
-261.209	126.699	-0.051	-0.064
-260.195	-76.135	-0.125	0.043
-259.180	670.107	-0.077	0.196
-258.165	-200.000	0.100	-0.470
-257.151	-200.000	-0.017	0.233
-256.136	-87.868	-0.108	-0.032
-255.122	800.000	-0.055	-0.151
-254.107	6.715	0.162	-0.119
-253.092	-112.464	0.119	-0.023
-252.078	517.955	0.080	-0.184
-251.063	-61.062	-0.176	-0.073
-250.049	585.898	-0.173	0.420
-249.034	-200.000	0.006	-0.079
-248.019	-63.615	-0.117	-0.047
-247.005	-200.000	0.020	-0.385
-245.990	-200.000	-0.014	-0.402
-244.976	78.225	-0.091	0.096
-243.961	-157.160	0.471	0.028
-242.946	-81.994	-0.299	0.096
-241.932	-200.000	0.017	-0.312
-240.917	28.535	0.072	0.060
-239.903	115.267	-0.244	0.294
-238.888	-200.000	0.027	0.169
-237.873	337.182	0.034	0.066
-236.859	75.111	0.068	0.071
-235.844	-200.000	-0.007	-0.040
-234.830	-200.000	0.017	-0.105
-233.815	533.078	0.051	0.118
-232.800	-200.000	-0.064	0.304
-231.786	415.536	-0.180	0.377
-230.771	82.941	-0.179	0.192
-229.757	800.000	0.099	0.346
-228.742	-200.000	0.054	-0.339
-227.727	-43.691	0.024	0.012
-226.713	-34.772	0.307	0.165
-225.698	356.039	-0.089	0.174
-224.684	-104.514	-0.301	0.068
-223.669	118.238	0.266	-0.322
-222.655	-128.444	-0.304	-0.043
-221.640	95.173	0.147	0.165
-220.625	134.748	0.183	0.234
-219.611	-200.000	0.028	0.202
-218.596	-200.000	0.070	0.312
-217.582	62.469	0.241	0.237
-216.567	258.403	-0.159	-0.269
-215.552	-200.000	-0.025	0.175
-214.538	-21.622	-0.196	0.117
-213.523	-89.093	0.244	0.071
-212.509	276.798	-0.161	-0.281
-211.494	-200.000	-0.011	-0.176
-210.479	-57.478	0.351	0.152
-209.465	690.322	0.068	-0.176
-208.450	97.266	-0.240	0.271
-207.436	-172.459	-0.158	0.005
-206.421	170.343	0.112	0.157
-205.406	800.000	0.043	0.183
-204.392	-200.000	0.022	0.311
-203.377	552.279	0.181	0.427
-202.363	800.000	0.048	0.148
-201.348	489.243	0.081	0.183
-200.333	-200.000	-0.018	-0.210
-199.319	215.448	-0.078	-0.122
-198.304	165.772	0.162	-0.225
-197.290	-93.413	-0.206	0.056
-196.275	202.724	0.270	-0.410
-195.260	-102.671	0.219	-0.051
-194.246	800.000	-0.100	0.419
-193.231	-15.011	-0.055	0.034
-192.217	-171.458	0.285	-0.009
-191.202	-27.982	0.227	-0.129
-190.187	800.000	-0.080	-0.337
-189.173	-200.000	-0.007	0.183
-188.158	800.000	-0.065	-0.199
-187.144	-144.063	-0.181	-0.017
-186.129	-0.360	0.075	-0.052
-185.114	23.300	-0.043	0.035
-184.100	-100.873	-0.195	0.047
-183.085	348.262	0.130	-0.252
-182.071	341.805	-0.094	0.181
-181.056	116.880	-0.171	-0.206
-180.042	-150.530	-0.122	-0.009
-179.027	-121.730	-0.122	-0.020
-178.012	15.060	-0.039	0.030
-176.998	-139.400	0.152	0.016
-175.983	-8.938	-0.125	-0.082
-174.969	126.446	0.071	0.088
-173.954	800.000	0.025	-0.081
-172.939	355.350	-0.078	0.152
-171.925	-200.000	0.050	-0.330
-170.910	67.177	0.289	-0.290
-169.896	-200.000	-0.016	-0.502
-168.881	339.721	-0.119	-0.229
-167.866	-86.143	0.230	-0.070
-166.852	-58.891	-0.136	0.058
-165.837	478.398	-0.042	0.093
-164.823	-60.681	0.285	-0.119
-163.808	51.965	-0.037	0.035
-162.793	-66.153	0.300	0.117
-161.779	-93.899	0.324	-0.087
-160.764	-114.889	-0.401	-0.075
-159.750	130.612	0.151	0.190
-158.735	372.331	0.093	-0.186
-157.720	800.000	0.018	0.065
-156.706	387.802	0.092	0.187
-155.691	-200.000	0.049	-0.244
-154.677	-164.097	-0.311	0.014
-153.662	800.000	0.009	0.040
-152.647	-102.437	-0.158	0.037
-151.633	-100.269	0.074	-0.018
-150.618	-200.000	-0.052	-0.368
-149.604	9.430	0.114	-0.084
-148.589	-127.285	-0.359	0.051
-147.574	408.468	-0.040	0.082
-146.560	-200.000	-0.003	-0.151
-145.545	800.000	-0.087	0.266
-144.531	99.073	-0.060	-0.068
-143.516	-13.063	0.074	-0.047
-142.502	334.214	-0.041	0.078
-141.487	279.799	0.189	-0.331
-140.472	800.000	0.113	0.351
-139.458	442.708	-0.119	-0.256
-138.443	118.602	-0.050	0.061
-137.429	-200.000	0.046	0.373
-136.414	28.053	0.338	0.280
-135.399	178.973	0.061	0.087
-134.385	-132.393	-0.262	-0.033
-133.370	-26.859	-0.111	-0.063
-132.356	213.197	0.021	-0.032
-131.341	122.718	0.247	0.303
-130.326	-38.873	-0.322	-0.166
-129.312	-2.348	-0.276	0.190
-128.297	800.000	-0.035	0.143
-127.283	-138.562	0.191	-0.021
-126.268	28.514	-0.079	-0.065
-125.253	108.523	0.079	0.092
-124.239	29.066	0.052	-0.043
-123.224	80.083	0.350	0.369
-122.210	454.173	0.037	0.081
-121.195	800.000	0.030	-0.084
-120.180	286.180	-0.130	0.230
-119.166	70.840	-0.115	0.116
-118.151	-185.074	0.465	0.007
-117.137	-7.691	0.250	-0.165
-116.122	-97.405	-0.056	-0.014
-115.107	46.222	0.158	0.143
-114.093	-108.590	0.181	-0.038
-113.078	40.111	-0.261	-0.230
-112.064	-67.001	-0.235	0.091
-111.049	157.279	0.116	0.157
-110.034	78.363	0.116	0.122
-109.020	253.804	-0.139	-0.234
-108.005	-200.000	-0.019	-0.247
-106.991	100.905	-0.123	-0.140
-105.976	156.699	-0.224	0.303
-104.962	800.000	0.060	-0.217
-103.947	800.000	0.080	-0.239
-102.932	738.100	0.110	0.290
-101.918	-200.000	-0.007	-0.333
-100.903	147.230	0.181	0.239
-99.889	29.835	-0.138	0.115
-98.874	430.322	0.106	-0.224
-97.859	278.266	0.162	0.283
-96.845	375.687	-0.104	0.209
-95.830	215.833	0.158	-0.246
-94.816	-71.631	0.065	-0.024
-93.801	140.276	0.082	-0.106
-92.786	422.133	0.217	-0.456
-91.772	618.174	0.041	-0.100
-90.757	-32.882	-0.069	-0.038
-89.743	-69.065	0.056	-0.021
-88.728	228.409	0.034	0.054
-87.713	800.000	0.016	-0.057
-86.699	-200.000	-0.013	0.144
-85.684	800.000	0.019	0.065
-84.670	-59.596	-0.133	-0.056
-83.655	119.774	-0.067	0.082
-82.640	-16.133	0.039	0.024
-81.626	19.094	0.156	0.122
-80.611	346.888	0.207	0.399
-79.597	800.000	-0.118	0.368
-78.582	23.952	0.235	-0.189
-77.567	164.605	0.050	-0.070
-76.553	-59.549	-0.138	0.058
-75.538	696.745	0.083	0.213
-74.524	-49.760	0.113	-0.052
-73.509	423.900	0.112	-0.235
-72.494	19.446	-0.235	-0.185
-71.480	-70.207	0.060	-0.022
-70.465	117.108	0.115	0.138
-69.451	53.178	-0.197	0.184
-68.436	181.128	0.057	0.082
-67.422	94.136	-0.114	0.127
-66.407	-200.000	-0.000	0.273
-65.392	800.000	-0.023	0.095
-64.378	800.000	0.096	0.344
-63.363	-58.987	-0.091	0.038
-62.349	340.040	0.042	0.081
-61.334	86.177	-1.165	-1.255
-60.319	408.880	0.252	0.522
-59.305	556.495	-0.552	-1.300
-58.290	343.964	0.596	1.143
-57.276	-200.000	0.219	1.507
-56.261	-200.000	113.588	643.248
-55.246	465.267	1511.857	3308.626
-54.232	147.304	2677.152	3524.416
-53.217	102.786	2177.947	2493.148
-52.203	37.638	1705.638	1480.488
-51.188	30.350	1523.055	1272.224
-50.173	28.253	1497.876	1236.997
-49.159	52.222	1555.984	1450.613
-48.144	50.760	1571.465	1454.938
-47.130	30.601	1528.262	1278.097
-46.115	27.625	1513.219	1245.179
-45.100	27.397	1509.501	1240.513
-44.086	27.508	1507.263	1239.380
-43.071	27.372	1505.282	1236.780
-42.057	27.444	1503.448	1235.711
-41.042	27.430	1502.152	1234.506
-40.027	27.394	1501.262	1233.481
-39.013	27.427	1499.226	1231.983
-37.998	27.405	1498.274	1231.000
-36.984	27.337	1497.210	1229.618
-35.969	27.376	1495.206	1228.187
-34.954	27.342	1494.136	1227.032
-33.940	27.332	1492.982	1225.964
-32.925	27.351	1491.579	1224.893
-31.911	27.413	1490.239	1224.162
-30.896	27.384	1489.253	1223.108
-29.881	27.424	1487.697	1222.052
-28.867	27.391	1486.539	1220.827
-27.852	27.361	1485.385	1219.634
-26.838	27.344	1484.324	1218.596
-25.823	27.480	1482.190	1217.704
-24.809	27.412	1480.539	1215.847
-23.794	27.325	1479.607	1214.451
-22.779	27.395	1477.909	1213.479
-21.765	27.369	1477.538	1212.951
-20.750	27.363	1476.165	1211.735
-19.736	27.458	1474.686	1211.108
-18.721	27.528	1473.629	1210.655
-17.706	27.418	1473.069	1209.418
-16.692	27.351	1471.865	1207.933
-15.677	27.303	1471.096	1206.937
-14.663	27.503	1469.461	1206.873
-13.648	27.309	1468.804	1205.003
-12.633	27.444	1467.823	1205.042
-11.619	27.374	1467.112	1203.946
-10.604	27.300	1466.865	1203.207
-9.590	27.300	1465.215	1201.807
-8.575	27.411	1464.256	1201.706
-7.560	27.419	1463.572	1201.149
-6.546	27.301	1463.045	1199.894
-5.531	27.341	1461.947	1199.205
-4.517	27.336	1460.555	1197.982
-3.502	27.350	1459.725	1197.350
-2.487	27.353	1458.907	1196.652
-1.473	27.338	1457.785	1195.580
-0.458	27.385	1456.720	1194.970
0.556	25.969	1446.076	1183.597
1.571	22.990	1422.546	1144.966
2.586	19.904	1362.729	1077.544
3.600	18.449	1280.453	1003.875
4.615	17.467	1235.636	963.101
5.629	16.913	1183.249	919.183
6.644	14.353	1106.690	846.640
7.659	11.647	1072.460	807.034
8.673	11.347	1067.412	801.693
9.688	11.159	1064.423	798.454
10.702	11.082	1062.564	796.612
11.717	11.212	1060.982	795.993
12.731	12.427	1060.168	801.239
13.746	15.205	1063.720	817.419
14.761	17.436	1066.482	830.369
15.775	17.861	1066.300	832.228
16.790	17.160	1064.041	826.980
17.804	16.014	1061.928	819.690
18.819	15.137	1059.903	813.797
19.834	14.559	1058.632	809.943
20.848	14.440	1057.181	808.185
21.863	14.086	1056.798	806.103
22.877	13.781	1056.538	804.355
23.892	13.554	1055.544	802.428
24.907	13.712	1054.311	802.184
25.921	13.697	1053.403	801.349
26.936	13.650	1052.617	800.452
27.950	13.622	1051.585	799.465
28.965	13.641	1050.611	798.742
29.980	13.818	1049.313	798.537
30.994	13.766	1048.660	797.721
32.009	13.927	1047.518	797.555
33.023	13.807	1047.104	796.593
34.038	13.798	1046.127	795.734
35.053	13.879	1045.108	795.278
36.067	13.742	1044.029	793.730
37.082	13.701	1043.129	792.781
38.096	13.835	1042.540	792.905
39.111	13.922	1041.332	792.330
40.126	13.843	1040.522	791.265
41.140	13.728	1039.815	790.112
42.155	13.574	1038.343	788.191
43.169	13.556	1037.629	787.493
44.184	13.572	1036.651	786.755
45.199	13.550	1035.249	785.520
46.213	13.588	1034.310	784.919
47.228	13.598	1033.254	784.091
48.242	13.670	1032.516	783.803
49.257	13.833	1031.214	783.516
50.271	13.775	1030.400	782.557
51.286	13.625	1029.729	781.268
52.301	13.782	1028.875	781.291
53.315	13.645	1028.287	780.131
54.330	13.622	1027.584	779.422
55.344	13.662	1026.329	778.587
56.359	13.635	1025.228	777.556
57.374	13.796	1024.066	777.359
58.388	13.526	1024.156	776.097
59.403	13.472	1023.117	774.985
60.417	13.530	1022.058	774.387
61.432	13.517	1021.285	773.670
62.447	13.481	1020.920	773.160
63.461	13.500	1019.781	772.317
64.476	13.502	1018.926	771.610
65.490	13.476	1017.888	770.634
66.505	13.443	1017.184	769.880
67.520	13.465	1016.728	769.567
68.534	13.525	1015.843	769.110
69.549	13.506	1014.847	768.199
70.563	13.582	1014.258	768.036
71.578	13.522	1013.291	766.960
72.593	13.431	1012.784	766.088
73.607	13.420	1011.503	765.000
74.622	13.468	1010.297	764.243
75.636	13.441	1009.860	763.719
76.651	13.358	1008.798	762.468
77.666	13.446	1007.836	762.074
78.680	13.506	1007.796	762.253
79.695	13.496	1006.995	761.537
80.709	13.466	1006.217	760.740
81.724	13.389	1005.871	760.059
82.739	13.641	1004.721	760.279
83.753	13.632	1003.863	759.520
84.768	13.609	1003.097	758.770
85.782	13.764	1002.515	758.973
86.797	13.885	1001.103	758.388
87.812	13.929	1000.867	758.341
88.826	13.755	999.936	756.777
89.841	13.735	999.079	755.968
90.855	13.892	997.985	755.788
91.870	13.767	997.481	754.770
92.884	13.828	996.666	754.364
93.899	13.905	995.701	753.918
94.914	13.854	995.149	753.203
95.928	13.924	994.633	753.064
96.943	13.876	993.718	752.087
97.957	13.816	993.204	751.360
98.972	13.756	992.146	750.219
99.987	13.812	991.224	749.712
101.001	13.898	990.562	749.533
102.016	13.773	989.920	748.417
103.030	13.776	988.865	747.564
104.045	13.897	987.491	747.003
105.060	13.793	987.202	746.252
106.074	13.676	986.207	744.909
107.089	13.667	985.326	744.138
108.103	13.617	984.370	743.123
109.118	13.587	983.377	742.173
110.133	13.628	982.252	741.443
111.147	13.664	981.444	740.928
112.162	13.663	980.358	740.040
113.176	13.728	979.826	739.863
114.191	13.601	979.118	738.697
115.206	13.730	978.138	738.468
116.220	13.686	977.444	737.678
117.235	13.673	976.532	736.868
118.249	13.703	975.513	736.167
119.264	13.863	974.449	736.011
120.279	13.764	974.061	735.214
121.293	13.601	973.273	733.829
122.308	13.673	972.212	733.285
123.322	13.527	971.916	732.351
124.337	13.595	970.852	731.785
125.352	13.513	969.787	730.555
126.366	13.469	968.500	729.328
127.381	13.434	967.507	728.360
128.395	13.476	966.657	727.842
129.410	13.557	965.268	727.086
130.424	13.549	964.548	726.444
131.439	13.653	963.470	726.023
132.454	13.770	962.522	725.757
133.468	13.743	961.844	725.067
134.483	13.641	961.429	724.241
135.497	13.572	961.011	723.563
136.512	13.771	960.355	723.872
137.527	13.700	959.628	722.951
138.541	13.677	958.552	721.974
139.556	13.744	957.614	721.498
140.570	13.675	957.164	720.792
141.585	13.642	956.609	720.168
142.600	13.739	956.174	720.200
143.614	13.843	955.473	720.057
144.629	13.767	954.645	719.041
145.643	13.906	953.689	718.858
146.658	13.716	953.094	717.524
147.673	13.877	952.054	717.376
148.687	13.827	951.166	716.428
149.702	13.808	950.171	715.530
150.716	13.606	949.738	714.269
151.731	13.659	948.274	713.337
152.746	13.686	948.071	713.237
153.760	13.768	947.383	713.006
154.775	13.980	945.632	712.537
155.789	14.013	945.125	712.234
156.804	13.869	944.738	711.262
157.819	13.929	944.085	710.961
158.833	13.985	943.271	710.527
159.848	14.065	942.603	710.303
160.862	14.040	941.975	709.661
161.877	13.977	941.350	708.858
162.892	13.955	940.312	707.920
163.906	13.880	939.367	706.825
164.921	13.766	939.033	706.027
165.935	13.893	937.373	705.254
166.950	13.870	936.861	704.709
167.964	13.920	935.865	704.109
168.979	13.938	934.824	703.342
169.994	14.050	933.680	702.892
171.008	14.056	933.138	702.448
172.023	14.043	931.991	701.468
173.037	14.092	931.131	700.964
174.052	14.126	930.821	700.814
175.067	14.025	930.254	699.898
176.081	13.917	929.639	698.918
177.096	13.862	928.677	697.902
178.110	13.862	927.908	697.262
179.125	13.877	927.567	697.007
180.140	13.920	926.347	696.209
181.154	14.054	925.520	696.090
182.169	14.159	925.033	696.099
183.183	14.137	924.506	695.548
184.198	14.197	923.808	695.213
185.213	14.166	922.787	694.254
186.227	14.204	922.046	693.792
187.242	14.205	922.146	693.813
188.256	14.301	921.049	693.323
189.271	14.271	920.542	692.756
190.286	14.273	919.874	692.199
191.300	14.289	918.933	691.497
192.315	14.055	918.293	689.984
193.329	14.051	917.211	689.092
194.344	13.986	916.800	688.455
195.359	14.064	915.929	688.063
196.373	14.125	915.653	688.046
197.388	14.158	915.275	687.837
198.402	14.324	914.426	687.826
199.417	14.497	914.237	688.335
200.432	14.492	913.739	687.881
201.446	14.375	913.552	687.194
202.461	14.396	913.103	686.882
203.475	14.541	912.433	686.916
204.490	14.601	911.701	686.549
205.504	14.394	910.719	684.899
206.519	14.370	910.136	684.304
207.534	14.422	909.536	684.005
208.548	14.599	908.181	683.648
209.563	14.487	907.868	682.896
210.577	14.514	907.150	682.405
211.592	14.336	906.890	681.421
212.607	14.620	906.125	681.946
213.621	14.681	905.313	681.522
214.636	14.595	904.674	680.633
215.650	14.682	904.056	680.461
216.665	14.607	903.589	679.745
217.680	14.720	902.834	679.577
218.694	14.647	902.601	679.043
219.709	14.740	901.829	678.782
220.723	14.668	901.532	678.204
221.738	14.749	900.237	677.498
222.753	14.684	899.610	676.703
223.767	14.630	899.140	676.073
224.782	14.691	898.070	675.452
225.796	14.848	897.061	675.270
226.811	14.840	896.846	675.016
227.826	14.903	896.201	674.723
228.840	14.764	895.578	673.635
229.855	14.824	894.755	673.196
230.869	14.697	894.318	672.299
231.884	14.712	893.661	671.806
232.899	14.666	893.058	671.105
233.913	14.710	892.268	670.631
234.928	14.746	891.468	670.114
235.942	14.792	891.038	669.916
236.957	14.465	890.761	668.340
237.972	14.875	889.044	668.633
238.986	14.827	888.683	668.108
240.001	14.749	888.134	667.324
241.015	14.986	887.033	667.385
242.030	14.689	887.046	666.149
243.045	14.822	886.307	666.066
244.059	14.812	885.832	665.612
245.074	14.812	884.849	664.811
246.088	14.915	884.006	664.531
247.103	15.002	883.894	664.732
248.117	14.951	883.055	663.841
249.132	15.035	882.369	663.600
250.147	14.983	882.017	663.069
251.161	15.191	881.365	663.347
252.176	15.347	880.639	663.358
253.190	15.316	879.810	662.551
254.205	15.391	879.436	662.508
255.220	15.328	879.108	661.953
256.234	15.388	878.110	661.379
257.249	15.452	877.463	661.086
258.263	15.400	877.049	660.511
259.278	15.346	876.423	659.768
260.293	15.416	875.824	659.534
261.307	15.451	875.505	659.372
262.322	15.473	874.639	658.748
263.336	15.344	874.381	657.988
264.351	15.534	873.512	658.021
265.366	15.477	872.696	657.127
266.380	15.636	872.243	657.348
267.395	15.537	871.486	656.333
268.409	15.511	871.223	655.975
269.424	15.618	869.973	655.393
270.439	15.432	869.871	654.533
271.453	15.363	868.882	653.462
272.468	15.548	867.797	653.311
273.482	15.443	867.179	652.378
274.497	15.568	866.591	652.362
275.512	15.550	866.059	651.835
276.526	15.544	865.436	651.283
277.541	15.397	865.134	650.430
278.555	15.475	864.106	649.901
279.570	15.435	863.655	649.353
280.585	15.695	863.230	649.980
281.599	15.783	862.610	649.794
282.614	15.572	862.159	648.583
283.628	15.663	861.342	648.262
284.643	15.759	860.573	647.996
285.657	15.850	859.970	647.834
286.672	15.782	859.788	647.378
287.687	15.698	859.345	646.662
288.701	15.588	858.894	645.843
289.716	15.669	858.363	645.698
290.730	15.722	857.588	645.262
291.745	15.744	857.114	644.934
292.760	15.827	856.069	644.406
293.774	16.020	855.239	644.465
294.789	15.849	855.295	643.797
295.803	15.915	854.312	643.250
296.818	15.846	853.837	642.573
297.833	15.714	853.260	641.579
298.847	15.745	853.001	641.444
299.862	15.821	851.821	640.791
300.876	15.795	851.535	640.419
301.891	15.940	850.437	640.089
302.906	16.047	849.886	640.022
303.920	16.096	849.274	639.693
304.935	16.155	848.208	639.056
305.949	16.164	848.139	638.981
306.964	16.001	847.641	637.931
307.979	16.059	846.842	637.492
308.993	16.111	846.313	637.234
310.008	16.149	845.961	637.057
311.022	16.190	845.394	636.730
312.037	16.100	845.092	636.106
313.052	16.182	844.535	635.938
314.066	16.110	843.922	635.149
315.081	16.192	842.744	634.514
316.095	16.065	842.753	633.988
317.110	16.057	842.113	633.422
318.125	16.141	841.461	633.191
319.139	16.064	841.217	632.662
320.154	16.092	840.645	632.280
321.168	16.070	840.414	631.966
322.183	16.075	839.408	631.174
323.197	16.231	838.949	631.356
324.212	16.276	838.242	630.938
325.227	16.168	838.041	630.326
326.241	16.234	837.440	630.066
327.256	16.241	836.474	629.310
328.270	16.079	836.262	628.490
329.285	16.114	835.864	628.264
330.300	16.314	835.030	628.329
331.314	16.339	834.530	627.988
332.329	16.156	833.999	626.855
333.343	16.255	833.250	626.603
334.358	16.270	832.906	626.344
335.373	16.477	832.216	626.538
336.387	16.458	831.918	626.187
337.402	16.370	831.545	625.524
338.416	16.468	830.750	625.234
339.431	16.509	830.167	624.892
340.446	16.451	830.167	624.622
341.460	16.616	829.356	624.566
342.475	16.611	828.618	623.935
343.489	16.675	827.862	623.546
344.504	16.755	827.490	623.505
345.519	16.780	826.585	622.861
346.533	16.698	826.540	622.469
347.548	16.729	826.487	622.489
348.562	16.658	825.643	621.537
349.577	16.646	824.908	620.886
350.592	16.691	824.441	620.646
351.606	16.564	823.647	619.525
352.621	16.620	823.544	619.601
353.635	16.711	822.839	619.346
354.650	16.751	822.192	618.952
355.665	16.818	821.715	618.783
356.679	16.871	821.847	619.021
357.694	16.812	821.098	618.187
358.708	16.877	820.732	618.093
359.723	16.720	820.271	617.119
360.738	16.750	819.499	616.592
361.752	16.778	818.914	616.201
362.767	16.686	818.622	615.590
363.781	16.758	818.258	615.524
364.796	16.871	817.894	615.607
365.810	17.151	817.065	615.943
366.825	17.064	816.811	615.384
367.840	16.995	816.644	614.953
368.854	16.976	816.398	614.644
369.869	17.035	815.761	614.322
370.883	16.916	815.357	613.533
371.898	16.900	814.416	612.713
372.913	17.112	813.657	612.854
373.927	17.093	813.220	612.403
374.942	17.077	812.706	611.903
375.956	16.973	812.144	611.053
376.971	17.137	811.488	611.092
377.986	17.228	811.302	611.227
379.000	17.232	810.541	610.613
380.015	17.295	810.046	610.412
381.029	17.273	809.479	609.854
382.044	17.366	808.948	609.734
383.059	17.422	807.990	609.156
384.073	17.396	807.780	608.853
385.088	17.224	807.697	608.122
386.102	17.298	806.831	607.677
387.117	17.232	806.139	606.868
388.132	17.285	805.723	606.691
389.146	17.170	805.439	606.012
390.161	17.446	804.572	606.291
391.175	17.332	804.786	605.993
392.190	17.240	804.273	605.224
393.205	17.334	803.771	605.127
394.219	17.396	803.432	605.037
395.234	17.270	803.009	604.219
396.248	17.344	802.329	603.918
397.263	17.314	801.508	603.139
398.278	17.305	801.165	602.796
399.292	17.160	800.903	602.031
400.307	17.372	800.296	602.273
401.321	17.223	800.362	601.742
402.336	17.347	799.256	601.293
403.350	17.372	799.145	601.246
404.365	17.286	799.114	600.867
405.380	17.484	798.199	600.822
406.394	17.503	798.071	600.740
407.409	17.590	797.378	600.473
408.423	17.685	797.166	600.595
409.438	17.613	796.598	599.860
410.453	17.677	795.930	599.528
411.467	17.520	796.066	599.026
412.482	17.738	795.384	599.228
413.496	17.563	794.942	598.225
414.511	17.795	794.640	598.761
415.526	17.799	794.412	598.548
416.540	17.698	793.786	597.670
417.555	17.749	793.331	597.454
418.569	17.743	793.004	597.132
419.584	17.757	792.117	596.462
420.599	17.858	791.786	596.513
421.613	111.658	1293.609	1476.695
422.628	95.969	1366.706	1476.797
