DTS Sentinel unit serial number:	SN413079Multiplexer serial number:	ORYXHardware model number:	OX4-SRSoftware version number:	ORYX F/W v4.00 Oryx Data Collector v3.7.2.0data status	okinstallation	princeton_trtdifferential loss correction	single-endedforward channel	channel 3reverse channel	N/Adate	2019/09/12time	01:14:11forward acquisition time	60.00reverse acquisition time	0.00gamma	496.2192k internal	0.2320k external	0.2320temperature offset calibration	1.0067default loss term (dB/km)	0.3790temperature slope calibration	1.0000multiplexer offset coefficient	1.0000multiplexer slope coefficient	1.0000fibre end	0.00T internal ref (°C)	33.05T ext. ref 1 (°C)	2.07T ext. ref 2 (°C)	27.90length (m)	temperature (°C)	Stokes	anti-Stokes-747.200	-95.848	0.297	0.080
-746.185	362.890	-0.138	0.279
-745.171	330.291	-0.028	-0.055
-744.156	202.386	0.175	0.274
-743.142	-200.000	0.029	-0.496
-742.127	-33.428	0.306	0.171
-741.112	68.699	-0.093	0.096
-740.098	255.036	-0.180	0.311
-739.083	-82.392	0.266	-0.087
-738.069	317.912	-0.083	0.158
-737.054	74.797	0.117	0.125
-736.039	-200.000	-0.075	0.342
-735.025	-18.293	0.481	0.304
-734.010	-38.060	-0.372	-0.200
-732.996	-200.000	0.056	-0.299
-731.981	-43.393	0.129	-0.066
-730.966	340.511	0.103	-0.203
-729.952	0.727	-0.270	0.196
-728.937	-130.933	0.274	-0.037
-727.923	-10.330	-0.193	-0.129
-726.908	40.036	-0.259	0.235
-725.894	65.069	-0.269	0.275
-724.879	71.596	-0.067	0.070
-723.864	-200.000	0.033	-0.313
-722.850	87.688	-0.069	0.077
-721.835	267.799	-0.035	0.062
-720.821	435.283	-0.108	0.236
-719.806	7.755	0.155	0.117
-718.791	89.477	-0.192	0.216
-717.777	243.671	-0.029	-0.048
-716.762	-200.000	0.000	-0.215
-715.748	-200.000	-0.000	-0.281
-714.733	-122.206	-0.154	-0.026
-713.718	432.146	-0.151	-0.331
-712.704	800.000	-0.095	-0.301
-711.689	-112.728	-0.408	0.082
-710.675	289.602	0.204	-0.374
-709.660	-200.000	-0.012	0.056
-708.645	-200.000	0.010	0.187
-707.631	-168.182	-0.243	0.010
-706.616	-200.000	-0.039	-0.308
-705.602	-200.000	0.038	-0.254
-704.587	-37.802	0.205	0.110
-703.572	177.522	-0.203	0.298
-702.558	101.957	0.091	-0.107
-701.543	655.372	0.077	-0.198
-700.529	-200.000	-0.059	-0.365
-699.514	47.184	-0.259	-0.244
-698.499	112.748	0.061	-0.075
-697.485	156.859	0.041	0.057
-696.470	-94.592	-0.038	0.011
-695.456	266.604	0.168	-0.296
-694.441	151.479	-0.155	0.213
-693.426	-113.171	0.379	-0.075
-692.412	353.035	-0.229	-0.459
-691.397	-115.888	-0.186	-0.035
-690.383	-75.433	-0.141	-0.051
-689.368	469.327	0.170	0.386
-688.354	-175.150	-0.403	0.011
-687.339	-96.563	0.089	-0.024
-686.324	-200.000	-0.025	-0.315
-685.310	19.053	-0.065	0.053
-684.295	-184.138	-0.018	0.000
-683.281	39.150	0.191	0.172
-682.266	800.000	0.026	0.112
-681.251	13.323	-0.180	0.141
-680.237	-70.401	0.324	0.124
-679.222	-94.322	-0.015	0.004
-678.208	-132.563	0.202	-0.026
-677.193	-16.119	0.095	-0.061
-676.178	-200.000	-0.009	0.227
-675.164	-50.837	0.133	0.063
-674.149	773.275	0.020	-0.056
-673.135	-24.819	-0.054	-0.032
-672.120	425.614	-0.155	-0.337
-671.105	-80.308	-0.309	0.104
-670.091	247.793	0.096	0.163
-669.076	-200.000	0.071	-0.390
-668.062	81.772	0.175	-0.191
-667.047	-94.036	0.115	0.032
-666.032	762.713	-0.063	-0.173
-665.018	318.898	-0.063	-0.119
-664.003	6.274	-0.209	-0.157
-662.989	-110.914	-0.289	-0.060
-661.974	629.996	0.078	0.198
-660.959	-58.604	-0.187	0.082
-659.945	800.000	-0.063	-0.183
-658.930	800.000	0.040	0.148
-657.916	-200.000	0.070	0.329
-656.901	-200.000	0.005	-0.157
-655.886	-111.175	0.219	-0.045
-654.872	800.000	-0.088	-0.285
-653.857	79.274	-0.132	-0.143
-652.843	-7.411	0.168	0.115
-651.828	-107.299	0.376	0.083
-650.814	-133.606	0.209	0.026
-649.799	-200.000	-0.012	-0.087
-648.784	66.906	0.023	-0.024
-647.770	23.429	-0.102	-0.085
-646.755	-28.927	-0.286	0.165
-645.741	-27.243	-0.158	0.093
-644.726	280.464	-0.136	-0.245
-643.711	-200.000	-0.005	0.104
-642.697	547.698	-0.039	0.095
-641.682	58.054	0.125	0.123
-640.668	108.738	-0.073	0.088
-639.653	-200.000	-0.009	-0.138
-638.638	-100.296	-0.291	-0.073
-637.624	-50.455	0.142	0.068
-636.609	-126.843	-0.196	0.029
-635.595	68.451	-0.048	-0.050
-634.580	-131.974	0.174	0.023
-633.565	131.479	-0.148	0.192
-632.551	-70.157	0.266	-0.102
-631.536	-200.000	-0.007	-0.248
-630.522	-200.000	0.015	-0.150
-629.507	800.000	0.054	0.202
-628.492	44.954	-0.096	0.089
-627.478	-200.000	0.009	-0.241
-626.463	279.501	0.071	-0.128
-625.449	-25.700	0.091	0.054
-624.434	107.102	-0.070	0.084
-623.419	-72.634	0.071	-0.026
-622.405	800.000	-0.033	-0.110
-621.390	115.608	0.159	-0.196
-620.376	-178.052	0.355	0.008
-619.361	-200.000	0.010	0.113
-618.346	85.770	0.211	0.234
-617.332	800.000	-0.037	0.115
-616.317	255.676	0.063	-0.109
-615.303	-49.203	0.122	0.058
-614.288	395.548	0.028	-0.058
-613.273	-151.115	-0.306	0.023
-612.259	76.259	0.069	0.074
-611.244	-103.129	0.247	0.059
-610.230	-200.000	-0.011	-0.195
-609.215	-200.000	0.004	-0.092
-608.201	7.887	-0.215	0.162
-607.186	800.000	-0.011	0.040
-606.171	800.000	0.085	-0.281
-605.157	-200.000	0.001	-0.137
-604.142	654.137	0.075	-0.193
-603.128	-147.892	0.407	-0.034
-602.113	-82.024	-0.334	-0.110
-601.098	266.293	0.091	0.159
-600.084	-189.061	-0.298	0.004
-599.069	332.741	-0.173	-0.335
-598.055	305.883	-0.240	-0.449
-597.040	13.587	-0.043	0.034
-596.025	239.299	0.196	-0.327
-595.011	-200.000	0.057	-0.312
-593.996	305.685	-0.123	0.229
-592.982	-200.000	-0.000	-0.324
-591.967	-200.000	0.057	-0.356
-590.952	49.309	0.045	0.042
-589.938	-93.214	-0.240	-0.067
-588.923	800.000	-0.064	-0.220
-587.909	-42.505	-0.196	-0.101
-586.894	419.838	0.073	0.158
-585.879	168.986	-0.152	0.218
-584.865	479.983	0.153	0.349
-583.850	258.329	0.125	0.216
-582.836	800.000	-0.074	-0.232
-581.821	596.916	-0.019	-0.046
-580.806	-200.000	-0.026	0.160
-579.792	253.736	0.034	0.058
-578.777	-136.238	-0.269	0.032
-577.763	68.086	-0.194	0.199
-576.748	-73.396	0.336	-0.123
-575.733	15.220	0.198	0.156
-574.719	-19.081	-0.046	-0.028
-573.704	81.824	0.351	-0.381
-572.690	246.219	-0.101	-0.170
-571.675	800.000	-0.034	0.114
-570.661	6.504	-0.427	0.318
-569.646	-154.312	0.379	-0.026
-568.631	43.753	-0.207	-0.190
-567.617	38.492	-0.099	0.089
-566.602	-111.325	-0.127	-0.026
-565.588	-98.064	-0.119	0.031
-564.573	353.921	0.174	0.347
-563.558	-141.739	-0.067	0.007
-562.544	-200.000	-0.258	0.000
-561.529	530.839	0.172	-0.408
-560.515	-26.076	0.060	0.035
-559.500	-94.645	-0.401	-0.109
-558.485	100.094	-0.162	-0.189
-557.471	-49.117	0.071	-0.034
-556.456	-72.123	0.096	-0.036
-555.442	113.498	0.203	0.247
-554.427	-146.712	0.384	0.033
-553.412	800.000	0.123	-0.359
-552.398	193.248	0.155	-0.235
-551.383	-131.022	-0.150	0.020
-550.369	74.502	-0.152	-0.160
-549.354	379.528	0.061	0.124
-548.339	-145.269	-0.343	0.031
-547.325	-200.000	-0.002	0.083
-546.310	-200.000	0.012	0.142
-545.296	-123.591	0.013	-0.002
-544.281	-200.000	0.007	-0.078
-543.266	180.890	0.047	0.070
-542.252	-49.858	0.368	0.175
-541.237	-133.142	-0.225	-0.029
-540.223	800.000	0.134	0.411
-539.208	94.809	0.053	0.061
-538.193	38.569	0.198	0.177
-537.179	-117.382	0.247	0.045
-536.164	-143.396	0.200	0.019
-535.150	-110.973	0.109	-0.022
-534.135	142.285	-0.148	0.197
-533.121	-111.678	0.339	-0.069
-532.106	-200.000	0.032	0.179
-531.091	647.329	-0.090	-0.231
-530.077	800.000	-0.035	0.148
-529.062	297.812	0.162	0.299
-528.048	9.518	0.251	0.190
-527.033	-148.000	-0.255	0.021
-526.018	8.762	0.050	-0.038
-525.004	241.105	-0.029	0.049
-523.989	800.000	-0.040	0.162
-522.975	30.849	-0.137	0.117
-521.960	-123.240	0.068	0.011
-520.945	39.591	-0.269	-0.241
-519.931	549.914	0.162	-0.388
-518.916	-85.234	-0.140	-0.044
-517.902	81.696	-0.062	-0.067
-516.887	96.218	0.134	0.153
-515.872	-151.758	-0.371	0.027
-514.858	-200.000	-0.004	0.074
-513.843	217.094	-0.129	0.206
-512.829	26.693	0.135	0.113
-511.814	800.000	-0.098	-0.272
-510.799	-57.547	-0.028	0.012
-509.785	-63.163	0.388	-0.160
-508.770	-38.023	0.199	-0.106
-507.756	-12.181	-0.081	-0.053
-506.741	-34.790	-0.091	-0.050
-505.726	164.374	-0.158	0.222
-504.712	800.000	-0.041	-0.118
-503.697	-200.000	0.015	-0.385
-502.683	155.887	0.061	0.085
-501.668	-200.000	0.010	-0.102
-500.653	15.222	0.103	0.081
-499.639	-31.664	-0.224	0.126
-498.624	800.000	0.084	-0.294
-497.610	800.000	0.064	0.225
-496.595	-146.449	0.044	0.004
-495.581	-54.265	-0.256	-0.116
-494.566	428.190	-0.111	-0.239
-493.551	150.909	-0.152	0.208
-492.537	222.733	-0.020	0.032
-491.522	-200.000	-0.004	-0.340
-490.508	-200.000	0.025	0.287
-489.493	123.760	-0.216	-0.271
-488.478	664.852	0.035	-0.091
-487.464	132.790	-0.154	-0.199
-486.449	302.159	0.077	-0.142
-485.435	-25.537	-0.245	0.145
-484.420	-200.000	-0.023	0.122
-483.405	482.901	-0.047	0.108
-482.391	445.472	-0.043	0.095
-481.376	93.120	-0.064	0.072
-480.362	-73.361	0.115	-0.042
-479.347	-67.861	0.046	0.018
-478.332	206.077	-0.141	-0.219
-477.318	-114.944	-0.241	-0.046
-476.303	-141.943	0.211	0.021
-475.289	-82.873	0.214	0.069
-474.274	-117.356	-0.331	0.060
-473.259	-160.267	-0.129	-0.007
-472.245	115.260	0.096	0.117
-471.230	599.599	0.146	-0.363
-470.216	24.759	-0.109	0.091
-469.201	-6.694	0.288	0.196
-468.186	-200.000	-0.004	-0.036
-467.172	-100.453	-0.057	-0.014
-466.157	800.000	0.075	0.253
-465.143	-148.464	0.109	-0.009
-464.128	-136.908	-0.320	0.037
-463.113	12.917	0.060	-0.046
-462.099	-200.000	-0.029	-0.218
-461.084	396.810	0.052	0.108
-460.070	362.125	-0.099	-0.199
-459.055	276.570	0.120	-0.212
-458.040	-27.379	-0.101	0.059
-457.026	144.288	0.048	-0.064
-456.011	800.000	0.041	-0.168
-454.997	227.471	-0.105	-0.171
-453.982	0.634	0.210	0.150
-452.968	-130.496	-0.081	0.011
-451.953	-98.671	-0.057	0.014
-450.938	-139.494	-0.262	0.028
-449.924	800.000	0.060	0.202
-448.909	-97.837	0.265	-0.068
-447.895	-134.170	-0.221	-0.027
-446.880	5.325	-0.472	-0.348
-445.865	-200.000	0.062	-0.605
-444.851	293.828	0.159	-0.291
-443.836	-200.000	-0.031	0.177
-442.822	227.763	0.112	0.183
-441.807	-200.000	-0.310	0.001
-440.792	-33.995	0.075	-0.041
-439.778	-160.855	-0.223	0.012
-438.763	-34.711	0.172	0.094
-437.749	-122.651	-0.377	0.061
-436.734	72.369	0.265	0.276
-435.719	95.668	0.038	-0.044
-434.705	-200.000	0.016	0.198
-433.690	-85.004	0.158	-0.049
-432.676	-66.690	0.103	0.041
-431.661	-33.288	0.225	-0.125
-430.646	-200.000	0.035	-0.240
-429.632	4.725	0.069	-0.050
-428.617	-200.000	-0.016	0.327
-427.603	48.279	0.237	0.222
-426.588	146.598	0.137	0.184
-425.573	55.567	-0.235	0.227
-424.559	-90.948	0.375	0.108
-423.544	18.798	0.058	-0.046
-422.530	76.299	0.249	0.263
-421.515	11.324	0.096	0.073
-420.500	165.131	-0.120	-0.170
-419.486	96.514	0.054	-0.062
-418.471	-70.119	0.080	-0.031
-417.457	800.000	0.066	0.254
-416.442	800.000	-0.024	-0.081
-415.428	523.197	-0.107	0.250
-414.413	48.020	0.196	0.183
-413.398	-117.316	0.180	-0.033
-412.384	-200.000	-0.022	-0.124
-411.369	800.000	0.115	-0.343
-410.355	-20.962	-0.088	0.054
-409.340	-93.749	0.224	0.062
-408.325	30.444	-0.057	-0.049
-407.311	-17.724	-0.157	-0.099
-406.296	800.000	0.061	-0.258
-405.282	70.199	-0.114	-0.118
-404.267	-85.995	-0.335	0.103
-403.252	-133.210	0.420	0.053
-402.238	800.000	0.045	-0.138
-401.223	-200.000	0.008	-0.111
-400.209	-200.000	0.003	0.090
-399.194	-66.981	-0.277	-0.109
-398.179	225.159	-0.264	-0.426
-397.165	213.513	-0.093	0.147
-396.150	478.858	0.155	0.349
-395.136	-17.161	-0.234	-0.147
-394.121	342.625	-0.056	-0.110
-393.106	-200.000	0.019	-0.097
-392.092	410.767	-0.056	-0.119
-391.077	-200.000	0.040	0.378
-390.063	-124.819	0.067	-0.010
-389.048	-57.513	0.404	-0.177
-388.033	127.559	-0.223	-0.282
-387.019	425.120	-0.149	0.321
-386.004	-193.077	-0.150	0.001
-384.990	-54.925	-0.173	-0.078
-383.975	53.506	-0.315	-0.301
-382.960	-118.670	0.140	0.025
-381.946	792.566	0.014	0.038
-380.931	-200.000	-0.010	0.145
-379.917	-200.000	0.009	-0.132
-378.902	-39.048	0.279	-0.146
-377.888	15.963	-0.056	0.044
-376.873	-53.250	0.173	0.079
-375.858	721.881	0.206	0.546
-374.844	46.305	-0.110	-0.102
-373.829	-152.811	-0.294	0.021
-372.815	-200.000	-0.009	-0.445
-371.800	73.129	-0.083	-0.087
-370.785	250.836	-0.108	-0.183
-369.771	-90.417	-0.172	0.050
-368.756	718.447	-0.095	0.251
-367.742	-200.000	0.050	-0.257
-366.727	217.255	-0.132	-0.209
-365.712	-4.666	0.439	-0.302
-364.698	-200.000	0.028	0.532
-363.683	-200.000	0.022	0.247
-362.669	243.680	-0.288	-0.482
-361.654	-36.354	0.190	-0.102
-360.639	-80.740	0.116	-0.038
-359.625	-200.000	0.058	0.313
-358.610	-35.071	-0.232	0.126
-357.596	41.647	0.113	0.102
-356.581	15.718	0.160	-0.125
-355.566	-200.000	-0.005	0.265
-354.552	-200.000	-0.027	-0.254
-353.537	-67.251	-0.151	-0.059
-352.523	13.094	0.256	0.197
-351.508	-79.471	0.069	0.023
-350.493	-200.000	0.001	-0.065
-349.479	-200.000	-0.007	0.245
-348.464	212.641	0.116	-0.182
-347.450	354.045	-0.159	-0.315
-346.435	785.841	0.077	-0.209
-345.420	-200.000	0.049	0.360
-344.406	-81.165	-0.224	0.074
-343.391	-33.199	0.378	-0.209
-342.377	800.000	-0.100	0.284
-341.362	800.000	-0.051	0.193
-340.348	-78.266	0.144	-0.049
-339.333	-200.000	0.044	-0.263
-338.318	83.388	0.270	-0.292
-337.304	-27.557	-0.329	-0.190
-336.289	482.237	-0.030	-0.069
-335.275	713.976	-0.079	0.208
-334.260	-126.387	0.117	-0.017
-333.245	483.847	0.060	-0.135
-332.231	-23.052	0.362	-0.217
-331.216	616.227	-0.125	0.312
-330.202	51.794	-0.129	-0.123
-329.187	-200.000	0.047	0.000
-328.172	-200.000	0.048	0.318
-327.158	482.739	-0.102	0.231
-326.143	47.152	-0.078	0.072
-325.129	152.224	-0.125	0.169
-324.114	71.191	0.313	0.323
-323.099	57.241	0.068	0.066
-322.085	-200.000	-0.061	0.271
-321.070	-109.653	-0.161	0.034
-320.056	70.454	-0.226	0.232
-319.041	-200.000	-0.018	-0.228
-318.026	-200.000	-0.016	-0.205
-317.012	-85.576	0.237	0.073
-315.997	-58.429	-0.291	-0.126
-314.983	-200.000	0.010	-0.065
-313.968	68.311	-0.139	-0.142
-312.953	800.000	-0.090	0.257
-311.939	-152.665	-0.284	-0.020
-310.924	-117.753	0.261	0.047
-309.910	-139.572	-0.322	0.034
-308.895	104.690	0.135	0.158
-307.880	-200.000	-0.013	0.095
-306.866	-93.373	0.078	-0.021
-305.851	-117.760	0.175	0.031
-304.837	1.453	0.029	0.021
-303.822	342.407	0.104	-0.202
-302.807	-200.000	-0.018	-0.211
-301.793	-200.000	-0.019	-0.357
-300.778	800.000	0.085	-0.240
-299.764	134.515	0.325	0.418
-298.749	-200.000	-0.003	-0.191
-297.735	-142.703	0.471	0.046
-296.720	103.303	0.122	-0.142
-295.705	-200.000	0.002	0.344
-294.691	53.034	-0.092	-0.088
-293.676	18.116	-0.172	0.136
-292.662	800.000	0.040	0.135
-291.647	5.139	0.293	-0.215
-290.632	-123.376	-0.188	0.030
-289.618	-23.763	-0.114	-0.068
-288.603	-124.056	0.176	0.027
-287.589	-128.612	0.564	0.079
-286.574	-116.481	-0.081	-0.015
-285.559	114.514	0.044	-0.053
-284.545	159.888	0.045	-0.063
-283.530	-103.382	0.107	0.025
-282.516	158.571	0.189	-0.261
-281.501	-200.000	-0.045	-0.248
-280.486	671.846	-0.108	-0.278
-279.472	-141.044	-0.199	0.020
-278.457	-200.000	0.060	0.342
-277.443	0.180	-0.163	-0.116
-276.428	800.000	-0.062	0.218
-275.413	-140.847	0.372	0.038
-274.399	-25.109	-0.157	0.093
-273.384	-67.316	0.113	0.044
-272.370	44.559	0.111	-0.101
-271.355	-200.000	-0.050	-0.253
-270.340	13.871	0.099	0.077
-269.326	-200.000	0.046	-0.234
-268.311	-40.323	-0.227	0.117
-267.297	-200.000	0.014	0.070
-266.282	4.072	0.230	0.167
-265.267	236.348	-0.078	0.127
-264.253	133.582	-0.042	-0.054
-263.238	-154.951	0.195	-0.013
-262.224	306.708	0.083	-0.153
-261.209	62.204	0.162	-0.161
-260.195	-38.572	0.234	0.123
-259.180	34.991	0.160	0.139
-258.165	545.196	-0.057	0.136
-257.151	32.619	0.186	0.160
-256.136	-200.000	-0.015	0.250
-255.122	26.184	0.028	-0.024
-254.107	-200.000	0.003	-0.485
-253.092	41.821	-0.080	0.072
-252.078	231.416	-0.029	-0.046
-251.063	-7.687	-0.149	0.100
-250.049	-200.000	0.008	0.287
-249.034	-50.703	0.171	0.080
-248.019	-200.000	-0.041	0.313
-247.005	-8.020	-0.097	-0.065
-245.990	800.000	0.057	-0.163
-244.976	48.910	0.155	0.145
-243.961	-200.000	0.031	0.352
-242.946	-200.000	0.017	0.227
-241.932	-200.000	-0.013	0.296
-240.917	800.000	-0.083	0.331
-239.903	-20.292	-0.084	-0.051
-238.888	75.976	-0.221	-0.232
-237.873	800.000	-0.055	-0.162
-236.859	-128.742	0.215	-0.030
-235.844	178.659	0.044	-0.063
-234.830	800.000	-0.140	0.411
-233.815	-99.565	-0.178	0.044
-232.800	-200.000	0.044	0.236
-231.786	-70.373	-0.052	-0.019
-230.771	-71.186	-0.222	-0.083
-229.757	-49.257	0.363	-0.172
-228.742	559.806	-0.037	0.088
-227.727	20.138	-0.186	0.149
-226.713	-72.432	0.212	-0.078
-225.698	554.164	-0.042	0.100
-224.684	-200.000	0.008	0.340
-223.669	-65.390	0.393	0.156
-222.655	23.346	-0.243	-0.198
-221.640	-200.000	0.047	-0.471
-220.625	-200.000	0.015	-0.282
-219.611	42.989	0.148	-0.134
-218.596	697.724	0.146	0.380
-217.582	270.241	0.049	0.085
-216.567	84.063	-0.147	0.159
-215.552	104.210	-0.283	0.330
-214.538	2.453	0.133	-0.095
-213.523	17.831	0.220	0.173
-212.509	-92.847	0.062	0.017
-211.494	-113.873	0.219	0.042
-210.479	-200.000	0.013	-0.200
-209.465	84.254	0.195	-0.211
-208.450	-200.000	0.005	0.132
-207.436	-65.861	0.290	-0.115
-206.421	-61.974	-0.147	-0.061
-205.406	800.000	-0.105	-0.434
-204.392	-76.908	0.127	-0.044
-203.377	-78.424	-0.427	0.145
-202.363	40.004	0.086	-0.076
-201.348	736.380	0.065	0.172
-200.333	-53.693	-0.372	0.168
-199.319	246.468	0.057	0.095
-198.304	205.820	0.055	0.085
-197.290	361.036	-0.098	0.194
-196.275	-69.716	-0.427	0.162
-195.260	-179.124	-0.268	-0.006
-194.246	65.835	-0.118	-0.118
-193.231	800.000	-0.054	-0.162
-192.217	165.795	-0.177	0.248
-191.202	-52.873	-0.058	-0.026
-190.187	-90.044	-0.224	-0.065
-189.173	-200.000	-0.040	-0.250
-188.158	384.971	0.128	-0.262
-187.144	525.242	0.074	-0.172
-186.129	-200.000	0.010	-0.066
-185.114	-15.833	-0.026	-0.016
-184.100	800.000	0.072	-0.247
-183.085	21.862	-0.157	0.127
-182.071	-200.000	0.072	0.551
-181.056	-45.177	0.259	0.127
-180.042	-100.161	0.109	-0.027
-179.027	284.789	0.141	-0.251
-178.012	-146.793	-0.391	-0.033
-176.998	-200.000	-0.019	0.104
-175.983	-125.224	-0.380	0.057
-174.969	-3.910	-0.112	-0.077
-173.954	673.073	0.049	0.126
-172.939	800.000	-0.025	-0.097
-171.925	-200.000	-0.005	-0.037
-170.910	-200.000	-0.027	0.185
-169.896	33.674	-0.067	-0.058
-168.881	206.902	-0.090	0.138
-167.866	-97.323	0.085	-0.022
-166.852	14.415	-0.138	-0.106
-165.837	800.000	0.054	-0.172
-164.823	-21.679	-0.177	-0.107
-163.808	-200.000	0.013	0.144
-162.793	32.602	-0.035	0.030
-161.779	-18.362	0.139	-0.086
-160.764	-88.376	-0.084	-0.025
-159.750	-51.878	0.233	0.107
-158.735	407.989	0.060	0.125
-157.720	-91.614	-0.138	-0.039
-156.706	-99.588	-0.655	-0.162
-155.691	475.507	0.104	0.233
-154.677	259.448	-0.085	0.144
-153.662	800.000	0.076	0.286
-152.647	-35.235	0.139	-0.074
-151.633	-200.000	0.017	0.214
-150.618	73.116	0.111	-0.115
-149.604	-86.818	-0.226	-0.068
-148.589	399.189	0.114	-0.235
-147.574	-169.929	-0.211	0.007
-146.560	-159.122	0.258	0.014
-145.545	255.550	0.093	0.158
-144.531	380.019	0.194	0.392
-143.516	659.167	-0.056	-0.142
-142.502	508.267	-0.026	-0.059
-141.487	52.615	0.036	-0.034
-140.472	-42.488	-0.423	-0.213
-139.458	800.000	0.133	0.436
-138.443	800.000	0.061	-0.202
-137.429	-31.957	0.231	0.128
-136.414	-98.383	-0.245	0.062
-135.399	-200.000	0.002	-0.043
-134.385	35.795	0.134	-0.117
-133.370	83.994	-0.239	0.258
-132.356	-33.026	-0.342	0.188
-131.341	588.490	-0.119	0.289
-130.326	13.753	-0.225	-0.173
-129.312	167.108	-0.233	0.327
-128.297	320.202	-0.070	0.131
-127.283	-200.000	-0.042	0.302
-126.268	-183.451	0.303	-0.005
-125.253	-68.041	-0.271	0.104
-124.239	-125.406	-0.094	-0.014
-123.224	-200.000	0.017	-0.090
-122.210	91.281	0.142	-0.158
-121.195	121.534	-0.180	0.221
-120.180	-84.872	0.293	-0.091
-119.166	-38.617	0.072	0.038
-118.151	-200.000	-0.035	0.358
-117.137	-15.590	0.263	-0.166
-116.122	-200.000	-0.011	-0.247
-115.107	800.000	-0.042	-0.170
-114.093	-49.204	0.134	0.063
-113.078	800.000	0.047	0.165
-112.064	-200.000	0.009	0.134
-111.049	-200.000	0.001	-0.583
-110.034	-26.284	0.131	-0.076
-109.020	58.952	0.111	0.108
-108.005	141.470	-0.188	0.245
-106.991	265.579	-0.127	-0.219
-105.976	-200.000	-0.028	-0.121
-104.962	224.434	-0.225	-0.359
-103.947	16.087	-0.103	-0.080
-102.932	-64.576	-0.059	-0.023
-101.918	-16.411	0.172	0.108
-100.903	-200.000	0.067	0.344
-99.889	-130.562	0.194	0.026
-98.874	194.450	-0.253	-0.378
-97.859	-200.000	0.021	0.118
-96.845	-21.603	-0.044	-0.027
-95.830	-200.000	0.007	-0.122
-94.816	-46.471	0.094	0.045
-93.801	800.000	-0.014	-0.054
-92.786	271.720	0.073	-0.126
-91.772	113.496	0.089	-0.107
-90.757	22.653	-0.231	0.187
-89.743	-64.342	-0.130	0.052
-88.728	208.503	0.222	-0.341
-87.713	-29.408	0.131	0.074
-86.699	-12.231	0.128	0.083
-85.684	55.707	-0.265	-0.253
-84.670	78.041	-0.128	0.134
-83.655	77.365	-0.038	-0.040
-82.640	-200.000	0.000	-0.161
-81.626	-94.290	0.266	0.072
-80.611	115.875	0.176	0.212
-79.597	-92.730	-0.280	0.077
-78.582	-200.000	-0.044	0.364
-77.567	-52.742	-0.446	0.203
-76.553	-121.878	-0.163	-0.027
-75.538	1.597	0.071	-0.050
-74.524	16.269	-0.474	-0.369
-73.509	-200.000	0.053	0.317
-72.494	-69.992	-0.059	-0.022
-71.480	800.000	-0.046	0.190
-70.465	6.223	-0.140	-0.102
-69.451	107.300	-0.241	-0.282
-68.436	-200.000	0.066	0.414
-67.422	121.543	-0.126	-0.154
-66.407	-200.000	-0.023	0.179
-65.392	636.737	-0.110	-0.276
-64.378	4.339	0.180	-0.130
-63.363	-1.936	-0.139	0.096
-62.349	-77.112	0.414	0.142
-61.334	50.222	-1.087	-1.011
-60.319	-64.025	0.557	0.224
-59.305	-200.000	-0.049	-1.290
-58.290	208.712	0.713	1.098
-57.276	452.329	0.687	1.496
-56.261	-200.000	96.357	572.571
-55.246	546.712	1378.283	3245.221
-54.232	160.154	2553.235	3503.332
-53.217	110.688	2161.845	2559.191
-52.203	43.371	1706.481	1534.457
-51.188	36.333	1520.280	1319.095
-50.173	33.893	1493.553	1279.451
-49.159	53.049	1542.298	1452.680
-48.144	54.709	1560.076	1480.730
-47.130	36.401	1519.699	1318.846
-46.115	33.387	1504.578	1285.257
-45.100	33.215	1501.519	1281.423
-44.086	33.137	1499.894	1279.458
-43.071	33.172	1497.865	1277.912
-42.057	33.041	1496.390	1275.721
-41.042	33.115	1494.655	1274.691
-40.027	33.106	1493.096	1273.250
-39.013	33.033	1492.117	1271.871
-37.998	33.018	1490.916	1270.697
-36.984	33.033	1489.906	1269.888
-35.969	33.061	1488.580	1268.896
-34.954	33.098	1487.007	1267.755
-33.940	32.987	1485.700	1265.843
-32.925	33.142	1484.122	1265.484
-31.911	33.067	1482.927	1263.914
-30.896	33.144	1481.644	1263.286
-29.881	33.081	1480.742	1262.048
-28.867	33.167	1478.887	1260.988
-27.852	33.108	1477.025	1258.956
-26.838	33.070	1476.035	1257.811
-25.823	33.085	1474.922	1256.914
-24.809	33.010	1472.908	1254.652
-23.794	33.083	1471.205	1253.632
-22.779	33.109	1470.100	1252.811
-21.765	33.019	1468.849	1251.100
-20.750	33.163	1468.030	1251.310
-19.736	33.123	1466.765	1249.915
-18.721	33.053	1466.094	1248.829
-17.706	33.076	1464.816	1247.843
-16.692	33.038	1463.877	1246.742
-15.677	33.132	1462.501	1246.142
-14.663	33.030	1461.940	1244.944
-13.648	32.946	1461.019	1243.559
-12.633	32.924	1460.136	1242.610
-11.619	33.039	1458.795	1242.175
-10.604	33.017	1458.353	1241.604
-9.590	32.961	1457.369	1240.350
-8.575	33.032	1456.058	1239.654
-7.560	33.067	1455.598	1239.442
-6.546	32.929	1454.768	1237.781
-5.531	32.982	1454.274	1237.660
-4.517	32.951	1452.877	1236.216
-3.502	32.922	1452.132	1235.346
-2.487	32.936	1450.617	1234.096
-1.473	32.907	1449.736	1233.109
-0.458	32.993	1448.408	1232.491
0.556	33.514	1439.484	1221.963
1.571	30.798	1414.656	1183.543
2.586	27.527	1361.752	1119.127
3.600	26.143	1284.052	1047.155
4.615	24.750	1236.536	1000.527
5.629	21.254	1178.632	934.916
6.644	11.185	1091.445	815.522
7.659	3.398	1048.029	745.462
8.673	2.250	1042.830	736.170
9.688	2.162	1039.578	733.387
10.702	1.830	1038.625	731.061
11.717	2.049	1035.979	730.181
12.731	5.756	1040.438	751.045
13.746	15.641	1054.444	808.874
14.761	23.173	1064.434	852.919
15.775	24.925	1066.387	862.856
16.790	25.289	1065.908	864.145
17.804	25.143	1064.855	862.513
18.819	25.043	1064.343	861.544
19.834	25.075	1063.583	861.005
20.848	25.228	1063.437	861.547
21.863	25.336	1062.804	861.476
22.877	25.320	1062.201	860.832
23.892	25.304	1061.819	860.372
24.907	25.193	1060.780	858.921
25.921	25.120	1060.323	858.125
26.936	25.073	1059.543	857.194
27.950	25.225	1058.160	856.722
28.965	25.060	1057.165	855.056
29.980	25.105	1055.495	853.844
30.994	25.060	1054.364	852.638
32.009	25.168	1053.365	852.269
33.023	25.311	1053.205	852.742
34.038	25.051	1052.259	850.667
35.053	25.081	1051.433	850.068
36.067	25.235	1050.524	849.988
37.082	25.203	1049.936	849.285
38.096	25.296	1048.761	848.700
39.111	25.580	1048.246	849.548
40.126	25.555	1047.655	848.878
41.140	25.470	1046.259	847.270
42.155	25.062	1045.507	844.661
43.169	24.991	1043.777	842.855
44.184	24.787	1042.745	840.987
45.199	24.981	1041.399	840.739
46.213	24.820	1040.770	839.402
47.228	24.722	1040.520	838.668
48.242	24.926	1039.692	838.884
49.257	25.050	1039.315	839.085
50.271	25.029	1038.431	838.197
51.286	25.268	1037.341	838.358
52.301	25.285	1036.908	838.017
53.315	25.322	1036.149	837.502
54.330	25.212	1035.251	836.186
55.344	25.155	1034.410	835.169
56.359	25.332	1033.309	835.031
57.374	25.279	1032.654	834.178
58.388	25.034	1031.731	832.225
59.403	24.965	1031.075	831.300
60.417	25.072	1030.279	831.080
61.432	24.792	1029.848	829.363
62.447	24.843	1029.025	828.860
63.461	25.007	1028.308	828.971
64.476	25.035	1027.932	828.721
65.490	25.061	1026.515	827.629
66.505	24.838	1025.988	826.100
67.520	24.776	1025.330	825.210
68.534	24.915	1024.837	825.380
69.549	24.952	1023.055	824.045
70.563	24.658	1021.995	821.767
71.578	24.496	1021.213	820.322
72.593	24.592	1020.432	820.059
73.607	24.402	1019.398	818.286
74.622	24.404	1018.228	817.283
75.636	24.653	1017.711	817.938
76.651	24.853	1017.236	818.396
77.666	24.785	1015.732	816.806
78.680	24.709	1015.266	816.010
79.695	24.648	1014.549	815.082
80.709	24.834	1013.985	815.408
81.724	24.868	1013.368	814.994
82.739	24.868	1012.200	813.983
83.753	24.816	1011.616	813.204
84.768	25.181	1010.976	814.275
85.782	25.464	1010.721	815.281
86.797	25.594	1010.379	815.524
87.812	25.484	1009.174	813.977
88.826	25.372	1008.329	812.721
89.841	25.490	1007.403	812.436
90.855	25.514	1006.756	811.949
91.870	25.601	1005.490	811.248
92.884	25.538	1004.787	810.323
93.899	25.349	1004.303	809.011
94.914	25.315	1003.233	807.924
95.928	25.391	1002.773	807.824
96.943	25.473	1001.601	807.180
97.957	25.109	1000.670	804.723
98.972	24.934	999.551	802.965
99.987	24.742	998.448	801.152
101.001	24.854	998.084	801.287
102.016	25.228	997.284	802.247
103.030	25.150	996.710	801.369
104.045	25.257	995.432	800.747
105.060	25.040	994.377	798.859
106.074	24.836	993.188	796.926
107.089	24.851	992.433	796.317
108.103	25.116	992.216	797.249
109.118	25.225	991.133	796.791
110.133	24.988	989.696	794.515
111.147	24.884	988.683	793.172
112.162	24.833	988.068	792.381
113.176	24.666	986.690	790.470
114.191	24.755	986.074	790.297
115.206	24.873	985.175	790.031
116.220	24.673	984.063	788.186
117.235	24.402	983.153	786.194
118.249	24.682	982.854	787.117
119.264	24.532	981.940	785.657
120.279	24.570	981.018	785.014
121.293	24.604	979.968	784.257
122.308	24.620	979.895	784.197
123.322	24.551	979.108	783.198
124.337	24.589	977.656	782.131
125.352	24.573	976.361	780.957
126.366	24.023	975.175	777.538
127.381	23.823	973.726	775.440
128.395	24.278	973.578	777.239
129.410	25.132	973.274	780.645
130.424	25.228	972.277	780.194
131.439	25.117	971.661	779.148
132.454	25.075	970.819	778.223
133.468	25.026	969.702	777.046
134.483	25.031	969.147	776.554
135.497	25.154	968.331	776.364
136.512	25.442	967.809	777.124
137.527	25.589	966.987	777.027
138.541	25.392	966.100	775.397
139.556	25.365	965.577	774.790
140.570	25.440	964.923	774.523
141.585	25.314	964.287	773.400
142.600	25.485	963.463	773.406
143.614	25.403	962.334	772.082
144.629	25.473	961.789	771.877
145.643	25.592	961.356	771.970
146.658	25.569	960.354	770.999
147.673	25.341	959.205	769.031
148.687	25.350	957.659	767.762
149.702	25.179	956.812	766.284
150.716	25.196	955.521	765.255
151.731	25.124	954.592	764.139
152.746	25.206	954.441	764.299
153.760	25.426	953.746	764.613
154.775	25.547	953.122	764.556
155.789	25.485	952.261	763.537
156.804	25.621	950.990	763.025
157.819	25.413	950.438	761.636
158.833	25.704	949.547	762.087
159.848	25.647	948.985	761.324
160.862	25.759	947.845	760.818
161.877	25.714	946.664	759.610
162.892	25.422	946.444	758.138
163.906	25.592	945.470	758.006
164.921	25.719	944.408	757.622
165.935	25.474	943.345	755.671
166.950	25.524	942.655	755.261
167.964	25.581	941.833	754.774
168.979	25.613	940.914	754.105
169.994	25.606	939.768	753.092
171.008	25.342	938.758	751.111
172.023	25.472	937.985	750.971
173.037	25.549	937.762	751.046
174.052	25.500	936.243	749.561
175.067	25.221	935.504	747.740
176.081	25.271	934.377	746.981
177.096	25.316	933.759	746.609
178.110	25.519	932.783	746.604
179.125	25.109	932.039	744.241
180.140	24.860	930.942	742.268
181.154	24.837	930.382	741.660
182.169	24.968	929.872	741.728
183.183	25.318	929.640	742.929
184.198	25.562	929.031	743.384
185.213	25.469	928.646	742.624
186.227	25.493	927.732	741.927
187.242	25.587	927.190	741.817
188.256	25.550	926.667	741.180
189.271	25.804	925.274	741.046
190.286	25.670	925.216	740.381
191.300	25.551	923.877	738.757
192.315	25.003	922.326	735.202
193.329	24.192	920.946	730.713
194.344	23.851	919.932	728.447
195.359	24.473	920.199	731.140
196.373	25.119	920.787	734.190
197.388	25.389	920.684	735.148
198.402	25.385	919.902	734.442
199.417	25.488	919.231	734.264
200.432	25.389	918.906	733.533
201.446	25.376	917.788	732.525
202.461	25.113	916.941	730.711
203.475	25.058	916.705	730.237
204.490	24.681	915.173	727.414
205.504	23.534	912.766	720.779
206.519	23.880	912.796	722.147
207.534	24.808	913.420	726.347
208.548	24.883	912.686	726.002
209.563	25.383	912.514	727.828
210.577	25.485	911.114	727.059
211.592	25.130	911.042	725.502
212.607	25.463	910.782	726.576
213.621	25.722	910.422	727.270
214.636	25.531	909.928	726.041
215.650	25.691	908.757	725.686
216.665	25.427	908.652	724.476
217.680	25.690	907.712	724.722
218.694	25.722	907.484	724.603
219.709	25.358	906.733	722.476
220.723	24.900	905.580	719.653
221.738	25.239	904.950	720.449
222.753	25.454	904.749	721.087
223.767	25.394	903.826	720.048
224.782	25.344	903.349	719.404
225.796	25.510	902.696	719.486
226.811	25.781	902.090	720.023
227.826	25.506	900.493	717.588
228.840	24.486	899.161	712.395
229.855	24.375	898.819	711.616
230.869	24.589	898.632	712.259
231.884	24.385	897.372	710.385
232.899	24.449	896.766	710.099
233.913	25.314	897.035	713.687
234.928	25.451	896.498	713.744
235.942	25.152	896.422	712.432
236.957	25.406	895.214	712.415
237.972	24.958	894.410	709.936
238.986	24.969	893.680	709.337
240.001	24.994	893.255	709.035
241.015	25.013	892.569	708.506
242.030	25.204	892.170	708.879
243.045	25.363	891.615	709.003
244.059	25.380	891.171	708.656
245.074	25.541	890.475	708.676
246.088	25.491	890.074	708.094
247.103	25.046	889.101	705.507
248.117	25.311	888.351	705.893
249.132	25.804	888.227	707.669
250.147	26.129	888.243	708.893
251.161	26.097	887.923	708.452
252.176	26.228	887.807	708.812
253.190	26.343	886.692	708.309
254.205	26.203	886.260	707.354
255.220	26.395	886.220	708.009
256.234	26.492	885.291	707.585
257.249	26.383	884.838	706.733
258.263	26.219	883.943	705.313
259.278	26.253	883.079	704.697
260.293	26.429	882.949	705.217
261.307	26.347	882.426	704.414
262.322	26.315	881.509	703.499
263.336	26.278	881.095	702.961
264.351	25.891	879.321	699.978
265.366	24.530	878.068	693.640
266.380	24.211	877.220	691.669
267.395	25.139	877.458	695.395
268.409	25.848	877.356	698.002
269.424	25.789	876.721	697.206
270.439	25.861	876.528	697.272
271.453	26.117	875.874	697.679
272.468	26.199	875.049	697.277
273.482	26.286	874.703	697.273
274.497	26.467	874.244	697.543
275.512	26.163	873.210	695.489
276.526	25.596	871.869	692.177
277.541	25.891	871.615	693.050
278.555	26.124	871.232	693.577
279.570	25.842	871.250	692.447
280.585	25.812	870.048	691.315
281.599	25.914	869.518	691.224
282.614	26.020	869.022	691.175
283.628	25.628	867.943	688.755
284.643	25.097	867.235	686.100
285.657	25.494	867.111	687.462
286.672	25.475	866.112	686.534
287.687	25.042	865.271	684.153
288.701	25.243	865.620	685.137
289.716	25.892	864.674	686.803
290.730	25.409	864.159	684.494
291.745	25.350	863.234	683.476
292.760	25.111	862.376	681.827
293.774	25.114	861.852	681.364
294.789	26.064	862.625	685.527
295.803	26.481	862.726	687.130
296.818	26.529	862.255	686.874
297.833	26.889	861.429	687.520
298.847	26.505	860.350	685.145
299.862	25.961	859.801	682.589
300.876	26.354	858.839	683.252
301.891	26.526	858.639	683.682
302.906	26.694	858.137	683.857
303.920	26.371	856.733	681.461
304.935	26.242	856.186	680.477
305.949	26.635	856.062	681.800
306.964	26.730	855.519	681.661
307.979	26.459	854.757	679.978
308.993	26.328	854.406	679.145
310.008	26.652	854.207	680.145
311.022	26.757	853.897	680.230
312.037	26.742	853.331	679.662
313.052	26.376	852.536	677.599
314.066	26.329	851.815	676.789
315.081	25.622	850.121	672.743
316.095	24.918	849.289	669.392
317.110	25.319	849.515	671.011
318.125	26.083	850.015	674.200
319.139	25.742	848.401	671.591
320.154	24.732	846.736	666.449
321.168	24.304	845.953	664.180
322.183	24.917	846.181	666.583
323.197	25.759	846.551	669.950
324.212	26.059	846.184	670.716
325.227	26.182	846.053	671.011
326.241	26.409	845.286	671.187
327.256	26.310	844.650	670.255
328.270	26.219	844.460	669.705
329.285	26.153	843.276	668.463
330.300	26.052	842.503	667.418
331.314	25.785	841.700	665.737
332.329	25.782	841.479	665.492
333.343	26.439	840.859	667.369
334.358	26.542	840.679	667.544
335.373	26.563	839.886	666.934
336.387	26.557	839.357	666.432
337.402	26.735	839.326	667.006
338.416	26.933	838.970	667.390
339.431	26.855	838.270	666.490
340.446	26.927	837.833	666.346
341.460	27.134	837.352	666.664
342.475	27.137	836.536	665.968
343.489	26.958	835.956	664.790
344.504	26.893	835.255	663.936
345.519	27.118	835.008	664.504
346.533	27.275	834.746	664.812
347.548	27.414	834.571	665.121
348.562	27.474	833.863	664.715
349.577	27.492	833.060	664.085
350.592	27.271	832.869	663.066
351.606	27.156	832.440	662.246
352.621	27.258	831.732	661.998
353.635	27.179	831.185	661.217
354.650	27.073	830.886	660.535
355.665	26.701	829.867	658.314
356.679	25.643	828.291	653.167
357.694	25.589	827.778	652.508
358.708	26.386	827.277	654.942
359.723	26.288	826.910	654.239
360.738	26.483	826.487	654.554
361.752	26.927	826.398	656.030
362.767	26.921	826.398	655.953
363.781	27.214	826.188	656.786
364.796	27.599	825.805	657.812
365.810	27.539	825.686	657.442
366.825	27.640	825.633	657.707
367.840	27.697	824.916	657.284
368.854	27.500	824.368	656.079
369.869	27.044	823.397	653.608
370.883	26.856	822.608	652.248
371.898	27.071	822.216	652.652
372.913	27.030	821.354	651.762
373.927	26.995	820.853	651.182
374.942	27.143	820.277	651.198
375.956	27.167	819.855	650.891
376.971	27.413	819.069	651.088
377.986	27.433	818.685	650.799
379.000	27.538	818.611	651.054
380.015	27.717	817.694	650.910
381.029	27.405	817.117	649.279
382.044	27.577	816.579	649.405
383.059	27.553	816.485	649.188
384.073	27.756	815.532	649.097
385.088	27.484	815.239	647.837
386.102	27.693	814.596	648.011
387.117	27.408	813.607	646.156
388.132	27.306	813.000	645.257
389.146	27.028	812.863	644.105
390.161	26.567	811.734	641.520
391.175	26.794	811.003	641.688
392.190	27.339	811.306	643.798
393.205	27.325	810.887	643.360
394.219	26.341	809.094	638.409
395.234	24.621	806.934	630.585
396.248	23.879	805.784	627.013
397.263	25.005	806.877	631.781
398.278	26.656	808.376	638.727
399.292	27.231	807.991	640.391
400.307	26.926	807.213	638.647
401.321	26.789	806.923	637.879
402.336	26.968	806.609	638.203
403.350	27.200	806.427	638.816
404.365	27.724	806.232	640.444
405.380	27.949	806.111	641.082
406.394	28.395	805.967	642.477
407.409	28.332	805.441	641.780
408.423	28.204	805.054	640.964
409.438	28.232	804.538	640.595
410.453	28.448	803.991	640.859
411.467	28.429	803.479	640.326
412.482	28.190	803.323	639.313
413.496	28.379	802.300	639.100
414.511	28.528	801.924	639.265
415.526	28.314	801.873	638.422
416.540	28.234	801.818	638.040
417.555	28.295	800.946	637.502
418.569	28.048	800.159	635.961
419.584	27.939	799.786	635.229
420.599	28.102	799.003	635.118
421.613	110.796	1284.235	1455.416
422.628	95.564	1354.912	1455.553
