DTS Sentinel unit serial number:	SN413079Multiplexer serial number:	ORYXHardware model number:	OX4-SRSoftware version number:	ORYX F/W v4.00 Oryx Data Collector v3.7.2.0data status	okinstallation	princeton_trtdifferential loss correction	single-endedforward channel	channel 3reverse channel	N/Adate	2019/09/19time	05:12:35forward acquisition time	60.00reverse acquisition time	0.00gamma	496.2192k internal	0.2349k external	0.2349temperature offset calibration	0.9989default loss term (dB/km)	0.3790temperature slope calibration	1.0000multiplexer offset coefficient	1.0000multiplexer slope coefficient	1.0000fibre end	0.00T internal ref (°C)	19.56T ext. ref 1 (°C)	0.61T ext. ref 2 (°C)	12.73length (m)	temperature (°C)	Stokes	anti-Stokes-747.200	-138.790	-0.126	0.014
-746.185	800.000	-0.037	0.111
-745.171	282.571	-0.116	0.209
-744.156	273.863	-0.170	0.300
-743.142	-17.445	0.234	0.147
-742.127	163.617	-0.117	-0.164
-741.112	-33.217	-0.157	-0.087
-740.098	-170.531	-0.188	-0.007
-739.083	800.000	0.047	-0.185
-738.069	204.590	-0.182	0.282
-737.054	-200.000	-0.009	-0.223
-736.039	38.141	-0.284	-0.253
-735.025	26.302	0.110	-0.092
-734.010	-175.785	-0.155	0.004
-732.996	-17.900	-0.198	0.124
-731.981	800.000	0.142	-0.398
-730.966	100.544	-0.118	0.137
-729.952	-60.375	-0.084	0.036
-728.937	107.125	0.381	-0.452
-727.923	249.185	-0.166	-0.281
-726.908	-200.000	-0.080	-0.470
-725.894	160.189	-0.227	-0.316
-724.879	-83.551	0.243	-0.078
-723.864	70.138	-0.144	0.148
-722.850	800.000	0.037	-0.110
-721.835	201.427	-0.232	-0.356
-720.821	209.857	0.143	0.223
-719.806	-17.842	-0.202	-0.126
-718.791	-92.986	-0.137	0.038
-717.777	-200.000	0.014	0.216
-716.762	591.900	0.221	0.544
-715.748	152.068	-0.147	0.200
-714.733	-200.000	-0.020	-0.348
-713.718	676.720	-0.105	0.271
-712.704	-64.577	0.256	-0.104
-711.689	-38.263	-0.295	-0.156
-710.675	-179.082	0.093	-0.002
-709.660	283.602	-0.141	0.252
-708.645	-25.006	-0.265	0.157
-707.631	800.000	0.083	0.281
-706.616	-89.779	0.199	0.058
-705.602	-78.583	0.289	-0.099
-704.587	-133.351	-0.354	-0.045
-703.572	77.401	0.329	-0.349
-702.558	-6.282	0.251	0.171
-701.543	-112.529	-0.066	-0.013
-700.529	-200.000	0.017	-0.352
-699.514	-51.590	-0.189	0.088
-698.499	-200.000	0.060	-0.306
-697.485	-200.000	0.045	-0.198
-696.470	-13.244	-0.059	-0.038
-695.456	-148.957	-0.173	0.014
-694.441	800.000	-0.048	-0.151
-693.426	658.900	0.057	-0.147
-692.412	144.700	-0.143	0.191
-691.397	102.915	-0.111	-0.130
-690.383	76.501	-0.216	-0.229
-689.368	22.125	0.271	-0.220
-688.354	800.000	0.040	0.122
-687.339	-89.505	0.215	0.063
-686.324	-68.793	-0.203	-0.078
-685.310	-4.358	-0.313	-0.216
-684.295	-163.312	-0.056	0.003
-683.281	-98.418	-0.091	-0.023
-682.266	-64.328	-0.203	-0.082
-681.251	-150.740	-0.166	0.013
-680.237	-12.554	0.297	-0.193
-679.222	465.596	0.081	0.181
-678.208	-11.862	-0.142	-0.093
-677.193	-177.174	0.096	-0.002
-676.178	33.019	-0.095	-0.082
-675.164	-119.156	0.443	-0.077
-674.149	-69.946	-0.194	-0.074
-673.135	27.346	0.111	0.093
-672.120	-164.109	-0.344	0.016
-671.105	-127.475	0.263	0.038
-670.091	128.985	0.049	-0.062
-669.076	15.895	0.032	-0.025
-668.062	-42.382	-0.124	-0.063
-667.047	-93.543	0.093	-0.026
-666.032	425.901	0.122	0.262
-665.018	-200.000	-0.044	-0.198
-664.003	-90.370	0.185	-0.053
-662.989	49.492	-0.199	-0.187
-661.974	-10.579	0.166	0.110
-660.959	-21.665	0.179	0.109
-659.945	-32.892	-0.136	0.075
-658.930	740.669	0.057	-0.153
-657.916	22.473	0.475	-0.387
-656.901	-200.000	0.040	0.194
-655.886	-39.948	0.131	0.068
-654.872	48.622	0.099	-0.092
-653.857	466.689	-0.160	-0.358
-652.843	-53.877	-0.185	0.084
-651.828	4.944	0.246	-0.180
-650.814	54.160	0.103	-0.099
-649.799	283.208	-0.196	-0.350
-648.784	96.720	-0.237	0.270
-647.770	189.668	0.176	-0.263
-646.755	-50.426	-0.252	0.118
-645.741	607.392	-0.116	-0.288
-644.726	340.763	0.042	-0.081
-643.711	364.477	-0.127	0.254
-642.697	82.282	-0.098	0.106
-641.682	-148.175	0.260	-0.021
-640.668	-27.490	-0.143	0.082
-639.653	-0.411	0.124	-0.088
-638.638	800.000	-0.030	-0.104
-637.624	-17.489	0.097	0.061
-636.609	-174.481	0.104	0.003
-635.595	71.810	-0.085	-0.088
-634.580	800.000	0.036	-0.126
-633.565	-78.450	0.259	-0.088
-632.551	132.764	0.065	-0.083
-631.536	278.191	0.174	-0.308
-630.522	40.499	-0.241	-0.216
-629.507	515.927	-0.067	-0.157
-628.492	800.000	-0.084	0.254
-627.478	204.417	-0.116	0.180
-626.463	-137.101	0.260	0.030
-625.449	-13.778	-0.149	-0.096
-624.434	-171.207	-0.257	0.009
-623.419	-34.959	0.288	-0.156
-622.405	-200.000	0.041	0.270
-621.390	-200.000	0.041	-0.231
-620.376	-200.000	-0.038	-0.315
-619.361	26.827	0.037	-0.031
-618.346	64.274	-0.112	-0.112
-617.332	-45.571	0.462	-0.227
-616.317	2.571	-0.157	0.113
-615.303	800.000	-0.014	0.053
-614.288	344.855	-0.120	-0.235
-613.273	-11.285	-0.211	0.138
-612.259	-61.320	0.418	0.175
-611.244	90.226	-0.174	-0.193
-610.230	-200.000	0.009	-0.157
-609.215	-154.226	-0.338	-0.023
-608.201	358.243	-0.183	-0.363
-607.186	800.000	0.101	0.322
-606.171	800.000	0.136	0.404
-605.157	-18.906	0.228	0.141
-604.142	-200.000	0.013	-0.087
-603.128	-11.231	-0.167	-0.109
-602.113	353.203	-0.019	-0.038
-601.098	261.450	0.140	0.242
-600.084	-49.917	-0.035	-0.016
-599.069	-177.052	-0.059	0.001
-598.055	-200.000	-0.019	0.110
-597.040	-200.000	-0.019	0.355
-596.025	187.229	-0.207	-0.307
-595.011	-57.451	-0.306	-0.134
-593.996	-129.160	-0.274	-0.038
-592.982	15.801	0.292	0.228
-591.967	-200.000	-0.004	-0.133
-590.952	513.395	-0.079	0.184
-589.938	37.203	0.137	-0.121
-588.923	-200.000	-0.016	-0.229
-587.909	800.000	-0.129	-0.367
-586.894	800.000	0.128	-0.379
-585.879	-113.543	-0.089	-0.017
-584.865	800.000	0.069	0.234
-583.850	-95.640	0.216	-0.057
-582.836	20.833	-0.107	0.086
-581.821	200.873	0.286	-0.437
-580.806	-80.250	0.197	-0.065
-579.792	-76.634	0.122	-0.042
-578.777	-22.477	-0.296	-0.178
-577.763	800.000	0.058	0.196
-576.748	132.920	-0.158	0.202
-575.733	9.514	-0.147	0.110
-574.719	-200.000	-0.002	-0.269
-573.704	-32.842	0.112	0.062
-572.690	800.000	0.043	-0.131
-571.675	654.062	-0.088	-0.223
-570.661	109.902	0.178	-0.212
-569.646	41.625	-0.428	-0.384
-568.631	-200.000	-0.006	-0.087
-567.617	800.000	-0.030	0.122
-566.602	-134.702	0.280	-0.034
-565.588	-33.194	0.330	-0.181
-564.573	140.838	-0.272	0.356
-563.558	-15.088	0.265	0.169
-562.544	17.723	0.319	-0.252
-561.529	-200.000	-0.006	-0.098
-560.515	-145.780	0.205	-0.018
-559.500	26.117	-0.151	-0.125
-558.485	34.424	0.107	-0.093
-557.471	-83.807	-0.540	-0.171
-556.456	12.364	0.221	0.169
-555.442	-200.000	0.001	-0.103
-554.427	-200.000	0.039	-0.332
-553.412	-104.735	0.217	0.050
-552.398	192.818	0.097	-0.146
-551.383	800.000	0.080	0.297
-550.369	-200.000	0.003	-0.147
-549.354	-200.000	0.003	-0.137
-548.339	-200.000	0.513	-0.001
-547.325	-109.979	0.049	0.010
-546.310	295.953	0.234	-0.426
-545.296	10.150	0.077	-0.058
-544.281	-96.059	-0.063	-0.016
-543.266	-125.895	-0.359	0.054
-542.252	444.819	0.020	-0.043
-541.237	-145.391	-0.086	-0.008
-540.223	19.266	0.273	0.217
-539.208	-200.000	-0.095	0.454
-538.193	26.775	-0.086	-0.071
-537.179	300.356	-0.186	-0.341
-536.164	-146.694	-0.097	0.008
-535.150	16.566	0.250	-0.196
-534.135	-8.443	-0.061	-0.041
-533.121	-35.915	-0.059	-0.032
-532.106	-87.077	0.272	0.082
-531.091	-98.127	-0.242	0.062
-530.077	800.000	0.047	0.201
-529.062	-200.000	-0.016	0.073
-528.048	-97.005	-0.161	0.042
-527.033	-146.371	-0.104	-0.009
-526.018	-74.916	-0.443	0.157
-525.004	800.000	0.069	0.205
-523.989	-200.000	-0.012	-0.217
-522.975	64.313	0.139	0.139
-521.960	40.124	-0.107	-0.096
-520.945	800.000	-0.127	-0.352
-519.931	-127.420	-0.494	-0.071
-518.916	47.356	0.204	0.188
-517.902	-88.374	-0.392	-0.116
-516.887	50.058	-0.238	-0.223
-515.872	-185.187	-0.211	0.003
-514.858	-29.000	-0.289	-0.164
-513.843	800.000	0.081	0.327
-512.829	-50.575	-0.103	0.048
-511.814	-115.638	-0.207	-0.038
-510.799	51.356	0.164	0.155
-509.785	-122.420	-0.272	-0.044
-508.770	206.756	0.092	0.142
-507.756	-17.654	0.169	0.105
-506.741	20.378	-0.271	-0.216
-505.726	-3.628	0.225	0.155
-504.712	800.000	-0.054	0.183
-503.697	-49.521	-0.368	0.173
-502.683	-200.000	0.027	-0.192
-501.668	800.000	-0.070	-0.212
-500.653	13.653	0.244	-0.187
-499.639	163.419	0.052	-0.072
-498.624	104.073	0.068	0.079
-497.610	-50.566	0.098	-0.046
-496.595	-200.000	-0.017	0.374
-495.581	299.954	-0.115	0.210
-494.566	-200.000	0.027	-0.474
-493.551	800.000	0.017	0.059
-492.537	-85.073	0.142	-0.044
-491.522	141.660	0.261	0.342
-490.508	800.000	0.033	-0.103
-489.493	-24.718	0.071	0.042
-488.478	-22.783	0.306	0.183
-487.464	197.160	0.091	0.137
-486.449	745.998	-0.030	0.079
-485.435	145.733	0.073	0.097
-484.420	-20.926	-0.148	-0.089
-483.405	-92.253	-0.077	0.021
-482.391	125.727	0.134	0.168
-481.376	-35.829	-0.173	-0.093
-480.362	307.834	-0.101	-0.187
-479.347	146.564	-0.108	0.143
-478.332	-200.000	-0.005	0.096
-477.318	-53.622	-0.053	-0.024
-476.303	-200.000	0.002	0.071
-475.289	9.394	-0.235	0.175
-474.274	483.069	0.064	-0.143
-473.259	214.362	0.251	0.392
-472.245	-200.000	-0.013	0.308
-471.230	417.626	-0.116	0.244
-470.216	-27.698	0.351	-0.201
-469.201	-66.480	-0.155	0.061
-468.186	180.129	0.251	-0.363
-467.172	-200.000	-0.036	-0.189
-466.157	676.241	-0.041	-0.105
-465.143	-179.184	-0.102	-0.002
-464.128	-200.000	0.038	-0.399
-463.113	279.976	-0.024	0.042
-462.099	-2.549	0.067	-0.046
-461.084	800.000	-0.039	0.118
-460.070	-47.432	-0.459	0.220
-459.055	-130.324	0.060	-0.008
-458.040	-200.000	0.013	0.112
-457.026	162.514	-0.208	-0.289
-456.011	-60.804	-0.087	0.036
-454.997	396.846	-0.112	0.230
-453.982	-60.436	-0.209	-0.088
-452.968	-175.062	0.372	0.010
-451.953	683.695	-0.038	0.098
-450.938	-81.369	-0.206	0.067
-449.924	-200.000	0.024	-0.236
-448.909	494.448	0.012	-0.028
-447.895	792.948	0.010	-0.028
-446.880	-200.000	0.037	0.327
-445.865	100.105	-0.237	0.272
-444.851	-102.745	0.235	-0.055
-443.836	-138.406	-0.045	-0.005
-442.822	-44.628	0.176	-0.087
-441.807	-200.000	-0.008	-0.191
-440.792	286.681	-0.228	0.406
-439.778	-129.881	-0.095	-0.013
-438.763	-200.000	-0.003	0.017
-437.749	-200.000	0.024	-0.343
-436.734	288.871	-0.115	0.206
-435.719	14.035	0.309	0.237
-434.705	120.575	0.247	-0.303
-433.690	-114.078	-0.210	-0.040
-432.676	-139.569	0.024	0.003
-431.661	101.051	0.059	0.067
-430.646	318.495	-0.029	0.053
-429.632	-170.327	0.192	0.007
-428.617	157.898	0.066	-0.091
-427.603	297.645	-0.165	-0.299
-426.588	-49.881	-0.105	0.049
-425.573	800.000	0.009	-0.025
-424.559	-65.708	0.395	0.156
-423.544	32.862	-0.202	0.172
-422.530	-200.000	0.037	0.551
-421.515	800.000	-0.096	0.283
-420.500	-200.000	-0.009	0.046
-419.486	80.815	-0.115	0.123
-418.471	-200.000	-0.008	0.095
-417.457	-200.000	-0.018	-0.173
-416.442	-43.287	0.114	0.057
-415.428	-35.751	0.323	0.172
-414.413	-42.636	0.295	-0.148
-413.398	321.189	-0.098	0.184
-412.384	800.000	-0.074	-0.312
-411.369	-46.300	0.343	-0.166
-410.355	800.000	0.035	0.130
-409.340	800.000	0.093	0.297
-408.325	-46.990	-0.249	-0.120
-407.311	800.000	-0.073	-0.302
-406.296	-200.000	0.022	-0.172
-405.282	192.692	0.044	-0.065
-404.267	-151.054	0.116	0.009
-403.252	-17.954	0.103	-0.064
-402.238	-65.715	0.296	-0.117
-401.223	-117.233	0.112	0.020
-400.209	-65.459	-0.345	-0.137
-399.194	-200.000	0.021	0.090
-398.179	200.226	0.204	0.308
-397.165	-200.000	0.011	0.156
-396.150	-103.994	0.206	0.047
-395.136	60.844	-0.250	-0.244
-394.121	-191.673	-0.457	-0.004
-393.106	-79.078	-0.087	0.029
-392.092	179.873	0.100	-0.145
-391.077	50.947	0.039	0.037
-390.063	800.000	0.064	-0.247
-389.048	-200.000	-0.033	-0.242
-388.033	19.921	0.147	0.117
-387.019	-16.973	-0.110	0.068
-386.004	800.000	0.104	-0.310
-384.990	-10.708	0.225	0.147
-383.975	-65.817	-0.472	0.186
-382.960	800.000	0.037	-0.106
-381.946	-95.215	0.063	-0.017
-380.931	543.922	0.065	-0.152
-379.917	-122.393	-0.168	-0.027
-378.902	154.250	0.021	-0.029
-377.888	800.000	0.026	-0.075
-376.873	-111.831	-0.492	-0.098
-375.858	-155.833	-0.179	0.011
-374.844	214.858	-0.151	0.236
-373.829	400.526	0.096	0.197
-372.815	572.634	-0.135	0.323
-371.800	-9.926	0.102	-0.067
-370.785	800.000	-0.112	-0.315
-369.771	-116.705	-0.124	-0.022
-368.756	-128.184	0.043	-0.006
-367.742	-200.000	0.023	-0.119
-366.727	-76.568	0.107	0.037
-365.712	-63.839	-0.369	-0.149
-364.698	-4.696	-0.179	-0.122
-363.683	190.871	-0.263	0.389
-362.669	800.000	-0.062	0.221
-361.654	48.609	-0.009	-0.008
-360.639	494.700	-0.088	0.199
-359.625	-200.000	-0.036	-0.194
-358.610	34.839	0.230	0.198
-357.596	-8.058	-0.126	-0.084
-356.581	-163.873	-0.016	0.001
-355.566	-147.037	0.239	0.020
-354.552	608.023	0.039	0.096
-353.537	21.654	0.031	-0.025
-352.523	-200.000	0.029	0.198
-351.508	800.000	0.014	-0.037
-350.493	-159.882	-0.107	-0.006
-349.479	66.278	-0.067	-0.067
-348.464	-200.000	-0.009	-0.105
-347.450	128.690	-0.059	-0.074
-346.435	182.273	0.157	-0.227
-345.420	800.000	0.153	0.433
-344.406	5.958	-0.204	-0.149
-343.391	59.935	0.348	-0.338
-342.377	14.626	0.390	-0.300
-341.362	-200.000	-0.011	-0.245
-340.348	-189.758	0.370	-0.004
-339.333	88.674	0.114	0.124
-338.318	800.000	-0.104	0.315
-337.304	-200.000	-0.006	-0.226
-336.289	-200.000	0.033	0.424
-335.275	252.577	0.064	-0.107
-334.260	377.993	0.143	0.288
-333.245	137.241	-0.149	0.192
-332.231	583.257	0.099	0.240
-331.216	162.087	-0.109	0.150
-330.202	-129.150	-0.270	-0.037
-329.187	-94.546	0.208	-0.056
-328.172	188.753	-0.256	-0.377
-327.158	-73.312	-0.212	0.076
-326.143	-200.000	-0.013	0.104
-325.129	-169.035	-0.041	-0.001
-324.114	-130.794	0.071	0.009
-323.099	800.000	-0.129	-0.361
-322.085	-198.287	-0.261	-0.001
-321.070	-200.000	0.027	0.236
-320.056	221.887	0.032	-0.050
-319.041	-200.000	0.006	-0.148
-318.026	107.374	-0.134	-0.156
-317.012	399.654	0.145	-0.298
-315.997	170.552	-0.139	-0.196
-314.983	124.217	0.093	-0.115
-313.968	-114.363	-0.123	-0.023
-312.953	-15.641	-0.144	-0.090
-311.939	-200.000	-0.019	0.354
-310.924	35.419	0.186	0.160
-309.910	-50.055	-0.269	0.125
-308.895	800.000	0.070	-0.191
-307.880	-112.138	0.232	-0.046
-306.866	-200.000	-0.042	-0.225
-305.851	59.857	0.222	0.215
-304.837	-145.988	-0.173	-0.015
-303.822	800.000	0.104	0.319
-302.807	-125.546	0.047	0.007
-301.793	800.000	0.056	-0.167
-300.778	-200.000	-0.042	0.322
-299.764	188.407	0.143	0.210
-298.749	396.871	-0.084	0.172
-297.735	206.046	-0.057	-0.087
-296.720	-111.565	-0.389	-0.078
-295.705	106.861	-0.306	0.356
-294.691	-188.706	0.134	0.002
-293.676	-200.000	-0.004	0.284
-292.662	657.967	0.115	0.289
-291.647	-200.000	0.009	-0.125
-290.632	72.959	0.050	0.051
-289.618	-200.000	0.032	-0.241
-288.603	-119.696	0.161	-0.027
-287.589	-166.913	0.298	0.012
-286.574	800.000	0.073	0.282
-285.559	-200.000	0.033	0.162
-284.545	-200.000	0.037	-0.329
-283.530	222.849	0.113	0.179
-282.516	117.316	0.295	0.355
-281.501	21.550	-0.494	-0.394
-280.486	313.429	0.116	0.215
-279.472	800.000	-0.063	0.204
-278.457	-200.000	-0.017	0.384
-277.443	371.110	-0.180	0.358
-276.428	12.893	-0.143	0.109
-275.413	488.811	-0.062	-0.138
-274.399	268.204	0.040	-0.069
-273.384	-92.515	0.129	-0.035
-272.370	800.000	-0.046	0.177
-271.355	-149.107	-0.202	-0.016
-270.340	208.055	-0.117	-0.179
-269.326	530.861	0.095	0.220
-268.311	256.837	0.054	0.092
-267.297	-60.017	-0.187	-0.078
-266.282	-200.000	-0.026	-0.201
-265.267	232.586	-0.042	0.068
-264.253	-80.470	-0.252	-0.082
-263.238	800.000	0.029	0.121
-262.224	-165.425	0.131	0.006
-261.209	6.001	0.289	0.210
-260.195	36.575	-0.125	0.108
-259.180	595.277	-0.136	0.330
-258.165	-103.598	-0.039	-0.009
-257.151	-144.899	0.475	-0.043
-256.136	-99.116	0.284	0.071
-255.122	800.000	-0.007	0.030
-254.107	-65.286	-0.225	0.089
-253.092	-42.791	0.252	-0.126
-252.078	126.874	-0.060	0.075
-251.063	-112.704	0.261	0.051
-250.049	-98.394	-0.345	-0.087
-249.034	5.709	0.251	0.182
-248.019	-200.000	-0.053	0.286
-247.005	38.990	-0.062	0.055
-245.990	-66.719	-0.117	0.045
-244.976	-172.392	0.323	-0.010
-243.961	-122.376	-0.384	-0.061
-242.946	-200.000	-0.065	0.293
-241.932	-122.438	0.083	0.013
-240.917	268.314	-0.363	-0.623
-239.903	-42.977	0.468	-0.232
-238.888	-117.544	0.515	0.091
-237.873	-200.000	-0.059	-0.325
-236.859	176.983	0.085	-0.121
-235.844	31.629	-0.105	-0.088
-234.830	-200.000	-0.026	-0.215
-233.815	800.000	0.038	0.124
-232.800	113.402	-0.040	0.047
-231.786	-115.840	0.360	-0.066
-230.771	-139.747	-0.248	-0.026
-229.757	800.000	0.068	-0.276
-228.742	800.000	0.016	0.051
-227.727	-125.714	-0.167	0.025
-226.713	-154.026	-0.225	-0.015
-225.698	800.000	0.033	-0.095
-224.684	37.793	0.236	0.205
-223.669	800.000	-0.053	-0.163
-222.655	-51.018	0.143	0.066
-221.640	-17.205	-0.197	-0.121
-220.625	132.797	0.094	0.119
-219.611	-166.027	-0.356	-0.015
-218.596	800.000	0.041	-0.111
-217.582	775.893	-0.057	-0.152
-216.567	65.055	-0.200	0.197
-215.552	-200.000	-0.010	0.096
-214.538	-1.976	-0.092	-0.063
-213.523	-200.000	0.028	0.206
-212.509	-90.922	-0.030	0.008
-211.494	-61.970	0.262	0.107
-210.479	234.872	0.048	-0.077
-209.465	-5.194	0.105	0.071
-208.450	94.507	0.152	-0.169
-207.436	89.341	0.188	0.205
-206.421	-200.000	0.002	-0.044
-205.406	-55.246	0.056	0.025
-204.392	76.194	-0.057	-0.059
-203.377	800.000	0.080	0.247
-202.363	-25.600	-0.189	0.109
-201.348	-111.164	0.135	0.027
-200.333	-200.000	-0.101	0.436
-199.319	-152.897	0.167	-0.012
-198.304	6.907	0.077	-0.056
-197.290	800.000	0.021	-0.081
-196.275	107.217	0.226	-0.263
-195.260	-35.048	0.059	0.032
-194.246	-27.153	-0.185	0.106
-193.231	274.096	-0.060	-0.104
-192.217	-108.966	0.102	-0.021
-191.202	-66.069	-0.079	-0.031
-190.187	50.380	-0.280	0.258
-189.173	-61.443	0.078	-0.032
-188.158	-88.515	0.356	0.104
-187.144	-110.493	-0.310	-0.063
-186.129	480.448	-0.063	-0.140
-185.114	800.000	-0.021	0.081
-184.100	-51.101	-0.242	0.111
-183.085	-113.735	-0.329	0.063
-182.071	-200.000	0.024	0.255
-181.056	166.309	-0.112	-0.155
-180.042	59.722	0.065	0.062
-179.027	800.000	-0.075	-0.230
-178.012	188.454	0.285	0.417
-176.998	133.846	0.114	-0.144
-175.983	-200.000	-0.008	0.227
-174.969	62.338	-0.279	-0.272
-173.954	18.641	-0.089	0.070
-172.939	377.547	0.157	-0.313
-171.925	-93.388	-0.076	-0.021
-170.910	-11.361	-0.101	0.065
-169.896	115.412	-0.105	-0.125
-168.881	98.377	-0.284	0.320
-167.866	-34.307	0.350	-0.188
-166.852	255.489	0.113	-0.189
-165.837	267.415	0.197	-0.336
-164.823	-92.685	0.236	0.064
-163.808	86.950	0.435	0.469
-162.793	127.915	-0.193	0.240
-161.779	-99.183	0.149	-0.037
-160.764	186.359	0.059	0.086
-159.750	-200.000	0.061	-0.632
-158.735	-52.086	0.275	-0.125
-157.720	-33.268	0.217	-0.117
-156.706	328.899	-0.043	-0.081
-155.691	-95.621	0.129	-0.034
-154.677	-200.000	0.032	0.212
-153.662	-56.164	0.408	-0.177
-152.647	156.054	0.308	0.414
-151.633	39.829	-0.358	-0.314
-150.618	29.667	0.160	-0.133
-149.604	173.353	-0.117	0.165
-148.589	603.460	-0.036	0.087
-147.574	77.634	0.161	-0.167
-146.560	59.010	-0.087	-0.083
-145.545	800.000	-0.100	-0.269
-144.531	116.328	-0.231	0.277
-143.516	-91.503	0.427	-0.119
-142.502	169.957	0.194	0.270
-141.487	33.867	0.422	-0.359
-140.472	-200.000	-0.041	-0.280
-139.458	196.571	0.025	-0.038
-138.443	-200.000	-0.030	-0.225
-137.429	32.432	0.085	0.072
-136.414	113.809	0.213	-0.253
-135.399	-52.062	0.129	0.058
-134.385	218.854	0.006	0.009
-133.370	-129.823	0.222	0.030
-132.356	-113.426	-0.456	-0.087
-131.341	-150.136	0.157	-0.012
-130.326	-79.232	0.181	0.060
-129.312	-65.992	0.191	-0.074
-128.297	-200.000	0.016	0.151
-127.283	218.126	0.098	0.153
-126.268	32.373	-0.113	0.095
-125.253	-33.060	0.044	-0.024
-124.239	731.258	0.072	-0.189
-123.224	-48.854	-0.184	0.086
-122.210	347.780	0.105	-0.201
-121.195	800.000	-0.111	0.435
-120.180	697.605	0.089	0.229
-119.166	-107.525	0.133	0.028
-118.151	-83.205	0.180	-0.057
-117.137	-168.837	0.113	-0.004
-116.122	-86.569	-0.074	0.022
-115.107	-95.040	-0.230	-0.061
-114.093	54.375	-0.216	-0.203
-113.078	-139.660	0.159	0.016
-112.064	-11.691	0.186	-0.119
-111.049	-200.000	-0.005	-0.045
-110.034	-132.446	0.083	-0.010
-109.020	-200.000	0.004	-0.019
-108.005	140.155	0.314	0.404
-106.991	-103.845	0.236	-0.054
-105.976	539.063	-0.076	-0.176
-104.962	-107.695	-0.142	-0.030
-103.947	66.295	-0.164	0.163
-102.932	800.000	-0.064	0.249
-101.918	800.000	-0.105	0.307
-100.903	-160.228	-0.225	-0.012
-99.889	174.992	0.073	0.103
-98.874	-43.149	-0.230	-0.113
-97.859	-200.000	0.061	0.283
-96.845	-180.641	0.497	0.010
-95.830	800.000	-0.033	0.133
-94.816	-132.133	0.212	-0.027
-93.801	-200.000	0.022	0.193
-92.786	12.595	-0.123	-0.093
-91.772	-74.230	0.024	0.009
-90.757	428.777	-0.023	0.048
-89.743	572.424	-0.118	-0.281
-88.728	800.000	0.099	0.330
-87.713	-131.877	-0.181	0.023
-86.699	-200.000	-0.029	0.132
-85.684	-200.000	0.073	-0.000
-84.670	-200.000	-0.038	0.232
-83.655	6.802	-0.153	-0.111
-82.640	-67.300	0.190	-0.073
-81.626	6.574	-0.242	-0.175
-80.611	-136.555	-0.124	0.014
-79.597	708.214	-0.093	-0.239
-78.582	399.555	0.067	-0.137
-77.567	207.900	-0.171	0.260
-76.553	800.000	0.070	-0.295
-75.538	-200.000	0.019	-0.253
-74.524	-200.000	0.048	-0.227
-73.509	-101.457	0.133	0.031
-72.494	-154.091	-0.346	0.023
-71.480	-23.102	0.175	-0.102
-70.465	407.897	0.095	0.196
-69.451	71.232	-0.267	0.270
-68.436	-200.000	-0.019	0.084
-67.422	59.007	0.229	0.219
-66.407	-31.248	-0.100	-0.055
-65.392	-36.475	0.327	0.171
-64.378	-113.703	0.149	0.028
-63.363	57.336	0.125	0.119
-62.349	-200.000	0.021	-0.119
-61.334	189.260	-1.089	-1.587
-60.319	63.488	0.789	0.769
-59.305	771.640	-0.488	-1.294
-58.290	392.607	0.844	1.707
-57.276	800.000	0.585	1.578
-56.261	-200.000	137.470	626.448
-55.246	341.512	1645.205	3126.530
-54.232	137.600	2775.668	3532.954
-53.217	81.618	2178.113	2291.089
-52.203	29.063	1699.150	1401.331
-51.188	22.293	1525.196	1211.367
-50.173	20.930	1504.528	1185.642
-49.159	43.827	1581.147	1407.481
-48.144	39.865	1591.100	1388.498
-47.130	22.339	1540.015	1223.265
-46.115	19.897	1524.264	1193.881
-45.100	19.669	1521.107	1189.789
-44.086	19.529	1519.274	1187.344
-43.071	19.518	1517.379	1185.741
-42.057	19.526	1515.969	1184.649
-41.042	19.508	1514.568	1183.381
-40.027	19.512	1512.753	1181.943
-39.013	19.420	1511.677	1180.425
-37.998	19.435	1509.932	1179.118
-36.984	19.525	1509.002	1178.965
-35.969	19.508	1507.509	1177.631
-34.954	19.494	1505.930	1176.261
-33.940	19.518	1504.822	1175.509
-32.925	19.570	1503.459	1174.752
-31.911	19.426	1502.442	1172.933
-30.896	19.538	1500.727	1172.306
-29.881	19.696	1499.055	1172.027
-28.867	19.567	1498.688	1170.814
-27.852	19.528	1497.167	1169.316
-26.838	19.663	1495.621	1168.978
-25.823	19.703	1493.851	1167.820
-24.809	19.664	1492.260	1166.263
-23.794	19.557	1491.465	1164.875
-22.779	19.640	1489.780	1164.073
-21.765	19.623	1488.920	1163.238
-20.750	19.670	1487.428	1162.344
-19.736	19.635	1486.685	1161.483
-18.721	19.575	1485.850	1160.383
-17.706	19.644	1484.477	1159.725
-16.692	19.581	1483.536	1158.520
-15.677	19.527	1482.735	1157.486
-14.663	19.574	1481.201	1156.559
-13.648	19.566	1480.320	1155.774
-12.633	19.559	1479.620	1155.133
-11.619	19.587	1478.965	1154.766
-10.604	19.616	1477.981	1154.139
-9.590	19.552	1476.647	1152.629
-8.575	19.625	1476.058	1152.611
-7.560	19.566	1474.904	1151.271
-6.546	19.563	1473.725	1150.282
-5.531	19.423	1473.488	1149.117
-4.517	19.532	1472.253	1148.833
-3.502	19.539	1471.305	1148.096
-2.487	19.503	1470.460	1147.156
-1.473	19.471	1469.440	1146.102
-0.458	19.580	1467.874	1145.558
0.556	18.488	1458.097	1133.682
1.571	14.949	1433.903	1091.712
2.586	11.393	1371.760	1022.071
3.600	9.975	1286.452	950.090
4.615	8.879	1243.941	912.377
5.629	8.185	1187.683	867.266
6.644	4.371	1108.138	789.732
7.659	1.078	1075.196	749.909
8.673	0.737	1070.337	744.777
9.688	0.527	1067.078	741.411
10.702	0.537	1065.519	740.311
11.717	0.619	1062.900	738.826
12.731	1.871	1062.981	744.939
13.746	6.777	1069.506	773.524
14.761	13.212	1077.997	811.277
15.775	16.691	1082.437	831.668
16.790	16.820	1081.664	831.633
17.804	15.909	1079.153	825.165
18.819	15.072	1077.445	819.691
19.834	14.655	1075.710	816.258
20.848	14.436	1075.041	814.608
21.863	14.198	1074.471	812.944
22.877	13.897	1073.675	810.799
23.892	13.750	1072.820	809.362
24.907	13.647	1071.799	808.020
25.921	13.530	1071.389	807.068
26.936	13.633	1070.556	806.872
27.950	13.643	1069.940	806.383
28.965	13.723	1069.186	806.133
29.980	13.871	1067.778	805.720
30.994	13.850	1067.138	805.066
32.009	13.912	1066.175	804.564
33.023	13.909	1065.426	803.913
34.038	13.930	1064.640	803.351
35.053	13.868	1063.676	802.253
36.067	13.890	1062.688	801.545
37.082	13.806	1062.006	800.555
38.096	13.789	1061.360	799.913
39.111	13.838	1060.425	799.376
40.126	13.818	1059.184	798.271
41.140	13.671	1058.733	797.154
42.155	13.747	1057.239	796.326
43.169	13.679	1056.349	795.256
44.184	13.785	1055.211	794.840
45.199	13.631	1054.533	793.519
46.213	13.633	1053.648	792.795
47.228	13.647	1052.629	792.023
48.242	13.782	1051.172	791.502
49.257	13.783	1049.982	790.540
50.271	13.768	1049.641	790.140
51.286	13.836	1048.189	789.301
52.301	13.856	1047.600	788.882
53.315	13.840	1047.087	788.352
54.330	13.699	1046.278	787.006
55.344	13.773	1044.870	786.225
56.359	13.678	1044.327	785.300
57.374	13.775	1043.058	784.734
58.388	13.736	1042.418	783.997
59.403	13.670	1041.599	782.999
60.417	13.701	1041.078	782.688
61.432	13.604	1040.241	781.529
62.447	13.674	1039.529	781.258
63.461	13.718	1038.332	780.494
64.476	13.554	1037.429	778.977
65.490	13.633	1036.444	778.537
66.505	13.540	1036.045	777.735
67.520	13.625	1035.131	777.378
68.534	13.700	1034.184	776.949
69.549	13.735	1033.826	776.776
70.563	13.690	1032.777	775.708
71.578	13.550	1032.619	774.866
72.593	13.559	1031.674	774.129
73.607	13.647	1030.246	773.398
74.622	13.671	1029.308	772.740
75.636	13.598	1028.551	771.764
76.651	13.407	1028.270	770.594
77.666	13.644	1027.096	770.747
78.680	13.642	1026.177	769.982
79.695	13.580	1026.254	769.683
80.709	13.547	1025.484	768.884
81.724	13.679	1024.334	768.564
82.739	13.619	1023.670	767.722
83.753	13.658	1023.029	767.352
84.768	13.761	1022.140	767.095
85.782	13.842	1020.998	766.543
86.797	13.945	1019.961	766.173
87.812	13.790	1019.906	765.348
88.826	13.757	1018.839	764.327
89.841	13.783	1017.868	763.652
90.855	13.768	1017.319	763.103
91.870	13.741	1016.383	762.211
92.884	13.812	1015.862	762.076
93.899	13.904	1014.801	761.637
94.914	13.778	1014.003	760.390
95.928	13.925	1013.293	760.465
96.943	14.026	1012.850	760.528
97.957	13.890	1012.485	759.565
98.972	13.832	1011.163	758.240
99.987	13.956	1010.059	757.913
101.001	13.810	1009.427	756.706
102.016	13.816	1008.893	756.263
103.030	13.815	1007.781	755.358
104.045	13.921	1006.806	755.044
105.060	13.954	1005.679	754.284
106.074	13.878	1005.471	753.715
107.089	13.844	1003.849	752.276
108.103	13.799	1002.895	751.294
109.118	13.838	1001.807	750.587
110.133	13.691	1001.707	749.779
111.147	13.733	1000.484	748.989
112.162	13.710	999.629	748.178
113.176	13.771	998.947	747.878
114.191	13.684	998.162	746.832
115.206	13.618	997.825	746.214
116.220	13.773	996.173	745.612
117.235	13.773	995.751	745.228
118.249	13.789	994.573	744.354
119.264	13.774	993.630	743.517
120.279	13.712	992.933	742.651
121.293	13.816	991.996	742.349
122.308	13.878	991.390	742.108
123.322	13.731	990.378	740.629
124.337	13.756	989.245	739.827
125.352	13.711	988.309	738.862
126.366	13.683	987.229	737.862
127.381	13.756	985.930	737.150
128.395	13.637	984.807	735.717
129.410	13.615	984.237	735.129
130.424	13.741	983.525	735.092
131.439	13.746	982.782	734.495
132.454	13.778	982.189	734.124
133.468	13.748	981.315	733.274
134.483	13.720	980.691	732.622
135.497	13.741	979.741	731.940
136.512	13.748	979.122	731.444
137.527	13.764	978.442	730.942
138.541	13.948	977.343	730.862
139.556	13.810	976.466	729.538
140.570	13.803	975.834	728.971
141.585	13.894	975.154	728.796
142.600	13.868	974.804	728.357
143.614	14.049	973.790	728.327
144.629	13.957	973.017	727.284
145.643	13.984	972.472	726.931
146.658	13.970	971.484	726.066
147.673	13.943	970.547	725.183
148.687	13.942	969.728	724.503
149.702	13.929	968.964	723.810
150.716	13.952	967.794	722.971
151.731	13.850	967.239	722.052
152.746	13.906	966.307	721.534
153.760	13.952	965.806	721.294
154.775	14.029	964.831	720.836
155.789	14.141	963.671	720.392
156.804	13.922	963.261	719.076
157.819	14.169	962.250	719.325
158.833	14.055	961.896	718.503
159.848	14.095	961.175	718.074
160.862	14.029	960.698	717.368
161.877	14.017	960.090	716.800
162.892	14.084	958.483	715.823
163.906	14.022	957.485	714.749
164.921	14.066	956.942	714.471
165.935	13.969	956.139	713.390
166.950	14.060	954.926	712.811
167.964	14.078	954.047	712.170
168.979	14.169	952.705	711.494
169.994	14.159	952.096	710.936
171.008	14.094	951.392	710.070
172.023	14.062	950.809	709.433
173.037	14.083	949.864	708.754
174.052	14.124	948.711	708.009
175.067	14.187	948.461	708.028
176.081	14.105	947.545	706.933
177.096	14.078	946.863	706.245
178.110	14.204	945.511	705.709
179.125	14.123	945.075	704.979
180.140	14.144	944.681	704.710
181.154	14.156	943.486	703.807
182.169	14.238	942.785	703.568
183.183	14.401	942.152	703.721
184.198	14.323	941.798	703.066
185.213	14.298	941.025	702.323
186.227	14.367	940.158	701.903
187.242	14.388	939.886	701.728
188.256	14.525	939.114	701.666
189.271	14.315	938.503	700.264
190.286	14.427	937.858	700.191
191.300	14.317	936.863	698.926
192.315	14.182	936.582	698.087
193.329	14.178	935.354	697.092
194.344	14.246	934.717	696.840
195.359	14.338	934.270	696.830
196.373	14.420	933.461	696.506
197.388	14.432	933.328	696.399
198.402	14.429	932.496	695.704
199.417	14.475	932.277	695.668
200.432	14.655	931.369	695.680
201.446	14.526	931.095	694.879
202.461	14.648	930.585	694.944
203.475	14.530	930.354	694.217
204.490	14.588	929.454	693.725
205.504	14.643	928.299	693.032
206.519	14.562	927.680	692.169
207.534	14.528	927.109	691.542
208.548	14.675	926.202	691.414
209.563	14.608	925.247	690.362
210.577	14.549	925.162	689.996
211.592	14.608	923.838	689.188
212.607	14.640	923.877	689.291
213.621	14.672	922.910	688.641
214.636	14.780	921.939	688.299
215.650	14.711	922.015	688.012
216.665	14.800	921.320	687.797
217.680	14.865	920.751	687.577
218.694	14.909	920.088	687.205
219.709	14.861	919.758	686.698
220.723	14.940	918.948	686.358
221.738	14.925	917.816	685.390
222.753	14.718	917.828	684.488
223.767	14.849	916.401	683.901
224.782	14.831	915.938	683.422
225.796	14.842	915.309	682.938
226.811	15.011	914.779	683.173
227.826	14.992	914.131	682.548
228.840	15.036	912.988	681.814
229.855	14.907	912.703	681.019
230.869	14.989	911.549	680.428
231.884	14.891	911.127	679.654
232.899	14.869	910.836	679.290
233.913	15.015	909.595	678.895
234.928	14.940	909.049	678.123
235.942	14.960	908.282	677.571
236.957	14.936	907.889	677.124
237.972	14.910	907.570	676.718
238.986	14.930	906.766	676.139
240.001	14.923	906.097	675.554
241.015	15.049	904.881	675.094
242.030	15.069	904.555	674.872
243.045	15.242	903.255	674.539
244.059	15.216	902.952	674.149
245.074	15.176	902.533	673.615
246.088	15.192	901.810	673.080
247.103	15.096	901.342	672.286
248.117	15.162	900.359	671.759
249.132	15.161	900.200	671.579
250.147	15.129	899.553	670.908
251.161	15.291	898.794	670.929
252.176	15.161	898.445	670.088
253.190	15.408	897.353	670.202
254.205	15.366	896.720	669.503
255.220	15.469	896.013	669.326
256.234	15.503	895.554	669.060
257.249	15.349	894.858	667.868
258.263	15.469	894.226	667.814
259.278	15.655	893.680	668.087
260.293	15.580	893.293	667.439
261.307	15.674	892.707	667.318
262.322	15.704	891.843	666.728
263.336	15.518	891.912	665.986
264.351	15.600	890.825	665.438
265.366	15.865	890.032	665.837
266.380	15.617	889.412	664.335
267.395	15.670	888.910	664.108
268.409	15.709	887.780	663.361
269.424	15.798	887.093	663.140
270.439	15.624	886.954	662.290
271.453	15.581	886.108	661.430
272.468	15.665	885.318	661.112
273.482	15.665	884.735	660.618
274.497	15.789	883.770	660.325
275.512	15.542	883.359	658.992
276.526	15.785	882.430	659.192
277.541	15.737	881.990	658.620
278.555	15.735	881.684	658.323
279.570	15.783	881.165	658.064
280.585	15.786	880.323	657.391
281.599	15.886	879.561	657.152
282.614	15.879	879.202	656.800
283.628	15.868	878.560	656.218
284.643	15.901	877.699	655.645
285.657	15.886	877.340	655.263
286.672	15.922	877.246	655.273
287.687	15.752	876.394	653.919
288.701	15.926	876.035	654.268
289.716	16.015	875.185	653.921
290.730	15.794	874.603	652.572
291.745	15.997	874.198	653.000
292.760	16.091	873.361	652.680
293.774	16.078	872.591	651.998
294.789	15.989	872.609	651.609
295.803	16.081	871.630	651.177
296.818	16.071	871.125	650.701
297.833	16.129	869.996	650.025
298.847	16.118	869.071	649.233
299.862	16.129	868.742	648.974
300.876	16.124	867.998	648.341
301.891	16.030	867.638	647.650
302.906	16.211	866.867	647.716
303.920	16.085	866.821	647.137
304.935	16.203	865.789	646.762
305.949	16.292	865.135	646.558
306.964	16.328	864.269	645.993
307.979	16.209	863.809	645.137
308.993	16.396	863.006	645.194
310.008	16.302	862.864	644.670
311.022	16.426	862.034	644.466
312.037	16.190	861.865	643.383
313.052	16.377	861.256	643.584
314.066	16.280	860.266	642.420
315.081	16.340	859.776	642.223
316.095	16.390	859.242	641.960
317.110	16.250	858.692	640.961
318.125	16.353	857.943	640.733
319.139	16.390	857.404	640.414
320.154	16.394	857.483	640.433
321.168	16.374	856.796	639.787
322.183	16.533	855.571	639.418
323.197	16.383	855.563	638.787
324.212	16.431	854.972	638.472
325.227	16.362	854.305	637.655
326.241	16.438	853.862	637.555
327.256	16.481	852.991	637.012
328.270	16.442	852.641	636.547
329.285	16.426	852.165	636.075
330.300	16.486	851.533	635.770
331.314	16.555	850.800	635.428
332.329	16.465	850.383	634.723
333.343	16.542	849.608	634.377
334.358	16.583	848.837	633.897
335.373	16.727	847.908	633.688
336.387	16.687	847.817	633.412
337.402	16.617	847.286	632.698
338.416	16.556	847.048	632.237
339.431	16.750	846.459	632.467
340.446	16.793	845.510	631.862
341.460	16.821	844.679	631.288
342.475	16.838	844.375	631.068
343.489	16.862	844.035	630.847
344.504	16.889	843.355	630.386
345.519	16.906	842.909	630.059
346.533	16.836	842.666	629.563
347.548	16.857	842.255	629.275
348.562	16.844	841.537	628.637
349.577	16.886	840.760	628.156
350.592	16.803	840.456	627.566
351.606	16.849	839.839	627.219
352.621	16.853	839.091	626.621
353.635	16.793	838.745	626.086
354.650	17.072	837.990	626.495
355.665	16.809	838.299	625.700
356.679	16.963	837.760	625.810
357.694	17.061	836.968	625.525
358.708	17.135	836.504	625.396
359.723	16.999	835.751	624.276
360.738	16.949	835.458	623.818
361.752	17.030	834.947	623.678
362.767	16.980	834.587	623.173
363.781	17.059	833.902	622.895
364.796	17.061	833.477	622.531
365.810	17.086	833.233	622.383
366.825	17.331	832.714	622.838
367.840	17.210	832.140	621.913
368.854	17.178	831.838	621.514
369.869	17.218	831.231	621.152
370.883	17.284	830.607	620.869
371.898	17.184	830.162	620.117
372.913	17.312	829.813	620.272
373.927	17.407	828.771	619.784
374.942	17.327	828.441	619.188
375.956	17.348	827.770	618.708
376.971	17.468	827.148	618.626
377.986	17.485	826.495	618.144
379.000	17.426	826.064	617.553
380.015	17.438	825.665	617.243
381.029	17.442	824.823	616.573
382.044	17.458	824.807	616.566
383.059	17.550	823.642	615.972
384.073	17.539	823.407	615.703
385.088	17.573	822.845	615.351
386.102	17.508	822.272	614.635
387.117	17.508	821.853	614.268
388.132	17.473	821.489	613.813
389.146	17.444	821.064	613.339
390.161	17.402	821.014	613.095
391.175	17.523	820.217	612.881
392.190	17.584	819.855	612.775
393.205	17.504	819.349	612.056
394.219	17.539	818.952	611.832
395.234	17.530	818.672	611.536
396.248	17.556	817.948	611.033
397.263	17.546	817.194	610.380
398.278	17.505	816.990	610.026
399.292	17.481	816.674	609.652
400.307	17.444	816.156	609.079
401.321	17.577	815.535	609.035
402.336	17.632	815.234	608.954
403.350	17.585	815.044	608.591
404.365	17.625	814.574	608.328
405.380	17.743	813.723	608.058
406.394	17.762	813.430	607.855
407.409	17.832	812.914	607.663
408.423	17.969	812.324	607.657
409.438	17.947	812.059	607.326
410.453	17.919	811.238	606.560
411.467	17.908	810.982	606.274
412.482	17.795	810.652	605.573
413.496	18.009	809.940	605.747
414.511	17.996	810.133	605.791
415.526	17.915	809.584	605.042
416.540	18.069	809.010	605.104
417.555	17.975	808.555	604.376
418.569	18.040	807.868	604.041
419.584	17.985	807.454	603.484
420.599	17.974	807.282	603.262
421.613	115.556	1299.877	1489.980
422.628	99.902	1371.588	1490.042
