DTS Sentinel unit serial number:	SN413079Multiplexer serial number:	ORYXHardware model number:	OX4-SRSoftware version number:	ORYX F/W v4.00 Oryx Data Collector v3.7.2.0data status	okinstallation	princeton_trtdifferential loss correction	single-endedforward channel	channel 3reverse channel	N/Adate	2019/09/14time	19:08:34forward acquisition time	60.00reverse acquisition time	0.00gamma	496.2192k internal	0.2309k external	0.2309temperature offset calibration	1.0010default loss term (dB/km)	0.3790temperature slope calibration	1.0000multiplexer offset coefficient	1.0000multiplexer slope coefficient	1.0000fibre end	0.00T internal ref (°C)	35.39T ext. ref 1 (°C)	4.87T ext. ref 2 (°C)	29.31length (m)	temperature (°C)	Stokes	anti-Stokes-747.200	-14.972	0.268	0.175
-746.185	-200.000	-0.026	0.152
-745.171	1.013	0.324	0.236
-744.156	800.000	-0.173	0.588
-743.142	-180.608	0.252	-0.005
-742.127	-200.000	0.033	0.266
-741.112	32.179	-0.253	-0.222
-740.098	22.145	0.154	0.127
-739.083	-107.836	0.117	0.026
-738.069	800.000	-0.038	0.113
-737.054	-200.000	-0.009	0.113
-736.039	800.000	-0.042	0.167
-735.025	-85.786	0.229	0.072
-734.010	232.839	-0.124	-0.206
-732.996	-71.189	-0.250	0.095
-731.981	286.921	0.099	0.181
-730.966	-88.718	0.133	-0.040
-729.952	-200.000	-0.009	-0.376
-728.937	-26.455	0.040	0.024
-727.923	21.120	-0.091	-0.075
-726.908	55.257	-0.195	-0.191
-725.894	-54.685	-0.323	0.148
-724.879	-4.848	-0.225	-0.157
-723.864	800.000	0.037	-0.129
-722.850	215.449	-0.031	0.050
-721.835	49.625	-0.396	0.379
-720.821	800.000	0.036	-0.137
-719.806	49.766	0.105	0.101
-718.791	108.503	0.090	0.109
-717.777	75.610	-0.132	-0.141
-716.762	-14.460	0.217	-0.142
-715.748	-74.505	-0.302	-0.110
-714.733	-175.390	-0.248	0.007
-713.718	519.622	-0.018	-0.043
-712.704	-121.980	-0.137	0.023
-711.689	-200.000	-0.056	-0.341
-710.675	-200.000	-0.013	-0.208
-709.660	11.935	0.060	-0.047
-708.645	-135.648	-0.182	-0.022
-707.631	153.629	-0.126	0.175
-706.616	-31.825	-0.031	-0.018
-705.602	-92.081	-0.262	0.075
-704.587	800.000	-0.045	-0.139
-703.572	800.000	0.075	-0.319
-702.558	71.186	-0.260	0.274
-701.543	93.781	-0.060	0.069
-700.529	92.061	-0.422	-0.482
-699.514	-45.616	-0.052	-0.026
-698.499	334.699	-0.151	-0.297
-697.485	-200.000	0.066	-0.348
-696.470	64.919	-0.180	-0.185
-695.456	-67.549	-0.415	0.165
-694.441	-105.402	-0.254	-0.059
-693.426	-20.500	0.225	0.140
-692.412	425.725	0.091	-0.198
-691.397	107.815	0.069	0.083
-690.383	66.869	-0.147	0.151
-689.368	-80.247	0.106	-0.036
-688.354	206.196	0.034	-0.053
-687.339	-58.606	0.236	0.104
-686.324	63.181	0.141	-0.143
-685.310	-183.078	0.326	-0.006
-684.295	-105.469	-0.508	0.117
-683.281	258.968	0.125	-0.219
-682.266	800.000	0.093	-0.358
-681.251	-78.125	0.148	0.052
-680.237	-104.652	-0.100	-0.023
-679.222	584.778	0.085	0.212
-678.208	-61.828	0.286	0.122
-677.193	492.710	0.196	-0.455
-676.178	450.472	0.205	-0.458
-675.164	597.206	0.099	-0.250
-674.149	-75.907	-0.181	0.065
-673.135	120.902	0.095	-0.120
-672.120	-200.000	0.004	0.059
-671.105	70.501	-0.027	-0.029
-670.091	-87.079	-0.305	-0.094
-669.076	-158.390	0.175	-0.010
-668.062	4.937	0.275	-0.205
-667.047	176.154	-0.148	-0.218
-666.032	-39.311	0.297	-0.158
-665.018	483.613	0.175	0.404
-664.003	0.904	0.166	-0.120
-662.989	388.148	-0.171	-0.358
-661.974	-78.928	-0.228	0.079
-660.959	800.000	0.044	-0.182
-659.945	-7.128	-0.154	-0.106
-658.930	800.000	-0.069	0.225
-657.916	-116.752	0.144	-0.027
-656.901	62.336	0.169	-0.171
-655.886	295.696	-0.250	-0.463
-654.872	-77.834	-0.133	-0.047
-653.857	-123.511	-0.191	0.031
-652.843	800.000	-0.102	-0.323
-651.828	-134.459	0.153	0.019
-650.814	-107.656	0.280	0.062
-649.799	230.034	0.158	-0.261
-648.784	-90.563	0.234	-0.068
-647.770	-16.718	0.205	-0.131
-646.755	205.171	0.084	0.132
-645.741	-200.000	-0.011	-0.166
-644.726	-28.656	-0.192	-0.112
-643.711	-106.862	-0.119	-0.027
-642.697	-200.000	-0.073	0.343
-641.682	-129.741	0.105	0.015
-640.668	468.536	-0.188	-0.426
-639.653	12.691	-0.087	-0.068
-638.638	-200.000	-0.103	-0.517
-637.624	800.000	-0.037	-0.149
-636.609	23.325	-0.186	-0.154
-635.595	135.958	0.063	-0.083
-634.580	-75.680	-0.057	-0.021
-633.565	482.673	0.014	0.031
-632.551	231.111	-0.126	-0.209
-631.536	-200.000	-0.018	-0.234
-630.522	-95.778	0.212	-0.057
-629.507	-168.838	0.135	-0.005
-628.492	-65.097	-0.299	0.122
-627.478	-36.169	-0.133	0.073
-626.463	216.866	0.108	0.174
-625.449	-99.852	-0.221	0.056
-624.434	-73.484	-0.094	-0.035
-623.419	-162.676	-0.151	0.007
-622.405	-200.000	-0.007	0.066
-621.390	-90.577	-0.194	-0.057
-620.376	570.954	-0.109	0.267
-619.361	-18.473	-0.183	-0.116
-618.346	800.000	-0.154	-0.538
-617.332	800.000	-0.059	-0.174
-616.317	66.651	-0.370	-0.380
-615.303	271.048	-0.101	-0.180
-614.288	289.862	-0.165	-0.303
-613.273	-107.133	0.110	-0.025
-612.259	-200.000	-0.008	-0.138
-611.244	203.297	0.081	-0.126
-610.230	263.932	0.136	0.239
-609.215	800.000	-0.002	-0.006
-608.201	-112.409	0.080	-0.016
-607.186	-200.000	-0.046	0.236
-606.171	-152.863	-0.457	0.033
-605.157	47.967	0.369	-0.349
-604.142	324.197	0.017	0.032
-603.128	-200.000	-0.052	-0.261
-602.113	18.749	-0.117	-0.095
-601.098	426.237	0.164	-0.357
-600.084	312.051	0.117	0.222
-599.069	86.348	-0.177	-0.197
-598.055	-200.000	0.085	-0.413
-597.040	-83.964	-0.242	-0.078
-596.025	222.885	-0.122	-0.198
-595.011	-200.000	-0.026	-0.262
-593.996	192.248	0.032	0.048
-592.982	180.101	0.177	0.262
-591.967	800.000	0.034	0.105
-590.952	393.574	0.096	0.202
-589.938	-200.000	0.050	-0.243
-588.923	-200.000	0.027	0.133
-587.909	-13.199	-0.126	0.082
-586.894	386.374	0.106	-0.220
-585.879	-73.672	-0.134	0.049
-584.865	-200.000	-0.018	-0.128
-583.850	-97.301	-0.368	0.097
-582.836	-95.803	-0.353	0.095
-581.821	-200.000	-0.017	-0.185
-580.806	379.165	-0.096	0.198
-579.792	800.000	0.107	-0.346
-578.777	-200.000	0.005	-0.046
-577.763	-200.000	-0.003	-0.206
-576.748	-18.192	0.025	-0.016
-575.733	-126.784	0.016	0.002
-574.719	223.166	-0.221	-0.360
-573.704	-146.418	-0.302	0.027
-572.690	-200.000	0.043	0.297
-571.675	800.000	-0.016	-0.046
-570.661	125.650	0.202	-0.258
-569.646	800.000	0.016	-0.058
-568.631	-200.000	-0.017	0.247
-567.617	503.967	-0.123	-0.287
-566.602	-74.900	0.170	-0.062
-565.588	-95.361	-0.228	-0.062
-564.573	-200.000	-0.024	-0.234
-563.558	-200.000	-0.049	0.301
-562.544	-200.000	-0.002	0.134
-561.529	-200.000	0.003	0.269
-560.515	347.391	-0.016	0.033
-559.500	-184.968	-0.099	-0.002
-558.485	77.742	-0.107	0.115
-557.471	-95.960	-0.398	0.107
-556.456	-115.439	0.114	0.022
-555.442	286.434	0.058	0.105
-554.427	176.488	-0.275	-0.402
-553.412	-160.155	-0.180	-0.010
-552.398	358.757	-0.105	0.212
-551.383	800.000	-0.150	0.517
-550.369	-200.000	0.016	-0.133
-549.354	-99.098	0.147	-0.038
-548.339	-61.225	0.160	0.068
-547.325	-78.310	0.144	0.050
-546.310	48.098	-0.225	-0.212
-545.296	-46.439	0.134	-0.066
-544.281	-81.612	-0.491	-0.162
-543.266	-19.392	-0.292	-0.182
-542.252	-200.000	0.006	-0.036
-541.237	-8.199	0.327	0.222
-540.223	-42.294	0.299	0.154
-539.208	379.580	0.139	0.288
-538.193	-193.495	0.538	-0.005
-537.179	-124.406	0.273	-0.043
-536.164	11.253	0.346	0.267
-535.150	407.519	-0.034	0.073
-534.135	800.000	-0.076	-0.285
-533.121	-7.673	0.138	-0.094
-532.106	271.240	-0.121	0.214
-531.091	800.000	-0.084	0.311
-530.077	105.290	-0.220	0.262
-529.062	163.758	-0.114	0.162
-528.048	-25.287	-0.363	0.216
-527.033	800.000	-0.063	0.274
-526.018	-200.000	-0.005	-0.368
-525.004	-153.681	-0.288	0.020
-523.989	-63.138	0.082	0.034
-522.975	17.513	0.124	-0.099
-521.960	-200.000	-0.004	0.180
-520.945	-200.000	0.010	0.093
-519.931	-20.508	0.387	-0.239
-518.916	-73.263	0.306	0.113
-517.902	789.204	-0.147	-0.408
-516.887	114.292	0.200	0.246
-515.872	-144.145	-0.092	-0.009
-514.858	800.000	-0.074	0.226
-513.843	800.000	0.100	0.300
-512.829	81.333	-0.096	-0.104
-511.814	85.066	0.175	-0.194
-510.799	800.000	0.127	-0.507
-509.785	-200.000	-0.048	-0.231
-508.770	-29.990	0.174	-0.100
-507.756	77.411	0.098	-0.105
-506.741	89.962	-0.166	-0.187
-505.726	82.209	0.116	0.127
-504.712	-149.574	-0.156	-0.012
-503.697	-13.477	-0.256	0.167
-502.683	-165.320	0.176	-0.008
-501.668	367.243	0.085	0.174
-500.653	647.174	0.063	0.161
-499.639	-38.143	-0.201	0.107
-498.624	-200.000	0.018	0.103
-497.610	-200.000	0.014	-0.120
-496.595	625.367	-0.070	0.178
-495.581	240.550	-0.132	-0.222
-494.566	347.118	0.038	-0.075
-493.551	-200.000	-0.025	-0.153
-492.537	251.924	-0.092	-0.158
-491.522	-140.048	-0.107	-0.011
-490.508	-64.707	0.133	-0.054
-489.493	38.041	-0.210	0.188
-488.478	-29.360	0.129	0.074
-487.464	-179.825	0.257	0.006
-486.449	800.000	-0.019	0.058
-485.435	55.404	0.294	0.286
-484.420	275.115	0.076	0.136
-483.405	-71.239	0.069	-0.026
-482.391	-138.165	0.128	0.014
-481.376	800.000	0.084	0.232
-480.362	-130.749	-0.016	0.002
-479.347	37.473	0.044	-0.039
-478.332	1.747	0.060	0.043
-477.318	-60.264	0.446	-0.191
-476.303	800.000	-0.101	0.291
-475.289	-111.914	0.148	0.030
-474.274	-200.000	-0.015	0.126
-473.259	-152.132	-0.129	0.009
-472.245	290.099	-0.070	0.127
-471.230	773.011	0.029	0.080
-470.216	-24.152	0.199	-0.119
-469.201	176.272	0.197	-0.288
-468.186	19.938	0.297	0.240
-467.172	-163.006	-0.471	0.023
-466.157	-26.125	0.272	-0.161
-465.143	-145.542	-0.185	-0.017
-464.128	-109.493	-0.259	0.055
-463.113	577.346	0.098	0.240
-462.099	-86.555	-0.197	0.061
-461.084	85.226	0.145	0.159
-460.070	76.667	0.193	-0.205
-459.055	13.219	-0.056	-0.044
-458.040	-136.441	0.189	0.022
-457.026	35.206	-0.150	-0.132
-456.011	345.108	0.054	0.107
-454.997	-200.000	-0.021	0.126
-453.982	-200.000	-0.019	-0.085
-452.968	-200.000	0.020	-0.116
-451.953	136.777	-0.102	-0.133
-450.938	-200.000	0.006	0.342
-449.924	-169.223	0.413	-0.015
-448.909	33.437	0.258	-0.225
-447.895	264.608	0.123	0.215
-446.880	-128.839	-0.263	0.037
-445.865	408.347	0.101	-0.216
-444.851	-25.024	-0.111	-0.066
-443.836	-60.140	0.323	-0.138
-442.822	-14.847	0.311	-0.200
-441.807	-46.239	0.187	0.093
-440.792	800.000	-0.072	0.286
-439.778	-133.593	0.063	0.008
-438.763	-74.064	0.060	0.022
-437.749	800.000	-0.072	0.258
-436.734	199.972	0.159	0.246
-435.719	-47.672	0.217	-0.106
-434.705	202.130	0.209	0.324
-433.690	-200.000	0.017	0.074
-432.676	-48.484	0.120	-0.058
-431.661	-200.000	0.024	0.261
-430.646	-47.062	0.172	0.084
-429.632	524.839	0.128	-0.303
-428.617	94.299	0.187	-0.213
-427.603	-58.252	-0.217	-0.095
-426.588	-200.000	0.318	0.001
-425.573	109.972	0.123	-0.148
-424.559	47.553	0.106	0.099
-423.544	-154.369	-0.208	-0.014
-422.530	-56.588	-0.142	-0.063
-421.515	-41.026	-0.207	-0.107
-420.500	-57.513	0.314	0.138
-419.486	800.000	-0.081	0.297
-418.471	-122.812	0.222	0.036
-417.457	11.238	-0.234	-0.180
-416.442	-81.601	-0.088	-0.029
-415.428	-200.000	0.049	-0.383
-414.413	-126.291	-0.234	0.035
-413.398	-50.479	0.147	-0.070
-412.384	23.835	-0.158	0.131
-411.369	59.588	-0.178	-0.176
-410.355	800.000	0.031	0.133
-409.340	-92.484	0.363	-0.102
-408.325	800.000	0.056	0.179
-407.311	37.599	0.148	-0.131
-406.296	-33.640	-0.108	0.060
-405.282	-134.001	-0.256	0.032
-404.267	-200.000	0.042	0.262
-403.252	126.369	-0.135	0.171
-402.238	-51.112	0.241	-0.113
-401.223	800.000	0.025	-0.075
-400.209	-1.273	0.211	0.149
-399.194	-132.599	0.205	0.026
-398.179	-132.042	-0.385	-0.050
-397.165	-200.000	-0.013	0.168
-396.150	-101.780	-0.154	-0.037
-395.136	3.064	-0.121	0.088
-394.121	109.375	0.196	-0.235
-393.106	-44.511	0.243	-0.122
-392.092	-98.626	0.128	-0.033
-391.077	-26.406	-0.164	0.096
-390.063	67.842	-0.248	0.254
-389.048	-35.444	-0.216	-0.118
-388.033	-127.425	-0.114	0.017
-387.019	258.785	0.052	0.089
-386.004	550.440	0.092	0.220
-384.990	-20.026	0.278	0.172
-383.975	-200.000	-0.003	0.032
-382.960	800.000	-0.042	0.121
-381.946	800.000	-0.029	-0.127
-380.931	646.638	-0.054	-0.139
-379.917	173.267	-0.144	0.208
-378.902	-103.630	0.135	0.032
-377.888	285.888	-0.098	0.176
-376.873	557.332	-0.009	-0.022
-375.858	-69.106	0.268	-0.103
-374.844	-200.000	0.037	-0.215
-373.829	-98.289	-0.184	0.047
-372.815	-200.000	0.014	0.209
-371.800	189.860	0.208	-0.312
-370.785	-200.000	-0.043	0.255
-369.771	-155.939	-0.095	-0.006
-368.756	400.107	0.238	0.499
-367.742	4.566	0.158	0.116
-366.727	110.604	0.200	-0.241
-365.712	313.328	0.069	-0.129
-364.698	-11.743	0.155	-0.102
-363.683	17.072	-0.143	0.113
-362.669	105.925	-0.080	-0.095
-361.654	59.809	-0.061	-0.060
-360.639	82.018	-0.143	0.155
-359.625	-120.137	0.163	0.028
-358.610	337.427	0.092	-0.179
-357.596	-200.000	-0.023	-0.126
-356.581	122.839	0.120	0.150
-355.566	269.795	-0.082	0.144
-354.552	-200.000	-0.013	0.065
-353.537	-79.445	0.297	-0.101
-352.523	-200.000	0.004	-0.036
-351.508	800.000	-0.118	0.368
-350.493	-10.217	-0.197	0.131
-349.479	-97.355	-0.399	-0.104
-348.464	216.570	-0.127	-0.203
-347.450	11.722	0.314	-0.241
-346.435	-162.828	0.299	0.015
-345.420	77.290	-0.179	0.191
-344.406	-200.000	-0.001	-0.315
-343.391	-37.743	-0.362	0.193
-342.377	-200.000	0.024	0.170
-341.362	415.312	0.059	0.126
-340.348	-200.000	-0.037	0.189
-339.333	334.151	0.236	0.457
-338.318	-185.066	0.316	0.005
-337.304	553.482	0.036	0.087
-336.289	185.991	-0.051	-0.076
-335.275	0.905	-0.157	-0.113
-334.260	113.458	0.249	0.302
-333.245	-200.000	-0.032	0.186
-332.231	-200.000	0.029	-0.214
-331.216	63.595	0.083	-0.084
-330.202	120.281	-0.125	-0.155
-329.187	-52.369	-0.086	-0.040
-328.172	-200.000	-0.047	0.294
-327.158	800.000	0.098	-0.284
-326.143	27.364	-0.212	-0.178
-325.129	800.000	-0.043	-0.174
-324.114	800.000	-0.191	0.606
-323.099	194.667	-0.187	0.284
-322.085	298.499	-0.114	0.209
-321.070	-54.277	-0.158	0.072
-320.056	68.963	-0.149	0.153
-319.041	-15.885	0.085	-0.054
-318.026	486.795	-0.045	0.102
-317.012	800.000	0.036	-0.122
-315.997	454.531	0.045	0.100
-314.983	-43.929	0.261	-0.131
-313.968	-145.735	0.490	-0.044
-312.953	288.911	-0.068	0.124
-311.939	62.005	-0.043	-0.043
-310.924	740.211	-0.085	-0.229
-309.910	2.113	-0.185	-0.133
-308.895	-63.778	-0.219	0.090
-307.880	109.340	0.276	0.330
-306.866	253.310	0.105	-0.180
-305.851	20.932	-0.376	-0.304
-304.837	-200.000	-0.008	-0.114
-303.822	149.706	0.048	0.065
-302.807	22.501	0.261	-0.213
-301.793	-97.597	0.247	0.064
-300.778	-136.722	-0.249	-0.029
-299.764	-64.635	0.228	-0.092
-298.749	455.123	0.068	-0.151
-297.735	-134.843	-0.275	0.033
-296.720	50.739	-0.268	0.254
-295.705	150.547	0.140	0.190
-294.691	334.421	0.138	0.267
-293.676	176.329	-0.120	0.174
-292.662	-200.000	0.019	0.435
-291.647	-107.731	0.185	0.040
-290.632	-200.000	0.014	-0.360
-289.618	800.000	0.046	-0.183
-288.603	-200.000	-0.052	-0.240
-287.589	-67.874	0.133	0.052
-286.574	-200.000	0.005	-0.028
-285.559	-101.517	-0.467	-0.113
-284.545	-124.916	-0.303	-0.047
-283.530	-200.000	-0.015	0.245
-282.516	385.363	-0.014	0.029
-281.501	-200.000	-0.072	-0.418
-280.486	147.182	-0.189	0.254
-279.472	-77.314	0.184	-0.064
-278.457	320.605	-0.107	-0.202
-277.443	423.609	-0.101	-0.216
-276.428	-140.355	-0.146	0.015
-275.413	5.824	-0.118	-0.087
-274.399	-200.000	0.021	-0.162
-273.384	-200.000	-0.021	-0.120
-272.370	-163.636	-0.443	-0.021
-271.355	-129.152	0.150	-0.021
-270.340	53.533	-0.257	-0.246
-269.326	238.492	0.097	-0.160
-268.311	-200.000	-0.002	0.017
-267.297	-200.000	-0.017	-0.349
-266.282	800.000	0.016	0.057
-265.267	800.000	0.141	0.416
-264.253	-164.271	0.177	-0.008
-263.238	-66.699	-0.277	0.109
-262.224	-69.452	0.236	-0.090
-261.209	-43.370	-0.130	0.066
-260.195	41.129	0.217	-0.195
-259.180	208.533	-0.041	0.064
-258.165	17.934	0.084	-0.066
-257.151	645.977	0.112	-0.286
-256.136	-27.092	0.312	-0.182
-255.122	-14.265	0.195	-0.125
-254.107	199.151	-0.165	0.251
-253.092	-136.401	0.214	-0.025
-252.078	-138.121	0.102	0.011
-251.063	45.755	-0.125	0.115
-250.049	-3.412	-0.032	-0.022
-249.034	-97.050	-0.375	-0.098
-248.019	149.047	0.137	-0.185
-247.005	-104.420	0.282	0.065
-245.990	-200.000	-0.030	0.379
-244.976	-66.784	-0.224	0.088
-243.961	-200.000	-0.009	-0.151
-242.946	-9.449	-0.122	0.081
-241.932	-200.000	-0.039	0.191
-240.917	-128.085	0.154	-0.022
-239.903	-200.000	-0.006	-0.074
-238.888	800.000	-0.045	0.131
-237.873	466.046	0.185	-0.413
-236.859	579.820	-0.083	-0.202
-235.844	-140.914	0.193	-0.020
-234.830	179.675	-0.042	-0.061
-233.815	800.000	-0.049	-0.174
-232.800	421.242	0.110	-0.234
-231.786	800.000	-0.049	-0.199
-230.771	-102.640	-0.030	0.007
-229.757	486.587	0.085	0.192
-228.742	-54.908	-0.163	0.073
-227.727	-12.968	-0.162	0.105
-226.713	374.696	0.042	0.085
-225.698	274.509	-0.144	-0.254
-224.684	26.926	-0.084	0.070
-223.669	-140.701	0.271	0.028
-222.655	175.572	-0.134	-0.193
-221.640	-200.000	0.029	0.403
-220.625	-66.667	-0.145	0.057
-219.611	-200.000	0.021	-0.163
-218.596	-96.426	-0.378	0.100
-217.582	-77.670	-0.177	0.061
-216.567	-126.162	0.381	-0.057
-215.552	-200.000	-0.027	0.163
-214.538	-200.000	0.026	0.274
-213.523	582.951	-0.179	0.437
-212.509	-200.000	0.085	0.438
-211.494	-200.000	0.021	-0.092
-210.479	21.398	-0.241	0.195
-209.465	570.207	-0.102	0.247
-208.450	-40.787	0.032	0.017
-207.436	-52.402	0.258	-0.119
-206.421	-80.687	-0.284	-0.094
-205.406	-189.678	-0.395	0.005
-204.392	-110.751	0.240	-0.049
-203.377	242.148	-0.029	-0.049
-202.363	96.925	-0.269	0.307
-201.348	-200.000	0.021	-0.114
-200.333	-95.776	0.178	-0.047
-199.319	800.000	-0.072	0.219
-198.304	-200.000	-0.040	-0.243
-197.290	267.532	0.097	0.169
-196.275	800.000	0.020	0.070
-195.260	800.000	-0.048	0.162
-194.246	-42.386	0.080	-0.041
-193.231	92.067	0.043	-0.049
-192.217	800.000	-0.167	0.525
-191.202	302.152	-0.070	0.129
-190.187	-151.117	0.267	0.020
-189.173	-200.000	0.010	0.287
-188.158	-200.000	-0.066	-0.352
-187.144	-80.284	0.387	0.129
-186.129	-83.098	0.026	0.008
-185.114	360.996	-0.112	-0.223
-184.100	102.939	0.282	-0.329
-183.085	-194.488	0.046	0.000
-182.071	-114.062	0.175	-0.034
-181.056	800.000	-0.100	0.300
-180.042	-168.685	-0.266	-0.010
-179.027	-200.000	0.002	-0.074
-178.012	-172.245	0.225	0.007
-176.998	-103.537	0.204	0.048
-175.983	-200.000	-0.007	-0.034
-174.969	-61.710	-0.055	-0.023
-173.954	800.000	-0.024	-0.099
-172.939	-99.512	0.209	0.052
-171.925	156.972	-0.211	-0.290
-170.910	-200.000	0.010	0.094
-169.896	-118.549	-0.264	-0.046
-168.881	-59.681	-0.211	-0.090
-167.866	-200.000	0.043	0.261
-166.852	800.000	-0.075	0.296
-165.837	485.817	-0.114	-0.259
-164.823	-9.644	0.229	0.152
-163.808	800.000	0.074	0.269
-162.793	-22.931	-0.326	-0.196
-161.779	800.000	0.101	-0.335
-160.764	-65.303	0.147	-0.059
-159.750	140.879	0.204	-0.268
-158.735	-87.127	-0.166	0.050
-157.720	800.000	0.064	-0.274
-156.706	-138.976	-0.081	-0.009
-155.691	-200.000	0.011	0.047
-154.677	-200.000	0.015	-0.262
-153.662	-57.572	0.270	0.118
-152.647	-200.000	-0.014	0.190
-151.633	356.595	0.190	0.376
-150.618	168.739	0.063	-0.090
-149.604	-86.724	0.267	0.081
-148.589	53.237	0.293	0.279
-147.574	-104.334	0.224	0.052
-146.560	-200.000	-0.026	-0.270
-145.545	24.829	0.198	-0.163
-144.531	-86.330	-0.222	-0.068
-143.516	108.292	0.127	-0.150
-142.502	-31.290	-0.250	-0.140
-141.487	195.889	0.166	0.250
-140.472	68.864	0.125	-0.127
-139.458	-98.662	0.074	-0.019
-138.443	-18.309	-0.168	0.104
-137.429	-149.460	0.331	-0.026
-136.414	320.571	0.024	0.045
-135.399	467.649	-0.061	0.135
-134.385	-3.344	-0.274	0.189
-133.370	-69.225	0.150	0.057
-132.356	61.054	0.145	-0.143
-131.341	410.633	-0.096	0.201
-130.326	1.036	0.264	-0.188
-129.312	-42.421	-0.164	0.083
-128.297	-121.181	0.168	0.028
-127.283	-192.302	0.323	0.003
-126.268	31.300	-0.130	0.111
-125.253	72.717	-0.139	-0.144
-124.239	-145.339	-0.090	-0.008
-123.224	-200.000	0.020	0.129
-122.210	72.550	-0.083	-0.086
-121.195	118.187	0.154	-0.188
-120.180	-18.151	-0.012	-0.007
-119.166	-96.186	-0.232	0.061
-118.151	-145.492	0.371	-0.033
-117.137	-81.138	-0.190	0.062
-116.122	-61.302	0.095	-0.040
-115.107	58.311	-0.140	0.136
-114.093	7.664	-0.163	-0.121
-113.078	-71.983	-0.130	0.048
-112.064	-200.000	0.084	-0.558
-111.049	122.161	0.195	-0.242
-110.034	409.664	0.075	0.157
-109.020	-200.000	-0.034	0.284
-108.005	357.079	0.170	0.337
-106.991	-200.000	0.052	-0.303
-105.976	-11.871	-0.141	0.091
-104.962	138.945	-0.080	-0.105
-103.947	-181.351	-0.171	-0.003
-102.932	-162.244	-0.163	0.008
-101.918	800.000	-0.125	-0.416
-100.903	71.735	-0.138	0.142
-99.889	-200.000	-0.024	-0.150
-98.874	162.380	0.124	0.173
-97.859	-200.000	0.004	0.375
-96.845	45.223	-0.144	-0.132
-95.830	148.737	-0.032	0.043
-94.816	-24.113	-0.059	-0.035
-93.801	540.003	0.040	0.094
-92.786	69.780	-0.020	-0.020
-91.772	-200.000	-0.065	-0.524
-90.757	-110.938	0.170	0.035
-89.743	-93.340	0.172	-0.047
-88.728	45.904	0.093	0.085
-87.713	44.381	-0.190	0.172
-86.699	279.646	-0.056	0.099
-85.684	95.128	0.116	-0.131
-84.670	-98.428	-0.241	-0.061
-83.655	154.659	-0.087	-0.118
-82.640	-50.306	0.280	-0.131
-81.626	423.018	-0.051	0.108
-80.611	50.794	-0.305	0.286
-79.597	-18.222	0.075	0.046
-78.582	-200.000	-0.000	-0.093
-77.567	-200.000	0.002	0.088
-76.553	-43.355	0.149	-0.075
-75.538	573.496	0.050	0.122
-74.524	800.000	0.092	0.348
-73.509	585.372	-0.011	0.028
-72.494	-101.832	-0.063	0.015
-71.480	160.112	0.195	-0.268
-70.465	-200.000	-0.001	-0.028
-69.451	141.266	-0.136	-0.178
-68.436	-200.000	0.017	-0.245
-67.422	800.000	-0.045	-0.174
-66.407	800.000	-0.061	0.183
-65.392	800.000	0.055	0.196
-64.378	-55.371	0.324	0.144
-63.363	-200.000	-0.206	-0.000
-62.349	623.356	-0.110	-0.274
-61.334	198.750	-0.738	-1.118
-60.319	-33.602	0.339	0.185
-59.305	43.519	-0.644	-0.582
-58.290	229.909	0.452	0.731
-57.276	800.000	0.512	1.743
-56.261	-200.000	96.107	577.126
-55.246	660.440	1378.948	3511.857
-54.232	189.937	2586.119	3837.859
-53.217	123.671	2188.318	2715.321
-52.203	46.000	1724.959	1578.713
-51.188	38.542	1535.504	1353.950
-50.173	36.130	1507.645	1312.928
-49.159	55.188	1558.333	1489.464
-48.144	59.276	1576.866	1535.385
-47.130	38.933	1532.206	1353.524
-46.115	35.635	1517.067	1317.531
-45.100	35.398	1513.710	1312.936
-44.086	35.379	1512.097	1311.358
-43.071	35.340	1509.691	1308.952
-42.057	35.399	1507.875	1307.727
-41.042	35.307	1506.813	1306.128
-40.027	35.368	1505.269	1305.154
-39.013	35.403	1503.923	1304.174
-37.998	35.258	1502.852	1302.211
-36.984	35.461	1501.123	1302.036
-35.969	35.466	1499.709	1300.789
-34.954	35.349	1498.989	1299.319
-33.940	35.348	1497.362	1297.855
-32.925	35.319	1496.198	1296.597
-31.911	35.433	1494.860	1296.160
-30.896	35.487	1493.385	1295.187
-29.881	35.491	1492.068	1294.025
-28.867	35.424	1490.335	1292.018
-27.852	35.438	1489.120	1291.006
-26.838	35.416	1488.201	1290.013
-25.823	35.443	1486.589	1288.747
-24.809	35.357	1485.034	1286.769
-23.794	35.391	1483.054	1285.231
-22.779	35.462	1481.516	1284.319
-21.765	35.514	1480.789	1283.990
-20.750	35.538	1479.491	1282.973
-19.736	35.434	1479.213	1281.983
-18.721	35.356	1477.908	1280.280
-17.706	35.386	1476.512	1279.222
-16.692	35.418	1475.351	1278.381
-15.677	35.296	1474.699	1276.950
-14.663	35.335	1473.691	1276.287
-13.648	35.337	1472.543	1275.258
-12.633	35.372	1471.789	1274.787
-11.619	35.250	1471.381	1273.569
-10.604	35.356	1470.154	1273.162
-9.590	35.400	1468.513	1271.981
-8.575	35.320	1468.133	1271.074
-7.560	35.467	1467.168	1271.162
-6.546	35.347	1466.423	1269.668
-5.531	35.453	1464.937	1269.035
-4.517	35.346	1464.457	1267.858
-3.502	35.357	1463.871	1267.375
-2.487	35.399	1462.450	1266.367
-1.473	35.267	1461.580	1264.693
-0.458	35.479	1459.383	1264.140
0.556	34.653	1450.203	1251.439
1.571	31.343	1423.285	1206.769
2.586	27.300	1360.600	1128.493
3.600	25.185	1277.521	1047.164
4.615	23.769	1230.488	1000.553
5.629	20.272	1174.433	936.055
6.644	12.091	1089.915	827.490
7.659	5.601	1049.292	764.960
8.673	4.911	1042.873	756.860
9.688	4.922	1040.316	754.992
10.702	4.830	1038.638	753.262
11.717	4.817	1037.112	752.025
12.731	6.988	1039.169	763.947
13.746	14.423	1049.451	807.587
14.761	19.630	1055.579	837.544
15.775	19.293	1053.880	834.493
16.790	18.329	1051.660	828.002
17.804	17.098	1049.837	820.545
18.819	16.174	1047.986	814.565
19.834	15.752	1046.865	811.587
20.848	15.478	1045.596	809.209
21.863	15.274	1044.785	807.528
22.877	15.169	1043.882	806.253
23.892	14.924	1043.082	804.387
24.907	14.804	1042.817	803.534
25.921	14.772	1041.804	802.528
26.936	14.904	1040.760	802.287
27.950	14.933	1039.893	801.687
28.965	14.770	1039.152	800.266
29.980	14.949	1037.548	799.812
30.994	15.082	1036.385	799.480
32.009	15.159	1035.629	799.196
33.023	15.320	1035.170	799.539
34.038	15.174	1034.428	798.199
35.053	15.098	1033.463	797.024
36.067	14.996	1032.287	795.557
37.082	14.957	1031.536	794.722
38.096	14.943	1030.805	794.027
39.111	15.124	1029.722	793.979
40.126	15.206	1028.809	793.594
41.140	15.036	1027.763	791.910
42.155	14.920	1026.834	790.578
43.169	14.723	1025.885	788.848
44.184	14.740	1024.622	787.885
45.199	14.711	1023.882	787.112
46.213	14.752	1022.918	786.495
47.228	14.748	1021.912	785.632
48.242	14.943	1020.727	785.566
49.257	14.939	1020.075	784.974
50.271	14.977	1019.346	784.524
51.286	14.957	1018.358	783.601
52.301	15.110	1016.927	783.144
53.315	14.953	1016.930	782.345
54.330	14.965	1015.851	781.498
55.344	14.849	1014.862	780.129
56.359	14.758	1014.082	779.036
57.374	14.812	1012.762	778.202
58.388	14.868	1012.052	777.849
59.403	14.775	1011.413	776.857
60.417	14.671	1010.674	775.741
61.432	14.758	1009.890	775.471
62.447	14.680	1009.315	774.602
63.461	14.680	1008.059	773.567
64.476	14.465	1007.780	772.288
65.490	14.664	1006.243	771.964
66.505	14.555	1005.888	771.118
67.520	14.547	1005.363	770.609
68.534	14.624	1004.409	770.167
69.549	14.645	1003.834	769.756
70.563	14.684	1002.900	769.152
71.578	14.655	1002.464	768.616
72.593	14.613	1001.223	767.401
73.607	14.506	1000.265	766.110
74.622	14.598	999.173	765.626
75.636	14.406	998.636	764.267
76.651	14.605	997.441	764.195
77.666	14.551	997.256	763.739
78.680	14.649	995.863	763.052
79.695	14.547	995.803	762.473
80.709	14.526	995.483	762.066
81.724	14.687	994.799	762.209
82.739	14.750	993.804	761.664
83.753	14.742	993.282	761.162
84.768	14.739	992.638	760.589
85.782	14.983	991.820	761.002
86.797	15.207	991.161	761.447
87.812	15.131	990.348	760.410
88.826	15.118	989.151	759.364
89.841	14.897	988.621	757.891
90.855	15.009	987.547	757.509
91.870	14.991	987.201	757.092
92.884	15.077	986.136	756.599
93.899	15.060	985.568	756.020
94.914	15.048	985.087	755.530
95.928	15.110	984.209	755.067
96.943	15.240	983.309	754.899
97.957	15.114	982.603	753.721
98.972	15.072	981.701	752.773
99.987	15.086	980.613	751.936
101.001	15.030	980.313	751.386
102.016	14.880	979.724	750.196
103.030	15.123	978.551	750.323
104.045	14.870	977.971	748.675
105.060	15.022	976.351	748.050
106.074	15.009	975.500	747.276
107.089	14.841	974.683	745.834
108.103	14.732	973.707	744.531
109.118	14.707	973.110	743.900
110.133	14.679	972.160	742.982
111.147	14.685	970.857	741.948
112.162	14.744	970.364	741.765
113.176	14.725	969.690	741.102
114.191	14.784	968.992	740.763
115.206	14.779	968.063	739.965
116.220	14.753	967.493	739.349
117.235	14.699	966.643	738.398
118.249	14.754	965.717	737.870
119.264	14.837	964.298	737.086
120.279	14.644	964.197	736.093
121.293	14.687	962.981	735.288
122.308	14.742	962.160	734.835
123.322	14.634	961.383	733.706
124.337	14.651	960.445	732.998
125.352	14.700	959.244	732.233
126.366	14.675	958.386	731.400
127.381	14.629	957.381	730.369
128.395	14.520	956.378	729.060
129.410	14.739	955.135	729.008
130.424	14.746	954.704	728.646
131.439	14.640	954.455	727.929
132.454	14.775	953.259	727.537
133.468	14.879	952.657	727.467
134.483	14.938	951.631	726.876
135.497	14.841	951.041	725.940
136.512	14.698	950.649	724.957
137.527	14.857	949.631	724.802
138.541	14.841	948.720	723.973
139.556	14.846	948.076	723.440
140.570	14.739	947.379	722.383
141.585	14.981	946.067	722.361
142.600	14.928	946.330	722.271
143.614	15.177	944.948	722.225
144.629	15.076	944.682	721.523
145.643	15.105	943.764	720.885
146.658	15.056	943.128	720.123
147.673	15.150	941.523	719.236
148.687	14.922	940.916	717.731
149.702	14.952	940.205	717.255
150.716	14.872	939.361	716.205
151.731	14.845	938.509	715.376
152.746	14.829	938.057	714.902
153.760	14.964	936.822	714.471
154.775	14.865	936.468	713.718
155.789	14.906	936.030	713.496
156.804	14.977	934.770	712.771
157.819	14.984	933.981	712.138
158.833	15.133	933.033	711.987
159.848	15.054	933.243	711.748
160.862	15.294	932.069	711.808
161.877	15.247	931.564	711.159
162.892	15.113	930.463	709.690
163.906	15.019	929.460	708.461
164.921	14.930	929.175	707.808
165.935	15.008	928.094	707.249
166.950	14.881	927.265	706.021
167.964	15.041	926.226	705.841
168.979	14.994	925.680	705.163
169.994	15.025	924.011	703.963
171.008	14.883	924.114	703.380
172.023	15.048	922.987	703.151
173.037	15.037	922.561	702.719
174.052	15.183	921.325	702.327
175.067	15.235	920.616	701.944
176.081	15.025	919.785	700.370
177.096	15.018	918.992	699.674
178.110	14.961	918.097	698.694
179.125	14.904	917.523	697.956
180.140	15.124	916.508	698.038
181.154	14.992	916.193	697.187
182.169	15.096	915.315	696.892
183.183	15.146	914.834	696.669
184.198	15.113	914.522	696.236
185.213	15.321	913.320	696.122
186.227	15.305	912.737	695.550
187.242	15.319	912.833	695.619
188.256	15.316	912.251	695.099
189.271	15.523	911.255	695.137
190.286	15.505	910.475	694.406
191.300	15.346	909.697	693.096
192.315	15.085	908.653	691.160
193.329	15.013	907.910	690.236
194.344	15.047	907.228	689.797
195.359	15.108	906.754	689.627
196.373	15.270	906.012	689.670
197.388	15.252	905.895	689.444
198.402	15.298	905.597	689.347
199.417	15.533	905.235	689.975
200.432	15.581	904.678	689.685
201.446	15.494	904.515	689.146
202.461	15.648	903.887	689.236
203.475	15.698	903.370	688.984
204.490	15.712	902.580	688.380
205.504	15.700	902.017	687.839
206.519	15.439	900.451	685.520
207.534	15.409	900.154	685.109
208.548	15.376	899.403	684.343
209.563	15.539	898.715	684.423
210.577	15.562	897.871	683.816
211.592	15.547	897.397	683.329
212.607	15.620	897.027	683.285
213.621	15.786	896.234	683.298
214.636	15.771	895.687	682.758
215.650	15.657	894.936	681.665
216.665	15.626	894.611	681.229
217.680	15.806	893.865	681.331
218.694	15.788	893.621	681.010
219.709	15.765	893.067	680.433
220.723	15.702	892.562	679.734
221.738	15.773	891.470	679.130
222.753	15.722	890.756	678.321
223.767	15.755	889.808	677.672
224.782	15.734	889.300	677.140
225.796	15.917	888.775	677.418
226.811	15.957	887.917	676.862
227.826	15.893	887.292	676.070
228.840	15.852	886.481	675.227
229.855	15.787	885.689	674.304
230.869	15.860	885.191	674.158
231.884	15.721	884.677	673.151
232.899	15.947	883.457	673.065
233.913	15.800	882.796	671.916
234.928	15.801	882.356	671.527
235.942	15.679	881.867	670.606
236.957	15.648	881.225	669.937
237.972	15.751	880.370	669.638
238.986	15.679	880.077	669.069
240.001	15.650	879.328	668.323
241.015	15.665	878.790	667.918
242.030	15.744	877.579	667.251
243.045	15.852	877.052	667.220
244.059	15.946	876.663	667.235
245.074	15.990	875.915	666.782
246.088	15.951	875.623	666.347
247.103	16.011	874.852	665.938
248.117	16.002	874.123	665.289
249.132	16.036	873.908	665.201
250.147	16.255	873.291	665.534
251.161	16.211	872.576	664.758
252.176	16.369	871.989	664.874
253.190	16.279	871.421	664.026
254.205	16.431	870.544	663.898
255.220	16.502	870.028	663.726
256.234	16.526	869.430	663.305
257.249	16.401	869.185	662.570
258.263	16.267	868.862	661.739
259.278	16.513	867.422	661.544
260.293	16.548	867.146	661.412
261.307	16.589	866.578	661.081
262.322	16.639	866.392	661.077
263.336	16.692	865.755	660.738
264.351	16.686	865.096	660.155
265.366	16.711	864.330	659.610
266.380	16.715	863.713	659.095
267.395	16.698	863.201	658.580
268.409	16.828	862.022	658.127
269.424	16.638	861.604	657.013
270.439	16.665	861.066	656.649
271.453	16.637	859.989	655.660
272.468	16.494	859.672	654.808
273.482	16.502	858.699	654.039
274.497	16.638	858.378	654.261
275.512	16.475	857.670	653.037
276.526	16.557	856.914	652.717
277.541	16.593	855.774	651.932
278.555	16.579	855.563	651.658
279.570	16.559	855.358	651.368
280.585	16.846	854.679	651.896
281.599	16.925	854.283	651.842
282.614	16.813	853.255	650.569
283.628	16.743	852.580	649.728
284.643	16.586	852.301	648.855
285.657	16.594	851.791	648.442
286.672	16.679	851.414	648.424
287.687	16.780	850.623	648.147
288.701	16.784	850.267	647.836
289.716	16.899	849.315	647.493
290.730	16.723	849.244	646.709
291.745	16.801	848.526	646.402
292.760	16.736	847.969	645.672
293.774	16.800	847.182	645.260
294.789	16.968	846.344	645.202
295.803	17.065	846.077	645.310
296.818	16.869	845.258	643.885
297.833	16.819	844.687	643.205
298.847	16.885	843.843	642.755
299.862	16.814	843.409	642.096
300.876	16.906	842.744	641.883
301.891	17.109	841.770	641.851
302.906	17.029	841.523	641.304
303.920	17.251	840.591	641.377
304.935	17.177	840.227	640.762
305.949	17.300	839.784	640.831
306.964	17.129	839.109	639.615
307.979	17.065	838.745	639.042
308.993	17.117	838.354	638.880
310.008	17.102	837.651	638.233
311.022	17.209	837.091	638.153
312.037	17.251	836.556	637.845
313.052	17.151	836.031	637.013
314.066	17.121	835.306	636.293
315.081	17.020	834.987	635.614
316.095	17.001	833.968	634.713
317.110	17.114	833.478	634.707
318.125	17.060	832.893	634.001
319.139	17.005	832.776	633.651
320.154	17.057	832.294	633.420
321.168	17.155	831.415	633.063
322.183	17.064	830.839	632.230
323.197	17.189	830.260	632.197
324.212	17.229	829.824	631.959
325.227	17.197	829.303	631.387
326.241	17.199	828.897	631.029
327.256	17.297	828.455	631.001
328.270	17.021	828.223	629.744
329.285	17.029	827.498	629.168
330.300	17.271	826.752	629.439
331.314	17.189	826.141	628.616
332.329	17.185	825.250	627.869
333.343	17.460	824.530	628.281
334.358	17.542	824.376	628.407
335.373	17.261	823.909	626.962
336.387	17.439	823.324	627.117
337.402	17.453	822.893	626.783
338.416	17.464	822.438	626.424
339.431	17.559	821.716	626.166
340.446	17.572	821.190	625.758
341.460	17.680	820.760	625.771
342.475	17.722	820.247	625.481
343.489	17.813	819.691	625.335
344.504	17.792	819.303	624.905
345.519	17.644	819.140	624.182
346.533	17.905	818.233	624.392
347.548	17.838	817.698	623.685
348.562	17.763	817.259	623.022
349.577	17.621	816.630	621.966
350.592	17.515	816.265	621.247
351.606	17.667	815.243	620.969
352.621	17.632	814.812	620.456
353.635	17.601	814.446	620.010
354.650	17.647	814.173	619.917
355.665	17.755	813.618	619.829
356.679	17.706	813.346	619.392
357.694	17.808	812.823	619.306
358.708	17.712	812.151	618.391
359.723	17.788	811.527	618.139
360.738	17.812	811.005	617.774
361.752	17.791	810.675	617.391
362.767	17.819	810.561	617.350
363.781	18.058	810.083	617.796
364.796	18.027	809.426	617.129
365.810	18.053	809.011	616.851
366.825	18.144	809.046	617.153
367.840	18.037	808.504	616.298
368.854	18.165	807.826	616.188
369.869	18.028	807.511	615.401
370.883	18.160	806.902	615.357
371.898	17.963	806.376	614.193
372.913	18.164	805.586	614.256
373.927	18.096	805.463	613.864
374.942	18.214	804.281	613.332
375.956	18.219	803.809	612.938
376.971	18.126	803.570	612.367
377.986	18.174	803.081	612.111
379.000	18.365	802.577	612.357
380.015	18.279	802.126	611.651
381.029	18.278	801.517	611.131
382.044	18.228	800.781	610.337
383.059	18.293	800.223	610.087
384.073	18.340	799.884	609.943
385.088	18.284	799.192	609.164
386.102	18.234	798.513	608.414
387.117	18.263	797.981	608.056
388.132	18.229	797.786	607.732
389.146	18.206	797.192	607.144
390.161	18.223	797.349	607.273
391.175	18.239	796.628	606.725
392.190	18.343	796.157	606.680
393.205	18.398	795.752	606.513
394.219	18.182	795.268	605.329
395.234	18.297	794.674	605.228
396.248	18.174	794.393	604.527
397.263	18.053	793.977	603.730
398.278	18.117	793.379	603.447
399.292	18.146	792.789	603.048
400.307	18.248	792.349	603.018
401.321	18.219	791.849	602.482
402.336	18.125	791.652	601.948
403.350	18.123	791.468	601.749
404.365	18.394	790.580	601.971
405.380	18.241	790.510	601.326
406.394	18.340	789.849	601.120
407.409	18.548	789.444	601.486
408.423	18.678	789.245	601.739
409.438	18.725	788.548	601.318
410.453	18.665	787.943	600.594
411.467	18.789	787.653	600.754
412.482	18.748	787.198	600.211
413.496	18.558	787.241	599.525
414.511	18.856	786.698	600.100
415.526	18.751	786.398	599.451
416.540	18.703	786.106	599.008
417.555	18.788	785.511	598.799
418.569	18.702	785.007	598.061
419.584	18.639	784.884	597.697
420.599	18.753	784.240	597.549
421.613	155.022	1367.918	1790.227
422.628	133.887	1452.986	1790.347
