DTS Sentinel unit serial number:	SN413079Multiplexer serial number:	ORYXHardware model number:	OX4-SRSoftware version number:	ORYX F/W v4.00 Oryx Data Collector v3.7.2.0data status	okinstallation	princeton_trtdifferential loss correction	single-endedforward channel	channel 3reverse channel	N/Adate	2019/09/12time	09:26:11forward acquisition time	60.00reverse acquisition time	0.00gamma	496.2192k internal	0.2301k external	0.2301temperature offset calibration	1.0032default loss term (dB/km)	0.3790temperature slope calibration	1.0000multiplexer offset coefficient	1.0000multiplexer slope coefficient	1.0000fibre end	0.00T internal ref (°C)	35.31T ext. ref 1 (°C)	1.79T ext. ref 2 (°C)	33.54length (m)	temperature (°C)	Stokes	anti-Stokes-747.200	34.417	-0.276	-0.245
-746.185	-200.000	-0.039	0.314
-745.171	-13.168	-0.055	0.036
-744.156	42.786	-0.227	0.211
-743.142	-53.465	-0.078	0.036
-742.127	800.000	-0.052	-0.175
-741.112	123.647	0.185	0.237
-740.098	-52.251	0.342	-0.162
-739.083	-41.905	0.249	0.130
-738.069	151.022	-0.251	0.347
-737.054	-200.000	0.012	0.113
-736.039	-118.683	-0.410	0.074
-735.025	81.000	0.173	0.190
-734.010	91.186	-0.166	0.190
-732.996	107.312	-0.185	-0.225
-731.981	-186.902	-0.320	-0.005
-730.966	25.863	-0.065	0.055
-729.952	800.000	0.018	-0.075
-728.937	411.520	-0.132	-0.286
-727.923	-30.297	0.397	0.230
-726.908	264.741	-0.033	0.059
-725.894	30.626	0.195	0.170
-724.879	-31.616	-0.243	0.139
-723.864	-200.000	0.008	-0.057
-722.850	800.000	0.043	-0.136
-721.835	-134.675	-0.235	0.029
-720.821	193.954	-0.078	0.120
-719.806	-200.000	0.046	-0.219
-718.791	259.526	-0.113	-0.198
-717.777	-130.980	0.139	-0.019
-716.762	-86.947	-0.163	0.051
-715.748	-65.102	0.244	-0.100
-714.733	-89.042	-0.205	-0.062
-713.718	-200.000	0.210	0.001
-712.704	17.023	0.250	0.202
-711.689	18.143	0.128	0.104
-710.675	273.143	0.077	-0.139
-709.660	800.000	0.142	-0.426
-708.645	800.000	0.108	0.324
-707.631	-114.552	-0.176	-0.034
-706.616	23.596	-0.209	0.175
-705.602	-123.723	-0.110	-0.018
-704.587	-200.000	-0.027	0.138
-703.572	-171.927	0.119	-0.004
-702.558	-88.701	-0.139	-0.042
-701.543	-36.788	-0.050	0.027
-700.529	69.134	-0.260	0.272
-699.514	5.258	0.246	-0.184
-698.499	133.675	0.119	0.157
-697.485	-82.854	-0.203	-0.067
-696.470	325.637	-0.164	-0.320
-695.456	-89.581	0.432	-0.129
-694.441	444.018	-0.066	0.148
-693.426	351.904	0.068	0.137
-692.412	-106.146	0.194	0.044
-691.397	160.732	-0.258	-0.367
-690.383	-200.000	-0.015	-0.132
-689.368	-53.726	0.094	0.044
-688.354	-97.979	0.319	0.084
-687.339	-52.844	0.227	-0.107
-686.324	10.580	-0.228	-0.177
-685.310	-167.904	-0.362	-0.014
-684.295	-87.112	-0.431	-0.133
-683.281	-81.162	0.042	-0.014
-682.266	-2.639	-0.232	0.165
-681.251	13.061	0.250	0.197
-680.237	83.476	0.161	0.178
-679.222	64.489	0.247	0.253
-678.208	800.000	0.066	0.200
-677.193	-92.663	-0.297	-0.085
-676.178	-82.654	0.144	0.048
-675.164	800.000	-0.026	0.098
-674.149	-194.235	-0.230	0.002
-673.135	24.793	-0.049	0.041
-672.120	-87.047	-0.267	-0.083
-671.105	-23.228	-0.108	-0.066
-670.091	-67.751	0.307	-0.122
-669.076	-172.815	0.194	0.006
-668.062	-78.243	0.153	-0.054
-667.047	-200.000	0.036	0.299
-666.032	-200.000	-0.055	0.482
-665.018	-11.990	-0.227	-0.151
-664.003	-67.740	0.226	-0.090
-662.989	114.374	0.133	-0.164
-661.974	-7.167	0.185	0.128
-660.959	-200.000	0.016	0.165
-659.945	-200.000	0.004	-0.116
-658.930	-200.000	-0.022	-0.309
-657.916	46.585	0.100	0.095
-656.901	240.371	0.077	-0.131
-655.886	328.439	0.051	0.100
-654.872	42.578	0.056	-0.052
-653.857	-126.643	0.401	0.060
-652.843	-89.878	0.023	0.007
-651.828	800.000	-0.044	-0.167
-650.814	-101.275	0.351	0.087
-649.799	800.000	0.096	-0.348
-648.784	-60.407	0.190	-0.082
-647.770	16.074	-0.258	0.207
-646.755	418.998	-0.060	0.130
-645.741	68.922	-0.047	-0.049
-644.726	800.000	0.065	-0.266
-643.711	-92.783	-0.121	-0.034
-642.697	63.106	0.063	0.064
-641.682	-45.273	-0.280	-0.141
-640.668	19.425	0.098	-0.080
-639.653	-180.833	-0.037	-0.001
-638.638	198.081	-0.253	0.393
-637.624	12.390	0.154	0.121
-636.609	-108.605	-0.345	0.075
-635.595	-53.520	0.116	0.054
-634.580	-126.135	0.028	0.004
-633.565	-200.000	-0.034	-0.206
-632.551	800.000	-0.152	-0.432
-631.536	-97.193	-0.110	0.029
-630.522	-67.277	-0.251	-0.100
-629.507	66.942	0.178	0.184
-628.492	239.458	0.121	-0.204
-627.478	-153.895	0.112	-0.008
-626.463	111.775	-0.251	0.307
-625.449	130.898	0.208	0.271
-624.434	-30.403	-0.300	-0.173
-623.419	-160.170	-0.070	0.004
-622.405	800.000	-0.021	0.067
-621.390	2.783	-0.049	-0.036
-620.376	-200.000	-0.012	-0.225
-619.361	-91.900	-0.410	-0.118
-618.346	-77.665	0.101	0.035
-617.332	-71.367	-0.256	0.097
-616.317	181.761	-0.177	-0.264
-615.303	-52.413	0.263	0.124
-614.288	-88.215	-0.236	0.072
-613.273	-33.896	0.287	0.160
-612.259	-200.000	0.023	0.124
-611.244	165.810	-0.077	-0.110
-610.230	59.413	-0.071	0.071
-609.215	-70.910	0.338	0.129
-608.201	121.808	-0.122	0.154
-607.186	-39.167	-0.479	-0.255
-606.171	-47.244	0.260	-0.129
-605.157	-200.000	0.012	0.132
-604.142	800.000	0.120	-0.368
-603.128	-200.000	0.014	0.128
-602.113	-74.916	0.122	0.044
-601.098	74.140	-0.195	-0.208
-600.084	800.000	-0.055	0.227
-599.069	-53.935	0.240	0.111
-598.055	-200.000	0.020	0.215
-597.040	120.420	0.152	-0.191
-596.025	-200.000	0.039	0.305
-595.011	58.659	-0.186	0.185
-593.996	220.660	0.031	0.050
-592.982	104.337	0.295	-0.352
-591.967	85.495	-0.139	-0.154
-590.952	91.416	-0.344	0.392
-589.938	-200.000	-0.005	0.045
-588.923	-51.559	-0.228	0.108
-587.909	400.571	0.145	-0.309
-586.894	470.702	0.059	-0.135
-585.879	-164.641	0.199	0.009
-584.865	-24.209	-0.243	0.147
-583.850	-200.000	0.022	-0.110
-582.836	-45.535	-0.373	-0.187
-581.821	542.158	-0.113	-0.272
-580.806	800.000	-0.003	-0.009
-579.792	-167.537	0.123	0.005
-578.777	51.858	-0.130	-0.125
-577.763	35.955	0.259	0.231
-576.748	-200.000	0.000	0.104
-575.733	121.184	0.068	0.086
-574.719	800.000	0.048	-0.162
-573.704	-17.574	0.138	0.088
-572.690	-172.773	-0.135	0.004
-571.675	-13.617	-0.316	-0.207
-570.661	161.438	-0.114	0.161
-569.646	81.869	0.096	0.105
-568.631	-200.000	-0.017	0.259
-567.617	286.098	0.072	0.131
-566.602	443.026	0.076	-0.169
-565.588	395.681	0.050	-0.106
-564.573	-187.564	-0.200	-0.003
-563.558	6.241	-0.022	0.017
-562.544	-200.000	0.024	0.116
-561.529	-108.803	0.494	0.107
-560.515	-200.000	0.061	0.312
-559.500	16.831	0.126	-0.101
-558.485	-48.230	0.413	-0.202
-557.471	-200.000	-0.021	0.185
-556.456	800.000	-0.059	0.174
-555.442	-61.142	-0.197	-0.084
-554.427	20.700	0.150	-0.123
-553.412	-58.764	0.330	0.144
-552.398	800.000	0.014	-0.056
-551.383	-57.747	0.201	0.089
-550.369	-200.000	-0.048	-0.353
-549.354	-43.593	-0.023	-0.012
-548.339	54.603	0.224	-0.218
-547.325	-50.230	-0.279	0.134
-546.310	-138.181	-0.182	0.020
-545.296	-45.506	-0.278	-0.139
-544.281	-200.000	-0.042	-0.198
-543.266	-200.000	0.044	-0.209
-542.252	-143.296	0.296	0.029
-541.237	-31.798	-0.295	-0.168
-540.223	-178.544	-0.350	-0.008
-539.208	-89.879	0.220	0.065
-538.193	-200.000	-0.005	-0.125
-537.179	-22.379	0.061	0.037
-536.164	21.776	-0.323	-0.266
-535.150	-140.109	-0.263	0.028
-534.135	-76.618	-0.443	-0.157
-533.121	0.548	-0.108	-0.078
-532.106	-84.456	-0.117	0.037
-531.091	-12.057	-0.167	-0.110
-530.077	696.863	-0.135	-0.359
-529.062	109.286	-0.066	0.080
-528.048	125.248	-0.109	-0.139
-527.033	114.524	0.194	0.239
-526.018	-69.783	-0.186	-0.072
-525.004	-119.049	-0.083	-0.015
-523.989	800.000	-0.110	0.353
-522.975	-18.609	0.302	0.191
-521.960	119.812	-0.162	-0.203
-520.945	367.312	-0.161	0.328
-519.931	107.651	-0.098	-0.118
-518.916	-181.667	-0.217	-0.004
-517.902	-9.571	0.068	0.046
-516.887	6.694	-0.228	0.171
-515.872	154.049	0.144	-0.200
-514.858	-39.301	0.122	-0.065
-513.843	-200.000	0.012	0.212
-512.829	125.243	0.088	-0.113
-511.814	-200.000	0.039	0.191
-510.799	-200.000	-0.016	0.190
-509.785	17.737	0.145	0.116
-508.770	27.942	0.347	0.295
-507.756	-200.000	0.018	-0.118
-506.741	-93.602	0.270	-0.075
-505.726	800.000	-0.112	-0.322
-504.712	-68.933	0.229	-0.089
-503.697	510.883	0.116	0.273
-502.683	-77.958	-0.398	-0.139
-501.668	800.000	-0.113	-0.372
-500.653	-137.651	0.425	-0.048
-499.639	60.414	-0.237	0.237
-498.624	-16.132	0.081	-0.052
-497.610	-200.000	-0.102	0.588
-496.595	-35.142	-0.374	0.206
-495.581	-102.131	0.248	-0.060
-494.566	173.276	-0.194	0.283
-493.551	184.642	0.172	-0.258
-492.537	68.980	-0.091	-0.094
-491.522	1.352	-0.045	0.032
-490.508	-41.096	0.286	-0.149
-489.493	236.068	-0.069	0.115
-488.478	706.283	-0.069	0.184
-487.464	282.918	-0.049	0.089
-486.449	-149.642	0.323	0.026
-485.435	34.512	0.206	-0.182
-484.420	799.366	-0.040	-0.111
-483.405	-121.662	0.092	-0.015
-482.391	175.312	-0.126	-0.185
-481.376	-200.000	0.015	0.140
-480.362	304.448	0.155	-0.289
-479.347	-98.132	-0.187	-0.049
-478.332	-116.437	0.273	0.051
-477.318	-116.513	-0.261	0.048
-476.303	19.166	0.292	-0.237
-475.289	-69.458	-0.250	-0.097
-474.274	-70.334	-0.040	0.015
-473.259	-66.902	0.283	0.113
-472.245	800.000	0.115	-0.346
-471.230	800.000	-0.027	-0.116
-470.216	-200.000	-0.031	-0.157
-469.201	528.432	0.065	0.155
-468.186	-200.000	-0.008	0.176
-467.172	476.722	0.214	0.487
-466.157	67.705	0.055	-0.057
-465.143	800.000	-0.063	-0.234
-464.128	421.865	-0.114	-0.247
-463.113	800.000	-0.080	-0.264
-462.099	39.747	-0.156	0.141
-461.084	-53.659	0.054	0.025
-460.070	800.000	-0.090	0.327
-459.055	59.313	-0.180	-0.179
-458.040	-120.781	0.183	0.031
-457.026	-43.464	0.283	-0.144
-456.011	282.655	-0.133	0.241
-454.997	266.328	-0.040	-0.070
-453.982	133.784	0.014	-0.019
-452.968	-17.587	0.186	0.118
-451.953	-150.262	0.127	-0.010
-450.938	-76.476	-0.078	0.028
-449.924	800.000	-0.062	-0.256
-448.909	173.158	-0.043	-0.063
-447.895	-76.616	0.197	-0.069
-446.880	267.644	-0.084	-0.147
-445.865	141.700	0.269	-0.360
-444.851	-200.000	0.014	-0.108
-443.836	-200.000	-0.010	0.317
-442.822	51.721	0.166	0.159
-441.807	-69.848	-0.048	0.018
-440.792	363.686	0.036	0.073
-439.778	185.760	-0.160	0.240
-438.763	-164.002	-0.213	-0.010
-437.749	-200.000	0.073	-0.000
-436.734	-106.003	-0.141	0.032
-435.719	150.250	0.177	-0.242
-434.705	-200.000	-0.050	-0.238
-433.690	-32.423	-0.230	-0.129
-432.676	-200.000	0.015	-0.210
-431.661	-200.000	0.018	-0.086
-430.646	-89.781	-0.080	-0.023
-429.632	-38.604	0.195	-0.104
-428.617	213.000	-0.157	0.250
-427.603	2.584	0.260	-0.190
-426.588	-25.266	0.191	0.114
-425.573	38.654	0.275	0.247
-424.559	224.057	-0.109	0.178
-423.544	-142.671	-0.091	0.009
-422.530	102.408	-0.084	0.099
-421.515	-200.000	-0.003	-0.092
-420.500	629.954	0.054	-0.137
-419.486	-200.000	0.006	-0.119
-418.471	348.205	0.044	-0.086
-417.457	-23.236	-0.151	-0.092
-416.442	-200.000	-0.019	0.160
-415.428	1.431	-0.094	-0.068
-414.413	238.659	-0.227	-0.380
-413.398	-31.787	0.084	-0.047
-412.384	-19.476	-0.240	0.150
-411.369	-200.000	-0.039	0.254
-410.355	-200.000	-0.026	-0.201
-409.340	800.000	-0.063	-0.206
-408.325	-200.000	0.026	-0.203
-407.311	-35.973	0.483	-0.263
-406.296	-50.294	-0.240	0.114
-405.282	-165.665	0.124	0.005
-404.267	123.437	-0.066	0.083
-403.252	-60.426	0.248	0.106
-402.238	35.129	-0.232	0.205
-401.223	-197.531	-0.131	-0.001
-400.209	-200.000	0.090	-0.411
-399.194	192.120	0.111	-0.169
-398.179	43.919	-0.264	0.243
-397.165	31.565	-0.122	0.106
-396.150	-29.367	0.141	0.081
-395.136	-43.372	-0.064	-0.033
-394.121	717.560	0.109	0.291
-393.106	-200.000	-0.021	0.410
-392.092	-120.626	0.184	0.031
-391.077	-173.480	-0.247	-0.007
-390.063	-129.480	0.401	-0.056
-389.048	-147.498	-0.605	-0.051
-388.033	31.018	-0.152	0.131
-387.019	28.340	0.159	0.135
-386.004	-65.525	0.329	-0.133
-384.990	-5.904	-0.063	-0.043
-383.975	409.822	0.085	-0.181
-382.960	-8.729	0.071	0.048
-381.946	-38.850	0.302	-0.160
-380.931	-120.552	-0.112	0.019
-379.917	-200.000	0.028	-0.222
-378.902	-200.000	-0.010	-0.091
-377.888	-55.220	0.257	-0.116
-376.873	394.742	-0.172	0.361
-375.858	44.519	0.412	-0.381
-374.844	-200.000	-0.033	-0.247
-373.829	-200.000	-0.008	0.326
-372.815	-29.030	0.263	-0.152
-371.800	163.479	0.070	-0.098
-370.785	800.000	0.083	-0.240
-369.771	800.000	-0.059	0.229
-368.756	-63.291	0.296	0.122
-367.742	761.582	-0.104	0.284
-366.727	72.637	-0.138	-0.145
-365.712	-41.865	-0.157	-0.081
-364.698	800.000	-0.069	0.239
-363.683	-54.386	0.171	0.078
-362.669	-200.000	0.028	-0.353
-361.654	-24.889	-0.255	-0.152
-360.639	-200.000	0.031	-0.193
-359.625	-59.616	-0.251	0.108
-358.610	327.892	0.034	0.066
-357.596	-100.754	0.209	-0.052
-356.581	-104.872	0.227	0.052
-355.566	-80.693	0.181	0.060
-354.552	-108.965	0.099	0.021
-353.537	31.089	-0.186	-0.160
-352.523	266.457	-0.033	0.058
-351.508	287.621	0.077	-0.140
-350.493	735.540	-0.052	-0.141
-349.479	-190.624	0.112	-0.001
-348.464	-105.764	0.326	-0.074
-347.450	-105.525	-0.265	0.060
-346.435	-52.644	0.237	0.110
-345.420	-35.737	-0.108	0.059
-344.406	-200.000	-0.017	0.124
-343.391	15.923	0.275	-0.217
-342.377	-200.000	0.079	-0.525
-341.362	489.478	-0.118	0.270
-340.348	-31.584	0.244	0.138
-339.333	-131.520	-0.262	0.035
-338.318	-200.000	-0.007	0.102
-337.304	-200.000	-0.017	0.099
-336.289	188.990	-0.084	0.126
-335.275	247.119	0.195	0.330
-334.260	495.462	-0.054	-0.124
-333.245	54.914	-0.247	-0.240
-332.231	800.000	-0.041	0.129
-331.216	800.000	-0.112	0.397
-330.202	-161.009	0.058	0.003
-329.187	387.957	0.010	0.021
-328.172	-47.938	-0.191	-0.093
-327.158	-72.872	0.074	0.027
-326.143	800.000	0.075	-0.252
-325.129	-68.158	0.086	0.033
-324.114	-56.990	-0.306	-0.136
-323.099	-97.303	0.209	-0.055
-322.085	-200.000	0.001	0.060
-321.070	135.718	-0.122	-0.159
-320.056	105.891	-0.016	-0.019
-319.041	-200.000	-0.006	-0.297
-318.026	321.897	-0.161	-0.308
-317.012	-200.000	-0.024	-0.209
-315.997	800.000	0.067	0.233
-314.983	47.970	-0.239	0.223
-313.968	66.329	0.172	-0.176
-312.953	-59.062	0.297	-0.128
-311.939	-200.000	-0.095	-0.461
-310.924	-133.855	0.097	-0.012
-309.910	744.104	0.046	-0.125
-308.895	38.374	-0.082	-0.074
-307.880	11.472	-0.191	0.147
-306.866	211.476	-0.198	-0.313
-305.851	-126.239	0.304	-0.046
-304.837	-5.381	0.305	0.210
-303.822	-200.000	-0.000	-0.007
-302.807	24.905	-0.183	0.152
-301.793	557.055	0.073	0.177
-300.778	-57.081	-0.183	0.081
-299.764	524.800	0.023	0.054
-298.749	-134.193	0.190	0.023
-297.735	-54.637	0.136	0.062
-296.720	-55.285	0.169	0.076
-295.705	527.533	-0.021	-0.049
-294.691	-200.000	0.006	-0.088
-293.676	60.020	-0.336	-0.333
-292.662	-139.439	0.112	0.012
-291.647	708.835	-0.155	-0.411
-290.632	-167.373	0.301	0.012
-289.618	-98.823	0.532	0.135
-288.603	-64.525	0.524	0.213
-287.589	21.741	-0.184	0.150
-286.574	800.000	0.061	-0.198
-285.559	-172.989	-0.204	0.006
-284.545	-45.975	0.168	-0.083
-283.530	800.000	-0.115	0.334
-282.516	-126.065	0.374	0.056
-281.501	31.048	-0.208	0.178
-280.486	-69.264	-0.080	0.031
-279.472	800.000	0.070	-0.198
-278.457	800.000	0.097	-0.309
-277.443	-36.087	0.174	-0.094
-276.428	129.610	-0.076	0.097
-275.413	157.765	-0.102	0.141
-274.399	81.473	-0.127	-0.138
-273.384	-38.823	0.093	-0.049
-272.370	449.318	0.129	0.285
-271.355	-200.000	-0.026	0.271
-270.340	-143.561	0.140	-0.013
-269.326	-52.766	0.312	0.144
-268.311	-123.463	0.283	0.045
-267.297	305.834	-0.100	0.186
-266.282	-51.138	-0.227	0.107
-265.267	-200.000	-0.057	0.254
-264.253	46.629	0.111	-0.103
-263.238	-200.000	0.021	0.170
-262.224	800.000	-0.065	0.246
-261.209	22.382	0.123	0.101
-260.195	393.542	-0.091	0.190
-259.180	-160.268	0.089	0.005
-258.165	-200.000	-0.003	0.337
-257.151	-11.168	-0.163	-0.107
-256.136	-97.796	-0.332	0.086
-255.122	183.856	-0.226	-0.335
-254.107	-200.000	0.024	-0.207
-253.092	-200.000	-0.212	-0.001
-252.078	-37.897	-0.026	0.014
-251.063	108.429	0.309	0.369
-250.049	-27.603	-0.119	0.069
-249.034	-200.000	0.004	0.322
-248.019	-200.000	0.031	0.149
-247.005	-200.000	-0.028	0.248
-245.990	-200.000	-0.024	0.176
-244.976	-200.000	-0.034	0.233
-243.961	-48.180	-0.111	0.053
-242.946	800.000	0.054	-0.218
-241.932	800.000	-0.108	0.372
-240.917	-147.373	-0.109	-0.009
-239.903	-164.947	-0.216	-0.010
-238.888	144.839	-0.130	0.173
-237.873	-165.878	0.319	-0.014
-236.859	800.000	-0.059	-0.196
-235.844	-63.775	-0.098	0.040
-234.830	145.011	-0.127	0.170
-233.815	-63.626	0.209	0.086
-232.800	-34.617	-0.156	-0.085
-231.786	-200.000	-0.011	0.102
-230.771	-200.000	-0.003	-0.370
-229.757	-80.254	0.172	0.058
-228.742	376.932	-0.098	0.201
-227.727	316.745	0.132	0.249
-226.713	-54.094	-0.300	0.137
-225.698	800.000	-0.074	-0.317
-224.684	132.946	0.092	0.119
-223.669	47.661	0.422	0.393
-222.655	800.000	0.057	-0.178
-221.640	-111.575	0.207	-0.042
-220.625	274.955	0.109	0.194
-219.611	395.395	-0.133	0.277
-218.596	-200.000	0.051	0.232
-217.582	800.000	0.171	-0.653
-216.567	547.273	-0.038	-0.090
-215.552	301.009	-0.024	-0.044
-214.538	-54.186	0.122	-0.055
-213.523	-67.941	0.264	-0.103
-212.509	103.948	0.135	0.159
-211.494	-200.000	-0.026	-0.129
-210.479	800.000	0.071	0.214
-209.465	-11.165	0.135	-0.089
-208.450	32.599	-0.121	-0.104
-207.436	-200.000	-0.063	-0.279
-206.421	800.000	0.068	0.194
-205.406	-84.442	0.278	0.088
-204.392	-200.000	0.001	-0.177
-203.377	543.731	0.116	0.276
-202.363	-200.000	-0.007	-0.037
-201.348	-200.000	-0.035	-0.229
-200.333	-53.674	-0.386	0.176
-199.319	-200.000	0.007	-0.223
-198.304	-16.486	-0.160	0.101
-197.290	-133.534	-0.172	-0.022
-196.275	-200.000	-0.018	0.142
-195.260	800.000	-0.059	-0.200
-194.246	-200.000	-0.002	-0.171
-193.231	0.478	-0.159	-0.114
-192.217	-38.706	-0.115	-0.061
-191.202	800.000	-0.090	0.376
-190.187	-9.873	-0.329	-0.218
-189.173	-39.339	-0.107	-0.056
-188.158	34.243	0.067	-0.058
-187.144	2.472	-0.096	-0.070
-186.129	164.856	-0.192	0.271
-185.114	-200.000	-0.034	0.336
-184.100	352.461	0.025	0.050
-183.085	-171.471	-0.095	-0.003
-182.071	463.355	0.074	-0.166
-181.056	20.340	0.138	-0.111
-180.042	-56.290	-0.208	0.092
-179.027	800.000	0.081	0.268
-178.012	123.668	0.293	0.367
-176.998	32.873	0.083	-0.071
-175.983	-200.000	0.005	-0.115
-174.969	14.716	0.174	0.135
-173.954	-181.403	-0.133	0.003
-172.939	-136.550	0.617	0.071
-171.925	-200.000	-0.009	-0.323
-170.910	-200.000	0.031	0.348
-169.896	-200.000	-0.015	0.168
-168.881	53.664	-0.211	-0.202
-167.866	166.734	0.292	0.413
-166.852	10.854	0.096	-0.073
-165.837	-78.512	0.166	-0.057
-164.823	-61.200	0.261	-0.110
-163.808	-200.000	0.001	-0.029
-162.793	-162.494	-0.106	-0.005
-161.779	-105.674	0.078	0.018
-160.764	-102.284	-0.101	0.024
-159.750	800.000	-0.081	-0.314
-158.735	-118.010	-0.236	0.042
-157.720	-200.000	-0.016	-0.168
-156.706	-9.826	-0.138	-0.092
-155.691	-87.349	-0.390	-0.118
-154.677	-102.317	-0.062	0.015
-153.662	-185.635	-0.232	-0.003
-152.647	224.007	-0.064	-0.102
-151.633	14.305	-0.195	0.152
-150.618	79.129	-0.122	0.130
-149.604	-19.758	-0.070	-0.043
-148.589	-4.804	-0.156	0.107
-147.574	800.000	0.037	0.124
-146.560	61.719	0.149	0.148
-145.545	-200.000	-0.004	0.059
-144.531	37.999	0.105	-0.093
-143.516	46.489	0.081	-0.075
-142.502	167.400	0.127	-0.180
-141.487	42.574	0.390	0.353
-140.472	-128.747	-0.205	0.029
-139.458	-26.140	0.158	0.093
-138.443	-200.000	0.001	-0.035
-137.429	26.852	-0.076	-0.064
-136.414	-130.272	0.134	0.018
-135.399	-12.153	0.183	-0.119
-134.385	242.932	-0.258	-0.431
-133.370	16.559	-0.066	-0.052
-132.356	-38.186	0.134	-0.070
-131.341	-68.226	-0.330	0.128
-130.326	-43.631	0.192	-0.097
-129.312	232.232	-0.144	0.235
-128.297	111.751	0.202	-0.242
-127.283	6.290	0.053	-0.039
-126.268	-200.000	-0.023	0.136
-125.253	-53.118	0.303	-0.139
-124.239	-200.000	-0.000	0.058
-123.224	-48.793	0.073	-0.035
-122.210	800.000	0.037	0.123
-121.195	800.000	0.019	0.060
-120.180	-27.883	-0.124	0.072
-119.166	-103.576	-0.219	0.051
-118.151	249.116	-0.069	0.116
-117.137	40.009	0.291	0.260
-116.122	800.000	0.039	0.123
-115.107	-200.000	-0.004	-0.075
-114.093	161.685	0.215	-0.299
-113.078	-198.953	-0.123	-0.001
-112.064	-180.846	-0.229	-0.005
-111.049	500.495	0.085	-0.195
-110.034	794.888	-0.085	-0.234
-109.020	99.502	-0.015	-0.017
-108.005	278.460	0.083	0.148
-106.991	47.423	-0.171	0.158
-105.976	657.568	0.182	0.464
-104.962	-40.837	-0.270	0.139
-103.947	-165.770	0.204	0.009
-102.932	-85.576	-0.479	0.148
-101.918	-5.077	-0.226	-0.155
-100.903	-103.187	-0.309	-0.073
-99.889	-144.884	-0.326	0.030
-98.874	182.729	0.137	-0.201
-97.859	-200.000	0.059	0.265
-96.845	52.913	0.150	-0.142
-95.830	-139.450	-0.071	-0.008
-94.816	-162.172	-0.153	-0.008
-93.801	-200.000	-0.037	-0.190
-92.786	-88.067	0.038	-0.011
-91.772	-200.000	-0.029	-0.164
-90.757	-200.000	-0.020	-0.124
-89.743	-200.000	0.024	-0.129
-88.728	236.273	-0.061	-0.101
-87.713	69.592	0.047	0.048
-86.699	-115.024	0.279	-0.053
-85.684	-111.509	-0.143	-0.029
-84.670	3.354	0.098	-0.071
-83.655	-56.175	-0.100	0.044
-82.640	693.420	0.070	0.182
-81.626	241.380	0.115	-0.191
-80.611	-200.000	-0.064	-0.468
-79.597	-66.301	0.383	0.152
-78.582	-200.000	0.052	0.386
-77.567	113.249	-0.135	0.163
-76.553	-79.413	-0.256	0.086
-75.538	114.148	-0.237	-0.286
-74.524	165.345	-0.143	-0.201
-73.509	785.208	-0.017	0.047
-72.494	-69.859	0.244	0.093
-71.480	13.128	0.060	-0.046
-70.465	-33.478	-0.133	0.073
-69.451	-112.794	0.194	0.038
-68.436	134.681	-0.151	0.194
-67.422	800.000	0.075	0.255
-66.407	800.000	0.075	-0.279
-65.392	193.430	0.054	-0.081
-64.378	284.912	0.047	0.084
-63.363	-200.000	0.054	-0.339
-62.349	130.798	-0.015	-0.018
-61.334	54.119	-0.828	-0.791
-60.319	595.391	0.179	0.441
-59.305	800.000	-0.362	-1.099
-58.290	170.239	0.547	0.777
-57.276	229.813	0.839	1.360
-56.261	-200.000	91.852	537.398
-55.246	511.384	1380.061	3187.889
-54.232	149.346	2594.222	3485.064
-53.217	111.440	2215.819	2651.217
-52.203	45.467	1746.061	1599.292
-51.188	38.415	1554.608	1374.553
-50.173	35.914	1526.588	1332.441
-49.159	53.175	1575.036	1496.524
-48.144	56.874	1594.645	1541.140
-47.130	38.873	1550.916	1374.285
-46.115	35.671	1535.373	1338.206
-45.100	35.396	1532.841	1334.038
-44.086	35.445	1530.610	1332.384
-43.071	35.355	1528.715	1330.053
-42.057	35.244	1527.693	1328.343
-41.042	35.296	1525.942	1327.124
-40.027	35.270	1524.484	1325.630
-39.013	35.268	1523.278	1324.513
-37.998	35.320	1521.474	1323.251
-36.984	35.360	1520.039	1322.224
-35.969	35.324	1518.941	1320.967
-34.954	35.277	1517.766	1319.571
-33.940	35.249	1515.839	1317.654
-32.925	35.266	1514.790	1316.804
-31.911	35.336	1513.255	1315.894
-30.896	35.362	1511.911	1314.856
-29.881	35.308	1511.146	1313.766
-28.867	35.416	1509.331	1312.874
-27.852	35.422	1507.648	1311.404
-26.838	35.328	1506.419	1309.639
-25.823	35.367	1504.565	1308.241
-24.809	35.364	1503.165	1306.953
-23.794	35.373	1501.788	1305.764
-22.779	35.350	1500.668	1304.580
-21.765	35.403	1499.632	1303.989
-20.750	35.432	1498.463	1303.116
-19.736	35.335	1497.679	1301.724
-18.721	35.390	1496.191	1300.753
-17.706	35.337	1495.160	1299.444
-16.692	35.316	1494.385	1298.580
-15.677	35.300	1492.976	1297.196
-14.663	35.250	1492.524	1296.410
-13.648	35.351	1490.941	1295.665
-12.633	35.274	1489.728	1294.045
-11.619	35.172	1489.404	1293.019
-10.604	35.225	1488.631	1292.660
-9.590	35.263	1487.265	1291.673
-8.575	35.286	1486.564	1291.173
-7.560	35.203	1486.053	1290.114
-6.546	35.312	1484.707	1289.629
-5.531	35.320	1483.853	1288.894
-4.517	35.209	1483.198	1287.523
-3.502	35.263	1481.941	1286.748
-2.487	35.309	1481.012	1286.198
-1.473	35.286	1479.849	1284.980
-0.458	35.205	1478.436	1283.164
0.556	35.444	1469.732	1275.093
1.571	33.172	1443.833	1237.660
2.586	30.138	1383.323	1166.627
3.600	28.564	1300.227	1087.132
4.615	26.966	1252.178	1037.737
5.629	22.244	1193.015	962.830
6.644	11.341	1103.372	834.886
7.659	3.249	1058.794	761.207
8.673	2.054	1053.516	751.464
9.688	1.847	1050.245	748.049
10.702	1.626	1048.293	745.509
11.717	1.643	1046.635	744.347
12.731	4.783	1050.330	762.304
13.746	15.228	1065.389	824.814
14.761	23.255	1076.158	872.817
15.775	25.071	1077.258	882.582
16.790	25.114	1077.120	882.603
17.804	25.027	1076.168	881.315
18.819	24.819	1075.337	879.539
19.834	24.974	1074.324	879.389
20.848	25.083	1074.221	879.761
21.863	25.317	1073.847	880.526
22.877	25.217	1073.535	879.703
23.892	25.148	1073.011	878.858
24.907	25.083	1071.862	877.519
25.921	25.184	1070.999	877.230
26.936	25.208	1070.505	876.868
27.950	25.179	1069.178	875.562
28.965	25.114	1068.494	874.603
29.980	24.869	1066.599	871.783
30.994	24.897	1065.338	870.810
32.009	25.003	1065.261	871.189
33.023	25.223	1064.257	871.360
34.038	24.984	1062.817	868.941
35.053	25.036	1061.963	868.417
36.067	24.953	1062.072	868.029
37.082	25.109	1060.931	867.777
38.096	25.132	1060.268	867.268
39.111	25.242	1059.388	867.004
40.126	25.406	1058.509	866.998
41.140	25.279	1057.488	865.473
42.155	25.105	1055.827	863.200
43.169	24.776	1054.545	860.491
44.184	24.734	1053.620	859.461
45.199	24.803	1052.304	858.644
46.213	24.641	1052.075	857.602
47.228	24.663	1050.961	856.721
48.242	24.824	1050.098	856.715
49.257	24.845	1049.759	856.460
50.271	24.996	1048.570	856.137
51.286	25.193	1047.911	856.465
52.301	25.123	1047.499	855.716
53.315	25.209	1046.602	855.318
54.330	25.155	1045.814	854.342
55.344	25.118	1044.729	853.208
56.359	25.017	1043.857	851.938
57.374	25.115	1043.005	851.631
58.388	24.897	1042.272	849.923
59.403	24.881	1041.441	849.097
60.417	24.912	1041.181	848.953
61.432	24.758	1039.949	847.146
62.447	24.632	1039.351	845.985
63.461	24.928	1038.171	846.354
64.476	24.904	1037.744	845.814
65.490	24.833	1037.092	844.875
66.505	24.780	1035.859	843.545
67.520	24.576	1035.843	842.496
68.534	24.883	1034.900	843.100
69.549	24.688	1033.686	841.119
70.563	24.459	1032.619	839.099
71.578	24.330	1031.534	837.538
72.593	24.455	1030.925	837.556
73.607	24.307	1029.849	835.913
74.622	24.139	1029.367	834.659
75.636	24.445	1028.572	835.375
76.651	24.618	1027.719	835.416
77.666	24.562	1027.086	834.569
78.680	24.488	1026.001	833.268
79.695	24.502	1025.476	832.830
80.709	24.632	1024.791	832.807
81.724	24.706	1024.224	832.616
82.739	24.501	1023.771	831.220
83.753	24.667	1022.201	830.644
84.768	24.881	1021.894	831.318
85.782	25.188	1021.481	832.329
86.797	25.371	1020.589	832.379
87.812	25.565	1019.252	832.113
88.826	25.163	1019.022	829.992
89.841	25.129	1018.231	829.114
90.855	25.308	1017.626	829.379
91.870	25.212	1017.148	828.469
92.884	25.440	1015.730	828.294
93.899	25.239	1015.220	826.880
94.914	25.043	1013.986	824.898
95.928	25.150	1013.278	824.740
96.943	25.256	1012.644	824.640
97.957	24.925	1011.206	821.877
98.972	24.710	1010.275	820.060
99.987	24.568	1009.134	818.413
101.001	24.604	1008.735	818.180
102.016	25.060	1007.799	819.435
103.030	25.118	1006.997	818.977
104.045	24.954	1006.055	817.387
105.060	24.843	1004.495	815.542
106.074	24.739	1003.442	814.144
107.089	24.694	1002.856	813.390
108.103	24.898	1002.891	814.272
109.118	25.103	1001.779	814.232
110.133	24.844	1000.654	812.070
111.147	24.762	999.657	810.818
112.162	24.731	998.244	809.457
113.176	24.368	997.764	807.353
114.191	24.485	997.066	807.250
115.206	24.657	996.218	807.267
116.220	24.435	994.589	804.873
117.235	24.132	994.233	803.150
118.249	24.388	993.435	803.585
119.264	24.405	992.759	803.047
120.279	24.323	991.790	801.822
121.293	24.384	990.912	801.314
122.308	24.492	990.053	801.033
123.322	24.533	989.385	800.605
124.337	24.456	988.300	799.310
125.352	24.383	986.971	797.841
126.366	23.864	985.765	794.477
127.381	23.620	984.285	792.124
128.395	24.076	984.132	793.966
129.410	24.650	984.374	796.649
130.424	24.917	983.152	796.778
131.439	24.799	982.393	795.570
132.454	24.869	981.061	794.728
133.468	24.879	980.555	794.295
134.483	24.892	979.258	793.233
135.497	24.926	978.939	793.053
136.512	25.106	978.211	793.191
137.527	25.217	977.398	792.951
138.541	25.222	976.702	792.340
139.556	25.218	976.073	791.739
140.570	25.105	975.338	790.577
141.585	25.133	974.631	790.055
142.600	25.343	973.689	790.146
143.614	25.236	972.844	788.921
144.629	25.291	972.166	788.542
145.643	25.393	971.843	788.660
146.658	25.271	970.954	787.331
147.673	25.135	969.181	785.227
148.687	25.119	967.781	783.958
149.702	25.017	967.291	783.043
150.716	24.971	965.906	781.651
151.731	24.877	965.043	780.475
152.746	24.887	964.318	779.863
153.760	25.182	963.662	780.548
154.775	25.390	962.934	780.793
155.789	25.292	962.223	779.723
156.804	25.357	961.163	779.078
157.819	25.262	960.137	777.765
158.833	25.293	959.360	777.201
159.848	25.424	958.823	777.265
160.862	25.479	958.211	776.934
161.877	25.294	957.457	775.456
162.892	25.387	955.846	774.485
163.906	25.442	955.510	774.381
164.921	25.249	954.594	772.739
165.935	25.166	953.478	771.409
166.950	25.259	952.349	770.827
167.964	25.357	951.728	770.679
168.979	25.340	950.587	769.612
169.994	25.149	949.425	767.786
171.008	25.070	948.620	766.730
172.023	25.144	947.960	766.444
173.037	25.428	946.923	766.752
174.052	25.265	946.101	765.322
175.067	24.990	945.022	763.211
176.081	24.901	944.612	762.432
177.096	25.000	943.589	761.962
178.110	25.046	942.825	761.473
179.125	24.770	942.055	759.610
180.140	24.573	940.621	757.553
181.154	24.654	940.005	757.333
182.169	24.634	939.990	757.167
183.183	24.920	939.400	757.839
184.198	25.337	938.718	758.980
185.213	25.232	938.084	757.961
186.227	25.208	937.552	757.360
187.242	25.097	937.361	756.671
188.256	25.288	936.422	756.653
189.271	25.286	935.527	755.854
190.286	25.224	935.464	755.474
191.300	25.134	934.261	754.058
192.315	24.677	932.611	750.740
193.329	23.961	930.481	745.956
194.344	23.398	929.742	742.941
195.359	24.150	929.660	745.958
196.373	24.894	930.301	749.524
197.388	25.195	930.458	750.845
198.402	25.110	929.568	749.704
199.417	24.973	929.458	748.974
200.432	25.140	928.598	748.916
201.446	25.078	927.834	747.972
202.461	24.808	926.806	745.954
203.475	24.848	926.392	745.719
204.490	24.579	924.598	743.090
205.504	23.251	922.790	736.055
206.519	23.678	922.573	737.591
207.534	24.704	922.946	742.084
208.548	24.641	923.022	741.822
209.563	25.033	922.703	743.122
210.577	25.222	921.614	742.962
211.592	24.779	920.751	740.371
212.607	25.178	920.846	742.031
213.621	25.418	920.341	742.551
214.636	25.380	919.706	741.815
215.650	25.283	919.157	740.907
216.665	25.294	918.388	740.268
217.680	25.273	918.097	739.878
218.694	25.488	917.332	740.085
219.709	25.123	916.673	737.985
220.723	24.761	915.458	735.452
221.738	24.925	915.094	735.771
222.753	25.005	914.903	735.878
223.767	25.124	913.971	735.552
224.782	25.162	913.322	735.122
225.796	25.342	912.416	735.061
226.811	25.393	912.303	735.115
227.826	24.981	911.189	732.468
228.840	24.340	909.236	728.218
229.855	24.180	908.463	726.881
230.869	24.415	908.368	727.701
231.884	24.192	907.531	726.055
232.899	24.075	906.885	724.999
233.913	24.760	907.183	727.960
234.928	25.075	906.843	728.906
235.942	24.933	906.166	727.720
236.957	25.071	905.132	727.386
237.972	24.690	904.422	725.207
238.986	24.485	904.143	724.085
240.001	24.780	902.757	724.105
241.015	24.745	902.315	723.547
242.030	24.777	901.958	723.325
243.045	24.999	901.524	723.811
244.059	24.951	901.177	723.273
245.074	25.257	900.866	724.197
246.088	25.266	899.661	723.198
247.103	24.823	899.050	720.860
248.117	24.746	898.456	720.010
249.132	25.312	898.793	722.497
250.147	25.753	898.184	723.716
251.161	25.911	897.604	723.818
252.176	25.974	897.477	723.905
253.190	25.988	896.459	723.075
254.205	25.991	896.230	722.839
255.220	26.330	895.696	723.702
256.234	26.255	894.892	722.686
257.249	26.184	894.146	721.738
258.263	25.896	893.949	720.363
259.278	25.999	893.002	719.949
260.293	25.987	892.585	719.501
261.307	26.139	891.998	719.568
262.322	26.076	891.384	718.759
263.336	25.925	890.675	717.522
264.351	25.501	889.200	714.588
265.366	24.390	887.614	708.837
266.380	23.993	886.456	706.275
267.395	24.781	886.823	709.630
268.409	25.546	887.012	712.755
269.424	25.449	886.567	711.949
270.439	25.741	885.919	712.521
271.453	25.825	885.332	712.318
272.468	25.834	884.682	711.770
273.482	25.977	884.379	712.025
274.497	26.154	883.875	712.255
275.512	25.822	883.142	710.292
276.526	25.462	881.432	707.438
277.541	25.504	881.085	707.263
278.555	25.872	881.088	708.649
279.570	25.720	880.469	707.489
280.585	25.607	879.534	706.235
281.599	25.662	879.162	706.090
282.614	25.842	878.619	706.296
283.628	25.331	877.502	703.335
284.643	24.909	876.907	701.144
285.657	25.369	876.660	702.684
286.672	25.201	875.872	701.332
287.687	24.887	874.887	699.254
288.701	25.005	875.187	699.896
289.716	25.513	874.688	701.416
290.730	25.113	873.913	699.173
291.745	25.027	872.958	698.012
292.760	24.889	871.713	696.420
293.774	24.755	871.423	695.606
294.789	25.566	872.519	699.575
295.803	26.245	872.507	702.142
296.818	26.361	871.721	701.899
297.833	26.459	871.124	701.738
298.847	26.279	870.013	700.081
299.862	25.846	868.989	697.520
300.876	26.000	868.504	697.663
301.891	26.395	868.163	698.854
302.906	26.456	867.920	698.832
303.920	26.090	866.689	696.369
304.935	25.934	865.834	695.020
305.949	26.364	865.791	696.581
306.964	26.489	865.522	696.782
307.979	26.074	864.818	694.556
308.993	26.069	864.374	694.119
310.008	26.371	864.041	694.954
311.022	26.553	863.729	695.340
312.037	26.425	862.779	694.020
313.052	26.152	862.349	692.567
314.066	26.059	861.235	691.256
315.081	25.369	859.783	687.390
316.095	24.534	858.660	683.235
317.110	25.058	859.209	685.617
318.125	25.988	859.633	689.454
319.139	25.644	858.002	686.771
320.154	24.486	856.396	681.012
321.168	24.028	855.442	678.446
322.183	24.551	855.617	680.519
323.197	25.456	856.389	684.522
324.212	25.802	855.654	685.191
325.227	26.040	855.311	685.759
326.241	26.032	855.005	685.423
327.256	26.121	854.259	685.102
328.270	26.139	853.637	684.611
329.285	25.871	853.203	683.186
330.300	25.815	852.231	682.138
331.314	25.570	851.458	680.529
332.329	25.604	850.969	680.206
333.343	26.077	850.636	681.669
334.358	26.258	850.355	682.066
335.373	26.338	849.472	681.600
336.387	26.305	849.309	681.282
337.402	26.552	848.950	681.867
338.416	26.754	848.382	682.111
339.431	26.704	847.802	681.394
340.446	26.631	847.357	680.705
341.460	26.879	847.239	681.479
342.475	26.762	846.439	680.335
343.489	26.616	845.550	679.013
344.504	26.558	845.087	678.365
345.519	26.864	845.124	679.482
346.533	27.020	844.766	679.719
347.548	27.047	844.339	679.414
348.562	27.145	843.672	679.185
349.577	27.096	842.931	678.347
350.592	27.002	841.986	677.174
351.606	26.839	841.710	676.285
352.621	26.892	841.469	676.228
353.635	26.929	840.757	675.734
354.650	26.780	840.172	674.650
355.665	26.543	839.113	672.859
356.679	25.360	837.585	667.181
357.694	25.256	837.490	666.658
358.708	26.089	837.236	669.490
359.723	25.898	836.879	668.439
360.738	26.075	836.412	668.662
361.752	26.647	836.193	670.544
362.767	26.711	835.672	670.304
363.781	27.013	835.575	671.286
364.796	27.171	835.679	671.893
365.810	27.349	835.228	672.128
366.825	27.423	834.937	672.110
367.840	27.415	834.534	671.695
368.854	27.337	833.799	670.756
369.869	27.011	832.741	668.647
370.883	26.625	832.292	666.804
371.898	26.727	831.614	666.577
372.913	26.693	831.243	666.098
373.927	26.710	830.336	665.374
374.942	26.660	830.045	664.897
375.956	26.904	829.454	665.260
376.971	27.093	828.749	665.329
377.986	27.212	828.205	665.269
379.000	27.344	827.927	665.468
380.015	27.457	827.175	665.219
381.029	27.191	826.767	663.859
382.044	27.106	826.156	663.000
383.059	27.318	825.761	663.397
384.073	27.186	825.289	662.480
385.088	27.395	824.581	662.614
386.102	27.408	823.853	662.017
387.117	27.076	823.200	660.227
388.132	26.882	823.051	659.345
389.146	26.931	821.901	658.541
390.161	26.219	821.151	655.302
391.175	26.284	821.255	655.560
392.190	26.978	821.053	657.858
393.205	26.959	820.599	657.366
394.219	26.131	818.552	652.679
395.234	24.349	816.589	644.621
396.248	23.561	815.461	640.829
397.263	24.450	816.282	644.628
398.278	26.469	817.750	653.026
399.292	26.993	817.514	654.671
400.307	26.658	816.647	652.710
401.321	26.466	816.546	651.883
402.336	26.526	816.190	651.756
403.350	26.834	816.367	652.947
404.365	27.379	815.689	654.310
405.380	27.703	815.742	655.458
406.394	28.036	815.369	656.297
407.409	28.072	815.142	656.184
408.423	28.003	814.669	655.497
409.438	27.853	813.960	654.331
410.453	27.975	813.511	654.350
411.467	28.072	813.359	654.517
412.482	28.032	812.439	653.575
413.496	27.935	812.107	652.903
414.511	28.047	811.676	652.899
415.526	28.081	811.370	652.716
416.540	28.124	810.815	652.365
417.555	28.015	810.444	651.621
418.569	27.799	809.459	650.003
419.584	27.627	808.922	648.902
420.599	27.777	808.475	649.019
421.613	104.475	1280.768	1437.061
422.628	90.056	1349.576	1437.169
