DTS Sentinel unit serial number:	SN413079Multiplexer serial number:	ORYXHardware model number:	OX4-SRSoftware version number:	ORYX F/W v4.00 Oryx Data Collector v3.7.2.0data status	okinstallation	princeton_trtdifferential loss correction	single-endedforward channel	channel 3reverse channel	N/Adate	2019/09/19time	10:12:35forward acquisition time	60.00reverse acquisition time	0.00gamma	496.2192k internal	0.2343k external	0.2343temperature offset calibration	0.9977default loss term (dB/km)	0.3790temperature slope calibration	1.0000multiplexer offset coefficient	1.0000multiplexer slope coefficient	1.0000fibre end	0.00T internal ref (°C)	24.02T ext. ref 1 (°C)	0.69T ext. ref 2 (°C)	19.85length (m)	temperature (°C)	Stokes	anti-Stokes-747.200	5.612	0.098	-0.073
-746.185	-200.000	0.008	0.081
-745.171	163.554	-0.157	0.221
-744.156	800.000	-0.054	0.154
-743.142	-35.363	0.284	0.155
-742.127	160.171	-0.284	0.397
-741.112	-200.000	-0.063	0.330
-740.098	800.000	-0.028	0.086
-739.083	800.000	0.089	0.322
-738.069	-200.000	0.029	0.290
-737.054	105.382	0.122	0.144
-736.039	-79.598	-0.144	0.049
-735.025	-200.000	0.023	0.268
-734.010	489.511	0.094	-0.216
-732.996	-60.647	-0.264	-0.112
-731.981	-200.000	-0.014	-0.065
-730.966	85.706	-0.267	-0.293
-729.952	-72.895	-0.197	-0.073
-728.937	279.244	0.150	-0.268
-727.923	222.265	0.268	0.432
-726.908	410.865	0.182	-0.386
-725.894	-137.933	0.078	0.009
-724.879	452.435	0.094	0.208
-723.864	21.489	0.177	0.144
-722.850	380.598	0.048	-0.099
-721.835	354.049	-0.116	0.230
-720.821	-69.828	0.072	-0.027
-719.806	-74.244	-0.199	-0.072
-718.791	-2.093	0.197	0.138
-717.777	178.502	0.204	0.298
-716.762	-50.681	-0.092	0.043
-715.748	-38.520	0.036	0.019
-714.733	-79.225	0.214	-0.073
-713.718	-105.623	0.165	0.037
-712.704	606.449	-0.072	0.179
-711.689	51.170	0.110	0.104
-710.675	-29.126	0.257	-0.148
-709.660	-200.000	0.026	0.164
-708.645	-35.489	0.214	-0.116
-707.631	19.629	0.221	0.178
-706.616	1.182	-0.160	0.115
-705.602	-19.140	0.224	0.139
-704.587	-105.339	0.295	-0.067
-703.572	362.133	-0.024	-0.049
-702.558	-26.347	0.081	-0.047
-701.543	800.000	-0.049	0.159
-700.529	17.945	-0.162	-0.129
-699.514	35.770	0.170	-0.149
-698.499	421.935	-0.151	0.323
-697.485	232.457	0.081	-0.133
-696.470	80.278	-0.053	-0.057
-695.456	25.750	0.075	-0.063
-694.441	103.443	-0.283	0.331
-693.426	-55.441	-0.049	-0.022
-692.412	20.160	-0.204	-0.164
-691.397	33.314	0.206	-0.179
-690.383	-106.116	0.223	0.050
-689.368	-71.398	0.266	-0.100
-688.354	800.000	-0.020	0.087
-687.339	77.164	0.086	0.092
-686.324	-74.889	0.106	0.038
-685.310	496.863	-0.035	0.081
-684.295	-200.000	0.057	-0.558
-683.281	-200.000	0.020	0.158
-682.266	-17.877	0.310	-0.194
-681.251	-44.978	-0.058	0.029
-680.237	-3.989	-0.153	-0.106
-679.222	-157.258	0.309	-0.019
-678.208	800.000	0.077	0.228
-677.193	-118.866	-0.297	0.052
-676.178	-32.460	-0.029	-0.016
-675.164	297.133	0.176	0.322
-674.149	-135.064	0.231	-0.028
-673.135	-200.000	0.000	0.096
-672.120	-200.000	-0.001	0.277
-671.105	-112.021	0.109	-0.022
-670.091	177.168	-0.049	0.071
-669.076	-2.919	-0.058	0.040
-668.062	5.710	-0.390	-0.288
-667.047	-166.116	0.238	-0.010
-666.032	222.721	0.075	-0.121
-665.018	-87.409	0.101	-0.030
-664.003	-200.000	0.017	0.134
-662.989	-46.211	-0.050	-0.025
-661.974	-80.296	0.312	-0.104
-660.959	800.000	0.062	-0.174
-659.945	-26.099	0.214	-0.125
-658.930	-77.991	0.214	0.074
-657.916	445.766	0.040	-0.088
-656.901	-97.519	-0.242	-0.063
-655.886	-110.384	0.347	-0.072
-654.872	-108.298	0.048	-0.010
-653.857	73.095	0.286	-0.298
-652.843	-44.446	-0.317	0.158
-651.828	-124.382	0.127	-0.020
-650.814	-71.551	-0.172	0.064
-649.799	185.101	0.095	-0.141
-648.784	-36.254	-0.189	-0.102
-647.770	591.531	0.171	0.420
-646.755	-200.000	-0.065	-0.411
-645.741	0.469	0.087	0.062
-644.726	287.109	0.132	-0.238
-643.711	-31.687	0.179	-0.100
-642.697	-48.370	-0.156	-0.075
-641.682	-146.269	-0.197	-0.017
-640.668	800.000	0.089	0.283
-639.653	-126.645	0.280	0.041
-638.638	-85.996	-0.185	-0.057
-637.624	-200.000	-0.024	-0.286
-636.609	800.000	-0.048	0.148
-635.595	388.821	0.137	0.282
-634.580	167.380	0.121	0.172
-633.565	-100.180	0.574	-0.142
-632.551	127.310	0.064	-0.081
-631.536	-67.193	0.107	0.042
-630.522	62.223	0.137	-0.136
-629.507	-200.000	-0.002	0.015
-628.492	800.000	0.015	0.048
-627.478	-200.000	0.058	-0.284
-626.463	583.518	0.105	0.256
-625.449	-79.655	0.189	0.063
-624.434	-102.694	0.263	0.063
-623.419	32.206	0.031	0.026
-622.405	-200.000	0.020	-0.415
-621.390	-20.686	0.172	-0.105
-620.376	-200.000	-0.001	-0.184
-619.361	-200.000	-0.026	-0.216
-618.346	-104.272	0.317	-0.073
-617.332	800.000	0.047	0.167
-616.317	-4.694	-0.266	0.183
-615.303	349.543	0.060	-0.117
-614.288	-112.413	0.147	0.029
-613.273	-200.000	0.002	-0.216
-612.259	-200.000	-0.031	0.201
-611.244	37.975	-0.147	-0.130
-610.230	171.991	-0.152	-0.217
-609.215	-200.000	-0.003	-0.406
-608.201	-122.132	-0.081	0.013
-607.186	-50.546	0.247	-0.116
-606.171	-200.000	-0.007	-0.222
-605.157	80.415	-0.082	-0.088
-604.142	800.000	0.055	-0.212
-603.128	117.611	0.215	0.264
-602.113	-145.940	-0.108	0.009
-601.098	-38.274	0.326	0.172
-600.084	71.209	-0.109	-0.113
-599.069	482.800	0.093	-0.211
-598.055	57.698	-0.302	0.294
-597.040	65.421	0.021	0.021
-596.025	746.207	-0.101	-0.270
-595.011	148.429	-0.103	-0.138
-593.996	-171.093	0.070	-0.002
-592.982	71.851	0.114	0.118
-591.967	-200.000	-0.030	-0.137
-590.952	642.514	-0.144	0.365
-589.938	-89.089	-0.194	-0.057
-588.923	181.449	0.239	-0.350
-587.909	-54.302	-0.216	0.098
-586.894	-200.000	0.060	-0.292
-585.879	-200.000	-0.059	-0.327
-584.865	114.660	0.101	-0.122
-583.850	345.106	0.054	-0.106
-582.836	187.760	0.043	-0.064
-581.821	32.691	-0.244	0.210
-580.806	318.874	0.067	0.126
-579.792	-82.766	0.080	-0.026
-578.777	800.000	0.062	0.218
-577.763	-14.985	0.170	-0.109
-576.748	800.000	0.010	-0.036
-575.733	-88.065	-0.169	-0.050
-574.719	368.461	-0.041	0.083
-573.704	14.906	0.295	-0.230
-572.690	-200.000	0.048	-0.326
-571.675	476.391	-0.104	0.234
-570.661	-99.712	-0.108	-0.027
-569.646	-130.871	-0.233	-0.031
-568.631	602.601	0.088	-0.218
-567.617	-200.000	-0.025	-0.251
-566.602	800.000	0.125	-0.428
-565.588	-25.935	0.028	-0.016
-564.573	55.581	-0.134	0.129
-563.558	800.000	0.077	-0.246
-562.544	800.000	0.107	0.294
-561.529	-164.870	-0.160	0.007
-560.515	39.657	-0.159	-0.141
-559.500	356.158	-0.140	0.276
-558.485	800.000	0.046	-0.127
-557.471	-200.000	0.057	0.470
-556.456	-142.236	0.160	-0.016
-555.442	-200.000	0.038	-0.213
-554.427	-40.882	-0.252	-0.130
-553.412	-60.925	0.142	0.060
-552.398	-167.637	-0.114	-0.004
-551.383	-200.000	-0.032	-0.230
-550.369	88.127	-0.157	0.173
-549.354	-80.970	0.264	-0.087
-548.339	-200.000	-0.007	0.125
-547.325	-144.287	0.242	0.022
-546.310	2.886	0.144	0.104
-545.296	462.709	0.110	-0.245
-544.281	-109.936	-0.302	-0.063
-543.266	-200.000	-0.073	0.389
-542.252	-19.900	0.087	-0.053
-541.237	243.355	0.173	-0.289
-540.223	641.147	0.054	-0.135
-539.208	800.000	-0.159	-0.452
-538.193	-114.379	0.138	0.026
-537.179	24.790	-0.171	-0.141
-536.164	-119.164	0.049	0.009
-535.150	-92.438	0.245	0.069
-534.135	800.000	0.122	0.511
-533.121	800.000	0.035	0.150
-532.106	-195.548	0.218	0.002
-531.091	326.662	0.085	-0.161
-530.077	-32.678	-0.144	0.080
-529.062	371.972	-0.111	-0.224
-528.048	-200.000	-0.023	-0.195
-527.033	454.081	-0.146	0.320
-526.018	-65.566	-0.077	0.031
-525.004	-24.520	0.237	-0.140
-523.989	-13.564	-0.305	0.196
-522.975	-200.000	-0.002	-0.063
-521.960	-45.158	-0.234	0.116
-520.945	-14.050	0.201	-0.129
-519.931	401.222	-0.035	-0.073
-518.916	-30.978	0.279	-0.156
-517.902	-120.761	0.125	0.021
-516.887	203.808	0.096	-0.148
-515.872	28.462	0.176	0.148
-514.858	-103.036	-0.293	-0.069
-513.843	59.689	-0.318	-0.312
-512.829	494.056	-0.113	0.258
-511.814	-167.437	-0.236	-0.009
-510.799	-200.000	0.017	0.280
-509.785	-200.000	0.014	0.203
-508.770	-65.052	-0.306	-0.123
-507.756	-26.772	-0.090	0.052
-506.741	117.926	0.132	-0.162
-505.726	-42.385	0.144	-0.073
-504.712	-200.000	0.049	-0.240
-503.697	-23.277	-0.244	-0.145
-502.683	233.259	0.025	0.041
-501.668	-88.234	-0.400	-0.119
-500.653	-200.000	0.030	-0.383
-499.639	-148.706	0.091	0.007
-498.624	-178.346	0.339	0.008
-497.610	223.464	0.103	-0.165
-496.595	-43.467	0.175	0.088
-495.581	-200.000	-0.026	-0.150
-494.566	170.032	-0.191	-0.271
-493.551	-99.045	0.150	0.038
-492.537	-46.899	-0.140	-0.068
-491.522	731.670	-0.100	0.264
-490.508	-22.906	0.324	0.194
-489.493	800.000	-0.039	0.148
-488.478	800.000	-0.058	0.167
-487.464	259.932	-0.120	-0.205
-486.449	196.949	0.105	0.158
-485.435	-200.000	-0.114	0.533
-484.420	181.472	-0.171	0.250
-483.405	-200.000	-0.022	0.234
-482.391	-127.245	0.322	-0.047
-481.376	-89.327	-0.183	0.054
-480.362	-14.637	-0.113	0.072
-479.347	490.719	-0.129	0.292
-478.332	721.418	-0.054	0.143
-477.318	-135.122	0.277	-0.033
-476.303	800.000	0.027	0.074
-475.289	14.180	-0.121	0.094
-474.274	-16.878	0.163	0.102
-473.259	82.244	0.087	-0.093
-472.245	800.000	-0.135	0.494
-471.230	-63.431	-0.258	-0.105
-470.216	-12.768	-0.243	-0.157
-469.201	-178.166	0.249	-0.006
-468.186	-200.000	0.012	-0.320
-467.172	-133.887	-0.281	-0.035
-466.157	-153.824	0.345	0.023
-465.143	-1.757	-0.103	0.072
-464.128	800.000	-0.068	-0.187
-463.113	187.957	-0.033	-0.049
-462.099	220.218	-0.077	0.121
-461.084	475.290	-0.070	-0.156
-460.070	270.094	-0.148	-0.258
-459.055	288.025	0.171	0.306
-458.040	800.000	0.052	0.148
-457.026	-93.378	-0.445	-0.122
-456.011	-113.673	0.109	0.021
-454.997	77.549	-0.107	-0.113
-453.982	-200.000	-0.010	-0.147
-452.968	-106.173	-0.236	0.052
-451.953	-131.627	-0.177	-0.023
-450.938	155.503	-0.105	0.143
-449.924	-200.000	-0.014	0.331
-448.909	21.574	0.268	-0.216
-447.895	-162.019	-0.292	-0.015
-446.880	187.638	-0.213	0.315
-445.865	18.755	0.297	0.235
-444.851	800.000	0.052	-0.223
-443.836	284.855	-0.115	-0.205
-442.822	800.000	-0.012	-0.050
-441.807	800.000	-0.064	0.225
-440.792	62.023	0.153	0.151
-439.778	-68.537	-0.072	-0.028
-438.763	87.985	0.290	-0.318
-437.749	224.758	0.107	-0.171
-436.734	-151.974	-0.192	-0.014
-435.719	-110.392	-0.188	-0.039
-434.705	-200.000	0.032	-0.178
-433.690	25.158	-0.177	0.145
-432.676	800.000	-0.023	-0.095
-431.661	-147.260	-0.171	-0.014
-430.646	-120.039	-0.067	0.011
-429.632	-19.121	0.029	-0.018
-428.617	15.355	0.151	0.117
-427.603	-133.144	-0.081	0.010
-426.588	-125.523	0.214	-0.032
-425.573	-200.000	0.065	0.336
-424.559	-13.335	0.096	-0.061
-423.544	78.370	0.045	0.048
-422.530	-180.878	-0.287	0.006
-421.515	207.272	-0.076	-0.116
-420.500	-112.855	-0.273	0.054
-419.486	-113.491	0.221	-0.043
-418.471	-142.974	-0.256	-0.025
-417.457	66.825	0.071	0.071
-416.442	96.280	0.126	-0.142
-415.428	132.552	0.205	-0.261
-414.413	595.318	0.168	-0.412
-413.398	427.639	0.120	0.257
-412.384	800.000	-0.061	-0.173
-411.369	-73.839	0.182	-0.065
-410.355	-175.984	0.573	-0.015
-409.340	170.775	-0.083	0.118
-408.325	-200.000	-0.004	-0.024
-407.311	-39.247	0.200	-0.104
-406.296	318.039	-0.124	-0.232
-405.282	-103.871	0.109	0.025
-404.267	404.882	0.047	-0.097
-403.252	365.343	0.148	-0.294
-402.238	-200.000	0.029	0.323
-401.223	-72.232	-0.159	0.058
-400.209	-29.769	0.111	-0.062
-399.194	207.705	0.056	0.087
-398.179	348.305	0.097	-0.188
-397.165	5.117	0.277	-0.201
-396.150	119.292	0.062	0.076
-395.136	-22.837	0.068	0.040
-394.121	-147.692	0.452	0.037
-393.106	139.467	-0.129	-0.168
-392.092	258.699	-0.052	0.089
-391.077	-100.732	-0.308	-0.075
-390.063	-200.000	0.006	-0.076
-389.048	-62.045	0.206	-0.085
-388.033	63.260	0.063	-0.063
-387.019	-200.000	-0.005	0.045
-386.004	-80.122	0.432	0.143
-384.990	171.583	-0.023	-0.033
-383.975	54.365	-0.201	0.191
-382.960	-39.868	0.134	0.069
-381.946	63.189	-0.138	-0.136
-380.931	96.923	-0.168	0.190
-379.917	-35.227	-0.090	0.048
-378.902	-117.643	0.158	0.028
-377.888	-148.815	-0.094	0.008
-376.873	417.546	-0.231	-0.488
-375.858	-200.000	0.043	-0.240
-374.844	800.000	0.084	0.291
-373.829	226.724	-0.210	0.336
-372.815	-200.000	-0.004	-0.073
-371.800	-28.490	-0.169	0.096
-370.785	-160.577	0.183	0.010
-369.771	800.000	0.079	0.258
-368.756	-200.000	-0.006	0.212
-367.742	-200.000	0.079	-0.000
-366.727	-26.608	-0.222	-0.128
-365.712	62.711	0.290	-0.286
-364.698	-161.667	0.147	-0.007
-363.683	-200.000	-0.024	-0.148
-362.669	-28.375	-0.058	-0.033
-361.654	197.406	0.154	-0.231
-360.639	800.000	-0.051	0.159
-359.625	170.233	-0.141	-0.199
-358.610	-155.325	-0.176	0.011
-357.596	14.260	0.436	0.335
-356.581	-102.089	-0.409	0.097
-355.566	386.633	0.086	0.175
-354.552	617.757	-0.125	0.310
-353.537	-130.325	-0.370	-0.050
-352.523	78.299	0.135	0.142
-351.508	-200.000	0.060	0.330
-350.493	800.000	0.047	0.201
-349.479	2.501	-0.158	-0.113
-348.464	-200.000	0.003	0.122
-347.450	99.346	0.143	-0.163
-346.435	10.939	-0.094	0.071
-345.420	-18.972	0.286	0.175
-344.406	-69.621	0.343	-0.129
-343.391	522.664	-0.014	-0.033
-342.377	256.589	-0.036	0.061
-341.362	-107.878	0.381	-0.082
-340.348	624.520	0.062	0.153
-339.333	800.000	0.058	-0.230
-338.318	-138.795	-0.182	0.020
-337.304	11.896	-0.209	0.159
-336.289	-24.205	-0.208	-0.122
-335.275	-167.997	-0.241	0.009
-334.260	542.008	0.046	-0.108
-333.245	361.442	-0.068	-0.134
-332.231	382.064	0.135	-0.273
-331.216	-2.696	0.136	0.093
-330.202	325.108	-0.243	0.458
-329.187	-200.000	0.051	0.294
-328.172	137.088	0.178	0.230
-327.158	157.199	0.157	0.214
-326.143	800.000	0.070	-0.282
-325.129	-69.455	0.271	0.102
-324.114	-118.414	0.062	-0.011
-323.099	289.695	-0.054	0.096
-322.085	544.124	0.105	-0.247
-321.070	402.469	0.062	0.128
-320.056	77.267	-0.072	-0.076
-319.041	-200.000	0.026	-0.265
-318.026	800.000	0.024	0.072
-317.012	-76.583	-0.297	0.103
-315.997	-200.000	0.117	0.588
-314.983	-200.000	0.077	0.480
-313.968	88.539	0.147	0.161
-312.953	97.008	0.083	0.094
-311.939	-22.780	-0.096	-0.057
-310.924	-18.388	-0.255	0.157
-309.910	-42.747	0.261	0.131
-308.895	106.536	0.162	0.189
-307.880	800.000	0.088	-0.292
-306.866	-38.706	0.099	-0.051
-305.851	-63.549	-0.334	-0.135
-304.837	286.350	0.147	-0.261
-303.822	-200.000	0.006	-0.035
-302.807	60.796	-0.055	-0.054
-301.793	107.688	0.131	-0.154
-300.778	-200.000	0.075	-0.368
-299.764	189.334	0.142	-0.210
-298.749	8.184	-0.046	-0.034
-297.735	-93.077	-0.093	-0.025
-296.720	11.479	0.052	0.039
-295.705	-4.236	-0.079	0.054
-294.691	459.743	-0.076	-0.167
-293.676	48.365	-0.039	-0.036
-292.662	-80.322	-0.178	-0.059
-291.647	-15.382	-0.163	0.103
-290.632	-26.290	-0.016	0.009
-289.618	244.884	-0.051	0.084
-288.603	517.359	0.066	0.151
-287.589	201.956	0.172	-0.261
-286.574	-42.977	-0.286	-0.143
-285.559	-200.000	-0.042	-0.279
-284.545	-54.805	-0.131	-0.058
-283.530	220.966	-0.093	0.146
-282.516	-64.724	0.207	-0.083
-281.501	-200.000	-0.008	0.097
-280.486	-8.162	0.264	-0.175
-279.472	-91.266	0.274	-0.077
-278.457	-200.000	-0.017	0.163
-277.443	145.320	-0.072	-0.095
-276.428	-105.620	0.297	0.066
-275.413	-200.000	-0.021	0.115
-274.399	-98.909	-0.468	-0.117
-273.384	800.000	-0.019	-0.081
-272.370	-46.935	-0.354	0.170
-271.355	-51.771	0.188	-0.086
-270.340	72.480	-0.102	-0.104
-269.326	-200.000	-0.026	-0.200
-268.311	103.108	0.054	0.062
-267.297	-200.000	-0.011	-0.139
-266.282	-109.958	-0.296	-0.061
-265.267	58.743	-0.232	0.224
-264.253	135.912	-0.121	-0.155
-263.238	-200.000	-0.033	-0.449
-262.224	36.443	-0.141	-0.123
-261.209	-200.000	0.038	0.279
-260.195	-64.736	0.135	-0.054
-259.180	756.468	0.071	0.188
-258.165	800.000	0.077	0.280
-257.151	116.553	-0.266	-0.320
-256.136	119.656	0.164	-0.199
-255.122	141.718	-0.055	0.071
-254.107	57.700	0.039	-0.037
-253.092	-83.440	-0.413	-0.130
-252.078	-40.520	-0.189	0.096
-251.063	-37.865	0.283	0.148
-250.049	-70.048	-0.202	0.076
-249.034	279.742	0.089	0.156
-248.019	-200.000	-0.022	0.265
-247.005	-0.325	0.244	-0.170
-245.990	-85.600	-0.361	0.110
-244.976	44.454	0.125	0.113
-243.961	352.381	-0.102	0.198
-242.946	800.000	0.060	0.252
-241.932	578.967	-0.179	0.430
-240.917	421.487	0.121	-0.255
-239.903	-14.117	-0.161	-0.102
-238.888	-171.385	-0.023	-0.001
-237.873	-200.000	-0.024	-0.316
-236.859	-51.805	-0.502	0.230
-235.844	692.175	-0.099	-0.254
-234.830	95.616	-0.151	0.169
-233.815	-200.000	0.020	0.210
-232.800	800.000	-0.120	0.325
-231.786	-66.782	-0.349	-0.135
-230.771	114.685	-0.219	-0.261
-229.757	-122.428	0.233	0.037
-228.742	128.275	0.071	0.089
-227.727	-60.348	-0.029	-0.012
-226.713	-200.000	-0.020	0.089
-225.698	-200.000	0.007	0.132
-224.684	111.359	-0.239	0.283
-223.669	498.909	0.098	0.221
-222.655	-110.661	0.278	-0.056
-221.640	800.000	0.048	-0.188
-220.625	800.000	-0.058	0.192
-219.611	68.602	0.072	0.073
-218.596	-200.000	0.017	0.358
-217.582	-179.206	-0.283	0.006
-216.567	-200.000	-0.016	-0.452
-215.552	-39.148	0.114	-0.059
-214.538	800.000	-0.111	0.353
-213.523	154.383	-0.065	0.087
-212.509	133.896	-0.058	0.073
-211.494	800.000	0.085	0.293
-210.479	-32.520	-0.203	0.111
-209.465	6.829	0.363	-0.265
-208.450	105.762	0.091	0.106
-207.436	135.247	-0.311	0.396
-206.421	74.080	-0.240	0.247
-205.406	59.546	0.318	-0.307
-204.392	-96.205	0.155	-0.040
-203.377	86.062	-0.193	-0.208
-202.363	-72.923	-0.413	-0.149
-201.348	302.834	0.118	-0.214
-200.333	-119.071	0.148	0.025
-199.319	368.186	0.138	0.274
-198.304	800.000	0.065	0.244
-197.290	800.000	0.062	0.204
-196.275	252.551	0.086	-0.144
-195.260	800.000	-0.061	0.212
-194.246	9.503	0.221	-0.164
-193.231	-2.547	-0.074	-0.051
-192.217	-200.000	-0.013	0.302
-191.202	-64.227	-0.500	0.200
-190.187	617.138	0.019	0.048
-189.173	800.000	-0.053	-0.176
-188.158	318.282	0.144	-0.267
-187.144	-109.100	-0.305	0.064
-186.129	-200.000	0.007	0.208
-185.114	-28.808	-0.260	-0.146
-184.100	-200.000	-0.017	0.262
-183.085	107.860	0.262	0.306
-182.071	163.718	-0.055	-0.076
-181.056	800.000	0.071	-0.193
-180.042	-155.868	0.273	0.017
-179.027	424.358	0.039	-0.082
-178.012	183.577	0.219	-0.317
-176.998	541.457	0.072	-0.168
-175.983	-124.412	-0.139	-0.021
-174.969	591.921	-0.092	0.222
-173.954	-83.144	-0.132	0.042
-172.939	-86.219	0.257	0.078
-171.925	15.436	0.050	0.038
-170.910	-200.000	0.020	0.153
-169.896	-103.054	0.375	0.087
-168.881	-200.000	-0.007	-0.164
-167.866	-100.349	0.154	-0.037
-166.852	18.694	0.068	-0.053
-165.837	51.852	-0.298	0.277
-164.823	-112.820	-0.264	0.051
-163.808	-200.000	-0.018	0.190
-162.793	-134.836	-0.623	-0.074
-161.779	239.096	0.108	-0.175
-160.764	-148.915	0.195	0.015
-159.750	-24.753	0.106	-0.062
-158.735	128.732	0.149	0.186
-157.720	84.900	0.263	0.282
-156.706	800.000	0.043	0.173
-155.691	73.884	-0.199	-0.204
-154.677	-151.603	0.268	0.019
-153.662	-125.048	-0.215	0.032
-152.647	291.710	-0.102	-0.182
-151.633	50.691	-0.199	0.184
-150.618	-82.687	0.355	0.112
-149.604	71.996	-0.182	0.185
-148.589	191.326	0.082	-0.121
-147.574	-200.000	-0.017	0.109
-146.560	132.618	0.169	-0.213
-145.545	138.912	0.138	-0.177
-144.531	681.179	-0.100	0.256
-143.516	89.923	0.084	-0.091
-142.502	118.441	-0.138	-0.167
-141.487	800.000	-0.031	-0.113
-140.472	800.000	0.127	0.364
-139.458	110.083	0.266	0.313
-138.443	800.000	0.078	-0.227
-137.429	7.233	0.440	-0.321
-136.414	-200.000	0.006	0.095
-135.399	-200.000	-0.037	-0.181
-134.385	-112.443	0.110	0.021
-133.370	-200.000	-0.023	-0.337
-132.356	-118.063	-0.058	0.010
-131.341	200.487	0.165	-0.247
-130.326	800.000	0.035	-0.110
-129.312	-59.372	0.249	0.105
-128.297	-0.800	0.357	-0.247
-127.283	200.416	-0.153	0.229
-126.268	800.000	0.044	-0.122
-125.253	596.699	-0.084	0.204
-124.239	249.924	0.084	0.139
-123.224	25.123	-0.323	0.262
-122.210	-58.771	-0.031	0.013
-121.195	-117.595	0.250	-0.044
-120.180	-108.892	0.037	0.008
-119.166	-112.401	-0.277	-0.054
-118.151	548.086	0.186	0.436
-117.137	-66.172	0.220	0.086
-116.122	-21.947	-0.173	-0.103
-115.107	-200.000	-0.013	-0.100
-114.093	524.589	0.068	-0.157
-113.078	475.676	0.119	0.263
-112.064	800.000	0.097	0.282
-111.049	800.000	-0.037	-0.152
-110.034	800.000	-0.042	-0.138
-109.020	262.997	0.088	0.149
-108.005	-166.658	-0.138	0.006
-106.991	-176.381	0.292	0.007
-105.976	423.622	0.164	-0.345
-104.962	800.000	-0.067	-0.187
-103.947	29.599	0.242	0.201
-102.932	198.913	-0.035	0.053
-101.918	-86.646	0.144	0.043
-100.903	591.427	-0.055	0.133
-99.889	153.504	0.138	-0.184
-98.874	-200.000	-0.063	-0.353
-97.859	747.340	0.104	0.274
-96.845	772.499	0.179	0.478
-95.830	160.172	0.138	-0.188
-94.816	-200.000	-0.070	0.309
-93.801	131.772	0.223	-0.280
-92.786	0.471	-0.374	0.261
-91.772	-128.558	0.113	-0.016
-90.757	-96.355	-0.107	-0.028
-89.743	6.055	-0.097	0.070
-88.728	-87.460	0.220	-0.065
-87.713	800.000	0.123	-0.357
-86.699	89.516	0.183	-0.199
-85.684	-1.568	0.254	0.175
-84.670	-85.534	0.513	0.156
-83.655	12.707	0.478	0.360
-82.640	56.218	0.337	0.319
-81.626	-177.238	0.568	0.014
-80.611	-200.000	-0.009	0.067
-79.597	300.303	-0.090	0.162
-78.582	-200.000	0.013	-0.129
-77.567	-200.000	0.016	0.110
-76.553	-91.746	0.475	0.132
-75.538	204.308	0.186	0.282
-74.524	-200.000	0.027	0.358
-73.509	-181.505	-0.068	0.001
-72.494	298.168	0.165	-0.297
-71.480	-117.921	-0.142	-0.025
-70.465	602.476	-0.081	-0.196
-69.451	465.088	-0.037	-0.081
-68.436	-17.766	0.311	-0.190
-67.422	-133.288	0.260	-0.032
-66.407	27.382	0.206	0.169
-65.392	-172.688	0.086	0.003
-64.378	78.061	0.074	-0.077
-63.363	-200.000	0.064	0.000
-62.349	800.000	-0.012	-0.041
-61.334	79.135	-1.027	-1.073
-60.319	64.778	0.816	0.802
-59.305	533.170	-0.530	-1.223
-58.290	539.240	0.782	1.813
-57.276	800.000	0.489	1.423
-56.261	-200.000	121.940	617.955
-55.246	386.793	1569.609	3160.196
-54.232	140.979	2743.103	3534.406
-53.217	94.180	2205.329	2439.115
-52.203	34.661	1718.429	1463.630
-51.188	27.153	1534.297	1255.131
-50.173	25.070	1510.970	1221.811
-49.159	47.607	1580.371	1436.363
-48.144	45.434	1593.931	1433.425
-47.130	27.126	1543.376	1262.164
-46.115	24.228	1527.306	1229.024
-45.100	24.032	1523.767	1224.777
-44.086	24.023	1522.202	1223.408
-43.071	24.059	1519.907	1221.762
-42.057	24.059	1518.489	1220.573
-41.042	24.050	1516.541	1218.902
-40.027	24.047	1515.560	1218.044
-39.013	24.044	1513.603	1216.400
-37.998	23.947	1512.265	1214.612
-36.984	23.923	1511.783	1214.014
-35.969	24.017	1509.890	1213.091
-34.954	23.958	1508.613	1211.615
-33.940	24.006	1507.199	1210.758
-32.925	24.025	1505.824	1209.733
-31.911	24.022	1504.354	1208.482
-30.896	24.092	1503.071	1207.876
-29.881	24.146	1501.725	1207.112
-28.867	24.033	1500.782	1205.542
-27.852	24.090	1499.322	1204.708
-26.838	24.126	1497.502	1203.440
-25.823	24.089	1496.658	1202.469
-24.809	24.003	1495.010	1200.517
-23.794	24.024	1493.384	1199.301
-22.779	24.062	1492.298	1198.635
-21.765	23.984	1491.652	1197.545
-20.750	24.037	1490.122	1196.626
-19.736	23.981	1489.220	1195.479
-18.721	24.121	1487.910	1195.323
-17.706	24.060	1487.053	1194.173
-16.692	24.041	1485.799	1192.990
-15.677	24.037	1484.788	1192.109
-14.663	24.037	1483.756	1191.232
-13.648	24.026	1482.820	1190.359
-12.633	23.983	1482.005	1189.367
-11.619	24.047	1481.227	1189.126
-10.604	23.911	1480.837	1187.854
-9.590	23.898	1479.651	1186.774
-8.575	24.037	1478.195	1186.487
-7.560	24.014	1477.062	1185.371
-6.546	23.935	1476.623	1184.448
-5.531	24.004	1475.834	1184.226
-4.517	23.995	1474.382	1182.958
-3.502	24.030	1473.349	1182.312
-2.487	23.988	1472.893	1181.623
-1.473	23.960	1472.044	1180.706
-0.458	24.076	1469.683	1179.537
0.556	22.927	1460.692	1169.147
1.571	20.105	1436.298	1131.128
2.586	17.014	1373.834	1062.516
3.600	15.474	1288.631	987.480
4.615	14.358	1245.340	947.876
5.629	12.628	1188.655	895.248
6.644	6.403	1105.651	801.077
7.659	1.452	1068.688	749.843
8.673	0.817	1063.509	743.022
9.688	0.698	1059.761	739.755
10.702	0.620	1058.979	738.765
11.717	0.625	1056.818	737.217
12.731	2.710	1058.222	748.312
13.746	9.025	1066.752	785.259
14.761	14.797	1074.184	819.027
15.775	17.023	1076.291	831.483
16.790	16.783	1075.147	829.350
17.804	15.902	1073.237	823.495
18.819	15.031	1071.228	817.631
19.834	14.553	1069.652	814.023
20.848	14.317	1068.435	811.875
21.863	14.154	1067.648	810.412
22.877	13.785	1067.153	808.163
23.892	13.591	1066.590	806.725
24.907	13.508	1065.367	805.321
25.921	13.583	1064.945	805.297
26.936	13.431	1064.364	804.050
27.950	13.598	1063.536	804.164
28.965	13.638	1062.627	803.597
29.980	13.637	1061.698	802.821
30.994	13.728	1060.725	802.452
32.009	13.861	1059.536	802.126
33.023	13.726	1059.410	801.305
34.038	13.748	1058.343	800.533
35.053	13.746	1057.147	799.551
36.067	13.816	1056.309	799.183
37.082	13.712	1056.010	798.384
38.096	13.769	1055.040	797.854
39.111	13.869	1053.896	797.398
40.126	13.741	1053.318	796.278
41.140	13.769	1052.321	795.586
42.155	13.716	1050.769	794.092
43.169	13.661	1050.413	793.488
44.184	13.480	1049.588	791.930
45.199	13.553	1048.267	791.210
46.213	13.614	1047.040	790.506
47.228	13.625	1045.785	789.541
48.242	13.614	1045.057	788.867
49.257	13.666	1044.463	788.595
50.271	13.751	1043.282	788.038
51.286	13.747	1042.075	787.037
52.301	13.706	1041.772	786.545
53.315	13.722	1040.988	785.959
54.330	13.796	1039.636	785.218
55.344	13.664	1039.330	784.296
56.359	13.616	1038.050	783.034
57.374	13.701	1037.222	782.741
58.388	13.627	1036.302	781.626
59.403	13.579	1035.638	780.832
60.417	13.525	1035.007	780.034
61.432	13.591	1033.985	779.504
62.447	13.538	1033.234	778.620
63.461	13.540	1032.379	777.916
64.476	13.496	1031.783	777.191
65.490	13.560	1030.542	776.490
66.505	13.521	1029.774	775.657
67.520	13.605	1028.712	775.185
68.534	13.442	1028.036	773.844
69.549	13.648	1027.364	774.229
70.563	13.539	1026.816	773.242
71.578	13.569	1026.296	772.919
72.593	13.492	1025.254	771.708
73.607	13.514	1024.210	770.957
74.622	13.600	1023.138	770.481
75.636	13.612	1022.446	769.947
76.651	13.513	1021.652	768.821
77.666	13.502	1020.605	767.913
78.680	13.468	1020.143	767.342
79.695	13.421	1019.877	766.857
80.709	13.574	1018.738	766.640
81.724	13.498	1018.174	765.796
82.739	13.538	1017.030	765.055
83.753	13.637	1016.460	765.015
84.768	13.617	1015.308	763.986
85.782	13.789	1014.417	764.040
86.797	13.779	1013.962	763.584
87.812	13.736	1012.781	762.430
88.826	13.677	1012.222	761.671
89.841	13.633	1011.469	760.832
90.855	13.733	1010.060	760.166
91.870	13.734	1009.645	759.789
92.884	13.744	1008.994	759.279
93.899	13.770	1008.286	758.799
94.914	13.855	1007.321	758.392
95.928	13.772	1006.967	757.680
96.943	13.895	1006.014	757.457
97.957	13.808	1005.358	756.502
98.972	13.780	1004.388	755.575
99.987	13.725	1003.658	754.709
101.001	13.771	1002.959	754.327
102.016	13.692	1002.219	753.345
103.030	13.670	1001.689	752.778
104.045	13.673	1000.536	751.859
105.060	13.724	999.243	751.053
106.074	13.674	998.604	750.281
107.089	13.798	997.465	749.918
108.103	13.677	996.898	748.877
109.118	13.698	995.905	748.163
110.133	13.708	994.906	747.387
111.147	13.697	994.417	746.907
112.162	13.627	993.372	745.742
113.176	13.670	992.607	745.294
114.191	13.728	991.463	744.628
115.206	13.728	990.600	743.916
116.220	13.727	989.529	743.040
117.235	13.752	988.819	742.551
118.249	13.739	987.884	741.728
119.264	13.668	987.486	741.048
120.279	13.694	986.583	740.416
121.293	13.698	985.579	739.620
122.308	13.656	984.680	738.688
123.322	13.644	983.844	737.945
124.337	13.687	982.788	737.276
125.352	13.684	981.510	736.243
126.366	13.550	980.385	734.740
127.381	13.610	979.255	734.091
128.395	13.636	978.848	733.836
129.410	13.685	977.706	733.133
130.424	13.704	976.411	732.182
131.439	13.808	975.135	731.616
132.454	13.653	974.909	730.701
133.468	13.651	973.834	729.818
134.483	13.632	973.955	729.763
135.497	13.552	972.996	728.628
136.512	13.701	972.321	728.715
137.527	13.570	971.782	727.668
138.541	13.714	970.455	727.245
139.556	13.773	969.424	726.663
140.570	13.685	968.786	725.736
141.585	13.731	968.058	725.328
142.600	13.733	967.895	725.152
143.614	13.809	966.754	724.561
144.629	13.861	965.906	724.090
145.643	13.884	965.404	723.751
146.658	13.786	964.671	722.712
147.673	13.977	963.152	722.340
148.687	13.871	962.464	721.296
149.702	13.809	961.589	720.310
150.716	13.810	960.618	719.525
151.731	13.775	960.059	718.887
152.746	13.831	958.957	718.244
153.760	13.865	958.191	717.752
154.775	13.814	957.291	716.794
155.789	13.906	956.604	716.614
156.804	13.834	955.846	715.671
157.819	13.988	954.872	715.543
158.833	13.952	954.106	714.752
159.848	13.982	953.679	714.495
160.862	14.077	952.702	714.107
161.877	14.071	951.923	713.436
162.892	14.141	950.886	712.898
163.906	13.996	950.859	712.190
164.921	14.119	949.600	711.709
165.935	13.946	948.340	709.965
166.950	13.856	948.346	709.521
167.964	14.009	946.636	708.834
168.979	13.951	945.865	707.945
169.994	14.046	944.821	707.504
171.008	13.914	944.311	706.500
172.023	14.068	943.300	706.337
173.037	14.179	942.720	706.311
174.052	14.114	942.086	705.496
175.067	14.056	941.568	704.800
176.081	14.050	940.626	704.006
177.096	14.062	940.026	703.546
178.110	13.983	939.147	702.494
179.125	13.957	938.356	701.727
180.140	14.096	937.703	701.767
181.154	14.159	936.699	701.216
182.169	14.274	935.852	701.006
183.183	14.246	935.350	700.449
184.198	14.313	934.612	700.115
185.213	14.136	934.088	698.916
186.227	14.344	933.233	699.092
187.242	14.237	933.018	698.420
188.256	14.300	931.889	697.776
189.271	14.283	931.693	697.494
190.286	14.307	930.986	697.003
191.300	14.339	929.925	696.282
192.315	14.288	929.324	695.559
193.329	14.087	928.809	694.273
194.344	14.200	927.726	693.872
195.359	14.269	927.613	694.014
196.373	14.438	926.969	694.175
197.388	14.200	926.937	693.096
198.402	14.348	925.962	692.925
199.417	14.428	925.116	692.561
200.432	14.496	924.917	692.635
201.446	14.525	924.456	692.348
202.461	14.422	924.178	691.650
203.475	14.552	923.373	691.527
204.490	14.539	922.643	690.863
205.504	14.605	921.609	690.300
206.519	14.579	921.097	689.748
207.534	14.599	920.407	689.252
208.548	14.551	919.890	688.608
209.563	14.628	918.751	688.012
210.577	14.577	917.958	687.146
211.592	14.457	917.730	686.421
212.607	14.676	917.011	686.726
213.621	14.664	916.578	686.289
214.636	14.735	915.865	685.986
215.650	14.649	915.301	685.153
216.665	14.644	914.686	684.609
217.680	14.707	914.566	684.718
218.694	14.696	913.737	683.991
219.709	14.722	913.582	683.920
220.723	14.754	912.546	683.217
221.738	14.848	911.296	682.603
222.753	14.754	911.213	682.095
223.767	14.824	910.173	681.542
224.782	14.825	909.187	680.747
225.796	14.777	908.785	680.192
226.811	14.894	908.216	680.181
227.826	14.746	907.637	679.086
228.840	14.788	906.672	678.475
229.855	14.842	906.094	678.200
230.869	14.920	905.483	678.001
231.884	14.833	904.912	677.162
232.899	14.933	904.099	676.896
233.913	14.836	903.524	676.015
234.928	15.033	902.596	676.054
235.942	14.962	901.852	675.153
236.957	14.996	901.199	674.739
237.972	14.853	900.741	673.763
238.986	14.824	899.949	672.992
240.001	14.880	899.378	672.730
241.015	14.850	898.556	671.937
242.030	14.919	897.855	671.630
243.045	15.079	896.933	671.524
244.059	14.979	896.846	670.999
245.074	15.127	895.868	670.798
246.088	15.031	895.280	669.914
247.103	15.031	894.968	669.621
248.117	15.028	894.334	669.078
249.132	15.070	893.895	668.856
250.147	15.120	892.983	668.315
251.161	15.151	892.355	667.911
252.176	15.394	891.389	668.095
253.190	15.484	890.502	667.727
254.205	15.258	890.170	666.524
255.220	15.391	889.650	666.604
256.234	15.454	888.659	666.052
257.249	15.436	887.951	665.392
258.263	15.439	887.684	665.145
259.278	15.451	887.153	664.735
260.293	15.540	886.668	664.663
261.307	15.480	886.171	663.998
262.322	15.502	885.477	663.505
263.336	15.399	885.031	662.703
264.351	15.361	884.576	662.156
265.366	15.649	883.642	662.533
266.380	15.656	883.012	662.027
267.395	15.608	882.302	661.248
268.409	15.532	881.861	660.560
269.424	15.569	881.185	660.140
270.439	15.704	879.999	659.725
271.453	15.654	879.330	658.968
272.468	15.664	878.595	658.401
273.482	15.506	878.448	657.612
274.497	15.571	877.908	657.403
275.512	15.620	876.987	656.846
276.526	15.620	876.052	656.088
277.541	15.734	875.521	656.080
278.555	15.711	875.108	655.623
279.570	15.597	874.751	654.851
280.585	15.675	873.989	654.526
281.599	15.674	873.472	654.077
282.614	15.800	872.420	653.719
283.628	15.849	871.622	653.256
284.643	15.878	871.491	653.214
285.657	15.977	870.756	652.987
286.672	15.944	870.337	652.489
287.687	15.884	869.859	651.838
288.701	15.851	869.389	651.300
289.716	15.863	869.083	651.061
290.730	15.947	868.477	650.873
291.745	15.926	867.604	650.081
292.760	15.915	866.637	649.258
293.774	16.006	865.881	648.985
294.789	15.957	865.713	648.612
295.803	16.050	864.956	648.345
296.818	16.008	864.481	647.770
297.833	15.972	863.692	646.982
298.847	16.129	862.734	646.812
299.862	16.136	862.055	646.272
300.876	16.088	861.592	645.681
301.891	16.051	860.989	645.032
302.906	16.256	860.535	645.419
303.920	16.091	859.741	644.138
304.935	16.199	858.822	643.802
305.949	16.231	858.785	643.839
306.964	16.276	857.590	643.059
307.979	16.152	857.538	642.492
308.993	16.215	857.049	642.306
310.008	16.288	856.068	641.791
311.022	16.213	855.677	641.156
312.037	16.343	855.250	641.274
313.052	16.207	854.761	640.333
314.066	16.434	853.853	640.458
315.081	16.265	853.348	639.382
316.095	16.264	852.770	638.888
317.110	16.356	852.533	639.003
318.125	16.219	851.605	637.732
319.139	16.283	851.345	637.726
320.154	16.218	850.898	637.087
321.168	16.305	850.278	636.897
322.183	16.284	849.671	636.307
323.197	16.430	849.322	636.539
324.212	16.508	847.942	635.741
325.227	16.332	847.964	635.037
326.241	16.342	847.697	634.822
327.256	16.581	846.475	634.744
328.270	16.397	846.242	633.823
329.285	16.410	845.613	633.347
330.300	16.457	845.096	633.079
331.314	16.339	844.733	632.307
332.329	16.555	843.696	632.285
333.343	16.459	843.469	631.699
334.358	16.501	842.952	631.414
335.373	16.570	841.977	630.884
336.387	16.623	841.603	630.745
337.402	16.584	841.526	630.486
338.416	16.565	840.975	629.950
339.431	16.548	840.493	629.468
340.446	16.665	839.410	629.034
341.460	16.732	839.057	628.964
342.475	16.741	838.411	628.459
343.489	16.753	837.675	627.894
344.504	16.713	837.381	627.472
345.519	16.950	836.632	627.733
346.533	16.748	836.318	626.692
347.548	16.785	836.029	626.557
348.562	16.910	835.080	626.254
349.577	16.898	834.269	625.544
350.592	16.636	834.348	624.582
351.606	16.788	834.132	624.927
352.621	16.849	833.456	624.590
353.635	16.814	832.916	624.000
354.650	16.775	832.750	623.678
355.665	16.856	831.828	623.228
356.679	16.921	831.494	623.161
357.694	16.879	831.212	622.740
358.708	16.981	830.212	622.310
359.723	17.008	829.479	621.805
360.738	16.895	829.184	621.117
361.752	16.916	828.778	620.834
362.767	17.016	828.493	620.931
363.781	17.015	827.741	620.310
364.796	16.882	827.866	619.863
365.810	16.916	827.300	619.507
366.825	17.292	826.143	619.959
367.840	17.069	826.524	619.376
368.854	17.115	825.830	618.968
369.869	17.172	825.434	618.825
370.883	17.223	825.043	618.662
371.898	17.148	824.487	617.919
372.913	17.251	823.452	617.462
373.927	17.214	823.118	617.022
374.942	17.075	822.392	615.918
375.956	17.293	821.709	616.143
376.971	17.248	821.300	615.617
377.986	17.329	820.892	615.550
379.000	17.262	820.491	614.954
380.015	17.243	819.886	614.377
381.029	17.448	819.173	614.529
382.044	17.440	818.635	614.043
383.059	17.295	818.430	613.312
384.073	17.371	817.878	613.116
385.088	17.362	817.013	612.382
386.102	17.498	816.557	612.474
387.117	17.453	816.018	611.856
388.132	17.447	815.327	611.261
389.146	17.298	815.245	610.609
390.161	17.599	814.820	611.317
391.175	17.361	814.434	610.120
392.190	17.456	814.070	610.135
393.205	17.573	813.257	609.892
394.219	17.525	813.084	609.536
395.234	17.501	812.369	608.858
396.248	17.520	811.918	608.534
397.263	17.507	811.793	608.341
398.278	17.501	811.248	607.859
399.292	17.468	810.669	607.252
400.307	17.524	810.071	606.951
401.321	17.522	809.824	606.703
402.336	17.592	809.242	606.463
403.350	17.633	808.821	606.242
404.365	17.660	808.512	606.051
405.380	17.612	808.162	605.566
406.394	17.647	807.681	605.274
407.409	17.775	807.032	605.188
408.423	17.823	806.751	605.094
409.438	17.762	805.976	604.243
410.453	17.687	805.983	603.930
411.467	17.832	805.282	603.864
412.482	17.864	804.760	603.533
413.496	17.832	804.404	603.099
414.511	18.117	803.497	603.371
415.526	18.108	803.292	603.134
416.540	17.921	803.554	602.616
417.555	17.943	803.021	602.240
418.569	17.934	802.382	601.676
419.584	17.961	802.174	601.563
420.599	17.904	801.422	600.746
421.613	114.561	1297.266	1487.337
422.628	98.857	1369.490	1487.431
