DTS Sentinel unit serial number:	SN413079Multiplexer serial number:	ORYXHardware model number:	OX4-SRSoftware version number:	ORYX F/W v4.00 Oryx Data Collector v3.7.2.0data status	okinstallation	princeton_trtdifferential loss correction	single-endedforward channel	channel 3reverse channel	N/Adate	2019/09/13time	13:20:34forward acquisition time	60.00reverse acquisition time	0.00gamma	496.2192k internal	0.2303k external	0.2303temperature offset calibration	1.0148default loss term (dB/km)	0.3790temperature slope calibration	1.0000multiplexer offset coefficient	1.0000multiplexer slope coefficient	1.0000fibre end	0.00T internal ref (°C)	34.95T ext. ref 1 (°C)	4.56T ext. ref 2 (°C)	31.50length (m)	temperature (°C)	Stokes	anti-Stokes-747.200	-183.041	0.229	0.004
-746.185	800.000	0.093	0.330
-745.171	582.606	0.118	0.295
-744.156	10.772	-0.266	0.206
-743.142	-200.000	-0.066	-0.320
-742.127	179.095	-0.104	-0.155
-741.112	-107.776	0.275	0.061
-740.098	-25.177	0.125	0.075
-739.083	-76.527	0.181	-0.065
-738.069	800.000	-0.064	0.188
-737.054	541.660	0.075	0.181
-736.039	56.070	-0.147	0.146
-735.025	-34.203	-0.191	-0.107
-734.010	293.920	-0.117	-0.218
-732.996	800.000	0.125	-0.352
-731.981	800.000	0.048	-0.153
-730.966	61.800	0.107	-0.109
-729.952	-200.000	-0.020	-0.179
-728.937	9.566	0.036	-0.028
-727.923	-145.362	0.079	-0.007
-726.908	603.180	0.064	-0.163
-725.894	-53.879	-0.147	-0.068
-724.879	-200.000	-0.045	-0.226
-723.864	4.316	-0.083	-0.062
-722.850	20.839	0.074	0.061
-721.835	-200.000	-0.024	0.151
-720.821	-7.853	-0.060	-0.041
-719.806	-200.000	-0.003	-0.188
-718.791	800.000	-0.094	-0.331
-717.777	496.609	-0.098	0.230
-716.762	-137.100	-0.347	-0.040
-715.748	-125.078	-0.167	-0.026
-714.733	-137.500	-0.250	-0.029
-713.718	-86.430	0.276	0.086
-712.704	-109.540	0.222	-0.048
-711.689	800.000	0.065	-0.253
-710.675	519.072	-0.057	-0.135
-709.660	12.579	0.233	-0.183
-708.645	-200.000	0.047	0.223
-707.631	-8.996	-0.127	-0.086
-706.616	-86.399	0.138	-0.043
-705.602	-37.992	0.260	-0.141
-704.587	-13.944	0.173	-0.114
-703.572	151.331	0.153	-0.212
-702.558	-200.000	-0.006	0.034
-701.543	45.758	-0.142	0.134
-700.529	-200.000	0.022	0.109
-699.514	21.881	-0.213	0.176
-698.499	366.365	0.140	0.288
-697.485	800.000	-0.045	-0.157
-696.470	-200.000	-0.010	0.046
-695.456	102.192	-0.045	0.053
-694.441	800.000	-0.055	-0.161
-693.426	-147.180	-0.364	-0.032
-692.412	-200.000	-0.064	-0.309
-691.397	-39.882	0.035	-0.018
-690.383	141.082	0.051	0.068
-689.368	-83.629	-0.381	0.124
-688.354	-92.837	-0.303	-0.086
-687.339	-117.873	-0.370	-0.067
-686.324	-83.464	0.366	-0.119
-685.310	125.850	0.283	-0.363
-684.295	-200.000	-0.012	-0.217
-683.281	-106.528	0.115	0.026
-682.266	-200.000	0.037	-0.256
-681.251	73.379	-0.317	-0.337
-680.237	-96.829	0.323	-0.086
-679.222	-157.525	0.251	0.015
-678.208	65.444	0.132	-0.136
-677.193	107.675	0.065	-0.079
-676.178	-161.167	0.089	0.005
-675.164	800.000	-0.024	-0.078
-674.149	512.967	-0.086	0.205
-673.135	-80.149	0.207	0.071
-672.120	74.970	-0.067	0.072
-671.105	43.465	0.250	-0.233
-670.091	800.000	-0.147	-0.425
-669.076	-200.000	0.047	-0.299
-668.062	9.954	0.115	-0.088
-667.047	-16.081	-0.106	0.069
-666.032	564.226	-0.079	0.194
-665.018	-185.873	-0.157	-0.002
-664.003	-116.511	-0.396	0.074
-662.989	-81.369	-0.206	-0.069
-661.974	-92.153	0.347	-0.100
-660.959	72.873	-0.136	0.145
-659.945	-200.000	-0.030	0.135
-658.930	-200.000	-0.016	0.105
-657.916	-126.227	-0.118	-0.018
-656.901	0.085	0.147	0.107
-655.886	286.887	0.177	-0.324
-654.872	36.464	-0.208	-0.186
-653.857	800.000	-0.133	-0.493
-652.843	137.604	0.061	-0.081
-651.828	-34.518	0.474	0.264
-650.814	-75.716	0.085	0.031
-649.799	-191.456	-0.131	-0.001
-648.784	-77.516	-0.259	-0.091
-647.770	204.427	0.067	-0.106
-646.755	-3.742	-0.170	-0.120
-645.741	193.995	-0.079	0.121
-644.726	2.873	-0.449	-0.330
-643.711	-200.000	-0.033	0.282
-642.697	537.767	0.055	-0.133
-641.682	141.795	0.034	-0.046
-640.668	94.638	-0.183	-0.211
-639.653	-72.128	-0.254	-0.096
-638.638	800.000	0.051	-0.150
-637.624	-140.484	0.031	0.003
-636.609	-27.659	-0.174	-0.102
-635.595	-61.895	0.107	-0.045
-634.580	-200.000	-0.004	0.166
-633.565	-118.964	-0.479	-0.085
-632.551	-21.586	0.288	0.178
-631.536	143.042	-0.061	0.082
-630.522	295.862	-0.141	-0.262
-629.507	614.004	-0.150	-0.382
-628.492	800.000	-0.023	0.102
-627.478	133.196	0.269	-0.353
-626.463	531.020	-0.110	-0.263
-625.449	-88.291	0.098	-0.030
-624.434	-200.000	0.006	-0.077
-623.419	60.289	0.058	-0.058
-622.405	70.541	0.062	0.065
-621.390	382.307	0.068	0.141
-620.376	-200.000	0.003	-0.266
-619.361	-62.077	0.239	-0.101
-618.346	-56.314	-0.118	0.053
-617.332	391.851	-0.145	-0.305
-616.317	526.365	0.081	-0.192
-615.303	181.658	-0.158	0.235
-614.288	-103.137	0.396	-0.095
-613.273	-0.350	-0.129	-0.093
-612.259	-41.631	0.126	-0.066
-611.244	-146.359	-0.358	-0.032
-610.230	670.389	-0.119	0.311
-609.215	302.335	-0.230	-0.431
-608.201	10.438	-0.465	-0.359
-607.186	446.473	0.173	-0.385
-606.171	-123.405	-0.275	-0.044
-605.157	-200.000	-0.039	0.284
-604.142	800.000	-0.034	0.134
-603.128	554.456	-0.016	-0.039
-602.113	800.000	-0.082	0.353
-601.098	764.812	-0.045	-0.123
-600.084	-200.000	0.036	-0.191
-599.069	-200.000	0.031	0.162
-598.055	-48.055	-0.174	-0.085
-597.040	800.000	-0.031	0.108
-596.025	-68.686	0.217	-0.085
-595.011	-97.481	-0.136	0.036
-593.996	-71.288	0.036	-0.013
-592.982	120.186	-0.126	0.158
-591.967	-200.000	0.013	0.064
-590.952	-79.023	0.242	0.083
-589.938	-200.000	0.004	0.204
-588.923	-117.998	-0.055	-0.010
-587.909	31.078	-0.111	-0.096
-586.894	-63.358	0.039	0.016
-585.879	-200.000	0.012	0.476
-584.865	-67.055	0.289	-0.116
-583.850	-200.000	0.006	-0.044
-582.836	-200.000	-0.049	-0.272
-581.821	800.000	-0.019	0.056
-580.806	3.838	-0.119	0.088
-579.792	142.038	0.129	0.174
-578.777	-117.984	0.282	-0.051
-577.763	83.667	-0.239	-0.264
-576.748	226.975	-0.110	0.181
-575.733	306.025	-0.034	0.064
-574.719	49.537	-0.117	0.111
-573.704	-5.587	0.262	0.182
-572.690	-39.149	-0.162	0.086
-571.675	-93.001	0.289	-0.081
-570.661	24.866	-0.299	-0.251
-569.646	800.000	0.097	0.333
-568.631	-21.873	-0.316	0.195
-567.617	4.762	0.124	0.092
-566.602	800.000	0.071	0.224
-565.588	800.000	-0.032	0.133
-564.573	114.150	0.163	-0.201
-563.558	-200.000	-0.018	0.113
-562.544	259.976	0.161	0.281
-561.529	-151.161	-0.080	0.006
-560.515	-87.510	-0.366	0.112
-559.500	-200.000	-0.014	-0.220
-558.485	280.443	0.145	-0.262
-557.471	-69.216	0.493	-0.192
-556.456	-139.565	0.211	0.023
-555.442	-180.112	-0.208	0.004
-554.427	-129.163	-0.160	0.023
-553.412	-50.745	-0.207	0.099
-552.398	333.413	-0.080	-0.157
-551.383	499.492	-0.057	0.133
-550.369	-200.000	-0.019	0.198
-549.354	57.605	0.146	-0.144
-548.339	-200.000	-0.012	-0.062
-547.325	-75.421	0.283	0.102
-546.310	-68.654	0.109	0.043
-545.296	-100.366	0.249	-0.062
-544.281	-107.365	0.191	0.042
-543.266	-60.675	0.203	0.087
-542.252	-98.185	-0.253	0.066
-541.237	-200.000	0.040	-0.197
-540.223	-200.000	-0.028	0.210
-539.208	-200.000	-0.007	0.091
-538.193	404.530	-0.048	-0.102
-537.179	244.715	0.107	-0.182
-536.164	54.477	-0.068	-0.066
-535.150	-200.000	0.047	-0.437
-534.135	-11.554	0.264	0.175
-533.121	94.242	0.094	-0.108
-532.106	-0.982	0.100	0.072
-531.091	-24.227	0.178	-0.107
-530.077	-38.030	-0.085	-0.046
-529.062	204.679	-0.242	-0.380
-528.048	273.604	-0.164	-0.292
-527.033	800.000	0.060	-0.193
-526.018	34.252	0.229	-0.202
-525.004	372.044	-0.160	-0.329
-523.989	252.282	0.173	-0.298
-522.975	-142.003	0.128	-0.013
-521.960	20.806	-0.023	0.019
-520.945	-200.000	0.030	0.251
-519.931	131.923	0.123	-0.160
-518.916	-200.000	0.045	-0.256
-517.902	355.828	-0.096	0.193
-516.887	-200.000	0.001	-0.039
-515.872	-200.000	-0.053	-0.424
-514.858	258.865	-0.023	-0.041
-513.843	-26.115	0.239	-0.142
-512.829	-67.464	-0.111	-0.044
-511.814	216.462	0.118	0.190
-510.799	150.028	-0.148	0.202
-509.785	140.665	-0.174	0.232
-508.770	-17.243	0.172	-0.110
-507.756	129.750	-0.292	0.377
-506.741	21.058	-0.049	0.040
-505.726	-27.685	-0.294	-0.172
-504.712	9.297	0.146	0.112
-503.697	-127.851	-0.046	0.007
-502.683	-31.996	0.099	0.056
-501.668	101.751	-0.174	0.205
-500.653	67.675	0.098	-0.101
-499.639	216.709	0.131	-0.210
-498.624	-109.160	-0.038	0.008
-497.610	-9.999	-0.178	-0.120
-496.595	457.007	0.214	-0.479
-495.581	-57.010	0.190	-0.085
-494.566	40.911	-0.180	0.164
-493.551	4.801	0.174	0.129
-492.537	-200.000	0.047	-0.255
-491.522	-75.047	0.173	0.062
-490.508	599.059	-0.100	-0.251
-489.493	-96.787	-0.330	0.087
-488.478	-27.873	0.473	-0.276
-487.464	-200.000	-0.019	-0.371
-486.449	-200.000	0.016	-0.324
-485.435	343.078	0.069	-0.137
-484.420	40.869	0.141	-0.128
-483.405	481.631	0.039	0.088
-482.391	800.000	-0.015	0.058
-481.376	-98.573	-0.289	0.074
-480.362	1.163	0.069	0.050
-479.347	800.000	-0.088	0.252
-478.332	800.000	0.124	0.496
-477.318	-38.578	0.509	-0.271
-476.303	-47.464	-0.198	0.097
-475.289	258.268	-0.087	0.152
-474.274	319.194	-0.123	0.236
-473.259	383.822	-0.171	0.354
-472.245	561.361	0.131	-0.318
-471.230	-137.918	-0.361	0.041
-470.216	163.063	0.110	-0.156
-469.201	-200.000	-0.000	0.098
-468.186	26.856	0.050	-0.042
-467.172	-200.000	0.054	-0.320
-466.157	-175.057	-0.169	0.005
-465.143	-166.339	0.133	0.006
-464.128	-200.000	-0.035	-0.356
-463.113	-54.752	-0.224	0.102
-462.099	-46.289	-0.250	0.124
-461.084	-200.000	0.041	-0.196
-460.070	79.682	-0.152	0.164
-459.055	64.735	0.118	0.120
-458.040	-32.899	-0.242	0.136
-457.026	-200.000	0.005	-0.265
-456.011	-35.637	-0.219	-0.119
-454.997	-200.000	0.003	0.228
-453.982	-20.600	-0.235	-0.145
-452.968	201.276	0.062	0.096
-451.953	-180.348	0.078	-0.002
-450.938	131.485	0.097	-0.126
-449.924	800.000	-0.054	-0.185
-448.909	156.159	0.152	0.211
-447.895	-7.388	0.148	0.101
-446.880	-160.804	0.226	-0.012
-445.865	-200.000	-0.006	0.079
-444.851	301.890	-0.066	0.122
-443.836	-93.049	0.071	0.020
-442.822	-141.126	-0.239	0.025
-441.807	-200.000	-0.023	0.309
-440.792	-104.107	-0.115	-0.027
-439.778	233.912	-0.100	-0.167
-438.763	-199.595	0.113	0.001
-437.749	-200.000	-0.032	0.192
-436.734	450.958	-0.159	-0.353
-435.719	74.488	0.228	-0.241
-434.705	-108.021	-0.263	0.057
-433.690	-44.734	0.174	0.087
-432.676	-200.000	-0.044	-0.208
-431.661	-200.000	-0.071	0.374
-430.646	-200.000	0.071	0.537
-429.632	-62.045	-0.171	0.072
-428.617	19.747	-0.168	-0.136
-427.603	800.000	0.106	-0.307
-426.588	37.367	-0.067	0.060
-425.573	12.815	0.008	-0.007
-424.559	-118.722	0.106	0.019
-423.544	256.138	-0.101	-0.175
-422.530	137.999	0.079	0.104
-421.515	-127.910	-0.134	-0.019
-420.500	309.563	0.012	-0.023
-419.486	-13.059	-0.136	-0.089
-418.471	-126.194	0.346	0.052
-417.457	800.000	-0.032	-0.117
-416.442	-51.306	0.230	0.108
-415.428	27.110	-0.064	0.054
-414.413	19.675	0.086	0.070
-413.398	-26.756	0.196	-0.116
-412.384	470.692	0.130	-0.294
-411.369	64.482	0.503	0.510
-410.355	-73.475	-0.147	0.054
-409.340	-87.786	0.265	-0.080
-408.325	-200.000	0.024	-0.397
-407.311	-116.646	-0.188	-0.035
-406.296	-146.888	-0.180	-0.016
-405.282	-130.728	0.048	-0.007
-404.267	247.295	0.160	0.272
-403.252	800.000	-0.061	-0.230
-402.238	375.297	0.122	0.249
-401.223	-200.000	-0.001	0.030
-400.209	123.784	-0.176	-0.222
-399.194	-66.460	-0.181	0.072
-398.179	-200.000	0.030	0.191
-397.165	-45.197	0.188	-0.094
-396.150	800.000	0.047	-0.161
-395.136	162.716	-0.043	-0.061
-394.121	291.522	-0.253	-0.462
-393.106	372.015	0.139	-0.283
-392.092	756.618	-0.086	-0.235
-391.077	79.127	0.113	0.122
-390.063	622.636	0.041	0.104
-389.048	53.677	-0.269	0.259
-388.033	90.441	0.179	0.201
-387.019	18.969	0.401	0.323
-386.004	-28.563	0.075	0.044
-384.990	-155.989	0.079	0.005
-383.975	-35.959	0.332	0.181
-382.960	-200.000	-0.025	-0.257
-381.946	469.415	-0.051	0.116
-380.931	148.448	-0.243	0.330
-379.917	588.033	-0.116	-0.287
-378.902	-187.663	-0.268	0.004
-377.888	64.213	0.249	-0.251
-376.873	-200.000	-0.008	0.182
-375.858	-39.714	0.252	-0.132
-374.844	273.065	0.064	-0.113
-373.829	196.020	-0.086	0.132
-372.815	702.460	-0.171	0.453
-371.800	144.205	-0.132	0.177
-370.785	-200.000	0.024	-0.265
-369.771	-130.428	0.341	0.046
-368.756	404.509	-0.072	0.153
-367.742	122.045	-0.082	0.103
-366.727	51.453	0.149	-0.142
-365.712	510.452	-0.182	0.426
-364.698	800.000	-0.020	-0.074
-363.683	796.705	0.036	0.101
-362.669	469.665	0.105	0.236
-361.654	281.499	-0.109	-0.195
-360.639	800.000	0.068	-0.198
-359.625	-52.410	0.060	0.028
-358.610	13.416	-0.303	-0.235
-357.596	-200.000	-0.059	0.490
-356.581	-47.910	-0.080	-0.039
-355.566	11.887	-0.043	0.033
-354.552	-10.601	-0.312	0.207
-353.537	-82.808	0.150	-0.049
-352.523	541.235	-0.130	-0.310
-351.508	29.037	0.394	-0.335
-350.493	-200.000	0.005	0.178
-349.479	800.000	0.039	-0.128
-348.464	158.362	0.145	0.202
-347.450	-111.199	-0.071	0.015
-346.435	800.000	0.103	0.364
-345.420	-111.589	-0.259	0.053
-344.406	-69.990	-0.049	-0.019
-343.391	-166.316	0.028	-0.001
-342.377	127.566	-0.109	0.139
-341.362	403.510	0.096	0.202
-340.348	800.000	-0.064	-0.273
-339.333	1.737	-0.081	-0.059
-338.318	184.858	-0.064	-0.094
-337.304	-101.490	-0.345	-0.084
-336.289	5.601	-0.037	-0.027
-335.275	34.549	-0.154	-0.135
-334.260	388.758	0.029	-0.060
-333.245	91.732	0.014	-0.016
-332.231	499.698	-0.121	-0.280
-331.216	-184.147	-0.240	0.004
-330.202	582.497	-0.057	0.139
-329.187	4.612	-0.083	0.061
-328.172	-131.379	0.220	0.029
-327.158	800.000	-0.088	0.300
-326.143	382.286	-0.085	-0.175
-325.129	116.083	-0.108	0.132
-324.114	191.770	0.161	0.243
-323.099	611.192	0.051	0.127
-322.085	204.742	-0.073	0.114
-321.070	-200.000	0.013	0.249
-320.056	-165.631	0.280	-0.012
-319.041	62.243	-0.113	-0.113
-318.026	-200.000	0.013	-0.060
-317.012	-66.925	0.112	0.044
-315.997	266.929	0.069	0.120
-314.983	-44.480	-0.235	0.118
-313.968	-196.846	0.248	0.002
-312.953	-121.394	0.351	-0.059
-311.939	-5.065	-0.198	0.136
-310.924	-96.533	0.079	-0.021
-309.910	-3.606	0.336	-0.234
-308.895	-90.611	0.164	-0.048
-307.880	288.254	0.110	0.199
-306.866	-71.513	-0.244	0.091
-305.851	800.000	0.024	-0.099
-304.837	11.114	0.257	-0.197
-303.822	110.489	0.273	-0.329
-302.807	-22.166	0.180	-0.109
-301.793	-13.006	0.278	0.181
-300.778	800.000	-0.048	0.143
-299.764	299.910	-0.042	-0.078
-298.749	500.404	-0.046	-0.106
-297.735	-0.788	0.087	0.061
-296.720	319.351	-0.090	0.170
-295.705	-200.000	-0.015	-0.114
-294.691	-200.000	0.028	-0.209
-293.676	220.819	-0.091	-0.146
-292.662	-200.000	-0.011	-0.132
-291.647	-54.958	-0.092	-0.041
-290.632	-108.316	-0.139	-0.030
-289.618	-99.730	-0.403	0.101
-288.603	32.967	-0.155	-0.134
-287.589	800.000	0.040	-0.124
-286.574	-88.286	0.436	-0.131
-285.559	256.518	-0.073	-0.125
-284.545	-86.551	0.310	-0.095
-283.530	800.000	-0.054	0.160
-282.516	-66.015	0.215	0.086
-281.501	594.188	-0.040	-0.098
-280.486	318.650	0.195	0.370
-279.472	-200.000	-0.049	0.408
-278.457	-200.000	0.055	-0.431
-277.443	101.577	0.215	-0.250
-276.428	-75.280	0.086	-0.031
-275.413	27.015	0.091	-0.076
-274.399	800.000	0.078	-0.287
-273.384	-59.493	0.230	0.099
-272.370	91.012	-0.248	-0.279
-271.355	11.140	-0.275	0.210
-270.340	621.364	-0.060	0.151
-269.326	-169.267	-0.402	-0.015
-268.311	-126.882	-0.201	0.030
-267.297	192.875	-0.012	0.019
-266.282	-167.764	0.064	-0.003
-265.267	-75.462	0.324	0.115
-264.253	312.012	-0.236	-0.443
-263.238	17.490	-0.153	0.121
-262.224	800.000	0.028	0.099
-261.209	82.539	-0.027	0.029
-260.195	235.176	-0.198	0.327
-259.180	-75.228	0.118	-0.042
-258.165	-52.083	0.208	-0.097
-257.151	-200.000	0.014	0.070
-256.136	523.273	-0.124	0.292
-255.122	218.567	-0.100	0.159
-254.107	14.679	0.141	-0.110
-253.092	-77.058	0.289	0.101
-252.078	-200.000	0.007	-0.403
-251.063	37.764	-0.139	-0.123
-250.049	-128.622	0.266	0.038
-249.034	-200.000	-0.006	-0.271
-248.019	-139.331	-0.355	0.038
-247.005	-87.043	-0.227	-0.069
-245.990	15.267	0.188	0.148
-244.976	488.813	-0.022	-0.051
-243.961	-121.601	-0.166	-0.027
-242.946	738.639	0.127	0.339
-241.932	-157.153	-0.386	-0.023
-240.917	-26.944	0.021	-0.012
-239.903	800.000	0.017	-0.054
-238.888	141.163	-0.129	0.171
-237.873	-200.000	-0.080	0.415
-236.859	135.326	0.100	0.131
-235.844	-148.387	-0.257	0.021
-234.830	-164.544	-0.121	0.005
-233.815	-27.885	0.136	-0.079
-232.800	-5.579	-0.302	0.207
-231.786	800.000	0.068	0.240
-230.771	-142.510	0.126	0.012
-229.757	-134.170	0.300	0.037
-228.742	-91.816	-0.130	-0.037
-227.727	800.000	-0.027	-0.111
-226.713	406.045	-0.029	0.062
-225.698	-200.000	-0.006	-0.072
-224.684	-2.258	-0.264	0.185
-223.669	-10.113	-0.292	-0.194
-222.655	-95.782	-0.064	-0.017
-221.640	-73.171	-0.373	0.136
-220.625	220.467	0.228	0.364
-219.611	-200.000	-0.003	0.242
-218.596	265.990	0.155	-0.270
-217.582	-28.283	0.282	0.162
-216.567	40.961	0.162	-0.146
-215.552	-147.416	0.214	-0.018
-214.538	76.400	-0.069	-0.073
-213.523	-118.001	-0.139	0.025
-212.509	399.383	-0.095	-0.199
-211.494	-200.000	-0.042	-0.254
-210.479	-131.230	-0.368	0.049
-209.465	-67.224	0.255	-0.100
-208.450	220.939	-0.193	0.309
-207.436	-200.000	0.058	0.285
-206.421	-129.871	-0.251	-0.034
-205.406	-135.108	0.196	-0.024
-204.392	-15.087	-0.085	-0.054
-203.377	-200.000	0.012	-0.378
-202.363	116.673	0.171	0.209
-201.348	69.607	0.130	0.134
-200.333	800.000	0.017	0.063
-199.319	-200.000	-0.004	0.260
-198.304	-20.924	-0.383	-0.234
-197.290	-156.433	0.100	-0.006
-196.275	489.625	-0.114	0.260
-195.260	70.409	0.247	0.255
-194.246	-42.712	0.334	-0.170
-193.231	106.972	0.117	0.138
-192.217	159.509	-0.097	0.135
-191.202	-200.000	0.026	0.118
-190.187	31.875	0.329	0.282
-189.173	167.018	-0.146	0.206
-188.158	-81.933	0.457	0.149
-187.144	-200.000	0.039	-0.205
-186.129	-184.766	0.158	0.003
-185.114	-151.950	-0.077	0.006
-184.100	-109.662	0.406	-0.085
-183.085	-200.000	0.037	0.195
-182.071	-50.982	-0.364	-0.170
-181.056	-200.000	0.347	0.001
-180.042	-200.000	-0.096	0.516
-179.027	77.121	0.199	0.211
-178.012	-200.000	0.026	-0.163
-176.998	800.000	0.053	-0.146
-175.983	186.231	-0.106	0.157
-174.969	89.513	-0.119	-0.132
-173.954	-102.800	-0.257	-0.061
-172.939	-149.691	-0.165	-0.013
-171.925	-166.399	0.103	0.004
-170.910	-164.118	0.293	0.013
-169.896	136.735	0.067	-0.087
-168.881	335.838	-0.143	-0.276
-167.866	-16.185	0.069	0.044
-166.852	-200.000	-0.052	0.331
-165.837	-116.828	-0.141	-0.026
-164.823	-200.000	-0.001	-0.035
-163.808	308.665	-0.137	0.255
-162.793	-127.070	0.537	-0.078
-161.779	-200.000	-0.015	0.327
-160.764	-166.447	-0.057	-0.002
-159.750	93.943	0.226	0.255
-158.735	-17.727	0.176	-0.110
-157.720	-200.000	0.016	0.189
-156.706	58.351	-0.266	0.259
-155.691	99.480	0.128	0.148
-154.677	-28.827	-0.164	0.094
-153.662	99.371	0.291	-0.335
-152.647	-200.000	0.028	-0.219
-151.633	182.794	-0.174	0.256
-150.618	-25.833	-0.122	0.072
-149.604	800.000	0.034	-0.127
-148.589	94.060	-0.187	-0.211
-147.574	225.351	-0.068	-0.110
-146.560	800.000	-0.029	0.105
-145.545	-63.047	0.126	0.052
-144.531	-42.846	0.147	0.074
-143.516	223.317	0.173	-0.278
-142.502	-63.584	-0.317	0.129
-141.487	-183.811	-0.158	0.003
-140.472	-200.000	-0.000	0.010
-139.458	-114.176	0.235	-0.045
-138.443	-40.477	0.148	-0.077
-137.429	800.000	-0.071	0.238
-136.414	-146.462	-0.291	-0.025
-135.399	-131.760	-0.130	0.017
-134.385	-53.093	0.351	0.160
-133.370	230.616	0.087	0.142
-132.356	239.885	-0.033	-0.055
-131.341	-136.627	-0.192	0.022
-130.326	177.909	-0.042	-0.062
-129.312	156.315	-0.073	-0.100
-128.297	-95.153	-0.229	0.061
-127.283	800.000	-0.044	0.189
-126.268	54.738	0.222	-0.213
-125.253	-118.442	0.127	-0.022
-124.239	26.195	0.114	-0.095
-123.224	-28.289	0.220	-0.126
-122.210	370.607	-0.169	0.340
-121.195	-174.530	-0.146	0.004
-120.180	171.318	-0.150	-0.213
-119.166	703.404	0.092	-0.242
-118.151	9.777	0.183	-0.138
-117.137	-64.314	-0.033	-0.013
-116.122	432.097	-0.140	-0.302
-115.107	-200.000	-0.025	0.147
-114.093	38.708	0.058	0.051
-113.078	-9.011	-0.154	0.102
-112.064	-43.783	0.302	0.151
-111.049	-62.789	-0.539	0.222
-110.034	-17.479	0.192	0.120
-109.020	-200.000	-0.018	-0.095
-108.005	409.405	0.100	-0.210
-106.991	-200.000	-0.029	0.242
-105.976	124.927	0.077	0.097
-104.962	800.000	0.063	0.253
-103.947	800.000	-0.084	-0.284
-102.932	21.820	-0.207	-0.168
-101.918	-39.329	0.191	0.100
-100.903	21.679	0.087	-0.070
-99.889	125.503	0.152	-0.191
-98.874	-118.706	-0.185	0.032
-97.859	138.320	0.135	0.176
-96.845	156.475	0.052	0.071
-95.830	-36.102	0.228	-0.122
-94.816	67.248	0.119	-0.121
-93.801	-133.615	-0.183	0.023
-92.786	644.847	0.019	0.049
-91.772	-24.887	0.092	-0.054
-90.757	-96.802	0.194	-0.051
-89.743	528.876	0.086	0.202
-88.728	800.000	-0.041	-0.174
-87.713	5.175	0.369	-0.270
-86.699	698.889	-0.021	-0.054
-85.684	79.339	-0.370	0.394
-84.670	58.617	0.281	0.274
-83.655	137.024	-0.072	-0.094
-82.640	800.000	-0.020	-0.085
-81.626	-17.979	0.044	-0.027
-80.611	-90.886	0.204	0.058
-79.597	117.335	0.223	-0.273
-78.582	189.120	-0.046	-0.068
-77.567	-6.922	-0.102	-0.069
-76.553	-66.486	0.507	0.200
-75.538	-97.757	-0.141	-0.036
-74.524	313.086	-0.049	0.092
-73.509	674.914	0.109	0.282
-72.494	206.211	-0.219	-0.338
-71.480	48.005	-0.274	-0.254
-70.465	800.000	0.121	0.420
-69.451	-200.000	-0.043	0.355
-68.436	-156.478	-0.168	-0.010
-67.422	-200.000	0.034	-0.207
-66.407	19.446	-0.234	0.186
-65.392	145.911	0.050	-0.067
-64.378	-200.000	0.028	0.248
-63.363	-122.493	-0.178	0.029
-62.349	22.597	-0.107	-0.087
-61.334	152.628	-0.826	-1.120
-60.319	800.000	0.139	0.588
-59.305	-200.000	-0.026	-0.534
-58.290	-200.000	0.036	0.945
-57.276	463.556	0.733	1.624
-56.261	-200.000	94.938	559.804
-55.246	633.295	1382.715	3475.285
-54.232	185.467	2605.694	3837.155
-53.217	121.465	2218.010	2740.432
-52.203	45.512	1750.731	1602.846
-51.188	38.001	1560.237	1375.690
-50.173	35.567	1532.357	1334.170
-49.159	53.241	1582.456	1503.029
-48.144	56.882	1601.408	1546.689
-47.130	38.431	1556.832	1375.491
-46.115	35.228	1541.173	1339.264
-45.100	34.995	1537.847	1334.698
-44.086	34.951	1536.065	1332.792
-43.071	34.975	1534.221	1331.306
-42.057	34.991	1532.273	1329.677
-41.042	34.892	1531.644	1328.388
-40.027	34.953	1529.626	1327.010
-39.013	34.860	1528.496	1325.332
-37.998	34.909	1527.295	1324.574
-36.984	34.945	1525.807	1323.481
-35.969	34.956	1524.466	1322.344
-34.954	34.853	1523.288	1320.556
-33.940	34.863	1521.764	1319.250
-32.925	34.929	1520.045	1318.162
-31.911	34.973	1518.881	1317.407
-30.896	35.045	1517.324	1316.496
-29.881	35.017	1515.810	1314.940
-28.867	34.953	1514.885	1313.648
-27.852	35.000	1512.991	1312.272
-26.838	34.997	1511.532	1310.935
-25.823	35.035	1510.018	1309.827
-24.809	34.966	1508.500	1307.988
-23.794	35.036	1506.948	1307.070
-22.779	35.015	1505.833	1305.907
-21.765	34.964	1505.201	1304.958
-20.750	35.145	1503.428	1304.605
-19.736	35.118	1502.022	1303.147
-18.721	35.049	1501.253	1301.958
-17.706	34.889	1500.590	1300.246
-16.692	34.951	1499.417	1299.596
-15.677	35.000	1498.090	1298.728
-14.663	35.009	1497.136	1297.909
-13.648	34.917	1496.356	1296.562
-12.633	34.899	1495.456	1295.611
-11.619	34.926	1494.319	1294.757
-10.604	34.773	1494.173	1293.543
-9.590	34.970	1492.940	1293.753
-8.575	34.897	1492.168	1292.542
-7.560	34.884	1491.454	1291.786
-6.546	35.037	1490.075	1291.571
-5.531	34.867	1489.728	1290.068
-4.517	34.962	1488.734	1289.797
-3.502	34.934	1487.514	1288.504
-2.487	34.893	1486.554	1287.340
-1.473	34.906	1485.433	1286.411
-0.458	34.942	1484.034	1285.387
0.556	37.060	1475.405	1275.133
1.571	34.040	1447.596	1231.467
2.586	29.926	1382.888	1150.804
3.600	27.742	1297.371	1066.792
4.615	25.189	1249.194	1012.696
5.629	21.221	1191.297	944.264
6.644	12.684	1105.448	833.118
7.659	5.785	1063.791	767.960
8.673	4.803	1057.653	758.679
9.688	4.619	1054.421	755.400
10.702	4.332	1052.907	752.855
11.717	4.487	1051.959	752.861
12.731	7.786	1055.129	771.078
13.746	16.251	1066.615	820.729
14.761	21.977	1073.698	854.051
15.775	22.277	1073.268	855.090
16.790	21.617	1070.851	849.891
17.804	20.478	1069.488	843.209
18.819	19.713	1067.028	837.488
19.834	19.210	1065.737	833.966
20.848	19.114	1064.785	832.685
21.863	18.910	1064.652	831.517
22.877	18.888	1063.464	830.409
23.892	18.623	1062.866	828.589
24.907	18.520	1062.234	827.527
25.921	18.525	1061.533	826.930
26.936	18.483	1060.782	826.071
27.950	18.429	1059.867	825.028
28.965	18.514	1058.344	824.177
29.980	18.571	1057.358	823.610
30.994	18.756	1055.972	823.346
32.009	18.818	1055.404	823.126
33.023	18.964	1054.760	823.247
34.038	18.831	1054.254	822.146
35.053	18.799	1053.029	820.966
36.067	18.604	1052.191	819.307
37.082	18.616	1051.122	818.459
38.096	18.721	1050.254	818.212
39.111	18.713	1049.776	817.730
40.126	18.733	1049.553	817.579
41.140	18.739	1048.009	816.331
42.155	18.619	1045.927	814.069
43.169	18.272	1045.873	812.309
44.184	18.194	1044.755	810.996
45.199	18.180	1043.342	809.760
46.213	18.234	1042.471	809.271
47.228	18.266	1041.562	808.645
48.242	18.503	1040.790	809.092
49.257	18.720	1039.654	809.161
50.271	18.475	1039.250	807.620
51.286	18.562	1038.006	806.991
52.301	18.629	1037.611	806.930
53.315	18.652	1036.829	806.356
54.330	18.548	1035.797	804.994
55.344	18.399	1034.478	803.201
56.359	18.404	1033.969	802.756
57.374	18.338	1032.702	801.392
58.388	18.297	1032.394	800.893
59.403	18.254	1031.031	799.561
60.417	18.214	1029.872	798.405
61.432	18.278	1029.417	798.281
62.447	18.263	1028.840	797.694
63.461	18.078	1028.066	796.163
64.476	18.013	1027.081	795.027
65.490	18.102	1025.886	794.443
66.505	18.026	1025.301	793.567
67.520	18.075	1025.085	793.555
68.534	18.052	1023.543	792.185
69.549	18.026	1022.973	791.557
70.563	18.031	1022.040	790.785
71.578	18.051	1021.238	790.189
72.593	17.897	1020.417	788.770
73.607	17.703	1019.582	787.162
74.622	17.815	1018.313	786.627
75.636	17.877	1017.644	786.328
76.651	17.911	1016.770	785.737
77.666	17.942	1016.105	785.298
78.680	17.951	1015.184	784.558
79.695	18.023	1014.945	784.635
80.709	17.969	1014.369	783.872
81.724	17.955	1014.080	783.515
82.739	18.164	1012.933	783.518
83.753	18.271	1012.435	783.553
84.768	18.511	1011.434	783.804
85.782	18.730	1011.032	784.426
86.797	18.767	1010.787	784.336
87.812	18.949	1009.661	784.223
88.826	18.757	1008.798	782.605
89.841	18.662	1007.507	781.105
90.855	18.711	1006.952	780.828
91.870	18.858	1005.836	780.560
92.884	18.816	1005.436	779.992
93.899	18.996	1004.429	779.958
94.914	18.795	1003.843	778.523
95.928	18.786	1003.285	777.981
96.943	18.973	1002.152	777.879
97.957	18.723	1001.379	776.078
98.972	18.685	1000.407	775.088
99.987	18.775	999.570	774.776
101.001	18.701	999.429	774.264
102.016	18.748	998.419	773.626
103.030	18.838	996.857	772.752
104.045	18.614	996.783	771.617
105.060	18.910	995.522	771.901
106.074	18.711	994.416	770.083
107.089	18.378	993.609	767.900
108.103	18.181	992.967	766.452
109.118	18.091	991.498	764.846
110.133	18.106	990.596	764.152
111.147	18.142	989.324	763.263
112.162	17.966	988.853	762.045
113.176	18.099	987.952	761.877
114.191	18.181	987.543	761.860
115.206	18.427	986.182	761.838
116.220	18.319	985.617	760.853
117.235	18.337	984.814	760.245
118.249	18.239	983.738	758.912
119.264	18.113	982.926	757.662
120.279	18.153	982.112	757.144
121.293	18.007	981.593	756.029
122.308	18.048	980.446	755.259
123.322	18.042	979.231	754.232
124.337	17.817	978.325	752.474
125.352	17.814	977.262	751.576
126.366	17.859	976.451	751.087
127.381	17.950	975.316	750.546
128.395	17.924	974.093	749.425
129.410	17.886	973.380	748.642
130.424	17.997	972.508	748.392
131.439	18.027	971.840	747.943
132.454	18.231	970.923	748.062
133.468	18.268	970.540	747.866
134.483	18.388	969.252	747.330
135.497	18.233	969.085	746.458
136.512	18.324	968.041	745.986
137.527	18.349	967.682	745.750
138.541	18.217	966.714	744.364
139.556	18.299	965.836	743.978
140.570	18.316	965.445	743.684
141.585	18.470	964.604	743.639
142.600	18.538	964.546	743.825
143.614	18.844	963.295	744.120
144.629	18.751	962.693	743.188
145.643	18.837	962.144	743.069
146.658	18.819	961.165	742.168
147.673	18.611	960.151	740.420
148.687	18.443	958.962	738.714
149.702	18.380	958.177	737.774
150.716	18.305	957.180	736.617
151.731	18.307	956.188	735.796
152.746	18.215	955.848	735.077
153.760	18.261	955.070	734.610
154.775	18.381	954.296	734.464
155.789	18.564	953.328	734.440
156.804	18.428	952.822	733.401
157.819	18.476	952.081	732.974
158.833	18.597	951.080	732.653
159.848	18.828	950.421	733.067
160.862	18.797	949.611	732.244
161.877	18.805	949.240	731.929
162.892	18.638	947.982	730.184
163.906	18.275	947.047	727.855
164.921	18.257	946.208	727.070
165.935	18.369	945.384	726.845
166.950	18.292	944.527	725.796
167.964	18.531	943.435	725.908
168.979	18.382	942.467	724.465
169.994	18.446	941.050	723.582
171.008	18.260	940.430	722.257
172.023	18.414	939.688	722.272
173.037	18.590	939.072	722.476
174.052	18.706	938.714	722.625
175.067	18.730	937.990	722.106
176.081	18.603	936.693	720.512
177.096	18.314	935.892	718.619
178.110	18.188	934.993	717.334
179.125	18.432	934.425	717.860
180.140	18.446	933.640	717.252
181.154	18.349	933.072	716.345
182.169	18.605	932.463	716.886
183.183	18.708	931.954	716.859
184.198	18.782	931.402	716.682
185.213	18.742	930.404	715.680
186.227	18.905	929.554	715.643
187.242	18.718	929.534	714.788
188.256	18.997	928.770	715.298
189.271	19.034	928.027	714.815
190.286	19.047	927.562	714.448
191.300	18.867	926.426	712.764
192.315	18.387	925.312	709.852
193.329	18.229	924.662	708.637
194.344	18.165	924.080	707.863
195.359	18.420	923.222	708.198
196.373	18.674	922.716	708.795
197.388	18.674	922.629	708.668
198.402	18.642	922.189	708.134
199.417	18.858	921.657	708.553
200.432	19.287	921.056	709.795
201.446	19.124	920.957	708.984
202.461	19.323	920.839	709.650
203.475	19.406	920.138	709.392
204.490	19.400	919.687	708.955
205.504	19.203	918.224	706.956
206.519	18.900	917.476	705.075
207.534	18.774	916.926	704.072
208.548	18.810	916.178	703.585
209.563	18.825	915.219	702.849
210.577	18.892	914.514	702.519
211.592	19.090	913.857	702.758
212.607	19.031	913.815	702.425
213.621	19.206	913.254	702.643
214.636	19.315	912.179	702.198
215.650	19.178	911.591	701.125
216.665	19.236	911.469	701.208
217.680	19.296	911.130	701.126
218.694	19.417	910.547	701.107
219.709	19.383	910.018	700.503
220.723	19.161	909.312	698.994
221.738	19.232	908.586	698.664
222.753	19.247	907.512	697.838
223.767	19.245	906.612	697.073
224.782	19.310	906.029	696.826
225.796	19.356	905.770	696.752
226.811	19.571	904.952	696.928
227.826	19.540	904.034	696.035
228.840	19.272	903.219	694.266
229.855	19.141	902.637	693.230
230.869	19.162	901.953	692.728
231.884	19.157	901.491	692.293
232.899	19.067	900.617	691.197
233.913	19.169	899.675	690.824
234.928	19.038	899.056	689.761
235.942	18.920	898.332	688.672
236.957	18.858	897.374	687.630
237.972	18.881	897.003	687.375
238.986	18.969	896.337	687.156
240.001	18.915	895.761	686.438
241.015	18.838	895.166	685.616
242.030	19.140	894.163	685.990
243.045	19.180	894.048	686.000
244.059	19.331	893.218	685.904
245.074	19.303	892.750	685.370
246.088	19.344	891.996	684.896
247.103	19.315	891.911	684.655
248.117	19.455	891.300	684.682
249.132	19.722	890.572	685.119
250.147	19.923	890.128	685.513
251.161	19.950	889.889	685.374
252.176	20.084	889.370	685.444
253.190	20.223	888.508	685.269
254.205	20.260	887.886	684.873
255.220	20.274	887.620	684.664
256.234	20.178	886.752	683.553
257.249	20.098	886.268	682.807
258.263	20.082	885.899	682.398
259.278	20.266	884.731	682.162
260.293	20.172	884.412	681.485
261.307	20.098	884.365	681.100
262.322	20.135	883.503	680.521
263.336	20.223	882.961	680.388
264.351	20.345	882.237	680.248
265.366	20.402	881.427	679.784
266.380	20.428	880.437	679.063
267.395	20.412	880.538	679.020
268.409	20.216	879.547	677.428
269.424	20.159	878.568	676.393
270.439	20.085	878.020	675.625
271.453	20.098	877.323	675.076
272.468	20.006	876.565	674.077
273.482	19.938	875.894	673.238
274.497	19.974	874.976	672.613
275.512	20.032	874.440	672.364
276.526	20.019	873.335	671.406
277.541	20.126	872.947	671.461
278.555	19.996	872.639	670.661
279.570	20.136	872.268	670.860
280.585	20.414	871.500	671.284
281.599	20.362	871.518	671.038
282.614	20.178	870.584	669.550
283.628	20.180	869.781	668.879
284.643	20.227	868.711	668.180
285.657	20.163	868.550	667.749
286.672	20.287	868.055	667.788
287.687	20.292	867.700	667.476
288.701	20.138	867.434	666.617
289.716	20.350	866.737	666.838
290.730	20.274	866.024	665.939
291.745	20.262	865.411	665.363
292.760	20.285	864.594	664.763
293.774	20.286	864.215	664.416
294.789	20.474	863.685	664.671
295.803	20.660	862.820	664.657
296.818	20.319	862.374	662.951
297.833	20.213	861.866	662.096
298.847	20.097	861.151	661.047
299.862	20.300	860.231	661.056
300.876	20.299	859.687	660.576
301.891	20.443	859.154	660.655
302.906	20.501	858.500	660.316
303.920	20.596	858.177	660.368
304.935	20.926	857.400	660.963
305.949	20.835	857.005	660.254
306.964	20.763	856.440	659.490
307.979	20.618	855.496	658.158
308.993	20.560	855.010	657.505
310.008	20.727	854.370	657.586
311.022	20.686	854.154	657.206
312.037	20.660	853.912	656.861
313.052	20.650	852.988	656.058
314.066	20.522	852.346	655.024
315.081	20.217	851.442	653.123
316.095	20.361	850.822	653.128
317.110	20.418	850.123	652.751
318.125	20.412	849.628	652.290
319.139	20.347	849.429	651.834
320.154	20.389	848.922	651.547
321.168	20.461	848.300	651.281
322.183	20.416	847.579	650.500
323.197	20.481	847.233	650.422
324.212	20.699	846.413	650.549
325.227	20.621	845.906	649.812
326.241	20.771	845.287	649.836
327.256	20.405	845.129	648.293
328.270	20.331	844.571	647.530
329.285	20.380	843.954	647.184
330.300	20.337	843.163	646.360
331.314	20.488	842.510	646.362
332.329	20.425	842.037	645.709
333.343	20.504	842.125	646.014
334.358	20.636	841.405	645.895
335.373	20.676	841.105	645.753
336.387	20.765	840.083	645.243
337.402	20.766	839.348	644.624
338.416	20.962	838.825	644.891
339.431	21.027	838.245	644.627
340.446	21.052	838.022	644.492
341.460	20.934	837.887	643.896
342.475	21.250	837.218	644.490
343.489	21.224	836.827	644.036
344.504	21.265	836.101	643.572
345.519	21.328	835.796	643.513
346.533	21.418	835.349	643.443
347.548	21.312	834.763	642.543
348.562	21.268	833.961	641.708
349.577	20.982	833.125	639.958
350.592	20.922	832.341	639.081
351.606	20.713	832.271	638.203
352.621	20.835	831.631	638.102
353.635	20.991	831.018	638.148
354.650	20.951	830.717	637.714
355.665	21.056	830.349	637.757
356.679	21.149	829.939	637.726
357.694	21.196	829.337	637.380
358.708	21.159	828.774	636.756
359.723	21.204	827.906	636.195
360.738	21.075	827.818	635.601
361.752	21.120	827.195	635.233
362.767	21.186	827.075	635.325
363.781	21.222	826.604	635.035
364.796	21.465	826.063	635.449
365.810	21.400	826.103	635.184
366.825	21.699	825.296	635.593
367.840	21.713	825.388	635.660
368.854	21.544	825.190	634.839
369.869	21.553	824.071	633.952
370.883	21.415	823.530	632.983
371.898	21.465	822.881	632.606
372.913	21.525	822.422	632.414
373.927	21.726	821.348	632.257
374.942	21.543	821.058	631.319
375.956	21.551	820.352	630.749
376.971	21.657	819.824	630.668
377.986	21.711	819.703	630.714
379.000	21.951	818.689	630.742
380.015	21.934	818.419	630.417
381.029	21.795	818.032	629.564
382.044	21.841	817.261	629.078
383.059	21.945	816.572	628.867
384.073	21.935	816.232	628.515
385.088	21.792	815.742	627.570
386.102	21.546	814.844	625.942
387.117	21.482	814.356	625.282
388.132	21.606	813.904	625.325
389.146	21.512	813.852	624.891
390.161	21.359	813.174	623.771
391.175	21.639	812.678	624.335
392.190	21.701	812.657	624.485
393.205	21.760	811.980	624.118
394.219	21.719	811.042	623.195
395.234	21.414	810.786	621.859
396.248	21.543	810.262	621.860
397.263	21.380	809.545	620.677
398.278	21.351	809.205	620.257
399.292	21.410	808.585	619.939
400.307	21.190	808.538	619.065
401.321	21.387	807.770	619.122
402.336	21.449	807.329	618.947
403.350	21.447	807.216	618.800
404.365	21.532	806.772	618.707
405.380	21.660	806.267	618.716
406.394	21.926	806.014	619.406
407.409	22.029	805.917	619.638
408.423	22.003	805.664	619.297
409.438	22.134	804.785	619.030
410.453	22.014	804.472	618.313
411.467	22.257	804.054	618.789
412.482	22.281	803.306	618.246
413.496	22.341	803.163	618.290
414.511	22.198	803.035	617.636
415.526	22.392	802.614	617.939
416.540	22.220	802.351	617.076
417.555	22.144	801.582	616.165
418.569	21.888	801.394	615.070
419.584	22.207	800.836	615.702
420.599	22.176	800.191	615.042
421.613	158.896	1368.207	1789.550
422.628	137.927	1450.961	1789.640
