DTS Sentinel unit serial number:	SN413079Multiplexer serial number:	ORYXHardware model number:	OX4-SRSoftware version number:	ORYX F/W v4.00 Oryx Data Collector v3.7.2.0data status	okinstallation	princeton_trtdifferential loss correction	single-endedforward channel	channel 3reverse channel	N/Adate	2019/09/16time	08:12:35forward acquisition time	60.00reverse acquisition time	0.00gamma	496.2192k internal	0.2327k external	0.2327temperature offset calibration	0.9959default loss term (dB/km)	0.3790temperature slope calibration	1.0000multiplexer offset coefficient	1.0000multiplexer slope coefficient	1.0000fibre end	0.00T internal ref (°C)	28.80T ext. ref 1 (°C)	11.82T ext. ref 2 (°C)	25.07length (m)	temperature (°C)	Stokes	anti-Stokes-747.200	16.169	0.217	0.172
-746.185	-200.000	0.027	0.240
-745.171	64.252	0.074	-0.075
-744.156	55.269	-0.414	0.404
-743.142	71.761	-0.301	0.315
-742.127	-200.000	0.037	0.173
-741.112	-36.530	-0.040	0.022
-740.098	627.459	-0.071	-0.181
-739.083	-23.354	0.280	0.170
-738.069	-121.559	-0.064	0.011
-737.054	122.173	0.062	0.078
-736.039	-200.000	-0.008	0.073
-735.025	13.858	-0.263	0.206
-734.010	90.528	-0.240	0.271
-732.996	-200.000	-0.075	-0.387
-731.981	309.730	0.047	0.088
-730.966	-114.762	-0.462	0.089
-729.952	13.175	0.180	0.141
-728.937	-124.049	-0.093	0.015
-727.923	164.209	-0.190	0.269
-726.908	183.714	-0.121	-0.181
-725.894	71.161	-0.203	-0.212
-724.879	-96.670	-0.219	0.058
-723.864	-132.835	-0.377	0.048
-722.850	384.422	-0.116	0.241
-721.835	-168.099	-0.126	-0.005
-720.821	-200.000	-0.018	-0.288
-719.806	800.000	0.028	-0.081
-718.791	-170.240	0.258	0.009
-717.777	510.492	-0.037	0.087
-716.762	90.588	-0.059	-0.067
-715.748	80.686	0.238	-0.259
-714.733	-200.000	0.036	-0.263
-713.718	96.196	-0.216	0.249
-712.704	-102.118	-0.276	-0.067
-711.689	-25.510	-0.323	-0.192
-710.675	-200.000	-0.008	-0.340
-709.660	11.640	0.129	0.100
-708.645	575.911	0.101	-0.249
-707.631	551.403	0.129	-0.313
-706.616	800.000	0.101	0.301
-705.602	-125.490	0.077	0.012
-704.587	-85.994	-0.348	-0.108
-703.572	-200.000	-0.001	-0.085
-702.558	-72.893	-0.284	-0.105
-701.543	-28.428	-0.088	0.051
-700.529	271.157	-0.190	0.337
-699.514	33.938	-0.135	-0.119
-698.499	-136.328	-0.057	-0.007
-697.485	117.867	0.130	0.161
-696.470	229.054	0.183	0.300
-695.456	-7.952	0.268	-0.182
-694.441	-200.000	0.008	0.405
-693.426	-200.000	-0.002	-0.149
-692.412	-200.000	-0.018	-0.290
-691.397	-52.585	-0.210	-0.097
-690.383	107.908	-0.106	0.127
-689.368	-84.138	0.379	-0.121
-688.354	-200.000	-0.007	-0.097
-687.339	-58.965	-0.050	-0.022
-686.324	-102.314	0.167	-0.040
-685.310	102.958	0.176	-0.207
-684.295	333.887	-0.166	-0.324
-683.281	12.980	-0.090	-0.070
-682.266	-200.000	0.023	-0.213
-681.251	265.639	-0.087	0.152
-680.237	230.874	-0.092	-0.151
-679.222	250.515	-0.072	0.122
-678.208	63.297	-0.169	0.171
-677.193	-200.000	-0.018	-0.221
-676.178	48.562	-0.053	0.050
-675.164	-200.000	0.017	-0.319
-674.149	-57.386	0.172	-0.076
-673.135	67.947	-0.059	-0.060
-672.120	-197.213	0.077	-0.000
-671.105	-200.000	0.000	-0.016
-670.091	478.454	-0.160	0.363
-669.076	-131.414	-0.084	0.011
-668.062	-90.717	-0.358	0.104
-667.047	-160.443	-0.131	0.007
-666.032	53.975	0.161	-0.155
-665.018	86.288	0.107	0.119
-664.003	64.194	0.273	-0.276
-662.989	441.025	-0.114	-0.250
-661.974	-200.000	0.020	0.214
-660.959	-200.000	-0.058	-0.263
-659.945	800.000	0.061	-0.199
-658.930	20.267	0.191	0.155
-657.916	-200.000	-0.044	0.348
-656.901	528.782	-0.089	-0.211
-655.886	-95.448	-0.129	0.035
-654.872	37.680	0.079	0.070
-653.857	168.209	0.048	0.069
-652.843	-121.059	0.135	-0.023
-651.828	30.216	0.093	0.080
-650.814	-10.612	0.109	-0.072
-649.799	-176.801	0.275	-0.007
-648.784	-81.702	0.103	-0.034
-647.770	-136.014	-0.171	0.020
-646.755	560.311	0.096	0.232
-645.741	-64.024	0.176	-0.072
-644.726	-200.000	-0.033	0.186
-643.711	418.367	-0.060	0.128
-642.697	92.807	0.094	-0.106
-641.682	-144.559	0.125	-0.012
-640.668	92.194	-0.096	-0.109
-639.653	-138.431	0.331	-0.037
-638.638	-36.781	-0.475	-0.256
-637.624	-34.308	-0.156	-0.086
-636.609	-98.380	0.121	-0.031
-635.595	800.000	-0.061	0.237
-634.580	-76.098	-0.368	-0.130
-633.565	-34.653	0.358	-0.197
-632.551	-57.632	-0.160	0.071
-631.536	-200.000	-0.004	0.025
-630.522	-110.168	0.047	-0.010
-629.507	-186.116	-0.330	0.005
-628.492	143.198	0.026	0.035
-627.478	-61.315	0.079	-0.033
-626.463	800.000	0.035	0.140
-625.449	91.559	-0.149	0.168
-624.434	-200.000	-0.025	-0.305
-623.419	-63.827	-0.198	-0.081
-622.405	77.260	-0.119	0.127
-621.390	-161.392	-0.084	-0.004
-620.376	800.000	0.061	0.241
-619.361	57.321	-0.026	0.025
-618.346	165.381	0.118	-0.167
-617.332	-200.000	0.012	0.125
-616.317	279.628	-0.160	-0.287
-615.303	-134.969	-0.106	-0.013
-614.288	800.000	0.074	-0.270
-613.273	273.896	0.084	-0.150
-612.259	-3.124	-0.192	-0.134
-611.244	199.066	-0.044	0.067
-610.230	-200.000	-0.010	-0.073
-609.215	-99.383	-0.100	0.025
-608.201	108.202	0.170	0.203
-607.186	-119.554	-0.192	-0.033
-606.171	-21.124	-0.065	-0.040
-605.157	-177.088	-0.262	-0.007
-604.142	-32.856	-0.247	-0.138
-603.128	22.447	0.185	0.152
-602.113	-66.968	0.085	0.034
-601.098	-200.000	0.043	-0.204
-600.084	-4.690	-0.257	-0.178
-599.069	-200.000	-0.074	-0.527
-598.055	-200.000	0.000	0.020
-597.040	-6.912	0.045	-0.031
-596.025	74.315	-0.202	-0.212
-595.011	-200.000	-0.032	-0.318
-593.996	-200.000	-0.027	0.305
-592.982	-200.000	-0.012	0.137
-591.967	-21.751	0.282	0.172
-590.952	305.276	-0.085	0.158
-589.938	-40.878	-0.181	0.094
-588.923	690.349	-0.081	-0.212
-587.909	-99.303	-0.082	0.021
-586.894	275.534	-0.071	0.125
-585.879	291.635	0.169	-0.308
-584.865	-12.346	0.239	0.157
-583.850	111.939	-0.143	0.173
-582.836	800.000	-0.063	-0.238
-581.821	190.401	0.014	-0.021
-580.806	21.739	0.203	0.166
-579.792	56.411	-0.181	-0.176
-578.777	742.488	0.099	-0.266
-577.763	-135.695	-0.145	-0.017
-576.748	-66.760	-0.329	-0.130
-575.733	-200.000	0.015	0.076
-574.719	-198.125	0.260	-0.002
-573.704	-200.000	-0.054	-0.359
-572.690	-200.000	0.027	0.188
-571.675	-77.482	0.262	0.091
-570.661	91.576	-0.144	-0.162
-569.646	165.074	-0.275	0.389
-568.631	-200.000	-0.002	-0.205
-567.617	800.000	-0.080	-0.270
-566.602	-66.760	-0.073	0.029
-565.588	133.120	0.189	0.244
-564.573	6.246	0.093	-0.069
-563.558	-44.630	0.134	0.067
-562.544	800.000	0.054	0.180
-561.529	619.746	-0.096	-0.242
-560.515	169.128	-0.057	0.082
-559.500	227.730	-0.059	-0.096
-558.485	202.994	-0.060	-0.093
-557.471	-200.000	-0.005	-0.057
-556.456	94.068	-0.107	0.121
-555.442	482.272	0.060	0.135
-554.427	-5.816	-0.206	0.141
-553.412	-200.000	-0.001	0.112
-552.398	338.302	0.018	-0.035
-551.383	-103.854	-0.160	0.038
-550.369	-200.000	-0.026	-0.120
-549.354	-85.824	-0.296	-0.092
-548.339	-57.105	-0.217	0.096
-547.325	-200.000	-0.043	-0.268
-546.310	6.766	-0.108	-0.081
-545.296	800.000	0.100	-0.314
-544.281	157.734	-0.280	-0.388
-543.266	800.000	-0.080	0.224
-542.252	-82.498	0.228	-0.074
-541.237	-52.245	-0.060	-0.028
-540.223	-27.425	-0.126	-0.073
-539.208	201.619	-0.230	-0.354
-538.193	145.039	-0.251	-0.336
-537.179	13.085	-0.202	-0.156
-536.164	-200.000	0.054	0.276
-535.150	339.706	0.242	-0.472
-534.135	800.000	0.103	-0.375
-533.121	-29.878	-0.429	0.245
-532.106	800.000	0.047	-0.200
-531.091	-200.000	0.009	0.123
-530.077	237.954	-0.186	-0.308
-529.062	-155.534	-0.141	-0.009
-528.048	-13.757	0.373	-0.241
-527.033	127.066	0.193	0.244
-526.018	80.509	0.040	0.043
-525.004	13.128	0.160	0.124
-523.989	-3.004	0.093	-0.065
-522.975	-59.484	-0.104	0.045
-521.960	800.000	0.043	-0.175
-520.945	-156.074	-0.185	0.012
-519.931	800.000	-0.006	-0.017
-518.916	129.313	-0.237	0.303
-517.902	185.548	-0.064	0.094
-516.887	269.221	-0.109	-0.191
-515.872	800.000	-0.087	0.317
-514.858	25.470	0.343	-0.285
-513.843	800.000	-0.073	0.247
-512.829	800.000	-0.040	0.148
-511.814	-200.000	0.054	0.281
-510.799	35.438	-0.136	0.119
-509.785	37.141	-0.122	-0.108
-508.770	240.270	0.092	-0.153
-507.756	-200.000	0.283	0.000
-506.741	-95.008	0.060	0.016
-505.726	43.901	-0.073	0.066
-504.712	184.089	-0.158	-0.234
-503.697	134.298	0.120	-0.155
-502.683	35.439	0.125	0.110
-501.668	800.000	-0.013	0.040
-500.653	-200.000	-0.035	0.496
-499.639	-142.648	0.107	0.010
-498.624	541.027	-0.078	-0.185
-497.610	800.000	0.033	0.119
-496.595	-30.285	-0.216	-0.123
-495.581	-71.865	0.058	0.022
-494.566	311.432	0.105	-0.197
-493.551	416.451	-0.077	-0.165
-492.537	66.599	0.381	0.387
-491.522	268.398	-0.081	-0.141
-490.508	-200.000	-0.022	-0.257
-489.493	707.849	0.064	-0.169
-488.478	-60.619	0.242	0.103
-487.464	-16.811	0.032	-0.020
-486.449	-17.894	-0.155	-0.097
-485.435	-107.726	-0.428	0.093
-484.420	-7.233	0.369	0.250
-483.405	-113.198	-0.256	-0.050
-482.391	26.660	0.512	-0.428
-481.376	185.744	-0.097	-0.143
-480.362	6.229	-0.030	-0.022
-479.347	-111.650	0.201	0.041
-478.332	-200.000	-0.006	0.158
-477.318	31.618	-0.030	0.026
-476.303	-187.100	-0.123	-0.002
-475.289	-200.000	0.041	-0.317
-474.274	-107.000	-0.056	0.012
-473.259	-111.718	-0.210	0.042
-472.245	-172.940	0.434	-0.013
-471.230	-42.054	0.069	-0.035
-470.216	-200.000	-0.027	-0.296
-469.201	42.139	-0.211	-0.191
-468.186	-200.000	-0.043	-0.262
-467.172	-144.612	0.212	-0.019
-466.157	5.294	0.220	0.162
-465.143	94.930	0.235	0.267
-464.128	224.197	-0.148	-0.238
-463.113	748.826	-0.083	0.222
-462.099	84.875	0.094	0.103
-461.084	-18.567	-0.170	0.106
-460.070	800.000	0.026	0.072
-459.055	-56.148	-0.208	0.092
-458.040	19.232	-0.111	-0.089
-457.026	-36.143	0.345	0.186
-456.011	43.588	-0.168	-0.153
-454.997	23.977	-0.195	0.160
-453.982	-52.963	-0.194	0.089
-452.968	800.000	-0.017	-0.052
-451.953	800.000	-0.143	-0.409
-450.938	-151.275	0.409	-0.030
-449.924	89.999	-0.187	-0.208
-448.909	-68.702	0.163	-0.063
-447.895	-138.165	-0.273	-0.030
-446.880	-200.000	0.031	0.232
-445.865	-18.778	-0.246	0.153
-444.851	204.179	0.169	-0.261
-443.836	-72.416	0.281	0.103
-442.822	-25.186	-0.149	-0.088
-441.807	-116.308	0.106	-0.020
-440.792	155.897	-0.080	-0.110
-439.778	297.128	0.079	0.145
-438.763	-200.000	0.011	-0.290
-437.749	-13.724	-0.070	0.045
-436.734	-65.429	0.330	-0.132
-435.719	-183.164	0.309	0.005
-434.705	-196.284	-0.101	0.001
-433.690	-136.522	0.407	0.047
-432.676	-156.521	-0.074	0.005
-431.661	-76.922	-0.191	-0.067
-430.646	-58.263	-0.311	0.135
-429.632	-66.914	0.305	0.120
-428.617	295.096	-0.078	-0.142
-427.603	79.350	-0.213	0.228
-426.588	495.815	0.121	0.278
-425.573	99.314	0.220	0.254
-424.559	77.782	0.058	0.062
-423.544	15.869	-0.164	0.129
-422.530	800.000	0.051	-0.220
-421.515	72.666	-0.162	0.169
-420.500	566.885	-0.145	0.350
-419.486	-200.000	-0.008	0.178
-418.471	-35.559	0.162	-0.087
-417.457	-41.599	-0.201	-0.103
-416.442	15.230	0.123	-0.096
-415.428	-99.447	-0.207	0.052
-414.413	159.568	0.123	0.171
-413.398	376.798	0.153	-0.310
-412.384	100.198	-0.141	0.163
-411.369	-68.772	-0.049	-0.019
-410.355	483.868	-0.122	-0.276
-409.340	800.000	0.151	0.436
-408.325	137.293	0.036	-0.047
-407.311	800.000	-0.028	0.091
-406.296	43.130	0.233	0.211
-405.282	-98.672	-0.294	0.075
-404.267	800.000	-0.040	0.166
-403.252	36.134	-0.343	0.300
-402.238	121.701	0.147	0.183
-401.223	51.795	0.229	0.217
-400.209	800.000	-0.121	0.414
-399.194	-200.000	-0.002	-0.119
-398.179	-24.193	0.136	-0.081
-397.165	-87.215	0.399	0.121
-396.150	-130.676	0.281	0.038
-395.136	-200.000	0.019	0.170
-394.121	239.287	-0.200	0.331
-393.106	143.048	-0.109	-0.144
-392.092	-200.000	-0.305	-0.001
-391.077	161.195	0.141	-0.196
-390.063	-200.000	-0.023	0.127
-389.048	800.000	-0.038	-0.115
-388.033	-41.868	0.309	-0.158
-387.019	-5.627	-0.082	-0.056
-386.004	-50.802	0.042	-0.019
-384.990	-7.619	0.407	0.274
-383.975	414.826	-0.113	-0.240
-382.960	-200.000	-0.090	-0.461
-381.946	683.388	0.040	-0.105
-380.931	288.299	-0.161	-0.289
-379.917	631.117	0.071	0.179
-378.902	201.490	0.109	0.166
-377.888	800.000	0.023	-0.083
-376.873	-133.567	0.174	0.022
-375.858	-120.342	-0.231	-0.039
-374.844	-45.133	0.236	0.117
-373.829	-200.000	0.023	0.127
-372.815	156.073	0.239	0.328
-371.800	-81.147	0.120	0.039
-370.785	266.656	0.093	-0.162
-369.771	7.713	-0.325	-0.242
-368.756	-200.000	-0.006	-0.317
-367.742	-200.000	0.002	0.167
-366.727	-200.000	0.008	0.398
-365.712	615.016	0.039	-0.096
-364.698	292.142	0.121	0.219
-363.683	93.154	0.222	0.249
-362.669	-10.815	-0.065	0.043
-361.654	-75.755	0.289	0.102
-360.639	-68.720	0.426	-0.164
-359.625	-25.027	0.239	0.141
-358.610	-90.761	-0.033	0.009
-357.596	-177.035	-0.347	-0.009
-356.581	-49.289	-0.179	-0.085
-355.566	263.878	-0.143	0.247
-354.552	-200.000	-0.007	-0.097
-353.537	470.234	0.020	-0.045
-352.523	-71.905	-0.368	-0.136
-351.508	-158.643	-0.184	0.010
-350.493	149.846	0.056	-0.075
-349.479	-145.264	-0.233	0.021
-348.464	153.278	0.230	0.312
-347.450	-181.625	0.365	-0.007
-346.435	-65.044	0.224	-0.090
-345.420	734.417	0.042	0.112
-344.406	-186.404	0.090	0.001
-343.391	298.582	-0.089	0.162
-342.377	7.853	0.141	0.105
-341.362	-200.000	-0.056	0.277
-340.348	-148.524	-0.351	0.028
-339.333	-200.000	0.017	-0.090
-338.318	235.150	0.243	-0.398
-337.304	-116.207	0.184	-0.034
-336.289	257.789	-0.115	0.196
-335.275	-61.605	0.339	0.141
-334.260	-80.176	-0.200	0.066
-333.245	236.558	-0.047	0.077
-332.231	-200.000	0.018	-0.157
-331.216	-200.000	0.068	-0.351
-330.202	577.763	0.133	0.323
-329.187	33.772	-0.096	-0.083
-328.172	8.555	0.322	0.240
-327.158	-67.354	0.200	-0.078
-326.143	800.000	-0.099	-0.388
-325.129	133.132	-0.060	0.077
-324.114	800.000	0.106	-0.323
-323.099	76.849	-0.069	0.072
-322.085	-200.000	-0.006	-0.164
-321.070	-200.000	-0.024	0.246
-320.056	800.000	0.061	0.189
-319.041	44.966	0.224	0.205
-318.026	156.893	-0.218	0.298
-317.012	-200.000	0.055	0.246
-315.997	705.598	-0.056	0.148
-314.983	-79.989	-0.123	0.041
-313.968	90.404	-0.124	-0.137
-312.953	-153.344	0.162	-0.011
-311.939	-46.055	0.164	-0.080
-310.924	-200.000	-0.021	-0.230
-309.910	800.000	0.069	0.191
-308.895	-77.835	0.122	-0.042
-307.880	-119.720	0.197	-0.034
-306.866	-123.322	0.130	-0.021
-305.851	129.186	0.107	-0.136
-304.837	-93.911	-0.091	-0.025
-303.822	76.921	-0.314	0.330
-302.807	222.718	-0.126	0.201
-301.793	-94.409	0.186	0.050
-300.778	-96.895	0.129	0.034
-299.764	37.579	-0.140	0.123
-298.749	-19.688	0.170	-0.104
-297.735	-125.469	-0.114	-0.017
-296.720	-200.000	-0.033	0.152
-295.705	36.598	0.247	-0.216
-294.691	-126.679	-0.244	0.036
-293.676	-71.167	0.247	-0.092
-292.662	-22.817	-0.461	0.276
-291.647	-169.085	-0.199	-0.007
-290.632	7.557	0.085	0.063
-289.618	100.273	-0.238	0.274
-288.603	-200.000	0.032	0.174
-287.589	-2.489	-0.178	-0.124
-286.574	800.000	0.055	-0.221
-285.559	10.771	0.145	-0.110
-284.545	214.738	0.148	-0.232
-283.530	-200.000	0.043	-0.298
-282.516	-2.947	0.213	-0.148
-281.501	-131.710	-0.086	-0.011
-280.486	285.680	0.214	0.383
-279.472	168.239	-0.079	0.111
-278.457	9.088	0.085	-0.064
-277.443	-112.008	-0.296	0.059
-276.428	270.781	0.044	-0.076
-275.413	-200.000	0.010	0.246
-274.399	-103.557	-0.238	-0.055
-273.384	-127.793	-0.179	0.026
-272.370	-51.695	-0.217	0.100
-271.355	-112.608	-0.107	-0.021
-270.340	-200.000	0.047	0.263
-269.326	-74.401	0.322	-0.115
-268.311	13.428	-0.073	-0.056
-267.297	-148.941	-0.347	0.028
-266.282	474.466	0.077	0.171
-265.267	5.571	-0.132	-0.097
-264.253	-70.271	-0.127	-0.048
-263.238	49.468	-0.138	-0.128
-262.224	105.072	-0.183	-0.213
-261.209	171.713	-0.156	0.222
-260.195	-127.805	-0.217	-0.031
-259.180	-200.000	0.041	-0.197
-258.165	-200.000	0.022	0.144
-257.151	800.000	-0.084	0.336
-256.136	-101.840	0.420	0.101
-255.122	-129.661	-0.124	-0.017
-254.107	800.000	0.095	0.269
-253.092	-5.779	-0.114	-0.078
-252.078	98.285	-0.275	-0.313
-251.063	-141.440	0.131	0.013
-250.049	364.300	-0.025	0.050
-249.034	71.332	0.178	-0.183
-248.019	-38.038	0.068	-0.036
-247.005	529.463	-0.009	0.021
-245.990	-127.515	-0.242	-0.035
-244.976	-71.502	0.458	0.169
-243.961	-200.000	0.013	0.460
-242.946	-32.260	-0.177	0.097
-241.932	-200.000	-0.020	-0.095
-240.917	133.466	-0.227	0.290
-239.903	57.113	0.121	0.116
-238.888	-74.369	0.055	-0.020
-237.873	-49.783	-0.421	0.198
-236.859	200.763	0.096	-0.146
-235.844	607.730	0.118	-0.291
-234.830	-115.245	0.032	-0.006
-233.815	-5.830	0.136	0.092
-232.800	800.000	-0.072	0.232
-231.786	101.426	0.291	0.335
-230.771	83.034	0.262	-0.281
-229.757	390.377	0.057	0.117
-228.742	-200.000	0.048	0.405
-227.727	-200.000	-0.052	-0.338
-226.713	6.355	-0.211	0.155
-225.698	-149.751	-0.384	0.030
-224.684	83.617	0.152	-0.164
-223.669	-65.193	-0.427	-0.170
-222.655	105.217	0.326	0.381
-221.640	-109.127	-0.135	0.028
-220.625	-80.814	0.184	-0.060
-219.611	-200.000	-0.038	-0.226
-218.596	-200.000	0.037	0.227
-217.582	591.708	0.189	-0.460
-216.567	-152.603	-0.186	0.013
-215.552	101.651	-0.174	0.200
-214.538	-115.768	-0.218	0.040
-213.523	-128.037	0.337	-0.048
-212.509	632.486	-0.035	0.088
-211.494	262.773	-0.177	-0.303
-210.479	638.890	0.213	-0.534
-209.465	-49.970	0.214	0.100
-208.450	-200.000	-0.015	-0.200
-207.436	-43.216	0.277	0.139
-206.421	90.174	-0.160	-0.177
-205.406	13.549	0.109	-0.083
-204.392	-99.257	0.023	-0.006
-203.377	-175.888	0.179	0.005
-202.363	247.090	0.169	0.282
-201.348	59.202	-0.079	-0.076
-200.333	-46.764	-0.133	-0.064
-199.319	-132.685	0.287	0.036
-198.304	-32.605	0.229	-0.126
-197.290	-200.000	-0.061	-0.478
-196.275	417.736	-0.100	0.212
-195.260	55.127	0.315	0.300
-194.246	800.000	0.046	-0.193
-193.231	-115.188	0.143	-0.027
-192.217	584.090	0.044	0.107
-191.202	800.000	-0.046	0.168
-190.187	-133.152	0.140	-0.017
-189.173	215.600	-0.065	0.101
-188.158	-99.425	0.353	-0.088
-187.144	-56.415	-0.436	-0.191
-186.129	13.266	0.241	-0.184
-185.114	-200.000	-0.007	-0.113
-184.100	83.096	-0.140	-0.150
-183.085	-30.365	0.284	-0.159
-182.071	82.974	-0.048	0.051
-181.056	160.995	-0.174	0.239
-180.042	139.129	0.053	0.069
-179.027	161.623	-0.299	-0.413
-178.012	800.000	0.046	-0.186
-176.998	214.697	0.164	0.256
-175.983	800.000	-0.065	0.216
-174.969	-200.000	-0.026	0.126
-173.954	-84.626	0.164	-0.051
-172.939	52.188	0.216	0.203
-171.925	242.036	-0.102	0.168
-170.910	800.000	-0.027	-0.083
-169.896	-200.000	-0.016	-0.233
-168.881	357.299	-0.110	-0.217
-167.866	800.000	0.095	0.263
-166.852	-33.749	0.200	0.109
-165.837	-200.000	-0.034	-0.258
-164.823	-200.000	0.083	-0.357
-163.808	-59.961	0.439	-0.185
-162.793	-69.383	-0.016	0.006
-161.779	-116.723	-0.169	0.031
-160.764	54.643	-0.076	0.073
-159.750	230.113	-0.155	0.250
-158.735	-60.185	0.235	0.099
-157.720	800.000	-0.084	0.313
-156.706	-200.000	-0.087	-0.466
-155.691	9.479	0.207	-0.154
-154.677	-32.622	-0.306	0.168
-153.662	150.072	-0.069	0.092
-152.647	640.570	-0.067	0.169
-151.633	-200.000	0.003	0.178
-150.618	313.879	0.145	0.269
-149.604	-22.065	-0.335	-0.201
-148.589	-100.676	-0.058	-0.014
-147.574	-62.047	0.272	0.112
-146.560	-200.000	-0.011	0.391
-145.545	69.071	0.116	0.118
-144.531	-74.620	0.308	0.109
-143.516	-32.148	0.093	0.051
-142.502	153.644	0.055	-0.075
-141.487	126.625	-0.224	0.279
-140.472	-200.000	-0.003	-0.178
-139.458	-170.402	0.114	-0.004
-138.443	-190.962	-0.307	-0.003
-137.429	-200.000	-0.001	0.027
-136.414	104.392	-0.245	0.284
-135.399	-69.110	0.371	-0.141
-134.385	-110.777	0.238	0.048
-133.370	109.053	0.255	0.301
-132.356	-91.255	0.146	-0.041
-131.341	-70.146	0.459	-0.172
-130.326	-106.379	-0.082	-0.018
-129.312	61.706	-0.129	0.127
-128.297	31.166	-0.192	-0.162
-127.283	272.325	-0.119	0.206
-126.268	109.252	0.185	-0.218
-125.253	800.000	0.046	0.189
-124.239	48.286	-0.052	-0.048
-123.224	223.098	0.036	-0.057
-122.210	-33.147	0.123	0.067
-121.195	419.485	-0.089	0.187
-120.180	-200.000	0.091	0.413
-119.166	-200.000	0.042	0.452
-118.151	365.603	-0.120	-0.238
-117.137	-200.000	0.046	0.268
-116.122	234.422	0.171	0.277
-115.107	373.619	0.054	-0.108
-114.093	-200.000	-0.067	-0.428
-113.078	-99.668	0.314	0.078
-112.064	-154.689	-0.132	-0.009
-111.049	-200.000	-0.019	-0.249
-110.034	98.601	0.149	0.169
-109.020	72.687	-0.187	-0.192
-108.005	-200.000	-0.011	0.059
-106.991	93.715	-0.072	0.080
-105.976	-11.778	-0.120	0.077
-104.962	-35.581	0.324	-0.173
-103.947	133.899	0.108	0.138
-102.932	-70.257	-0.399	0.149
-101.918	-165.092	-0.098	0.004
-100.903	-112.712	0.282	-0.055
-99.889	800.000	0.061	-0.195
-98.874	127.462	0.047	0.059
-97.859	-130.340	0.237	-0.032
-96.845	-120.714	-0.280	-0.047
-95.830	-164.558	0.354	-0.016
-94.816	492.541	-0.147	0.331
-93.801	461.234	-0.073	0.160
-92.786	-200.000	-0.020	0.196
-91.772	-15.704	0.071	-0.045
-90.757	-5.164	-0.199	0.135
-89.743	-200.000	-0.012	0.512
-88.728	-200.000	-0.057	0.471
-87.713	-200.000	-0.035	-0.202
-86.699	274.307	-0.074	0.129
-85.684	-130.769	0.183	0.024
-84.670	7.308	-0.223	0.164
-83.655	-200.000	-0.051	-0.313
-82.640	800.000	-0.031	0.123
-81.626	3.102	-0.224	-0.160
-80.611	-95.549	-0.185	-0.049
-79.597	-200.000	0.267	-0.001
-78.582	800.000	0.034	0.139
-77.567	-200.000	-0.031	-0.175
-76.553	-143.031	0.057	-0.005
-75.538	-200.000	-0.058	0.284
-74.524	-41.503	0.299	0.151
-73.509	92.170	0.212	0.234
-72.494	466.237	0.096	0.212
-71.480	399.072	0.057	-0.117
-70.465	-49.854	-0.147	0.069
-69.451	1.253	-0.140	-0.099
-68.436	800.000	-0.059	0.163
-67.422	377.530	0.109	0.219
-66.407	800.000	-0.040	0.108
-65.392	-110.544	0.101	0.021
-64.378	-110.811	-0.209	-0.042
-63.363	-200.000	0.017	-0.202
-62.349	273.477	0.120	0.208
-61.334	15.535	-1.306	-1.007
-60.319	362.340	0.245	0.483
-59.305	800.000	-0.400	-1.176
-58.290	181.307	0.863	1.246
-57.276	800.000	0.503	1.828
-56.261	-200.000	108.509	579.661
-55.246	426.129	1501.261	3175.479
-54.232	143.856	2690.026	3519.515
-53.217	102.331	2192.996	2515.321
-52.203	38.690	1721.015	1507.273
-51.188	31.692	1536.438	1297.303
-50.173	29.531	1510.248	1260.403
-49.159	49.699	1566.425	1448.205
-48.144	49.699	1582.921	1463.401
-47.130	32.024	1538.987	1301.551
-46.115	29.124	1523.851	1268.751
-45.100	28.962	1520.003	1264.379
-44.086	28.941	1518.314	1262.783
-43.071	28.935	1515.975	1260.744
-42.057	28.804	1514.533	1258.601
-41.042	28.822	1513.255	1257.609
-40.027	28.872	1511.751	1256.654
-39.013	28.756	1510.496	1254.767
-37.998	28.814	1508.835	1253.735
-36.984	28.758	1508.020	1252.623
-35.969	28.788	1506.498	1251.517
-34.954	28.670	1505.220	1249.601
-33.940	28.718	1503.930	1248.803
-32.925	28.756	1502.601	1247.908
-31.911	28.697	1501.535	1246.574
-30.896	28.804	1499.548	1245.601
-29.881	28.831	1498.766	1245.089
-28.867	28.773	1497.510	1243.601
-27.852	28.929	1495.794	1243.177
-26.838	28.859	1494.600	1241.665
-25.823	28.912	1492.724	1240.417
-24.809	28.854	1491.411	1238.881
-23.794	28.962	1489.880	1238.293
-22.779	28.737	1489.447	1236.366
-21.765	28.916	1487.973	1236.299
-20.750	28.852	1486.821	1234.863
-19.736	28.785	1485.804	1233.519
-18.721	28.807	1484.423	1232.471
-17.706	28.832	1483.178	1231.558
-16.692	28.842	1482.272	1230.819
-15.677	28.890	1481.348	1230.328
-14.663	28.830	1480.080	1228.821
-13.648	28.805	1479.151	1227.837
-12.633	28.831	1478.128	1227.112
-11.619	28.723	1477.675	1225.964
-10.604	28.744	1476.892	1225.405
-9.590	28.681	1475.854	1224.080
-8.575	28.738	1474.904	1223.623
-7.560	28.681	1473.909	1222.366
-6.546	28.899	1472.390	1222.508
-5.531	28.851	1472.161	1221.954
-4.517	28.809	1470.458	1220.210
-3.502	28.721	1469.937	1219.148
-2.487	28.774	1469.316	1218.934
-1.473	28.657	1468.539	1217.468
-0.458	28.708	1467.271	1216.706
0.556	27.430	1457.157	1206.639
1.571	25.063	1432.156	1170.394
2.586	22.092	1372.111	1102.609
3.600	20.617	1288.530	1026.654
4.615	19.427	1243.066	983.559
5.629	18.501	1189.555	936.081
6.644	15.220	1112.073	858.258
7.659	12.247	1077.038	816.378
8.673	11.885	1071.580	810.377
9.688	11.875	1068.202	807.701
10.702	11.731	1067.068	806.065
11.717	11.800	1064.557	804.434
12.731	13.023	1064.827	810.577
13.746	16.135	1068.725	828.788
14.761	18.121	1070.737	840.046
15.775	17.868	1069.923	838.092
16.790	17.053	1067.568	832.176
17.804	16.030	1065.218	825.264
18.819	15.028	1063.472	818.938
19.834	14.559	1061.666	815.184
20.848	14.206	1060.948	812.834
21.863	13.900	1060.055	810.588
22.877	13.709	1059.206	808.931
23.892	13.640	1058.214	807.767
24.907	13.530	1057.556	806.659
25.921	13.417	1057.122	805.708
26.936	13.534	1055.814	805.206
27.950	13.559	1055.182	804.773
28.965	13.626	1053.554	803.786
29.980	13.568	1052.892	802.927
30.994	13.763	1051.530	802.763
32.009	13.716	1050.692	801.824
33.023	13.740	1049.774	801.172
34.038	13.815	1048.980	800.857
35.053	13.750	1048.423	800.045
36.067	13.679	1047.194	798.698
37.082	13.691	1046.135	797.875
38.096	13.651	1045.520	797.143
39.111	13.740	1044.554	796.763
40.126	13.708	1043.716	795.898
41.140	13.588	1042.873	794.610
42.155	13.555	1041.504	793.343
43.169	13.496	1040.553	792.262
44.184	13.284	1039.958	790.726
45.199	13.460	1038.457	790.354
46.213	13.353	1037.707	789.203
47.228	13.528	1036.557	789.094
48.242	13.470	1035.233	787.738
49.257	13.588	1034.522	787.690
50.271	13.561	1033.456	786.682
51.286	13.637	1032.252	786.055
52.301	13.656	1031.718	785.669
53.315	13.575	1030.947	784.628
54.330	13.635	1029.916	784.059
55.344	13.465	1029.133	782.590
56.359	13.530	1028.017	781.979
57.374	13.543	1026.881	781.106
58.388	13.473	1026.351	780.306
59.403	13.483	1025.360	779.529
60.417	13.468	1024.410	778.668
61.432	13.479	1023.992	778.333
62.447	13.324	1023.389	777.076
63.461	13.390	1022.169	776.393
64.476	13.306	1021.514	775.432
65.490	13.221	1020.501	774.197
66.505	13.483	1019.298	774.438
67.520	13.300	1019.312	773.527
68.534	13.344	1018.157	772.785
69.549	13.426	1017.480	772.590
70.563	13.356	1016.684	771.588
71.578	13.288	1016.195	770.834
72.593	13.270	1015.306	770.005
73.607	13.219	1014.160	768.832
74.622	13.294	1013.015	768.243
75.636	13.155	1012.312	766.997
76.651	13.165	1011.806	766.590
77.666	13.326	1010.640	766.388
78.680	13.357	1009.792	765.818
79.695	13.364	1009.711	765.725
80.709	13.274	1009.154	764.816
81.724	13.436	1007.652	764.356
82.739	13.608	1006.568	764.263
83.753	13.396	1006.677	763.297
84.768	13.514	1005.542	762.913
85.782	13.718	1004.529	763.016
86.797	13.613	1004.313	762.303
87.812	13.545	1003.250	761.115
88.826	13.504	1002.802	760.521
89.841	13.549	1001.736	759.852
90.855	13.495	1000.965	758.951
91.870	13.599	1000.029	758.653
92.884	13.643	999.174	758.137
93.899	13.716	998.528	757.911
94.914	13.641	997.946	757.062
95.928	13.585	997.840	756.659
96.943	13.831	996.543	756.731
97.957	13.735	995.527	755.456
98.972	13.573	994.977	754.232
99.987	13.577	994.276	753.652
101.001	13.697	993.397	753.466
102.016	13.577	992.797	752.399
103.030	13.541	991.826	751.432
104.045	13.600	991.216	751.171
105.060	13.595	989.805	750.013
106.074	13.545	988.851	748.998
107.089	13.586	987.889	748.389
108.103	13.450	987.343	747.294
109.118	13.387	986.407	746.238
110.133	13.485	984.946	745.504
111.147	13.402	984.651	744.842
112.162	13.440	983.484	744.065
113.176	13.576	982.172	743.617
114.191	13.511	981.770	742.956
115.206	13.581	981.055	742.662
116.220	13.640	979.846	741.945
117.235	13.551	979.351	741.106
118.249	13.664	978.471	740.878
119.264	13.549	977.670	739.694
120.279	13.518	976.588	738.671
121.293	13.470	976.257	738.142
122.308	13.544	975.361	737.730
123.322	13.305	974.954	736.293
124.337	13.384	973.494	735.473
125.352	13.466	971.958	734.615
126.366	13.358	971.300	733.572
127.381	13.335	970.380	732.710
128.395	13.443	969.349	732.346
129.410	13.390	968.002	731.031
130.424	13.470	967.272	730.766
131.439	13.439	966.705	730.136
132.454	13.449	966.063	729.631
133.468	13.496	964.860	728.865
134.483	13.439	964.302	728.130
135.497	13.554	963.550	728.003
136.512	13.536	962.768	727.267
137.527	13.437	962.204	726.340
138.541	13.496	961.173	725.760
139.556	13.488	960.551	725.189
140.570	13.450	959.920	724.482
141.585	13.617	959.059	724.499
142.600	13.670	958.137	723.968
143.614	13.632	957.353	723.145
144.629	13.716	956.593	722.875
145.643	13.806	955.818	722.618
146.658	13.733	955.134	721.720
147.673	13.512	954.332	720.088
148.687	13.749	952.436	719.625
149.702	13.739	952.031	719.211
150.716	13.640	951.329	718.186
151.731	13.412	950.683	716.649
152.746	13.680	949.603	716.932
153.760	13.543	949.582	716.257
154.775	13.594	948.332	715.471
155.789	13.709	947.306	715.129
156.804	13.651	946.793	714.428
157.819	13.762	945.928	714.194
158.833	13.715	945.725	713.774
159.848	13.685	945.151	713.149
160.862	13.818	944.157	712.908
161.877	13.836	943.248	712.234
162.892	13.770	942.435	711.274
163.906	13.643	941.914	710.276
164.921	13.617	940.867	709.308
165.935	13.540	940.116	708.350
166.950	13.723	938.749	708.041
167.964	13.750	937.553	707.190
168.979	13.645	937.131	706.365
169.994	13.763	936.209	706.108
171.008	13.735	935.092	705.083
172.023	13.767	934.557	704.755
173.037	13.847	933.708	704.393
174.052	13.969	932.645	704.045
175.067	13.918	932.284	703.492
176.081	13.841	931.680	702.648
177.096	13.666	930.726	701.127
178.110	13.865	930.160	701.478
179.125	13.911	928.797	700.583
180.140	13.835	928.448	699.940
181.154	13.877	927.765	699.539
182.169	13.901	926.947	698.963
183.183	13.838	927.055	698.715
184.198	13.975	925.741	698.238
185.213	13.881	925.328	697.469
186.227	14.004	924.517	697.315
187.242	14.002	924.092	696.923
188.256	14.067	923.521	696.703
189.271	14.135	922.827	696.403
190.286	14.066	922.120	695.517
191.300	13.951	921.164	694.256
192.315	13.854	920.450	693.252
193.329	13.887	919.722	692.778
194.344	13.843	919.142	692.098
195.359	13.901	918.915	692.108
196.373	13.966	917.945	691.586
197.388	14.030	917.163	691.201
198.402	14.058	917.054	691.174
199.417	14.207	916.601	691.390
200.432	14.329	915.861	691.277
201.446	14.351	915.733	691.212
202.461	14.318	915.670	690.968
203.475	14.263	914.857	690.065
204.490	14.412	914.210	690.133
205.504	14.273	913.222	688.751
206.519	14.264	912.165	687.853
207.534	14.238	911.507	687.191
208.548	14.179	910.739	686.306
209.563	14.311	910.250	686.422
210.577	14.268	909.543	685.653
211.592	14.382	908.535	685.300
212.607	14.496	908.516	685.694
213.621	14.573	907.856	685.452
214.636	14.446	906.883	684.134
215.650	14.530	906.188	683.894
216.665	14.601	905.611	683.690
217.680	14.408	905.442	682.709
218.694	14.575	904.855	682.890
219.709	14.574	904.583	682.621
220.723	14.486	903.783	681.597
221.738	14.568	902.858	681.176
222.753	14.443	902.206	680.112
223.767	14.504	901.580	679.829
224.782	14.574	900.697	679.386
225.796	14.567	899.987	678.762
226.811	14.725	899.158	678.720
227.826	14.566	899.074	677.949
228.840	14.591	898.028	677.204
229.855	14.612	897.090	676.520
230.869	14.647	896.560	676.204
231.884	14.528	896.308	675.473
232.899	14.471	895.615	674.658
233.913	14.467	894.813	673.977
234.928	14.586	893.840	673.668
235.942	14.620	893.118	673.202
236.957	14.691	892.382	672.873
237.972	14.639	891.800	672.163
238.986	14.659	891.144	671.690
240.001	14.711	890.468	671.331
241.015	14.553	890.419	670.600
242.030	14.618	889.520	670.123
243.045	14.609	888.811	669.497
244.059	14.748	888.409	669.689
245.074	14.720	887.412	668.768
246.088	14.831	886.830	668.713
247.103	14.791	886.492	668.239
248.117	14.790	885.726	667.600
249.132	14.799	885.279	667.240
250.147	14.987	884.393	667.262
251.161	15.028	883.978	667.054
252.176	15.061	883.043	666.422
253.190	15.049	883.020	666.296
254.205	15.118	881.826	665.612
255.220	15.247	881.383	665.731
256.234	15.196	880.745	664.987
257.249	15.117	880.575	664.486
258.263	15.229	879.684	664.200
259.278	15.169	879.096	663.456
260.293	15.159	878.858	663.182
261.307	15.216	878.197	662.850
262.322	15.275	877.406	662.427
263.336	15.347	876.866	662.244
264.351	15.219	876.423	661.344
265.366	15.520	875.342	661.657
266.380	15.442	875.013	661.043
267.395	15.248	874.497	659.830
268.409	15.377	873.615	659.613
269.424	15.169	873.182	658.411
270.439	15.137	872.831	657.963
271.453	15.340	871.748	657.885
272.468	15.315	870.594	656.858
273.482	15.315	870.069	656.403
274.497	15.262	869.804	655.937
275.512	15.228	869.282	655.352
276.526	15.282	868.307	654.773
277.541	15.410	867.465	654.578
278.555	15.260	867.541	653.991
279.570	15.393	866.554	653.710
280.585	15.478	865.706	653.342
281.599	15.485	865.694	653.304
282.614	15.597	864.523	652.797
283.628	15.402	864.172	651.717
284.643	15.476	863.667	651.564
285.657	15.605	863.088	651.571
286.672	15.638	862.416	651.132
287.687	15.584	861.985	650.540
288.701	15.665	861.233	650.230
289.716	15.519	860.962	649.403
290.730	15.617	860.526	649.396
291.745	15.647	859.970	649.034
292.760	15.616	859.190	648.267
293.774	15.629	858.561	647.784
294.789	15.697	858.209	647.725
295.803	15.721	857.412	647.160
296.818	15.623	856.930	646.360
297.833	15.666	856.286	645.984
298.847	15.676	855.564	645.421
299.862	15.711	854.739	644.876
300.876	15.755	853.898	644.351
301.891	15.719	853.345	643.739
302.906	15.687	852.823	643.164
303.920	15.872	851.839	643.075
304.935	15.916	851.343	642.809
305.949	15.914	850.683	642.248
306.964	15.839	850.420	641.707
307.979	15.998	849.419	641.501
308.993	16.046	849.343	641.567
310.008	15.980	848.401	640.549
311.022	16.089	848.374	640.888
312.037	16.080	847.509	640.141
313.052	15.907	847.043	639.076
314.066	15.927	846.350	638.573
315.081	15.887	845.994	638.095
316.095	15.827	845.351	637.329
317.110	15.948	844.813	637.323
318.125	15.850	844.151	636.396
319.139	15.992	843.522	636.404
320.154	16.028	843.274	636.297
321.168	15.983	842.651	635.599
322.183	15.874	842.359	634.911
323.197	15.934	841.863	634.708
324.212	16.036	840.822	634.249
325.227	16.059	840.412	633.974
326.241	16.061	839.841	633.491
327.256	15.998	839.492	632.937
328.270	16.126	838.475	632.593
329.285	15.979	838.148	631.741
330.300	16.042	837.584	631.497
331.314	16.051	837.095	631.104
332.329	16.247	836.322	631.199
333.343	16.141	835.852	630.390
334.358	16.231	835.344	630.292
335.373	16.313	834.558	629.946
336.387	16.218	834.501	629.492
337.402	16.325	834.105	629.539
338.416	16.293	833.365	628.805
339.431	16.166	832.702	627.778
340.446	16.148	832.522	627.519
341.460	16.334	831.470	627.361
342.475	16.494	831.095	627.618
343.489	16.395	830.537	626.773
344.504	16.633	829.955	627.158
345.519	16.620	829.423	626.654
346.533	16.351	829.005	625.285
347.548	16.588	828.145	625.458
348.562	16.495	827.926	624.895
349.577	16.508	827.150	624.303
350.592	16.450	826.588	623.609
351.606	16.499	826.265	623.491
352.621	16.480	825.746	622.973
353.635	16.387	825.506	622.393
354.650	16.308	825.116	621.755
355.665	16.448	824.421	621.689
356.679	16.484	823.752	621.265
357.694	16.616	823.555	621.543
358.708	16.682	822.792	621.154
359.723	16.518	822.498	620.278
360.738	16.530	821.955	619.855
361.752	16.568	821.569	619.650
362.767	16.582	821.599	619.672
363.781	16.719	820.273	619.118
364.796	16.710	820.087	618.886
365.810	16.902	819.673	619.221
366.825	16.797	819.174	618.407
367.840	16.775	819.141	618.248
368.854	16.788	818.658	617.876
369.869	16.791	818.115	617.422
370.883	16.816	817.215	616.779
371.898	16.861	816.789	616.567
372.913	16.890	816.363	616.296
373.927	16.890	815.908	615.898
374.942	16.942	815.126	615.441
375.956	16.822	814.377	614.388
376.971	16.945	813.937	614.445
377.986	16.970	813.342	614.034
379.000	17.007	812.861	613.750
380.015	17.120	812.620	613.920
381.029	17.033	811.936	613.035
382.044	17.101	811.285	612.736
383.059	17.199	810.562	612.490
384.073	17.055	810.257	611.686
385.088	17.137	809.959	611.700
386.102	17.108	809.144	610.929
387.117	17.108	808.508	610.394
388.132	17.064	808.259	609.995
389.146	17.130	807.995	609.977
390.161	17.130	807.107	609.253
391.175	17.101	806.906	608.943
392.190	17.103	806.680	608.724
393.205	17.231	806.259	608.814
394.219	17.120	805.591	607.856
395.234	17.092	805.130	607.355
396.248	17.182	804.556	607.189
397.263	17.152	803.800	606.459
398.278	17.200	803.565	606.399
399.292	17.116	803.266	605.820
400.307	17.104	802.931	605.469
401.321	17.111	802.394	605.038
402.336	17.105	802.277	604.875
403.350	17.280	801.488	604.848
404.365	17.170	801.452	604.376
405.380	17.304	800.591	604.148
406.394	17.361	800.230	604.025
407.409	17.225	800.190	603.459
408.423	17.418	799.139	603.300
409.438	17.424	798.576	602.843
410.453	17.387	798.726	602.769
411.467	17.559	798.027	602.800
412.482	17.577	797.677	602.544
413.496	17.566	797.089	602.006
414.511	17.564	797.105	601.959
415.526	17.554	796.732	601.591
416.540	17.626	795.898	601.159
417.555	17.615	795.378	600.675
418.569	17.626	794.873	600.280
419.584	17.654	794.834	600.295
420.599	17.511	794.556	599.529
421.613	110.118	1291.386	1471.807
422.628	94.669	1363.759	1471.896
