DTS Sentinel unit serial number:	SN413079Multiplexer serial number:	ORYXHardware model number:	OX4-SRSoftware version number:	ORYX F/W v4.00 Oryx Data Collector v3.7.2.0data status	okinstallation	princeton_trtdifferential loss correction	single-endedforward channel	channel 3reverse channel	N/Adate	2019/09/17time	14:56:35forward acquisition time	60.00reverse acquisition time	0.00gamma	496.2192k internal	0.2296k external	0.2296temperature offset calibration	0.9955default loss term (dB/km)	0.3790temperature slope calibration	1.0000multiplexer offset coefficient	1.0000multiplexer slope coefficient	1.0000fibre end	0.00T internal ref (°C)	37.25T ext. ref 1 (°C)	0.40T ext. ref 2 (°C)	34.21length (m)	temperature (°C)	Stokes	anti-Stokes-747.200	391.844	0.075	0.160
-746.185	800.000	-0.050	-0.194
-745.171	-14.024	0.031	0.020
-744.156	-70.794	-0.399	0.154
-743.142	-120.821	0.608	0.105
-742.127	800.000	-0.026	-0.086
-741.112	-57.321	-0.199	-0.089
-740.098	-152.935	-0.118	0.008
-739.083	-55.918	0.327	-0.149
-738.069	800.000	-0.049	0.147
-737.054	-200.000	-0.001	-0.273
-736.039	154.460	-0.098	-0.137
-735.025	-200.000	0.027	-0.181
-734.010	636.276	0.058	-0.150
-732.996	50.331	-0.085	-0.082
-731.981	-200.000	-0.098	-0.551
-730.966	-85.120	-0.097	0.031
-729.952	-7.479	-0.194	-0.134
-728.937	-200.000	-0.024	-0.125
-727.923	368.010	-0.184	-0.379
-726.908	167.854	-0.156	-0.226
-725.894	-200.000	-0.006	-0.061
-724.879	-68.077	0.197	0.078
-723.864	66.826	-0.162	0.169
-722.850	-79.003	-0.259	0.090
-721.835	-89.578	-0.475	-0.142
-720.821	3.602	0.208	-0.155
-719.806	36.963	-0.206	0.186
-718.791	590.985	-0.100	-0.252
-717.777	-134.577	-0.316	-0.039
-716.762	215.798	0.198	-0.322
-715.748	800.000	-0.053	0.170
-714.733	-132.082	0.394	-0.052
-713.718	-85.610	-0.143	0.045
-712.704	49.188	-0.233	-0.224
-711.689	21.471	0.305	-0.253
-710.675	-105.340	-0.222	-0.052
-709.660	21.978	-0.112	0.093
-708.645	104.132	0.120	0.144
-707.631	-105.145	-0.067	0.016
-706.616	292.015	0.113	-0.209
-705.602	141.761	-0.147	0.198
-704.587	-56.664	0.111	0.050
-703.572	387.646	0.076	0.159
-702.558	-164.406	-0.166	0.008
-701.543	-3.211	0.275	-0.195
-700.529	45.554	-0.238	0.225
-699.514	-110.969	-0.394	-0.083
-698.499	-34.010	-0.146	0.082
-697.485	-115.177	-0.218	-0.042
-696.470	-68.963	-0.335	0.132
-695.456	-107.805	0.363	0.081
-694.441	187.076	-0.053	-0.080
-693.426	-5.574	-0.228	0.160
-692.412	141.544	0.081	-0.109
-691.397	127.865	0.171	0.221
-690.383	800.000	-0.128	-0.387
-689.368	-164.337	0.328	0.015
-688.354	-57.227	0.032	0.014
-687.339	125.778	-0.243	0.314
-686.324	-43.958	-0.159	-0.082
-685.310	62.694	-0.022	-0.023
-684.295	-200.000	0.009	-0.076
-683.281	56.155	-0.130	0.128
-682.266	-200.000	-0.000	0.034
-681.251	-200.000	0.001	-0.070
-680.237	-114.115	0.319	0.063
-679.222	38.932	-0.346	0.315
-678.208	21.205	-0.075	-0.062
-677.193	800.000	0.034	0.152
-676.178	88.131	0.107	-0.122
-675.164	169.500	-0.072	-0.105
-674.149	34.146	-0.173	0.153
-673.135	26.275	-0.357	0.304
-672.120	85.054	0.179	-0.200
-671.105	-200.000	-0.039	-0.194
-670.091	-60.252	-0.267	-0.116
-669.076	-13.688	0.053	-0.035
-668.062	641.121	-0.110	-0.285
-667.047	-107.114	-0.226	0.051
-666.032	800.000	-0.074	-0.228
-665.018	315.757	-0.034	0.065
-664.003	800.000	-0.063	0.223
-662.989	114.482	0.197	-0.244
-661.974	-200.000	-0.042	-0.196
-660.959	-200.000	0.031	0.147
-659.945	-44.336	0.085	-0.043
-658.930	666.964	-0.077	-0.202
-657.916	42.254	-0.306	0.283
-656.901	-14.299	-0.158	-0.103
-655.886	-107.417	0.290	-0.065
-654.872	-200.000	-0.001	0.349
-653.857	45.789	0.082	-0.077
-652.843	103.696	0.130	-0.156
-651.828	-200.000	-0.060	0.443
-650.814	65.464	0.188	-0.194
-649.799	98.331	-0.100	-0.117
-648.784	415.717	0.142	-0.309
-647.770	-115.118	-0.228	-0.044
-646.755	147.009	-0.029	0.039
-645.741	44.023	-0.117	0.109
-644.726	-21.875	0.189	0.117
-643.711	33.581	0.280	0.247
-642.697	800.000	0.088	-0.315
-641.682	199.972	-0.088	0.138
-640.668	101.113	0.177	0.210
-639.653	43.585	-0.253	-0.236
-638.638	-200.000	-0.004	-0.258
-637.624	363.989	-0.179	-0.367
-636.609	-0.710	0.228	-0.164
-635.595	85.596	0.110	0.123
-634.580	-146.557	-0.302	0.027
-633.565	-128.714	-0.172	-0.025
-632.551	30.928	0.131	-0.114
-631.536	-104.752	-0.257	-0.060
-630.522	153.637	-0.123	0.171
-629.507	150.989	-0.147	-0.204
-628.492	6.177	-0.141	-0.106
-627.478	50.679	0.121	0.116
-626.463	-170.283	0.108	0.004
-625.449	-97.704	-0.160	-0.042
-624.434	-200.000	0.048	0.292
-623.419	167.033	-0.097	-0.140
-622.405	-60.869	-0.181	-0.078
-621.390	-64.068	-0.118	0.049
-620.376	-44.906	-0.086	-0.043
-619.361	58.200	-0.217	0.217
-618.346	-96.354	-0.439	-0.118
-617.332	477.662	-0.105	0.241
-616.317	622.186	-0.037	0.095
-615.303	33.093	-0.198	0.174
-614.288	-55.517	0.190	-0.087
-613.273	-163.438	-0.393	0.019
-612.259	800.000	0.088	-0.288
-611.244	32.242	-0.092	0.080
-610.230	800.000	-0.058	0.236
-609.215	800.000	0.036	-0.154
-608.201	219.735	-0.130	-0.212
-607.186	-63.124	0.082	0.034
-606.171	-200.000	0.022	0.188
-605.157	-29.869	-0.196	-0.113
-604.142	-117.932	0.312	0.057
-603.128	-118.981	-0.422	-0.075
-602.113	-81.693	-0.195	0.065
-601.098	108.229	-0.173	0.210
-600.084	-162.333	-0.350	0.018
-599.069	-67.893	0.264	-0.105
-598.055	101.858	0.152	0.180
-597.040	535.402	-0.166	-0.401
-596.025	800.000	0.040	0.123
-595.011	444.762	0.046	0.103
-593.996	30.285	-0.259	-0.225
-592.982	-182.906	-0.416	0.008
-591.967	176.833	0.053	0.079
-590.952	-100.782	-0.064	0.016
-589.938	123.685	-0.281	-0.358
-588.923	-187.208	0.429	-0.006
-587.909	-200.000	-0.027	-0.211
-586.894	219.405	-0.082	0.134
-585.879	419.539	0.055	0.120
-584.865	-200.000	0.027	0.125
-583.850	30.727	0.159	-0.138
-582.836	-200.000	-0.011	0.206
-581.821	68.939	-0.192	-0.201
-580.806	64.810	-0.013	0.014
-579.792	-200.000	0.010	-0.114
-578.777	800.000	0.076	0.261
-577.763	-200.000	-0.050	0.000
-576.748	-1.780	0.130	0.093
-575.733	144.821	-0.231	-0.313
-574.719	-98.894	0.089	0.023
-573.704	110.495	0.073	0.090
-572.690	-200.000	-0.033	-0.187
-571.675	-106.383	0.221	0.050
-570.661	-109.614	-0.071	0.015
-569.646	13.402	0.199	-0.157
-568.631	-37.506	0.200	-0.108
-567.617	0.849	0.147	-0.107
-566.602	-127.112	0.111	-0.016
-565.588	167.768	-0.025	-0.036
-564.573	-46.669	0.241	-0.120
-563.558	800.000	-0.041	-0.127
-562.544	141.600	0.062	0.083
-561.529	-136.367	0.539	0.064
-560.515	282.329	-0.034	0.062
-559.500	-113.088	-0.346	0.069
-558.485	443.759	0.103	-0.230
-557.471	726.773	0.035	-0.094
-556.456	91.603	-0.146	-0.167
-555.442	123.678	-0.066	0.085
-554.427	-135.690	0.255	-0.031
-553.412	261.132	0.074	-0.131
-552.398	-138.879	0.308	0.034
-551.383	115.372	-0.189	-0.234
-550.369	800.000	0.073	-0.226
-549.354	14.322	-0.141	-0.112
-548.339	55.795	-0.148	-0.146
-547.325	-111.611	0.252	-0.052
-546.310	320.032	0.165	0.317
-545.296	-200.000	0.013	-0.130
-544.281	197.037	-0.082	0.127
-543.266	0.027	0.064	0.046
-542.252	-132.806	0.178	-0.023
-541.237	69.559	0.127	-0.132
-540.223	-200.000	-0.020	0.230
-539.208	70.512	0.160	0.167
-538.193	-14.648	-0.257	-0.167
-537.179	-60.681	0.165	-0.071
-536.164	234.068	-0.107	-0.178
-535.150	52.268	-0.054	-0.052
-534.135	292.421	-0.052	-0.096
-533.121	-171.727	-0.129	-0.004
-532.106	-178.348	0.420	0.010
-531.091	800.000	0.071	0.228
-530.077	236.967	0.094	-0.159
-529.062	-91.943	-0.177	0.051
-528.048	381.292	-0.115	-0.240
-527.033	795.285	-0.067	-0.188
-526.018	800.000	0.103	0.405
-525.004	101.987	-0.058	0.068
-523.989	-22.510	-0.253	-0.155
-522.975	800.000	-0.066	-0.257
-521.960	-200.000	0.043	0.311
-520.945	-100.525	0.170	0.043
-519.931	372.741	-0.092	-0.189
-518.916	-32.324	-0.077	-0.043
-517.902	-86.559	-0.163	-0.051
-516.887	-8.470	-0.185	0.126
-515.872	149.985	0.127	0.174
-514.858	-137.356	-0.151	0.017
-513.843	504.180	-0.053	0.125
-512.829	272.056	-0.060	0.107
-511.814	-200.000	-0.059	-0.317
-510.799	203.228	-0.045	0.070
-509.785	125.835	-0.146	0.186
-508.770	800.000	-0.120	0.359
-507.756	-109.211	-0.073	-0.016
-506.741	-200.000	-0.011	-0.228
-505.726	339.249	0.134	0.264
-504.712	80.919	-0.111	0.122
-503.697	19.810	-0.121	-0.098
-502.683	88.134	-0.148	0.167
-501.668	-154.456	-0.169	0.011
-500.653	-200.000	-0.019	-0.117
-499.639	485.792	0.080	-0.185
-498.624	-137.659	0.135	-0.015
-497.610	234.910	-0.044	0.073
-496.595	800.000	0.142	-0.501
-495.581	156.873	0.096	-0.135
-494.566	800.000	0.038	0.114
-493.551	-98.613	0.084	-0.022
-492.537	-200.000	0.017	-0.105
-491.522	-107.687	0.087	-0.019
-490.508	-200.000	0.057	0.255
-489.493	-200.000	0.045	-0.312
-488.478	800.000	-0.123	-0.375
-487.464	800.000	-0.041	0.174
-486.449	-56.991	-0.110	-0.049
-485.435	-9.940	-0.266	-0.179
-484.420	741.971	-0.141	-0.383
-483.405	-200.000	0.017	-0.122
-482.391	768.132	0.113	0.310
-481.376	-76.238	-0.268	-0.096
-480.362	327.590	0.124	0.241
-479.347	26.201	-0.195	0.164
-478.332	-105.453	-0.098	0.023
-477.318	-200.000	-0.020	0.089
-476.303	-197.777	0.367	0.002
-475.289	-82.202	-0.194	-0.064
-474.274	-200.000	-0.020	0.281
-473.259	-36.201	0.010	0.005
-472.245	800.000	-0.042	-0.172
-471.230	-114.763	0.125	0.024
-470.216	72.750	-0.100	0.105
-469.201	364.868	-0.119	-0.242
-468.186	-189.325	-0.148	-0.002
-467.172	-79.877	0.135	0.046
-466.157	76.792	0.196	0.210
-465.143	261.328	-0.034	0.059
-464.128	-200.000	0.005	-0.102
-463.113	-59.618	0.439	0.190
-462.099	800.000	0.032	-0.097
-461.084	333.287	-0.150	0.293
-460.070	-61.130	0.110	0.047
-459.055	800.000	-0.062	-0.221
-458.040	800.000	0.053	-0.187
-457.026	26.431	0.094	0.079
-456.011	-69.526	0.048	-0.019
-454.997	68.276	-0.060	0.062
-453.982	-37.664	-0.201	0.108
-452.968	800.000	0.012	-0.048
-451.953	-146.217	-0.243	0.022
-450.938	201.517	-0.076	-0.118
-449.924	44.293	-0.096	-0.089
-448.909	77.704	-0.221	-0.238
-447.895	-21.765	0.257	0.158
-446.880	370.580	-0.054	-0.111
-445.865	-8.313	0.066	0.045
-444.851	323.536	0.096	0.185
-443.836	123.783	-0.184	0.233
-442.822	71.342	0.089	-0.093
-441.807	-200.000	-0.064	0.398
-440.792	55.356	-0.005	-0.005
-439.778	-9.310	0.224	0.151
-438.763	136.228	-0.208	0.274
-437.749	12.255	0.187	0.145
-436.734	759.355	-0.166	-0.455
-435.719	-200.000	-0.002	-0.041
-434.705	-86.640	0.319	0.099
-433.690	-117.158	-0.190	-0.035
-432.676	340.721	-0.117	-0.230
-431.661	-176.750	-0.161	-0.004
-430.646	382.497	0.037	0.076
-429.632	-27.331	0.241	-0.142
-428.617	260.663	0.129	-0.225
-427.603	-28.671	0.230	-0.134
-426.588	64.852	-0.191	0.194
-425.573	800.000	0.080	0.275
-424.559	-145.490	0.295	0.027
-423.544	-151.090	-0.433	0.033
-422.530	-187.490	-0.132	0.002
-421.515	-98.308	-0.133	0.034
-420.500	-200.000	0.008	-0.277
-419.486	-147.639	-0.201	-0.017
-418.471	186.954	-0.172	0.258
-417.457	800.000	-0.058	-0.188
-416.442	137.252	0.084	0.111
-415.428	-200.000	0.015	0.213
-414.413	-142.013	-0.120	-0.012
-413.398	-200.000	0.034	0.273
-412.384	800.000	0.030	0.121
-411.369	206.591	-0.145	-0.228
-410.355	-112.174	0.099	-0.020
-409.340	90.157	0.222	-0.250
-408.325	97.324	-0.298	0.345
-407.311	172.741	0.047	0.068
-406.296	24.513	0.176	0.147
-405.282	192.647	-0.073	0.112
-404.267	144.802	0.122	-0.165
-403.252	-171.398	0.149	-0.005
-402.238	32.789	0.121	0.106
-401.223	346.396	0.054	0.107
-400.209	800.000	0.066	-0.266
-399.194	-200.000	0.000	-0.196
-398.179	-116.194	-0.411	-0.077
-397.165	-66.834	0.296	-0.118
-396.150	-200.000	0.001	0.263
-395.136	173.409	-0.091	0.132
-394.121	-75.084	-0.185	0.067
-393.106	800.000	0.108	-0.308
-392.092	659.859	-0.057	-0.148
-391.077	-60.721	0.262	-0.112
-390.063	274.057	-0.103	-0.183
-389.048	-200.000	-0.048	0.327
-388.033	-200.000	0.027	-0.451
-387.019	28.433	-0.178	0.152
-386.004	-154.468	0.161	0.011
-384.990	-134.773	-0.176	-0.022
-383.975	40.506	-0.165	-0.150
-382.960	94.396	-0.168	0.192
-381.946	595.751	0.210	0.524
-380.931	63.476	-0.285	-0.288
-379.917	117.466	0.149	0.184
-378.902	-200.000	-0.022	0.150
-377.888	800.000	-0.090	0.280
-376.873	-160.071	-0.174	0.010
-375.858	-190.303	-0.268	-0.003
-374.844	-86.178	-0.234	-0.073
-373.829	104.096	0.055	0.066
-372.815	-200.000	0.050	-0.221
-371.800	13.994	0.238	0.187
-370.785	273.116	0.115	-0.205
-369.771	549.363	-0.020	0.048
-368.756	-128.907	0.048	-0.007
-367.742	-78.653	-0.166	-0.057
-366.727	800.000	0.031	0.092
-365.712	41.167	0.289	0.263
-364.698	530.843	-0.183	0.436
-363.683	-52.553	0.084	0.039
-362.669	58.289	-0.197	-0.195
-361.654	498.047	0.092	-0.214
-360.639	156.385	0.062	0.086
-359.625	-126.597	0.127	-0.019
-358.610	-98.568	-0.124	0.032
-357.596	376.751	0.007	-0.014
-356.581	-47.514	0.461	0.226
-355.566	800.000	0.047	0.147
-354.552	-200.000	-0.033	0.278
-353.537	83.037	-0.208	-0.228
-352.523	-200.000	-0.030	-0.155
-351.508	330.758	-0.040	-0.079
-350.493	-66.232	0.370	0.148
-349.479	262.789	0.112	-0.195
-348.464	556.372	0.105	-0.253
-347.450	-200.000	0.023	0.244
-346.435	373.649	0.145	0.297
-345.420	800.000	0.064	-0.232
-344.406	800.000	0.050	0.199
-343.391	-200.000	-0.059	-0.271
-342.377	-15.764	-0.208	-0.133
-341.362	-200.000	-0.064	-0.288
-340.348	-60.132	-0.263	0.113
-339.333	114.955	0.047	0.058
-338.318	-200.000	-0.023	-0.169
-337.304	235.391	0.213	-0.354
-336.289	-200.000	0.005	0.197
-335.275	800.000	0.051	0.150
-334.260	737.683	-0.161	0.433
-333.245	25.593	0.366	0.307
-332.231	-119.364	0.148	-0.026
-331.216	48.988	-0.175	0.165
-330.202	-35.401	-0.151	-0.083
-329.187	241.694	-0.114	0.192
-328.172	656.375	0.035	0.089
-327.158	-200.000	0.012	-0.222
-326.143	-74.822	0.304	-0.110
-325.129	718.316	0.108	-0.289
-324.114	95.569	-0.107	-0.123
-323.099	602.601	0.128	-0.320
-322.085	-200.000	0.034	0.286
-321.070	-200.000	0.002	-0.194
-320.056	1.380	-0.134	-0.097
-319.041	800.000	-0.022	0.090
-318.026	800.000	0.068	-0.235
-317.012	-113.621	-0.609	0.120
-315.997	-61.135	-0.248	-0.105
-314.983	-13.429	-0.074	0.049
-313.968	23.943	0.232	0.192
-312.953	-200.000	-0.010	-0.212
-311.939	28.388	-0.096	-0.081
-310.924	152.303	-0.070	-0.095
-309.910	800.000	-0.061	0.216
-308.895	-200.000	0.003	-0.388
-307.880	-6.467	0.116	-0.079
-306.866	-66.234	-0.200	0.080
-305.851	509.276	-0.133	-0.311
-304.837	-200.000	-0.009	0.136
-303.822	-11.724	-0.149	0.098
-302.807	-200.000	-0.006	0.246
-301.793	800.000	-0.031	0.134
-300.778	-200.000	-0.031	-0.284
-299.764	22.715	0.392	-0.322
-298.749	39.857	0.136	0.123
-297.735	429.365	0.072	0.156
-296.720	-69.494	0.134	-0.052
-295.705	232.167	-0.027	-0.044
-294.691	800.000	-0.057	0.233
-293.676	800.000	0.073	-0.227
-292.662	116.325	-0.109	-0.134
-291.647	-200.000	0.028	0.195
-290.632	40.588	-0.067	0.060
-289.618	-200.000	-0.141	-0.670
-288.603	-31.668	-0.184	-0.103
-287.589	89.292	-0.059	0.066
-286.574	209.658	-0.082	0.129
-285.559	-200.000	-0.003	0.168
-284.545	68.638	-0.141	0.145
-283.530	-129.992	-0.111	0.015
-282.516	800.000	0.058	0.215
-281.501	-125.093	0.153	0.024
-280.486	800.000	-0.087	0.305
-279.472	101.943	0.196	0.230
-278.457	-112.701	0.519	0.103
-277.443	-16.570	-0.039	-0.025
-276.428	109.934	-0.107	-0.129
-275.413	-47.287	0.116	0.057
-274.399	269.915	0.073	-0.129
-273.384	800.000	0.025	0.097
-272.370	-200.000	0.041	0.239
-271.355	297.467	-0.017	-0.031
-270.340	800.000	-0.031	0.093
-269.326	212.358	0.187	0.296
-268.311	27.422	0.141	0.119
-267.297	-64.605	-0.190	0.078
-266.282	87.086	0.063	-0.069
-265.267	160.257	0.119	-0.167
-264.253	-94.393	0.532	-0.146
-263.238	-200.000	-0.053	0.363
-262.224	-200.000	-0.034	0.235
-261.209	800.000	0.098	-0.331
-260.195	142.471	0.207	0.275
-259.180	-52.311	0.071	0.033
-258.165	300.366	0.064	0.119
-257.151	-40.265	-0.068	-0.035
-256.136	-200.000	-0.016	-0.178
-255.122	104.136	-0.027	-0.032
-254.107	421.903	0.074	0.160
-253.092	108.430	0.224	-0.268
-252.078	50.715	-0.177	-0.168
-251.063	-95.924	0.397	-0.106
-250.049	800.000	-0.090	-0.280
-249.034	800.000	0.040	-0.114
-248.019	-137.714	0.270	0.030
-247.005	549.784	-0.107	0.258
-245.990	-143.974	0.006	-0.001
-244.976	-73.486	0.026	0.010
-243.961	239.731	0.024	-0.041
-242.946	-41.201	0.110	0.057
-241.932	75.883	0.117	-0.124
-240.917	-200.000	-0.035	0.285
-239.903	-200.000	0.004	0.365
-238.888	78.852	0.148	-0.158
-237.873	-130.262	0.198	0.027
-236.859	800.000	0.119	-0.330
-235.844	800.000	-0.078	-0.336
-234.830	-1.848	0.331	-0.233
-233.815	179.229	0.204	-0.299
-232.800	724.920	-0.084	0.225
-231.786	593.203	0.099	0.244
-230.771	120.995	0.187	-0.233
-229.757	115.214	0.150	0.183
-228.742	47.789	-0.178	-0.167
-227.727	-134.441	0.433	0.053
-226.713	-200.000	-0.032	0.157
-225.698	-86.882	0.409	-0.125
-224.684	800.000	0.072	0.245
-223.669	459.552	0.057	0.128
-222.655	-200.000	0.000	0.003
-221.640	40.765	0.193	-0.174
-220.625	448.066	-0.048	0.106
-219.611	-62.989	0.172	0.071
-218.596	63.170	0.143	0.143
-217.582	-20.142	-0.197	0.122
-216.567	-200.000	0.015	0.172
-215.552	-200.000	-0.365	-0.001
-214.538	-125.370	-0.156	0.024
-213.523	633.119	-0.115	0.292
-212.509	288.948	0.194	0.352
-211.494	-0.559	-0.092	-0.065
-210.479	77.961	0.064	-0.068
-209.465	800.000	-0.059	0.202
-208.450	17.891	0.150	0.120
-207.436	-200.000	0.064	0.336
-206.421	-40.065	-0.084	0.044
-205.406	43.150	0.144	0.132
-204.392	50.478	0.083	0.078
-203.377	-47.981	-0.050	-0.024
-202.363	187.908	-0.198	-0.296
-201.348	-13.600	-0.322	-0.209
-200.333	-27.670	-0.108	-0.063
-199.319	145.250	0.162	-0.216
-198.304	-200.000	0.038	-0.172
-197.290	143.397	-0.069	0.092
-196.275	800.000	-0.069	-0.209
-195.260	-200.000	0.015	0.124
-194.246	-81.017	-0.055	-0.018
-193.231	78.706	-0.075	-0.080
-192.217	688.982	0.039	0.101
-191.202	-200.000	0.025	-0.290
-190.187	141.157	0.079	-0.105
-189.173	-42.195	0.178	-0.091
-188.158	-66.055	-0.080	-0.032
-187.144	373.044	-0.128	0.260
-186.129	525.022	-0.198	0.466
-185.114	187.538	-0.070	-0.105
-184.100	-105.293	0.147	-0.034
-183.085	97.564	-0.179	0.205
-182.071	-200.000	-0.044	0.406
-181.056	-200.000	0.031	-0.171
-180.042	761.322	-0.050	-0.136
-179.027	-68.974	0.585	-0.226
-178.012	87.242	-0.153	0.169
-176.998	59.122	-0.062	-0.061
-175.983	-123.667	0.168	-0.027
-174.969	-185.361	-0.309	-0.005
-173.954	-178.583	-0.136	0.003
-172.939	-26.228	0.309	-0.181
-171.925	-34.141	0.194	0.106
-170.910	-36.713	0.129	0.069
-169.896	380.240	0.049	0.099
-168.881	-176.268	0.256	-0.007
-167.866	283.670	0.135	0.243
-166.852	-200.000	0.011	-0.145
-165.837	297.672	-0.037	0.067
-164.823	128.320	0.051	0.065
-163.808	-100.903	-0.112	-0.027
-162.793	-168.365	0.352	0.014
-161.779	-58.405	-0.271	-0.118
-160.764	-200.000	-0.009	0.057
-159.750	-200.000	-0.008	-0.123
-158.735	-200.000	-0.073	0.328
-157.720	-140.893	0.035	0.004
-156.706	195.107	-0.106	0.160
-155.691	-145.987	-0.220	0.019
-154.677	-200.000	-0.031	-0.152
-153.662	103.970	-0.280	-0.329
-152.647	-95.189	0.089	0.024
-151.633	800.000	0.041	-0.150
-150.618	-199.174	0.112	0.001
-149.604	155.968	0.259	-0.357
-148.589	-120.471	-0.294	-0.050
-147.574	12.032	-0.131	0.101
-146.560	-90.619	0.048	-0.014
-145.545	800.000	0.039	0.131
-144.531	-14.074	-0.293	0.189
-143.516	53.123	-0.298	0.285
-142.502	-200.000	0.025	-0.165
-141.487	118.028	0.216	-0.266
-140.472	83.744	0.213	0.232
-139.458	181.055	0.062	0.091
-138.443	157.526	0.145	-0.200
-137.429	800.000	0.092	0.315
-136.414	800.000	-0.032	0.121
-135.399	-34.475	-0.023	0.012
-134.385	-84.695	-0.356	-0.112
-133.370	40.643	-0.173	-0.155
-132.356	-115.466	0.045	-0.008
-131.341	337.160	-0.109	-0.212
-130.326	-3.343	0.136	0.095
-129.312	208.470	0.104	0.162
-128.297	22.994	0.080	0.066
-127.283	-200.000	0.019	-0.269
-126.268	12.849	-0.238	0.183
-125.253	-92.664	-0.082	0.023
-124.239	79.321	0.250	0.267
-123.224	122.224	0.195	0.243
-122.210	800.000	-0.070	0.291
-121.195	-146.211	-0.127	-0.011
-120.180	232.791	-0.110	-0.181
-119.166	-114.294	-0.054	0.010
-118.151	590.816	-0.039	0.097
-117.137	76.701	-0.098	0.104
-116.122	-94.246	0.164	0.045
-115.107	41.219	-0.084	0.076
-114.093	-23.639	0.194	0.116
-113.078	115.204	-0.111	-0.135
-112.064	-94.900	-0.060	0.016
-111.049	800.000	-0.027	-0.092
-110.034	-122.113	0.124	0.020
-109.020	481.881	-0.075	-0.171
-108.005	80.527	0.044	-0.047
-106.991	469.641	-0.072	0.160
-105.976	110.336	0.097	-0.116
-104.962	408.781	-0.145	-0.306
-103.947	-63.623	-0.187	-0.076
-102.932	173.176	-0.285	-0.409
-101.918	-50.155	-0.318	0.150
-100.903	487.982	-0.021	-0.048
-99.889	-26.505	-0.195	-0.114
-98.874	-200.000	-0.031	-0.142
-97.859	-18.574	0.062	-0.039
-96.845	800.000	0.042	-0.136
-95.830	56.474	-0.257	0.249
-94.816	800.000	-0.082	0.226
-93.801	-200.000	-0.027	0.285
-92.786	-10.885	0.247	-0.162
-91.772	527.743	0.043	0.102
-90.757	-158.848	-0.102	0.006
-89.743	345.663	-0.142	0.278
-88.728	800.000	-0.047	-0.168
-87.713	-128.613	0.141	0.020
-86.699	-46.185	-0.237	-0.116
-85.684	-200.000	0.005	0.036
-84.670	-112.361	-0.095	0.019
-83.655	-33.494	-0.165	-0.091
-82.640	800.000	0.061	0.169
-81.626	37.965	-0.291	-0.258
-80.611	-200.000	-0.004	0.128
-79.597	-110.400	0.212	0.044
-78.582	-82.367	0.405	-0.131
-77.567	-49.499	0.094	-0.044
-76.553	63.646	0.118	-0.118
-75.538	57.132	-0.112	-0.109
-74.524	-13.998	0.247	0.159
-73.509	189.154	-0.155	0.231
-72.494	-196.675	0.250	0.002
-71.480	-200.000	-0.008	-0.305
-70.465	198.396	0.014	-0.022
-69.451	-200.000	0.010	0.160
-68.436	33.405	-0.125	0.108
-67.422	415.696	0.068	-0.144
-66.407	-80.260	0.521	-0.173
-65.392	205.467	0.148	-0.229
-64.378	30.528	0.260	0.221
-63.363	-9.105	0.479	-0.319
-62.349	86.646	-0.193	-0.212
-61.334	15.707	-0.794	-0.621
-60.319	24.972	0.653	0.539
-59.305	788.021	-0.358	-0.978
-58.290	249.724	0.463	0.782
-57.276	549.651	0.661	1.578
-56.261	-200.000	86.846	502.915
-55.246	427.764	1422.388	3054.407
-54.232	139.662	2645.615	3466.090
-53.217	107.275	2272.946	2688.071
-52.203	46.596	1786.262	1649.216
-51.188	40.095	1588.404	1420.000
-50.173	37.764	1559.667	1377.789
-49.159	53.998	1604.414	1534.070
-48.144	57.871	1624.253	1580.783
-47.130	40.822	1582.849	1420.005
-46.115	37.484	1567.280	1382.308
-45.100	37.324	1563.672	1377.933
-44.086	37.360	1560.962	1375.744
-43.071	37.195	1559.898	1373.585
-42.057	37.269	1557.821	1372.227
-41.042	37.280	1555.927	1370.578
-40.027	37.229	1554.482	1368.893
-39.013	37.201	1553.116	1367.440
-37.998	37.106	1552.327	1366.018
-36.984	37.203	1550.755	1365.269
-35.969	37.291	1549.084	1364.357
-34.954	37.188	1547.844	1362.490
-33.940	37.258	1546.290	1361.559
-32.925	37.215	1545.410	1360.429
-31.911	37.249	1544.197	1359.542
-30.896	37.387	1541.921	1358.451
-29.881	37.411	1540.724	1357.510
-28.867	37.397	1539.617	1356.382
-27.852	37.340	1537.773	1354.309
-26.838	37.274	1536.132	1352.349
-25.823	37.317	1534.869	1351.481
-24.809	37.309	1532.716	1349.476
-23.794	37.232	1531.614	1347.918
-22.779	37.309	1530.838	1347.716
-21.765	37.270	1529.529	1346.244
-20.750	37.337	1528.348	1345.613
-19.736	37.344	1527.072	1344.486
-18.721	37.235	1526.394	1343.081
-17.706	37.222	1524.915	1341.637
-16.692	37.243	1524.339	1341.217
-15.677	37.250	1522.662	1339.740
-14.663	37.209	1522.222	1339.014
-13.648	37.145	1520.757	1337.236
-12.633	37.219	1519.559	1336.639
-11.619	37.259	1518.775	1336.169
-10.604	37.290	1517.366	1335.088
-9.590	37.236	1516.881	1334.236
-8.575	37.236	1515.994	1333.408
-7.560	37.214	1515.305	1332.598
-6.546	37.213	1514.148	1331.521
-5.531	37.146	1513.509	1330.442
-4.517	37.166	1512.772	1329.882
-3.502	37.123	1511.283	1328.227
-2.487	37.115	1510.320	1327.274
-1.473	37.293	1508.304	1326.666
-0.458	37.239	1507.646	1325.662
0.556	35.870	1498.911	1316.625
1.571	33.366	1471.155	1275.286
2.586	29.381	1405.258	1192.358
3.600	26.616	1317.214	1100.772
4.615	24.320	1268.539	1046.547
5.629	20.649	1210.173	977.713
6.644	10.625	1117.883	850.768
7.659	2.047	1071.261	771.967
8.673	0.547	1065.276	760.038
9.688	0.364	1062.498	757.072
10.702	0.362	1060.715	755.727
11.717	0.337	1059.389	754.588
12.731	3.079	1062.264	770.318
13.746	12.052	1075.273	825.018
14.761	18.127	1082.175	860.924
15.775	17.965	1080.023	858.320
16.790	16.813	1077.830	850.719
17.804	15.698	1075.908	843.538
18.819	14.759	1073.829	837.127
19.834	14.323	1073.121	834.322
20.848	14.031	1071.630	831.624
21.863	13.776	1070.686	829.546
22.877	13.426	1070.022	827.208
23.892	13.317	1068.809	825.652
24.907	13.255	1068.105	824.729
25.921	13.147	1067.593	823.718
26.936	13.159	1066.897	823.169
27.950	13.206	1066.170	822.768
28.965	13.352	1065.271	822.731
29.980	13.377	1064.601	822.262
30.994	13.352	1063.402	821.143
32.009	13.378	1062.450	820.460
33.023	13.480	1061.856	820.436
34.038	13.549	1061.098	820.120
35.053	13.461	1060.235	818.945
36.067	13.389	1059.138	817.671
37.082	13.396	1058.801	817.371
38.096	13.380	1058.214	816.769
39.111	13.393	1057.256	816.019
40.126	13.351	1056.389	815.070
41.140	13.265	1055.354	813.777
42.155	13.328	1053.933	812.919
43.169	13.266	1053.094	811.893
44.184	13.236	1051.888	810.745
45.199	13.180	1050.465	809.303
46.213	13.193	1049.964	808.908
47.228	13.250	1048.824	808.236
48.242	13.227	1047.840	807.295
49.257	13.260	1046.660	806.478
50.271	13.402	1045.464	806.176
51.286	13.312	1044.705	805.080
52.301	13.296	1043.927	804.331
53.315	13.283	1043.078	803.543
54.330	13.321	1042.247	803.015
55.344	13.218	1041.825	802.120
56.359	13.201	1040.709	801.110
57.374	13.237	1039.530	800.304
58.388	13.199	1038.839	799.517
59.403	13.198	1038.084	798.863
60.417	13.172	1037.199	797.982
61.432	13.119	1036.725	797.294
62.447	13.340	1035.798	797.575
63.461	13.138	1034.768	795.740
64.476	13.081	1034.125	794.901
65.490	13.079	1033.305	794.189
66.505	13.176	1032.101	793.659
67.520	13.237	1031.353	793.305
68.534	13.184	1030.606	792.409
69.549	13.153	1030.026	791.741
70.563	13.135	1029.447	791.144
71.578	13.190	1028.537	790.635
72.593	13.006	1028.102	789.352
73.607	13.110	1026.642	788.657
74.622	13.029	1025.402	787.249
75.636	13.054	1024.732	786.785
76.651	12.912	1024.288	785.696
77.666	13.145	1023.249	785.938
78.680	13.019	1022.808	784.931
79.695	13.076	1022.153	784.628
80.709	13.142	1022.123	784.851
81.724	13.114	1021.202	783.942
82.739	13.097	1020.152	782.985
83.753	13.193	1019.049	782.526
84.768	13.242	1018.008	781.888
85.782	13.283	1017.542	781.655
86.797	13.364	1016.836	781.427
87.812	13.388	1015.550	780.483
88.826	13.208	1015.248	779.333
89.841	13.226	1014.351	778.658
90.855	13.266	1013.437	778.076
91.870	13.340	1012.205	777.409
92.884	13.346	1012.327	777.464
93.899	13.347	1011.261	776.577
94.914	13.365	1010.369	775.912
95.928	13.402	1009.913	775.665
96.943	13.321	1009.200	774.670
97.957	13.394	1008.314	774.262
98.972	13.416	1007.108	773.373
99.987	13.384	1006.809	772.923
101.001	13.374	1005.906	772.116
102.016	13.307	1005.009	771.046
103.030	13.363	1003.929	770.410
104.045	13.411	1002.967	769.826
105.060	13.426	1002.229	769.265
106.074	13.335	1001.163	767.953
107.089	13.278	1000.418	767.048
108.103	13.187	999.537	765.882
109.118	13.174	998.498	764.961
110.133	13.126	997.849	764.171
111.147	13.132	996.910	763.416
112.162	13.152	995.910	762.673
113.176	13.303	994.723	762.393
114.191	13.386	993.828	762.021
115.206	13.303	993.503	761.325
116.220	13.282	992.507	760.394
117.235	13.394	991.141	759.798
118.249	13.287	990.805	758.982
119.264	13.218	989.718	757.763
120.279	13.295	989.034	757.528
121.293	13.332	987.826	756.703
122.308	13.143	987.708	755.679
123.322	13.203	986.807	755.201
124.337	13.305	985.374	754.500
125.352	13.278	984.301	753.490
126.366	13.140	983.391	752.099
127.381	13.177	982.456	751.485
128.395	13.198	981.363	750.680
129.410	13.159	980.429	749.722
130.424	13.310	979.552	749.669
131.439	13.271	978.562	748.668
132.454	13.349	977.879	748.433
133.468	13.311	977.061	747.568
134.483	13.300	976.469	746.996
135.497	13.316	976.251	746.836
136.512	13.394	975.066	746.217
137.527	13.412	974.165	745.541
138.541	13.295	973.658	744.563
139.556	13.396	972.426	744.010
140.570	13.375	971.552	743.178
141.585	13.397	971.336	743.047
142.600	13.426	970.228	742.264
143.614	13.313	969.615	741.224
144.629	13.441	968.593	740.951
145.643	13.398	968.139	740.341
146.658	13.500	967.103	739.942
147.673	13.383	966.234	738.690
148.687	13.454	965.104	738.079
149.702	13.369	964.313	737.026
150.716	13.339	963.314	736.065
151.731	13.309	962.456	735.213
152.746	13.272	962.148	734.746
153.760	13.343	961.142	734.230
154.775	13.453	960.179	733.917
155.789	13.330	959.680	732.923
156.804	13.345	959.029	732.428
157.819	13.478	958.052	732.204
158.833	13.420	957.280	731.295
159.848	13.542	956.737	731.354
160.862	13.620	956.033	731.095
161.877	13.550	955.445	730.273
162.892	13.509	954.674	729.438
163.906	13.395	953.705	728.132
164.921	13.443	953.029	727.764
165.935	13.426	952.129	726.937
166.950	13.463	950.975	726.150
167.964	13.453	950.229	725.474
168.979	13.484	949.102	724.687
169.994	13.512	948.463	724.255
171.008	13.441	947.704	723.301
172.023	13.480	946.541	722.519
173.037	13.462	945.709	721.745
174.052	13.576	944.866	721.534
175.067	13.640	944.053	721.127
176.081	13.655	943.268	720.526
177.096	13.465	942.468	719.026
178.110	13.540	941.705	718.707
179.125	13.543	941.213	718.284
180.140	13.564	940.192	717.529
181.154	13.749	939.123	717.451
182.169	13.651	938.742	716.675
183.183	13.763	938.005	716.529
184.198	13.749	937.577	716.078
185.213	13.896	937.202	716.362
186.227	13.714	936.126	714.693
187.242	13.693	935.744	714.251
188.256	13.863	935.077	714.408
189.271	13.849	934.208	713.622
190.286	13.783	933.696	712.883
191.300	13.785	932.887	712.210
192.315	13.683	932.126	711.128
193.329	13.788	931.114	710.744
194.344	13.599	930.425	709.347
195.359	13.583	930.467	709.247
196.373	13.775	929.739	709.452
197.388	13.773	928.913	708.750
198.402	13.819	928.477	708.552
199.417	13.836	928.499	708.577
200.432	13.972	927.857	708.603
201.446	13.982	927.128	708.030
202.461	13.900	926.839	707.394
203.475	13.914	926.442	707.089
204.490	14.083	925.320	706.887
205.504	13.992	924.775	706.024
206.519	13.987	923.404	704.894
207.534	13.938	923.254	704.506
208.548	13.863	922.501	703.553
209.563	14.044	921.870	703.774
210.577	14.019	921.072	702.998
211.592	13.957	920.420	702.179
212.607	14.041	920.219	702.316
213.621	14.052	919.465	701.726
214.636	14.228	918.272	701.495
215.650	14.114	917.783	700.577
216.665	14.204	917.394	700.597
217.680	14.178	916.818	699.987
218.694	14.162	916.482	699.603
219.709	14.334	915.558	699.558
220.723	14.202	914.881	698.424
221.738	14.224	914.137	697.888
222.753	14.413	913.269	697.953
223.767	14.340	912.637	697.105
224.782	14.247	912.364	696.444
225.796	14.253	911.361	695.640
226.811	14.473	910.297	695.685
227.826	14.431	909.643	694.952
228.840	14.462	908.989	694.518
229.855	14.262	908.751	693.441
230.869	14.196	908.256	692.728
231.884	14.295	907.206	692.276
232.899	14.263	906.830	691.794
233.913	14.328	905.710	691.149
234.928	14.073	905.443	689.828
235.942	14.304	904.158	689.743
236.957	14.254	903.815	689.213
237.972	14.317	902.924	688.736
238.986	14.278	902.143	687.919
240.001	14.255	901.882	687.561
241.015	14.240	901.152	686.883
242.030	14.456	900.388	687.129
243.045	14.298	899.613	685.828
244.059	14.490	899.271	686.298
245.074	14.443	898.579	685.516
246.088	14.508	897.963	685.252
247.103	14.528	896.989	684.527
248.117	14.615	896.610	684.535
249.132	14.612	896.247	684.186
250.147	14.607	895.797	683.763
251.161	14.678	894.888	683.298
252.176	14.830	893.992	683.175
253.190	14.786	893.519	682.574
254.205	14.946	892.876	682.675
255.220	15.031	892.083	682.353
256.234	14.864	891.468	681.142
257.249	14.847	890.966	680.631
258.263	14.828	890.632	680.237
259.278	14.954	889.563	679.873
260.293	14.838	889.444	679.252
261.307	15.013	888.352	679.066
262.322	15.063	887.375	678.460
263.336	15.038	887.290	678.237
264.351	15.030	886.754	677.735
265.366	15.032	886.067	677.159
266.380	15.023	885.690	676.770
267.395	14.992	884.985	676.050
268.409	15.026	884.025	675.392
269.424	15.054	883.427	674.990
270.439	15.053	882.637	674.322
271.453	14.954	881.878	673.284
272.468	15.053	881.144	673.062
273.482	14.992	880.441	672.219
274.497	15.072	879.719	671.932
275.512	15.106	879.157	671.579
276.526	14.964	878.343	670.327
277.541	14.968	878.334	670.279
278.555	15.015	877.062	669.437
279.570	15.228	876.496	669.794
280.585	15.112	876.589	669.344
281.599	15.165	875.731	668.842
282.614	15.318	874.953	668.797
283.628	15.223	874.608	668.097
284.643	15.172	873.548	667.023
285.657	15.225	873.069	666.809
286.672	15.231	873.043	666.756
287.687	15.263	872.219	666.194
288.701	15.342	871.548	665.939
289.716	15.407	870.815	665.574
290.730	15.301	870.554	664.895
291.745	15.275	869.870	664.213
292.760	15.341	868.891	663.667
293.774	15.369	868.302	663.271
294.789	15.428	867.789	663.051
295.803	15.444	867.464	662.807
296.818	15.341	866.715	661.769
297.833	15.380	866.112	661.406
298.847	15.387	865.668	661.034
299.862	15.496	864.716	660.679
300.876	15.399	863.952	659.657
301.891	15.605	863.286	659.900
302.906	15.482	863.003	659.138
303.920	15.448	862.226	658.356
304.935	15.685	861.398	658.593
305.949	15.677	860.800	658.047
306.964	15.670	860.034	657.375
307.979	15.652	859.771	657.046
308.993	15.648	859.067	656.434
310.008	15.601	858.720	655.928
311.022	15.642	858.024	655.499
312.037	15.629	857.355	654.878
313.052	15.701	856.705	654.605
314.066	15.744	856.198	654.325
315.081	15.741	855.266	653.544
316.095	15.625	855.226	653.006
317.110	15.770	854.716	653.119
318.125	15.621	853.902	651.864
319.139	15.724	853.034	651.542
320.154	15.688	853.183	651.459
321.168	15.699	852.409	650.853
322.183	15.718	852.087	650.624
323.197	15.659	851.401	649.813
324.212	15.682	850.911	649.472
325.227	15.646	850.292	648.800
326.241	15.801	850.048	649.155
327.256	15.819	848.989	648.360
328.270	15.702	848.594	647.548
329.285	15.883	847.840	647.612
330.300	15.827	847.365	646.979
331.314	15.883	846.442	646.431
332.329	15.849	845.851	645.790
333.343	15.830	845.517	645.405
334.358	15.840	844.954	644.959
335.373	15.913	844.478	644.818
336.387	15.948	843.921	644.469
337.402	15.906	843.373	643.834
338.416	15.925	842.865	643.461
339.431	15.853	842.482	642.838
340.446	16.071	841.805	643.094
341.460	16.170	841.229	642.977
342.475	16.091	840.798	642.289
343.489	16.137	840.319	642.041
344.504	16.187	839.525	641.568
345.519	16.108	839.020	640.823
346.533	16.329	838.242	641.013
347.548	16.186	838.095	640.301
348.562	16.358	837.362	640.336
349.577	16.206	837.137	639.532
350.592	16.293	836.210	639.097
351.606	16.201	835.738	638.330
352.621	16.253	835.440	638.245
353.635	16.282	834.625	637.673
354.650	16.232	834.525	637.351
355.665	16.269	834.041	637.066
356.679	16.343	833.422	636.815
357.694	16.253	833.123	636.191
358.708	16.400	832.291	636.053
359.723	16.295	832.013	635.387
360.738	16.170	831.693	634.617
361.752	16.120	831.195	633.994
362.767	16.453	830.455	634.623
363.781	16.355	830.044	633.885
364.796	16.403	829.521	633.611
365.810	16.454	828.874	633.251
366.825	16.443	828.597	632.941
367.840	16.427	828.700	632.907
368.854	16.524	828.181	632.814
369.869	16.537	827.730	632.463
370.883	16.616	826.870	632.045
371.898	16.566	826.083	631.202
372.913	16.564	825.435	630.644
373.927	16.547	825.195	630.340
374.942	16.516	824.806	629.872
375.956	16.545	824.052	629.350
376.971	16.663	823.296	629.155
377.986	16.698	822.684	628.763
379.000	16.808	822.159	628.714
380.015	16.803	821.959	628.487
381.029	16.854	821.230	628.061
382.044	16.848	820.663	627.549
383.059	16.773	820.133	626.812
384.073	16.812	819.783	626.632
385.088	16.812	819.067	626.030
386.102	16.845	818.419	625.603
387.117	16.754	817.962	624.862
388.132	16.654	817.907	624.395
389.146	16.780	817.138	624.215
390.161	16.963	816.936	624.682
391.175	16.828	816.625	623.891
392.190	16.921	815.913	623.633
393.205	16.868	815.469	623.043
394.219	16.850	815.138	622.669
395.234	16.747	814.797	621.978
396.248	16.740	814.504	621.671
397.263	16.873	813.744	621.524
398.278	16.810	813.402	620.976
399.292	16.941	812.845	620.977
400.307	16.829	812.623	620.343
401.321	16.754	812.356	619.808
402.336	16.886	811.715	619.748
403.350	16.895	811.310	619.417
404.365	16.754	810.657	618.349
405.380	16.978	810.235	618.790
406.394	17.000	810.035	618.661
407.409	17.037	809.356	618.224
408.423	17.036	808.993	617.886
409.438	17.049	808.570	617.558
410.453	17.336	807.648	617.841
411.467	17.257	807.648	617.501
412.482	17.102	807.171	616.516
413.496	17.291	806.195	616.404
414.511	17.305	806.031	616.276
415.526	17.221	805.986	615.879
416.540	17.397	804.952	615.673
417.555	17.259	804.809	615.008
418.569	17.243	804.325	614.526
419.584	17.240	803.877	614.122
420.599	17.363	803.477	614.205
421.613	98.682	1276.930	1418.078
422.628	84.628	1345.903	1418.216
