DTS Sentinel unit serial number:	SN413079Multiplexer serial number:	ORYXHardware model number:	OX4-SRSoftware version number:	ORYX F/W v4.00 Oryx Data Collector v3.7.2.0data status	okinstallation	princeton_trtdifferential loss correction	single-endedforward channel	channel 3reverse channel	N/Adate	2019/09/18time	12:52:35forward acquisition time	60.00reverse acquisition time	0.00gamma	496.2192k internal	0.2315k external	0.2315temperature offset calibration	0.9969default loss term (dB/km)	0.3790temperature slope calibration	1.0000multiplexer offset coefficient	1.0000multiplexer slope coefficient	1.0000fibre end	0.00T internal ref (°C)	33.12T ext. ref 1 (°C)	0.56T ext. ref 2 (°C)	28.98length (m)	temperature (°C)	Stokes	anti-Stokes-747.200	-200.000	0.010	0.257
-746.185	-200.000	0.033	-0.188
-745.171	-200.000	-0.027	0.244
-744.156	-200.000	0.006	0.323
-743.142	-16.494	0.030	0.019
-742.127	204.219	0.210	0.329
-741.112	-170.069	-0.080	-0.003
-740.098	-64.598	-0.200	-0.082
-739.083	-200.000	0.098	-0.553
-738.069	800.000	-0.083	-0.286
-737.054	345.997	0.107	-0.213
-736.039	-193.019	-0.202	0.002
-735.025	-98.679	0.405	0.105
-734.010	512.965	-0.047	-0.112
-732.996	-116.544	-0.374	0.070
-731.981	-81.698	-0.132	-0.044
-730.966	800.000	0.016	-0.052
-729.952	800.000	-0.040	-0.131
-728.937	199.015	0.104	-0.162
-727.923	-135.307	0.224	0.027
-726.908	-24.066	-0.232	0.141
-725.894	-88.576	-0.116	0.035
-724.879	-200.000	-0.036	-0.216
-723.864	-200.000	0.019	-0.286
-722.850	297.641	0.067	0.124
-721.835	47.346	0.075	-0.071
-720.821	-90.417	-0.246	-0.072
-719.806	-199.865	0.274	0.001
-718.791	38.283	0.327	-0.294
-717.777	88.293	0.189	-0.212
-716.762	529.857	-0.027	-0.064
-715.748	169.813	-0.118	-0.171
-714.733	-58.424	0.082	-0.036
-713.718	-58.233	0.340	-0.150
-712.704	-200.000	0.005	0.171
-711.689	800.000	-0.083	-0.272
-710.675	-164.922	-0.310	0.014
-709.660	800.000	0.035	-0.128
-708.645	-140.048	-0.392	-0.042
-707.631	-119.712	-0.226	-0.039
-706.616	-36.042	0.259	-0.142
-705.602	-62.592	0.201	0.084
-704.587	198.424	0.163	-0.252
-703.572	146.876	0.147	0.200
-702.558	-25.385	-0.208	0.124
-701.543	7.145	0.230	-0.174
-700.529	-200.000	0.018	0.159
-699.514	800.000	-0.108	-0.354
-698.499	-73.518	-0.105	0.039
-697.485	37.370	0.087	0.078
-696.470	800.000	-0.106	-0.370
-695.456	-103.809	0.251	-0.059
-694.441	-53.431	0.130	-0.060
-693.426	-138.225	-0.072	-0.008
-692.412	109.415	0.083	0.101
-691.397	537.104	0.016	-0.039
-690.383	2.995	-0.068	-0.050
-689.368	424.480	0.124	0.270
-688.354	-57.323	-0.180	0.080
-687.339	-16.315	0.209	0.134
-686.324	800.000	-0.036	0.153
-685.310	102.338	-0.148	0.175
-684.295	800.000	0.057	-0.253
-683.281	133.818	-0.233	-0.305
-682.266	800.000	-0.146	-0.493
-681.251	785.866	0.068	0.189
-680.237	448.939	0.041	-0.091
-679.222	-45.641	-0.105	0.053
-678.208	400.695	-0.115	0.243
-677.193	140.329	0.078	-0.103
-676.178	-200.000	0.011	-0.054
-675.164	-139.041	0.120	0.013
-674.149	34.269	0.144	0.127
-673.135	145.089	0.190	0.257
-672.120	800.000	0.084	0.278
-671.105	-73.186	0.508	-0.188
-670.091	-45.719	0.027	0.013
-669.076	-71.528	0.113	-0.043
-668.062	800.000	-0.043	0.158
-667.047	266.524	-0.238	-0.420
-666.032	-26.560	-0.134	0.079
-665.018	527.600	0.047	-0.113
-664.003	-55.705	0.081	-0.036
-662.989	176.065	0.085	0.124
-661.974	85.840	0.200	-0.222
-660.959	-93.834	-0.332	0.092
-659.945	442.885	0.047	0.105
-658.930	-200.000	0.029	0.197
-657.916	135.978	-0.058	-0.076
-656.901	800.000	0.022	0.062
-655.886	-200.000	-0.013	0.139
-654.872	415.261	0.159	0.342
-653.857	-200.000	0.019	-0.121
-652.843	331.101	0.051	0.098
-651.828	-47.885	0.259	0.127
-650.814	-200.000	0.018	0.081
-649.799	456.734	0.050	-0.113
-648.784	239.048	0.038	0.064
-647.770	-95.006	-0.221	0.060
-646.755	709.295	0.047	0.125
-645.741	112.979	-0.056	-0.068
-644.726	-200.000	-0.002	-0.057
-643.711	-49.938	-0.459	-0.220
-642.697	800.000	-0.012	0.045
-641.682	-66.025	-0.091	-0.037
-640.668	31.664	-0.067	0.058
-639.653	368.752	-0.040	-0.081
-638.638	-3.920	-0.207	-0.145
-637.624	66.562	0.121	0.124
-636.609	137.761	-0.258	0.341
-635.595	-67.697	-0.194	0.077
-634.580	298.699	-0.098	0.182
-633.565	-61.813	-0.066	-0.028
-632.551	-200.000	0.060	-0.348
-631.536	-200.000	-0.008	-0.228
-630.522	-200.000	-0.045	0.348
-629.507	-100.353	0.185	0.046
-628.492	-144.841	-0.250	-0.023
-627.478	800.000	0.104	0.373
-626.463	-113.461	0.040	-0.008
-625.449	-23.508	-0.063	0.038
-624.434	-200.000	0.002	0.109
-623.419	-200.000	0.050	0.273
-622.405	-118.963	-0.533	0.094
-621.390	276.177	0.171	0.307
-620.376	-52.328	-0.272	0.127
-619.361	795.604	-0.058	-0.162
-618.346	16.352	0.219	0.174
-617.332	-40.162	0.197	0.104
-616.317	-100.581	0.203	0.051
-615.303	-81.158	-0.148	-0.049
-614.288	-24.575	-0.078	-0.047
-613.273	162.262	-0.056	0.079
-612.259	322.529	0.064	0.123
-611.244	-1.484	-0.143	-0.102
-610.230	660.989	-0.080	-0.208
-609.215	800.000	-0.066	0.266
-608.201	-103.281	-0.126	0.030
-607.186	-127.198	-0.169	0.025
-606.171	160.888	-0.063	0.089
-605.157	322.030	-0.074	0.143
-604.142	34.512	-0.067	0.059
-603.128	-31.176	0.398	-0.226
-602.113	-173.452	-0.237	-0.007
-601.098	-12.387	-0.246	-0.162
-600.084	-79.082	0.299	-0.102
-599.069	-57.129	-0.152	0.067
-598.055	-26.693	-0.034	0.020
-597.040	-85.420	0.083	0.026
-596.025	749.942	0.066	0.180
-595.011	84.854	-0.066	0.072
-593.996	-152.929	-0.352	-0.025
-592.982	149.223	0.041	0.055
-591.967	-60.538	0.240	0.103
-590.952	-136.832	0.156	0.018
-589.938	-78.496	-0.273	0.094
-588.923	-16.606	-0.157	0.100
-587.909	-200.000	0.020	0.153
-586.894	259.355	-0.128	-0.223
-585.879	-73.044	0.368	-0.136
-584.865	-200.000	-0.013	0.334
-583.850	-200.000	-0.037	-0.419
-582.836	-200.000	0.012	-0.167
-581.821	-200.000	0.004	0.125
-580.806	-137.020	-0.093	0.011
-579.792	74.974	0.229	-0.242
-578.777	139.356	0.102	-0.136
-577.763	400.037	0.013	0.027
-576.748	126.666	-0.246	-0.314
-575.733	-200.000	-0.004	0.043
-574.719	-80.173	0.163	0.055
-573.704	-53.762	0.196	-0.090
-572.690	-64.569	-0.176	-0.072
-571.675	51.966	0.078	-0.074
-570.661	144.849	0.248	0.333
-569.646	-189.143	0.119	-0.001
-568.631	-79.246	-0.256	-0.087
-567.617	-200.000	-0.009	-0.185
-566.602	152.127	0.219	0.300
-565.588	-200.000	0.083	0.558
-564.573	7.339	-0.115	0.087
-563.558	-166.012	-0.274	0.012
-562.544	23.425	-0.188	0.156
-561.529	-79.221	0.211	-0.072
-560.515	522.333	-0.101	-0.239
-559.500	-61.891	-0.163	0.069
-558.485	-177.818	-0.316	-0.008
-557.471	800.000	-0.040	-0.133
-556.456	-186.487	0.161	0.002
-555.442	-33.821	-0.058	-0.032
-554.427	-181.217	0.227	0.005
-553.412	322.024	-0.147	-0.281
-552.398	800.000	-0.066	0.250
-551.383	3.517	-0.190	0.139
-550.369	15.555	-0.085	-0.067
-549.354	528.435	-0.040	0.095
-548.339	-200.000	0.003	0.336
-547.325	-118.311	0.275	-0.049
-546.310	-163.369	0.224	-0.011
-545.296	-200.000	0.059	0.411
-544.281	-97.368	-0.163	-0.043
-543.266	-200.000	0.076	0.000
-542.252	-160.658	0.232	0.012
-541.237	1.034	-0.052	0.037
-540.223	38.309	0.219	0.196
-539.208	800.000	-0.114	0.332
-538.193	-8.179	-0.033	-0.022
-537.179	-163.663	0.237	-0.011
-536.164	-97.351	-0.127	0.033
-535.150	298.783	0.109	-0.202
-534.135	800.000	-0.067	0.248
-533.121	-200.000	0.008	-0.039
-532.106	565.846	0.081	-0.198
-531.091	153.097	-0.047	0.065
-530.077	-98.482	-0.241	0.062
-529.062	-35.217	0.255	0.139
-528.048	-63.839	0.586	0.241
-527.033	-66.912	-0.109	-0.043
-526.018	-200.000	-0.009	-0.339
-525.004	-200.000	-0.010	0.161
-523.989	-61.685	0.225	0.095
-522.975	-89.404	0.141	0.042
-521.960	55.745	-0.046	-0.045
-520.945	224.856	-0.203	0.330
-519.931	4.627	-0.068	0.050
-518.916	-168.326	0.155	0.006
-517.902	-85.883	0.340	0.106
-516.887	-141.939	-0.125	0.013
-515.872	800.000	0.072	-0.223
-514.858	215.221	-0.063	-0.101
-513.843	-118.492	-0.124	-0.022
-512.829	-138.848	-0.122	-0.013
-511.814	-99.511	-0.426	-0.108
-510.799	-15.718	0.117	0.075
-509.785	386.586	-0.161	0.335
-508.770	45.012	-0.105	-0.097
-507.756	-200.000	-0.033	-0.229
-506.741	4.728	-0.228	0.168
-505.726	-200.000	0.006	-0.166
-504.712	125.971	-0.304	-0.386
-503.697	65.945	-0.065	0.066
-502.683	448.414	-0.112	0.247
-501.668	800.000	0.063	0.196
-500.653	-58.869	-0.138	-0.060
-499.639	-125.762	0.040	0.006
-498.624	-139.457	-0.325	-0.035
-497.610	-177.667	-0.210	-0.005
-496.595	149.999	0.138	-0.188
-495.581	-97.776	0.288	-0.075
-494.566	-200.000	0.019	-0.161
-493.551	126.040	0.102	0.130
-492.537	-93.553	-0.084	0.023
-491.522	125.920	0.170	0.216
-490.508	-72.652	-0.096	0.036
-489.493	81.356	-0.052	-0.057
-488.478	-200.000	-0.016	0.153
-487.464	279.637	-0.070	0.126
-486.449	406.612	0.076	0.161
-485.435	-200.000	-0.018	-0.149
-484.420	-70.426	-0.109	-0.041
-483.405	330.939	-0.064	-0.124
-482.391	-23.296	-0.278	-0.168
-481.376	69.668	0.205	-0.212
-480.362	-75.599	-0.208	-0.074
-479.347	-182.167	-0.390	-0.007
-478.332	550.783	-0.094	0.227
-477.318	-74.343	-0.220	0.080
-476.303	36.407	0.048	-0.043
-475.289	-152.460	-0.339	-0.024
-474.274	-200.000	-0.002	0.132
-473.259	51.633	0.145	0.139
-472.245	-123.991	0.255	0.040
-471.230	-33.185	0.080	-0.044
-470.216	74.979	-0.138	-0.145
-469.201	285.467	0.155	-0.281
-468.186	-200.000	0.018	-0.275
-467.172	-17.066	0.078	0.049
-466.157	-162.612	-0.243	-0.012
-465.143	137.318	0.186	-0.243
-464.128	21.750	-0.355	-0.289
-463.113	408.820	0.071	0.151
-462.099	-80.592	0.337	0.113
-461.084	-78.942	-0.080	-0.027
-460.070	800.000	0.071	-0.200
-459.055	-77.311	-0.183	0.064
-458.040	104.173	0.154	-0.181
-457.026	116.969	-0.030	-0.037
-456.011	800.000	-0.094	-0.321
-454.997	-3.340	0.097	0.068
-453.982	92.326	-0.329	0.372
-452.968	-200.000	0.216	0.001
-451.953	127.493	-0.125	-0.159
-450.938	-200.000	0.020	-0.118
-449.924	-168.479	0.280	0.011
-448.909	-98.534	0.003	-0.001
-447.895	165.569	-0.197	0.279
-446.880	-200.000	0.004	-0.132
-445.865	-101.973	0.296	-0.071
-444.851	800.000	-0.042	0.153
-443.836	103.552	0.144	0.169
-442.822	-58.780	-0.267	0.116
-441.807	20.269	0.156	-0.127
-440.792	89.393	0.105	0.117
-439.778	-4.516	0.117	0.081
-438.763	-52.126	0.133	0.062
-437.749	-200.000	0.028	0.200
-436.734	193.239	-0.053	0.081
-435.719	-200.000	0.002	-0.058
-434.705	610.425	0.081	0.202
-433.690	-200.000	0.028	0.224
-432.676	800.000	0.068	0.256
-431.661	-49.600	0.295	0.141
-430.646	71.045	-0.201	-0.209
-429.632	321.620	-0.175	0.333
-428.617	185.939	-0.106	-0.158
-427.603	339.865	-0.017	-0.034
-426.588	63.089	0.133	-0.134
-425.573	-55.207	-0.232	-0.104
-424.559	148.907	0.149	0.201
-423.544	-200.000	0.041	0.194
-422.530	-87.031	0.181	0.055
-421.515	-140.751	-0.206	0.021
-420.500	168.607	-0.196	0.279
-419.486	497.757	-0.144	0.333
-418.471	257.200	0.243	-0.417
-417.457	90.692	0.246	-0.276
-416.442	-200.000	-0.002	0.355
-415.428	-200.000	0.026	-0.162
-414.413	253.173	-0.157	-0.267
-413.398	185.332	-0.235	-0.349
-412.384	-200.000	0.014	-0.074
-411.369	-179.923	0.065	0.001
-410.355	-97.755	-0.384	0.100
-409.340	25.254	0.214	-0.178
-408.325	-54.437	0.262	0.119
-407.311	-200.000	-0.010	0.206
-406.296	-200.000	-0.015	0.208
-405.282	-38.371	0.150	0.080
-404.267	-73.126	-0.265	0.097
-403.252	-59.703	0.107	0.046
-402.238	-156.214	0.463	-0.029
-401.223	-91.051	0.460	0.132
-400.209	-83.647	-0.189	-0.060
-399.194	-49.805	-0.053	0.025
-398.179	373.417	-0.014	0.028
-397.165	-44.807	0.309	-0.154
-396.150	-30.598	-0.283	-0.160
-395.136	16.760	-0.219	-0.173
-394.121	-200.000	-0.034	0.162
-393.106	177.590	-0.041	0.060
-392.092	128.567	0.146	0.186
-391.077	54.420	0.060	0.057
-390.063	286.264	0.162	0.293
-389.048	-13.850	-0.072	0.047
-388.033	-200.000	-0.016	-0.150
-387.019	800.000	0.103	0.291
-386.004	36.793	-0.087	-0.076
-384.990	-84.200	0.153	0.048
-383.975	-33.474	0.253	0.140
-382.960	411.101	-0.152	-0.321
-381.946	-37.943	-0.200	-0.106
-380.931	-73.005	-0.217	-0.080
-379.917	800.000	0.072	0.278
-378.902	322.528	-0.148	0.281
-377.888	518.895	0.080	-0.186
-376.873	14.212	0.311	-0.242
-375.858	640.527	-0.081	-0.206
-374.844	-200.000	-0.003	-0.089
-373.829	-63.644	0.191	0.078
-372.815	-132.322	0.209	0.027
-371.800	-200.000	0.015	-0.523
-370.785	-138.846	0.256	-0.028
-369.771	-118.571	0.388	0.068
-368.756	197.603	-0.166	-0.253
-367.742	-1.532	-0.143	0.101
-366.727	251.434	0.109	-0.186
-365.712	410.847	0.046	-0.098
-364.698	198.237	-0.197	0.301
-363.683	489.598	0.144	-0.329
-362.669	66.191	0.234	-0.237
-361.654	-119.296	0.221	0.038
-360.639	199.362	-0.079	-0.121
-359.625	-72.815	-0.296	-0.109
-358.610	-103.990	0.455	-0.106
-357.596	-200.000	-0.057	-0.304
-356.581	-77.094	0.130	-0.045
-355.566	800.000	0.074	0.245
-354.552	95.619	0.116	-0.132
-353.537	-102.613	0.095	0.023
-352.523	28.472	-0.096	-0.081
-351.508	-7.823	-0.030	0.020
-350.493	742.479	-0.063	-0.168
-349.479	-97.789	-0.204	0.053
-348.464	169.520	-0.137	-0.196
-347.450	30.914	-0.103	-0.088
-346.435	69.224	0.133	-0.136
-345.420	-124.077	0.274	0.043
-344.406	-6.411	0.115	0.078
-343.391	-157.488	-0.276	0.017
-342.377	734.001	-0.063	-0.169
-341.362	191.779	-0.187	0.281
-340.348	-200.000	-0.003	-0.022
-339.333	-15.092	-0.251	-0.160
-338.318	-20.690	0.278	0.170
-337.304	-200.000	-0.017	-0.082
-336.289	730.853	0.079	0.210
-335.275	19.822	-0.128	0.102
-334.260	125.846	-0.012	0.016
-333.245	-200.000	-0.031	0.282
-332.231	603.279	-0.080	0.199
-331.216	145.516	0.077	-0.103
-330.202	178.130	0.193	-0.281
-329.187	693.859	-0.084	0.220
-328.172	298.526	-0.108	-0.197
-327.158	-200.000	-0.001	-0.374
-326.143	-70.886	0.250	-0.094
-325.129	233.387	-0.140	0.230
-324.114	60.471	-0.286	0.283
-323.099	-1.905	0.142	-0.100
-322.085	800.000	-0.096	-0.271
-321.070	800.000	0.140	-0.451
-320.056	738.411	0.035	-0.094
-319.041	406.929	0.104	-0.220
-318.026	-53.531	-0.299	0.136
-317.012	-200.000	0.010	-0.076
-315.997	725.827	0.015	-0.040
-314.983	-200.000	0.038	0.322
-313.968	-24.432	0.317	-0.188
-312.953	-66.835	0.251	0.099
-311.939	-85.645	-0.371	-0.115
-310.924	-200.000	0.017	0.098
-309.910	-77.218	0.079	-0.027
-308.895	-200.000	0.007	-0.437
-307.880	-200.000	-0.042	-0.388
-306.866	800.000	0.147	-0.464
-305.851	-200.000	-0.025	0.191
-304.837	-1.444	0.309	-0.217
-303.822	-96.269	-0.284	0.075
-302.807	294.763	0.107	0.195
-301.793	179.937	0.136	0.199
-300.778	225.938	0.104	-0.168
-299.764	-100.527	0.366	-0.090
-298.749	-200.000	0.023	0.281
-297.735	-40.934	0.196	0.101
-296.720	-176.606	-0.102	0.003
-295.705	-200.000	-0.002	-0.125
-294.691	-88.399	-0.194	0.058
-293.676	290.156	0.118	-0.214
-292.662	18.889	-0.361	-0.288
-291.647	49.392	-0.204	0.191
-290.632	-98.810	0.159	0.040
-289.618	-200.000	0.022	-0.216
-288.603	-139.450	-0.222	-0.024
-287.589	170.871	0.264	-0.377
-286.574	125.544	0.106	0.133
-285.559	-39.166	0.206	-0.108
-284.545	58.378	-0.108	-0.105
-283.530	-200.000	0.000	0.156
-282.516	-133.137	0.304	-0.038
-281.501	-200.000	0.002	0.064
-280.486	-200.000	0.028	-0.275
-279.472	121.979	0.070	-0.086
-278.457	5.933	0.060	0.044
-277.443	800.000	0.072	0.239
-276.428	97.702	-0.259	-0.296
-275.413	20.202	0.109	0.088
-274.399	328.933	-0.116	-0.222
-273.384	126.541	-0.228	0.287
-272.370	-38.401	0.213	0.112
-271.355	-200.000	0.003	0.270
-270.340	-82.270	0.223	-0.072
-269.326	158.290	0.032	0.044
-268.311	23.927	0.159	0.130
-267.297	142.926	0.261	0.345
-266.282	-100.520	-0.134	0.033
-265.267	-136.556	-0.161	-0.018
-264.253	-155.065	-0.111	0.007
-263.238	153.946	-0.094	-0.129
-262.224	211.125	-0.146	-0.229
-261.209	287.622	-0.134	-0.242
-260.195	800.000	-0.035	0.149
-259.180	-200.000	0.019	-0.266
-258.165	198.329	0.231	0.351
-257.151	-200.000	0.025	0.185
-256.136	73.853	0.053	0.056
-255.122	82.429	0.051	0.055
-254.107	122.326	-0.110	-0.137
-253.092	800.000	-0.066	0.190
-252.078	453.871	-0.102	0.225
-251.063	-118.121	0.400	-0.071
-250.049	-145.705	0.081	0.007
-249.034	-200.000	0.063	0.386
-248.019	-175.690	-0.257	-0.007
-247.005	800.000	0.054	-0.189
-245.990	-45.981	0.039	0.019
-244.976	800.000	-0.087	-0.254
-243.961	111.863	0.105	-0.126
-242.946	-44.850	-0.157	0.078
-241.932	800.000	-0.034	-0.120
-240.917	116.651	-0.106	-0.129
-239.903	800.000	-0.070	-0.227
-238.888	-200.000	-0.007	0.130
-237.873	800.000	0.065	0.201
-236.859	-200.000	0.001	-0.115
-235.844	800.000	0.147	0.410
-234.830	-110.453	0.075	0.015
-233.815	178.385	0.150	0.218
-232.800	800.000	-0.033	0.135
-231.786	800.000	0.123	0.418
-230.771	-75.588	-0.244	-0.086
-229.757	-200.000	0.018	0.331
-228.742	800.000	0.021	-0.059
-227.727	294.298	0.050	-0.090
-226.713	102.465	0.283	-0.329
-225.698	800.000	-0.098	0.318
-224.684	-200.000	-0.025	0.128
-223.669	-200.000	0.070	-0.422
-222.655	187.514	0.041	0.061
-221.640	94.916	0.133	-0.150
-220.625	531.830	0.094	-0.220
-219.611	-118.907	-0.099	0.017
-218.596	426.964	-0.120	-0.258
-217.582	-55.072	0.160	-0.071
-216.567	77.811	0.052	-0.055
-215.552	22.191	-0.162	0.131
-214.538	800.000	0.113	0.363
-213.523	-50.679	0.290	-0.135
-212.509	-101.189	0.117	-0.028
-211.494	618.113	-0.077	0.193
-210.479	392.781	-0.038	-0.078
-209.465	800.000	0.085	0.340
-208.450	-116.928	-0.243	-0.044
-207.436	-29.822	0.271	-0.153
-206.421	-101.090	-0.349	0.085
-205.406	-70.904	-0.072	-0.027
-204.392	240.994	-0.241	-0.400
-203.377	-89.539	0.118	-0.034
-202.363	30.767	-0.421	0.357
-201.348	17.294	0.204	-0.160
-200.333	168.510	0.075	0.107
-199.319	80.753	-0.226	-0.242
-198.304	800.000	-0.032	-0.120
-197.290	-68.140	-0.085	-0.033
-196.275	357.755	0.116	0.230
-195.260	-197.024	-0.383	0.002
-194.246	-200.000	0.040	-0.186
-193.231	-6.847	-0.231	-0.155
-192.217	-60.345	0.069	0.029
-191.202	-47.519	-0.047	0.023
-190.187	-97.294	-0.361	-0.093
-189.173	-200.000	-0.014	-0.255
-188.158	-138.843	0.369	0.040
-187.144	197.629	-0.142	0.215
-186.129	220.082	0.090	0.142
-185.114	-200.000	-0.003	-0.155
-184.100	-157.869	0.059	0.003
-183.085	175.374	0.150	-0.215
-182.071	134.518	-0.129	0.165
-181.056	-176.429	0.194	0.005
-180.042	-14.795	0.051	0.033
-179.027	35.735	-0.146	0.128
-178.012	300.926	0.179	-0.328
-176.998	56.395	-0.033	-0.032
-175.983	12.001	-0.258	0.197
-174.969	-66.801	-0.306	-0.120
-173.954	26.482	0.087	-0.072
-172.939	-30.074	0.182	-0.103
-171.925	-62.644	-0.063	0.026
-170.910	800.000	0.081	-0.258
-169.896	79.895	0.044	0.047
-168.881	800.000	0.100	0.315
-167.866	13.648	-0.043	-0.033
-166.852	309.482	0.091	-0.169
-165.837	-3.052	0.125	-0.086
-164.823	52.087	-0.135	0.128
-163.808	-109.357	-0.101	0.021
-162.793	113.168	0.174	-0.209
-161.779	36.628	0.281	-0.246
-160.764	228.974	-0.128	-0.208
-159.750	-84.564	0.232	0.072
-158.735	-32.905	-0.169	-0.093
-157.720	-87.824	-0.153	0.046
-156.706	121.903	-0.065	0.081
-155.691	-118.670	-0.217	0.038
-154.677	-132.399	0.418	0.053
-153.662	800.000	-0.044	-0.148
-152.647	56.014	-0.046	-0.045
-151.633	-5.322	0.308	0.209
-150.618	120.399	-0.097	-0.119
-149.604	301.078	0.084	-0.153
-148.589	-103.202	-0.210	0.049
-147.574	167.788	0.114	0.161
-146.560	800.000	-0.090	0.368
-145.545	800.000	-0.111	0.371
-144.531	-98.687	0.217	-0.055
-143.516	-158.084	0.246	0.014
-142.502	737.471	-0.118	0.313
-141.487	-55.043	-0.179	0.080
-140.472	-14.564	-0.049	0.031
-139.458	800.000	0.050	0.170
-138.443	-200.000	0.026	-0.256
-137.429	184.085	0.085	0.124
-136.414	-75.651	0.148	0.052
-135.399	-175.963	-0.196	-0.005
-134.385	800.000	0.077	-0.211
-133.370	-120.241	0.193	-0.033
-132.356	4.009	-0.070	-0.051
-131.341	59.076	0.262	0.255
-130.326	800.000	-0.078	0.234
-129.312	316.277	-0.090	-0.169
-128.297	-144.274	-0.253	-0.023
-127.283	318.012	-0.076	-0.143
-126.268	162.084	0.262	-0.363
-125.253	96.018	0.239	0.270
-124.239	800.000	-0.039	0.107
-123.224	-117.415	-0.320	0.057
-122.210	-99.446	-0.163	0.041
-121.195	-46.373	0.346	-0.168
-120.180	-200.000	-0.005	0.261
-119.166	-125.591	-0.291	0.044
-118.151	99.759	-0.081	-0.092
-117.137	-4.411	-0.233	0.159
-116.122	-55.903	0.110	0.049
-115.107	-200.000	0.051	0.282
-114.093	214.990	-0.125	-0.196
-113.078	59.926	-0.094	-0.092
-112.064	-69.996	-0.158	0.059
-111.049	800.000	0.013	-0.039
-110.034	78.715	-0.075	0.079
-109.020	800.000	-0.035	-0.130
-108.005	-97.089	0.159	-0.041
-106.991	-127.911	0.059	-0.008
-105.976	-97.602	0.363	-0.093
-104.962	-117.532	0.481	-0.086
-103.947	14.748	0.361	-0.279
-102.932	-51.430	-0.154	-0.071
-101.918	173.996	-0.197	0.281
-100.903	102.355	0.107	0.124
-99.889	-32.825	0.282	0.155
-98.874	-23.601	-0.263	-0.156
-97.859	-200.000	-0.010	0.075
-96.845	800.000	-0.075	-0.227
-95.830	437.184	0.034	0.073
-94.816	-167.705	0.101	-0.004
-93.801	-67.146	0.148	0.058
-92.786	329.932	-0.040	0.077
-91.772	-82.649	0.028	0.009
-90.757	800.000	0.038	-0.130
-89.743	-51.940	0.221	0.101
-88.728	-97.195	0.484	-0.125
-87.713	-200.000	0.071	0.338
-86.699	297.112	-0.201	0.364
-85.684	-121.272	-0.259	0.043
-84.670	-200.000	0.070	0.566
-83.655	800.000	0.069	-0.286
-82.640	-130.342	-0.261	0.035
-81.626	110.380	0.293	0.348
-80.611	-91.148	-0.328	0.093
-79.597	9.418	0.248	-0.185
-78.582	-94.398	0.290	0.078
-77.567	135.284	-0.071	-0.091
-76.553	-200.000	0.080	-0.461
-75.538	320.268	-0.123	0.230
-74.524	144.821	0.464	0.612
-73.509	-45.112	-0.353	0.173
-72.494	-200.000	-0.015	0.132
-71.480	40.544	-0.181	0.161
-70.465	92.382	0.149	0.166
-69.451	-93.853	0.413	-0.112
-68.436	-98.007	-0.357	-0.091
-67.422	-200.000	-0.052	0.237
-66.407	-200.000	0.015	0.548
-65.392	-85.012	0.105	-0.032
-64.378	-200.000	-0.046	0.210
-63.363	220.747	-0.197	-0.313
-62.349	82.924	0.025	-0.027
-61.334	-8.033	-0.929	-0.618
-60.319	6.589	0.580	0.425
-59.305	800.000	-0.387	-1.305
-58.290	435.037	0.479	1.027
-57.276	318.502	0.817	1.527
-56.261	-200.000	94.647	542.033
-55.246	485.364	1433.342	3220.306
-54.232	147.140	2638.390	3501.314
-53.217	108.148	2236.669	2630.517
-52.203	43.248	1760.622	1585.462
-51.188	36.202	1568.315	1362.673
-50.173	33.812	1540.892	1322.180
-49.159	52.321	1587.828	1493.584
-48.144	54.245	1606.317	1524.509
-47.130	36.567	1565.797	1362.847
-46.115	33.408	1551.295	1328.060
-45.100	33.221	1547.852	1323.751
-44.086	33.186	1546.225	1322.061
-43.071	33.167	1544.284	1320.217
-42.057	33.050	1542.608	1317.918
-41.042	33.118	1541.140	1317.087
-40.027	33.098	1539.740	1315.698
-39.013	33.061	1538.134	1314.012
-37.998	33.126	1536.860	1313.329
-36.984	33.172	1535.894	1312.768
-35.969	33.095	1534.361	1310.872
-34.954	33.150	1532.636	1309.729
-33.940	33.227	1531.074	1308.875
-32.925	33.136	1530.002	1307.278
-31.911	33.212	1527.977	1306.017
-30.896	33.148	1527.094	1304.771
-29.881	33.091	1526.269	1303.622
-28.867	33.147	1523.944	1301.968
-27.852	33.208	1522.498	1301.103
-26.838	33.206	1521.388	1300.084
-25.823	33.163	1520.298	1298.809
-24.809	33.198	1518.381	1297.360
-23.794	33.189	1517.060	1296.116
-22.779	33.239	1515.194	1294.812
-21.765	33.205	1514.130	1293.618
-20.750	33.165	1513.137	1292.446
-19.736	33.161	1512.267	1291.624
-18.721	33.230	1510.592	1290.615
-17.706	33.164	1509.948	1289.565
-16.692	33.076	1508.718	1287.859
-15.677	33.062	1507.970	1287.077
-14.663	33.102	1506.806	1286.306
-13.648	33.091	1505.771	1285.294
-12.633	33.050	1504.774	1284.113
-11.619	33.068	1503.777	1283.336
-10.604	33.180	1503.149	1283.505
-9.590	32.996	1502.323	1281.506
-8.575	33.009	1501.927	1281.206
-7.560	33.095	1500.842	1280.810
-6.546	33.045	1499.782	1279.515
-5.531	33.027	1499.319	1278.950
-4.517	33.093	1497.844	1278.083
-3.502	33.085	1496.746	1277.044
-2.487	33.059	1496.088	1276.258
-1.473	33.099	1494.696	1275.290
-0.458	32.993	1493.747	1273.710
0.556	31.907	1484.094	1264.058
1.571	29.095	1457.233	1222.434
2.586	25.219	1392.537	1143.410
3.600	22.981	1306.882	1059.581
4.615	20.908	1259.905	1009.407
5.629	17.823	1201.655	945.585
6.644	9.157	1113.137	831.179
7.659	1.894	1070.279	762.863
8.673	0.749	1064.509	752.981
9.688	0.532	1061.707	749.855
10.702	0.457	1060.082	748.272
11.717	0.513	1058.284	747.213
12.731	2.943	1061.292	761.324
13.746	11.143	1072.152	809.965
14.761	16.992	1078.885	844.165
15.775	17.566	1078.564	846.695
16.790	16.694	1077.143	841.175
17.804	15.731	1074.665	834.387
18.819	14.808	1073.101	828.524
19.834	14.359	1071.788	825.215
20.848	14.168	1070.728	823.380
21.863	13.870	1069.630	820.989
22.877	13.639	1068.967	819.266
23.892	13.310	1068.246	817.016
24.907	13.384	1067.191	816.502
25.921	13.284	1066.572	815.464
26.936	13.327	1066.404	815.477
27.950	13.411	1065.536	815.154
28.965	13.462	1064.219	814.322
29.980	13.488	1063.185	813.587
30.994	13.340	1062.680	812.402
32.009	13.614	1061.733	812.953
33.023	13.584	1061.406	812.485
34.038	13.558	1060.238	811.389
35.053	13.513	1059.794	810.758
36.067	13.510	1058.396	809.601
37.082	13.447	1057.473	808.517
38.096	13.449	1057.035	808.120
39.111	13.442	1056.312	807.460
40.126	13.485	1055.321	806.840
41.140	13.537	1053.806	805.867
42.155	13.445	1053.031	804.753
43.169	13.367	1052.267	803.720
44.184	13.362	1050.674	802.410
45.199	13.202	1049.775	800.877
46.213	13.339	1049.103	800.957
47.228	13.290	1048.107	799.887
48.242	13.399	1046.673	799.248
49.257	13.470	1045.671	798.753
50.271	13.414	1044.691	797.665
51.286	13.422	1043.979	797.088
52.301	13.342	1043.205	796.046
53.315	13.323	1042.519	795.358
54.330	13.429	1041.133	794.740
55.344	13.478	1040.676	794.554
56.359	13.335	1039.926	793.227
57.374	13.375	1038.529	792.282
58.388	13.411	1037.815	791.842
59.403	13.375	1037.222	791.147
60.417	13.216	1036.772	789.970
61.432	13.151	1036.029	789.026
62.447	13.213	1035.014	788.480
63.461	13.185	1034.593	787.953
64.476	13.242	1033.236	787.123
65.490	13.192	1032.596	786.326
66.505	13.215	1031.807	785.766
67.520	13.197	1031.048	785.033
68.534	13.289	1030.106	784.683
69.549	13.387	1029.154	784.354
70.563	13.253	1029.136	783.634
71.578	13.178	1028.496	782.726
72.593	13.336	1027.402	782.568
73.607	13.238	1026.084	781.033
74.622	13.208	1025.410	780.308
75.636	13.194	1024.217	779.264
76.651	13.223	1023.291	778.631
77.666	13.042	1023.129	777.585
78.680	13.244	1021.521	777.246
79.695	13.238	1021.495	777.125
80.709	13.243	1020.816	776.566
81.724	13.292	1020.079	776.166
82.739	13.260	1019.242	775.309
83.753	13.335	1018.590	775.097
84.768	13.351	1017.726	774.444
85.782	13.460	1016.768	774.157
86.797	13.406	1016.486	773.624
87.812	13.473	1015.472	773.094
88.826	13.441	1014.299	771.982
89.841	13.452	1013.647	771.472
90.855	13.413	1012.642	770.458
91.870	13.559	1011.744	770.385
92.884	13.501	1011.244	769.665
93.899	13.481	1010.400	768.863
94.914	13.466	1009.919	768.360
95.928	13.425	1008.977	767.385
96.943	13.526	1008.554	767.464
97.957	13.572	1007.254	766.619
98.972	13.525	1006.916	766.075
99.987	13.437	1006.195	765.055
101.001	13.523	1005.399	764.777
102.016	13.528	1004.475	764.028
103.030	13.474	1003.903	763.279
104.045	13.445	1002.968	762.367
105.060	13.518	1001.442	761.475
106.074	13.376	1000.625	760.131
107.089	13.470	999.683	759.782
108.103	13.378	999.132	758.875
109.118	13.340	998.198	757.921
110.133	13.355	997.284	757.233
111.147	13.375	996.751	756.852
112.162	13.371	995.680	755.952
113.176	13.385	994.863	755.330
114.191	13.439	994.016	754.866
115.206	13.349	993.098	753.691
116.220	13.473	992.125	753.452
117.235	13.437	991.637	752.851
118.249	13.453	990.680	752.129
119.264	13.501	989.556	751.426
120.279	13.384	989.095	750.481
121.293	13.436	987.985	749.806
122.308	13.479	987.231	749.361
123.322	13.429	986.415	748.450
124.337	13.432	985.292	747.546
125.352	13.429	983.973	746.465
126.366	13.391	983.040	745.521
127.381	13.349	982.017	744.492
128.395	13.265	981.235	743.452
129.410	13.489	979.681	743.214
130.424	13.346	979.497	742.367
131.439	13.338	978.630	741.611
132.454	13.481	977.505	741.332
133.468	13.425	976.797	740.479
134.483	13.463	976.062	740.027
135.497	13.519	975.460	739.754
136.512	13.623	974.399	739.347
137.527	13.524	973.819	738.403
138.541	13.487	972.968	737.526
139.556	13.600	972.315	737.471
140.570	13.517	971.563	736.462
141.585	13.397	971.258	735.637
142.600	13.515	970.029	735.161
143.614	13.542	969.566	734.865
144.629	13.712	968.358	734.637
145.643	13.705	967.774	734.102
146.658	13.496	967.386	732.814
147.673	13.552	965.890	731.866
148.687	13.558	964.845	731.036
149.702	13.555	963.951	730.281
150.716	13.422	963.395	729.209
151.731	13.512	962.661	728.984
152.746	13.451	962.020	728.168
153.760	13.588	960.676	727.684
154.775	13.499	960.113	726.804
155.789	13.503	959.612	726.379
156.804	13.594	958.589	725.938
157.819	13.684	957.499	725.441
158.833	13.676	956.964	724.937
159.848	13.740	956.338	724.681
160.862	13.811	955.453	724.254
161.877	13.626	955.341	723.297
162.892	13.773	953.697	722.632
163.906	13.703	953.079	721.791
164.921	13.607	952.491	720.865
165.935	13.629	950.981	719.757
166.950	13.634	950.310	719.205
167.964	13.639	949.607	718.632
168.979	13.752	948.267	718.044
169.994	13.692	947.271	716.965
171.008	13.697	946.400	716.263
172.023	13.631	946.074	715.668
173.037	13.848	945.368	716.009
174.052	13.742	944.227	714.626
175.067	13.829	943.964	714.737
176.081	13.843	942.640	713.729
177.096	13.820	942.077	713.144
178.110	13.692	941.032	711.740
179.125	13.733	940.366	711.348
180.140	13.826	939.758	711.224
181.154	13.872	939.015	710.796
182.169	13.820	938.205	709.899
183.183	13.851	937.615	709.521
184.198	13.869	936.787	708.909
185.213	13.853	936.428	708.506
186.227	13.891	935.688	708.045
187.242	14.024	935.162	708.153
188.256	14.080	934.456	707.790
189.271	13.999	934.004	707.042
190.286	13.951	932.815	705.875
191.300	13.769	932.403	704.730
192.315	13.843	931.423	704.241
193.329	13.821	930.700	703.537
194.344	13.937	930.132	703.539
195.359	13.836	929.293	702.415
196.373	13.951	928.599	702.311
197.388	13.971	928.554	702.300
198.402	14.014	927.738	701.802
199.417	14.190	927.015	701.937
200.432	14.129	927.010	701.615
201.446	14.194	926.635	701.541
202.461	14.196	926.068	701.058
203.475	14.231	925.477	700.698
204.490	14.278	924.581	700.156
205.504	14.081	924.138	698.927
206.519	14.283	922.788	698.694
207.534	14.027	922.817	697.581
208.548	14.184	921.653	697.295
209.563	14.310	920.707	697.048
210.577	14.296	919.783	696.226
211.592	14.288	919.763	696.117
212.607	14.296	919.188	695.654
213.621	14.344	918.255	695.084
214.636	14.336	917.443	694.374
215.650	14.381	916.544	693.822
216.665	14.274	916.626	693.376
217.680	14.348	916.017	693.164
218.694	14.479	915.265	693.076
219.709	14.491	914.892	692.782
220.723	14.455	914.325	692.143
221.738	14.497	913.675	691.763
222.753	14.490	912.498	690.781
223.767	14.441	911.899	690.064
224.782	14.452	911.191	689.515
225.796	14.613	910.233	689.394
226.811	14.532	909.674	688.574
227.826	14.532	909.255	688.194
228.840	14.450	908.626	687.320
229.855	14.493	907.734	686.761
230.869	14.479	907.262	686.285
231.884	14.546	906.614	686.013
232.899	14.571	905.798	685.438
233.913	14.434	905.179	684.345
234.928	14.617	904.374	684.427
235.942	14.497	903.803	683.440
236.957	14.498	902.947	682.736
237.972	14.507	902.548	682.412
238.986	14.597	901.526	681.948
240.001	14.480	901.526	681.409
241.015	14.586	900.186	680.770
242.030	14.552	899.557	680.094
243.045	14.808	898.606	680.359
244.059	14.692	898.208	679.525
245.074	14.708	897.699	679.141
246.088	14.674	897.110	678.499
247.103	14.716	896.429	678.094
248.117	14.716	895.996	677.706
249.132	14.749	895.429	677.354
250.147	14.736	894.574	676.591
251.161	14.795	894.384	676.630
252.176	14.956	893.394	676.471
253.190	15.007	892.600	676.016
254.205	15.049	891.962	675.644
255.220	15.016	891.421	675.040
256.234	14.939	890.884	674.263
257.249	15.027	890.139	673.995
258.263	14.974	889.988	673.605
259.278	14.874	889.472	672.755
260.293	15.174	888.755	673.360
261.307	15.135	888.144	672.680
262.322	15.145	887.629	672.267
263.336	15.195	886.398	671.476
264.351	15.230	885.964	671.230
265.366	15.176	885.502	670.605
266.380	15.279	884.614	670.286
267.395	15.285	884.002	669.784
268.409	15.111	883.779	668.863
269.424	15.299	882.357	668.477
270.439	15.303	881.807	668.017
271.453	15.177	881.188	666.987
272.468	15.126	880.499	666.204
273.482	15.275	879.844	666.241
274.497	15.409	879.013	666.084
275.512	15.347	878.489	665.381
276.526	15.319	878.017	664.856
277.541	15.426	877.082	664.514
278.555	15.357	876.849	664.005
279.570	15.323	876.369	663.447
280.585	15.437	875.583	663.244
281.599	15.483	874.964	662.898
282.614	15.504	874.125	662.287
283.628	15.425	873.900	661.744
284.643	15.561	873.158	661.659
285.657	15.377	873.183	660.899
286.672	15.507	872.128	660.552
287.687	15.555	872.135	660.686
288.701	15.528	871.412	659.973
289.716	15.460	870.996	659.335
290.730	15.709	869.594	659.192
291.745	15.629	869.447	658.706
292.760	15.667	868.719	658.245
293.774	15.534	868.546	657.535
294.789	15.610	867.648	657.095
295.803	15.691	866.872	656.765
296.818	15.611	866.293	655.956
297.833	15.639	865.742	655.592
298.847	15.554	865.166	654.765
299.862	15.657	864.326	654.473
300.876	15.620	863.898	653.946
301.891	15.782	863.015	653.852
302.906	15.772	862.385	653.277
303.920	15.837	861.504	652.803
304.935	15.816	860.921	652.222
305.949	15.828	860.474	651.874
306.964	15.854	859.970	651.533
307.979	15.803	859.497	650.922
308.993	15.921	858.570	650.616
310.008	15.859	858.589	650.334
311.022	16.015	857.578	650.111
312.037	15.983	857.393	649.792
313.052	15.910	856.997	649.151
314.066	15.920	856.104	648.458
315.081	15.793	855.366	647.351
316.095	16.003	854.539	647.477
317.110	15.889	854.641	647.056
318.125	15.838	853.770	646.147
319.139	15.920	853.477	646.180
320.154	16.058	852.845	646.174
321.168	15.861	852.314	644.959
322.183	15.954	851.571	644.697
323.197	16.071	850.967	644.630
324.212	16.072	850.256	644.038
325.227	15.951	850.173	643.456
326.241	16.025	849.532	643.197
327.256	16.060	848.597	642.565
328.270	16.071	848.541	642.509
329.285	15.977	847.612	641.389
330.300	16.057	847.117	641.261
331.314	16.129	846.610	641.094
332.329	16.048	846.256	640.464
333.343	16.014	845.305	639.557
334.358	16.180	844.816	639.759
335.373	16.205	844.187	639.321
336.387	16.231	843.564	638.891
337.402	16.265	843.340	638.795
338.416	16.145	843.058	638.073
339.431	16.188	842.020	637.390
340.446	16.215	841.632	637.145
341.460	16.431	840.719	637.209
342.475	16.390	840.104	636.535
343.489	16.542	839.554	636.634
344.504	16.452	838.920	635.758
345.519	16.499	838.637	635.663
346.533	16.469	838.458	635.358
347.548	16.444	837.857	634.751
348.562	16.587	837.096	634.658
349.577	16.449	836.603	633.709
350.592	16.462	836.235	633.425
351.606	16.423	835.616	632.753
352.621	16.600	835.036	632.918
353.635	16.509	834.773	632.325
354.650	16.447	834.326	631.697
355.665	16.456	834.218	631.592
356.679	16.556	833.233	631.165
357.694	16.440	833.133	630.599
358.708	16.452	832.499	630.111
359.723	16.463	831.581	629.401
360.738	16.354	831.733	629.052
361.752	16.600	830.882	629.269
362.767	16.570	830.363	628.710
363.781	16.568	829.974	628.351
364.796	16.622	829.574	628.194
365.810	16.709	828.842	627.906
366.825	16.804	828.536	627.970
367.840	16.762	828.314	627.590
368.854	16.824	827.866	627.427
369.869	16.826	827.724	627.269
370.883	16.883	826.630	626.598
371.898	16.831	825.924	625.814
372.913	16.828	825.674	625.559
373.927	16.799	825.030	624.908
374.942	16.777	824.336	624.247
375.956	16.890	823.668	624.099
376.971	16.981	822.945	623.832
377.986	17.058	822.345	623.605
379.000	17.074	822.057	623.389
380.015	16.923	821.766	622.559
381.029	17.040	821.119	622.445
382.044	17.024	820.625	621.958
383.059	17.028	820.093	621.512
384.073	16.911	819.855	620.849
385.088	17.227	818.811	621.159
386.102	17.041	818.219	619.975
387.117	16.993	817.909	619.509
388.132	16.969	817.491	619.050
389.146	16.990	817.160	618.823
390.161	17.113	816.520	618.730
391.175	17.085	816.135	618.283
392.190	17.112	816.127	618.321
393.205	17.147	815.499	617.917
394.219	17.073	815.017	617.227
395.234	17.111	814.393	616.838
396.248	17.137	813.720	616.370
397.263	17.040	813.448	615.754
398.278	17.040	813.244	615.549
399.292	17.120	812.853	615.486
400.307	17.040	812.082	614.558
401.321	17.233	811.687	614.903
402.336	17.120	811.560	614.343
403.350	17.157	811.581	614.440
404.365	17.112	810.633	613.504
405.380	17.329	809.688	613.518
406.394	17.424	809.248	613.473
407.409	17.320	809.035	612.883
408.423	17.378	808.590	612.701
409.438	17.394	808.033	612.282
410.453	17.490	807.822	612.411
411.467	17.434	807.241	611.717
412.482	17.559	806.311	611.407
413.496	17.455	806.559	611.167
414.511	17.526	805.914	610.881
415.526	17.566	805.628	610.753
416.540	17.528	805.353	610.353
417.555	17.554	804.849	610.010
418.569	17.589	804.214	609.602
419.584	17.505	803.862	608.979
420.599	17.569	803.287	608.718
421.613	106.277	1286.902	1453.319
422.628	91.458	1357.368	1453.419
