DTS Sentinel unit serial number:	SN413079Multiplexer serial number:	ORYXHardware model number:	OX4-SRSoftware version number:	ORYX F/W v4.00 Oryx Data Collector v3.7.2.0data status	okinstallation	princeton_trtdifferential loss correction	single-endedforward channel	channel 3reverse channel	N/Adate	2019/09/19time	13:32:35forward acquisition time	60.00reverse acquisition time	0.00gamma	496.2192k internal	0.2326k external	0.2326temperature offset calibration	0.9996default loss term (dB/km)	0.3790temperature slope calibration	1.0000multiplexer offset coefficient	1.0000multiplexer slope coefficient	1.0000fibre end	0.00T internal ref (°C)	30.08T ext. ref 1 (°C)	0.98T ext. ref 2 (°C)	27.00length (m)	temperature (°C)	Stokes	anti-Stokes-747.200	-200.000	0.076	0.367
-746.185	-200.000	-0.005	0.070
-745.171	-200.000	-0.006	0.046
-744.156	-200.000	-0.003	0.339
-743.142	-200.000	0.006	0.173
-742.127	99.376	-0.100	0.117
-741.112	-138.046	-0.203	-0.023
-740.098	28.409	0.202	0.172
-739.083	-16.555	0.049	0.032
-738.069	-200.000	-0.014	0.452
-737.054	473.985	0.095	-0.216
-736.039	378.536	-0.098	0.203
-735.025	14.370	-0.106	0.084
-734.010	54.357	-0.348	-0.338
-732.996	-90.030	-0.197	0.058
-731.981	-13.044	0.231	-0.152
-730.966	15.307	-0.153	-0.121
-729.952	95.839	0.096	-0.110
-728.937	630.215	0.078	0.199
-727.923	86.189	-0.196	0.217
-726.908	-95.636	-0.291	0.079
-725.894	213.229	0.156	0.249
-724.879	-120.034	0.112	-0.019
-723.864	-50.416	-0.297	0.141
-722.850	362.622	-0.203	0.411
-721.835	408.322	-0.121	-0.259
-720.821	800.000	0.021	-0.088
-719.806	-200.000	-0.007	0.070
-718.791	800.000	0.084	0.355
-717.777	-189.648	-0.288	-0.003
-716.762	-200.000	-0.061	-0.293
-715.748	-76.122	-0.217	0.077
-714.733	-200.000	0.002	0.363
-713.718	-111.261	0.263	-0.054
-712.704	518.768	-0.243	-0.574
-711.689	-119.607	-0.223	0.039
-710.675	-36.109	-0.292	-0.159
-709.660	-200.000	-0.042	-0.222
-708.645	-6.076	0.048	-0.033
-707.631	800.000	-0.020	-0.074
-706.616	-28.710	0.170	0.098
-705.602	-103.946	-0.177	0.041
-704.587	-200.000	0.011	-0.218
-703.572	33.383	-0.169	0.148
-702.558	99.595	0.110	0.129
-701.543	26.489	-0.268	0.226
-700.529	-200.000	0.004	-0.034
-699.514	647.006	-0.023	0.060
-698.499	-48.297	-0.310	-0.151
-697.485	93.906	-0.196	0.224
-696.470	-200.000	-0.000	-0.036
-695.456	-200.000	0.036	-0.177
-694.441	-111.105	0.092	0.019
-693.426	-140.004	-0.083	-0.009
-692.412	-11.786	-0.062	-0.041
-691.397	800.000	0.072	-0.206
-690.383	442.410	-0.015	0.034
-689.368	-176.904	0.149	-0.004
-688.354	-128.661	0.114	-0.016
-687.339	-61.966	-0.220	-0.093
-686.324	-38.113	-0.143	0.076
-685.310	-36.096	-0.045	-0.025
-684.295	-200.000	0.000	-0.109
-683.281	800.000	0.105	-0.330
-682.266	800.000	0.107	0.308
-681.251	373.792	-0.103	-0.211
-680.237	414.946	-0.059	-0.126
-679.222	-200.000	-0.066	-0.355
-678.208	34.267	-0.231	0.203
-677.193	257.323	0.029	-0.051
-676.178	-200.000	0.028	0.457
-675.164	790.097	-0.064	0.178
-674.149	-115.466	-0.403	-0.076
-673.135	35.979	0.103	-0.091
-672.120	-200.000	-0.022	-0.170
-671.105	-123.417	0.035	-0.006
-670.091	-63.700	-0.221	-0.091
-669.076	2.560	-0.393	0.286
-668.062	-23.074	-0.167	-0.101
-667.047	-52.458	-0.367	-0.171
-666.032	24.498	0.093	0.077
-665.018	-200.000	0.002	0.060
-664.003	371.343	-0.033	-0.067
-662.989	800.000	0.153	0.438
-661.974	-134.593	-0.336	-0.041
-660.959	-200.000	0.068	-0.463
-659.945	39.115	-0.108	-0.097
-658.930	270.814	0.083	0.147
-657.916	800.000	0.124	0.523
-656.901	410.996	0.135	0.288
-655.886	800.000	0.136	0.393
-654.872	-122.291	-0.274	0.045
-653.857	-41.453	-0.460	-0.238
-652.843	-57.682	-0.295	-0.130
-651.828	-166.717	-0.217	-0.009
-650.814	800.000	-0.039	-0.128
-649.799	-61.314	-0.073	0.031
-648.784	800.000	0.071	-0.202
-647.770	800.000	-0.025	-0.101
-646.755	14.927	-0.183	0.144
-645.741	-19.073	-0.057	0.036
-644.726	-113.885	0.222	-0.043
-643.711	-111.695	-0.144	0.029
-642.697	-31.058	-0.413	0.234
-641.682	343.424	-0.165	0.325
-640.668	362.194	0.110	0.222
-639.653	-125.214	0.102	-0.016
-638.638	-200.000	-0.365	0.001
-637.624	11.430	0.085	-0.065
-636.609	96.766	0.058	-0.066
-635.595	60.643	0.156	0.155
-634.580	3.332	0.146	0.107
-633.565	-25.412	-0.082	0.049
-632.551	383.344	0.040	-0.082
-631.536	-200.000	0.081	0.404
-630.522	-82.977	0.080	-0.026
-629.507	-97.427	-0.205	-0.054
-628.492	453.061	-0.041	-0.091
-627.478	-200.000	0.042	-0.254
-626.463	427.671	0.078	-0.169
-625.449	181.065	0.356	0.525
-624.434	-200.000	-0.017	-0.171
-623.419	-118.855	-0.055	-0.010
-622.405	138.023	0.142	-0.187
-621.390	-200.000	0.065	-0.307
-620.376	-200.000	0.045	-0.283
-619.361	59.535	-0.425	-0.421
-618.346	-7.481	-0.167	-0.113
-617.332	32.152	-0.127	-0.110
-616.317	-90.007	-0.278	-0.081
-615.303	-94.201	0.032	-0.009
-614.288	67.000	-0.219	0.224
-613.273	101.470	-0.273	-0.320
-612.259	7.773	0.327	-0.246
-611.244	-87.637	0.083	-0.025
-610.230	37.430	0.382	0.340
-609.215	-98.748	-0.179	0.046
-608.201	-200.000	-0.044	-0.216
-607.186	229.586	0.142	0.233
-606.171	-87.510	-0.335	-0.102
-605.157	-143.317	-0.140	-0.013
-604.142	-1.408	0.214	-0.152
-603.128	-200.000	0.059	-0.380
-602.113	557.806	-0.009	-0.022
-601.098	521.728	-0.154	-0.362
-600.084	800.000	-0.071	0.248
-599.069	209.846	0.077	0.121
-598.055	-93.396	-0.422	-0.117
-597.040	-31.233	0.448	-0.253
-596.025	-200.000	-0.027	-0.334
-595.011	800.000	0.056	0.194
-593.996	-108.440	0.355	-0.077
-592.982	74.026	-0.185	0.195
-591.967	157.574	0.090	0.125
-590.952	-200.000	-0.025	-0.141
-589.938	276.080	-0.108	0.192
-588.923	-90.376	-0.208	-0.061
-587.909	82.523	0.137	0.149
-586.894	-39.817	0.151	0.079
-585.879	38.791	-0.083	-0.074
-584.865	119.048	0.133	0.165
-583.850	800.000	0.087	0.283
-582.836	280.292	-0.068	-0.122
-581.821	798.301	0.074	0.205
-580.806	-200.000	-0.021	-0.226
-579.792	-171.573	-0.128	0.004
-578.777	27.733	0.197	0.166
-577.763	-200.000	-0.010	-0.383
-576.748	-1.830	-0.148	0.105
-575.733	64.696	-0.059	0.059
-574.719	-200.000	-0.018	-0.279
-573.704	386.166	0.075	-0.156
-572.690	-200.000	0.015	-0.202
-571.675	-149.375	0.435	-0.035
-570.661	-32.143	-0.253	-0.141
-569.646	-200.000	0.006	0.096
-568.631	-200.000	-0.007	0.224
-567.617	570.859	-0.187	0.456
-566.602	-108.703	-0.193	-0.042
-565.588	-126.573	-0.231	-0.034
-564.573	80.505	-0.283	-0.306
-563.558	-36.468	0.474	0.256
-562.544	79.293	-0.129	-0.138
-561.529	-177.715	-0.162	-0.004
-560.515	-200.000	-0.025	0.221
-559.500	119.036	0.240	0.298
-558.485	0.364	0.163	-0.116
-557.471	-200.000	-0.006	-0.208
-556.456	-200.000	-0.084	-0.427
-555.442	14.805	0.067	-0.052
-554.427	-21.016	-0.202	0.124
-553.412	478.685	0.092	-0.209
-552.398	-64.614	0.357	-0.145
-551.383	-88.634	-0.438	-0.131
-550.369	-200.000	-0.005	0.175
-549.354	578.260	-0.124	-0.304
-548.339	-200.000	0.008	0.259
-547.325	310.335	-0.058	-0.108
-546.310	448.249	0.083	0.184
-545.296	155.032	-0.083	-0.115
-544.281	104.686	-0.152	0.179
-543.266	355.190	0.133	-0.266
-542.252	-69.381	0.019	0.007
-541.237	-200.000	0.001	0.094
-540.223	290.713	0.124	0.225
-539.208	-9.192	-0.139	-0.093
-538.193	-171.384	-0.208	-0.007
-537.179	169.608	0.136	-0.195
-536.164	71.122	-0.130	-0.135
-535.150	-37.784	0.149	-0.079
-534.135	800.000	0.038	-0.126
-533.121	-100.464	-0.211	0.052
-532.106	-200.000	-0.014	-0.255
-531.091	800.000	0.072	0.299
-530.077	-33.168	0.192	0.106
-529.062	-173.894	0.214	0.006
-528.048	800.000	0.052	-0.190
-527.033	53.171	0.344	-0.329
-526.018	-200.000	0.041	-0.308
-525.004	129.326	-0.083	0.106
-523.989	-200.000	-0.025	-0.194
-522.975	61.476	-0.130	0.129
-521.960	-109.528	0.218	0.046
-520.945	-200.000	0.006	-0.107
-519.931	63.297	0.124	0.124
-518.916	-11.599	-0.047	-0.031
-517.902	150.422	-0.111	0.151
-516.887	-200.000	-0.010	0.297
-515.872	-44.894	-0.277	0.138
-514.858	-126.333	0.206	-0.031
-513.843	369.937	0.099	-0.201
-512.829	182.104	-0.193	-0.284
-511.814	-200.000	-0.001	0.095
-510.799	89.456	-0.198	-0.221
-509.785	29.547	-0.172	0.146
-508.770	115.003	0.036	-0.043
-507.756	526.529	0.067	0.159
-506.741	190.093	-0.067	-0.100
-505.726	800.000	-0.053	-0.225
-504.712	-156.606	0.205	0.013
-503.697	228.287	-0.082	0.133
-502.683	-49.847	-0.076	-0.036
-501.668	25.687	0.085	0.071
-500.653	-200.000	0.057	0.265
-499.639	242.487	0.071	0.118
-498.624	248.434	-0.150	-0.254
-497.610	-54.353	0.226	0.103
-496.595	-200.000	0.028	0.267
-495.581	-21.581	-0.114	-0.069
-494.566	45.261	-0.030	0.027
-493.551	-89.128	-0.068	0.020
-492.537	-35.665	-0.265	0.144
-491.522	433.299	0.117	0.255
-490.508	-124.681	0.192	0.030
-489.493	-46.296	0.122	0.060
-488.478	-4.832	0.093	0.064
-487.464	-200.000	-0.004	-0.176
-486.449	550.904	0.131	0.314
-485.435	-149.306	-0.168	0.013
-484.420	-6.444	0.108	0.074
-483.405	781.836	-0.069	-0.187
-482.391	-17.481	-0.132	-0.083
-481.376	110.180	0.234	0.280
-480.362	800.000	-0.029	-0.095
-479.347	-200.000	0.247	-0.001
-478.332	-152.658	0.222	-0.016
-477.318	-67.746	0.197	0.077
-476.303	-200.000	-0.036	0.285
-475.289	-200.000	-0.021	-0.283
-474.274	-200.000	0.001	0.031
-473.259	639.866	0.013	0.034
-472.245	-13.451	0.229	-0.148
-471.230	800.000	-0.086	-0.271
-470.216	1.675	0.054	0.039
-469.201	539.651	0.080	0.190
-468.186	-132.550	0.295	0.038
-467.172	-84.009	0.121	0.038
-466.157	265.524	-0.103	-0.179
-465.143	-200.000	0.044	0.383
-464.128	-28.079	-0.509	0.294
-463.113	-200.000	-0.010	-0.148
-462.099	-200.000	-0.022	-0.233
-461.084	800.000	0.079	-0.345
-460.070	800.000	-0.103	0.313
-459.055	22.680	-0.115	-0.094
-458.040	800.000	0.076	-0.258
-457.026	800.000	0.007	-0.021
-456.011	124.878	-0.076	0.096
-454.997	-135.882	-0.175	-0.021
-453.982	61.626	0.148	-0.147
-452.968	182.303	-0.093	0.137
-451.953	-55.341	-0.108	0.048
-450.938	-148.283	0.076	-0.006
-449.924	-128.332	-0.198	-0.028
-448.909	-95.342	0.259	0.069
-447.895	-147.151	-0.132	0.011
-446.880	-85.864	0.302	0.093
-445.865	-45.070	0.127	0.063
-444.851	-200.000	-0.046	0.270
-443.836	-38.078	0.324	0.171
-442.822	519.407	0.106	-0.247
-441.807	800.000	0.018	0.062
-440.792	-92.160	-0.218	0.061
-439.778	-200.000	0.000	0.031
-438.763	800.000	0.091	0.338
-437.749	89.828	0.114	0.127
-436.734	-96.552	0.285	0.075
-435.719	-184.543	0.133	-0.002
-434.705	97.602	0.128	0.146
-433.690	800.000	-0.033	0.126
-432.676	-200.000	-0.012	0.123
-431.661	448.083	-0.155	0.340
-430.646	-200.000	-0.000	-0.113
-429.632	315.891	0.185	-0.348
-428.617	11.776	-0.156	-0.119
-427.603	-54.903	0.344	0.155
-426.588	-47.597	-0.508	-0.246
-425.573	-29.886	-0.083	-0.047
-424.559	800.000	-0.002	-0.007
-423.544	-200.000	0.051	0.224
-422.530	428.296	-0.061	0.131
-421.515	-200.000	-0.004	0.197
-420.500	150.441	0.241	-0.326
-419.486	115.645	-0.113	-0.137
-418.471	-200.000	-0.032	-0.294
-417.457	20.193	0.130	0.104
-416.442	-200.000	-0.004	0.078
-415.428	324.861	-0.080	0.152
-414.413	-143.847	0.278	0.026
-413.398	800.000	-0.020	-0.057
-412.384	261.280	-0.056	0.096
-411.369	762.300	0.059	0.160
-410.355	-15.886	-0.245	0.155
-409.340	-109.720	0.209	0.044
-408.325	-104.991	-0.175	0.040
-407.311	162.389	-0.121	0.169
-406.296	470.557	0.258	0.579
-405.282	77.054	0.097	0.103
-404.267	208.914	-0.101	0.158
-403.252	-18.021	-0.271	-0.169
-402.238	-46.784	0.152	-0.074
-401.223	-91.577	0.142	0.040
-400.209	-200.000	-0.004	0.301
-399.194	428.074	0.109	-0.235
-398.179	-88.574	0.312	-0.093
-397.165	-150.732	-0.174	0.013
-396.150	800.000	0.081	0.309
-395.136	-138.339	-0.268	-0.029
-394.121	184.910	-0.151	-0.223
-393.106	-116.068	-0.286	-0.053
-392.092	93.636	-0.177	0.199
-391.077	-63.879	0.345	0.140
-390.063	547.078	0.090	0.215
-389.048	-200.000	-0.011	0.176
-388.033	3.574	0.191	0.139
-387.019	45.407	-0.119	-0.109
-386.004	351.118	0.086	-0.170
-384.990	-167.189	0.282	-0.011
-383.975	800.000	0.061	0.241
-382.960	35.526	0.264	0.230
-381.946	373.633	0.112	-0.227
-380.931	76.925	-0.078	0.082
-379.917	332.213	-0.118	0.227
-378.902	800.000	0.010	-0.040
-377.888	800.000	0.050	0.166
-376.873	-175.537	0.102	0.003
-375.858	-145.680	-0.253	0.022
-374.844	-133.089	-0.154	-0.019
-373.829	14.376	0.091	-0.071
-372.815	632.673	-0.094	-0.236
-371.800	-200.000	0.014	0.382
-370.785	199.091	0.258	0.393
-369.771	-108.594	-0.303	-0.065
-368.756	9.866	-0.164	0.123
-367.742	800.000	-0.096	0.266
-366.727	-78.252	-0.265	0.090
-365.712	-121.336	-0.247	-0.041
-364.698	-29.272	-0.284	-0.161
-363.683	-5.068	0.251	0.172
-362.669	-42.698	0.253	-0.128
-361.654	102.874	0.187	-0.217
-360.639	-85.304	-0.182	-0.056
-359.625	-88.931	0.197	-0.058
-358.610	-70.136	0.107	0.041
-357.596	-200.000	-0.000	-0.017
-356.581	446.912	-0.113	0.247
-355.566	-43.104	-0.202	-0.102
-354.552	-17.433	0.139	0.087
-353.537	-200.000	0.036	0.187
-352.523	-151.212	-0.424	0.032
-351.508	211.783	0.151	0.236
-350.493	675.780	-0.081	-0.210
-349.479	0.630	-0.386	-0.274
-348.464	-200.000	0.023	-0.127
-347.450	-22.162	0.208	0.126
-346.435	85.535	-0.212	0.232
-345.420	-52.004	-0.126	0.058
-344.406	25.935	0.024	-0.020
-343.391	215.877	-0.137	0.215
-342.377	217.780	-0.173	-0.273
-341.362	82.307	0.212	0.228
-340.348	-72.243	0.299	-0.110
-339.333	-127.335	0.432	-0.062
-338.318	800.000	0.092	-0.285
-337.304	-14.813	0.213	-0.136
-336.289	426.181	-0.118	0.253
-335.275	-90.707	0.171	0.049
-334.260	194.788	0.042	0.063
-333.245	64.741	-0.179	-0.179
-332.231	63.285	-0.268	-0.267
-331.216	-118.559	0.192	-0.034
-330.202	-200.000	-0.002	0.203
-329.187	-72.610	-0.058	0.021
-328.172	-129.635	0.302	0.041
-327.158	-72.059	-0.131	0.048
-326.143	27.087	0.208	-0.173
-325.129	38.541	0.412	-0.365
-324.114	346.202	-0.070	-0.137
-323.099	179.994	-0.066	0.096
-322.085	-128.631	0.262	-0.037
-321.070	-90.892	-0.227	0.065
-320.056	-123.353	-0.096	-0.015
-319.041	704.190	-0.154	-0.403
-318.026	-87.963	-0.176	0.052
-317.012	-200.000	0.001	0.017
-315.997	89.410	0.347	0.384
-314.983	138.909	0.156	-0.204
-313.968	800.000	0.075	-0.281
-312.953	-54.439	-0.064	0.029
-311.939	-115.666	-0.112	0.021
-310.924	-47.269	0.186	-0.090
-309.910	-152.416	-0.163	0.012
-308.895	12.711	-0.099	-0.076
-307.880	122.252	-0.077	-0.095
-306.866	-39.879	0.330	0.171
-305.851	-74.066	-0.025	0.009
-304.837	-115.795	-0.127	0.024
-303.822	-200.000	0.036	0.237
-302.807	-136.782	0.212	0.024
-301.793	281.686	0.209	-0.372
-300.778	800.000	0.050	-0.214
-299.764	-186.048	0.107	-0.002
-298.749	104.820	-0.027	-0.032
-297.735	198.440	-0.149	-0.225
-296.720	800.000	-0.081	0.334
-295.705	800.000	0.008	0.028
-294.691	800.000	-0.012	-0.051
-293.676	-102.139	-0.283	0.067
-292.662	20.908	-0.257	0.207
-291.647	-0.848	-0.233	-0.163
-290.632	-200.000	-0.008	-0.230
-289.618	-48.302	-0.245	-0.117
-288.603	418.792	-0.012	-0.026
-287.589	-200.000	-0.013	0.089
-286.574	-79.358	-0.271	0.091
-285.559	137.666	-0.226	0.294
-284.545	72.730	0.048	0.050
-283.530	59.544	-0.037	0.036
-282.516	-26.511	0.180	-0.105
-281.501	-200.000	0.019	-0.096
-280.486	18.897	0.038	-0.030
-279.472	-200.000	-0.095	0.472
-278.457	373.365	-0.074	0.149
-277.443	129.434	0.159	-0.202
-276.428	471.045	-0.112	-0.249
-275.413	-100.249	0.113	-0.028
-274.399	22.304	-0.136	-0.110
-273.384	667.925	-0.063	-0.161
-272.370	112.294	-0.372	-0.445
-271.355	138.129	0.025	-0.033
-270.340	219.407	-0.192	0.304
-269.326	-80.824	-0.429	-0.141
-268.311	-39.857	0.111	-0.057
-267.297	-10.471	0.327	-0.214
-266.282	37.514	-0.338	0.297
-265.267	-11.173	-0.039	-0.025
-264.253	800.000	-0.048	0.162
-263.238	88.554	-0.334	-0.367
-262.224	259.796	0.095	-0.162
-261.209	-200.000	0.008	0.099
-260.195	-200.000	0.068	0.312
-259.180	-135.456	-0.262	0.031
-258.165	-200.000	0.022	0.216
-257.151	88.928	-0.158	0.175
-256.136	-49.812	-0.322	0.151
-255.122	67.048	0.257	-0.259
-254.107	-56.836	-0.292	0.128
-253.092	666.827	-0.030	-0.076
-252.078	-200.000	-0.021	0.226
-251.063	32.617	-0.062	0.053
-250.049	359.931	-0.094	0.186
-249.034	83.755	-0.004	0.005
-248.019	67.421	-0.179	-0.181
-247.005	132.739	0.134	0.171
-245.990	-200.000	0.009	-0.085
-244.976	-200.000	-0.045	-0.216
-243.961	800.000	0.090	0.298
-242.946	800.000	0.029	0.102
-241.932	33.177	0.288	-0.247
-240.917	285.343	0.225	-0.402
-239.903	-142.573	-0.296	0.029
-238.888	-200.000	-0.059	-0.336
-237.873	2.053	0.322	-0.230
-236.859	-200.000	-0.031	0.328
-235.844	-87.567	-0.084	0.025
-234.830	-28.650	0.172	-0.098
-233.815	-16.288	-0.208	-0.130
-232.800	-97.662	0.101	-0.026
-231.786	800.000	-0.084	-0.250
-230.771	93.197	-0.246	0.275
-229.757	800.000	0.117	0.378
-228.742	-77.087	-0.278	-0.096
-227.727	693.263	-0.139	-0.361
-226.713	12.461	-0.092	-0.070
-225.698	38.611	-0.086	0.076
-224.684	427.602	-0.096	0.204
-223.669	-0.489	0.096	-0.068
-222.655	-200.000	-0.029	0.131
-221.640	-200.000	0.045	0.210
-220.625	-101.532	0.038	-0.009
-219.611	-138.899	-0.133	0.014
-218.596	198.818	0.182	-0.276
-217.582	-99.276	0.098	0.024
-216.567	305.296	0.206	-0.378
-215.552	800.000	0.112	-0.418
-214.538	-91.690	-0.344	-0.097
-213.523	-119.472	0.093	-0.016
-212.509	74.441	0.161	0.167
-211.494	246.190	-0.072	-0.120
-210.479	198.026	-0.062	0.094
-209.465	593.171	0.110	0.268
-208.450	-60.576	-0.089	0.037
-207.436	-45.017	0.069	0.034
-206.421	-200.000	0.015	0.074
-205.406	553.605	0.162	0.386
-204.392	-46.401	0.264	-0.128
-203.377	265.991	0.166	-0.286
-202.363	4.100	0.161	0.116
-201.348	-81.559	0.191	0.062
-200.333	800.000	0.083	0.278
-199.319	-78.597	-0.429	0.145
-198.304	-136.718	0.109	-0.012
-197.290	-122.340	0.175	-0.028
-196.275	-157.278	0.212	-0.013
-195.260	-200.000	0.065	-0.379
-194.246	155.171	0.021	0.028
-193.231	-43.675	-0.042	-0.021
-192.217	689.925	0.007	0.018
-191.202	-200.000	-0.077	-0.338
-190.187	-200.000	-0.025	0.142
-189.173	-106.286	0.068	-0.015
-188.158	69.772	0.124	0.127
-187.144	8.856	-0.305	0.227
-186.129	314.254	0.181	-0.337
-185.114	-24.494	-0.197	-0.116
-184.100	800.000	0.017	0.074
-183.085	-200.000	-0.014	-0.131
-182.071	309.155	0.014	0.027
-181.056	-200.000	-0.027	-0.258
-180.042	275.485	0.125	-0.218
-179.027	118.346	-0.080	-0.097
-178.012	136.275	0.054	0.069
-176.998	800.000	0.050	-0.181
-175.983	-200.000	0.003	0.590
-174.969	751.941	-0.098	-0.261
-173.954	-93.271	0.274	0.075
-172.939	83.643	0.096	0.104
-171.925	-200.000	0.022	0.128
-170.910	-111.540	-0.332	-0.066
-169.896	800.000	0.067	-0.260
-168.881	-200.000	0.045	-0.255
-167.866	-200.000	0.043	-0.322
-166.852	-165.445	0.244	-0.011
-165.837	262.460	-0.229	0.392
-164.823	134.402	-0.004	0.005
-163.808	-157.973	-0.091	-0.005
-162.793	160.474	0.144	-0.199
-161.779	182.360	0.145	0.210
-160.764	625.783	0.082	-0.205
-159.750	-6.352	-0.201	0.135
-158.735	675.575	0.066	0.170
-157.720	-25.899	-0.080	-0.046
-156.706	-25.491	0.301	0.175
-155.691	111.016	-0.202	-0.240
-154.677	-63.239	0.228	-0.093
-153.662	-23.143	-0.169	0.100
-152.647	133.949	0.118	0.151
-151.633	-102.372	0.292	-0.069
-150.618	198.178	-0.121	0.182
-149.604	423.340	0.070	0.149
-148.589	97.430	-0.087	-0.098
-147.574	-114.345	0.239	0.045
-146.560	-124.622	-0.228	-0.035
-145.545	-27.102	-0.069	-0.040
-144.531	333.840	-0.035	-0.067
-143.516	-51.738	0.149	-0.068
-142.502	566.450	-0.059	-0.142
-141.487	800.000	-0.122	0.372
-140.472	616.169	0.158	-0.389
-139.458	-116.263	0.205	0.037
-138.443	361.582	-0.257	0.507
-137.429	-31.033	0.342	0.190
-136.414	800.000	0.036	-0.138
-135.399	800.000	-0.093	-0.348
-134.385	-29.030	-0.362	-0.205
-133.370	355.339	-0.162	-0.317
-132.356	-138.565	0.112	0.012
-131.341	110.849	0.184	0.218
-130.326	-200.000	0.033	-0.182
-129.312	221.153	0.102	-0.161
-128.297	191.079	0.095	-0.141
-127.283	711.971	-0.084	0.220
-126.268	-200.000	-0.017	-0.089
-125.253	-200.000	-0.010	-0.148
-124.239	-200.000	0.031	0.460
-123.224	-200.000	0.010	0.218
-122.210	577.740	-0.071	0.171
-121.195	165.542	-0.386	0.537
-120.180	-53.686	0.200	-0.090
-119.166	43.148	0.057	0.052
-118.151	-18.255	-0.247	-0.152
-117.137	48.522	0.113	-0.104
-116.122	-161.203	-0.478	0.025
-115.107	61.912	-0.183	-0.180
-114.093	101.066	0.244	-0.280
-113.078	-83.174	0.072	-0.023
-112.064	85.733	0.123	0.133
-111.049	-200.000	-0.028	0.212
-110.034	-80.358	0.426	0.140
-109.020	6.459	-0.189	0.138
-108.005	12.150	0.297	0.225
-106.991	265.979	-0.179	-0.307
-105.976	201.686	-0.094	0.143
-104.962	-85.256	-0.302	0.093
-103.947	-10.212	0.214	-0.140
-102.932	484.803	0.049	-0.109
-101.918	-200.000	-0.011	-0.055
-100.903	-56.602	0.140	-0.061
-99.889	-21.699	0.064	-0.038
-98.874	-40.884	0.234	-0.119
-97.859	193.591	-0.208	-0.309
-96.845	-0.667	0.212	0.148
-95.830	232.930	0.069	0.111
-94.816	-200.000	0.032	0.165
-93.801	-42.286	-0.088	-0.044
-92.786	800.000	-0.042	-0.122
-91.772	15.959	-0.200	-0.155
-90.757	-200.000	-0.078	0.000
-89.743	11.428	0.098	-0.074
-88.728	-49.561	0.205	-0.096
-87.713	600.544	0.062	0.151
-86.699	-193.492	0.132	0.001
-85.684	800.000	-0.051	0.155
-84.670	576.948	-0.033	0.079
-83.655	15.564	0.226	0.174
-82.640	-200.000	0.002	0.058
-81.626	-2.529	-0.277	0.191
-80.611	0.758	-0.175	0.123
-79.597	800.000	-0.042	-0.141
-78.582	-174.948	0.040	-0.001
-77.567	-22.367	0.368	0.219
-76.553	236.288	-0.027	-0.044
-75.538	-72.354	0.175	-0.064
-74.524	124.922	-0.182	-0.225
-73.509	36.169	0.043	-0.038
-72.494	-142.605	-0.194	-0.019
-71.480	-28.536	0.310	-0.175
-70.465	346.329	-0.059	0.114
-69.451	-99.956	-0.305	-0.075
-68.436	800.000	-0.034	0.099
-67.422	26.486	-0.151	0.124
-66.407	-109.515	-0.332	0.069
-65.392	-101.056	-0.124	-0.030
-64.378	-14.199	0.265	-0.168
-63.363	49.249	0.101	0.093
-62.349	-200.000	0.031	0.292
-61.334	11.870	-0.891	-0.672
-60.319	49.323	0.503	0.464
-59.305	656.139	-0.427	-1.076
-58.290	408.322	0.484	1.005
-57.276	74.922	1.179	1.219
-56.261	-200.000	101.129	579.149
-55.246	459.091	1459.591	3189.074
-54.232	144.959	2676.799	3514.901
-53.217	106.643	2220.041	2586.076
-52.203	40.936	1736.252	1538.756
-51.188	33.205	1541.670	1312.848
-50.173	30.819	1514.110	1273.041
-49.159	51.621	1566.494	1462.199
-48.144	52.082	1584.819	1482.458
-47.130	33.544	1541.921	1315.210
-46.115	30.432	1526.858	1280.888
-45.100	30.228	1523.302	1276.448
-44.086	30.214	1521.149	1274.495
-43.071	30.153	1519.497	1272.644
-42.057	30.035	1518.092	1270.612
-41.042	30.063	1516.713	1269.594
-40.027	30.105	1514.615	1268.080
-39.013	30.130	1513.125	1266.948
-37.998	30.019	1512.220	1265.384
-36.984	30.058	1510.629	1264.268
-35.969	30.044	1509.099	1262.846
-34.954	30.057	1508.042	1261.999
-33.940	30.019	1506.560	1260.447
-32.925	30.145	1505.058	1259.995
-31.911	30.037	1504.499	1258.745
-30.896	30.139	1502.497	1257.712
-29.881	30.170	1501.205	1256.794
-28.867	30.148	1500.276	1255.814
-27.852	30.142	1498.642	1254.357
-26.838	30.036	1497.699	1252.801
-25.823	30.211	1495.457	1252.059
-24.809	30.222	1493.641	1250.560
-23.794	30.097	1492.977	1249.115
-22.779	30.083	1491.598	1247.815
-21.765	30.210	1490.271	1247.509
-20.750	30.004	1489.884	1245.749
-19.736	30.001	1488.206	1244.281
-18.721	30.093	1486.609	1243.512
-17.706	30.090	1485.771	1242.740
-16.692	30.172	1484.381	1242.076
-15.677	30.078	1483.979	1241.066
-14.663	30.150	1482.225	1240.031
-13.648	29.957	1482.029	1238.523
-12.633	30.021	1480.673	1237.767
-11.619	30.097	1480.199	1237.833
-10.604	30.044	1479.019	1236.445
-9.590	30.168	1477.518	1235.967
-8.575	30.044	1477.005	1234.663
-7.560	30.033	1476.121	1233.801
-6.546	30.018	1474.859	1232.598
-5.531	29.947	1474.701	1231.942
-4.517	30.041	1473.184	1231.251
-3.502	29.987	1472.354	1230.149
-2.487	30.016	1471.481	1229.565
-1.473	29.966	1470.897	1228.697
-0.458	29.994	1469.345	1227.535
0.556	29.375	1460.487	1218.362
1.571	26.986	1434.136	1180.755
2.586	23.451	1372.157	1107.588
3.600	21.373	1286.167	1025.903
4.615	19.343	1240.339	977.762
5.629	16.426	1182.780	916.511
6.644	8.391	1097.040	809.426
7.659	1.975	1056.767	748.247
8.673	1.129	1051.051	740.005
9.688	0.956	1048.184	737.079
10.702	0.816	1047.255	735.679
11.717	1.010	1044.670	734.739
12.731	3.345	1046.713	747.452
13.746	10.569	1056.710	789.802
14.761	16.343	1063.478	823.005
15.775	17.571	1064.237	829.503
16.790	17.274	1062.587	826.696
17.804	16.256	1060.852	820.330
18.819	15.255	1058.968	813.944
19.834	14.842	1057.720	810.910
20.848	14.539	1056.963	808.787
21.863	14.205	1056.029	806.384
22.877	14.082	1055.025	804.947
23.892	13.867	1054.156	803.172
24.907	13.698	1053.447	801.744
25.921	13.699	1052.539	800.988
26.936	13.641	1052.753	800.800
27.950	13.727	1051.666	800.321
28.965	13.746	1050.805	799.684
29.980	13.875	1049.350	799.125
30.994	13.937	1048.525	798.726
32.009	13.959	1047.467	797.957
33.023	13.949	1047.257	797.675
34.038	13.914	1046.488	796.852
35.053	13.992	1045.262	796.220
36.067	13.956	1044.644	795.510
37.082	13.943	1043.484	794.494
38.096	13.874	1043.317	793.966
39.111	13.963	1042.035	793.345
40.126	13.944	1041.146	792.505
41.140	13.861	1040.300	791.395
42.155	13.843	1039.272	790.457
43.169	13.760	1038.959	789.754
44.184	13.864	1037.422	789.014
45.199	13.786	1036.219	787.659
46.213	13.863	1035.227	787.198
47.228	13.841	1034.596	786.544
48.242	13.839	1033.560	785.676
49.257	13.773	1032.679	784.628
50.271	13.939	1031.244	784.250
51.286	13.823	1030.566	783.121
52.301	13.872	1029.555	782.512
53.315	13.929	1028.881	782.200
54.330	13.763	1028.478	781.041
55.344	13.829	1027.367	780.440
56.359	13.889	1026.242	779.797
57.374	13.833	1025.226	778.693
58.388	13.836	1024.481	778.073
59.403	13.691	1023.969	776.938
60.417	13.693	1023.122	776.233
61.432	13.769	1022.327	775.919
62.447	13.697	1021.780	775.099
63.461	13.819	1020.496	774.622
64.476	13.694	1019.699	773.367
65.490	13.688	1018.873	772.644
66.505	13.685	1017.863	771.799
67.520	13.652	1017.942	771.634
68.534	13.568	1016.808	770.314
69.549	13.750	1015.732	770.279
70.563	13.698	1015.391	769.712
71.578	13.659	1014.788	769.006
72.593	13.707	1013.473	768.161
73.607	13.704	1012.828	767.591
74.622	13.582	1012.298	766.558
75.636	13.718	1010.690	765.897
76.651	13.727	1010.084	765.412
77.666	13.722	1009.227	764.676
78.680	13.549	1009.259	763.835
79.695	13.643	1008.092	763.314
80.709	13.819	1007.119	763.321
81.724	13.634	1006.818	762.174
82.739	13.745	1005.682	761.756
83.753	13.845	1005.036	761.660
84.768	13.913	1004.075	761.174
85.782	13.860	1003.453	760.392
86.797	13.963	1002.827	760.322
87.812	13.934	1001.557	759.161
88.826	13.760	1001.636	758.359
89.841	13.850	1000.433	757.788
90.855	13.878	999.633	757.243
91.870	13.842	998.743	756.339
92.884	13.941	997.606	755.860
93.899	13.844	997.399	755.197
94.914	13.894	996.499	754.676
95.928	13.992	995.685	754.437
96.943	13.975	995.035	753.803
97.957	13.846	994.757	752.940
98.972	13.770	993.339	751.453
99.987	13.974	992.540	751.707
101.001	13.917	991.962	750.944
102.016	13.865	991.151	750.029
103.030	13.874	990.145	749.245
104.045	13.976	988.950	748.732
105.060	13.871	988.069	747.524
106.074	13.885	987.670	747.222
107.089	13.948	986.391	746.470
108.103	13.757	985.554	744.914
109.118	13.739	985.065	744.396
110.133	13.687	984.196	743.442
111.147	13.816	982.828	742.921
112.162	13.828	981.903	742.208
113.176	13.763	981.099	741.243
114.191	13.818	980.332	740.846
115.206	13.905	979.355	740.430
116.220	13.805	978.754	739.463
117.235	13.883	977.724	738.966
118.249	13.968	976.900	738.657
119.264	13.905	975.850	737.517
120.279	13.764	975.403	736.490
121.293	13.736	974.600	735.692
122.308	13.859	973.669	735.470
123.322	13.902	972.664	734.838
124.337	13.883	971.517	733.823
125.352	13.741	970.636	732.463
126.366	13.694	969.806	731.564
127.381	13.803	968.352	730.885
128.395	13.883	967.494	730.523
129.410	13.859	966.593	729.672
130.424	13.751	965.474	728.290
131.439	13.872	964.324	727.887
132.454	13.857	964.104	727.592
133.468	13.776	963.326	726.586
134.483	13.917	962.374	726.419
135.497	13.895	961.924	725.922
136.512	13.874	960.571	724.745
137.527	13.822	960.294	724.243
138.541	13.804	959.562	723.550
139.556	13.893	958.446	723.033
140.570	13.878	957.583	722.251
141.585	13.887	956.992	721.782
142.600	13.871	956.484	721.262
143.614	13.911	955.411	720.566
144.629	13.899	954.646	719.873
145.643	13.975	953.717	719.438
146.658	13.900	953.225	718.675
147.673	13.929	952.084	717.877
148.687	13.952	951.306	717.330
149.702	13.853	950.684	716.368
150.716	13.889	949.868	715.845
151.731	13.965	949.034	715.478
152.746	13.967	947.977	714.630
153.760	13.946	947.385	714.029
154.775	13.969	946.517	713.410
155.789	14.047	945.683	713.054
156.804	14.086	945.034	712.668
157.819	14.115	943.971	711.927
158.833	14.138	943.697	711.757
159.848	14.090	943.024	710.981
160.862	14.073	942.804	710.678
161.877	14.054	941.747	709.740
162.892	14.035	940.778	708.866
163.906	14.135	939.632	708.362
164.921	14.026	939.079	707.422
165.935	14.047	937.729	706.430
166.950	14.074	936.854	705.824
167.964	14.026	936.259	705.111
168.979	14.090	935.306	704.598
169.994	14.158	934.119	703.933
171.008	14.252	933.377	703.708
172.023	14.259	932.365	702.913
173.037	14.219	931.897	702.329
174.052	14.147	931.331	701.536
175.067	14.246	930.284	701.100
176.081	14.135	929.776	700.189
177.096	14.111	929.188	699.583
178.110	14.073	928.470	698.823
179.125	14.068	927.791	698.229
180.140	14.155	926.749	697.746
181.154	14.210	925.916	697.290
182.169	14.190	925.311	696.686
183.183	14.240	924.853	696.490
184.198	14.344	923.967	696.196
185.213	14.333	923.028	695.383
186.227	14.258	922.893	694.904
187.242	14.356	922.239	694.759
188.256	14.267	921.820	694.010
189.271	14.223	921.038	693.180
190.286	14.376	920.291	693.191
191.300	14.284	919.350	692.039
192.315	14.237	918.533	691.169
193.329	14.217	917.953	690.586
194.344	14.249	917.511	690.328
195.359	14.261	917.207	690.087
196.373	14.282	916.382	689.490
197.388	14.471	915.837	689.801
198.402	14.391	915.110	688.860
199.417	14.489	914.528	688.770
200.432	14.619	914.134	688.946
201.446	14.629	913.678	688.585
202.461	14.516	913.947	688.259
203.475	14.546	912.910	687.539
204.490	14.598	912.105	687.088
205.504	14.676	910.899	686.438
206.519	14.585	910.592	685.774
207.534	14.736	909.674	685.639
208.548	14.579	909.063	684.477
209.563	14.615	908.375	684.045
210.577	14.678	907.486	683.574
211.592	14.694	907.135	683.312
212.607	14.670	906.801	682.905
213.621	14.750	905.990	682.558
214.636	14.776	905.298	682.085
215.650	14.689	904.851	681.333
216.665	14.760	903.950	680.884
217.680	14.710	903.587	680.346
218.694	14.790	903.155	680.284
219.709	14.660	902.858	679.473
220.723	14.803	901.740	679.153
221.738	14.967	901.043	679.233
222.753	14.880	900.205	678.189
223.767	14.830	899.623	677.487
224.782	14.853	898.711	676.833
225.796	15.014	897.873	676.795
226.811	14.901	897.573	676.051
227.826	15.031	897.048	676.121
228.840	14.921	896.145	674.935
229.855	14.904	895.638	674.425
230.869	14.911	894.827	673.782
231.884	14.883	894.310	673.222
232.899	15.022	893.323	672.979
233.913	14.963	893.019	672.454
234.928	14.964	892.307	671.862
235.942	14.929	891.559	671.099
236.957	14.847	891.071	670.344
237.972	14.991	889.995	670.052
238.986	14.972	889.633	669.643
240.001	14.947	888.869	668.907
241.015	15.062	888.347	668.919
242.030	15.109	887.176	668.165
243.045	15.161	886.394	667.723
244.059	15.209	886.090	667.624
245.074	15.238	885.184	666.999
246.088	15.122	884.721	666.128
247.103	15.265	884.082	666.156
248.117	15.180	883.612	665.409
249.132	15.077	883.269	664.683
250.147	15.184	882.754	664.659
251.161	15.206	881.954	664.084
252.176	15.423	880.846	664.050
253.190	15.425	880.175	663.494
254.205	15.407	879.913	663.166
255.220	15.373	879.514	662.675
256.234	15.451	878.549	662.195
257.249	15.513	877.789	661.807
258.263	15.476	877.393	661.306
259.278	15.593	876.684	661.175
260.293	15.423	876.415	660.244
261.307	15.438	875.758	659.748
262.322	15.587	875.194	659.851
263.336	15.587	874.190	659.037
264.351	15.623	873.847	658.862
265.366	15.657	872.965	658.270
266.380	15.609	872.720	657.838
267.395	15.638	872.134	657.452
268.409	15.564	871.524	656.646
269.424	15.629	870.622	656.161
270.439	15.733	869.741	655.843
271.453	15.745	868.705	655.050
272.468	15.652	868.259	654.294
273.482	15.670	867.706	653.889
274.497	15.834	866.605	653.639
275.512	15.761	866.047	652.879
276.526	15.712	865.302	652.068
277.541	15.671	865.194	651.770
278.555	15.782	864.246	651.430
279.570	15.700	863.724	650.661
280.585	15.791	863.300	650.637
281.599	15.741	862.850	650.046
282.614	15.800	861.694	649.346
283.628	15.927	861.343	649.513
284.643	15.811	861.149	648.862
285.657	15.771	860.647	648.271
286.672	15.804	859.734	647.652
287.687	15.914	859.222	647.633
288.701	15.808	858.665	646.750
289.716	15.843	858.320	646.567
290.730	16.065	857.388	646.659
291.745	16.035	856.957	646.161
292.760	16.017	856.174	645.447
293.774	16.032	855.515	644.950
294.789	15.946	855.165	644.301
295.803	16.021	854.604	644.105
296.818	15.889	853.987	643.082
297.833	15.936	853.380	642.744
298.847	16.033	852.659	642.515
299.862	16.083	851.640	641.880
300.876	16.023	851.073	641.170
301.891	15.999	850.461	640.560
302.906	16.154	849.856	640.634
303.920	16.074	849.374	639.913
304.935	16.254	848.129	639.600
305.949	16.278	847.694	639.305
306.964	16.313	847.315	639.097
307.979	16.321	846.580	638.514
308.993	16.200	846.369	637.842
310.008	16.371	845.571	637.830
311.022	16.356	844.855	637.176
312.037	16.341	844.511	636.804
313.052	16.403	844.406	636.902
314.066	16.370	843.390	635.958
315.081	16.303	842.941	635.310
316.095	16.451	842.014	635.108
317.110	16.306	841.938	634.450
318.125	16.377	841.378	634.240
319.139	16.430	840.856	633.988
320.154	16.304	840.364	633.090
321.168	16.363	839.911	632.913
322.183	16.506	838.958	632.675
323.197	16.345	838.887	631.963
324.212	16.462	838.213	631.839
325.227	16.498	837.395	631.298
326.241	16.372	837.236	630.651
327.256	16.354	836.353	629.863
328.270	16.635	835.713	630.372
329.285	16.591	835.123	629.708
330.300	16.451	834.788	628.879
331.314	16.544	833.967	628.552
332.329	16.471	833.488	627.866
333.343	16.503	833.126	627.656
334.358	16.503	832.739	627.307
335.373	16.586	831.571	626.678
336.387	16.494	831.318	626.093
337.402	16.624	830.879	626.187
338.416	16.635	830.220	625.676
339.431	16.552	829.899	625.073
340.446	16.854	828.695	625.225
341.460	16.765	828.419	624.633
342.475	16.877	827.815	624.532
343.489	16.831	827.395	623.991
344.504	16.684	827.133	623.198
345.519	16.938	826.407	623.531
346.533	16.960	825.708	623.029
347.548	17.001	825.142	622.696
348.562	16.819	825.119	621.957
349.577	16.706	824.409	620.953
350.592	16.843	824.119	621.180
351.606	16.798	823.532	620.520
352.621	16.852	822.936	620.211
353.635	16.856	822.234	619.645
354.650	16.923	822.006	619.662
355.665	16.962	821.458	619.336
356.679	16.920	821.217	618.945
357.694	17.038	820.455	618.748
358.708	16.887	820.245	617.984
359.723	17.010	819.214	617.602
360.738	16.948	818.910	617.089
361.752	16.863	818.561	616.462
362.767	17.058	818.203	616.849
363.781	17.018	817.888	616.411
364.796	17.101	817.045	616.024
365.810	17.150	816.728	615.908
366.825	17.043	816.347	615.178
367.840	17.172	815.945	615.286
368.854	17.246	815.271	614.992
369.869	17.234	815.195	614.837
370.883	17.357	814.193	614.471
371.898	17.198	813.953	613.661
372.913	17.139	813.399	612.977
373.927	17.344	812.628	613.080
374.942	17.124	812.245	611.946
375.956	17.157	811.785	611.662
376.971	17.334	810.789	611.494
377.986	17.297	810.651	611.202
379.000	17.329	810.059	610.819
380.015	17.339	809.514	610.390
381.029	17.425	809.002	610.258
382.044	17.457	808.515	609.950
383.059	17.494	807.801	609.492
384.073	17.582	807.064	609.196
385.088	17.503	806.737	608.613
386.102	17.499	806.282	608.202
387.117	17.509	805.725	607.762
388.132	17.550	805.066	607.358
389.146	17.361	804.807	606.435
390.161	17.517	804.631	606.803
391.175	17.552	804.357	606.668
392.190	17.529	803.707	606.044
393.205	17.480	803.197	605.430
394.219	17.340	803.209	604.889
395.234	17.445	802.554	604.715
396.248	17.571	801.697	604.462
397.263	17.407	801.528	603.702
398.278	17.601	800.918	603.873
399.292	17.510	800.609	603.265
400.307	17.544	800.002	602.876
401.321	17.603	799.670	602.780
402.336	17.684	799.307	602.740
403.350	17.502	798.791	601.654
404.365	17.735	798.224	601.998
405.380	17.734	797.746	601.580
406.394	17.826	797.246	601.474
407.409	17.728	796.826	600.759
408.423	17.824	796.526	600.817
409.438	17.878	795.952	600.520
410.453	17.859	795.700	600.212
411.467	17.898	794.949	599.729
412.482	17.907	794.561	599.415
413.496	18.039	793.857	599.291
414.511	17.891	793.996	598.826
415.526	17.877	793.610	598.432
416.540	18.118	792.876	598.668
417.555	17.907	792.659	597.714
418.569	17.999	792.543	597.896
419.584	17.946	791.784	597.084
420.599	17.941	791.150	596.537
421.613	110.339	1290.334	1466.961
422.628	94.797	1363.061	1467.089
