DTS Sentinel unit serial number:	SN413079Multiplexer serial number:	ORYXHardware model number:	OX4-SRSoftware version number:	ORYX F/W v4.00 Oryx Data Collector v3.7.2.0data status	okinstallation	princeton_trtdifferential loss correction	single-endedforward channel	channel 3reverse channel	N/Adate	2019/09/16time	00:44:35forward acquisition time	60.00reverse acquisition time	0.00gamma	496.2192k internal	0.2338k external	0.2338temperature offset calibration	0.9951default loss term (dB/km)	0.3790temperature slope calibration	1.0000multiplexer offset coefficient	1.0000multiplexer slope coefficient	1.0000fibre end	0.00T internal ref (°C)	27.44T ext. ref 1 (°C)	9.63T ext. ref 2 (°C)	21.41length (m)	temperature (°C)	Stokes	anti-Stokes-747.200	-62.892	-0.507	-0.211
-746.185	-124.129	-0.214	0.034
-745.171	-145.722	-0.257	0.023
-744.156	92.768	0.254	0.287
-743.142	800.000	-0.097	-0.342
-742.127	-0.374	-0.203	-0.145
-741.112	-41.033	-0.109	0.056
-740.098	200.753	0.016	0.025
-739.083	800.000	-0.076	-0.332
-738.069	-46.604	-0.208	0.102
-737.054	87.774	-0.137	0.152
-736.039	-156.565	-0.191	0.012
-735.025	-131.256	0.248	0.033
-734.010	800.000	-0.027	-0.077
-732.996	96.226	-0.264	-0.303
-731.981	91.548	0.187	0.211
-730.966	800.000	-0.073	0.224
-729.952	-53.821	-0.340	-0.155
-728.937	800.000	-0.071	-0.295
-727.923	800.000	0.054	-0.233
-726.908	46.330	-0.171	-0.159
-725.894	800.000	-0.008	-0.028
-724.879	-25.703	-0.097	-0.057
-723.864	-69.276	-0.060	-0.023
-722.850	-77.500	0.307	-0.107
-721.835	-108.048	0.173	0.038
-720.821	-27.499	-0.239	0.139
-719.806	-98.604	-0.231	-0.059
-718.791	-108.187	-0.353	0.077
-717.777	800.000	-0.050	0.139
-716.762	-122.086	0.306	-0.050
-715.748	-200.000	0.024	-0.112
-714.733	6.753	0.150	-0.112
-713.718	-200.000	-0.021	-0.528
-712.704	800.000	0.037	-0.128
-711.689	-93.752	-0.176	0.049
-710.675	-62.575	0.263	-0.110
-709.660	93.429	0.160	0.181
-708.645	56.748	-0.110	0.107
-707.631	7.775	-0.223	0.167
-706.616	102.975	0.135	-0.158
-705.602	800.000	-0.109	-0.321
-704.587	-200.000	-0.017	-0.114
-703.572	-200.000	0.006	0.237
-702.558	377.996	-0.110	0.225
-701.543	444.588	0.011	-0.024
-700.529	-16.078	-0.206	-0.131
-699.514	56.520	0.055	0.053
-698.499	-175.913	-0.645	0.017
-697.485	197.003	-0.015	0.022
-696.470	-200.000	-0.024	-0.158
-695.456	-200.000	0.070	-0.000
-694.441	-136.518	-0.180	-0.021
-693.426	-200.000	0.017	-0.082
-692.412	-50.912	0.219	-0.103
-691.397	304.472	-0.116	-0.216
-690.383	465.817	0.113	-0.254
-689.368	-88.266	0.137	-0.041
-688.354	800.000	-0.091	-0.322
-687.339	800.000	-0.102	-0.348
-686.324	-57.220	-0.084	0.037
-685.310	204.095	-0.053	-0.082
-684.295	77.726	-0.199	-0.212
-683.281	-99.610	0.140	0.035
-682.266	-131.645	-0.082	-0.011
-681.251	-12.821	-0.183	0.119
-680.237	-70.425	0.309	0.117
-679.222	-200.000	-0.035	-0.288
-678.208	800.000	-0.141	-0.591
-677.193	43.652	-0.224	0.205
-676.178	-124.257	-0.371	0.058
-675.164	800.000	-0.097	0.394
-674.149	26.178	-0.036	-0.030
-673.135	-119.284	0.068	-0.012
-672.120	246.469	-0.163	0.274
-671.105	115.194	0.091	-0.111
-670.091	0.789	0.320	-0.229
-669.076	-68.745	0.164	-0.063
-668.062	93.899	-0.102	0.115
-667.047	-27.932	0.552	0.320
-666.032	787.647	0.043	0.119
-665.018	36.113	-0.171	-0.151
-664.003	163.181	0.183	-0.258
-662.989	-147.250	-0.236	0.020
-661.974	1.060	-0.183	-0.131
-660.959	-200.000	0.011	0.139
-659.945	800.000	0.022	-0.088
-658.930	-0.823	-0.134	-0.095
-657.916	-26.640	0.279	-0.164
-656.901	800.000	0.035	-0.122
-655.886	-23.229	-0.332	0.200
-654.872	-33.642	-0.049	0.027
-653.857	-38.470	-0.100	-0.053
-652.843	77.258	-0.143	0.152
-651.828	34.427	-0.155	0.135
-650.814	139.221	-0.125	-0.165
-649.799	-24.893	-0.390	0.231
-648.784	-200.000	0.045	0.530
-647.770	-70.139	-0.147	0.056
-646.755	62.533	-0.214	-0.214
-645.741	408.795	-0.065	0.138
-644.726	-200.000	0.027	0.339
-643.711	-200.000	-0.013	-0.139
-642.697	-101.220	-0.200	0.049
-641.682	-107.579	0.182	-0.040
-640.668	436.586	-0.087	0.189
-639.653	439.303	-0.120	-0.261
-638.638	71.411	0.024	-0.025
-637.624	-200.000	0.006	0.177
-636.609	800.000	0.026	0.092
-635.595	-24.600	0.341	-0.203
-634.580	800.000	-0.023	-0.067
-633.565	800.000	-0.094	0.302
-632.551	415.180	-0.099	0.212
-631.536	16.287	-0.010	0.008
-630.522	229.388	-0.153	0.250
-629.507	-170.746	-0.267	0.009
-628.492	-115.219	0.103	-0.019
-627.478	-200.000	-0.032	0.185
-626.463	374.548	-0.168	-0.342
-625.449	-111.955	-0.303	-0.061
-624.434	303.205	-0.055	0.102
-623.419	-200.000	0.016	0.113
-622.405	-200.000	-0.011	0.105
-621.390	-63.209	-0.289	0.119
-620.376	-104.722	0.083	0.019
-619.361	63.008	0.197	0.197
-618.346	7.757	-0.308	0.230
-617.332	-131.099	-0.164	0.022
-616.317	-200.000	0.040	-0.242
-615.303	235.716	-0.079	-0.131
-614.288	641.271	0.089	-0.226
-613.273	0.969	-0.328	0.235
-612.259	-38.562	0.231	-0.122
-611.244	-161.333	-0.278	-0.014
-610.230	475.343	-0.099	-0.224
-609.215	-47.229	0.251	0.122
-608.201	373.578	-0.063	-0.129
-607.186	-200.000	-0.020	-0.114
-606.171	768.705	0.100	-0.273
-605.157	29.600	0.112	-0.095
-604.142	85.022	-0.167	0.182
-603.128	607.315	0.036	0.089
-602.113	55.307	-0.096	-0.093
-601.098	274.687	0.042	-0.073
-600.084	-100.587	0.180	0.044
-599.069	-146.499	0.309	0.027
-598.055	-200.000	-0.010	-0.183
-597.040	-70.453	0.204	-0.077
-596.025	-52.552	0.229	-0.105
-595.011	-33.317	-0.252	-0.139
-593.996	-39.936	-0.162	-0.084
-592.982	-1.005	0.137	0.097
-591.967	-200.000	-0.057	-0.264
-590.952	2.847	0.076	-0.055
-589.938	-146.276	-0.327	0.029
-588.923	-42.765	0.207	0.105
-587.909	-69.310	-0.026	-0.010
-586.894	18.429	-0.315	0.251
-585.879	-4.269	0.187	-0.129
-584.865	144.659	-0.288	-0.383
-583.850	-200.000	0.094	-0.439
-582.836	800.000	0.049	-0.194
-581.821	363.618	-0.071	-0.143
-580.806	-82.158	-0.295	-0.096
-579.792	-200.000	-0.010	-0.122
-578.777	800.000	0.068	0.274
-577.763	800.000	0.067	0.206
-576.748	36.523	-0.202	0.178
-575.733	-21.604	-0.266	-0.162
-574.719	-65.830	0.312	-0.125
-573.704	250.585	-0.134	-0.226
-572.690	-102.737	-0.154	0.037
-571.675	800.000	0.057	-0.159
-570.661	-4.120	-0.207	-0.143
-569.646	-173.880	0.246	-0.007
-568.631	-158.299	-0.143	-0.008
-567.617	98.126	-0.138	0.158
-566.602	-200.000	-0.001	0.007
-565.588	-112.797	0.198	-0.039
-564.573	-200.000	-0.007	-0.332
-563.558	-200.000	-0.013	0.121
-562.544	3.787	-0.119	0.087
-561.529	-200.000	-0.024	0.370
-560.515	-140.827	0.129	-0.013
-559.500	180.382	-0.049	-0.072
-558.485	800.000	-0.056	0.173
-557.471	14.263	-0.172	-0.133
-556.456	-51.670	-0.060	-0.028
-555.442	-162.206	0.264	-0.013
-554.427	-200.000	0.009	0.116
-553.412	524.100	0.172	0.404
-552.398	-200.000	-0.003	0.043
-551.383	-124.101	0.034	0.005
-550.369	11.954	-0.117	-0.090
-549.354	-46.480	0.101	0.049
-548.339	-39.089	-0.278	-0.146
-547.325	356.059	0.088	0.175
-546.310	-200.000	-0.030	0.158
-545.296	137.410	-0.060	-0.078
-544.281	651.046	-0.046	-0.118
-543.266	-80.068	0.144	-0.048
-542.252	-69.689	0.172	0.066
-541.237	-95.723	-0.341	0.091
-540.223	331.630	-0.095	0.182
-539.208	-62.479	-0.333	-0.138
-538.193	-200.000	0.026	-0.153
-537.179	-137.993	0.308	0.034
-536.164	-31.519	-0.281	-0.157
-535.150	-44.208	0.220	0.110
-534.135	789.353	-0.107	0.292
-533.121	-94.939	-0.233	-0.063
-532.106	-191.767	0.136	0.001
-531.091	21.180	0.282	-0.228
-530.077	-77.384	0.527	-0.182
-529.062	14.743	-0.320	-0.249
-528.048	-129.308	0.110	-0.015
-527.033	27.285	-0.189	-0.158
-526.018	800.000	0.125	-0.355
-525.004	-49.302	0.202	-0.096
-523.989	133.290	-0.067	-0.087
-522.975	-109.354	-0.253	-0.053
-521.960	-32.047	0.177	0.098
-520.945	-200.000	-0.001	-0.380
-519.931	4.917	-0.044	-0.032
-518.916	-200.000	0.056	0.252
-517.902	-200.000	0.026	-0.335
-516.887	-164.959	0.330	-0.015
-515.872	289.418	-0.094	-0.170
-514.858	333.727	-0.092	0.178
-513.843	541.993	0.097	0.230
-512.829	-118.468	0.245	0.043
-511.814	-101.129	-0.051	0.012
-510.799	-200.000	0.005	0.056
-509.785	421.946	0.168	-0.359
-508.770	-22.706	-0.124	0.074
-507.756	-200.000	0.044	-0.198
-506.741	464.447	-0.146	-0.325
-505.726	-56.474	0.287	0.127
-504.712	-58.834	0.147	0.063
-503.697	204.742	0.095	-0.146
-502.683	135.134	-0.100	-0.130
-501.668	-133.852	0.580	0.072
-500.653	-200.000	-0.008	-0.128
-499.639	-23.146	0.248	-0.148
-498.624	800.000	0.021	0.060
-497.610	8.368	-0.229	0.171
-496.595	800.000	0.099	0.293
-495.581	-17.735	-0.305	0.190
-494.566	-75.323	-0.038	0.014
-493.551	800.000	-0.040	-0.144
-492.537	-200.000	0.025	0.127
-491.522	-59.928	-0.084	0.036
-490.508	484.318	-0.081	0.184
-489.493	-119.908	-0.232	0.040
-488.478	287.589	0.104	-0.187
-487.464	59.647	0.097	0.095
-486.449	800.000	-0.019	0.054
-485.435	622.259	0.137	-0.343
-484.420	-56.253	0.213	0.094
-483.405	678.870	-0.062	-0.159
-482.391	-200.000	0.022	-0.144
-481.376	12.325	0.031	0.024
-480.362	136.580	0.039	0.050
-479.347	137.269	-0.034	0.044
-478.332	-89.460	0.051	-0.015
-477.318	53.082	-0.096	-0.091
-476.303	29.191	-0.227	-0.192
-475.289	-34.186	0.269	0.147
-474.274	-158.377	0.091	0.005
-473.259	-147.684	-0.146	-0.012
-472.245	69.334	0.185	-0.189
-471.230	-97.862	-0.262	0.067
-470.216	111.929	-0.033	0.040
-469.201	-85.185	-0.307	0.095
-468.186	146.014	-0.166	-0.221
-467.172	-85.065	0.263	-0.082
-466.157	-83.295	0.192	0.061
-465.143	800.000	0.076	-0.257
-464.128	260.825	-0.032	0.055
-463.113	-200.000	-0.003	0.442
-462.099	-200.000	-0.018	-0.317
-461.084	-53.013	-0.122	-0.056
-460.070	-67.371	0.346	-0.135
-459.055	20.145	0.132	-0.106
-458.040	-120.722	0.136	0.023
-457.026	9.384	-0.278	-0.209
-456.011	-44.719	-0.219	0.109
-454.997	36.161	0.025	-0.022
-453.982	-200.000	-0.003	0.070
-452.968	98.235	0.126	0.144
-451.953	-90.798	-0.056	-0.016
-450.938	-119.453	0.094	-0.016
-449.924	-200.000	0.039	-0.464
-448.909	312.058	0.048	-0.090
-447.895	7.956	0.054	-0.040
-446.880	-200.000	0.009	0.288
-445.865	25.110	-0.164	0.135
-444.851	-200.000	-0.000	0.080
-443.836	-50.382	-0.099	0.046
-442.822	-179.973	-0.316	-0.007
-441.807	-33.174	0.111	-0.061
-440.792	434.142	-0.055	-0.118
-439.778	22.119	-0.097	-0.078
-438.763	21.123	0.173	0.139
-437.749	54.649	0.184	0.176
-436.734	800.000	-0.047	-0.169
-435.719	-200.000	0.001	-0.160
-434.705	-200.000	0.028	-0.291
-433.690	759.143	-0.227	-0.610
-432.676	800.000	-0.033	0.105
-431.661	150.808	0.142	0.192
-430.646	-114.945	0.186	-0.035
-429.632	-160.195	0.126	-0.007
-428.617	-200.000	-0.013	-0.285
-427.603	-130.159	-0.226	0.031
-426.588	492.364	-0.235	0.533
-425.573	-200.000	0.009	0.133
-424.559	270.096	0.187	-0.326
-423.544	205.248	0.065	0.101
-422.530	-200.000	0.073	0.409
-421.515	189.976	-0.072	-0.107
-420.500	-67.469	-0.177	-0.069
-419.486	470.958	0.111	0.248
-418.471	-6.175	-0.074	-0.050
-417.457	-45.872	-0.339	-0.166
-416.442	-87.434	0.410	0.123
-415.428	212.192	-0.302	0.471
-414.413	129.084	-0.129	-0.163
-413.398	251.121	0.111	0.187
-412.384	143.580	0.122	-0.161
-411.369	-200.000	0.032	-0.403
-410.355	-150.887	0.057	-0.004
-409.340	-37.285	0.179	-0.095
-408.325	-182.885	-0.250	-0.004
-407.311	-68.083	0.024	-0.009
-406.296	405.023	-0.081	-0.170
-405.282	-169.817	0.182	-0.006
-404.267	1.582	-0.114	0.081
-403.252	77.169	-0.189	0.199
-402.238	-173.964	-0.173	-0.005
-401.223	241.355	0.100	-0.165
-400.209	-71.872	-0.308	0.113
-399.194	186.397	-0.312	-0.460
-398.179	-200.000	0.012	0.504
-397.165	-164.529	0.149	0.007
-396.150	152.564	0.261	-0.354
-395.136	-28.231	0.204	-0.117
-394.121	41.700	0.471	-0.422
-393.106	790.169	-0.108	0.293
-392.092	-113.939	-0.238	0.046
-391.077	154.643	0.284	0.386
-390.063	190.876	0.194	0.289
-389.048	-200.000	-0.005	-0.254
-388.033	-200.000	-0.044	0.201
-387.019	287.665	0.109	0.195
-386.004	82.752	-0.173	-0.186
-384.990	-43.819	0.164	-0.082
-383.975	-84.697	0.442	-0.138
-382.960	-200.000	0.002	0.133
-381.946	-200.000	0.028	0.370
-380.931	-200.000	0.033	0.565
-379.917	-96.867	0.195	-0.051
-378.902	-13.257	-0.284	0.183
-377.888	86.896	-0.213	0.233
-376.873	-200.000	0.045	-0.238
-375.858	-158.886	-0.205	0.012
-374.844	106.389	0.013	-0.015
-373.829	80.006	-0.077	0.082
-372.815	61.015	-0.276	0.271
-371.800	-52.344	0.127	0.058
-370.785	-21.397	0.097	0.059
-369.771	-136.080	0.056	0.007
-368.756	-55.799	-0.206	-0.091
-367.742	355.971	0.048	-0.095
-366.727	-200.000	-0.010	-0.097
-365.712	169.510	-0.095	0.135
-364.698	190.064	-0.228	0.338
-363.683	-119.185	-0.260	-0.045
-362.669	33.498	-0.267	0.229
-361.654	-111.920	-0.198	0.040
-360.639	77.887	0.160	-0.169
-359.625	-174.657	0.111	-0.003
-358.610	-157.293	0.262	-0.016
-357.596	149.544	-0.125	-0.168
-356.581	-200.000	-0.020	0.263
-355.566	63.836	0.288	0.286
-354.552	-200.000	-0.004	-0.026
-353.537	-200.000	0.036	0.222
-352.523	-110.926	-0.070	0.014
-351.508	-200.000	0.075	0.572
-350.493	92.759	-0.122	-0.137
-349.479	-200.000	-0.001	-0.175
-348.464	800.000	-0.031	-0.090
-347.450	-158.952	0.423	-0.024
-346.435	800.000	-0.029	-0.091
-345.420	220.584	0.166	-0.264
-344.406	-125.169	-0.095	-0.014
-343.391	136.194	-0.081	-0.105
-342.377	525.758	-0.112	0.260
-341.362	-108.739	0.252	0.053
-340.348	678.609	0.081	-0.208
-339.333	68.702	0.108	-0.110
-338.318	-74.634	-0.215	-0.076
-337.304	-46.788	0.071	-0.034
-336.289	-117.800	0.094	-0.017
-335.275	-200.000	0.020	-0.165
-334.260	-100.502	0.291	-0.071
-333.245	85.618	0.073	0.079
-332.231	-114.260	-0.197	0.038
-331.216	800.000	-0.038	-0.126
-330.202	-103.858	0.242	0.056
-329.187	191.103	0.089	0.132
-328.172	-56.164	-0.170	-0.075
-327.158	800.000	0.102	0.353
-326.143	-70.242	0.378	-0.142
-325.129	-15.041	0.129	-0.082
-324.114	215.138	0.047	-0.074
-323.099	303.771	-0.126	0.231
-322.085	566.719	0.053	0.127
-321.070	575.940	0.047	0.113
-320.056	286.885	0.082	0.146
-319.041	-116.637	0.446	0.081
-318.026	-151.613	0.497	0.036
-317.012	-200.000	-0.031	-0.197
-315.997	-57.148	0.319	-0.139
-314.983	-87.840	-0.046	0.014
-313.968	-200.000	-0.024	0.202
-312.953	-200.000	0.059	0.317
-311.939	99.567	-0.160	-0.183
-310.924	-51.429	-0.237	0.109
-309.910	41.481	0.011	-0.010
-308.895	385.677	-0.092	-0.188
-307.880	-200.000	-0.007	0.091
-306.866	-110.760	0.216	0.044
-305.851	-84.481	0.264	-0.082
-304.837	116.079	0.167	0.202
-303.822	84.734	-0.144	0.155
-302.807	-26.372	-0.289	0.167
-301.793	-200.000	0.019	-0.107
-300.778	16.873	0.158	-0.124
-299.764	-115.205	-0.113	-0.021
-298.749	800.000	-0.024	0.070
-297.735	359.131	0.086	-0.169
-296.720	-99.897	0.188	0.046
-295.705	-6.144	0.264	0.178
-294.691	-100.535	-0.245	-0.060
-293.676	452.655	-0.070	0.153
-292.662	-134.038	0.265	-0.032
-291.647	-100.636	0.117	0.028
-290.632	186.011	0.142	-0.208
-289.618	800.000	0.049	-0.156
-288.603	100.120	0.116	0.133
-287.589	121.160	0.208	0.255
-286.574	-143.826	-0.155	-0.014
-285.559	-200.000	-0.014	0.298
-284.545	19.254	-0.078	0.062
-283.530	143.382	-0.155	0.204
-282.516	-200.000	-0.051	0.226
-281.501	800.000	0.032	-0.120
-280.486	-190.191	-0.218	-0.002
-279.472	81.073	0.163	-0.173
-278.457	800.000	-0.030	-0.123
-277.443	-126.703	-0.277	0.040
-276.428	63.926	-0.125	-0.124
-275.413	800.000	0.069	0.210
-274.399	99.442	0.173	0.197
-273.384	453.596	-0.055	0.121
-272.370	-62.610	-0.211	-0.086
-271.355	-200.000	0.024	0.142
-270.340	80.491	-0.209	-0.222
-269.326	-200.000	-0.073	-0.487
-268.311	-200.000	-0.036	-0.185
-267.297	120.093	-0.157	-0.191
-266.282	30.867	0.138	-0.116
-265.267	434.531	0.176	-0.376
-264.253	117.371	-0.089	-0.108
-263.238	238.979	-0.037	0.061
-262.224	-200.000	-0.006	-0.080
-261.209	41.189	-0.049	0.043
-260.195	292.444	0.040	0.073
-259.180	-195.307	0.076	-0.001
-258.165	-200.000	0.015	-0.206
-257.151	-136.619	0.448	-0.051
-256.136	800.000	0.208	0.641
-255.122	-200.000	0.020	0.379
-254.107	800.000	-0.088	0.283
-253.092	236.396	0.095	0.155
-252.078	283.504	-0.072	0.127
-251.063	-200.000	0.014	0.116
-250.049	-94.692	-0.251	0.067
-249.034	-120.377	-0.111	0.019
-248.019	54.520	0.162	-0.153
-247.005	-172.079	0.120	-0.004
-245.990	161.832	0.062	0.085
-244.976	716.057	-0.135	0.351
-243.961	277.007	-0.184	-0.321
-242.946	509.300	0.091	-0.207
-241.932	-55.605	0.248	0.109
-240.917	-62.615	-0.154	0.063
-239.903	-200.000	0.022	-0.260
-238.888	181.457	0.161	-0.233
-237.873	166.491	-0.184	0.256
-236.859	-83.264	-0.315	0.100
-235.844	-76.416	0.194	0.067
-234.830	-94.712	-0.154	0.041
-233.815	210.982	0.063	-0.098
-232.800	-57.669	-0.205	0.088
-231.786	-46.550	-0.257	-0.124
-230.771	-200.000	0.015	0.267
-229.757	-63.210	-0.399	-0.162
-228.742	130.441	-0.167	0.211
-227.727	287.416	-0.087	0.156
-226.713	-54.285	0.112	-0.050
-225.698	-44.183	-0.133	-0.066
-224.684	99.988	-0.224	-0.256
-223.669	-1.924	0.153	-0.106
-222.655	-200.000	0.025	-0.173
-221.640	121.201	-0.130	-0.159
-220.625	15.243	0.151	-0.116
-219.611	-200.000	0.053	-0.366
-218.596	-80.209	0.166	-0.055
-217.582	-41.344	0.251	0.127
-216.567	-49.580	0.249	0.116
-215.552	765.044	0.069	-0.185
-214.538	153.081	0.259	-0.348
-213.523	-200.000	0.063	-0.317
-212.509	434.085	0.130	0.279
-211.494	109.122	0.077	-0.090
-210.479	-200.000	0.017	-0.143
-209.465	800.000	-0.081	-0.234
-208.450	-200.000	-0.033	-0.216
-207.436	-163.582	0.070	0.003
-206.421	800.000	0.076	-0.310
-205.406	30.651	-0.378	0.318
-204.392	-97.964	-0.211	0.054
-203.377	57.045	0.028	-0.027
-202.363	10.905	-0.104	-0.078
-201.348	125.713	0.267	0.332
-200.333	97.999	-0.226	0.255
-199.319	-11.086	0.098	-0.064
-198.304	-123.297	0.291	0.046
-197.290	524.053	-0.093	0.216
-196.275	800.000	-0.105	-0.342
-195.260	-3.594	0.347	-0.237
-194.246	-58.677	-0.355	0.151
-193.231	-59.664	-0.068	0.028
-192.217	-22.234	0.093	0.055
-191.202	-126.772	0.346	0.050
-190.187	13.722	-0.102	0.078
-189.173	-200.000	-0.041	0.357
-188.158	-200.000	0.015	0.151
-187.144	800.000	-0.065	0.249
-186.129	168.829	-0.093	0.130
-185.114	8.355	-0.177	-0.131
-184.100	427.627	0.042	0.089
-183.085	800.000	-0.065	-0.202
-182.071	85.289	0.166	0.179
-181.056	-200.000	0.007	-0.134
-180.042	-200.000	0.025	-0.136
-179.027	-85.450	-0.208	-0.064
-178.012	186.033	-0.203	0.296
-176.998	-200.000	0.007	0.239
-175.983	85.803	-0.169	-0.183
-174.969	203.977	-0.060	-0.092
-173.954	127.237	0.218	-0.272
-172.939	79.250	-0.249	-0.262
-171.925	-200.000	0.150	0.000
-170.910	403.509	-0.107	0.221
-169.896	199.013	0.176	0.265
-168.881	-200.000	0.013	-0.095
-167.866	260.946	0.042	0.071
-166.852	-69.732	0.261	-0.098
-165.837	-118.470	-0.252	0.044
-164.823	165.022	0.159	0.220
-163.808	-200.000	-0.002	-0.009
-162.793	-81.984	0.155	-0.050
-161.779	5.058	-0.214	0.154
-160.764	174.865	0.098	-0.139
-159.750	-56.108	-0.111	0.049
-158.735	800.000	-0.040	-0.116
-157.720	265.588	0.045	0.077
-156.706	470.124	0.109	-0.240
-155.691	647.752	-0.019	0.047
-154.677	800.000	0.033	0.125
-153.662	-52.616	-0.206	-0.093
-152.647	23.011	-0.035	0.028
-151.633	-41.936	-0.220	0.110
-150.618	-70.620	-0.447	-0.166
-149.604	547.243	-0.043	0.101
-148.589	-66.146	0.343	-0.134
-147.574	-33.778	-0.217	0.117
-146.560	-5.907	0.140	0.094
-145.545	-161.222	0.133	-0.007
-144.531	800.000	-0.171	-0.496
-143.516	646.431	0.059	0.147
-142.502	-200.000	0.033	0.267
-141.487	-200.000	-0.003	0.051
-140.472	800.000	0.054	0.156
-139.458	6.697	-0.194	-0.141
-138.443	27.128	0.148	-0.122
-137.429	-85.207	0.233	-0.071
-136.414	800.000	-0.028	-0.104
-135.399	-66.022	0.058	0.023
-134.385	-39.312	-0.182	0.093
-133.370	-153.166	-0.238	0.016
-132.356	20.502	0.090	0.071
-131.341	184.555	0.112	0.162
-130.326	-103.895	0.347	0.079
-129.312	-43.780	-0.333	-0.164
-128.297	-200.000	0.021	0.102
-127.283	39.269	-0.072	-0.063
-126.268	33.061	-0.238	-0.202
-125.253	-200.000	0.046	-0.488
-124.239	-200.000	0.035	0.361
-123.224	607.414	0.037	0.092
-122.210	58.814	0.174	-0.168
-121.195	23.909	0.113	0.091
-120.180	137.165	-0.186	-0.238
-119.166	203.888	0.206	0.312
-118.151	445.184	0.100	0.216
-117.137	406.522	-0.145	-0.300
-116.122	-60.837	0.303	0.126
-115.107	204.682	-0.239	0.363
-114.093	-200.000	0.018	0.186
-113.078	-27.409	0.243	-0.138
-112.064	-53.104	-0.208	-0.094
-111.049	119.651	0.037	0.045
-110.034	-137.055	-0.121	0.013
-109.020	-200.000	0.029	-0.227
-108.005	51.337	0.109	0.102
-106.991	-200.000	0.020	-0.096
-105.976	-200.000	0.024	-0.299
-104.962	-76.549	-0.182	-0.062
-103.947	-151.763	-0.247	0.018
-102.932	23.203	0.092	0.074
-101.918	-159.984	-0.128	-0.007
-100.903	800.000	0.102	-0.380
-99.889	-200.000	-0.023	-0.278
-98.874	800.000	0.061	-0.180
-97.859	-200.000	0.011	-0.199
-96.845	306.938	0.063	-0.115
-95.830	-55.009	0.259	0.114
-94.816	129.232	0.131	0.163
-93.801	296.585	0.063	-0.114
-92.786	36.562	-0.074	-0.064
-91.772	-152.158	0.326	-0.023
-90.757	-200.000	0.024	-0.140
-89.743	-18.955	-0.193	-0.117
-88.728	-200.000	0.105	0.000
-87.713	191.704	0.012	0.017
-86.699	-200.000	-0.006	0.163
-85.684	-33.319	-0.108	-0.058
-84.670	-160.958	0.262	-0.013
-83.655	27.324	0.310	-0.254
-82.640	245.149	0.107	-0.176
-81.626	-13.134	-0.296	-0.188
-80.611	-50.323	-0.199	-0.092
-79.597	-200.000	0.030	-0.159
-78.582	-11.373	0.209	0.135
-77.567	59.636	-0.150	-0.144
-76.553	-200.000	0.039	0.264
-75.538	-7.707	0.148	0.098
-74.524	682.666	-0.128	-0.325
-73.509	800.000	0.127	0.374
-72.494	-35.723	-0.225	-0.119
-71.480	353.207	0.047	0.091
-70.465	414.281	0.158	0.328
-69.451	-131.557	-0.183	0.024
-68.436	-57.873	-0.116	0.050
-67.422	135.668	-0.160	-0.203
-66.407	-113.415	-0.264	-0.051
-65.392	800.000	-0.081	0.227
-64.378	6.817	0.232	0.168
-63.363	341.740	0.101	-0.193
-62.349	66.887	0.085	-0.085
-61.334	124.581	-0.941	-1.157
-60.319	-14.308	0.751	0.473
-59.305	289.344	-0.625	-1.107
-58.290	377.905	0.815	1.627
-57.276	512.968	0.467	1.064
-56.261	-200.000	113.722	646.460
-55.246	484.503	1497.836	3330.389
-54.232	150.460	2657.475	3525.219
-53.217	103.712	2160.057	2477.757
-52.203	37.736	1691.576	1467.277
-51.188	30.556	1509.464	1260.773
-50.173	28.272	1484.704	1224.785
-49.159	51.774	1542.364	1433.194
-48.144	50.616	1558.499	1440.238
-47.130	30.816	1514.847	1266.837
-46.115	27.615	1500.341	1233.045
-45.100	27.457	1497.066	1229.240
-44.086	27.402	1494.840	1226.992
-43.071	27.358	1493.192	1225.296
-42.057	27.375	1491.562	1224.023
-41.042	27.495	1489.667	1223.227
-40.027	27.499	1488.389	1222.153
-39.013	27.431	1486.775	1220.325
-37.998	27.395	1485.454	1218.949
-36.984	27.442	1484.221	1218.204
-35.969	27.306	1483.321	1216.507
-34.954	27.384	1481.473	1215.469
-33.940	27.382	1480.200	1214.359
-32.925	27.377	1479.068	1213.347
-31.911	27.511	1477.464	1212.879
-30.896	27.465	1476.296	1211.563
-29.881	27.520	1474.900	1210.735
-28.867	27.468	1474.218	1209.782
-27.852	27.571	1472.567	1209.066
-26.838	27.402	1471.265	1206.825
-25.823	27.407	1469.852	1205.657
-24.809	27.509	1467.867	1204.649
-23.794	27.423	1466.881	1203.225
-22.779	27.455	1465.653	1202.384
-21.765	27.466	1464.483	1201.447
-20.750	27.558	1463.533	1201.228
-19.736	27.459	1462.564	1199.732
-18.721	27.446	1461.716	1198.906
-17.706	27.443	1460.608	1197.926
-16.692	27.473	1459.080	1196.826
-15.677	27.484	1457.947	1195.922
-14.663	27.442	1457.233	1195.012
-13.648	27.297	1456.744	1193.608
-12.633	27.422	1455.816	1193.624
-11.619	27.495	1454.631	1193.084
-10.604	27.418	1454.262	1192.224
-9.590	27.439	1453.069	1191.340
-8.575	27.408	1451.860	1190.096
-7.560	27.523	1450.795	1189.927
-6.546	27.425	1450.016	1188.607
-5.531	27.456	1449.590	1188.407
-4.517	27.449	1448.695	1187.586
-3.502	27.447	1447.177	1186.281
-2.487	27.455	1446.386	1185.636
-1.473	27.448	1445.495	1184.812
-0.458	27.432	1444.214	1183.609
0.556	25.807	1434.336	1172.479
1.571	22.707	1409.587	1132.280
2.586	19.304	1348.669	1062.316
3.600	17.736	1266.595	988.496
4.615	16.652	1221.826	947.412
5.629	15.764	1169.439	901.948
6.644	12.883	1093.374	828.746
7.659	9.998	1060.094	789.373
8.673	9.630	1054.880	783.631
9.688	9.645	1051.038	780.781
10.702	9.605	1049.352	779.265
11.717	9.650	1047.326	777.911
12.731	10.785	1047.528	783.469
13.746	13.933	1051.084	801.266
14.761	16.908	1054.877	818.470
15.775	17.575	1055.382	822.008
16.790	16.970	1053.286	817.389
17.804	15.916	1050.889	810.387
18.819	15.010	1048.724	804.292
19.834	14.410	1047.886	800.695
20.848	14.075	1046.997	798.337
21.863	13.929	1045.903	796.734
22.877	13.822	1045.323	795.709
23.892	13.465	1044.514	793.309
24.907	13.493	1043.604	792.684
25.921	13.521	1042.842	792.169
26.936	13.550	1042.235	791.778
27.950	13.594	1040.799	790.824
28.965	13.532	1040.030	789.876
29.980	13.665	1038.917	789.592
30.994	13.770	1037.399	788.871
32.009	13.719	1036.928	788.200
33.023	13.787	1036.149	787.862
34.038	13.677	1035.907	787.082
35.053	13.713	1034.672	786.249
36.067	13.579	1033.927	784.975
37.082	13.690	1032.357	784.239
38.096	13.646	1032.056	783.733
39.111	13.765	1030.962	783.395
40.126	13.775	1030.008	782.647
41.140	13.672	1028.772	781.156
42.155	13.517	1027.908	779.698
43.169	13.459	1027.070	778.722
44.184	13.471	1025.950	777.859
45.199	13.407	1024.840	776.649
46.213	13.365	1024.067	775.798
47.228	13.595	1022.701	775.774
48.242	13.444	1022.455	774.811
49.257	13.577	1021.257	774.458
50.271	13.574	1020.203	773.573
51.286	13.734	1019.028	773.363
52.301	13.792	1018.095	772.854
53.315	13.597	1017.634	771.529
54.330	13.652	1016.545	770.889
55.344	13.631	1015.280	769.765
56.359	13.646	1014.766	769.379
57.374	13.451	1014.057	767.865
58.388	13.601	1013.123	767.787
59.403	13.518	1012.143	766.594
60.417	13.505	1011.501	765.978
61.432	13.392	1011.068	765.059
62.447	13.570	1009.871	764.907
63.461	13.404	1009.087	763.479
64.476	13.407	1008.412	762.915
65.490	13.353	1007.216	761.696
66.505	13.288	1006.902	761.089
67.520	13.428	1005.958	760.954
68.534	13.363	1005.586	760.307
69.549	13.545	1004.368	760.152
70.563	13.517	1003.700	759.451
71.578	13.442	1002.923	758.456
72.593	13.400	1002.339	757.751
73.607	13.384	1001.222	756.770
74.622	13.308	1000.177	755.564
75.636	13.270	999.639	754.919
76.651	13.304	998.733	754.321
77.666	13.254	998.454	753.814
78.680	13.364	997.145	753.262
79.695	13.319	996.608	752.583
80.709	13.349	996.036	752.223
81.724	13.437	995.310	752.006
82.739	13.539	994.104	751.491
83.753	13.680	993.684	751.749
84.768	13.625	992.889	750.831
85.782	13.741	992.033	750.641
86.797	13.699	991.699	750.132
87.812	13.700	990.829	749.415
88.826	13.645	990.028	748.491
89.841	13.613	988.935	747.457
90.855	13.525	988.396	746.585
91.870	13.780	986.721	746.402
92.884	13.710	986.429	745.800
93.899	13.774	985.974	745.678
94.914	13.812	984.954	745.012
95.928	13.805	984.791	744.790
96.943	13.845	983.813	744.165
97.957	13.799	982.821	743.140
98.972	13.747	982.052	742.262
99.987	13.711	981.425	741.559
101.001	13.689	980.744	740.882
102.016	13.754	979.691	740.312
103.030	13.689	978.466	739.032
104.045	13.730	977.779	738.630
105.060	13.786	976.837	738.100
106.074	13.688	975.879	736.875
107.089	13.661	975.312	736.262
108.103	13.503	974.643	734.992
109.118	13.517	973.024	733.767
110.133	13.514	972.467	733.268
111.147	13.527	971.678	732.667
112.162	13.539	970.729	731.938
113.176	13.519	970.380	731.525
114.191	13.586	969.546	731.127
115.206	13.578	968.569	730.290
116.220	13.645	967.604	729.790
117.235	13.613	966.565	728.806
118.249	13.530	966.117	728.037
119.264	13.618	964.942	727.473
120.279	13.613	964.119	726.766
121.293	13.513	963.502	725.799
122.308	13.462	962.884	725.048
123.322	13.469	961.946	724.304
124.337	13.438	960.923	723.334
125.352	13.411	959.878	722.367
126.366	13.539	958.576	721.882
127.381	13.443	957.735	720.766
128.395	13.466	956.627	719.969
129.410	13.386	955.961	719.054
130.424	13.380	955.411	718.553
131.439	13.473	953.680	717.592
132.454	13.417	953.329	717.020
133.468	13.593	952.547	717.130
134.483	13.607	951.741	716.521
135.497	13.572	950.757	715.567
136.512	13.527	950.639	715.221
137.527	13.524	950.186	714.803
138.541	13.575	948.888	713.984
139.556	13.688	948.022	713.751
140.570	13.624	947.462	712.995
141.585	13.681	946.200	712.224
142.600	13.746	945.926	712.235
143.614	13.747	945.178	711.612
144.629	13.658	944.891	710.953
145.643	13.839	944.126	711.089
146.658	13.881	943.016	710.370
147.673	13.723	942.135	708.967
148.687	13.692	941.370	708.198
149.702	13.715	940.477	707.563
150.716	13.485	939.534	705.810
151.731	13.690	938.478	705.826
152.746	13.656	937.959	705.229
153.760	13.642	937.274	704.594
154.775	13.707	936.711	704.384
155.789	13.803	935.518	703.830
156.804	13.756	934.600	702.880
157.819	13.679	934.288	702.255
158.833	13.824	933.608	702.295
159.848	13.964	932.790	702.209
160.862	14.021	931.978	701.776
161.877	13.995	931.283	701.083
162.892	13.867	930.390	699.807
163.906	13.600	930.358	698.597
164.921	13.758	929.265	698.380
165.935	13.799	928.019	697.552
166.950	13.760	927.248	696.747
167.964	13.767	926.343	696.037
168.979	13.789	925.608	695.517
169.994	13.732	924.610	694.463
171.008	13.817	923.991	694.296
172.023	13.751	923.438	693.540
173.037	13.818	922.439	693.008
174.052	13.867	921.558	692.490
175.067	14.032	920.917	692.636
176.081	13.982	919.900	691.599
177.096	13.983	918.769	690.695
178.110	13.833	918.578	689.867
179.125	13.962	917.399	689.455
180.140	13.885	916.783	688.612
181.154	13.907	916.196	688.199
182.169	14.008	915.450	687.995
183.183	13.983	914.951	687.458
184.198	14.019	914.451	687.170
185.213	14.152	913.538	686.971
186.227	13.917	913.036	685.566
187.242	14.091	912.481	685.806
188.256	14.126	911.911	685.460
189.271	14.153	911.140	684.932
190.286	14.228	910.132	684.420
191.300	14.057	909.275	683.015
192.315	13.985	908.528	682.095
193.329	13.807	908.205	681.064
194.344	13.936	907.239	680.806
195.359	13.931	906.560	680.219
196.373	14.166	906.068	680.748
197.388	14.026	905.723	679.856
198.402	14.309	905.040	680.443
199.417	14.157	905.008	679.734
200.432	14.209	904.402	679.433
201.446	14.409	903.565	679.561
202.461	14.423	903.126	679.225
203.475	14.411	902.727	678.816
204.490	14.313	902.314	678.048
205.504	14.283	901.615	677.339
206.519	14.356	900.500	676.739
207.534	14.280	899.949	675.957
208.548	14.280	899.205	675.338
209.563	14.343	898.936	675.332
210.577	14.311	898.011	674.447
211.592	14.389	897.372	674.223
212.607	14.433	897.059	674.105
213.621	14.475	896.364	673.696
214.636	14.432	895.656	672.931
215.650	14.596	894.460	672.634
216.665	14.632	894.507	672.753
217.680	14.538	894.058	671.979
218.694	14.534	893.772	671.689
219.709	14.681	892.780	671.473
220.723	14.583	891.975	670.412
221.738	14.646	891.845	670.509
222.753	14.580	890.765	669.374
223.767	14.652	890.170	669.158
224.782	14.663	889.255	668.453
225.796	14.743	888.328	668.018
226.811	14.861	887.938	668.137
227.826	14.647	887.830	667.140
228.840	14.715	886.663	666.476
229.855	14.644	886.242	665.818
230.869	14.669	885.878	665.585
231.884	14.626	885.060	664.741
232.899	14.663	884.339	664.286
233.913	14.654	883.840	663.817
234.928	14.592	882.748	662.693
235.942	14.716	882.064	662.613
236.957	14.673	880.907	661.514
237.972	14.655	880.268	660.904
238.986	14.642	879.815	660.457
240.001	14.704	879.338	660.283
241.015	14.681	878.746	659.692
242.030	14.650	878.286	659.165
243.045	14.711	877.648	658.867
244.059	14.688	876.725	658.025
245.074	14.703	876.388	657.773
246.088	14.742	875.602	657.279
247.103	14.875	875.048	657.328
248.117	14.791	874.705	656.683
249.132	14.819	874.445	656.538
250.147	15.086	873.556	656.862
251.161	15.109	872.711	656.257
252.176	15.231	871.873	656.046
253.190	15.209	871.084	655.311
254.205	15.174	870.549	654.710
255.220	15.119	870.127	654.120
256.234	15.266	869.213	653.950
257.249	15.213	868.792	653.368
258.263	15.311	868.165	653.221
259.278	15.234	867.979	652.722
260.293	15.313	867.425	652.555
261.307	15.235	866.866	651.776
262.322	15.351	866.033	651.543
263.336	15.348	865.663	651.193
264.351	15.399	865.195	650.984
265.366	15.512	864.329	650.711
266.380	15.375	863.789	649.716
267.395	15.498	862.996	649.540
268.409	15.392	862.198	648.472
269.424	15.403	861.564	647.980
270.439	15.361	861.274	647.542
271.453	15.461	860.396	647.211
272.468	15.399	859.236	646.041
273.482	15.265	858.922	645.231
274.497	15.481	858.094	645.383
275.512	15.342	857.729	644.516
276.526	15.474	856.757	644.235
277.541	15.419	856.073	643.454
278.555	15.502	855.763	643.482
279.570	15.349	855.270	642.470
280.585	15.553	854.579	642.672
281.599	15.483	854.088	641.980
282.614	15.518	853.381	641.525
283.628	15.533	852.842	641.122
284.643	15.527	852.661	640.907
285.657	15.466	852.169	640.248
286.672	15.563	851.193	639.825
287.687	15.535	850.710	639.298
288.701	15.678	850.146	639.363
289.716	15.852	849.423	639.424
290.730	15.654	848.922	638.238
291.745	15.700	848.216	637.824
292.760	15.791	847.451	637.538
293.774	15.734	847.382	637.216
294.789	15.808	846.807	637.005
295.803	15.795	846.277	636.500
296.818	15.795	845.546	635.897
297.833	15.762	845.062	635.351
298.847	15.806	843.602	634.363
299.862	15.876	843.277	634.326
300.876	15.791	842.637	633.470
301.891	15.817	842.037	633.058
302.906	15.870	841.809	633.030
303.920	15.988	840.766	632.635
304.935	16.056	840.289	632.472
305.949	16.040	839.816	632.000
306.964	16.057	839.155	631.513
307.979	16.097	838.564	631.161
308.993	16.009	838.183	630.491
310.008	15.980	837.783	630.023
311.022	15.908	837.751	629.677
312.037	15.965	836.948	629.229
313.052	16.006	835.873	628.518
314.066	16.116	835.194	628.360
315.081	15.870	834.744	627.052
316.095	15.927	834.500	627.025
317.110	15.929	833.735	626.403
318.125	15.976	833.185	626.109
319.139	15.853	832.475	625.062
320.154	16.049	832.087	625.444
321.168	15.985	831.651	624.824
322.183	15.945	830.984	624.116
323.197	16.199	830.379	624.547
324.212	16.136	829.852	623.866
325.227	16.020	829.297	622.964
326.241	16.173	828.930	623.196
327.256	16.051	828.545	622.402
328.270	16.010	827.921	621.728
329.285	16.099	827.301	621.535
330.300	16.029	826.841	620.876
331.314	16.073	826.023	620.368
332.329	16.053	825.698	619.995
333.343	16.256	824.754	619.977
334.358	16.176	824.509	619.446
335.373	16.231	824.196	619.358
336.387	16.217	823.612	618.814
337.402	16.274	823.086	618.572
338.416	16.471	822.327	618.668
339.431	16.313	821.962	617.761
340.446	16.530	820.944	617.734
341.460	16.535	820.418	617.299
342.475	16.516	820.371	617.141
343.489	16.505	819.884	616.681
344.504	16.541	819.209	616.249
345.519	16.497	818.865	615.777
346.533	16.617	818.172	615.636
347.548	16.664	817.669	615.373
348.562	16.607	817.356	614.876
349.577	16.629	816.451	614.223
350.592	16.494	815.862	613.236
351.606	16.479	815.951	613.192
352.621	16.399	815.300	612.360
353.635	16.564	814.504	612.305
354.650	16.609	814.345	612.293
355.665	16.608	813.771	611.804
356.679	16.423	813.426	610.823
357.694	16.503	812.967	610.714
358.708	16.623	812.189	610.506
359.723	16.570	811.958	610.089
360.738	16.568	811.307	609.538
361.752	16.640	810.771	609.342
362.767	16.656	810.376	609.046
363.781	16.821	809.993	609.299
364.796	16.942	809.432	609.256
365.810	16.912	809.261	608.968
366.825	16.873	808.933	608.528
367.840	16.808	808.778	608.124
368.854	16.795	808.144	607.546
369.869	16.917	807.347	607.331
370.883	16.943	806.652	606.846
371.898	16.910	806.322	606.428
372.913	16.809	805.930	605.718
373.927	17.105	805.167	606.145
374.942	17.078	804.402	605.420
375.956	16.936	804.095	604.631
376.971	16.956	803.697	604.348
377.986	17.161	802.798	604.350
379.000	17.165	802.219	603.874
380.015	17.105	801.929	603.388
381.029	17.264	801.232	603.377
382.044	17.302	800.731	603.081
383.059	17.131	800.063	601.916
384.073	17.150	799.662	601.630
385.088	17.130	799.023	601.025
386.102	17.134	798.473	600.572
387.117	16.960	798.251	599.738
388.132	17.010	797.727	599.465
389.146	17.054	797.162	599.144
390.161	17.194	797.006	599.468
391.175	17.129	796.664	598.929
392.190	17.184	796.131	598.668
393.205	17.281	795.345	598.366
394.219	17.258	795.042	598.004
395.234	17.219	794.644	597.514
396.248	16.973	794.295	596.336
397.263	17.178	793.603	596.481
398.278	17.122	793.293	596.002
399.292	17.135	792.814	595.634
400.307	17.167	792.162	595.204
401.321	17.147	791.985	594.947
402.336	17.152	791.596	594.618
403.350	17.327	790.984	594.719
404.365	17.167	790.945	594.078
405.380	17.363	790.360	594.272
406.394	17.386	789.818	593.889
407.409	17.501	789.417	593.939
408.423	17.423	789.157	593.417
409.438	17.525	788.592	593.295
410.453	17.608	787.974	593.067
411.467	17.520	787.803	592.581
412.482	17.538	787.535	592.388
413.496	17.525	786.928	591.834
414.511	17.571	786.450	591.584
415.526	17.620	786.075	591.420
416.540	17.673	785.665	591.240
417.555	17.817	785.184	591.325
418.569	17.729	784.928	590.777
419.584	17.840	784.174	590.540
420.599	17.641	783.929	589.616
421.613	112.090	1292.974	1477.534
422.628	96.149	1367.115	1477.637
