DTS Sentinel unit serial number:	SN413079Multiplexer serial number:	ORYXHardware model number:	OX4-SRSoftware version number:	ORYX F/W v4.00 Oryx Data Collector v3.7.2.0data status	okinstallation	princeton_trtdifferential loss correction	single-endedforward channel	channel 3reverse channel	N/Adate	2019/09/19time	14:52:35forward acquisition time	60.00reverse acquisition time	0.00gamma	496.2192k internal	0.2316k external	0.2316temperature offset calibration	1.0007default loss term (dB/km)	0.3790temperature slope calibration	1.0000multiplexer offset coefficient	1.0000multiplexer slope coefficient	1.0000fibre end	0.00T internal ref (°C)	32.87T ext. ref 1 (°C)	1.10T ext. ref 2 (°C)	29.86length (m)	temperature (°C)	Stokes	anti-Stokes-747.200	256.213	0.070	0.122
-746.185	248.765	-0.243	0.416
-745.171	87.470	-0.187	0.209
-744.156	729.954	-0.076	0.206
-743.142	-92.289	0.333	0.095
-742.127	158.517	0.346	0.487
-741.112	87.998	-0.316	0.355
-740.098	630.274	-0.143	0.365
-739.083	-58.703	0.308	0.135
-738.069	91.908	-0.292	0.333
-737.054	-200.000	0.021	-0.234
-736.039	-101.651	-0.266	-0.065
-735.025	-98.360	-0.237	0.061
-734.010	-9.574	0.134	-0.091
-732.996	800.000	0.052	-0.150
-731.981	-63.692	-0.274	0.114
-730.966	-200.000	0.003	0.031
-729.952	16.870	0.209	-0.168
-728.937	-77.822	-0.178	-0.062
-727.923	-128.600	-0.203	-0.029
-726.908	800.000	-0.044	0.163
-725.894	428.724	-0.085	-0.186
-724.879	-81.432	-0.224	-0.075
-723.864	205.334	-0.113	-0.177
-722.850	366.909	-0.097	-0.198
-721.835	-119.979	-0.106	-0.018
-720.821	-85.672	-0.057	-0.018
-719.806	115.471	-0.171	0.212
-718.791	800.000	-0.109	-0.329
-717.777	107.130	0.082	0.099
-716.762	451.270	-0.048	-0.107
-715.748	-158.488	0.227	0.013
-714.733	-200.000	0.031	-0.199
-713.718	5.573	0.175	-0.131
-712.704	-68.072	0.070	0.028
-711.689	43.492	-0.201	-0.186
-710.675	143.552	-0.159	-0.214
-709.660	144.866	0.236	-0.319
-708.645	-43.819	-0.064	0.033
-707.631	67.916	-0.203	-0.210
-706.616	8.313	-0.145	0.110
-705.602	106.736	0.100	-0.119
-704.587	-200.000	-0.040	-0.378
-703.572	127.906	0.270	-0.347
-702.558	-52.054	0.135	-0.063
-701.543	147.365	0.182	0.247
-700.529	-45.400	-0.048	0.024
-699.514	367.458	0.069	0.141
-698.499	-21.020	-0.156	0.097
-697.485	275.239	-0.066	-0.118
-696.470	800.000	-0.024	-0.086
-695.456	788.904	0.079	-0.220
-694.441	507.209	0.115	-0.270
-693.426	-84.595	-0.205	0.065
-692.412	-69.133	-0.176	-0.069
-691.397	38.767	0.126	-0.113
-690.383	232.738	-0.176	-0.293
-689.368	144.408	0.104	-0.141
-688.354	100.328	-0.159	-0.187
-687.339	-32.807	0.048	0.027
-686.324	-101.837	0.202	-0.049
-685.310	-116.777	0.104	0.019
-684.295	113.765	-0.100	-0.123
-683.281	370.999	0.157	-0.322
-682.266	800.000	-0.083	-0.263
-681.251	-200.000	0.042	0.308
-680.237	-200.000	0.010	0.057
-679.222	800.000	-0.026	0.084
-678.208	-193.144	0.142	-0.001
-677.193	-108.696	-0.098	-0.021
-676.178	-200.000	0.024	-0.279
-675.164	800.000	-0.067	0.250
-674.149	-109.401	-0.168	0.036
-673.135	148.892	0.094	0.128
-672.120	-200.000	-0.022	-0.136
-671.105	25.551	0.144	0.121
-670.091	24.064	-0.176	-0.147
-669.076	-200.000	-0.035	-0.309
-668.062	-12.619	-0.208	-0.137
-667.047	157.715	-0.142	0.199
-666.032	305.723	-0.111	0.208
-665.018	-147.511	-0.085	0.007
-664.003	-47.167	0.126	-0.062
-662.989	49.554	-0.137	0.130
-661.974	-86.532	0.183	0.057
-660.959	-175.013	0.240	0.007
-659.945	-200.000	0.016	0.074
-658.930	521.348	-0.099	0.235
-657.916	21.152	0.218	0.179
-656.901	-105.604	0.155	0.036
-655.886	361.107	0.162	0.328
-654.872	47.437	0.149	0.140
-653.857	-100.723	0.183	-0.046
-652.843	-92.368	-0.056	0.016
-651.828	-145.672	0.182	-0.016
-650.814	800.000	0.058	-0.213
-649.799	-128.758	0.567	0.081
-648.784	-41.379	-0.033	-0.017
-647.770	-32.722	-0.179	0.100
-646.755	241.079	0.148	0.249
-645.741	134.049	-0.095	0.124
-644.726	-23.090	0.324	0.197
-643.711	18.610	0.111	0.089
-642.697	-32.907	-0.097	-0.054
-641.682	15.417	0.195	0.154
-640.668	226.305	0.078	0.128
-639.653	138.413	-0.163	0.216
-638.638	-31.602	-0.208	-0.118
-637.624	221.294	0.037	-0.061
-636.609	-119.730	0.098	-0.017
-635.595	743.675	-0.090	-0.245
-634.580	800.000	-0.130	-0.397
-633.565	252.367	0.052	0.090
-632.551	-200.000	-0.061	-0.355
-631.536	203.417	0.171	-0.267
-630.522	9.772	-0.257	-0.197
-629.507	-45.128	-0.226	-0.113
-628.492	-14.673	0.052	-0.034
-627.478	99.218	0.173	0.202
-626.463	-26.295	-0.319	-0.189
-625.449	-139.779	0.195	0.021
-624.434	104.437	-0.072	-0.085
-623.419	-5.484	0.128	-0.089
-622.405	192.496	-0.172	-0.261
-621.390	216.750	-0.057	-0.092
-620.376	800.000	0.152	-0.457
-619.361	154.470	0.150	-0.208
-618.346	168.880	0.089	-0.128
-617.332	-73.387	-0.355	-0.131
-616.317	159.289	0.093	0.130
-615.303	-200.000	0.011	-0.173
-614.288	-24.037	0.273	-0.165
-613.273	-142.566	-0.181	0.018
-612.259	19.539	0.086	-0.069
-611.244	270.953	-0.158	-0.279
-610.230	-200.000	-0.041	-0.241
-609.215	237.515	-0.053	-0.089
-608.201	311.125	0.186	-0.351
-607.186	-102.987	-0.323	-0.077
-606.171	-50.731	-0.276	0.131
-605.157	-200.000	-0.006	0.057
-604.142	-127.423	-0.119	-0.017
-603.128	-85.243	-0.213	-0.067
-602.113	0.563	0.089	0.064
-601.098	-200.000	-0.006	0.064
-600.084	-34.915	-0.282	0.155
-599.069	-110.164	0.084	0.018
-598.055	253.545	0.257	-0.441
-597.040	180.777	0.118	-0.175
-596.025	223.511	-0.059	-0.096
-595.011	172.996	-0.275	0.400
-593.996	16.424	-0.144	-0.114
-592.982	-10.998	0.306	0.203
-591.967	-200.000	0.036	-0.242
-590.952	95.941	-0.142	0.163
-589.938	14.790	-0.314	-0.247
-588.923	-195.704	-0.273	0.002
-587.909	-192.609	-0.341	-0.003
-586.894	580.350	0.111	0.274
-585.879	95.660	-0.031	0.036
-584.865	800.000	-0.019	-0.067
-583.850	-200.000	0.001	-0.279
-582.836	-150.084	-0.164	-0.013
-581.821	607.414	0.120	-0.300
-580.806	-200.000	0.017	-0.268
-579.792	-26.585	0.241	-0.142
-578.777	-83.313	0.295	-0.095
-577.763	-152.778	0.213	-0.015
-576.748	189.134	0.063	0.095
-575.733	401.774	0.025	-0.054
-574.719	-22.298	-0.237	-0.145
-573.704	-200.000	0.047	-0.445
-572.690	57.456	-0.141	-0.138
-571.675	-144.811	-0.220	0.020
-570.661	-200.000	0.012	0.119
-569.646	466.363	-0.065	-0.145
-568.631	118.788	0.121	0.151
-567.617	638.030	0.097	0.247
-566.602	229.424	-0.159	-0.261
-565.588	82.499	-0.143	0.156
-564.573	-111.273	0.293	-0.060
-563.558	128.412	0.330	0.423
-562.544	-200.000	0.061	0.364
-561.529	52.142	0.052	-0.050
-560.515	-103.325	-0.175	0.041
-559.500	187.757	-0.187	0.281
-558.485	-200.000	-0.006	-0.293
-557.471	-200.000	0.016	0.279
-556.456	109.868	-0.144	0.173
-555.442	253.482	0.146	0.250
-554.427	-25.567	0.135	0.080
-553.412	730.735	0.139	-0.373
-552.398	618.154	0.006	0.015
-551.383	-125.321	-0.240	-0.037
-550.369	99.506	-0.154	-0.179
-549.354	180.522	-0.124	0.183
-548.339	157.146	0.113	0.158
-547.325	-27.678	-0.194	-0.113
-546.310	269.166	-0.171	0.301
-545.296	255.174	-0.128	-0.221
-544.281	-200.000	-0.013	0.183
-543.266	97.590	0.250	0.288
-542.252	41.363	0.248	0.225
-541.237	-32.369	-0.197	-0.111
-540.223	-104.304	0.186	-0.043
-539.208	-200.000	-0.021	-0.110
-538.193	52.273	-0.193	-0.185
-537.179	70.821	-0.108	-0.112
-536.164	112.423	-0.235	-0.286
-535.150	800.000	0.040	-0.166
-534.135	-52.828	-0.236	-0.109
-533.121	800.000	-0.056	0.240
-532.106	-200.000	-0.022	-0.129
-531.091	-200.000	-0.021	0.206
-530.077	68.019	0.241	-0.248
-529.062	-8.343	0.037	0.025
-528.048	97.454	-0.090	0.104
-527.033	411.559	-0.208	0.444
-526.018	171.195	0.169	-0.244
-525.004	800.000	-0.040	-0.174
-523.989	130.915	-0.175	0.226
-522.975	-200.000	0.009	-0.181
-521.960	-120.621	0.308	-0.052
-520.945	-200.000	0.074	0.332
-519.931	800.000	0.050	-0.214
-518.916	-33.076	-0.112	0.063
-517.902	51.767	0.098	-0.094
-516.887	-200.000	0.045	-0.261
-515.872	455.420	0.088	-0.196
-514.858	118.943	-0.207	0.257
-513.843	218.893	0.134	0.214
-512.829	-176.818	-0.072	-0.002
-511.814	800.000	-0.070	0.224
-510.799	800.000	-0.066	-0.244
-509.785	-159.865	-0.107	-0.006
-508.770	-81.298	-0.285	-0.094
-507.756	-200.000	-0.051	-0.376
-506.741	58.286	-0.237	0.233
-505.726	-184.927	-0.369	0.006
-504.712	254.367	0.153	0.262
-503.697	637.386	0.050	-0.127
-502.683	114.898	0.132	0.162
-501.668	-154.056	-0.184	-0.013
-500.653	-136.302	-0.204	0.024
-499.639	-200.000	-0.004	-0.027
-498.624	67.050	0.163	0.167
-497.610	-144.305	0.034	0.003
-496.595	-200.000	0.009	0.126
-495.581	-67.893	0.241	0.094
-494.566	46.808	-0.303	0.282
-493.551	193.390	0.153	-0.232
-492.537	82.148	0.176	0.191
-491.522	800.000	-0.022	-0.096
-490.508	25.541	0.076	0.063
-489.493	-200.000	-0.028	0.202
-488.478	8.930	0.201	0.152
-487.464	346.938	-0.218	-0.430
-486.449	-110.544	0.107	-0.022
-485.435	-142.408	-0.106	-0.010
-484.420	-24.684	-0.205	0.122
-483.405	65.323	-0.319	0.324
-482.391	-83.167	-0.304	-0.098
-481.376	-58.386	-0.408	0.178
-480.362	112.887	-0.193	0.235
-479.347	-74.822	0.058	0.021
-478.332	-196.076	0.139	0.001
-477.318	149.890	-0.201	-0.273
-476.303	-200.000	-0.041	-0.272
-475.289	340.583	-0.083	-0.162
-474.274	171.902	-0.211	0.304
-473.259	255.978	-0.103	0.178
-472.245	800.000	-0.053	0.177
-471.230	223.782	0.149	0.241
-470.216	-92.998	0.099	-0.028
-469.201	-200.000	-0.004	0.347
-468.186	-200.000	0.025	0.295
-467.172	800.000	0.046	-0.178
-466.157	-112.136	-0.248	0.050
-465.143	-43.870	-0.130	-0.066
-464.128	800.000	0.019	0.056
-463.113	-200.000	-0.041	0.207
-462.099	-200.000	0.019	0.394
-461.084	30.964	-0.153	0.131
-460.070	290.462	0.069	-0.125
-459.055	-52.567	-0.259	-0.120
-458.040	49.309	-0.053	-0.050
-457.026	-200.000	-0.010	0.051
-456.011	307.466	-0.020	-0.037
-454.997	800.000	0.047	0.132
-453.982	800.000	-0.052	0.162
-452.968	455.791	0.113	-0.250
-451.953	327.354	0.111	-0.213
-450.938	-200.000	-0.031	-0.151
-449.924	-141.848	0.195	0.020
-448.909	-200.000	0.008	-0.295
-447.895	96.616	-0.100	-0.114
-446.880	-146.785	-0.234	0.020
-445.865	63.168	-0.207	0.208
-444.851	105.500	0.065	0.077
-443.836	21.301	0.012	-0.009
-442.822	-200.000	-0.027	0.351
-441.807	-16.300	-0.236	-0.150
-440.792	723.873	0.076	0.203
-439.778	111.850	0.048	0.058
-438.763	188.203	-0.177	-0.264
-437.749	35.980	-0.218	-0.192
-436.734	-200.000	0.077	-0.466
-435.719	-86.798	-0.184	-0.056
-434.705	-200.000	0.055	-0.275
-433.690	-112.386	-0.432	-0.087
-432.676	-200.000	0.052	0.299
-431.661	131.589	0.172	0.221
-430.646	800.000	0.109	0.303
-429.632	464.148	-0.044	-0.099
-428.617	47.371	0.205	0.191
-427.603	150.959	-0.032	0.043
-426.588	-36.529	-0.267	0.144
-425.573	-200.000	0.005	-0.163
-424.559	-4.358	0.445	-0.308
-423.544	52.935	0.119	0.114
-422.530	-139.119	-0.238	0.026
-421.515	603.829	0.177	-0.441
-420.500	-125.474	0.256	-0.039
-419.486	800.000	-0.059	0.166
-418.471	-200.000	-0.001	-0.293
-417.457	-123.690	-0.203	-0.032
-416.442	172.469	-0.207	-0.298
-415.428	-143.754	0.292	0.028
-414.413	-123.930	0.344	0.054
-413.398	645.086	-0.110	-0.281
-412.384	507.916	-0.084	0.195
-411.369	156.043	-0.276	-0.380
-410.355	800.000	0.088	-0.333
-409.340	800.000	0.092	-0.292
-408.325	3.896	0.102	-0.074
-407.311	34.907	-0.265	-0.232
-406.296	124.615	-0.110	-0.139
-405.282	-3.725	0.143	-0.099
-404.267	800.000	-0.061	-0.226
-403.252	-97.562	0.147	-0.038
-402.238	-200.000	0.015	0.184
-401.223	-126.597	0.202	0.030
-400.209	148.768	0.056	-0.076
-399.194	-48.420	0.016	-0.008
-398.179	-88.565	-0.546	0.163
-397.165	42.358	-0.111	0.101
-396.150	-117.414	-0.221	-0.040
-395.136	303.599	0.147	-0.272
-394.121	121.050	-0.184	0.229
-393.106	333.928	0.264	-0.510
-392.092	567.883	0.057	-0.139
-391.077	487.935	-0.024	0.055
-390.063	-180.130	-0.229	-0.005
-389.048	800.000	-0.024	-0.070
-388.033	-127.475	-0.230	0.033
-387.019	-200.000	0.010	-0.075
-386.004	-84.201	-0.193	-0.061
-384.990	-200.000	-0.034	-0.198
-383.975	668.481	0.106	-0.273
-382.960	-131.935	-0.345	-0.045
-381.946	-100.485	0.335	0.083
-380.931	47.494	-0.328	0.306
-379.917	-33.325	0.066	-0.037
-378.902	-177.705	0.273	-0.007
-377.888	-135.965	0.309	-0.036
-376.873	-23.140	-0.191	0.115
-375.858	77.387	0.149	-0.158
-374.844	89.277	0.148	-0.165
-373.829	-21.882	-0.160	0.097
-372.815	-200.000	0.010	-0.190
-371.800	800.000	-0.025	-0.073
-370.785	338.974	-0.165	0.321
-369.771	-3.273	-0.125	-0.087
-368.756	440.157	-0.112	0.243
-367.742	511.863	0.135	0.314
-366.727	800.000	-0.039	-0.128
-365.712	99.430	-0.029	0.034
-364.698	9.808	-0.265	0.201
-363.683	107.589	-0.108	-0.128
-362.669	518.488	-0.120	0.281
-361.654	266.590	-0.215	0.375
-360.639	-21.657	0.132	-0.080
-359.625	-19.036	0.133	-0.083
-358.610	82.222	0.109	0.118
-357.596	800.000	-0.052	0.199
-356.581	-200.000	0.025	0.154
-355.566	-62.496	-0.210	-0.087
-354.552	800.000	0.050	0.207
-353.537	161.175	0.143	0.199
-352.523	114.453	-0.165	0.200
-351.508	-128.536	-0.139	-0.020
-350.493	-55.880	-0.095	0.042
-349.479	-29.248	0.182	0.104
-348.464	-49.243	0.132	0.063
-347.450	800.000	0.150	-0.415
-346.435	-165.361	-0.296	-0.013
-345.420	-200.000	-0.048	0.219
-344.406	-76.197	-0.370	-0.130
-343.391	52.902	0.179	0.171
-342.377	800.000	-0.087	0.270
-341.362	-200.000	0.037	-0.251
-340.348	-164.969	-0.091	-0.004
-339.333	73.242	0.202	-0.211
-338.318	190.922	0.145	0.218
-337.304	-200.000	-0.007	0.201
-336.289	-117.502	-0.297	-0.053
-335.275	800.000	0.097	-0.371
-334.260	24.361	0.370	-0.305
-333.245	-98.075	0.287	0.074
-332.231	251.819	0.204	0.345
-331.216	67.075	0.180	0.183
-330.202	82.649	-0.161	0.174
-329.187	81.690	-0.150	0.162
-328.172	158.253	-0.060	-0.082
-327.158	59.237	0.172	-0.168
-326.143	-92.502	0.119	-0.033
-325.129	-110.011	-0.220	0.046
-324.114	800.000	0.040	0.134
-323.099	-200.000	-0.015	-0.153
-322.085	411.858	0.125	0.265
-321.070	-52.794	0.156	0.071
-320.056	800.000	0.034	-0.111
-319.041	148.133	0.136	-0.183
-318.026	-118.106	-0.233	-0.041
-317.012	24.548	-0.323	0.266
-315.997	-200.000	0.012	-0.063
-314.983	-200.000	0.001	-0.057
-313.968	91.000	0.308	0.344
-312.953	152.178	-0.167	0.227
-311.939	204.661	-0.185	0.286
-310.924	-54.901	-0.055	-0.025
-309.910	-200.000	-0.006	-0.077
-308.895	-86.777	-0.237	-0.072
-307.880	-151.310	0.117	-0.009
-306.866	111.776	-0.040	-0.048
-305.851	-125.976	-0.165	0.025
-304.837	-30.575	0.214	-0.121
-303.822	800.000	0.048	-0.187
-302.807	20.590	0.365	0.294
-301.793	-134.038	0.516	0.064
-300.778	800.000	0.023	-0.063
-299.764	-200.000	-0.039	0.474
-298.749	800.000	-0.035	0.143
-297.735	92.810	-0.122	-0.138
-296.720	-110.333	0.471	-0.098
-295.705	53.636	0.318	-0.303
-294.691	622.767	0.094	-0.236
-293.676	23.615	0.197	-0.162
-292.662	-200.000	0.053	-0.338
-291.647	133.361	-0.019	0.025
-290.632	-33.129	0.107	0.059
-289.618	-58.630	-0.225	-0.097
-288.603	-34.298	0.306	-0.167
-287.589	628.525	0.085	-0.215
-286.574	800.000	-0.052	0.143
-285.559	201.896	0.124	-0.191
-284.545	-0.851	0.144	0.102
-283.530	-200.000	-0.036	0.196
-282.516	490.118	-0.092	0.209
-281.501	800.000	0.083	-0.245
-280.486	-142.081	-0.187	-0.018
-279.472	113.124	-0.202	-0.243
-278.457	-6.885	0.200	0.135
-277.443	-200.000	-0.011	0.195
-276.428	-64.804	0.241	0.097
-275.413	-200.000	-0.032	0.487
-274.399	-20.407	-0.242	-0.148
-273.384	-200.000	0.004	0.259
-272.370	-200.000	0.035	0.219
-271.355	-200.000	-0.057	0.254
-270.340	-200.000	-0.000	-0.306
-269.326	272.374	-0.133	0.234
-268.311	-107.362	0.267	0.058
-267.297	-159.799	0.137	0.008
-266.282	40.364	-0.264	-0.236
-265.267	-200.000	-0.002	0.276
-264.253	-119.182	-0.085	-0.015
-263.238	-27.110	0.413	-0.240
-262.224	-84.194	0.054	0.017
-261.209	-110.891	0.362	-0.074
-260.195	52.327	-0.061	0.058
-259.180	282.969	0.095	-0.169
-258.165	800.000	0.057	0.191
-257.151	-41.354	0.236	0.121
-256.136	209.848	0.089	0.138
-255.122	800.000	-0.058	-0.167
-254.107	-38.716	0.310	-0.163
-253.092	-97.924	0.203	0.052
-252.078	234.121	-0.087	0.142
-251.063	800.000	-0.043	-0.148
-250.049	26.445	0.186	0.154
-249.034	-81.423	-0.261	0.085
-248.019	120.228	0.093	-0.115
-247.005	84.665	-0.231	-0.251
-245.990	-161.584	0.164	0.008
-244.976	-111.957	-0.152	0.031
-243.961	135.351	0.060	0.078
-242.946	61.355	0.146	0.144
-241.932	-33.328	0.113	0.062
-240.917	800.000	-0.060	0.221
-239.903	447.551	0.128	0.279
-238.888	365.845	0.055	0.110
-237.873	-176.019	0.184	-0.005
-236.859	146.015	0.229	0.305
-235.844	32.351	-0.061	0.052
-234.830	-16.008	0.175	-0.111
-233.815	-122.236	0.288	0.047
-232.800	-9.917	-0.127	-0.084
-231.786	-2.428	-0.199	0.139
-230.771	-97.167	0.171	0.044
-229.757	259.402	-0.073	0.125
-228.742	44.010	-0.096	0.088
-227.727	85.365	-0.072	0.078
-226.713	-200.000	-0.017	-0.134
-225.698	-200.000	-0.036	0.256
-224.684	800.000	-0.050	-0.150
-223.669	-128.499	-0.369	0.052
-222.655	-104.388	0.579	0.133
-221.640	49.024	-0.110	0.103
-220.625	7.218	0.058	-0.043
-219.611	-7.885	0.014	0.010
-218.596	-200.000	-0.047	-0.212
-217.582	517.561	-0.124	0.287
-216.567	106.736	0.241	-0.284
-215.552	-7.101	-0.174	0.117
-214.538	-91.690	-0.196	0.055
-213.523	138.038	0.176	0.229
-212.509	8.141	0.067	-0.050
-211.494	54.619	0.115	-0.110
-210.479	-200.000	0.005	0.349
-209.465	-123.632	-0.385	-0.061
-208.450	120.964	0.089	-0.110
-207.436	418.640	-0.126	-0.267
-206.421	-100.218	-0.393	-0.097
-205.406	648.854	-0.096	-0.242
-204.392	390.798	-0.021	-0.044
-203.377	129.028	0.132	0.167
-202.363	27.413	-0.072	-0.060
-201.348	-200.000	0.012	-0.430
-200.333	-47.703	0.167	0.080
-199.319	500.798	0.032	0.073
-198.304	-69.724	0.279	0.106
-197.290	-57.214	0.106	-0.046
-196.275	137.706	0.044	0.057
-195.260	-81.094	0.156	0.051
-194.246	-151.855	0.081	0.006
-193.231	245.721	-0.073	0.122
-192.217	-8.380	0.257	-0.171
-191.202	-79.809	-0.074	0.025
-190.187	-5.036	0.363	0.248
-189.173	154.557	-0.106	0.144
-188.158	-200.000	0.038	-0.259
-187.144	-200.000	0.037	0.221
-186.129	42.323	0.213	-0.192
-185.114	148.116	-0.165	0.221
-184.100	-45.949	0.074	-0.036
-183.085	53.089	0.222	-0.210
-182.071	-117.903	-0.251	0.045
-181.056	58.135	0.253	-0.245
-180.042	-98.098	-0.231	0.059
-179.027	-11.390	0.312	-0.204
-178.012	-52.910	0.228	0.104
-176.998	-22.030	0.291	0.175
-175.983	-27.449	0.196	0.113
-174.969	-101.265	0.188	0.045
-173.954	-200.000	0.042	0.204
-172.939	186.829	-0.150	0.221
-171.925	242.678	0.195	-0.323
-170.910	-4.576	-0.195	0.133
-169.896	-200.000	0.027	-0.155
-168.881	14.141	-0.193	0.149
-167.866	302.933	0.124	0.228
-166.852	92.371	0.179	-0.200
-165.837	120.373	-0.164	-0.201
-164.823	-92.663	-0.194	-0.054
-163.808	-1.326	0.321	0.224
-162.793	60.717	-0.211	-0.207
-161.779	516.845	-0.050	0.116
-160.764	-14.050	0.191	0.122
-159.750	-60.094	-0.091	0.038
-158.735	87.821	0.148	0.163
-157.720	-38.886	-0.055	0.029
-156.706	7.846	-0.243	-0.181
-155.691	-72.027	0.210	0.077
-154.677	210.399	-0.058	0.090
-153.662	509.257	0.082	0.189
-152.647	449.271	0.050	-0.109
-151.633	-103.916	0.340	-0.079
-150.618	81.220	-0.115	0.123
-149.604	-200.000	0.229	-0.001
-148.589	-113.898	0.292	0.056
-147.574	573.778	0.125	-0.303
-146.560	214.177	0.078	-0.122
-145.545	-39.146	-0.229	0.119
-144.531	-104.466	-0.251	-0.058
-143.516	-80.237	-0.216	-0.071
-142.502	215.205	-0.108	-0.169
-141.487	-180.104	-0.188	0.004
-140.472	-161.260	-0.270	-0.014
-139.458	48.737	-0.260	-0.242
-138.443	-200.000	0.034	0.229
-137.429	-83.656	-0.439	-0.139
-136.414	-30.387	0.056	-0.031
-135.399	-53.187	0.075	-0.034
-134.385	800.000	0.027	0.107
-133.370	-148.753	0.169	-0.014
-132.356	-200.000	0.051	-0.308
-131.341	-117.393	0.150	0.027
-130.326	23.062	-0.151	0.123
-129.312	-115.834	0.165	-0.030
-128.297	138.220	0.146	0.189
-127.283	800.000	-0.023	-0.078
-126.268	50.427	-0.240	-0.224
-125.253	135.222	0.152	0.195
-124.239	-200.000	0.365	-0.000
-123.224	-71.256	0.044	-0.016
-122.210	-59.728	-0.155	0.066
-121.195	159.764	0.058	-0.080
-120.180	-178.040	0.337	0.008
-119.166	-200.000	0.031	0.353
-118.151	82.606	-0.090	-0.097
-117.137	446.695	0.148	-0.322
-116.122	-132.215	-0.304	0.039
-115.107	26.207	0.270	-0.223
-114.093	-200.000	0.033	0.254
-113.078	-100.280	-0.173	-0.042
-112.064	-123.447	0.242	0.038
-111.049	275.138	-0.092	0.161
-110.034	-71.334	0.138	0.051
-109.020	-49.011	0.155	-0.073
-108.005	171.239	-0.109	0.155
-106.991	318.016	0.092	0.172
-105.976	157.055	0.116	0.158
-104.962	-79.931	0.274	-0.091
-103.947	122.973	0.259	0.320
-102.932	800.000	0.126	0.394
-101.918	322.172	-0.044	0.083
-100.903	-92.334	-0.271	0.075
-99.889	-200.000	0.050	-0.454
-98.874	-200.000	0.015	0.249
-97.859	69.653	0.163	-0.166
-96.845	-4.132	-0.109	0.075
-95.830	195.121	0.229	0.343
-94.816	-196.348	-0.276	0.002
-93.801	-123.228	-0.256	-0.040
-92.786	63.280	0.168	0.167
-91.772	-160.647	0.202	-0.011
-90.757	321.174	0.080	0.151
-89.743	470.844	0.069	0.154
-88.728	491.928	0.084	0.191
-87.713	-11.378	-0.285	0.185
-86.699	-79.349	-0.197	0.066
-85.684	-200.000	0.010	0.085
-84.670	-200.000	-0.013	0.093
-83.655	-200.000	0.031	0.194
-82.640	-90.896	-0.291	-0.083
-81.626	611.472	0.067	-0.165
-80.611	-200.000	-0.041	0.343
-79.597	75.912	0.015	-0.016
-78.582	-133.484	-0.143	-0.018
-77.567	-137.499	-0.380	0.042
-76.553	424.018	-0.077	-0.163
-75.538	800.000	0.053	0.164
-74.524	800.000	0.066	0.198
-73.509	-200.000	0.022	-0.099
-72.494	605.582	-0.142	-0.350
-71.480	307.231	0.164	-0.302
-70.465	783.612	0.050	0.136
-69.451	800.000	0.087	0.242
-68.436	144.374	-0.064	-0.084
-67.422	-200.000	0.107	-0.480
-66.407	163.512	-0.178	0.247
-65.392	337.898	0.113	0.217
-64.378	-5.122	0.335	-0.227
-63.363	379.105	0.129	0.260
-62.349	800.000	0.030	-0.091
-61.334	110.311	-0.831	-0.985
-60.319	123.242	0.455	0.563
-59.305	-200.000	-0.083	-0.840
-58.290	99.711	0.806	0.920
-57.276	774.118	0.620	1.668
-56.261	-200.000	95.176	538.981
-55.246	476.938	1434.020	3197.430
-54.232	146.076	2648.207	3502.934
-53.217	108.220	2237.438	2631.401
-52.203	43.275	1760.705	1585.347
-51.188	35.950	1568.528	1360.733
-50.173	33.565	1541.094	1320.295
-49.159	52.596	1588.682	1495.927
-48.144	54.260	1606.368	1524.277
-47.130	36.229	1566.635	1360.845
-46.115	33.172	1551.234	1326.017
-45.100	33.027	1548.088	1322.259
-44.086	32.932	1546.323	1320.034
-43.071	32.902	1544.569	1318.280
-42.057	32.936	1542.464	1316.665
-41.042	32.874	1540.995	1314.928
-40.027	32.897	1539.611	1313.856
-39.013	32.906	1538.141	1312.608
-37.998	32.875	1537.144	1311.491
-36.984	32.855	1536.513	1310.766
-35.969	32.931	1534.329	1309.378
-34.954	32.827	1533.220	1307.658
-33.940	32.866	1531.559	1306.457
-32.925	32.983	1530.063	1305.936
-31.911	32.830	1528.924	1303.855
-30.896	32.983	1526.946	1303.175
-29.881	32.940	1525.602	1301.677
-28.867	32.939	1524.259	1300.475
-27.852	32.938	1523.120	1299.446
-26.838	32.882	1521.768	1297.856
-25.823	32.928	1520.410	1296.960
-24.809	32.884	1518.751	1295.195
-23.794	32.922	1517.063	1293.959
-22.779	32.940	1515.250	1292.487
-21.765	32.888	1514.687	1291.602
-20.750	32.869	1513.544	1290.442
-19.736	32.970	1511.893	1289.677
-18.721	32.877	1511.257	1288.448
-17.706	32.918	1510.071	1287.666
-16.692	32.869	1509.204	1286.543
-15.677	32.855	1508.133	1285.481
-14.663	32.834	1507.349	1284.620
-13.648	32.857	1506.411	1283.926
-12.633	32.885	1505.213	1283.043
-11.619	32.897	1504.510	1282.470
-10.604	32.825	1503.545	1281.110
-9.590	32.847	1502.586	1280.394
-8.575	32.742	1502.045	1279.169
-7.560	32.818	1500.726	1278.510
-6.546	32.804	1500.261	1277.968
-5.531	32.808	1499.365	1277.183
-4.517	32.859	1497.744	1276.091
-3.502	32.816	1496.925	1275.055
-2.487	32.738	1496.331	1273.973
-1.473	32.809	1494.910	1273.192
-0.458	32.789	1493.839	1272.090
0.556	32.451	1484.837	1263.185
1.571	29.892	1458.136	1223.469
2.586	26.047	1395.056	1146.060
3.600	23.556	1308.019	1059.610
4.615	21.279	1260.965	1008.275
5.629	17.813	1202.507	942.338
6.644	9.145	1114.476	828.721
7.659	2.280	1071.786	762.744
8.673	1.189	1066.567	753.545
9.688	1.161	1062.799	750.675
10.702	1.146	1061.793	749.826
11.717	0.915	1060.237	747.521
12.731	3.320	1062.234	760.749
13.746	10.669	1072.202	804.347
14.761	16.483	1079.200	838.442
15.775	17.630	1079.897	844.600
16.790	17.261	1078.461	841.575
17.804	16.341	1076.233	835.211
18.819	15.417	1074.718	829.396
19.834	14.888	1073.366	825.671
20.848	14.601	1072.271	823.338
21.863	14.312	1071.647	821.363
22.877	14.174	1070.359	819.623
23.892	13.938	1069.698	817.882
24.907	13.829	1068.732	816.534
25.921	13.794	1067.934	815.678
26.936	13.813	1067.597	815.442
27.950	13.882	1066.280	814.703
28.965	13.958	1065.827	814.660
29.980	13.842	1065.310	813.623
30.994	13.953	1063.975	813.072
32.009	13.998	1063.336	812.736
33.023	14.072	1062.347	812.269
34.038	14.067	1061.582	811.586
35.053	14.147	1060.730	811.251
36.067	14.054	1059.977	810.152
37.082	13.874	1059.431	808.787
38.096	13.945	1058.933	808.681
39.111	14.049	1057.821	808.265
40.126	14.068	1056.886	807.574
41.140	13.985	1056.076	806.478
42.155	13.836	1054.848	804.746
43.169	13.902	1054.004	804.353
44.184	13.941	1052.526	803.340
45.199	13.746	1052.069	801.981
46.213	13.871	1050.981	801.682
47.228	13.858	1049.966	800.775
48.242	14.020	1048.497	800.366
49.257	13.896	1047.648	799.050
50.271	13.844	1046.657	797.972
51.286	13.924	1045.352	797.291
52.301	14.004	1044.636	797.057
53.315	14.060	1044.210	796.929
54.330	14.004	1042.898	795.589
55.344	13.952	1042.108	794.669
56.359	13.945	1041.198	793.873
57.374	13.864	1040.578	792.942
58.388	13.905	1039.457	792.212
59.403	13.865	1038.922	791.545
60.417	13.821	1037.939	790.515
61.432	13.761	1037.793	790.050
62.447	13.833	1036.619	789.428
63.461	13.631	1035.905	787.854
64.476	13.738	1034.933	787.552
65.490	13.644	1034.221	786.496
66.505	13.923	1032.461	786.407
67.520	13.814	1032.327	785.723
68.534	13.863	1031.463	785.224
69.549	13.903	1031.004	784.996
70.563	13.884	1029.586	783.756
71.578	13.753	1029.421	782.943
72.593	13.848	1028.318	782.481
73.607	13.732	1027.494	781.243
74.622	13.764	1026.316	780.426
75.636	13.685	1025.961	779.717
76.651	13.695	1024.903	778.891
77.666	13.722	1024.363	778.535
78.680	13.747	1022.928	777.495
79.695	13.730	1022.758	777.216
80.709	13.799	1021.881	776.805
81.724	13.795	1021.118	776.136
82.739	13.785	1020.687	775.696
83.753	13.783	1019.722	774.884
84.768	13.905	1019.003	774.837
85.782	13.858	1018.208	773.943
86.797	13.984	1017.022	773.564
87.812	13.971	1016.450	772.999
88.826	13.966	1015.378	772.092
89.841	14.018	1014.307	771.451
90.855	14.031	1013.989	771.199
91.870	13.887	1013.164	769.838
92.884	13.984	1012.308	769.570
93.899	13.989	1011.489	768.901
94.914	13.966	1011.063	768.402
95.928	14.148	1010.050	768.404
96.943	14.036	1009.464	767.372
97.957	14.043	1008.973	766.966
98.972	14.183	1007.351	766.309
99.987	13.981	1006.910	764.977
101.001	14.069	1006.025	764.643
102.016	14.048	1005.584	764.139
103.030	14.051	1004.402	763.190
104.045	14.097	1003.286	762.484
105.060	13.922	1002.909	761.331
106.074	13.933	1001.867	760.523
107.089	13.953	1000.912	759.818
108.103	13.893	1000.593	759.234
109.118	13.928	998.991	758.114
110.133	13.891	998.628	757.603
111.147	13.964	997.618	757.099
112.162	13.942	996.801	756.314
113.176	13.947	995.847	755.547
114.191	13.975	994.982	754.948
115.206	13.990	994.019	754.223
116.220	13.990	993.158	753.502
117.235	14.009	992.057	752.687
118.249	13.977	991.413	751.984
119.264	13.960	990.419	751.087
120.279	13.934	989.652	750.321
121.293	13.895	988.822	749.452
122.308	13.861	988.354	748.875
123.322	14.057	987.124	748.761
124.337	13.936	986.577	747.735
125.352	13.956	985.253	746.754
126.366	13.993	983.878	745.815
127.381	13.964	982.967	744.928
128.395	13.825	982.505	743.887
129.410	13.920	981.197	743.255
130.424	13.886	980.219	742.297
131.439	13.963	979.042	741.686
132.454	14.141	978.233	741.800
133.468	14.029	977.880	740.969
134.483	14.056	976.835	740.229
135.497	14.037	976.392	739.744
136.512	13.951	975.412	738.557
137.527	13.855	974.946	737.712
138.541	14.035	974.021	737.744
139.556	13.931	973.220	736.612
140.570	14.021	972.511	736.409
141.585	13.995	971.728	735.636
142.600	14.145	970.921	735.621
143.614	14.085	970.159	734.713
144.629	14.033	969.545	733.954
145.643	14.251	968.413	733.995
146.658	14.129	967.805	732.931
147.673	14.115	966.409	731.747
148.687	14.155	965.933	731.500
149.702	14.005	965.192	730.213
150.716	14.107	964.313	729.933
151.731	14.060	963.118	728.755
152.746	14.046	962.720	728.329
153.760	14.121	961.842	727.930
154.775	14.050	961.297	727.142
155.789	14.056	960.270	726.325
156.804	14.126	959.551	726.022
157.819	14.192	958.556	725.496
158.833	14.189	957.990	724.988
159.848	14.248	957.326	724.677
160.862	14.350	956.284	724.269
161.877	14.305	955.929	723.742
162.892	14.128	955.542	722.613
163.906	14.050	954.332	721.296
164.921	14.130	953.708	721.107
165.935	14.209	952.274	720.304
166.950	14.193	951.861	719.858
167.964	14.269	950.374	718.999
168.979	14.311	949.685	718.596
169.994	14.267	948.572	717.499
171.008	14.369	948.094	717.512
172.023	14.303	946.884	716.249
173.037	14.307	946.009	715.541
174.052	14.200	945.543	714.665
175.067	14.189	944.815	714.007
176.081	14.281	944.240	713.903
177.096	14.331	943.121	713.209
178.110	14.397	942.268	712.781
179.125	14.292	941.700	711.839
180.140	14.411	941.019	711.772
181.154	14.187	940.822	710.600
182.169	14.282	939.664	710.071
183.183	14.444	938.658	709.938
184.198	14.505	938.355	709.904
185.213	14.472	937.663	709.180
186.227	14.516	937.195	708.948
187.242	14.452	936.800	708.313
188.256	14.580	935.665	707.937
189.271	14.473	935.160	707.037
190.286	14.604	934.415	706.966
191.300	14.432	933.827	705.733
192.315	14.321	933.076	704.630
193.329	14.410	932.181	704.269
194.344	14.445	931.600	703.917
195.359	14.330	931.183	703.055
196.373	14.444	930.671	703.084
197.388	14.564	929.687	702.785
198.402	14.669	929.080	702.705
199.417	14.537	929.241	702.211
200.432	14.595	928.371	701.736
201.446	14.641	928.258	701.781
202.461	14.658	928.046	701.629
203.475	14.653	927.247	700.945
204.490	14.712	926.506	700.569
205.504	14.766	925.603	700.051
206.519	14.621	924.872	698.829
207.534	14.733	924.249	698.765
208.548	14.761	922.964	697.849
209.563	14.845	922.073	697.462
210.577	14.757	921.839	696.856
211.592	14.700	921.578	696.359
212.607	14.775	920.704	695.951
213.621	14.746	920.365	695.511
214.636	14.934	919.105	695.279
215.650	14.896	918.428	694.547
216.665	14.988	917.716	694.330
217.680	14.886	917.487	693.674
218.694	14.791	917.154	692.967
219.709	14.946	916.499	693.050
220.723	14.966	915.294	692.164
221.738	14.874	915.174	691.630
222.753	14.914	914.353	691.114
223.767	14.895	913.495	690.325
224.782	14.999	912.957	690.286
225.796	15.033	912.145	689.751
226.811	15.045	911.163	688.999
227.826	15.202	910.741	689.265
228.840	15.145	909.930	688.353
229.855	15.054	909.412	687.529
230.869	15.037	908.974	687.067
231.884	14.896	908.317	685.929
232.899	14.936	907.611	685.499
233.913	15.166	906.424	685.484
234.928	15.020	905.977	684.490
235.942	15.009	905.702	684.174
236.957	14.960	904.844	683.265
237.972	15.190	903.863	683.402
238.986	15.144	903.170	682.629
240.001	15.106	902.459	681.878
241.015	15.159	901.843	681.568
242.030	15.200	900.864	680.935
243.045	15.230	900.287	680.560
244.059	15.143	899.996	679.927
245.074	15.244	899.026	679.543
246.088	15.265	898.418	679.110
247.103	15.086	898.029	678.030
248.117	15.323	897.301	678.378
249.132	15.486	896.778	678.582
250.147	15.280	896.412	677.414
251.161	15.424	895.132	676.969
252.176	15.348	894.822	676.369
253.190	15.460	894.063	676.185
254.205	15.476	893.489	675.756
255.220	15.485	893.022	675.379
256.234	15.486	891.977	674.534
257.249	15.513	891.966	674.572
258.263	15.456	891.139	673.657
259.278	15.572	890.196	673.350
260.293	15.611	889.994	673.295
261.307	15.655	889.385	672.952
262.322	15.668	888.645	672.384
263.336	15.702	887.844	671.853
264.351	15.862	887.111	671.879
265.366	15.573	886.816	670.441
266.380	15.825	885.986	670.760
267.395	15.804	885.322	670.113
268.409	15.768	884.239	669.091
269.424	15.788	883.830	668.801
270.439	15.782	883.710	668.629
271.453	15.810	882.533	667.791
272.468	15.661	881.865	666.636
273.482	15.724	881.354	666.439
274.497	15.748	880.864	666.104
275.512	15.901	879.684	665.759
276.526	15.818	879.406	665.161
277.541	15.784	878.668	664.411
278.555	15.846	877.839	663.967
279.570	15.844	877.574	663.700
280.585	15.749	877.154	662.951
281.599	15.968	876.188	663.023
282.614	15.929	875.751	662.480
283.628	15.929	874.862	661.750
284.643	15.938	874.512	661.463
285.657	16.028	873.961	661.341
286.672	16.052	873.408	660.955
287.687	16.029	873.366	660.778
288.701	15.943	872.475	659.710
289.716	16.063	871.708	659.539
290.730	16.064	870.861	658.843
291.745	16.078	870.411	658.498
292.760	16.169	869.790	658.326
293.774	16.069	869.112	657.367
294.789	16.074	868.645	656.972
295.803	16.221	868.014	657.011
296.818	16.186	867.403	656.355
297.833	16.111	866.828	655.570
298.847	16.191	865.966	655.171
299.862	16.243	864.978	654.568
300.876	16.176	864.334	653.761
301.891	16.081	864.283	653.296
302.906	16.175	863.233	652.808
303.920	16.188	862.373	652.151
304.935	16.323	861.915	652.267
305.949	16.334	861.506	651.943
306.964	16.348	860.969	651.534
307.979	16.387	860.094	650.966
308.993	16.257	859.954	650.299
310.008	16.368	859.240	650.128
311.022	16.366	858.511	649.515
312.037	16.584	858.092	649.974
313.052	16.457	857.664	649.106
314.066	16.470	856.911	648.530
315.081	16.409	856.459	647.895
316.095	16.390	855.826	647.287
317.110	16.395	854.964	646.596
318.125	16.365	854.813	646.311
319.139	16.385	854.469	646.068
320.154	16.583	853.564	646.086
321.168	16.504	853.154	645.416
322.183	16.462	852.726	644.874
323.197	16.509	852.305	644.679
324.212	16.566	851.489	644.221
325.227	16.582	851.212	644.017
326.241	16.553	850.591	643.380
327.256	16.540	849.773	642.652
328.270	16.551	849.550	642.469
329.285	16.572	848.545	641.733
330.300	16.463	848.301	641.076
331.314	16.495	847.650	640.651
332.329	16.634	846.887	640.544
333.343	16.618	846.527	640.152
334.358	16.729	845.734	639.918
335.373	16.798	845.109	639.649
336.387	16.854	844.571	639.395
337.402	16.818	844.178	638.904
338.416	16.727	843.651	638.106
339.431	16.798	842.964	637.799
340.446	16.770	842.669	637.412
341.460	16.892	841.942	637.264
342.475	16.774	841.168	636.180
343.489	16.817	840.655	635.896
344.504	16.937	840.014	635.806
345.519	16.905	839.634	635.343
346.533	17.023	838.692	635.017
347.548	17.006	838.577	634.808
348.562	17.033	837.645	634.148
349.577	16.988	837.417	633.749
350.592	16.897	836.838	632.918
351.606	16.906	836.470	632.617
352.621	16.913	835.972	632.208
353.635	16.975	835.865	632.302
354.650	16.908	835.380	631.630
355.665	16.914	835.187	631.450
356.679	16.996	834.548	631.216
357.694	17.029	833.743	630.677
358.708	17.156	833.036	630.557
359.723	17.041	832.438	629.620
360.738	17.068	831.992	629.328
361.752	17.162	831.049	628.909
362.767	17.179	831.094	628.949
363.781	17.133	830.853	628.539
364.796	17.156	830.261	628.124
365.810	17.138	829.741	627.607
366.825	17.379	829.274	628.086
367.840	17.343	828.839	627.569
368.854	17.309	828.888	627.427
369.869	17.303	828.130	626.774
370.883	17.236	827.704	626.148
371.898	17.160	827.119	625.373
372.913	17.402	825.884	625.271
373.927	17.406	825.826	625.190
374.942	17.403	824.877	624.405
375.956	17.460	824.604	624.349
376.971	17.388	824.296	623.797
377.986	17.590	823.371	623.781
379.000	17.552	822.767	623.131
380.015	17.550	822.289	622.707
381.029	17.559	821.871	622.367
382.044	17.483	821.478	621.738
383.059	17.665	820.520	621.622
384.073	17.680	819.859	621.119
385.088	17.613	819.723	620.716
386.102	17.596	819.287	620.272
387.117	17.480	818.856	619.468
388.132	17.639	818.144	619.452
389.146	17.614	817.811	619.053
390.161	17.595	817.308	618.549
391.175	17.561	817.189	618.281
392.190	17.696	817.097	618.647
393.205	17.839	815.895	618.202
394.219	17.577	815.689	617.042
395.234	17.732	814.784	616.864
396.248	17.942	814.324	617.218
397.263	17.755	814.003	616.246
398.278	17.846	813.457	616.106
399.292	17.679	813.275	615.311
400.307	17.699	812.947	615.080
401.321	17.664	812.432	614.509
402.336	17.712	812.265	614.501
403.350	17.827	812.028	614.682
404.365	17.761	811.200	613.766
405.380	17.855	810.352	613.406
406.394	17.940	809.689	613.156
407.409	18.006	809.633	613.296
408.423	17.823	809.004	612.109
409.438	17.874	809.015	612.247
410.453	18.046	808.431	612.365
411.467	17.924	808.017	611.561
412.482	17.907	807.405	610.982
413.496	17.946	806.878	610.669
414.511	18.058	806.719	610.894
415.526	18.068	806.275	610.541
416.540	18.069	805.608	609.985
417.555	18.086	805.413	609.844
418.569	18.063	805.251	609.584
419.584	18.151	804.655	609.395
420.599	18.170	804.027	608.931
421.613	107.700	1287.333	1454.965
422.628	92.785	1357.769	1455.074
