DTS Sentinel unit serial number:	SN413079Multiplexer serial number:	ORYXHardware model number:	OX4-SRSoftware version number:	ORYX F/W v4.00 Oryx Data Collector v3.7.2.0data status	okinstallation	princeton_trtdifferential loss correction	single-endedforward channel	channel 3reverse channel	N/Adate	2019/09/14time	01:12:34forward acquisition time	60.00reverse acquisition time	0.00gamma	496.2192k internal	0.2340k external	0.2340temperature offset calibration	1.0052default loss term (dB/km)	0.3790temperature slope calibration	1.0000multiplexer offset coefficient	1.0000multiplexer slope coefficient	1.0000fibre end	0.00T internal ref (°C)	26.37T ext. ref 1 (°C)	3.18T ext. ref 2 (°C)	21.40length (m)	temperature (°C)	Stokes	anti-Stokes-747.200	599.990	0.111	0.277
-746.185	217.958	-0.184	0.295
-745.171	800.000	-0.027	-0.108
-744.156	-103.271	-0.265	0.063
-743.142	-0.822	-0.167	-0.119
-742.127	800.000	0.073	0.245
-741.112	85.811	-0.220	0.243
-740.098	20.188	-0.121	-0.098
-739.083	-1.374	0.254	-0.180
-738.069	68.777	-0.137	0.141
-737.054	-108.369	0.224	0.049
-736.039	-42.842	-0.237	-0.120
-735.025	467.306	-0.101	0.226
-734.010	71.668	-0.123	-0.128
-732.996	-200.000	-0.072	-0.463
-731.981	92.583	-0.267	0.302
-730.966	-126.574	-0.151	-0.023
-729.952	-32.742	-0.222	-0.124
-728.937	279.706	0.031	0.055
-727.923	-200.000	0.034	-0.245
-726.908	-200.000	0.017	0.303
-725.894	33.496	-0.330	-0.288
-724.879	-172.940	0.310	-0.010
-723.864	-27.520	-0.171	0.099
-722.850	800.000	-0.047	0.143
-721.835	-25.504	-0.249	0.147
-720.821	-93.024	-0.286	0.080
-719.806	-185.203	-0.274	0.004
-718.791	-200.000	-0.025	0.155
-717.777	-200.000	-0.021	0.141
-716.762	-200.000	-0.020	0.120
-715.748	-55.828	0.282	0.126
-714.733	-79.143	-0.337	-0.114
-713.718	800.000	0.030	0.113
-712.704	-141.915	0.276	0.028
-711.689	-169.490	0.338	-0.012
-710.675	800.000	-0.075	-0.248
-709.660	515.790	-0.105	-0.245
-708.645	-28.419	0.312	-0.180
-707.631	-200.000	-0.045	-0.261
-706.616	-200.000	-0.015	-0.172
-705.602	-71.404	-0.185	-0.069
-704.587	210.710	-0.091	0.144
-703.572	800.000	-0.025	-0.087
-702.558	-200.000	-0.001	0.247
-701.543	-112.219	-0.180	-0.036
-700.529	-121.674	0.277	-0.046
-699.514	184.323	-0.072	-0.107
-698.499	-169.044	-0.186	-0.007
-697.485	800.000	-0.027	0.076
-696.470	-78.246	-0.357	-0.123
-695.456	-200.000	0.034	-0.157
-694.441	775.929	-0.055	-0.149
-693.426	800.000	-0.097	-0.304
-692.412	125.446	-0.189	-0.238
-691.397	173.883	-0.157	0.226
-690.383	800.000	0.075	-0.292
-689.368	358.617	-0.062	-0.124
-688.354	47.743	-0.118	0.110
-687.339	-60.146	-0.154	0.066
-686.324	79.940	0.155	0.167
-685.310	-101.932	-0.208	-0.050
-684.295	-52.856	-0.231	-0.107
-683.281	-9.367	0.229	-0.153
-682.266	72.829	-0.287	-0.300
-681.251	148.600	0.014	-0.019
-680.237	641.568	-0.043	0.110
-679.222	54.506	-0.157	0.151
-678.208	57.479	-0.303	-0.296
-677.193	-40.230	0.254	-0.132
-676.178	10.080	-0.167	-0.127
-675.164	-125.516	-0.455	0.069
-674.149	-74.575	0.272	0.098
-673.135	-38.188	0.202	-0.107
-672.120	41.798	-0.155	0.140
-671.105	42.320	-0.178	-0.162
-670.091	285.284	-0.029	0.053
-669.076	-73.682	-0.180	-0.066
-668.062	-200.000	0.015	-0.086
-667.047	84.982	-0.176	0.193
-666.032	-133.259	-0.136	-0.017
-665.018	-19.825	0.202	-0.125
-664.003	-141.427	-0.134	0.014
-662.989	-33.099	-0.546	0.303
-661.974	-25.551	0.211	-0.124
-660.959	336.869	-0.181	-0.352
-659.945	-200.000	-0.014	0.208
-658.930	27.724	-0.086	0.073
-657.916	24.707	-0.243	-0.202
-656.901	800.000	-0.041	0.164
-655.886	321.021	0.081	-0.154
-654.872	88.818	0.037	0.041
-653.857	12.501	0.061	0.047
-652.843	158.431	0.052	-0.072
-651.828	349.699	-0.131	0.258
-650.814	800.000	-0.024	0.082
-649.799	-109.143	-0.172	-0.037
-648.784	-138.915	-0.231	-0.025
-647.770	-0.025	0.341	-0.242
-646.755	38.420	0.162	-0.144
-645.741	-200.000	-0.000	0.019
-644.726	397.016	-0.119	0.248
-643.711	61.357	-0.260	0.258
-642.697	134.375	-0.201	-0.261
-641.682	-60.690	-0.249	-0.105
-640.668	209.452	-0.065	0.101
-639.653	-200.000	0.024	-0.147
-638.638	-110.886	0.156	-0.032
-637.624	-200.000	-0.003	-0.186
-636.609	4.957	-0.314	-0.231
-635.595	7.453	0.146	0.109
-634.580	-168.084	0.360	-0.014
-633.565	-192.728	-0.143	-0.001
-632.551	22.391	0.107	0.087
-631.536	-61.401	-0.370	-0.155
-630.522	41.707	-0.317	0.287
-629.507	-25.133	-0.197	-0.116
-628.492	120.439	0.231	0.287
-627.478	800.000	-0.047	-0.156
-626.463	-171.316	0.282	0.009
-625.449	-200.000	0.026	0.135
-624.434	-90.458	-0.446	0.129
-623.419	117.523	0.049	-0.060
-622.405	96.535	0.359	-0.411
-621.390	800.000	-0.046	-0.187
-620.376	-200.000	0.009	-0.543
-619.361	134.839	0.148	-0.192
-618.346	63.033	0.276	0.276
-617.332	-46.681	0.229	-0.112
-616.317	-97.116	-0.079	-0.021
-615.303	800.000	-0.046	0.161
-614.288	-200.000	0.028	-0.281
-613.273	53.183	-0.018	0.018
-612.259	48.010	-0.181	-0.169
-611.244	342.556	-0.170	-0.332
-610.230	88.984	-0.204	0.227
-609.215	-200.000	-0.043	-0.218
-608.201	109.189	-0.027	-0.032
-607.186	-200.000	-0.131	-0.658
-606.171	37.622	0.227	0.201
-605.157	101.502	-0.231	-0.269
-604.142	-111.510	-0.150	-0.030
-603.128	122.742	0.273	-0.340
-602.113	113.097	-0.137	0.166
-601.098	-102.672	-0.146	0.035
-600.084	234.778	0.125	0.206
-599.069	40.787	0.147	-0.132
-598.055	-200.000	0.006	0.037
-597.040	91.283	0.170	0.190
-596.025	76.121	-0.068	-0.072
-595.011	-15.333	0.194	0.124
-593.996	-67.407	-0.128	0.050
-592.982	-200.000	-0.057	0.287
-591.967	-200.000	0.091	0.486
-590.952	575.005	0.026	-0.064
-589.938	-122.784	-0.214	0.035
-588.923	155.963	0.106	0.146
-587.909	-103.994	0.421	-0.098
-586.894	-77.407	-0.196	-0.068
-585.879	800.000	0.035	0.148
-584.865	179.310	-0.179	-0.261
-583.850	482.578	0.231	-0.523
-582.836	20.418	0.048	-0.039
-581.821	-178.366	0.193	-0.004
-580.806	-200.000	-0.043	0.303
-579.792	-103.886	-0.163	-0.038
-578.777	-22.169	-0.172	0.104
-577.763	30.605	0.051	-0.043
-576.748	-195.355	0.116	-0.001
-575.733	-200.000	-0.046	0.325
-574.719	133.345	0.107	-0.138
-573.704	-116.953	-0.175	-0.032
-572.690	-83.875	0.288	-0.091
-571.675	-65.037	0.115	0.046
-570.661	32.555	-0.238	0.205
-569.646	-57.658	0.179	-0.078
-568.631	800.000	0.019	0.079
-567.617	-40.707	0.136	-0.070
-566.602	-200.000	-0.023	-0.206
-565.588	656.337	0.109	-0.279
-564.573	-200.000	-0.009	-0.236
-563.558	-200.000	0.013	-0.423
-562.544	386.430	0.117	-0.241
-561.529	215.819	0.014	-0.022
-560.515	-200.000	0.021	0.225
-559.500	144.323	-0.081	0.108
-558.485	251.132	-0.111	0.188
-557.471	73.136	0.159	0.165
-556.456	800.000	0.127	-0.477
-555.442	-200.000	0.038	0.400
-554.427	109.799	0.055	-0.065
-553.412	-106.398	0.307	0.068
-552.398	191.602	0.049	0.073
-551.383	14.487	0.205	-0.159
-550.369	451.263	-0.175	-0.384
-549.354	27.114	0.151	0.126
-548.339	-200.000	0.033	0.158
-547.325	183.993	0.065	0.095
-546.310	-12.907	0.123	-0.080
-545.296	-90.092	-0.175	0.051
-544.281	-200.000	-0.028	0.241
-543.266	-41.532	-0.208	-0.106
-542.252	-152.199	0.060	0.004
-541.237	296.171	0.129	0.235
-540.223	-120.090	-0.137	0.023
-539.208	-145.350	-0.162	-0.015
-538.193	-124.259	0.185	0.029
-537.179	174.924	0.046	0.066
-536.164	308.120	0.125	-0.233
-535.150	-200.000	-0.034	0.162
-534.135	467.311	-0.148	0.331
-533.121	-104.586	0.016	-0.004
-532.106	161.870	0.105	0.147
-531.091	-102.804	-0.005	0.001
-530.077	-108.756	-0.248	-0.053
-529.062	92.000	-0.186	-0.208
-528.048	-148.769	-0.331	0.027
-527.033	800.000	0.041	-0.113
-526.018	-70.355	-0.225	0.085
-525.004	-82.554	0.296	-0.095
-523.989	557.158	0.102	-0.245
-522.975	-200.000	-0.006	0.074
-521.960	109.530	0.194	0.231
-520.945	31.386	-0.345	0.295
-519.931	-175.236	0.399	-0.011
-518.916	365.840	-0.044	0.089
-517.902	435.060	-0.095	0.206
-516.887	125.620	0.089	-0.112
-515.872	-111.858	-0.188	0.038
-514.858	-80.563	-0.103	0.034
-513.843	-44.455	-0.199	0.099
-512.829	-111.369	-0.237	-0.048
-511.814	-37.652	0.195	-0.103
-510.799	-135.043	0.336	0.040
-509.785	-175.678	-0.171	-0.005
-508.770	-200.000	-0.012	0.294
-507.756	-116.471	0.272	0.050
-506.741	140.022	-0.173	0.227
-505.726	800.000	0.054	-0.161
-504.712	800.000	0.010	-0.034
-503.697	165.369	-0.039	0.055
-502.683	102.586	-0.107	-0.124
-501.668	-94.253	-0.332	-0.090
-500.653	-27.368	-0.256	0.148
-499.639	14.723	-0.226	0.175
-498.624	-25.752	0.035	-0.021
-497.610	-151.764	0.193	0.014
-496.595	800.000	-0.128	-0.376
-495.581	-46.827	0.196	-0.095
-494.566	-119.506	0.272	-0.047
-493.551	-13.542	-0.254	0.164
-492.537	-63.356	0.156	0.064
-491.522	-184.631	-0.471	-0.008
-490.508	-49.274	-0.033	0.016
-489.493	263.879	0.131	0.226
-488.478	800.000	-0.082	-0.349
-487.464	800.000	0.100	0.276
-486.449	-0.545	-0.064	-0.045
-485.435	-70.365	0.108	-0.041
-484.420	-35.819	0.149	-0.080
-483.405	800.000	-0.086	0.239
-482.391	-77.148	-0.132	0.045
-481.376	-113.909	0.145	0.028
-480.362	-44.660	0.455	-0.225
-479.347	537.234	0.086	0.202
-478.332	-11.649	0.079	-0.051
-477.318	-200.000	-0.062	-0.358
-476.303	-200.000	0.361	0.001
-475.289	-104.350	-0.114	0.026
-474.274	1.658	-0.124	0.089
-473.259	-133.930	0.372	-0.046
-472.245	-0.539	-0.320	-0.225
-471.230	-100.301	0.280	-0.069
-470.216	219.429	-0.144	0.229
-469.201	-200.000	0.030	0.262
-468.186	800.000	-0.038	-0.123
-467.172	-36.276	-0.235	0.126
-466.157	-200.000	-0.006	-0.043
-465.143	-12.181	0.155	-0.101
-464.128	1.700	-0.174	0.124
-463.113	-129.459	-0.277	-0.038
-462.099	-40.016	-0.145	-0.075
-461.084	-200.000	0.036	-0.316
-460.070	137.474	-0.352	-0.457
-459.055	-194.690	0.099	0.001
-458.040	-200.000	-0.005	-0.094
-457.026	51.044	0.118	-0.111
-456.011	-117.564	0.249	0.045
-454.997	-27.831	-0.190	0.109
-453.982	-200.000	-0.012	0.080
-452.968	-161.378	-0.295	-0.015
-451.953	-147.600	0.363	-0.030
-450.938	-65.052	-0.089	-0.036
-449.924	175.301	-0.144	-0.206
-448.909	-200.000	0.048	0.407
-447.895	-200.000	0.003	0.102
-446.880	-2.851	0.139	0.096
-445.865	800.000	-0.069	0.270
-444.851	-61.484	0.152	0.063
-443.836	57.948	0.233	-0.226
-442.822	701.374	-0.082	0.215
-441.807	-169.589	-0.162	-0.006
-440.792	-136.219	-0.183	-0.021
-439.778	575.036	0.102	-0.248
-438.763	-200.000	0.017	-0.181
-437.749	-200.000	0.060	-0.393
-436.734	211.435	-0.128	-0.200
-435.719	800.000	0.039	-0.164
-434.705	570.078	-0.115	0.276
-433.690	-200.000	-0.030	0.327
-432.676	-3.715	0.250	-0.172
-431.661	-114.824	-0.069	-0.013
-430.646	181.091	-0.173	-0.253
-429.632	31.925	0.070	0.060
-428.617	131.888	-0.164	0.209
-427.603	-72.912	-0.132	0.048
-426.588	69.811	-0.239	-0.244
-425.573	-168.583	0.117	0.004
-424.559	-6.376	0.241	-0.163
-423.544	-13.833	0.264	0.169
-422.530	150.207	0.073	0.098
-421.515	-68.778	-0.253	0.097
-420.500	-200.000	0.015	-0.239
-419.486	800.000	-0.074	0.300
-418.471	-200.000	-0.004	-0.449
-417.457	91.019	0.131	0.145
-416.442	105.617	0.204	0.238
-415.428	-158.648	-0.221	0.013
-414.413	141.910	0.198	0.260
-413.398	722.041	-0.027	0.071
-412.384	-14.012	-0.151	-0.096
-411.369	-197.182	-0.218	-0.001
-410.355	-54.499	0.154	-0.069
-409.340	-93.175	0.110	-0.030
-408.325	492.121	-0.106	-0.241
-407.311	505.765	0.107	0.245
-406.296	-200.000	0.018	-0.357
-405.282	-129.457	0.225	0.031
-404.267	357.783	-0.118	0.234
-403.252	771.731	0.097	-0.262
-402.238	-16.948	0.374	-0.234
-401.223	800.000	-0.028	0.105
-400.209	453.785	-0.199	-0.436
-399.194	800.000	0.062	-0.239
-398.179	33.295	-0.035	0.030
-397.165	-32.607	-0.454	0.250
-396.150	-60.149	0.197	0.083
-395.136	-200.000	-0.005	0.245
-394.121	-125.954	-0.133	-0.020
-393.106	-38.650	-0.266	-0.139
-392.092	544.138	0.082	0.193
-391.077	128.745	0.146	0.184
-390.063	32.431	-0.146	0.125
-389.048	-54.047	-0.340	-0.153
-388.033	34.678	-0.252	0.218
-387.019	225.502	-0.029	0.047
-386.004	800.000	-0.109	0.437
-384.990	-68.764	0.160	0.061
-383.975	-200.000	-0.010	0.198
-382.960	49.056	0.036	0.034
-381.946	-27.593	-0.227	-0.130
-380.931	61.760	0.113	-0.111
-379.917	-85.458	0.239	-0.074
-378.902	800.000	0.080	-0.321
-377.888	800.000	0.023	-0.079
-376.873	6.593	0.323	0.237
-375.858	-200.000	-0.013	-0.275
-374.844	84.329	0.205	0.222
-373.829	-26.595	0.088	0.051
-372.815	481.937	-0.154	-0.345
-371.800	614.940	0.127	0.314
-370.785	-89.768	-0.476	-0.138
-369.771	-200.000	-0.001	-0.252
-368.756	-186.425	0.259	0.004
-367.742	-120.133	0.483	0.082
-366.727	308.005	0.113	0.209
-365.712	-67.901	-0.192	0.074
-364.698	-85.679	-0.052	0.016
-363.683	-118.425	-0.142	-0.025
-362.669	90.653	0.270	-0.299
-361.654	-143.801	0.207	0.019
-360.639	-200.000	0.003	0.157
-359.625	-139.822	-0.073	-0.008
-358.610	-63.617	0.163	-0.066
-357.596	-18.053	0.200	-0.124
-356.581	-200.000	0.016	-0.246
-355.566	-39.869	0.118	0.061
-354.552	-10.986	-0.117	-0.076
-353.537	-101.211	-0.232	-0.056
-352.523	107.844	-0.147	-0.173
-351.508	334.226	0.125	-0.239
-350.493	-86.970	-0.397	-0.119
-349.479	14.533	0.336	0.259
-348.464	37.066	-0.123	-0.107
-347.450	-200.000	-0.031	-0.134
-346.435	-65.045	-0.112	-0.045
-345.420	-136.638	-0.303	-0.035
-344.406	271.250	-0.126	-0.219
-343.391	105.518	-0.229	0.267
-342.377	-13.055	-0.365	-0.234
-341.362	-159.209	0.366	0.020
-340.348	27.475	0.092	-0.076
-339.333	-47.149	0.260	-0.125
-338.318	7.525	-0.080	-0.059
-337.304	-31.759	-0.259	-0.143
-336.289	-13.916	0.176	-0.112
-335.275	-108.772	-0.180	-0.038
-334.260	-200.000	-0.001	0.066
-333.245	101.332	-0.127	0.146
-332.231	37.474	0.143	0.125
-331.216	547.060	-0.080	0.189
-330.202	-157.237	0.228	0.014
-329.187	134.874	-0.187	-0.240
-328.172	-134.329	0.065	0.008
-327.158	-3.262	-0.183	0.126
-326.143	800.000	0.050	0.176
-325.129	-197.308	-0.124	0.001
-324.114	-172.483	0.013	0.000
-323.099	-200.000	0.060	0.267
-322.085	-157.934	0.171	-0.010
-321.070	-67.100	-0.232	-0.090
-320.056	-64.151	-0.170	0.068
-319.041	-53.590	0.390	0.176
-318.026	-161.005	-0.125	0.006
-317.012	800.000	-0.111	0.399
-315.997	-149.733	-0.129	-0.010
-314.983	-111.726	-0.091	-0.018
-313.968	178.202	-0.066	0.095
-312.953	-21.741	-0.106	-0.064
-311.939	44.986	0.157	0.143
-310.924	-91.965	-0.208	0.058
-309.910	-50.843	-0.088	0.041
-308.895	283.745	0.142	-0.251
-307.880	168.008	0.097	-0.135
-306.866	136.166	-0.024	-0.031
-305.851	-2.495	0.087	0.060
-304.837	136.224	0.113	-0.145
-303.822	133.031	0.159	0.202
-302.807	128.813	-0.242	0.304
-301.793	-43.025	-0.230	0.115
-300.778	507.957	-0.136	0.311
-299.764	-140.797	0.060	-0.006
-298.749	335.077	0.145	0.277
-297.735	-127.821	-0.228	-0.032
-296.720	800.000	-0.086	0.314
-295.705	226.004	0.182	0.291
-294.691	-200.000	0.021	0.197
-293.676	-19.173	-0.134	-0.082
-292.662	-97.529	-0.223	-0.057
-291.647	269.953	-0.164	-0.283
-290.632	-43.280	0.187	0.093
-289.618	-31.253	0.539	-0.299
-288.603	800.000	-0.084	-0.231
-287.589	-168.748	0.210	0.008
-286.574	-200.000	-0.004	0.022
-285.559	-200.000	-0.031	0.304
-284.545	-200.000	-0.018	0.081
-283.530	-128.638	0.217	0.030
-282.516	492.766	-0.108	-0.244
-281.501	800.000	0.051	-0.153
-280.486	-200.000	-0.049	0.210
-279.472	476.544	-0.112	0.249
-278.457	800.000	0.030	-0.115
-277.443	-34.635	-0.217	0.117
-276.428	191.486	-0.140	-0.208
-275.413	-200.000	-0.028	0.264
-274.399	233.742	0.223	-0.361
-273.384	122.646	-0.171	0.211
-272.370	-18.631	-0.204	-0.125
-271.355	-63.312	-0.055	0.022
-270.340	-95.391	0.216	0.057
-269.326	125.314	-0.128	0.159
-268.311	323.597	0.071	0.133
-267.297	246.421	0.211	-0.351
-266.282	-185.373	0.498	-0.008
-265.267	-82.798	0.328	0.104
-264.253	61.242	0.227	0.222
-263.238	-200.000	-0.005	-0.055
-262.224	236.211	0.187	0.305
-261.209	-200.000	0.013	-0.166
-260.195	654.075	-0.106	-0.266
-259.180	-200.000	0.110	0.620
-258.165	180.408	-0.121	0.174
-257.151	99.944	0.102	-0.116
-256.136	115.221	0.188	0.226
-255.122	800.000	-0.073	0.314
-254.107	425.313	0.075	0.158
-253.092	-68.256	0.156	-0.060
-252.078	14.272	0.305	-0.234
-251.063	354.133	0.097	-0.189
-250.049	-138.980	0.351	0.037
-249.034	-84.417	0.342	-0.106
-248.019	-47.092	0.375	0.180
-247.005	800.000	-0.058	-0.196
-245.990	-77.199	-0.129	-0.044
-244.976	-69.939	-0.547	-0.205
-243.961	-7.052	0.347	0.231
-242.946	800.000	-0.073	0.217
-241.932	545.759	0.039	-0.091
-240.917	800.000	0.078	0.244
-239.903	800.000	-0.036	-0.121
-238.888	35.795	0.185	0.160
-237.873	-200.000	-0.047	-0.445
-236.859	135.324	-0.034	-0.043
-235.844	-200.000	-0.026	-0.180
-234.830	-142.422	0.249	-0.024
-233.815	749.933	0.063	-0.166
-232.800	-75.751	-0.222	-0.077
-231.786	-200.000	0.025	-0.552
-230.771	-66.228	-0.447	-0.175
-229.757	75.892	-0.087	-0.091
-228.742	800.000	-0.078	-0.265
-227.727	574.053	-0.129	0.310
-226.713	89.736	0.079	0.087
-225.698	115.799	0.223	-0.269
-224.684	-200.000	0.028	-0.187
-223.669	-131.248	0.310	0.040
-222.655	-200.000	-0.010	-0.118
-221.640	-87.902	0.336	-0.099
-220.625	-18.895	-0.091	0.056
-219.611	4.012	0.236	-0.169
-218.596	800.000	-0.043	-0.156
-217.582	800.000	0.019	0.071
-216.567	-138.009	0.244	-0.027
-215.552	177.001	-0.190	0.271
-214.538	-69.082	-0.251	0.095
-213.523	-82.827	-0.130	0.041
-212.509	-22.451	0.076	-0.045
-211.494	634.461	-0.114	0.285
-210.479	-97.947	0.231	-0.059
-209.465	-111.126	-0.153	0.031
-208.450	-136.676	-0.227	0.026
-207.436	-30.891	0.104	0.058
-206.421	-132.542	-0.052	-0.007
-205.406	54.064	-0.092	0.087
-204.392	-200.000	0.016	-0.107
-203.377	44.998	0.149	0.135
-202.363	53.094	0.307	0.288
-201.348	-95.992	-0.387	0.101
-200.333	187.598	-0.134	0.197
-199.319	-110.067	0.262	0.054
-198.304	320.482	-0.014	0.027
-197.290	372.302	-0.076	0.151
-196.275	-150.765	-0.256	0.019
-195.260	-53.176	-0.101	0.046
-194.246	-38.200	0.202	0.105
-193.231	-200.000	0.002	-0.013
-192.217	-79.830	-0.104	0.034
-191.202	800.000	-0.044	-0.118
-190.187	131.365	0.117	-0.148
-189.173	765.232	-0.104	-0.276
-188.158	-63.459	-0.293	0.118
-187.144	-200.000	0.061	0.298
-186.129	-200.000	-0.012	-0.053
-185.114	176.792	0.091	-0.129
-184.100	395.313	-0.071	0.145
-183.085	-89.910	-0.125	0.036
-182.071	615.409	-0.103	-0.252
-181.056	-200.000	-0.022	-0.300
-180.042	263.475	-0.141	-0.240
-179.027	800.000	0.022	0.066
-178.012	-85.518	0.187	-0.057
-176.998	27.734	-0.113	-0.094
-175.983	43.990	-0.129	0.116
-174.969	512.030	0.167	0.381
-173.954	25.047	-0.143	0.117
-172.939	-65.481	0.242	-0.095
-171.925	405.588	0.084	0.173
-170.910	-56.531	-0.478	0.208
-169.896	619.271	-0.087	-0.216
-168.881	-200.000	-0.002	0.043
-167.866	-200.000	-0.023	0.242
-166.852	573.971	-0.138	0.330
-165.837	-131.167	0.185	0.024
-164.823	-152.104	-0.029	-0.002
-163.808	-21.635	-0.400	-0.239
-162.793	113.083	0.110	0.131
-161.779	-200.000	-0.011	-0.208
-160.764	435.751	-0.086	0.183
-159.750	-200.000	-0.005	0.142
-158.735	121.885	0.130	0.159
-157.720	-12.851	0.308	0.196
-156.706	13.695	0.047	-0.036
-155.691	88.537	-0.250	0.272
-154.677	289.143	-0.057	0.102
-153.662	-105.755	0.111	0.025
-152.647	-100.623	-0.209	-0.051
-151.633	228.819	0.117	-0.187
-150.618	119.101	0.190	-0.231
-149.604	-181.766	-0.436	-0.008
-148.589	21.542	0.128	-0.102
-147.574	-122.433	-0.195	-0.031
-146.560	800.000	-0.074	0.244
-145.545	-104.484	0.251	0.057
-144.531	-200.000	0.018	-0.148
-143.516	487.039	0.017	0.039
-142.502	-48.303	0.270	0.127
-141.487	60.633	0.142	0.138
-140.472	-114.474	0.140	0.026
-139.458	-76.187	0.178	-0.061
-138.443	-4.263	0.058	0.039
-137.429	800.000	-0.020	-0.081
-136.414	-45.751	0.161	-0.078
-135.399	-200.000	0.003	0.142
-134.385	-116.883	-0.172	0.031
-133.370	165.679	-0.079	0.109
-132.356	101.127	0.204	0.233
-131.341	-59.770	0.185	-0.078
-130.326	800.000	0.054	0.189
-129.312	315.881	-0.071	-0.132
-128.297	17.795	-0.150	-0.117
-127.283	-143.613	-0.354	-0.033
-126.268	-123.786	0.515	0.080
-125.253	-108.769	-0.232	0.049
-124.239	-169.343	-0.403	-0.015
-123.224	-135.577	0.174	-0.020
-122.210	3.354	0.079	0.056
-121.195	79.407	-0.086	0.091
-120.180	-114.956	0.202	0.038
-119.166	-89.735	0.379	-0.109
-118.151	-200.000	0.006	0.184
-117.137	57.114	-0.163	0.155
-116.122	-138.375	0.016	-0.002
-115.107	723.175	0.094	-0.244
-114.093	8.615	-0.100	-0.074
-113.078	-149.747	0.122	-0.009
-112.064	-200.000	0.045	0.225
-111.049	800.000	0.060	0.167
-110.034	-200.000	-0.037	-0.186
-109.020	17.250	-0.300	0.233
-108.005	248.027	-0.035	0.058
-106.991	-182.303	0.226	0.004
-105.976	-150.361	-0.221	0.017
-104.962	-74.330	-0.258	-0.091
-103.947	800.000	0.123	0.504
-102.932	-85.934	0.301	-0.091
-101.918	-20.215	0.246	0.148
-100.903	800.000	-0.039	-0.141
-99.889	-159.430	0.335	0.018
-98.874	-97.860	-0.214	0.054
-97.859	-94.766	0.111	-0.029
-96.845	-200.000	0.032	-0.171
-95.830	800.000	0.022	-0.081
-94.816	-200.000	0.006	0.166
-93.801	-200.000	-0.027	-0.156
-92.786	109.505	0.121	-0.142
-91.772	262.610	0.040	0.068
-90.757	-17.453	0.090	-0.056
-89.743	-200.000	-0.023	0.324
-88.728	-70.703	-0.297	0.110
-87.713	-21.566	0.387	-0.230
-86.699	111.906	0.088	0.103
-85.684	-44.883	0.017	0.008
-84.670	426.937	-0.096	-0.202
-83.655	581.816	0.053	0.127
-82.640	-53.733	0.189	-0.084
-81.626	-77.602	0.270	-0.091
-80.611	800.000	0.102	0.427
-79.597	-48.334	0.231	-0.109
-78.582	-200.000	-0.012	0.278
-77.567	-172.410	-0.206	0.006
-76.553	471.651	-0.061	0.135
-75.538	-32.653	0.170	0.092
-74.524	-200.000	0.031	0.188
-73.509	18.743	-0.145	-0.114
-72.494	-122.306	0.329	-0.053
-71.480	256.653	0.051	0.086
-70.465	585.311	-0.085	0.204
-69.451	19.022	-0.153	0.120
-68.436	390.782	0.108	0.220
-67.422	-200.000	0.025	-0.184
-66.407	-200.000	0.033	-0.220
-65.392	-200.000	-0.009	-0.111
-64.378	17.773	0.096	-0.075
-63.363	18.120	0.329	-0.257
-62.349	11.827	0.245	-0.184
-61.334	59.449	-1.359	-1.308
-60.319	89.812	0.602	0.656
-59.305	800.000	-0.347	-1.213
-58.290	212.373	0.881	1.357
-57.276	403.858	0.663	1.363
-56.261	-200.000	115.899	640.225
-55.246	499.372	1539.214	3463.129
-54.232	176.302	2709.518	3841.693
-53.217	103.800	2173.373	2491.867
-52.203	36.995	1688.734	1458.106
-51.188	29.591	1504.246	1248.926
-50.173	27.288	1479.566	1213.048
-49.159	49.502	1539.919	1414.517
-48.144	47.925	1554.623	1417.221
-47.130	29.572	1510.203	1253.542
-46.115	26.569	1494.739	1220.445
-45.100	26.439	1491.108	1216.558
-44.086	26.469	1489.215	1215.169
-43.071	26.300	1487.443	1212.536
-42.057	26.259	1486.014	1211.050
-41.042	26.264	1484.861	1210.101
-40.027	26.340	1483.115	1209.138
-39.013	26.362	1481.341	1207.787
-37.998	26.323	1480.807	1207.046
-36.984	26.328	1479.541	1205.999
-35.969	26.324	1478.397	1204.989
-34.954	26.342	1476.756	1203.727
-33.940	26.336	1475.766	1202.830
-32.925	26.365	1473.888	1201.444
-31.911	26.460	1472.141	1200.604
-30.896	26.372	1471.735	1199.641
-29.881	26.501	1469.920	1198.970
-28.867	26.439	1468.988	1197.752
-27.852	26.397	1467.517	1196.225
-26.838	26.446	1466.246	1195.463
-25.823	26.433	1465.231	1194.506
-24.809	26.494	1462.795	1192.875
-23.794	26.431	1462.030	1191.785
-22.779	26.448	1460.806	1190.853
-21.765	26.384	1459.845	1189.604
-20.750	26.409	1458.825	1188.889
-19.736	26.350	1457.674	1187.513
-18.721	26.424	1456.414	1186.928
-17.706	26.295	1455.792	1185.529
-16.692	26.324	1454.215	1184.389
-15.677	26.441	1452.435	1183.653
-14.663	26.407	1452.107	1183.116
-13.648	26.353	1451.083	1181.884
-12.633	26.365	1450.133	1181.145
-11.619	26.283	1449.513	1180.054
-10.604	26.343	1448.865	1179.871
-9.590	26.312	1447.701	1178.675
-8.575	26.397	1446.717	1178.380
-7.560	26.360	1445.771	1177.324
-6.546	26.375	1445.374	1177.053
-5.531	26.364	1444.564	1176.272
-4.517	26.260	1443.479	1174.667
-3.502	26.445	1442.240	1174.811
-2.487	26.444	1441.179	1173.898
-1.473	26.310	1440.288	1172.257
-0.458	26.333	1439.124	1171.413
0.556	26.488	1429.357	1160.122
1.571	23.633	1404.773	1122.046
2.586	20.273	1345.105	1053.924
3.600	18.660	1263.719	980.854
4.615	17.557	1219.583	940.425
5.629	14.993	1164.169	884.089
6.644	8.631	1083.096	791.079
7.659	3.818	1046.748	741.425
8.673	3.288	1041.408	735.048
9.688	3.181	1038.074	732.121
10.702	3.061	1037.026	730.746
11.717	3.180	1034.570	729.518
12.731	4.887	1035.687	738.333
13.746	11.423	1044.956	776.045
14.761	17.771	1053.354	812.549
15.775	19.618	1054.439	822.110
16.790	19.074	1053.322	818.580
17.804	18.249	1051.238	812.973
18.819	17.287	1049.146	806.721
19.834	16.921	1048.076	804.088
20.848	16.692	1047.665	802.618
21.863	16.660	1046.838	801.763
22.877	16.444	1045.847	799.907
23.892	16.193	1044.908	797.934
24.907	16.142	1044.463	797.281
25.921	16.236	1043.264	796.738
26.936	16.108	1042.851	795.749
27.950	16.211	1041.598	795.206
28.965	16.182	1040.636	794.265
29.980	16.276	1039.624	793.866
30.994	16.459	1038.475	793.776
32.009	16.585	1037.105	793.253
33.023	16.512	1036.927	792.702
34.038	16.576	1035.596	791.916
35.053	16.528	1034.790	791.004
36.067	16.300	1034.032	789.291
37.082	16.296	1032.999	788.412
38.096	16.322	1032.424	788.023
39.111	16.359	1031.765	787.622
40.126	16.471	1030.841	787.372
41.140	16.283	1029.690	785.550
42.155	16.142	1028.215	783.698
43.169	15.988	1027.210	782.147
44.184	15.820	1026.796	780.983
45.199	15.948	1025.025	780.159
46.213	15.966	1024.341	779.655
47.228	16.005	1023.626	779.220
48.242	16.269	1022.622	779.607
49.257	16.284	1021.782	778.968
50.271	16.136	1020.684	777.380
51.286	16.154	1020.140	776.980
52.301	16.268	1019.141	776.672
53.315	16.289	1018.206	775.989
54.330	16.281	1017.174	775.099
55.344	16.093	1016.260	773.469
56.359	16.085	1015.242	772.592
57.374	16.182	1014.567	772.451
58.388	16.054	1013.981	771.353
59.403	16.027	1012.861	770.309
60.417	15.957	1011.856	769.157
61.432	15.968	1011.859	769.142
62.447	15.990	1010.891	768.437
63.461	15.882	1010.003	767.201
64.476	15.931	1009.016	766.608
65.490	15.857	1008.034	765.459
66.505	15.866	1007.280	764.857
67.520	15.915	1006.689	764.563
68.534	15.956	1005.648	763.891
69.549	15.982	1005.080	763.509
70.563	16.015	1004.632	763.253
71.578	15.836	1003.874	761.799
72.593	15.747	1002.804	760.515
73.607	15.774	1001.732	759.757
74.622	15.737	1000.427	758.536
75.636	15.624	999.927	757.579
76.651	15.793	999.279	757.782
77.666	15.757	998.528	756.985
78.680	15.832	997.678	756.608
79.695	15.742	997.530	756.025
80.709	15.889	996.829	756.087
81.724	15.952	995.743	755.478
82.739	15.997	995.153	755.165
83.753	16.189	994.073	755.140
84.768	16.279	993.462	755.011
85.782	16.361	992.836	754.838
86.797	16.587	992.515	755.534
87.812	16.377	991.844	754.018
88.826	16.462	990.346	753.191
89.841	16.289	990.000	752.092
90.855	16.415	988.764	751.646
91.870	16.545	988.040	751.609
92.884	16.597	987.554	751.404
93.899	16.444	987.110	750.318
94.914	16.401	986.440	749.553
95.928	16.536	985.606	749.450
96.943	16.586	984.802	748.993
97.957	16.564	983.662	747.965
98.972	16.527	983.033	747.256
99.987	16.378	982.421	746.068
101.001	16.428	981.652	745.639
102.016	16.532	980.537	745.181
103.030	16.421	980.190	744.364
104.045	16.409	978.908	743.273
105.060	16.460	977.659	742.483
106.074	16.353	976.872	741.350
107.089	16.128	976.418	739.952
108.103	16.002	975.641	738.743
109.118	16.010	974.199	737.621
110.133	15.934	973.560	736.743
111.147	15.902	972.490	735.727
112.162	15.922	971.561	735.044
113.176	16.020	970.530	734.627
114.191	15.980	970.403	734.291
115.206	16.050	969.589	733.918
116.220	16.108	968.242	733.086
117.235	16.013	967.680	732.181
118.249	16.114	966.693	731.808
119.264	16.038	965.806	730.742
120.279	16.024	964.670	729.757
121.293	15.945	964.046	728.879
122.308	15.975	963.299	728.381
123.322	15.774	962.521	726.859
124.337	15.895	961.580	726.606
125.352	15.848	960.519	725.538
126.366	15.897	959.387	724.830
127.381	15.884	957.911	723.592
128.395	15.749	957.624	722.734
129.410	15.836	956.557	722.237
130.424	15.916	955.548	721.754
131.439	15.863	954.892	720.966
132.454	15.927	954.170	720.632
133.468	16.071	953.415	720.615
134.483	16.089	952.903	720.242
135.497	16.024	952.260	719.413
136.512	16.051	951.223	718.683
137.527	15.996	950.495	717.833
138.541	16.037	949.727	717.367
139.556	16.088	949.176	717.102
140.570	16.020	948.661	716.362
141.585	16.161	947.740	716.201
142.600	16.375	947.291	716.706
143.614	16.304	946.946	716.081
144.629	16.519	945.742	716.015
145.643	16.416	945.674	715.468
146.658	16.553	944.246	714.900
147.673	16.353	943.266	713.253
148.687	16.316	942.371	712.357
149.702	16.236	941.243	711.101
150.716	16.268	940.412	710.545
151.731	16.062	939.678	709.064
152.746	16.057	939.114	708.555
153.760	16.299	938.415	708.982
154.775	16.320	937.482	708.299
155.789	16.166	937.323	707.471
156.804	16.338	936.131	707.232
157.819	16.524	935.336	707.344
158.833	16.375	934.902	706.331
159.848	16.539	934.150	706.384
160.862	16.561	933.472	705.902
161.877	16.599	932.552	705.301
162.892	16.390	931.533	703.598
163.906	16.241	930.714	702.298
164.921	16.164	930.106	701.458
165.935	16.133	928.887	700.348
166.950	16.295	927.841	700.170
167.964	16.294	927.532	699.869
168.979	16.274	926.338	698.824
169.994	16.257	925.610	698.140
171.008	16.164	924.739	697.038
172.023	16.378	923.656	697.045
173.037	16.488	923.291	697.159
174.052	16.659	922.309	697.064
175.067	16.527	921.876	696.130
176.081	16.599	920.820	695.566
177.096	16.240	919.859	693.303
178.110	16.342	918.979	692.999
179.125	16.383	918.172	692.497
180.140	16.394	917.674	692.106
181.154	16.388	917.350	691.775
182.169	16.437	916.732	691.449
183.183	16.587	916.611	691.908
184.198	16.546	916.107	691.298
185.213	16.602	915.076	690.689
186.227	16.560	914.334	689.897
187.242	16.639	914.063	689.954
188.256	16.835	912.826	689.755
189.271	16.764	912.497	689.156
190.286	16.922	911.565	689.037
191.300	16.522	910.682	686.682
192.315	16.323	909.781	685.136
193.329	16.170	909.212	684.027
194.344	16.235	908.398	683.615
195.359	16.210	908.403	683.457
196.373	16.535	907.050	683.695
197.388	16.616	907.107	684.004
198.402	16.668	906.526	683.717
199.417	16.847	906.324	684.226
200.432	16.959	905.887	684.288
201.446	16.950	905.781	684.108
202.461	17.094	905.068	684.092
203.475	17.091	904.991	683.959
204.490	17.102	903.865	683.095
205.504	17.002	902.581	681.661
206.519	16.754	902.140	680.273
207.534	16.666	901.525	679.396
208.548	16.855	900.520	679.335
209.563	16.709	900.210	678.453
210.577	16.781	899.163	677.893
211.592	16.874	898.446	677.664
212.607	16.941	898.599	677.987
213.621	17.164	898.082	678.428
214.636	17.119	896.969	677.349
215.650	16.956	896.946	676.620
216.665	17.050	895.726	676.016
217.680	17.077	895.214	675.676
218.694	17.167	894.860	675.710
219.709	17.197	894.341	675.376
220.723	17.196	893.707	674.835
221.738	17.126	892.909	673.891
222.753	17.011	892.557	673.110
223.767	17.043	891.615	672.467
224.782	17.137	890.808	672.173
225.796	17.290	890.173	672.238
226.811	17.318	889.487	671.771
227.826	17.356	888.851	671.380
228.840	17.118	888.274	669.948
229.855	17.002	887.558	668.893
230.869	17.205	886.656	668.951
231.884	17.151	885.823	668.052
232.899	17.117	884.992	667.231
233.913	17.011	884.837	666.638
234.928	16.991	883.990	665.863
235.942	16.829	883.409	664.733
236.957	16.899	882.801	664.490
237.972	17.017	881.848	664.178
238.986	16.879	881.633	663.415
240.001	16.892	881.310	663.167
241.015	16.918	880.530	662.622
242.030	17.214	879.227	662.736
243.045	17.311	878.877	662.792
244.059	17.317	877.997	662.095
245.074	17.289	877.400	661.475
246.088	17.145	877.512	660.941
247.103	17.309	876.757	660.953
248.117	17.270	876.492	660.542
249.132	17.436	875.767	660.580
250.147	17.630	875.145	660.804
251.161	17.735	874.777	660.878
252.176	17.770	874.362	660.640
253.190	17.851	873.425	660.187
254.205	18.041	872.642	660.269
255.220	17.903	872.190	659.338
256.234	17.887	871.544	658.730
257.249	17.974	870.736	658.397
258.263	17.815	870.347	657.431
259.278	17.976	869.466	657.328
260.293	17.801	869.558	656.664
261.307	17.906	868.442	656.167
262.322	18.110	867.797	656.405
263.336	18.143	867.185	656.009
264.351	18.115	866.878	655.612
265.366	18.261	865.782	655.284
266.380	18.004	865.533	654.057
267.395	18.063	864.900	653.743
268.409	18.068	863.822	652.889
269.424	18.075	863.125	652.334
270.439	17.977	862.722	651.598
271.453	17.991	861.660	650.789
272.468	17.922	861.403	650.276
273.482	17.864	860.623	649.409
274.497	17.867	860.168	649.021
275.512	17.922	859.563	648.715
276.526	17.919	858.352	647.734
277.541	17.897	857.920	647.265
278.555	17.876	857.282	646.646
279.570	18.118	856.830	647.167
280.585	18.277	856.405	647.388
281.599	18.327	855.707	646.993
282.614	18.272	855.361	646.466
283.628	18.068	854.823	645.232
284.643	18.028	854.077	644.461
285.657	18.063	853.459	644.068
286.672	17.963	853.195	643.437
287.687	18.145	852.644	643.648
288.701	18.199	852.215	643.470
289.716	18.053	851.631	642.426
290.730	18.223	850.971	642.510
291.745	18.223	850.210	641.876
292.760	18.172	849.398	641.017
293.774	18.226	849.193	641.008
294.789	18.249	848.526	640.532
295.803	18.366	848.001	640.519
296.818	18.260	847.527	639.705
297.833	18.277	846.276	638.771
298.847	18.247	845.555	638.056
299.862	18.168	845.180	637.423
300.876	18.332	844.399	637.387
301.891	18.262	844.059	636.814
302.906	18.420	843.565	636.973
303.920	18.585	842.979	637.086
304.935	18.662	842.140	636.681
305.949	18.641	841.791	636.284
306.964	18.644	841.044	635.676
307.979	18.557	840.540	634.915
308.993	18.497	840.219	634.393
310.008	18.534	839.645	634.041
311.022	18.564	838.940	633.563
312.037	18.550	839.039	633.531
313.052	18.501	838.044	632.544
314.066	18.411	837.280	631.578
315.081	18.212	837.058	630.623
316.095	18.292	836.083	630.124
317.110	18.345	835.701	629.979
318.125	18.540	834.893	630.028
319.139	18.382	834.273	628.927
320.154	18.251	833.850	628.071
321.168	18.353	833.733	628.300
322.183	18.453	832.699	627.833
323.197	18.554	832.034	627.644
324.212	18.442	831.863	627.051
325.227	18.613	831.160	627.091
326.241	18.620	830.652	626.675
327.256	18.429	830.191	625.578
328.270	18.431	829.694	625.154
329.285	18.447	828.923	624.576
330.300	18.331	828.710	623.939
331.314	18.371	827.804	623.344
332.329	18.436	827.396	623.219
333.343	18.567	826.673	623.098
334.358	18.572	826.835	623.181
335.373	18.588	826.223	622.725
336.387	18.724	825.404	622.542
337.402	18.752	824.757	622.101
338.416	18.693	824.454	621.606
339.431	18.882	823.579	621.574
340.446	19.153	822.963	622.035
341.460	19.023	822.546	621.195
342.475	19.068	822.328	621.135
343.489	19.108	822.101	621.054
344.504	19.169	821.139	620.492
345.519	19.270	820.979	620.682
346.533	19.207	820.257	619.852
347.548	19.285	819.574	619.562
348.562	19.254	818.714	618.746
349.577	19.004	818.392	617.549
350.592	18.950	817.485	616.618
351.606	18.882	817.288	616.171
352.621	18.782	816.876	615.446
353.635	18.947	816.302	615.552
354.650	18.954	816.097	615.369
355.665	19.049	815.611	615.288
356.679	19.014	815.368	614.923
357.694	19.216	814.408	614.864
358.708	19.133	814.003	614.210
359.723	19.161	813.381	613.785
360.738	19.171	813.094	613.549
361.752	18.896	812.808	612.299
362.767	19.140	812.362	612.780
363.781	19.137	812.401	612.744
364.796	19.277	811.640	612.614
365.810	19.282	811.087	612.160
366.825	19.444	810.949	612.576
367.840	19.529	810.659	612.606
368.854	19.759	809.912	612.801
369.869	19.354	809.790	611.219
370.883	19.306	809.074	610.457
371.898	19.434	808.353	610.311
372.913	19.442	808.103	610.096
373.927	19.548	807.414	609.896
374.942	19.392	806.655	608.716
375.956	19.454	805.727	608.182
376.971	19.565	805.372	608.250
377.986	19.727	804.819	608.349
379.000	19.779	804.552	608.276
380.015	19.774	804.301	608.014
381.029	19.645	803.399	606.828
382.044	19.716	802.554	606.383
383.059	19.692	801.983	605.816
384.073	19.803	801.861	606.059
385.088	19.665	801.476	605.229
386.102	19.550	800.577	604.097
387.117	19.546	800.037	603.622
388.132	19.368	799.502	602.542
389.146	19.563	799.415	603.105
390.161	19.620	798.899	602.861
391.175	19.484	799.022	602.424
392.190	19.691	798.218	602.486
393.205	19.676	797.584	601.905
394.219	19.613	797.233	601.367
395.234	19.748	796.469	601.206
396.248	19.607	796.112	600.392
397.263	19.419	795.481	599.212
398.278	19.297	795.203	598.526
399.292	19.429	794.437	598.355
400.307	19.292	794.101	597.573
401.321	19.429	793.879	597.829
402.336	19.513	793.602	597.858
403.350	19.514	793.142	597.459
404.365	19.656	792.451	597.377
405.380	19.776	791.773	597.228
406.394	19.874	791.672	597.437
407.409	19.922	791.671	597.550
408.423	19.928	791.105	597.089
409.438	20.092	790.806	597.379
410.453	20.115	790.015	596.807
411.467	20.187	789.253	596.425
412.482	20.124	789.121	596.058
413.496	20.055	789.008	595.680
414.511	20.226	788.679	595.967
415.526	20.174	788.155	595.342
416.540	20.152	787.942	595.052
417.555	20.173	786.865	594.256
418.569	20.083	787.048	594.034
419.584	20.241	786.277	593.942
420.599	20.247	785.729	593.496
421.613	162.149	1371.008	1797.171
422.628	140.316	1456.272	1797.261
