DTS Sentinel unit serial number:	SN413079Multiplexer serial number:	ORYXHardware model number:	OX4-SRSoftware version number:	ORYX F/W v4.00 Oryx Data Collector v3.7.2.0data status	okinstallation	princeton_trtdifferential loss correction	single-endedforward channel	channel 3reverse channel	N/Adate	2019/09/16time	06:24:35forward acquisition time	60.00reverse acquisition time	0.00gamma	496.2192k internal	0.2334k external	0.2334temperature offset calibration	0.9961default loss term (dB/km)	0.3790temperature slope calibration	1.0000multiplexer offset coefficient	1.0000multiplexer slope coefficient	1.0000fibre end	0.00T internal ref (°C)	27.39T ext. ref 1 (°C)	11.35T ext. ref 2 (°C)	21.66length (m)	temperature (°C)	Stokes	anti-Stokes-747.200	-155.396	-0.088	0.006
-746.185	-200.000	-0.080	0.463
-745.171	-200.000	0.007	-0.309
-744.156	-175.573	0.255	-0.007
-743.142	689.558	-0.026	0.069
-742.127	340.827	0.103	0.202
-741.112	-143.338	0.240	-0.023
-740.098	800.000	-0.008	0.025
-739.083	4.640	0.240	-0.177
-738.069	-20.292	-0.191	-0.118
-737.054	85.616	-0.184	0.203
-736.039	192.316	-0.033	-0.050
-735.025	-87.427	0.145	-0.044
-734.010	800.000	0.025	0.079
-732.996	-152.931	-0.231	0.016
-731.981	-50.834	-0.089	-0.042
-730.966	-74.526	0.225	0.081
-729.952	800.000	-0.053	-0.183
-728.937	-157.265	-0.380	-0.023
-727.923	-98.307	-0.179	0.046
-726.908	9.605	-0.078	0.059
-725.894	800.000	-0.100	-0.287
-724.879	5.441	-0.102	-0.076
-723.864	57.003	-0.118	0.115
-722.850	-82.294	0.054	-0.018
-721.835	-163.495	0.321	0.015
-720.821	-18.007	-0.179	0.112
-719.806	-8.505	-0.215	0.145
-718.791	-200.000	-0.017	-0.176
-717.777	-10.586	0.144	0.095
-716.762	-200.000	0.040	0.465
-715.748	62.476	0.157	0.158
-714.733	131.264	0.167	0.216
-713.718	-96.817	0.177	-0.047
-712.704	-99.388	-0.271	-0.069
-711.689	491.352	-0.137	-0.315
-710.675	305.978	0.086	-0.160
-709.660	-200.000	0.004	0.093
-708.645	-71.976	-0.063	0.024
-707.631	15.898	-0.199	-0.158
-706.616	-66.592	0.274	0.109
-705.602	-46.286	0.219	-0.108
-704.587	-74.734	-0.249	-0.090
-703.572	-63.287	-0.152	0.063
-702.558	-16.612	-0.143	0.091
-701.543	168.494	0.134	0.191
-700.529	289.431	-0.060	0.110
-699.514	-168.306	-0.120	0.005
-698.499	800.000	-0.077	0.289
-697.485	-72.627	-0.086	-0.032
-696.470	-200.000	0.020	0.123
-695.456	800.000	0.068	-0.269
-694.441	29.587	0.101	-0.087
-693.426	-161.083	-0.312	0.016
-692.412	-200.000	0.015	-0.258
-691.397	89.069	-0.168	0.188
-690.383	303.584	-0.183	-0.341
-689.368	-200.000	0.004	-0.471
-688.354	179.819	0.084	0.124
-687.339	43.993	0.173	-0.159
-686.324	-200.000	-0.031	-0.273
-685.310	172.433	-0.116	-0.168
-684.295	454.423	-0.156	0.346
-683.281	-43.572	0.146	-0.074
-682.266	-99.667	-0.215	0.054
-681.251	-165.427	-0.430	0.019
-680.237	0.701	-0.199	-0.143
-679.222	-35.185	0.119	-0.065
-678.208	-157.332	0.139	0.008
-677.193	189.950	0.050	0.076
-676.178	32.729	0.222	0.192
-675.164	-69.651	0.055	0.021
-674.149	539.110	-0.106	-0.253
-673.135	800.000	0.109	-0.315
-672.120	61.115	0.155	0.155
-671.105	-0.343	0.151	0.108
-670.091	68.843	0.184	-0.189
-669.076	142.064	0.113	-0.150
-668.062	-102.771	-0.323	0.077
-667.047	116.798	-0.138	0.169
-666.032	800.000	0.056	-0.207
-665.018	453.242	0.011	0.024
-664.003	717.580	-0.043	0.115
-662.989	-23.591	0.446	0.268
-661.974	-112.012	-0.035	0.007
-660.959	-40.488	0.317	0.165
-659.945	-30.759	0.282	0.160
-658.930	-59.961	-0.229	-0.098
-657.916	-99.849	-0.189	-0.047
-656.901	-200.000	-0.035	-0.249
-655.886	403.380	-0.087	-0.183
-654.872	158.799	0.170	-0.237
-653.857	357.559	-0.166	0.332
-652.843	-75.040	0.259	-0.093
-651.828	-171.501	-0.243	-0.008
-650.814	-200.000	-0.029	-0.308
-649.799	-126.058	0.178	0.027
-648.784	800.000	-0.058	0.225
-647.770	-17.316	0.368	-0.232
-646.755	50.148	0.022	0.021
-645.741	-68.302	-0.080	0.031
-644.726	800.000	-0.042	0.157
-643.711	86.303	0.105	-0.116
-642.697	19.345	0.165	-0.133
-641.682	526.677	-0.096	-0.226
-640.668	536.318	0.094	-0.223
-639.653	412.963	0.042	-0.090
-638.638	101.211	-0.124	-0.145
-637.624	49.528	0.059	0.056
-636.609	37.316	-0.071	0.063
-635.595	800.000	-0.112	0.414
-634.580	-77.991	0.113	-0.039
-633.565	-55.267	-0.172	-0.077
-632.551	41.729	-0.207	-0.188
-631.536	32.035	-0.250	-0.216
-630.522	-200.000	-0.006	0.136
-629.507	405.062	0.077	0.162
-628.492	287.904	-0.037	0.067
-627.478	717.852	-0.104	0.276
-626.463	7.972	-0.389	0.292
-625.449	-41.753	0.412	-0.211
-624.434	-93.964	-0.267	-0.073
-623.419	-63.873	0.187	0.077
-622.405	-200.000	0.006	-0.038
-621.390	-95.053	0.061	-0.017
-620.376	-53.524	0.084	0.038
-619.361	4.359	-0.116	0.085
-618.346	195.628	0.142	0.215
-617.332	-200.000	-0.027	-0.163
-616.317	-94.469	-0.131	0.036
-615.303	371.441	-0.249	0.506
-614.288	-150.729	-0.352	0.027
-613.273	800.000	0.098	-0.281
-612.259	31.912	-0.333	-0.287
-611.244	-54.879	-0.207	-0.093
-610.230	-200.000	0.003	0.038
-609.215	62.806	-0.162	0.162
-608.201	317.889	-0.062	-0.117
-607.186	94.816	0.154	0.175
-606.171	-173.365	0.099	0.003
-605.157	270.095	-0.125	-0.219
-604.142	800.000	-0.058	0.234
-603.128	-133.974	-0.433	0.054
-602.113	-200.000	-0.030	0.285
-601.098	584.325	0.030	0.073
-600.084	42.949	-0.064	-0.058
-599.069	11.456	-0.278	-0.213
-598.055	-91.586	0.320	0.091
-597.040	-200.000	0.028	0.185
-596.025	-19.963	0.117	-0.072
-595.011	136.926	-0.314	-0.410
-593.996	108.739	0.155	0.185
-592.982	129.633	0.088	0.112
-591.967	252.775	0.129	-0.219
-590.952	-200.000	-0.002	0.019
-589.938	117.429	-0.109	0.134
-588.923	800.000	0.100	0.403
-587.909	713.434	0.051	0.136
-586.894	-46.093	-0.097	-0.048
-585.879	-66.741	0.192	0.076
-584.865	-200.000	0.013	0.211
-583.850	-145.371	0.170	-0.015
-582.836	-46.638	-0.087	-0.043
-581.821	-200.000	0.017	-0.385
-580.806	-37.250	-0.102	-0.054
-579.792	-72.038	-0.333	0.123
-578.777	-200.000	-0.009	0.081
-577.763	-200.000	0.012	-0.226
-576.748	-23.523	-0.206	-0.124
-575.733	-94.368	-0.239	0.065
-574.719	-8.907	-0.346	0.231
-573.704	-200.000	-0.028	0.162
-572.690	-44.546	0.049	0.025
-571.675	-24.657	-0.131	-0.078
-570.661	10.681	0.144	0.110
-569.646	182.384	-0.094	-0.138
-568.631	-41.736	-0.442	-0.227
-567.617	800.000	0.046	0.198
-566.602	199.921	-0.237	-0.362
-565.588	408.295	-0.126	0.266
-564.573	-40.923	0.126	-0.065
-563.558	157.043	-0.089	0.122
-562.544	-160.134	-0.413	-0.022
-561.529	-173.267	0.406	0.012
-560.515	7.179	-0.021	0.016
-559.500	-36.511	0.242	-0.130
-558.485	-20.124	-0.111	-0.068
-557.471	-35.388	0.229	-0.124
-556.456	-200.000	0.004	0.211
-555.442	-13.575	-0.149	0.096
-554.427	4.976	-0.241	-0.177
-553.412	800.000	0.049	-0.149
-552.398	-27.754	-0.074	0.043
-551.383	18.314	-0.085	-0.067
-550.369	-2.817	0.294	0.205
-549.354	-108.080	0.209	-0.045
-548.339	-89.675	-0.140	0.041
-547.325	-200.000	0.011	0.304
-546.310	800.000	0.043	0.130
-545.296	671.050	0.115	0.296
-544.281	198.647	-0.254	0.387
-543.266	800.000	-0.023	-0.068
-542.252	109.193	-0.189	-0.226
-541.237	-110.954	-0.152	-0.031
-540.223	-50.217	0.487	0.230
-539.208	-75.496	-0.107	0.038
-538.193	251.335	0.121	-0.204
-537.179	-143.706	0.167	0.016
-536.164	10.130	-0.057	0.043
-535.150	-36.166	0.449	-0.242
-534.135	-28.184	-0.399	0.230
-533.121	18.087	0.024	-0.019
-532.106	-151.372	0.131	0.010
-531.091	281.964	-0.117	-0.209
-530.077	283.854	-0.154	0.276
-529.062	281.764	-0.160	0.285
-528.048	286.924	0.167	0.301
-527.033	-128.678	0.092	-0.013
-526.018	174.245	0.103	-0.148
-525.004	800.000	0.088	-0.305
-523.989	693.736	0.057	-0.149
-522.975	-92.980	-0.062	0.017
-521.960	-200.000	0.026	0.130
-520.945	-23.195	-0.091	-0.054
-519.931	254.891	0.208	-0.354
-518.916	-200.000	0.023	0.431
-517.902	32.432	-0.237	0.204
-516.887	-42.217	0.289	0.147
-515.872	30.898	0.114	0.097
-514.858	12.532	0.033	0.025
-513.843	800.000	0.023	-0.090
-512.829	800.000	-0.065	0.186
-511.814	-200.000	-0.042	-0.259
-510.799	-1.295	-0.093	-0.065
-509.785	-124.558	0.068	-0.010
-508.770	-174.316	-0.231	-0.007
-507.756	-29.413	0.254	-0.145
-506.741	-200.000	-0.011	-0.200
-505.726	-78.580	-0.021	-0.007
-504.712	800.000	-0.123	-0.465
-503.697	800.000	0.108	0.349
-502.683	-120.731	-0.275	0.046
-501.668	-68.847	0.214	-0.082
-500.653	155.668	-0.191	0.261
-499.639	-200.000	-0.009	0.222
-498.624	-33.150	0.017	-0.009
-497.610	800.000	-0.061	-0.231
-496.595	-143.543	-0.224	-0.021
-495.581	57.549	0.271	-0.264
-494.566	48.112	-0.228	0.213
-493.551	302.624	0.159	-0.294
-492.537	79.075	-0.095	0.102
-491.522	-123.360	-0.243	0.039
-490.508	22.463	0.261	-0.212
-489.493	800.000	-0.065	0.234
-488.478	800.000	-0.049	-0.177
-487.464	800.000	0.155	-0.573
-486.449	-122.383	0.127	-0.021
-485.435	8.039	-0.012	0.009
-484.420	128.312	-0.127	0.160
-483.405	800.000	-0.127	-0.382
-482.391	800.000	0.028	-0.104
-481.376	78.676	-0.115	0.122
-480.362	-85.055	0.325	0.101
-479.347	-51.820	-0.340	-0.158
-478.332	85.897	-0.241	-0.264
-477.318	-76.649	0.163	-0.057
-476.303	-200.000	0.010	-0.138
-475.289	-42.429	-0.223	0.113
-474.274	-200.000	-0.012	-0.062
-473.259	800.000	-0.009	-0.033
-472.245	-88.779	-0.309	-0.091
-471.230	207.756	-0.193	-0.300
-470.216	38.672	-0.097	0.086
-469.201	7.516	0.062	0.046
-468.186	-108.259	-0.155	-0.033
-467.172	70.322	-0.230	-0.236
-466.157	800.000	0.089	-0.273
-465.143	800.000	0.058	0.220
-464.128	-101.778	0.227	-0.055
-463.113	100.208	0.169	0.195
-462.099	-127.559	-0.332	-0.048
-461.084	-162.806	0.274	0.013
-460.070	-124.271	0.198	-0.031
-459.055	-200.000	0.026	-0.208
-458.040	-59.975	-0.176	0.075
-457.026	-189.126	-0.219	-0.003
-456.011	-2.974	-0.451	0.313
-454.997	-200.000	0.003	-0.068
-453.982	-200.000	-0.053	-0.352
-452.968	19.345	0.431	0.344
-451.953	69.094	-0.051	0.052
-450.938	-71.986	0.270	-0.100
-449.924	38.417	0.100	-0.089
-448.909	123.674	-0.151	0.188
-447.895	232.740	-0.043	0.070
-446.880	-99.417	-0.111	0.028
-445.865	-111.850	-0.404	-0.081
-444.851	16.105	-0.120	0.094
-443.836	70.059	-0.195	-0.200
-442.822	427.432	-0.175	-0.375
-441.807	47.629	0.148	-0.137
-440.792	-94.672	0.163	0.044
-439.778	73.305	0.187	0.194
-438.763	800.000	0.056	0.187
-437.749	-37.442	-0.144	0.077
-436.734	-200.000	-0.056	-0.261
-435.719	-200.000	0.030	0.216
-434.705	556.290	-0.095	-0.228
-433.690	10.564	0.314	-0.238
-432.676	-161.490	0.138	0.007
-431.661	-40.700	0.218	-0.112
-430.646	800.000	0.069	-0.259
-429.632	-200.000	-0.017	-0.287
-428.617	800.000	0.086	-0.356
-427.603	-44.813	0.237	0.117
-426.588	355.105	0.108	0.213
-425.573	-49.955	0.217	-0.102
-424.559	45.206	0.089	0.082
-423.544	-131.939	-0.170	-0.022
-422.530	55.781	-0.082	0.079
-421.515	-95.096	0.131	0.035
-420.500	-141.746	-0.095	-0.009
-419.486	-200.000	-0.003	0.046
-418.471	-200.000	-0.019	0.112
-417.457	48.702	0.088	-0.082
-416.442	-15.475	0.127	-0.081
-415.428	-200.000	0.006	-0.103
-414.413	-93.560	-0.285	-0.078
-413.398	-17.790	0.246	-0.153
-412.384	-39.816	0.212	-0.110
-411.369	53.318	0.124	-0.118
-410.355	263.611	0.210	0.361
-409.340	369.975	0.010	-0.019
-408.325	-149.627	-0.115	0.009
-407.311	-200.000	-0.048	-0.332
-406.296	-133.073	-0.252	-0.032
-405.282	407.390	0.052	-0.109
-404.267	568.639	-0.100	-0.241
-403.252	-114.678	-0.128	0.024
-402.238	675.915	0.083	0.214
-401.223	-165.618	-0.349	0.015
-400.209	77.760	0.184	-0.194
-399.194	579.208	0.067	-0.163
-398.179	311.646	-0.151	-0.280
-397.165	228.620	-0.019	-0.031
-396.150	-200.000	0.055	-0.421
-395.136	-33.059	0.160	-0.088
-394.121	428.178	0.071	-0.152
-393.106	90.797	0.008	0.009
-392.092	1.093	-0.377	0.268
-391.077	-89.971	0.218	0.063
-390.063	203.397	-0.181	0.278
-389.048	-200.000	0.043	0.247
-388.033	-36.225	0.157	0.084
-387.019	132.553	0.217	0.277
-386.004	-106.177	0.364	-0.081
-384.990	-109.376	0.013	-0.003
-383.975	-46.699	-0.037	-0.018
-382.960	-170.790	-0.158	0.005
-381.946	20.395	-0.073	-0.058
-380.931	-93.799	-0.259	0.071
-379.917	156.331	-0.172	0.236
-378.902	-46.064	0.119	0.058
-377.888	-152.148	0.195	-0.014
-376.873	-130.331	0.162	-0.022
-375.858	142.796	0.260	-0.342
-374.844	800.000	-0.041	-0.115
-373.829	-200.000	-0.061	-0.318
-372.815	-73.065	-0.274	-0.100
-371.800	800.000	-0.068	0.279
-370.785	-37.035	-0.302	0.160
-369.771	-200.000	0.011	0.062
-368.756	-24.662	0.318	-0.187
-367.742	-47.104	0.135	0.065
-366.727	179.370	0.126	-0.182
-365.712	-60.142	-0.135	-0.057
-364.698	-77.695	0.515	0.176
-363.683	-200.000	0.023	0.437
-362.669	-128.287	-0.247	0.035
-361.654	800.000	0.037	-0.133
-360.639	37.479	-0.115	0.101
-359.625	58.355	-0.081	0.079
-358.610	380.082	0.070	0.143
-357.596	-57.697	0.243	-0.105
-356.581	-30.347	-0.406	0.228
-355.566	96.835	0.192	0.218
-354.552	409.839	-0.147	0.309
-353.537	265.600	-0.012	0.021
-352.523	-76.155	-0.172	0.060
-351.508	-20.622	0.193	-0.117
-350.493	-62.204	0.298	-0.123
-349.479	50.858	0.262	-0.245
-348.464	124.287	0.114	-0.142
-347.450	-200.000	-0.048	0.485
-346.435	-142.183	0.498	-0.049
-345.420	451.471	-0.057	-0.124
-344.406	-160.588	0.484	-0.026
-343.391	-42.077	-0.186	0.094
-342.377	-133.457	-0.215	0.027
-341.362	18.285	-0.468	0.369
-340.348	-150.346	0.201	0.015
-339.333	199.084	-0.195	0.295
-338.318	99.102	0.148	-0.170
-337.304	-200.000	0.056	0.315
-336.289	-150.975	0.287	0.021
-335.275	-67.400	0.111	-0.043
-334.260	-187.882	-0.056	-0.001
-333.245	654.286	0.082	0.209
-332.231	800.000	0.054	-0.149
-331.216	-200.000	0.041	-0.346
-330.202	-15.390	-0.211	-0.134
-329.187	-77.871	-0.242	0.083
-328.172	-200.000	0.065	-0.314
-327.158	73.756	0.167	-0.173
-326.143	-108.663	-0.129	-0.027
-325.129	-74.585	-0.386	0.137
-324.114	627.038	0.123	0.308
-323.099	800.000	-0.034	0.094
-322.085	-118.457	0.316	0.055
-321.070	-200.000	-0.061	-0.392
-320.056	129.630	0.113	-0.142
-319.041	-200.000	-0.068	0.320
-318.026	77.253	-0.111	-0.117
-317.012	-103.604	0.554	-0.129
-315.997	-57.998	-0.130	-0.056
-314.983	6.500	0.118	0.087
-313.968	-67.231	-0.182	-0.071
-312.953	-91.098	-0.204	0.058
-311.939	51.708	-0.120	0.113
-310.924	79.719	-0.090	0.096
-309.910	663.008	0.173	-0.440
-308.895	800.000	-0.030	-0.110
-307.880	-54.017	-0.412	0.185
-306.866	-19.813	0.239	0.146
-305.851	-121.528	0.127	0.021
-304.837	-200.000	-0.014	0.163
-303.822	800.000	-0.012	0.038
-302.807	800.000	-0.019	-0.060
-301.793	720.896	-0.047	-0.123
-300.778	-200.000	0.001	0.026
-299.764	41.271	-0.354	0.316
-298.749	-14.262	0.111	0.071
-297.735	-55.993	-0.029	0.013
-296.720	-103.491	-0.080	0.019
-295.705	-177.551	-0.321	0.008
-294.691	-1.489	-0.237	-0.165
-293.676	-78.972	-0.274	-0.092
-292.662	209.307	-0.084	-0.129
-291.647	-125.673	0.338	0.051
-290.632	-181.861	-0.114	-0.002
-289.618	-122.200	-0.335	-0.054
-288.603	64.821	0.334	-0.332
-287.589	800.000	-0.080	-0.344
-286.574	-69.600	-0.085	0.032
-285.559	-36.905	0.289	-0.153
-284.545	-75.170	-0.342	-0.121
-283.530	-200.000	0.004	0.216
-282.516	-169.452	0.027	-0.001
-281.501	-200.000	0.021	-0.196
-280.486	334.020	0.117	-0.223
-279.472	800.000	0.040	0.149
-278.457	156.742	0.327	-0.446
-277.443	716.506	-0.041	-0.107
-276.428	-80.294	-0.289	0.095
-275.413	-200.000	-0.009	0.239
-274.399	55.902	0.152	-0.146
-273.384	274.793	-0.029	-0.050
-272.370	576.986	0.106	0.255
-271.355	-135.629	0.355	-0.042
-270.340	-82.543	0.338	-0.108
-269.326	-103.019	0.320	-0.075
-268.311	-139.355	0.494	-0.052
-267.297	307.045	-0.191	-0.351
-266.282	800.000	-0.048	0.198
-265.267	-1.015	0.078	-0.055
-264.253	-200.000	0.155	-0.001
-263.238	800.000	-0.030	0.128
-262.224	-200.000	0.053	-0.254
-261.209	800.000	0.077	-0.224
-260.195	-128.142	-0.128	0.018
-259.180	-35.522	-0.295	0.158
-258.165	359.327	-0.059	-0.116
-257.151	264.014	-0.196	0.337
-256.136	-200.000	0.053	0.248
-255.122	126.104	-0.118	0.147
-254.107	307.871	0.185	-0.341
-253.092	-144.141	0.264	-0.024
-252.078	-88.510	-0.522	-0.153
-251.063	211.812	0.078	-0.121
-250.049	800.000	-0.168	0.620
-249.034	-40.254	0.095	-0.049
-248.019	-35.869	-0.119	-0.063
-247.005	-200.000	0.055	0.260
-245.990	-39.286	-0.058	0.030
-244.976	-89.050	-0.363	0.106
-243.961	-136.057	0.241	0.028
-242.946	-17.229	0.207	0.128
-241.932	603.721	-0.154	0.379
-240.917	93.162	-0.138	0.154
-239.903	5.438	0.117	0.085
-238.888	-148.460	-0.090	0.007
-237.873	331.138	0.113	-0.215
-236.859	130.423	-0.126	0.160
-235.844	22.809	0.147	-0.119
-234.830	189.279	-0.135	0.199
-233.815	800.000	0.087	0.254
-232.800	165.591	-0.065	0.090
-231.786	-89.605	0.122	-0.035
-230.771	-42.629	0.315	0.158
-229.757	-84.215	0.059	0.018
-228.742	392.180	0.110	0.225
-227.727	-122.299	-0.133	0.021
-226.713	-200.000	-0.004	-0.048
-225.698	-1.222	0.160	0.111
-224.684	54.135	0.187	-0.177
-223.669	-164.690	-0.048	0.002
-222.655	-200.000	0.045	0.225
-221.640	2.888	-0.208	0.149
-220.625	-110.197	0.445	0.091
-219.611	66.789	0.128	-0.128
-218.596	-52.950	0.189	-0.086
-217.582	-45.195	0.203	0.099
-216.567	263.199	-0.137	-0.234
-215.552	-200.000	0.008	-0.213
-214.538	-200.000	-0.007	0.124
-213.523	-51.580	0.244	-0.112
-212.509	-48.977	-0.074	0.035
-211.494	-10.972	-0.174	0.113
-210.479	290.850	-0.131	0.235
-209.465	-131.136	-0.036	-0.005
-208.450	52.867	0.101	0.095
-207.436	-200.000	0.021	0.328
-206.421	800.000	-0.094	-0.255
-205.406	260.682	0.055	-0.094
-204.392	492.472	-0.137	0.309
-203.377	-200.000	0.006	0.428
-202.363	211.178	0.175	-0.272
-201.348	65.209	-0.192	-0.191
-200.333	-87.010	-0.209	-0.063
-199.319	147.617	0.208	-0.276
-198.304	800.000	-0.116	-0.361
-197.290	401.582	0.061	0.127
-196.275	800.000	-0.012	0.043
-195.260	-63.026	-0.276	0.112
-194.246	800.000	-0.083	0.262
-193.231	90.844	0.166	0.184
-192.217	420.925	0.055	0.115
-191.202	676.494	-0.171	0.438
-190.187	-74.278	0.035	-0.012
-189.173	-86.728	-0.017	0.005
-188.158	-5.006	-0.131	0.089
-187.144	25.208	0.442	0.361
-186.129	-95.478	-0.168	0.044
-185.114	76.899	-0.214	0.223
-184.100	20.043	0.215	0.171
-183.085	-17.523	0.268	-0.166
-182.071	133.032	0.130	0.165
-181.056	-122.196	-0.053	0.009
-180.042	15.876	0.111	-0.086
-179.027	138.583	0.225	-0.290
-178.012	70.164	0.106	-0.108
-176.998	243.837	-0.024	-0.040
-175.983	411.096	0.078	0.163
-174.969	-82.133	0.319	-0.102
-173.954	-200.000	0.023	0.225
-172.939	800.000	-0.012	0.038
-171.925	103.686	-0.088	-0.101
-170.910	26.173	0.350	-0.287
-169.896	-200.000	-0.021	-0.344
-168.881	351.381	0.072	0.141
-167.866	800.000	0.114	-0.309
-166.852	-200.000	0.005	0.077
-165.837	-19.091	0.181	0.110
-164.823	57.690	0.242	-0.233
-163.808	97.673	0.122	0.138
-162.793	-152.312	-0.146	-0.010
-161.779	323.259	0.112	-0.209
-160.764	-90.170	-0.251	-0.072
-159.750	128.304	-0.338	-0.423
-158.735	756.711	-0.033	0.087
-157.720	-200.000	0.006	0.407
-156.706	76.461	-0.040	-0.042
-155.691	-93.566	0.375	0.102
-154.677	-8.268	0.024	-0.016
-153.662	-200.000	-0.017	0.289
-152.647	84.380	-0.354	-0.380
-151.633	525.847	-0.069	-0.160
-150.618	288.397	0.137	-0.244
-149.604	-146.160	-0.221	-0.019
-148.589	-156.440	0.088	-0.005
-147.574	-200.000	-0.009	0.103
-146.560	193.737	-0.114	0.169
-145.545	70.391	-0.152	-0.154
-144.531	-161.230	0.368	0.019
-143.516	800.000	-0.130	0.560
-142.502	-200.000	0.014	0.355
-141.487	-200.000	0.006	-0.105
-140.472	1.136	0.258	-0.182
-139.458	-200.000	-0.006	-0.190
-138.443	490.894	0.064	0.144
-137.429	-34.953	-0.228	-0.122
-136.414	-200.000	0.031	-0.201
-135.399	-122.981	0.306	0.048
-134.385	706.571	-0.048	0.125
-133.370	-200.000	0.041	0.315
-132.356	125.918	-0.081	0.100
-131.341	800.000	-0.047	0.197
-130.326	-200.000	-0.047	-0.270
-129.312	194.239	-0.093	0.138
-128.297	276.384	-0.088	-0.154
-127.283	359.670	0.061	-0.119
-126.268	437.042	0.255	-0.544
-125.253	800.000	-0.063	-0.255
-124.239	-18.185	0.315	0.194
-123.224	-115.685	-0.190	-0.035
-122.210	-8.477	-0.154	0.101
-121.195	394.798	0.126	-0.257
-120.180	536.344	-0.142	-0.330
-119.166	-61.686	0.199	-0.082
-118.151	299.461	-0.055	-0.100
-117.137	105.756	-0.066	0.077
-116.122	-154.374	-0.303	-0.020
-115.107	96.026	-0.120	0.134
-114.093	217.767	-0.083	0.129
-113.078	-117.678	-0.238	-0.042
-112.064	-116.803	-0.408	0.073
-111.049	-87.532	-0.231	0.068
-110.034	-200.000	0.014	0.069
-109.020	-200.000	0.116	-0.513
-108.005	-138.731	-0.164	-0.018
-106.991	-200.000	-0.012	-0.158
-105.976	52.098	-0.126	0.118
-104.962	-200.000	-0.046	-0.216
-103.947	-155.677	-0.299	0.019
-102.932	99.927	-0.175	-0.199
-101.918	-200.000	0.043	0.298
-100.903	-153.725	0.185	-0.012
-99.889	-65.742	0.133	0.052
-98.874	-29.344	0.179	0.101
-97.859	-70.783	0.285	0.106
-96.845	285.930	0.123	0.217
-95.830	102.154	0.048	-0.055
-94.816	-90.866	0.176	0.050
-93.801	-114.643	0.129	-0.024
-92.786	-62.645	-0.289	-0.117
-91.772	-130.858	-0.200	-0.026
-90.757	800.000	0.112	-0.451
-89.743	624.246	-0.161	-0.398
-88.728	101.601	0.086	0.098
-87.713	192.974	-0.106	0.156
-86.699	-104.214	0.189	-0.043
-85.684	-200.000	-0.016	0.137
-84.670	-200.000	-0.028	-0.133
-83.655	134.207	0.247	-0.313
-82.640	800.000	0.059	-0.171
-81.626	-3.030	0.245	0.167
-80.611	66.190	-0.121	0.120
-79.597	-92.255	-0.099	-0.027
-78.582	-75.166	-0.121	-0.042
-77.567	-67.288	0.117	0.045
-76.553	117.418	0.227	0.273
-75.538	-58.453	-0.230	0.098
-74.524	-200.000	-0.003	0.118
-73.509	5.150	0.146	-0.105
-72.494	-200.000	0.026	0.135
-71.480	505.529	0.036	-0.082
-70.465	71.721	-0.103	-0.104
-69.451	17.438	-0.164	-0.128
-68.436	67.382	-0.124	-0.124
-67.422	4.440	0.040	0.029
-66.407	-200.000	0.027	-0.211
-65.392	208.160	-0.204	-0.312
-64.378	236.101	0.086	-0.139
-63.363	90.518	-0.143	-0.157
-62.349	-200.000	0.027	0.327
-61.334	118.933	-0.893	-1.080
-60.319	2.664	0.619	0.439
-59.305	303.948	-0.669	-1.213
-58.290	544.211	0.490	1.144
-57.276	275.011	0.813	1.410
-56.261	-200.000	114.213	643.724
-55.246	464.615	1512.909	3309.857
-54.232	146.747	2679.640	3523.119
-53.217	102.654	2178.389	2493.174
-52.203	37.775	1706.004	1482.247
-51.188	30.454	1523.874	1273.965
-50.173	28.237	1499.126	1238.249
-49.159	52.862	1556.486	1455.825
-48.144	51.262	1572.192	1459.461
-47.130	30.771	1528.570	1279.871
-46.115	27.712	1513.360	1246.222
-45.100	27.477	1510.044	1241.845
-44.086	27.472	1508.374	1240.387
-43.071	27.365	1506.376	1237.965
-42.057	27.289	1504.888	1236.181
-41.042	27.317	1503.459	1235.145
-40.027	27.454	1501.436	1234.362
-39.013	27.286	1500.496	1232.403
-37.998	27.272	1499.588	1231.513
-36.984	27.393	1497.682	1230.719
-35.969	27.426	1496.415	1229.849
-34.954	27.304	1495.544	1228.264
-33.940	27.417	1493.665	1227.433
-32.925	27.316	1492.446	1225.699
-31.911	27.344	1491.283	1224.885
-30.896	27.411	1489.777	1224.053
-29.881	27.478	1488.242	1223.190
-28.867	27.440	1487.192	1222.028
-27.852	27.470	1486.251	1221.407
-26.838	27.389	1484.519	1219.387
-25.823	27.479	1482.685	1218.436
-24.809	27.420	1481.501	1217.023
-23.794	27.387	1480.195	1215.677
-22.779	27.449	1478.862	1214.950
-21.765	27.361	1477.781	1213.426
-20.750	27.479	1476.490	1213.105
-19.736	27.444	1475.550	1212.052
-18.721	27.431	1474.673	1211.199
-17.706	27.451	1473.342	1210.189
-16.692	27.429	1472.423	1209.239
-15.677	27.478	1471.196	1208.510
-14.663	27.373	1470.506	1207.197
-13.648	27.406	1469.564	1206.595
-12.633	27.409	1468.981	1206.089
-11.619	27.392	1468.194	1205.284
-10.604	27.409	1467.292	1204.605
-9.590	27.354	1466.132	1203.243
-8.575	27.255	1465.707	1202.192
-7.560	27.428	1464.547	1202.332
-6.546	27.362	1463.561	1201.038
-5.531	27.375	1462.617	1200.307
-4.517	27.351	1461.870	1199.485
-3.502	27.356	1460.592	1198.426
-2.487	27.412	1460.024	1198.276
-1.473	27.371	1458.852	1196.996
-0.458	27.418	1457.145	1195.861
0.556	25.916	1447.347	1184.399
1.571	22.833	1422.936	1144.368
2.586	19.439	1362.938	1074.911
3.600	18.028	1280.373	1001.438
4.615	16.843	1235.780	959.770
5.629	16.392	1182.186	915.619
6.644	14.028	1106.867	845.202
7.659	11.729	1073.045	807.958
8.673	11.381	1068.331	802.624
9.688	11.376	1064.698	799.798
10.702	11.304	1063.553	798.515
11.717	11.329	1061.282	796.860
12.731	12.168	1060.992	800.669
13.746	14.544	1064.106	814.564
14.761	17.004	1066.852	828.625
15.775	17.839	1066.579	832.411
16.790	17.090	1065.044	827.491
17.804	15.925	1062.533	819.799
18.819	15.073	1060.811	814.255
19.834	14.623	1058.936	810.559
20.848	14.158	1058.464	807.871
21.863	14.170	1057.330	806.991
22.877	13.723	1056.683	804.260
23.892	13.737	1055.392	803.272
24.907	13.572	1054.400	801.649
25.921	13.533	1054.322	801.330
26.936	13.700	1053.066	801.112
27.950	13.602	1052.357	800.030
28.965	13.721	1051.277	799.709
29.980	13.748	1050.027	798.816
30.994	13.740	1049.116	798.013
32.009	13.955	1047.875	798.033
33.023	13.800	1047.411	796.864
34.038	14.000	1046.156	796.801
35.053	13.872	1045.226	795.406
36.067	13.858	1044.488	794.708
37.082	13.666	1043.554	793.007
38.096	13.668	1043.136	792.632
39.111	13.906	1042.331	793.084
40.126	13.904	1041.048	792.032
41.140	13.733	1039.948	790.308
42.155	13.534	1039.507	788.956
43.169	13.553	1038.555	788.256
44.184	13.677	1037.102	787.672
45.199	13.577	1036.177	786.424
46.213	13.561	1035.334	785.639
47.228	13.605	1034.160	784.888
48.242	13.740	1033.218	784.741
49.257	13.744	1032.150	783.880
50.271	13.665	1031.447	782.903
51.286	13.736	1030.434	782.398
52.301	13.842	1029.353	782.009
53.315	13.723	1028.861	781.007
54.330	13.676	1028.533	780.466
55.344	13.704	1027.096	779.437
56.359	13.680	1025.774	778.255
57.374	13.645	1025.063	777.480
58.388	13.510	1024.577	776.409
59.403	13.560	1023.267	775.581
60.417	13.532	1022.746	774.986
61.432	13.451	1022.387	774.271
62.447	13.556	1021.346	773.904
63.461	13.455	1020.775	772.932
64.476	13.438	1019.376	771.724
65.490	13.489	1018.311	771.084
66.505	13.467	1017.539	770.330
67.520	13.489	1017.112	770.041
68.534	13.555	1016.161	769.563
69.549	13.507	1015.492	768.763
70.563	13.585	1014.415	768.242
71.578	13.471	1014.190	767.475
72.593	13.392	1013.090	766.209
73.607	13.514	1011.653	765.618
74.622	13.505	1011.029	765.038
75.636	13.445	1010.382	764.200
76.651	13.445	1009.402	763.395
77.666	13.456	1008.910	763.005
78.680	13.335	1008.464	762.043
79.695	13.450	1007.684	761.915
80.709	13.430	1007.035	761.266
81.724	13.397	1006.352	760.529
82.739	13.555	1005.236	760.342
83.753	13.578	1004.618	759.914
84.768	13.701	1003.616	759.653
85.782	13.741	1003.109	759.384
86.797	13.808	1002.383	759.074
87.812	13.829	1001.222	758.223
88.826	13.669	1000.764	757.080
89.841	13.635	1000.033	756.305
90.855	13.783	998.678	755.886
91.870	13.716	998.117	755.090
92.884	13.781	997.756	755.046
93.899	13.837	996.818	754.526
94.914	13.874	995.762	753.825
95.928	13.949	994.996	753.520
96.943	13.973	994.246	752.995
97.957	13.925	993.407	752.074
98.972	13.920	992.298	751.147
99.987	13.764	991.970	750.124
101.001	13.742	991.702	749.758
102.016	13.819	990.628	749.229
103.030	13.760	989.501	748.044
104.045	13.865	988.369	747.593
105.060	13.817	987.633	746.756
106.074	13.811	986.411	745.736
107.089	13.899	985.141	745.106
108.103	13.680	984.576	743.632
109.118	13.652	984.084	743.068
110.133	13.550	983.062	741.772
111.147	13.596	982.465	741.463
112.162	13.483	982.004	740.542
113.176	13.695	980.559	740.338
114.191	13.686	979.941	739.764
115.206	13.430	979.729	738.398
116.220	13.665	978.048	738.110
117.235	13.634	977.117	737.205
118.249	13.749	976.050	736.844
119.264	13.700	975.463	736.119
120.279	13.621	974.631	735.078
121.293	13.675	974.076	734.834
122.308	13.589	973.517	733.966
123.322	13.627	972.399	733.225
124.337	13.635	971.264	732.339
125.352	13.459	970.177	730.676
126.366	13.493	969.223	730.047
127.381	13.556	967.737	729.139
128.395	13.533	966.980	728.402
129.410	13.611	965.762	727.765
130.424	13.594	964.942	727.006
131.439	13.624	964.438	726.692
132.454	13.538	963.727	725.716
133.468	13.728	962.919	725.878
134.483	13.676	962.489	725.261
135.497	13.688	961.612	724.588
136.512	13.596	960.834	723.537
137.527	13.821	959.803	723.678
138.541	13.657	959.011	722.300
139.556	13.614	958.764	721.863
140.570	13.625	957.867	721.171
141.585	13.767	957.157	721.190
142.600	13.850	956.486	720.981
143.614	13.880	955.757	720.498
144.629	13.930	954.930	720.029
145.643	13.911	954.664	719.684
146.658	13.861	953.691	718.667
147.673	13.902	952.460	717.856
148.687	13.846	951.722	716.994
149.702	13.680	950.812	715.525
150.716	13.694	950.091	714.982
151.731	13.638	949.429	714.180
152.746	13.772	948.283	713.831
153.760	13.699	948.044	713.272
154.775	13.852	946.747	712.891
155.789	13.952	946.029	712.716
156.804	13.866	945.816	712.125
157.819	13.914	944.351	711.165
158.833	13.924	943.881	710.791
159.848	14.011	943.535	710.840
160.862	14.032	942.452	710.051
161.877	13.948	941.926	709.232
162.892	13.819	941.125	708.017
163.906	13.933	939.943	707.551
164.921	13.844	939.382	706.685
165.935	13.784	938.514	705.717
166.950	13.866	937.338	705.117
167.964	13.966	936.205	704.628
168.979	13.970	935.403	703.975
169.994	13.890	934.479	702.881
171.008	13.907	934.064	702.579
172.023	13.947	932.881	701.798
173.037	14.027	932.460	701.753
174.052	14.053	931.362	700.974
175.067	14.092	930.755	700.622
176.081	14.106	929.858	699.943
177.096	13.975	929.287	698.902
178.110	13.959	928.376	698.086
179.125	13.932	928.058	697.671
180.140	13.978	927.299	697.233
181.154	13.958	926.362	696.383
182.169	13.972	925.792	695.950
183.183	14.083	925.360	696.030
184.198	14.144	924.058	695.244
185.213	14.022	923.529	694.273
186.227	14.177	923.021	694.478
187.242	14.284	922.551	694.511
188.256	14.346	921.459	693.884
189.271	14.296	920.653	693.010
190.286	14.349	920.517	693.063
191.300	14.167	919.496	691.477
192.315	14.055	918.787	690.418
193.329	14.060	917.771	689.616
194.344	13.946	917.601	688.952
195.359	13.970	916.426	688.110
196.373	14.185	916.067	688.670
197.388	14.175	915.600	688.216
198.402	14.250	915.268	688.215
199.417	14.337	914.666	688.061
200.432	14.372	914.177	687.775
201.446	14.463	913.603	687.658
202.461	14.500	913.264	687.498
203.475	14.610	912.603	687.392
204.490	14.661	911.971	687.063
205.504	14.463	911.539	685.862
206.519	14.499	910.403	685.095
207.534	14.300	910.153	684.029
208.548	14.319	909.155	683.294
209.563	14.350	908.469	682.848
210.577	14.396	907.867	682.525
211.592	14.369	907.444	682.034
212.607	14.573	906.323	681.965
213.621	14.499	906.210	681.519
214.636	14.508	905.057	680.625
215.650	14.557	904.822	680.591
216.665	14.683	903.997	680.424
217.680	14.634	903.689	679.930
218.694	14.603	903.416	679.538
219.709	14.680	902.450	679.066
220.723	14.694	901.444	678.304
221.738	14.798	901.358	678.605
222.753	14.766	900.290	677.608
223.767	14.699	899.235	676.483
224.782	14.692	898.485	675.831
225.796	14.852	897.855	675.944
226.811	14.804	897.421	675.364
227.826	14.771	896.631	674.578
228.840	14.770	895.871	673.942
229.855	14.761	895.427	673.511
230.869	14.671	895.098	672.842
231.884	14.736	893.975	672.199
232.899	14.823	893.230	671.928
233.913	14.729	892.768	671.144
234.928	14.730	892.228	670.682
235.942	14.615	891.454	669.581
236.957	14.696	890.605	669.209
237.972	14.840	889.523	668.913
238.986	14.748	889.488	668.460
240.001	14.824	888.674	668.091
241.015	14.736	888.222	667.342
242.030	14.798	887.576	667.046
243.045	14.877	886.705	666.647
244.059	14.859	886.282	666.196
245.074	14.887	885.255	665.477
246.088	14.989	884.239	665.060
247.103	14.972	884.135	664.858
248.117	14.940	883.815	664.429
249.132	14.980	883.124	664.010
250.147	15.243	882.585	664.590
251.161	15.226	881.743	663.828
252.176	15.048	881.726	663.054
253.190	15.392	880.382	663.344
254.205	15.298	879.875	662.531
255.220	15.413	878.912	662.203
256.234	15.395	878.825	662.007
257.249	15.375	877.782	661.083
258.263	15.375	877.499	660.811
259.278	15.319	876.707	659.938
260.293	15.366	876.616	659.993
261.307	15.411	875.884	659.562
262.322	15.443	875.375	659.247
263.336	15.410	874.986	658.765
264.351	15.472	874.176	658.339
265.366	15.472	873.370	657.675
266.380	15.626	872.233	657.364
267.395	15.511	871.933	656.628
268.409	15.390	871.329	655.643
269.424	15.471	870.469	655.255
270.439	15.505	869.717	654.764
271.453	15.552	869.021	654.365
272.468	15.450	868.739	653.697
273.482	15.606	867.724	653.482
274.497	15.576	867.503	653.139
275.512	15.495	866.567	652.062
276.526	15.404	866.148	651.339
277.541	15.498	864.957	650.749
278.555	15.483	864.872	650.567
279.570	15.548	864.533	650.507
280.585	15.637	863.800	650.244
281.599	15.761	863.101	650.140
282.614	15.623	862.066	648.770
283.628	15.594	862.145	648.657
284.643	15.479	861.805	647.901
285.657	15.668	860.858	647.863
286.672	15.646	860.528	647.472
287.687	15.619	860.026	646.930
288.701	15.644	859.626	646.668
289.716	15.806	858.427	646.332
290.730	15.783	858.367	646.143
291.745	15.799	857.451	645.458
292.760	15.846	856.678	644.997
293.774	15.813	855.966	644.280
294.789	15.912	855.578	644.310
295.803	15.908	855.054	643.843
296.818	15.825	854.374	642.954
297.833	15.935	853.499	642.661
298.847	15.742	853.386	641.783
299.862	15.813	852.642	641.435
300.876	15.847	851.672	640.781
301.891	15.935	851.055	640.593
302.906	15.914	850.543	640.073
303.920	16.077	849.646	639.959
304.935	16.143	848.816	639.527
305.949	16.144	848.581	639.297
306.964	16.014	848.078	638.368
307.979	16.078	847.430	638.068
308.993	16.009	847.297	637.650
310.008	16.231	846.509	637.840
311.022	16.198	846.174	637.406
312.037	16.175	845.623	636.849
313.052	16.191	845.074	636.438
314.066	16.256	844.323	636.061
315.081	16.042	843.478	634.562
316.095	16.020	843.043	634.097
317.110	16.192	842.363	634.174
318.125	15.944	842.359	633.184
319.139	16.128	841.643	633.281
320.154	16.104	841.207	632.806
321.168	16.084	840.553	632.184
322.183	16.098	840.043	631.797
323.197	16.312	839.547	632.168
324.212	16.278	838.812	631.431
325.227	16.227	838.596	631.023
326.241	16.294	837.755	630.585
327.256	16.103	837.566	629.672
328.270	16.269	836.773	629.639
329.285	16.214	836.302	629.024
330.300	16.236	835.754	628.637
331.314	16.271	835.283	628.360
332.329	16.182	834.489	627.375
333.343	16.324	834.018	627.495
334.358	16.425	832.901	626.972
335.373	16.449	832.857	626.973
336.387	16.389	832.256	626.243
337.402	16.363	831.821	625.762
338.416	16.479	831.013	625.531
339.431	16.568	830.595	625.490
340.446	16.556	829.981	624.926
341.460	16.657	829.393	624.803
342.475	16.579	829.259	624.357
343.489	16.731	828.528	624.313
344.504	16.657	827.835	623.462
345.519	16.856	827.087	623.578
346.533	16.913	826.562	623.333
347.548	16.804	826.336	622.709
348.562	16.691	825.960	621.954
349.577	16.595	825.692	621.347
350.592	16.669	824.963	621.013
351.606	16.534	824.714	620.277
352.621	16.557	824.053	619.808
353.635	16.831	823.323	620.207
354.650	16.533	823.231	618.993
355.665	16.647	822.997	619.178
356.679	16.814	821.907	618.915
357.694	16.777	821.575	618.473
358.708	16.751	820.913	617.827
359.723	16.763	820.419	617.445
360.738	16.736	819.719	616.765
361.752	16.719	819.523	616.501
362.767	16.838	818.901	616.411
363.781	16.841	819.064	616.489
364.796	16.944	818.218	616.174
365.810	16.868	818.086	615.743
366.825	16.842	817.844	615.410
367.840	17.161	817.167	616.005
368.854	17.015	817.004	615.296
369.869	17.069	816.394	614.979
370.883	16.992	815.467	613.949
371.898	17.010	814.973	613.589
372.913	17.051	814.199	613.100
373.927	17.352	813.610	613.687
374.942	17.056	812.950	612.069
375.956	17.173	812.824	612.340
376.971	17.135	812.072	611.582
377.986	17.230	811.174	611.194
379.000	17.237	811.017	611.046
380.015	17.288	810.537	610.813
381.029	17.215	809.890	610.010
382.044	17.288	809.091	609.617
383.059	17.216	808.762	609.057
384.073	17.295	808.277	608.920
385.088	17.218	807.984	608.370
386.102	17.310	806.959	607.874
387.117	17.215	806.623	607.227
388.132	17.163	806.061	606.563
389.146	17.237	805.762	606.550
390.161	17.194	805.402	606.071
391.175	17.245	805.302	606.126
392.190	17.223	804.914	605.701
393.205	17.296	804.593	605.667
394.219	17.297	804.016	605.183
395.234	17.430	803.385	605.124
396.248	17.324	802.869	604.307
397.263	17.341	802.113	603.745
398.278	17.393	801.744	603.598
399.292	17.143	801.459	602.443
400.307	17.333	801.155	602.836
401.321	17.231	800.263	601.751
402.336	17.310	800.148	601.891
403.350	17.333	799.634	601.531
404.365	17.381	799.421	601.487
405.380	17.505	798.662	601.302
406.394	17.480	798.611	601.122
407.409	17.553	798.096	600.937
408.423	17.689	797.492	600.907
409.438	17.577	797.084	600.156
410.453	17.524	797.065	599.899
411.467	17.719	795.969	599.707
412.482	17.708	795.677	599.395
413.496	17.939	795.107	599.726
414.511	17.832	794.858	599.108
415.526	17.936	794.532	599.176
416.540	17.733	794.517	598.398
417.555	17.752	793.883	597.934
418.569	17.882	793.044	597.703
419.584	17.899	792.503	597.303
420.599	17.798	792.345	596.778
421.613	111.485	1293.113	1475.408
422.628	95.832	1366.061	1475.496
