DTS Sentinel unit serial number:	SN413079Multiplexer serial number:	ORYXHardware model number:	OX4-SRSoftware version number:	ORYX F/W v4.00 Oryx Data Collector v3.7.2.0data status	okinstallation	princeton_trtdifferential loss correction	single-endedforward channel	channel 3reverse channel	N/Adate	2019/09/15time	07:52:35forward acquisition time	60.00reverse acquisition time	0.00gamma	496.2192k internal	0.2324k external	0.2324temperature offset calibration	0.9983default loss term (dB/km)	0.3790temperature slope calibration	1.0000multiplexer offset coefficient	1.0000multiplexer slope coefficient	1.0000fibre end	0.00T internal ref (°C)	30.69T ext. ref 1 (°C)	4.97T ext. ref 2 (°C)	25.93length (m)	temperature (°C)	Stokes	anti-Stokes-747.200	-19.533	-0.074	0.046
-746.185	53.479	-0.247	0.239
-745.171	800.000	0.062	-0.174
-744.156	-200.000	-0.004	0.099
-743.142	-90.783	0.226	-0.066
-742.127	272.217	0.087	0.154
-741.112	97.278	-0.191	0.221
-740.098	97.391	-0.083	-0.097
-739.083	741.636	0.046	0.126
-738.069	-160.714	-0.251	-0.013
-737.054	-54.758	-0.150	-0.068
-736.039	-88.653	-0.386	0.116
-735.025	-43.751	0.285	-0.145
-734.010	-162.049	-0.455	-0.023
-732.996	-26.295	0.112	-0.066
-731.981	-49.255	0.378	0.182
-730.966	61.878	0.142	-0.142
-729.952	66.998	-0.108	0.111
-728.937	-129.182	-0.330	0.046
-727.923	401.351	-0.062	0.130
-726.908	-71.715	-0.467	0.176
-725.894	-101.339	-0.111	0.027
-724.879	-147.909	0.171	-0.014
-723.864	97.277	0.127	-0.147
-722.850	3.951	-0.166	-0.123
-721.835	-200.000	-0.002	-0.233
-720.821	-5.185	0.206	0.143
-719.806	373.014	-0.080	-0.164
-718.791	-93.996	0.117	0.032
-717.777	-200.000	-0.005	-0.094
-716.762	-118.719	-0.293	-0.052
-715.748	-200.000	-0.020	-0.318
-714.733	-200.000	-0.038	-0.167
-713.718	-25.086	0.311	0.186
-712.704	557.768	-0.152	0.370
-711.689	-104.228	-0.163	0.038
-710.675	-83.585	-0.131	0.042
-709.660	-44.008	-0.265	0.134
-708.645	-124.637	0.288	0.045
-707.631	58.881	-0.129	0.128
-706.616	-71.322	0.037	0.014
-705.602	5.606	-0.099	0.074
-704.587	-120.599	-0.290	0.049
-703.572	-97.448	-0.239	-0.063
-702.558	-37.930	-0.184	0.098
-701.543	692.748	0.058	-0.154
-700.529	-200.000	-0.005	0.131
-699.514	43.317	0.254	-0.234
-698.499	-200.000	-0.028	0.164
-697.485	-102.884	-0.204	-0.049
-696.470	-115.388	-0.245	-0.046
-695.456	-33.982	0.091	0.051
-694.441	656.872	-0.051	0.132
-693.426	88.836	-0.115	0.128
-692.412	-200.000	-0.038	0.370
-691.397	-118.280	-0.066	-0.012
-690.383	800.000	-0.093	-0.405
-689.368	37.189	0.039	0.035
-688.354	-41.927	0.161	-0.083
-687.339	37.954	-0.279	-0.250
-686.324	-137.667	-0.469	-0.053
-685.310	-55.639	0.204	-0.092
-684.295	-10.035	-0.074	0.049
-683.281	244.858	-0.087	-0.148
-682.266	104.269	-0.063	0.074
-681.251	-200.000	0.027	0.384
-680.237	-89.261	0.242	0.072
-679.222	33.461	0.136	-0.119
-678.208	-158.147	0.247	-0.015
-677.193	-8.388	0.035	-0.023
-676.178	-35.097	-0.237	0.130
-675.164	-121.949	-0.342	-0.057
-674.149	-200.000	0.101	-0.466
-673.135	-80.556	-0.191	0.064
-672.120	116.407	-0.141	0.174
-671.105	45.777	0.225	-0.209
-670.091	-91.477	-0.282	-0.081
-669.076	-200.000	-0.039	-0.271
-668.062	-52.720	-0.129	0.060
-667.047	-37.952	-0.134	0.071
-666.032	-71.137	0.129	0.049
-665.018	-200.000	0.002	-0.362
-664.003	82.196	0.221	-0.242
-662.989	236.752	-0.033	-0.055
-661.974	181.377	-0.106	-0.157
-660.959	-99.479	0.112	-0.028
-659.945	-142.844	0.367	-0.036
-658.930	99.355	-0.126	0.146
-657.916	-95.521	0.283	0.076
-656.901	775.525	-0.100	0.274
-655.886	-51.000	-0.208	-0.098
-654.872	119.457	-0.021	0.026
-653.857	-49.674	-0.200	0.096
-652.843	-94.899	-0.364	0.099
-651.828	-200.000	-0.016	0.336
-650.814	9.467	-0.325	0.248
-649.799	-200.000	-0.020	-0.167
-648.784	-200.000	0.019	-0.280
-647.770	130.342	-0.115	-0.148
-646.755	-53.774	0.132	0.060
-645.741	-87.187	0.186	0.057
-644.726	33.014	-0.191	0.167
-643.711	-200.000	0.007	-0.212
-642.697	-74.192	0.332	-0.121
-641.682	-115.208	0.093	0.018
-640.668	-200.000	-0.027	-0.188
-639.653	-50.191	0.034	0.016
-638.638	294.390	0.071	0.131
-637.624	-97.936	-0.343	0.089
-636.609	800.000	-0.030	-0.109
-635.595	30.503	-0.039	0.034
-634.580	-75.363	-0.154	-0.055
-633.565	111.998	0.233	-0.283
-632.551	407.410	0.047	-0.099
-631.536	800.000	-0.135	-0.416
-630.522	254.956	-0.127	0.219
-629.507	66.762	0.143	-0.147
-628.492	-67.099	-0.368	-0.146
-627.478	-200.000	-0.020	0.171
-626.463	-200.000	0.026	-0.211
-625.449	715.014	0.102	-0.271
-624.434	-46.419	0.356	-0.175
-623.419	-5.537	0.109	-0.075
-622.405	309.693	0.204	-0.382
-621.390	331.476	0.093	-0.180
-620.376	-24.704	0.182	0.108
-619.361	-200.000	0.006	-0.149
-618.346	-32.391	-0.090	-0.050
-617.332	-73.462	0.265	-0.097
-616.317	77.432	-0.290	0.310
-615.303	-200.000	-0.014	0.105
-614.288	308.583	0.204	-0.382
-613.273	-200.000	0.034	0.176
-612.259	70.655	-0.278	0.289
-611.244	-107.791	-0.421	0.092
-610.230	401.276	0.097	0.205
-609.215	118.658	-0.143	-0.177
-608.201	800.000	0.108	-0.302
-607.186	217.895	0.190	-0.304
-606.171	-200.000	-0.005	0.195
-605.157	32.013	0.140	-0.121
-604.142	-101.034	-0.193	-0.047
-603.128	198.986	-0.140	-0.215
-602.113	800.000	0.057	0.171
-601.098	-82.366	-0.077	-0.025
-600.084	-200.000	-0.021	-0.174
-599.069	59.005	-0.069	-0.068
-598.055	-11.322	-0.253	0.168
-597.040	-147.530	-0.165	0.014
-596.025	-44.848	0.225	0.113
-595.011	-71.039	-0.103	0.039
-593.996	-1.445	-0.129	0.091
-592.982	120.130	-0.095	-0.118
-591.967	-17.810	-0.279	0.176
-590.952	-171.367	0.279	-0.009
-589.938	-136.989	-0.135	-0.016
-588.923	26.436	0.136	-0.114
-587.909	705.682	-0.066	-0.175
-586.894	6.811	-0.070	-0.052
-585.879	122.700	0.058	0.073
-584.865	800.000	-0.055	-0.194
-583.850	795.789	-0.023	0.063
-582.836	-16.741	-0.054	0.034
-581.821	184.679	0.209	-0.311
-580.806	-39.669	-0.069	-0.036
-579.792	57.786	0.214	-0.210
-578.777	800.000	-0.027	0.083
-577.763	-152.779	-0.032	0.002
-576.748	-85.666	-0.120	0.037
-575.733	-13.664	-0.485	0.315
-574.719	4.757	-0.279	-0.206
-573.704	800.000	0.105	-0.346
-572.690	175.160	0.132	0.191
-571.675	800.000	0.073	-0.269
-570.661	-47.198	0.204	0.100
-569.646	431.304	-0.153	-0.332
-568.631	-94.288	0.225	0.062
-567.617	171.441	-0.057	0.082
-566.602	-10.189	-0.125	-0.083
-565.588	-200.000	-0.001	0.167
-564.573	510.789	-0.073	-0.171
-563.558	-156.127	-0.088	0.006
-562.544	132.540	0.107	0.138
-561.529	-44.012	-0.101	-0.051
-560.515	483.159	0.065	0.149
-559.500	172.794	-0.049	-0.071
-558.485	12.380	-0.033	0.026
-557.471	136.133	-0.117	-0.153
-556.456	-38.493	0.099	-0.053
-555.442	49.510	-0.191	0.180
-554.427	-34.748	-0.114	0.062
-553.412	-93.944	0.241	-0.066
-552.398	778.709	0.087	0.237
-551.383	-186.860	0.347	-0.005
-550.369	800.000	0.042	0.163
-549.354	800.000	-0.040	0.160
-548.339	46.013	0.151	-0.140
-547.325	308.655	0.075	-0.139
-546.310	535.206	0.041	-0.097
-545.296	108.010	-0.099	0.118
-544.281	107.027	0.178	-0.212
-543.266	800.000	0.058	0.210
-542.252	126.840	0.160	0.203
-541.237	-21.970	-0.108	0.066
-540.223	297.395	-0.096	0.176
-539.208	187.506	-0.071	-0.106
-538.193	800.000	0.118	-0.340
-537.179	241.936	0.126	0.211
-536.164	800.000	-0.026	0.100
-535.150	-200.000	-0.034	0.385
-534.135	25.267	-0.199	-0.165
-533.121	-44.431	0.166	-0.083
-532.106	-75.009	0.399	-0.143
-531.091	-59.084	-0.201	-0.087
-530.077	221.603	-0.113	-0.181
-529.062	263.123	0.065	0.113
-528.048	800.000	-0.060	0.246
-527.033	-129.078	-0.143	-0.020
-526.018	800.000	0.050	-0.164
-525.004	-88.620	-0.317	-0.094
-523.989	87.482	0.102	-0.113
-522.975	7.700	0.249	-0.187
-521.960	262.395	-0.177	0.308
-520.945	-200.000	-0.011	0.414
-519.931	800.000	0.064	0.201
-518.916	-54.937	0.390	0.176
-517.902	121.591	-0.132	0.165
-516.887	-16.323	0.127	0.081
-515.872	-48.266	-0.162	0.078
-514.858	7.833	-0.229	0.172
-513.843	115.678	-0.128	0.157
-512.829	800.000	0.049	0.205
-511.814	437.970	0.140	0.305
-510.799	-99.466	0.187	0.047
-509.785	12.001	0.109	-0.084
-508.770	206.741	-0.078	-0.122
-507.756	148.677	-0.308	0.416
-506.741	-100.881	0.255	-0.063
-505.726	-50.018	0.252	0.120
-504.712	1.763	-0.032	0.023
-503.697	363.448	0.107	-0.215
-502.683	148.438	0.348	-0.470
-501.668	18.806	-0.057	-0.046
-500.653	-74.529	0.053	-0.019
-499.639	-92.940	0.122	0.034
-498.624	29.438	-0.336	-0.285
-497.610	-200.000	-0.030	-0.206
-496.595	109.375	-0.129	-0.155
-495.581	-200.000	0.002	-0.148
-494.566	107.393	0.093	-0.111
-493.551	800.000	-0.039	-0.111
-492.537	-52.823	-0.119	-0.055
-491.522	326.281	0.071	-0.136
-490.508	14.538	0.164	0.128
-489.493	-200.000	-0.253	-0.001
-488.478	-200.000	-0.003	-0.150
-487.464	-20.297	-0.135	-0.083
-486.449	-33.209	-0.131	0.073
-485.435	-64.636	0.249	0.101
-484.420	-125.023	-0.185	-0.028
-483.405	-59.803	-0.273	-0.117
-482.391	48.311	-0.123	-0.115
-481.376	-55.933	-0.036	0.016
-480.362	613.728	-0.125	-0.312
-479.347	-115.689	0.255	-0.048
-478.332	38.154	-0.125	-0.111
-477.318	224.565	0.062	0.100
-476.303	800.000	-0.158	0.505
-475.289	-110.939	-0.144	-0.030
-474.274	191.517	0.167	-0.252
-473.259	240.074	0.069	0.114
-472.245	-68.109	-0.192	-0.075
-471.230	-200.000	0.052	0.257
-470.216	800.000	0.020	0.071
-469.201	341.872	-0.144	0.282
-468.186	212.892	-0.191	0.301
-467.172	122.272	-0.377	0.470
-466.157	-92.419	-0.373	-0.105
-465.143	800.000	0.046	0.167
-464.128	-13.823	0.158	0.102
-463.113	-9.469	-0.106	-0.071
-462.099	-200.000	-0.026	-0.362
-461.084	507.466	0.101	-0.235
-460.070	800.000	0.052	-0.171
-459.055	800.000	-0.053	0.199
-458.040	78.065	0.134	0.143
-457.026	-200.000	-0.013	-0.225
-456.011	-104.639	-0.132	0.030
-454.997	800.000	0.033	-0.113
-453.982	51.652	0.086	0.081
-452.968	-200.000	0.031	0.290
-451.953	800.000	0.050	0.179
-450.938	-148.149	-0.336	0.028
-449.924	-200.000	0.017	0.104
-448.909	654.760	0.052	-0.133
-447.895	323.075	-0.190	0.361
-446.880	800.000	-0.030	-0.105
-445.865	-93.453	-0.123	0.034
-444.851	-200.000	-0.007	-0.241
-443.836	26.800	0.044	0.037
-442.822	141.019	-0.249	-0.329
-441.807	-99.438	-0.068	-0.017
-440.792	-200.000	0.035	-0.251
-439.778	-22.975	0.189	-0.114
-438.763	-69.345	0.174	0.067
-437.749	-66.308	-0.127	-0.051
-436.734	66.728	-0.249	0.252
-435.719	-126.237	0.176	0.026
-434.705	291.883	0.161	0.291
-433.690	112.485	-0.139	0.167
-432.676	-13.389	0.393	0.254
-431.661	156.029	-0.131	0.180
-430.646	88.398	-0.188	-0.208
-429.632	461.489	0.065	-0.145
-428.617	-1.800	-0.048	-0.034
-427.603	412.867	0.076	0.160
-426.588	738.939	0.038	-0.101
-425.573	800.000	-0.037	0.155
-424.559	462.660	0.070	0.157
-423.544	-200.000	0.021	0.152
-422.530	548.001	-0.118	-0.281
-421.515	800.000	-0.031	0.097
-420.500	181.347	0.074	-0.108
-419.486	-146.245	0.101	0.009
-418.471	-153.803	0.417	-0.029
-417.457	15.172	-0.288	-0.225
-416.442	-31.316	0.243	0.136
-415.428	124.342	-0.255	-0.320
-414.413	-200.000	0.028	-0.362
-413.398	293.622	-0.037	0.067
-412.384	18.904	-0.066	-0.053
-411.369	-47.773	0.313	0.151
-410.355	108.519	-0.140	0.167
-409.340	-200.000	0.031	0.326
-408.325	60.903	-0.165	0.163
-407.311	154.650	0.259	0.354
-406.296	-74.129	0.049	0.018
-405.282	800.000	-0.094	-0.270
-404.267	20.026	-0.165	-0.132
-403.252	-86.056	0.112	-0.034
-402.238	800.000	-0.026	-0.096
-401.223	800.000	0.074	0.252
-400.209	118.430	-0.100	-0.123
-399.194	609.593	-0.114	0.283
-398.179	-115.835	-0.392	0.073
-397.165	-200.000	-0.253	0.001
-396.150	-146.988	0.109	0.009
-395.136	-94.795	-0.078	0.021
-394.121	3.760	0.326	0.237
-393.106	217.766	0.184	-0.293
-392.092	-49.003	-0.358	0.171
-391.077	-200.000	-0.015	-0.121
-390.063	164.716	0.231	0.325
-389.048	-28.089	0.143	0.082
-388.033	-200.000	-0.012	-0.085
-387.019	8.914	-0.071	0.054
-386.004	-200.000	0.008	0.135
-384.990	-63.032	-0.151	0.062
-383.975	4.665	-0.109	-0.079
-382.960	800.000	0.051	0.173
-381.946	623.389	0.172	-0.431
-380.931	-36.551	-0.090	-0.048
-379.917	-121.507	-0.372	-0.061
-378.902	-128.782	-0.132	0.018
-377.888	41.355	0.046	0.042
-376.873	36.599	-0.276	-0.242
-375.858	-200.000	-0.004	0.253
-374.844	-79.062	0.494	-0.167
-373.829	-28.219	-0.390	-0.224
-372.815	-46.754	0.165	0.081
-371.800	260.682	0.186	0.319
-370.785	-97.071	-0.286	0.074
-369.771	189.104	0.075	0.112
-368.756	173.798	-0.072	0.103
-367.742	-45.206	0.219	0.108
-366.727	105.582	0.189	0.222
-365.712	-135.340	-0.245	0.029
-364.698	52.240	-0.218	-0.206
-363.683	800.000	-0.075	-0.219
-362.669	800.000	0.012	-0.037
-361.654	189.780	0.128	0.191
-360.639	-200.000	0.012	-0.087
-359.625	-200.000	-0.003	0.016
-358.610	101.232	0.180	0.208
-357.596	-29.117	-0.108	0.061
-356.581	-92.291	0.301	-0.084
-355.566	-200.000	0.001	0.317
-354.552	198.875	-0.155	0.237
-353.537	395.792	0.064	-0.132
-352.523	-4.384	-0.179	-0.123
-351.508	-106.241	-0.227	0.050
-350.493	-14.730	-0.112	-0.071
-349.479	178.321	-0.168	0.244
-348.464	-200.000	0.028	0.362
-347.450	800.000	-0.081	0.298
-346.435	198.092	0.048	0.073
-345.420	-9.868	0.187	0.124
-344.406	-68.571	-0.154	0.059
-343.391	800.000	-0.038	0.134
-342.377	-200.000	0.009	0.109
-341.362	-113.685	0.416	0.081
-340.348	-30.798	0.497	-0.279
-339.333	-135.458	-0.211	-0.025
-338.318	176.658	0.109	0.158
-337.304	-119.555	0.282	0.049
-336.289	475.195	-0.072	-0.162
-335.275	-200.000	-0.030	0.381
-334.260	-126.247	0.197	-0.029
-333.245	80.133	-0.211	-0.225
-332.231	-62.788	-0.394	0.162
-331.216	-149.766	0.367	0.029
-330.202	-50.691	0.619	-0.290
-329.187	-200.000	0.025	0.258
-328.172	55.900	0.183	0.176
-327.158	25.631	-0.165	0.136
-326.143	340.193	-0.040	-0.078
-325.129	800.000	-0.036	0.129
-324.114	-45.354	-0.101	-0.050
-323.099	146.338	-0.147	0.196
-322.085	800.000	-0.043	0.165
-321.070	156.586	0.154	0.212
-320.056	283.329	-0.081	-0.144
-319.041	86.942	-0.072	0.079
-318.026	-200.000	-0.002	0.102
-317.012	-157.245	0.202	0.012
-315.997	-129.092	-0.264	-0.037
-314.983	-129.153	-0.482	0.067
-313.968	58.005	-0.174	0.169
-312.953	800.000	0.034	0.127
-311.939	-6.231	0.073	-0.050
-310.924	-200.000	-0.016	0.270
-309.910	70.975	-0.075	-0.078
-308.895	-0.210	0.335	-0.237
-307.880	-58.043	-0.248	-0.107
-306.866	-133.148	0.115	0.014
-305.851	-200.000	0.049	-0.260
-304.837	-200.000	0.014	0.155
-303.822	159.624	0.023	0.032
-302.807	43.822	-0.214	0.195
-301.793	800.000	0.090	-0.353
-300.778	-200.000	-0.063	-0.338
-299.764	-57.655	0.353	-0.153
-298.749	139.651	0.087	0.114
-297.735	422.185	-0.106	-0.225
-296.720	800.000	-0.178	-0.536
-295.705	-105.447	-0.322	0.073
-294.691	-137.277	0.161	0.018
-293.676	71.497	-0.234	0.241
-292.662	800.000	0.149	0.418
-291.647	800.000	-0.105	-0.389
-290.632	-82.980	-0.316	-0.101
-289.618	778.511	0.076	0.207
-288.603	-82.879	0.331	0.106
-287.589	-200.000	-0.021	0.121
-286.574	-86.579	0.105	-0.032
-285.559	-65.693	0.449	-0.179
-284.545	315.583	0.049	0.092
-283.530	-200.000	0.007	0.104
-282.516	219.724	-0.072	0.114
-281.501	-200.000	-0.012	-0.143
-280.486	13.739	-0.243	0.187
-279.472	565.009	-0.045	-0.108
-278.457	-144.777	-0.103	0.009
-277.443	85.705	0.139	-0.151
-276.428	-51.617	0.152	-0.070
-275.413	157.993	0.071	-0.097
-274.399	-172.347	-0.296	0.009
-273.384	-200.000	0.026	-0.234
-272.370	-1.138	-0.028	0.019
-271.355	-200.000	0.003	-0.083
-270.340	800.000	0.084	0.267
-269.326	800.000	-0.030	0.086
-268.311	-109.310	0.107	-0.022
-267.297	-200.000	0.031	0.198
-266.282	-182.257	0.104	0.002
-265.267	-104.414	0.321	0.074
-264.253	582.029	-0.068	-0.166
-263.238	-130.957	0.366	0.048
-262.224	514.844	0.147	-0.340
-261.209	532.899	0.079	0.186
-260.195	-46.385	0.293	-0.143
-259.180	-107.396	0.314	0.068
-258.165	-42.731	-0.261	-0.132
-257.151	-115.288	0.060	0.011
-256.136	-83.237	0.102	0.032
-255.122	153.248	-0.149	-0.202
-254.107	-110.000	-0.218	-0.045
-253.092	188.515	0.036	-0.053
-252.078	-200.000	-0.003	0.056
-251.063	44.843	0.116	0.106
-250.049	12.618	0.175	-0.134
-249.034	-23.459	0.150	-0.089
-248.019	800.000	-0.066	-0.244
-247.005	800.000	-0.099	-0.374
-245.990	-71.418	0.087	0.032
-244.976	-120.707	0.182	-0.030
-243.961	-127.498	-0.053	-0.008
-242.946	-5.305	0.232	-0.158
-241.932	-66.316	-0.417	0.164
-240.917	800.000	0.030	-0.097
-239.903	88.034	0.041	-0.045
-238.888	-200.000	0.009	0.050
-237.873	-66.986	0.093	0.036
-236.859	26.518	0.165	0.137
-235.844	127.854	0.260	-0.327
-234.830	67.672	0.143	0.145
-233.815	-200.000	-0.000	-0.172
-232.800	-36.244	-0.154	-0.082
-231.786	-200.000	0.023	-0.131
-230.771	568.108	0.084	-0.203
-229.757	3.333	-0.091	0.066
-228.742	-200.000	0.015	0.183
-227.727	-200.000	0.001	0.019
-226.713	-60.874	-0.091	0.038
-225.698	-200.000	0.002	-0.076
-224.684	-36.215	0.321	0.171
-223.669	143.921	0.157	0.208
-222.655	37.572	0.070	0.061
-221.640	192.696	0.142	0.212
-220.625	-200.000	-0.041	0.190
-219.611	-200.000	-0.024	-0.207
-218.596	-111.560	-0.207	-0.042
-217.582	-33.060	0.168	-0.092
-216.567	142.973	0.172	-0.226
-215.552	310.093	0.061	-0.112
-214.538	114.618	-0.207	0.250
-213.523	55.404	0.131	0.125
-212.509	218.600	0.063	0.100
-211.494	-200.000	-0.011	-0.069
-210.479	-200.000	0.017	0.244
-209.465	28.079	0.030	-0.025
-208.450	-143.702	0.148	-0.014
-207.436	353.575	-0.102	-0.200
-206.421	413.477	0.101	0.213
-205.406	-119.184	0.190	-0.033
-204.392	10.465	-0.142	0.107
-203.377	69.854	0.123	0.126
-202.363	800.000	-0.024	0.096
-201.348	363.027	-0.118	0.234
-200.333	-20.228	0.264	0.161
-199.319	-86.941	-0.211	0.064
-198.304	13.454	-0.222	-0.170
-197.290	684.292	0.042	0.109
-196.275	362.836	-0.186	-0.368
-195.260	796.728	0.086	-0.233
-194.246	-200.000	0.018	0.286
-193.231	233.421	0.084	-0.137
-192.217	-55.201	-0.350	-0.155
-191.202	186.910	0.114	-0.168
-190.187	114.540	0.046	-0.055
-189.173	14.083	-0.141	0.109
-188.158	800.000	-0.011	-0.034
-187.144	-21.497	0.294	-0.177
-186.129	221.002	0.149	-0.236
-185.114	-64.080	0.143	-0.057
-184.100	167.840	0.037	0.052
-183.085	-179.658	0.152	0.003
-182.071	105.710	-0.154	0.180
-181.056	-32.806	0.193	0.106
-180.042	183.407	-0.086	-0.126
-179.027	274.411	-0.143	-0.250
-178.012	122.780	0.263	-0.325
-176.998	-54.304	0.073	-0.033
-175.983	362.102	-0.024	0.047
-174.969	-32.101	-0.225	0.124
-173.954	-110.017	-0.213	-0.044
-172.939	-138.705	0.069	0.007
-171.925	331.657	-0.173	0.330
-170.910	562.282	-0.085	0.204
-169.896	-66.082	-0.150	-0.059
-168.881	-78.413	-0.201	-0.068
-167.866	56.415	-0.117	0.112
-166.852	800.000	-0.038	-0.126
-165.837	-159.305	0.057	0.003
-164.823	-53.713	-0.279	-0.126
-163.808	-137.017	0.078	-0.009
-162.793	105.177	0.083	0.097
-161.779	6.052	0.072	-0.053
-160.764	-138.669	-0.417	0.045
-159.750	-78.303	-0.209	-0.071
-158.735	217.554	0.043	0.067
-157.720	14.059	0.039	-0.030
-156.706	588.588	0.084	0.205
-155.691	376.572	0.127	0.255
-154.677	-200.000	0.033	-0.280
-153.662	-154.389	-0.324	-0.021
-152.647	-200.000	0.048	-0.302
-151.633	-130.934	0.208	0.027
-150.618	-200.000	0.029	0.208
-149.604	141.636	0.077	0.100
-148.589	-89.495	0.139	-0.040
-147.574	255.210	0.177	-0.299
-146.560	0.367	-0.338	-0.238
-145.545	346.345	-0.189	0.367
-144.531	-98.341	0.028	-0.007
-143.516	15.172	0.056	0.043
-142.502	-86.607	0.299	0.090
-141.487	-55.713	-0.162	-0.072
-140.472	24.683	0.263	-0.215
-139.458	-26.819	0.092	0.053
-138.443	800.000	0.027	0.107
-137.429	800.000	-0.057	0.169
-136.414	-200.000	0.002	-0.071
-135.399	-200.000	0.047	0.220
-134.385	163.070	-0.102	-0.141
-133.370	-200.000	-0.011	-0.051
-132.356	-81.701	-0.283	0.091
-131.341	-200.000	0.022	0.320
-130.326	800.000	-0.012	-0.051
-129.312	800.000	0.058	0.240
-128.297	105.262	0.048	-0.056
-127.283	50.261	-0.231	-0.215
-126.268	357.857	-0.088	-0.173
-125.253	-139.094	0.269	0.029
-124.239	78.135	0.061	0.064
-123.224	-169.384	-0.089	-0.003
-122.210	-200.000	-0.003	-0.258
-121.195	-58.962	0.100	-0.043
-120.180	8.185	0.034	0.025
-119.166	296.783	-0.071	-0.128
-118.151	230.970	0.117	-0.189
-117.137	263.134	0.094	-0.161
-116.122	108.510	-0.174	-0.204
-115.107	-200.000	0.060	0.369
-114.093	-200.000	0.138	-0.000
-113.078	146.923	-0.086	0.114
-112.064	-129.197	0.228	-0.031
-111.049	202.424	0.251	0.382
-110.034	-27.873	0.215	0.123
-109.020	-53.117	-0.111	0.050
-108.005	658.881	-0.105	-0.267
-106.991	-200.000	0.050	-0.253
-105.976	197.487	0.164	0.246
-104.962	-50.526	0.104	0.048
-103.947	174.502	-0.118	0.168
-102.932	362.936	-0.124	0.245
-101.918	-200.000	0.013	0.078
-100.903	-200.000	0.001	-0.006
-99.889	-99.817	0.210	-0.052
-98.874	-200.000	-0.018	0.084
-97.859	-142.337	0.110	0.011
-96.845	-18.325	0.206	0.127
-95.830	-100.535	0.134	-0.033
-94.816	-34.067	-0.041	0.022
-93.801	63.192	0.129	0.128
-92.786	-200.000	0.070	-0.405
-91.772	-50.815	0.299	-0.138
-90.757	79.557	0.103	-0.109
-89.743	-66.836	-0.270	0.105
-88.728	59.600	-0.064	0.062
-87.713	-69.540	0.259	0.098
-86.699	39.746	0.220	-0.195
-85.684	167.505	-0.136	-0.190
-84.670	-157.527	0.027	-0.002
-83.655	292.605	-0.044	-0.080
-82.640	-93.981	-0.230	-0.062
-81.626	-200.000	0.051	-0.234
-80.611	-200.000	0.030	0.160
-79.597	-26.569	-0.305	-0.176
-78.582	66.013	-0.120	0.120
-77.567	-72.138	0.281	0.103
-76.553	-200.000	0.006	0.514
-75.538	53.618	-0.092	-0.087
-74.524	643.673	-0.096	-0.240
-73.509	96.574	0.067	-0.076
-72.494	449.321	0.072	0.157
-71.480	800.000	-0.152	0.479
-70.465	-200.000	0.012	0.179
-69.451	-27.664	-0.226	0.129
-68.436	256.963	0.084	0.141
-67.422	282.117	-0.070	-0.123
-66.407	-17.951	-0.097	0.060
-65.392	-138.746	-0.194	0.021
-64.378	-185.502	0.083	0.001
-63.363	-200.000	-0.018	-0.382
-62.349	800.000	-0.054	0.213
-61.334	184.052	-0.704	-1.024
-60.319	51.291	0.245	0.228
-59.305	-200.000	-0.012	-1.153
-58.290	-200.000	0.260	1.263
-57.276	564.642	0.603	1.437
-56.261	-200.000	102.611	592.626
-55.246	555.374	1429.872	3382.290
-54.232	187.771	2618.177	3841.044
-53.217	115.120	2170.001	2602.595
-52.203	41.351	1698.257	1509.186
-51.188	33.914	1507.551	1289.432
-50.173	31.368	1481.177	1249.823
-49.159	51.783	1533.761	1433.655
-48.144	52.842	1551.290	1457.196
-47.130	33.982	1509.289	1291.174
-46.115	30.873	1494.627	1257.630
-45.100	30.750	1490.470	1253.257
-44.086	30.792	1488.912	1252.179
-43.071	30.721	1486.324	1249.474
-42.057	30.688	1484.605	1247.757
-41.042	30.734	1483.318	1246.939
-40.027	30.799	1481.495	1245.792
-39.013	30.672	1480.515	1244.065
-37.998	30.677	1478.997	1242.775
-36.984	30.697	1477.684	1241.759
-35.969	30.647	1476.971	1240.772
-34.954	30.663	1474.870	1239.066
-33.940	30.686	1474.105	1238.525
-32.925	30.634	1472.709	1236.958
-31.911	30.665	1471.314	1235.946
-30.896	30.724	1470.097	1235.268
-29.881	30.732	1468.890	1234.255
-28.867	30.797	1467.501	1233.470
-27.852	30.778	1465.759	1231.832
-26.838	30.769	1464.088	1230.319
-25.823	30.771	1462.916	1229.295
-24.809	30.703	1461.744	1227.818
-23.794	30.747	1460.304	1226.845
-22.779	30.744	1459.103	1225.767
-21.765	30.755	1457.631	1224.557
-20.750	30.777	1456.425	1223.643
-19.736	30.724	1455.854	1222.764
-18.721	30.664	1454.720	1221.372
-17.706	30.690	1453.640	1220.583
-16.692	30.747	1451.892	1219.438
-15.677	30.656	1451.377	1218.362
-14.663	30.616	1450.535	1217.348
-13.648	30.593	1449.711	1216.455
-12.633	30.705	1448.629	1216.234
-11.619	30.711	1447.648	1215.402
-10.604	30.643	1446.993	1214.357
-9.590	30.617	1446.392	1213.633
-8.575	30.651	1445.494	1213.056
-7.560	30.770	1444.211	1212.708
-6.546	30.631	1443.458	1211.122
-5.531	30.544	1442.763	1209.926
-4.517	30.667	1441.673	1209.758
-3.502	30.582	1440.620	1208.278
-2.487	30.629	1439.869	1207.904
-1.473	30.661	1438.469	1206.892
-0.458	30.608	1437.629	1205.795
0.556	29.598	1428.444	1195.400
1.571	26.935	1402.764	1156.856
2.586	23.506	1344.406	1087.637
3.600	21.872	1263.974	1013.052
4.615	20.579	1217.864	968.805
5.629	17.833	1162.758	910.263
6.644	10.942	1080.694	811.665
7.659	5.802	1042.937	758.429
8.673	5.079	1037.891	751.211
9.688	4.993	1034.569	748.329
10.702	4.846	1032.775	746.261
11.717	4.953	1030.675	745.190
12.731	6.912	1033.208	756.335
13.746	13.577	1041.926	794.720
14.761	18.461	1047.244	822.194
15.775	18.473	1046.710	821.757
16.790	17.540	1045.099	815.950
17.804	16.519	1042.277	808.793
18.819	15.593	1040.316	802.780
19.834	15.126	1039.209	799.624
20.848	14.880	1038.340	797.714
21.863	14.647	1037.714	796.051
22.877	14.340	1036.682	793.726
23.892	14.268	1036.056	792.830
24.907	14.144	1035.647	791.857
25.921	14.197	1034.293	791.007
26.936	14.218	1033.597	790.504
27.950	14.314	1032.837	790.306
28.965	14.339	1031.708	789.493
29.980	14.234	1030.905	788.312
30.994	14.362	1029.561	787.817
32.009	14.281	1028.634	786.655
33.023	14.504	1027.607	786.853
34.038	14.337	1027.499	785.915
35.053	14.466	1026.129	785.403
36.067	14.225	1025.309	783.572
37.082	14.340	1023.813	782.900
38.096	14.421	1023.296	782.817
39.111	14.428	1022.640	782.277
40.126	14.484	1021.545	781.636
41.140	14.408	1020.111	780.113
42.155	14.202	1019.673	778.743
43.169	14.124	1018.982	777.782
44.184	14.140	1017.283	776.494
45.199	14.070	1016.603	775.579
46.213	14.012	1015.508	774.401
47.228	14.140	1014.587	774.227
48.242	14.261	1013.727	774.065
49.257	14.249	1012.997	773.385
50.271	14.298	1011.791	772.622
51.286	14.246	1011.101	771.787
52.301	14.407	1009.961	771.592
53.315	14.266	1010.143	771.010
54.330	14.319	1008.910	770.245
55.344	14.278	1007.776	769.124
56.359	14.187	1006.646	767.775
57.374	14.204	1005.872	767.194
58.388	14.203	1005.447	766.796
59.403	14.101	1004.335	765.412
60.417	14.051	1003.141	764.205
61.432	14.040	1002.654	763.712
62.447	14.093	1002.229	763.568
63.461	14.009	1001.244	762.366
64.476	14.081	1000.513	762.068
65.490	14.000	999.195	760.627
66.505	14.058	998.586	760.362
67.520	13.876	997.947	758.978
68.534	14.129	997.226	759.516
69.549	14.105	996.435	758.739
70.563	14.147	995.498	758.146
71.578	14.037	995.033	757.227
72.593	13.992	994.162	756.291
73.607	13.807	993.224	754.668
74.622	14.018	991.927	754.576
75.636	13.806	991.884	753.511
76.651	14.018	990.624	753.452
77.666	14.016	989.719	752.684
78.680	13.963	989.455	752.180
79.695	13.889	989.139	751.538
80.709	13.871	988.483	750.893
81.724	14.038	987.524	750.851
82.739	14.252	986.189	750.733
83.753	14.160	985.997	750.108
84.768	14.201	985.642	749.956
85.782	14.341	984.971	750.011
86.797	14.430	983.963	749.574
87.812	14.428	983.159	748.888
88.826	14.355	982.359	747.885
89.841	14.181	981.740	746.567
90.855	14.368	980.609	746.478
91.870	14.303	980.309	745.893
92.884	14.453	979.005	745.506
93.899	14.523	978.426	745.309
94.914	14.401	977.914	744.311
95.928	14.501	977.056	744.037
96.943	14.482	976.327	743.331
97.957	14.407	975.488	742.294
98.972	14.412	974.641	741.604
99.987	14.313	974.117	740.701
101.001	14.487	972.863	740.456
102.016	14.337	973.064	739.876
103.030	14.383	971.713	738.988
104.045	14.484	970.694	738.596
105.060	14.349	969.912	737.338
106.074	14.253	969.353	736.420
107.089	14.283	968.172	735.590
108.103	14.142	967.222	734.184
109.118	14.022	966.533	733.067
110.133	14.098	965.603	732.631
111.147	13.944	964.779	731.261
112.162	13.986	963.678	730.547
113.176	14.178	962.986	730.802
114.191	14.243	962.210	730.432
115.206	14.220	961.433	729.676
116.220	14.250	960.301	728.884
117.235	14.215	959.790	728.279
118.249	14.185	959.064	727.535
119.264	14.143	958.009	726.485
120.279	14.039	957.522	725.599
121.293	14.130	956.668	725.284
122.308	14.150	956.023	724.817
123.322	14.067	955.268	723.817
124.337	14.103	953.601	722.651
125.352	13.923	953.030	721.369
126.366	14.033	951.971	720.981
127.381	14.042	950.977	720.206
128.395	14.197	949.148	719.424
129.410	13.972	948.875	718.181
130.424	14.088	948.246	718.143
131.439	14.070	947.428	717.383
132.454	14.165	946.631	717.127
133.468	14.227	945.393	716.392
134.483	14.117	945.232	715.734
135.497	14.145	944.548	715.272
136.512	14.240	943.880	715.112
137.527	14.005	943.082	713.434
138.541	14.194	942.127	713.460
139.556	14.205	941.342	712.850
140.570	14.069	940.913	711.879
141.585	14.324	939.929	712.161
142.600	14.234	939.966	711.742
143.614	14.460	938.480	711.518
144.629	14.549	937.564	711.140
145.643	14.496	937.072	710.479
146.658	14.413	936.551	709.666
147.673	14.305	935.665	708.474
148.687	14.374	934.613	707.909
149.702	14.276	934.124	707.057
150.716	14.310	932.884	706.200
151.731	14.342	932.163	705.729
152.746	14.300	931.803	705.217
153.760	14.207	930.849	704.038
154.775	14.225	930.251	703.600
155.789	14.287	929.686	703.371
156.804	14.449	928.414	703.029
157.819	14.453	927.811	702.529
158.833	14.542	927.173	702.359
159.848	14.629	926.475	702.134
160.862	14.555	925.875	701.305
161.877	14.611	925.110	700.900
162.892	14.415	924.532	699.575
163.906	14.282	923.550	698.213
164.921	14.419	922.331	697.804
165.935	14.395	921.601	697.090
166.950	14.462	920.605	696.554
167.964	14.421	919.711	695.646
168.979	14.576	918.464	695.287
169.994	14.508	917.909	694.522
171.008	14.501	916.955	693.710
172.023	14.493	916.094	692.964
173.037	14.542	915.652	692.770
174.052	14.576	915.064	692.405
175.067	14.685	914.243	692.174
176.081	14.521	913.533	690.899
177.096	14.566	912.474	690.224
178.110	14.436	912.111	689.347
179.125	14.593	910.590	688.786
180.140	14.550	910.291	688.324
181.154	14.532	909.460	687.559
182.169	14.532	909.157	687.267
183.183	14.677	908.405	687.236
184.198	14.770	907.496	686.872
185.213	14.630	907.269	686.060
186.227	14.613	906.589	685.416
187.242	14.667	906.096	685.207
188.256	14.624	905.573	684.574
189.271	14.882	904.591	684.827
190.286	14.996	903.770	684.611
191.300	14.802	902.781	683.008
192.315	14.442	902.520	681.279
193.329	14.481	901.768	680.809
194.344	14.466	900.958	680.079
195.359	14.504	900.084	679.514
196.373	14.711	899.755	680.047
197.388	14.601	899.579	679.406
198.402	14.818	898.818	679.653
199.417	14.875	898.705	679.739
200.432	14.981	898.372	679.861
201.446	15.019	897.948	679.633
202.461	14.972	897.687	679.183
203.475	15.175	896.776	679.257
204.490	15.057	896.032	678.155
205.504	15.045	895.165	677.393
206.519	15.102	894.202	676.834
207.534	14.941	893.506	675.596
208.548	14.905	893.195	675.158
209.563	14.932	892.168	674.427
210.577	14.929	891.487	673.844
211.592	14.841	890.894	672.981
212.607	14.893	891.014	673.221
213.621	15.143	889.804	673.252
214.636	15.026	889.507	672.498
215.650	15.238	888.897	672.826
216.665	15.046	888.379	671.607
217.680	15.065	887.936	671.287
218.694	15.241	887.551	671.642
219.709	15.279	886.737	671.119
220.723	15.111	886.306	670.059
221.738	15.167	885.795	669.839
222.753	15.127	884.569	668.695
223.767	15.136	884.067	668.289
224.782	15.281	883.382	668.290
225.796	15.170	882.791	667.345
226.811	15.353	882.048	667.452
227.826	15.234	881.446	666.463
228.840	15.291	880.647	666.028
229.855	15.298	879.580	665.188
230.869	15.136	879.576	664.485
231.884	15.128	879.028	663.980
232.899	15.369	877.689	663.864
233.913	15.109	877.239	662.434
234.928	15.076	876.767	661.888
235.942	15.134	875.873	661.386
236.957	15.182	875.435	661.184
237.972	15.258	874.539	660.752
238.986	15.169	873.951	659.898
240.001	15.167	873.732	659.664
241.015	15.156	872.848	658.897
242.030	15.237	872.044	658.549
243.045	15.332	871.338	658.332
244.059	15.374	870.808	658.038
245.074	15.433	870.258	657.795
246.088	15.330	869.720	656.927
247.103	15.461	868.867	656.736
248.117	15.377	868.481	656.059
249.132	15.573	867.902	656.329
250.147	15.667	867.511	656.343
251.161	15.772	867.093	656.378
252.176	15.611	866.540	655.271
253.190	15.849	865.859	655.625
254.205	15.814	865.321	655.027
255.220	15.904	864.606	654.776
256.234	15.858	863.528	653.721
257.249	15.832	863.173	653.297
258.263	15.839	862.902	653.058
259.278	15.794	862.263	652.342
260.293	15.891	861.912	652.395
261.307	15.879	861.360	651.876
262.322	16.094	860.368	651.896
263.336	15.897	860.147	650.910
264.351	16.070	859.083	650.716
265.366	16.151	858.897	650.828
266.380	15.999	858.359	649.778
267.395	16.024	857.478	649.151
268.409	16.095	856.512	648.634
269.424	15.985	856.019	647.783
270.439	15.984	855.388	647.243
271.453	16.079	854.695	647.025
272.468	16.002	853.841	646.028
273.482	15.916	853.366	645.279
274.497	15.837	852.973	644.624
275.512	15.964	852.263	644.514
276.526	16.006	851.608	644.124
277.541	15.855	850.991	643.025
278.555	16.025	850.286	643.084
279.570	16.133	849.687	642.985
280.585	16.208	849.250	642.883
281.599	16.374	848.588	642.955
282.614	16.235	847.950	641.889
283.628	16.001	847.638	640.706
284.643	16.073	847.048	640.474
285.657	16.162	846.567	640.392
286.672	16.170	845.748	639.747
287.687	16.252	845.290	639.654
288.701	16.206	844.921	639.147
289.716	16.071	844.506	638.263
290.730	16.248	843.892	638.411
291.745	16.298	843.105	637.950
292.760	16.257	842.460	637.250
293.774	16.309	841.718	636.830
294.789	16.355	841.511	636.788
295.803	16.295	840.915	636.055
296.818	16.197	840.278	635.151
297.833	16.236	839.471	634.628
298.847	16.354	839.036	634.689
299.862	16.153	838.188	633.237
300.876	16.332	837.613	633.419
301.891	16.504	836.575	633.221
302.906	16.594	835.954	633.032
303.920	16.637	835.392	632.711
304.935	16.694	834.727	632.363
305.949	16.692	834.044	631.783
306.964	16.591	833.884	631.227
307.979	16.561	833.324	630.636
308.993	16.589	832.635	630.162
310.008	16.725	831.975	630.114
311.022	16.833	831.415	630.036
312.037	16.637	831.401	629.243
313.052	16.548	831.097	628.625
314.066	16.483	830.293	627.719
315.081	16.557	829.293	627.184
316.095	16.456	828.917	626.467
317.110	16.563	828.072	626.170
318.125	16.466	828.071	625.756
319.139	16.537	827.481	625.517
320.154	16.494	826.858	624.832
321.168	16.629	826.488	624.995
322.183	16.536	825.979	624.212
323.197	16.658	825.252	624.056
324.212	16.654	824.826	623.666
325.227	16.527	824.506	622.901
326.241	16.517	823.903	622.353
327.256	16.729	823.072	622.449
328.270	16.722	822.603	622.015
329.285	16.652	822.002	621.249
330.300	16.623	821.496	620.704
331.314	16.664	820.921	620.366
332.329	16.655	820.465	619.933
333.343	16.834	819.907	620.110
334.358	16.874	819.577	619.952
335.373	16.970	818.569	619.487
336.387	16.821	818.178	618.592
337.402	16.825	817.798	618.265
338.416	16.654	817.501	617.361
339.431	16.862	817.055	617.728
340.446	16.954	816.330	617.458
341.460	17.030	815.793	617.275
342.475	16.971	815.512	616.793
343.489	17.094	814.849	616.684
344.504	17.115	814.052	616.104
345.519	17.174	813.846	616.107
346.533	17.333	812.885	615.901
347.548	17.141	812.667	614.985
348.562	17.211	811.878	614.588
349.577	16.885	811.586	613.134
350.592	17.056	810.991	613.248
351.606	17.085	810.287	612.764
352.621	16.997	810.161	612.297
353.635	17.003	809.965	612.117
354.650	17.015	809.373	611.658
355.665	17.114	808.772	611.506
356.679	17.144	808.438	611.310
357.694	17.262	807.864	611.245
358.708	17.207	807.381	610.627
359.723	17.167	807.101	610.220
360.738	17.083	806.268	609.232
361.752	17.194	805.841	609.255
362.767	17.272	805.450	609.186
363.781	17.311	804.919	608.870
364.796	17.409	804.568	608.901
365.810	17.562	803.666	608.709
366.825	17.447	803.639	608.226
367.840	17.453	803.531	608.110
368.854	17.557	802.825	607.893
369.869	17.472	802.587	607.358
370.883	17.488	801.554	606.580
371.898	17.481	801.287	606.296
372.913	17.585	800.573	606.074
373.927	17.505	800.410	605.611
374.942	17.592	799.229	604.974
375.956	17.556	798.566	604.291
376.971	17.534	798.169	603.859
377.986	17.716	797.675	604.079
379.000	17.723	797.174	603.669
380.015	17.733	797.055	603.559
381.029	17.621	796.517	602.704
382.044	17.744	796.000	602.695
383.059	17.623	795.633	601.936
384.073	17.749	795.019	601.863
385.088	17.741	793.771	600.837
386.102	17.802	793.403	600.720
387.117	17.702	793.228	600.182
388.132	17.688	792.376	599.433
389.146	17.512	792.332	598.730
390.161	17.574	792.252	598.835
391.175	17.592	791.602	598.354
392.190	17.871	791.046	598.858
393.205	17.699	790.468	597.767
394.219	17.717	790.046	597.456
395.234	17.631	789.697	596.838
396.248	17.773	789.188	596.897
397.263	17.787	788.227	596.167
398.278	17.678	788.096	595.633
399.292	17.622	787.637	595.037
400.307	17.851	787.202	595.458
401.321	17.798	787.006	595.070
402.336	17.613	786.737	594.169
403.350	17.791	786.199	594.332
404.365	17.845	785.930	594.264
405.380	17.768	785.359	593.512
406.394	18.026	784.850	593.971
407.409	17.918	784.581	593.340
408.423	18.093	783.847	593.340
409.438	18.072	783.566	593.000
410.453	18.056	783.692	592.988
411.467	18.195	783.021	592.912
412.482	18.131	782.597	592.315
413.496	18.181	781.671	591.735
414.511	18.119	781.740	591.519
415.526	18.105	781.443	591.194
416.540	18.271	780.613	591.086
417.555	18.441	780.176	591.290
418.569	18.333	779.602	590.431
419.584	18.257	779.081	589.721
420.599	18.205	779.109	589.511
421.613	156.975	1368.781	1794.017
422.628	135.475	1454.663	1794.131
