DTS Sentinel unit serial number:	SN413079Multiplexer serial number:	ORYXHardware model number:	OX4-SRSoftware version number:	ORYX F/W v4.00 Oryx Data Collector v3.7.2.0data status	okinstallation	princeton_trtdifferential loss correction	single-endedforward channel	channel 3reverse channel	N/Adate	2019/09/13time	21:24:35forward acquisition time	60.00reverse acquisition time	0.00gamma	496.2192k internal	0.2333k external	0.2333temperature offset calibration	1.0061default loss term (dB/km)	0.3790temperature slope calibration	1.0000multiplexer offset coefficient	1.0000multiplexer slope coefficient	1.0000fibre end	0.00T internal ref (°C)	28.34T ext. ref 1 (°C)	3.20T ext. ref 2 (°C)	23.00length (m)	temperature (°C)	Stokes	anti-Stokes-747.200	170.713	-0.098	-0.142
-746.185	130.968	-0.164	0.212
-745.171	-10.272	-0.247	0.165
-744.156	-72.430	0.118	0.044
-743.142	-17.270	-0.297	-0.188
-742.127	656.269	-0.221	0.571
-741.112	-33.132	0.077	-0.043
-740.098	-200.000	0.045	0.234
-739.083	-1.814	0.281	0.198
-738.069	685.061	-0.096	0.252
-737.054	-200.000	0.014	0.299
-736.039	341.756	-0.046	-0.091
-735.025	-85.382	0.335	0.105
-734.010	762.911	-0.045	-0.122
-732.996	1.318	0.123	-0.089
-731.981	-200.000	-0.003	-0.130
-730.966	15.135	-0.080	0.063
-729.952	-76.140	-0.324	-0.115
-728.937	185.629	-0.215	-0.321
-727.923	-110.403	-0.342	0.071
-726.908	527.633	-0.191	-0.453
-725.894	800.000	-0.047	0.197
-724.879	-200.000	0.009	-0.146
-723.864	300.935	0.099	0.184
-722.850	102.062	-0.049	-0.057
-721.835	-46.160	-0.169	-0.083
-720.821	-56.434	0.117	-0.052
-719.806	79.109	-0.163	-0.175
-718.791	-92.357	-0.428	-0.121
-717.777	28.267	-0.049	-0.041
-716.762	-26.821	-0.248	-0.146
-715.748	182.532	0.121	-0.180
-714.733	-78.299	-0.183	-0.063
-713.718	-200.000	0.033	-0.482
-712.704	32.027	0.234	0.203
-711.689	-152.483	0.131	0.009
-710.675	-164.659	0.199	-0.009
-709.660	-52.991	-0.191	-0.088
-708.645	-200.000	-0.005	0.106
-707.631	4.078	-0.191	0.140
-706.616	-60.166	-0.043	0.018
-705.602	395.948	0.107	0.225
-704.587	14.204	-0.260	-0.204
-703.572	-200.000	0.034	0.155
-702.558	-200.000	-0.013	0.155
-701.543	56.064	0.193	-0.188
-700.529	-150.943	-0.200	0.015
-699.514	-200.000	0.025	-0.142
-698.499	331.016	-0.076	-0.147
-697.485	-200.000	0.006	0.044
-696.470	-8.932	0.033	-0.022
-695.456	532.365	0.186	0.442
-694.441	-23.043	-0.104	-0.063
-693.426	192.723	-0.098	-0.148
-692.412	-136.796	-0.299	-0.035
-691.397	-110.187	0.037	0.008
-690.383	-76.920	-0.192	-0.067
-689.368	-84.737	-0.168	-0.053
-688.354	-200.000	0.013	-0.096
-687.339	-161.714	-0.117	-0.006
-686.324	220.269	-0.150	0.241
-685.310	-18.825	-0.158	0.099
-684.295	-200.000	-0.007	-0.129
-683.281	-129.846	-0.223	-0.031
-682.266	-124.521	0.317	0.049
-681.251	800.000	0.012	0.053
-680.237	747.338	0.080	0.216
-679.222	70.290	-0.309	-0.321
-678.208	278.386	-0.059	0.105
-677.193	-148.269	0.245	-0.020
-676.178	57.078	0.247	-0.241
-675.164	-145.565	0.258	0.023
-674.149	-47.307	0.265	-0.129
-673.135	-184.310	0.042	0.001
-672.120	-200.000	-0.003	-0.439
-671.105	-121.075	0.290	-0.049
-670.091	-117.945	0.287	0.051
-669.076	-11.095	0.188	0.125
-668.062	-84.489	-0.038	-0.012
-667.047	-86.445	-0.270	-0.083
-666.032	138.197	-0.034	0.045
-665.018	333.584	0.070	0.136
-664.003	-91.708	-0.209	0.060
-662.989	-200.000	-0.104	-0.616
-661.974	221.505	0.033	-0.053
-660.959	125.864	0.072	0.091
-659.945	526.359	-0.093	0.220
-658.930	351.782	0.098	0.194
-657.916	23.068	-0.252	-0.207
-656.901	-70.222	0.092	-0.035
-655.886	-200.000	0.040	-0.193
-654.872	58.506	0.209	-0.205
-653.857	-66.406	0.056	0.022
-652.843	-200.000	0.035	0.165
-651.828	241.343	0.127	0.212
-650.814	-200.000	-0.005	-0.158
-649.799	50.623	0.390	-0.370
-648.784	-31.406	-0.281	-0.158
-647.770	-2.056	-0.101	-0.071
-646.755	147.033	-0.059	-0.080
-645.741	-73.015	0.097	-0.036
-644.726	42.911	0.288	0.263
-643.711	120.652	-0.185	-0.230
-642.697	-16.970	0.293	0.185
-641.682	661.941	-0.122	-0.316
-640.668	-139.302	0.471	0.051
-639.653	131.864	-0.019	-0.025
-638.638	-45.048	-0.156	0.078
-637.624	706.304	0.042	0.110
-636.609	-134.488	0.070	0.009
-635.595	425.403	0.053	0.114
-634.580	-148.577	-0.166	0.014
-633.565	-200.000	-0.075	-0.451
-632.551	800.000	-0.163	-0.578
-631.536	-92.300	0.231	-0.065
-630.522	37.748	0.210	0.187
-629.507	-200.000	0.007	0.115
-628.492	255.955	0.151	-0.258
-627.478	184.326	0.108	-0.160
-626.463	74.027	-0.427	-0.448
-625.449	800.000	0.018	0.057
-624.434	-200.000	-0.014	0.146
-623.419	-200.000	0.016	0.082
-622.405	-2.254	-0.097	-0.068
-621.390	-200.000	-0.010	-0.110
-620.376	-79.103	-0.060	-0.020
-619.361	-82.605	-0.081	-0.026
-618.346	14.305	-0.224	0.174
-617.332	-45.915	0.157	0.077
-616.317	59.804	-0.077	0.076
-615.303	79.139	0.142	0.152
-614.288	-45.574	0.507	0.251
-613.273	-200.000	-0.003	0.184
-612.259	55.265	0.052	-0.051
-611.244	-55.548	-0.241	0.108
-610.230	-200.000	0.024	0.145
-609.215	129.430	-0.201	-0.256
-608.201	370.332	0.059	-0.119
-607.186	-71.152	0.137	-0.052
-606.171	20.404	0.116	-0.094
-605.157	-102.874	-0.175	0.042
-604.142	77.005	0.114	0.121
-603.128	-62.104	-0.141	-0.059
-602.113	800.000	-0.087	-0.253
-601.098	-53.497	-0.186	0.085
-600.084	167.301	0.057	-0.081
-599.069	-108.073	0.235	-0.051
-598.055	6.262	-0.016	0.012
-597.040	324.126	-0.147	-0.280
-596.025	-61.682	-0.281	-0.118
-595.011	152.904	0.104	-0.143
-593.996	339.711	-0.110	-0.214
-592.982	202.320	0.090	0.138
-591.967	-171.491	-0.140	-0.005
-590.952	-200.000	-0.060	-0.448
-589.938	89.941	0.183	0.204
-588.923	-200.000	0.021	0.251
-587.909	-38.864	0.235	0.124
-586.894	-66.666	-0.323	0.128
-585.879	-200.000	0.003	0.049
-584.865	800.000	-0.024	0.100
-583.850	-78.901	0.186	0.063
-582.836	-1.989	0.279	-0.196
-581.821	345.507	0.084	0.165
-580.806	-200.000	-0.001	-0.349
-579.792	-94.376	-0.319	0.087
-578.777	448.186	-0.053	0.116
-577.763	-80.985	-0.104	0.034
-576.748	800.000	0.113	-0.389
-575.733	70.206	0.059	-0.060
-574.719	447.255	-0.202	0.443
-573.704	85.434	0.145	0.159
-572.690	-173.840	-0.285	-0.008
-571.675	-87.135	0.177	-0.054
-570.661	-12.438	0.396	-0.258
-569.646	775.422	0.100	-0.273
-568.631	-113.952	0.195	-0.038
-567.617	-112.798	0.165	-0.033
-566.602	232.064	0.167	-0.273
-565.588	-80.344	-0.175	-0.058
-564.573	1.493	0.165	0.119
-563.558	-112.303	-0.215	0.043
-562.544	-12.625	-0.302	0.197
-561.529	-200.000	0.025	-0.193
-560.515	-200.000	-0.016	0.173
-559.500	-200.000	0.013	-0.161
-558.485	48.672	0.149	0.140
-557.471	6.385	-0.111	0.082
-556.456	61.276	0.036	-0.036
-555.442	254.785	-0.119	0.204
-554.427	-43.787	-0.273	-0.137
-553.412	-200.000	-0.047	0.291
-552.398	-21.185	0.174	-0.106
-551.383	-81.568	-0.286	-0.094
-550.369	107.525	0.147	-0.175
-549.354	800.000	0.043	-0.150
-548.339	-87.553	0.250	0.075
-547.325	12.146	-0.230	0.176
-546.310	163.393	-0.083	-0.117
-545.296	-139.627	0.219	-0.023
-544.281	-200.000	-0.038	-0.179
-543.266	-26.053	0.021	0.012
-542.252	-200.000	0.019	-0.327
-541.237	-10.309	-0.238	0.158
-540.223	-125.434	-0.162	0.025
-539.208	-200.000	-0.013	-0.150
-538.193	37.319	-0.232	-0.205
-537.179	-200.000	-0.031	0.300
-536.164	800.000	-0.037	-0.113
-535.150	-41.364	-0.164	0.084
-534.135	439.176	0.200	-0.436
-533.121	-200.000	-0.071	0.328
-532.106	-75.788	0.029	0.010
-531.091	-200.000	-0.031	-0.178
-530.077	-200.000	-0.004	-0.033
-529.062	-119.287	0.258	0.045
-528.048	-45.287	-0.199	-0.099
-527.033	14.803	0.337	0.262
-526.018	-169.970	0.242	0.009
-525.004	299.551	-0.089	-0.163
-523.989	68.470	-0.102	0.104
-522.975	73.527	-0.273	0.285
-521.960	-72.904	0.088	0.032
-520.945	-23.604	-0.193	0.116
-519.931	-51.938	0.307	-0.142
-518.916	210.706	0.020	0.031
-517.902	-170.520	0.183	-0.006
-516.887	84.072	-0.009	-0.010
-515.872	142.357	0.095	0.125
-514.858	551.070	0.148	-0.355
-513.843	391.585	-0.125	0.260
-512.829	106.293	0.206	-0.243
-511.814	800.000	-0.102	-0.327
-510.799	42.981	-0.295	-0.268
-509.785	789.695	-0.096	0.263
-508.770	-200.000	0.029	-0.286
-507.756	800.000	-0.114	0.390
-506.741	566.394	0.074	-0.178
-505.726	191.636	-0.106	0.160
-504.712	-11.023	-0.149	0.098
-503.697	-46.692	0.069	0.034
-502.683	-76.773	-0.279	0.097
-501.668	282.573	0.134	0.240
-500.653	-92.585	0.188	-0.053
-499.639	-131.124	-0.049	-0.006
-498.624	51.325	0.128	0.121
-497.610	-117.480	-0.115	0.021
-496.595	-174.818	-0.144	-0.004
-495.581	-94.340	-0.109	-0.030
-494.566	120.925	-0.049	-0.060
-493.551	-28.860	-0.236	-0.135
-492.537	519.496	0.075	0.176
-491.522	-50.278	0.117	0.055
-490.508	11.258	0.203	-0.155
-489.493	277.697	-0.053	0.095
-488.478	-200.000	-0.011	0.064
-487.464	-160.620	0.097	-0.005
-486.449	-160.554	0.200	0.011
-485.435	36.535	0.313	-0.275
-484.420	296.543	-0.183	-0.334
-483.405	36.025	-0.352	0.308
-482.391	-200.000	-0.020	0.334
-481.376	-117.330	-0.306	0.055
-480.362	783.234	0.150	0.410
-479.347	-135.404	-0.196	-0.023
-478.332	800.000	-0.121	-0.391
-477.318	40.061	0.229	0.205
-476.303	-200.000	-0.000	0.012
-475.289	29.575	0.243	0.205
-474.274	-116.723	0.261	-0.048
-473.259	204.258	0.084	0.129
-472.245	-40.283	0.338	-0.175
-471.230	-46.361	0.240	0.117
-470.216	800.000	-0.009	0.026
-469.201	-200.000	-0.021	-0.147
-468.186	344.115	0.091	-0.178
-467.172	-84.789	0.024	0.008
-466.157	-60.274	-0.177	-0.075
-465.143	713.491	-0.154	-0.407
-464.128	10.686	0.260	-0.197
-463.113	100.771	-0.162	-0.188
-462.099	800.000	0.051	-0.198
-461.084	117.390	-0.195	0.238
-460.070	-106.780	0.421	-0.093
-459.055	-55.733	-0.327	-0.145
-458.040	-200.000	-0.003	-0.086
-457.026	-86.656	0.128	-0.039
-456.011	80.878	0.292	0.314
-454.997	-103.371	0.184	0.043
-453.982	47.843	0.067	-0.062
-452.968	-73.293	0.086	-0.031
-451.953	204.411	-0.007	0.011
-450.938	431.016	-0.075	-0.162
-449.924	16.363	0.165	0.130
-448.909	-20.379	-0.169	0.103
-447.895	252.514	-0.148	-0.251
-446.880	-200.000	-0.013	0.249
-445.865	-76.751	0.142	-0.049
-444.851	-12.263	-0.148	-0.096
-443.836	50.187	-0.032	0.030
-442.822	576.218	-0.105	-0.254
-441.807	527.505	0.053	-0.123
-440.792	800.000	-0.039	0.123
-439.778	-37.143	0.141	0.075
-438.763	29.707	-0.227	-0.192
-437.749	-200.000	-0.057	0.292
-436.734	170.200	-0.152	0.216
-435.719	-26.138	0.193	-0.112
-434.705	-70.236	-0.310	0.117
-433.690	-122.467	0.397	-0.064
-432.676	-4.400	-0.146	0.100
-431.661	-50.494	-0.296	-0.139
-430.646	224.920	0.077	0.124
-429.632	-60.651	0.132	0.056
-428.617	-91.829	-0.354	0.100
-427.603	89.291	0.295	0.326
-426.588	-65.133	-0.277	-0.111
-425.573	-16.649	0.291	0.183
-424.559	800.000	0.099	-0.388
-423.544	-122.587	-0.220	0.035
-422.530	-37.957	0.147	0.078
-421.515	-95.464	0.127	-0.034
-420.500	800.000	0.050	0.184
-419.486	570.829	0.110	0.265
-418.471	103.156	-0.194	0.226
-417.457	133.099	-0.188	0.241
-416.442	0.433	0.140	0.099
-415.428	-200.000	-0.079	0.710
-414.413	-138.609	0.247	0.027
-413.398	-14.357	0.259	0.165
-412.384	572.873	-0.033	0.079
-411.369	177.504	0.183	0.264
-410.355	-200.000	-0.005	0.050
-409.340	-38.453	0.317	0.166
-408.325	148.558	-0.173	0.232
-407.311	-200.000	0.024	-0.295
-406.296	350.588	-0.052	0.101
-405.282	-75.479	0.217	0.077
-404.267	178.397	0.086	-0.125
-403.252	206.023	-0.074	-0.115
-402.238	148.130	-0.235	-0.314
-401.223	-33.937	-0.217	-0.118
-400.209	144.952	-0.102	0.135
-399.194	800.000	0.119	0.440
-398.179	-27.171	-0.162	0.093
-397.165	-11.786	-0.114	-0.074
-396.150	-55.002	-0.124	-0.055
-395.136	-200.000	0.035	0.194
-394.121	88.722	0.016	-0.017
-393.106	28.945	-0.196	-0.165
-392.092	-200.000	-0.002	0.121
-391.077	64.022	0.250	-0.249
-390.063	-42.003	-0.176	-0.089
-389.048	-68.195	-0.242	0.093
-388.033	-200.000	0.009	0.254
-387.019	-21.327	-0.432	-0.261
-386.004	132.794	-0.146	-0.187
-384.990	-107.958	-0.078	-0.017
-383.975	-13.088	-0.134	-0.086
-382.960	49.750	-0.423	-0.395
-381.946	-162.711	-0.077	0.004
-380.931	22.451	-0.313	0.253
-379.917	38.682	0.189	-0.167
-378.902	-41.038	0.120	0.061
-377.888	46.312	-0.463	0.425
-376.873	-18.697	-0.222	0.137
-375.858	54.422	0.118	-0.112
-374.844	72.752	-0.140	0.145
-373.829	241.329	-0.109	-0.180
-372.815	131.371	-0.345	-0.440
-371.800	-200.000	-0.016	0.117
-370.785	-153.214	-0.187	-0.013
-369.771	800.000	0.119	0.517
-368.756	117.048	0.129	-0.158
-367.742	100.025	-0.129	-0.149
-366.727	-0.713	-0.253	-0.178
-365.712	62.274	0.131	-0.130
-364.698	-8.759	0.148	0.098
-363.683	679.684	-0.110	0.284
-362.669	-30.949	0.398	0.222
-361.654	-87.544	0.415	0.124
-360.639	398.131	0.026	-0.053
-359.625	-41.880	0.046	-0.023
-358.610	800.000	0.042	-0.148
-357.596	-200.000	-0.041	-0.206
-356.581	160.976	-0.230	-0.318
-355.566	102.724	-0.132	-0.153
-354.552	138.612	0.126	0.164
-353.537	61.124	0.212	-0.208
-352.523	-188.131	-0.226	-0.003
-351.508	-200.000	0.009	0.294
-350.493	-95.906	-0.236	0.062
-349.479	-138.563	-0.195	0.021
-348.464	672.507	-0.139	-0.357
-347.450	-200.000	-0.025	0.127
-346.435	-26.800	0.260	-0.150
-345.420	-28.287	-0.316	-0.181
-344.406	-200.000	0.014	-0.082
-343.391	-109.141	-0.260	-0.055
-342.377	424.044	-0.074	0.158
-341.362	800.000	0.122	0.356
-340.348	26.566	0.252	-0.209
-339.333	-85.838	0.358	-0.110
-338.318	-182.662	0.178	0.003
-337.304	-200.000	0.021	0.175
-336.289	-92.938	-0.427	-0.118
-335.275	237.030	-0.159	0.260
-334.260	-87.826	0.059	0.017
-333.245	-200.000	-0.005	-0.049
-332.231	-1.584	0.065	-0.045
-331.216	-82.181	-0.043	0.014
-330.202	503.026	0.075	-0.172
-329.187	-200.000	0.009	0.237
-328.172	-143.873	0.207	-0.019
-327.158	-79.729	0.182	-0.061
-326.143	100.308	0.103	0.118
-325.129	87.359	-0.175	0.191
-324.114	-191.587	-0.065	-0.001
-323.099	442.189	-0.155	0.335
-322.085	-36.003	-0.085	-0.045
-321.070	140.824	0.031	-0.041
-320.056	21.699	-0.149	0.120
-319.041	44.592	-0.312	0.284
-318.026	-200.000	-0.020	0.188
-317.012	-200.000	0.072	0.432
-315.997	114.460	-0.133	-0.160
-314.983	59.100	0.107	0.104
-313.968	-139.064	-0.455	-0.049
-312.953	-81.464	-0.140	0.046
-311.939	-200.000	0.034	0.256
-310.924	108.344	-0.084	0.099
-309.910	-47.083	0.252	-0.122
-308.895	317.752	0.186	-0.348
-307.880	528.441	-0.097	0.227
-306.866	-147.986	-0.295	0.024
-305.851	-194.201	0.227	-0.002
-304.837	-54.953	0.247	0.110
-303.822	-200.000	0.011	-0.085
-302.807	-70.137	-0.132	-0.049
-301.793	33.982	-0.173	0.149
-300.778	210.978	0.214	0.332
-299.764	91.472	-0.246	0.273
-298.749	-47.045	0.256	-0.123
-297.735	-145.298	0.235	-0.021
-296.720	-79.755	0.268	-0.089
-295.705	67.447	-0.039	-0.040
-294.691	658.767	0.071	-0.180
-293.676	24.779	-0.188	0.154
-292.662	-59.198	0.187	0.080
-291.647	212.701	-0.085	0.132
-290.632	135.709	-0.123	-0.158
-289.618	110.838	0.179	0.213
-288.603	-200.000	-0.002	-0.089
-287.589	15.305	-0.290	-0.225
-286.574	-161.214	0.449	-0.023
-285.559	-200.000	-0.010	-0.100
-284.545	12.660	0.333	-0.254
-283.530	190.525	-0.078	0.115
-282.516	98.604	0.088	-0.100
-281.501	-200.000	-0.020	-0.088
-280.486	-200.000	0.037	0.308
-279.472	-86.916	-0.148	0.045
-278.457	-175.450	0.403	0.011
-277.443	800.000	-0.051	0.177
-276.428	-196.345	-0.290	0.002
-275.413	635.633	0.039	0.098
-274.399	238.784	0.175	-0.286
-273.384	-123.121	0.320	-0.051
-272.370	800.000	-0.118	-0.361
-271.355	-130.293	-0.231	0.031
-270.340	-79.883	0.207	-0.069
-269.326	-200.000	-0.008	0.227
-268.311	-121.622	0.264	-0.043
-267.297	-157.298	-0.152	-0.009
-266.282	25.763	-0.209	-0.172
-265.267	43.374	-0.033	-0.030
-264.253	496.369	-0.098	-0.222
-263.238	-200.000	-0.008	0.047
-262.224	68.814	-0.035	0.035
-261.209	-43.082	0.290	0.145
-260.195	-127.344	0.290	0.042
-259.180	119.365	-0.158	0.193
-258.165	88.168	-0.108	0.118
-257.151	59.059	0.154	-0.149
-256.136	-188.120	0.285	0.004
-255.122	-162.274	0.197	-0.010
-254.107	211.428	-0.152	-0.236
-253.092	-109.187	-0.477	-0.100
-252.078	-52.990	-0.072	0.033
-251.063	-142.213	-0.168	0.016
-250.049	-72.948	-0.120	0.043
-249.034	800.000	0.108	-0.391
-248.019	60.660	0.169	-0.165
-247.005	-200.000	-0.010	-0.136
-245.990	-200.000	0.061	0.000
-244.976	-162.238	0.221	-0.011
-243.961	-51.976	0.031	0.014
-242.946	-11.646	-0.227	0.147
-241.932	261.903	0.061	0.104
-240.917	-142.635	0.242	0.023
-239.903	12.815	-0.077	-0.059
-238.888	37.353	0.104	-0.091
-237.873	800.000	0.038	0.115
-236.859	149.628	0.152	0.202
-235.844	78.890	-0.165	0.174
-234.830	-68.381	-0.223	0.085
-233.815	-200.000	-0.012	-0.062
-232.800	-19.140	-0.325	-0.199
-231.786	-200.000	0.243	0.000
-230.771	41.636	-0.319	-0.284
-229.757	-200.000	0.014	0.082
-228.742	93.909	-0.038	-0.043
-227.727	65.356	-0.109	-0.109
-226.713	105.109	-0.048	-0.055
-225.698	800.000	-0.092	0.291
-224.684	-193.517	0.186	0.002
-223.669	-47.900	0.197	0.094
-222.655	800.000	-0.097	-0.307
-221.640	-84.786	-0.234	-0.073
-220.625	-83.167	0.104	-0.033
-219.611	800.000	0.020	0.055
-218.596	224.293	0.044	-0.070
-217.582	216.929	-0.144	0.226
-216.567	22.181	-0.328	-0.264
-215.552	-200.000	0.040	-0.295
-214.538	256.518	-0.132	0.223
-213.523	60.929	0.191	0.186
-212.509	-92.534	0.379	0.105
-211.494	-200.000	-0.027	-0.277
-210.479	800.000	-0.071	-0.243
-209.465	800.000	-0.059	0.196
-208.450	161.514	0.276	0.380
-207.436	131.779	-0.140	0.178
-206.421	-84.030	-0.437	0.137
-205.406	-34.295	-0.190	0.103
-204.392	132.694	-0.230	-0.292
-203.377	-134.859	0.132	0.016
-202.363	78.354	0.098	0.103
-201.348	800.000	0.067	-0.195
-200.333	448.022	-0.154	0.333
-199.319	-200.000	-0.035	0.227
-198.304	-200.000	-0.002	-0.177
-197.290	114.864	-0.187	-0.224
-196.275	-29.710	-0.105	0.059
-195.260	-154.447	-0.039	0.003
-194.246	700.652	0.058	0.151
-193.231	26.352	0.191	0.157
-192.217	524.023	-0.181	-0.418
-191.202	-43.976	-0.174	0.086
-190.187	4.589	0.237	0.171
-189.173	-200.000	-0.027	-0.289
-188.158	13.039	-0.182	-0.138
-187.144	-200.000	-0.027	0.291
-186.129	223.213	0.076	0.121
-185.114	800.000	-0.094	-0.298
-184.100	-56.144	-0.039	-0.017
-183.085	-157.303	-0.097	-0.006
-182.071	-41.856	0.307	-0.155
-181.056	-122.916	0.053	0.008
-180.042	-63.770	-0.193	-0.078
-179.027	800.000	-0.036	-0.122
-178.012	34.620	-0.148	0.127
-176.998	680.558	-0.096	0.245
-175.983	800.000	0.063	0.236
-174.969	758.133	-0.050	0.134
-173.954	78.190	-0.086	0.090
-172.939	70.254	0.152	-0.154
-171.925	49.639	0.434	-0.402
-170.910	-93.253	0.309	-0.084
-169.896	27.148	0.093	-0.077
-168.881	-200.000	-0.011	-0.209
-167.866	461.086	0.122	0.268
-166.852	0.703	0.128	0.090
-165.837	1.804	0.114	0.080
-164.823	-200.000	0.029	0.530
-163.808	-127.198	0.156	-0.022
-162.793	-50.634	0.179	-0.083
-161.779	-125.975	0.301	0.044
-160.764	-200.000	0.099	-0.000
-159.750	449.132	0.071	0.154
-158.735	-154.033	0.387	0.026
-157.720	615.773	0.124	-0.305
-156.706	8.828	0.107	0.080
-155.691	-200.000	-0.003	0.067
-154.677	-93.893	0.194	0.053
-153.662	-55.116	-0.180	0.080
-152.647	346.385	0.186	-0.359
-151.633	6.943	-0.088	-0.065
-150.618	-22.770	-0.112	-0.066
-149.604	218.760	0.137	0.215
-148.589	800.000	-0.045	-0.141
-147.574	467.840	0.085	0.188
-146.560	112.217	-0.127	0.151
-145.545	239.834	0.028	-0.046
-144.531	327.252	0.063	-0.119
-143.516	344.473	-0.100	0.193
-142.502	18.925	-0.178	-0.140
-141.487	666.210	-0.109	-0.275
-140.472	-15.840	0.178	-0.111
-139.458	-27.822	-0.188	0.107
-138.443	-117.945	-0.240	0.042
-137.429	142.888	-0.175	-0.228
-136.414	92.548	0.128	-0.142
-135.399	-78.573	-0.038	0.013
-134.385	-200.000	-0.038	0.262
-133.370	540.156	-0.175	0.408
-132.356	390.411	0.072	0.147
-131.341	-200.000	0.024	-0.140
-130.326	53.423	-0.070	0.066
-129.312	-74.404	0.207	0.073
-128.297	-200.000	0.019	-0.153
-127.283	-50.600	0.094	0.044
-126.268	-140.971	-0.168	0.017
-125.253	-15.646	0.271	-0.169
-124.239	-188.169	0.033	-0.000
-123.224	-200.000	-0.013	0.224
-122.210	-39.093	-0.191	0.099
-121.195	87.274	0.192	-0.209
-120.180	25.276	-0.059	-0.048
-119.166	-155.023	-0.370	0.024
-118.151	-200.000	-0.007	-0.037
-117.137	123.660	0.088	-0.108
-116.122	57.776	0.109	0.104
-115.107	-160.126	0.069	0.004
-114.093	800.000	0.061	-0.193
-113.078	-146.788	0.294	0.025
-112.064	-63.840	-0.132	-0.053
-111.049	-104.435	-0.332	-0.075
-110.034	-84.766	0.068	0.021
-109.020	-54.334	0.304	0.135
-108.005	-126.629	0.067	0.010
-106.991	-115.881	-0.111	0.020
-105.976	-200.000	0.006	-0.048
-104.962	-200.000	-0.008	-0.056
-103.947	165.602	0.319	0.443
-102.932	-137.548	-0.203	-0.022
-101.918	-107.132	0.297	-0.064
-100.903	51.827	-0.084	-0.078
-99.889	183.983	0.187	-0.271
-98.874	800.000	-0.040	-0.135
-97.859	-22.880	0.150	0.089
-96.845	-90.892	0.364	-0.103
-95.830	197.754	0.106	-0.159
-94.816	78.848	0.305	-0.320
-93.801	800.000	0.054	0.158
-92.786	231.757	0.111	0.179
-91.772	-23.144	-0.256	-0.151
-90.757	589.806	0.056	-0.136
-89.743	-200.000	-0.012	0.162
-88.728	168.109	-0.022	-0.031
-87.713	113.243	0.152	-0.181
-86.699	-200.000	0.011	-0.336
-85.684	28.008	0.099	0.082
-84.670	-25.675	0.217	-0.126
-83.655	82.893	-0.106	-0.113
-82.640	-200.000	0.013	0.216
-81.626	242.169	-0.145	-0.237
-80.611	-42.337	-0.280	0.140
-79.597	-200.000	-0.047	0.438
-78.582	-84.761	-0.343	-0.106
-77.567	-34.392	-0.350	0.188
-76.553	-64.279	0.138	-0.055
-75.538	-200.000	0.029	-0.179
-74.524	180.029	0.183	-0.263
-73.509	102.261	0.242	-0.276
-72.494	132.612	-0.036	-0.046
-71.480	-200.000	0.033	0.410
-70.465	-104.564	0.199	0.045
-69.451	-92.839	-0.308	-0.084
-68.436	295.487	-0.230	0.412
-67.422	162.811	0.178	-0.244
-66.407	-20.759	0.220	0.132
-65.392	-200.000	-0.041	0.321
-64.378	297.022	-0.137	0.247
-63.363	-104.391	-0.069	0.016
-62.349	-200.000	-0.067	0.315
-61.334	195.111	-0.618	-0.919
-60.319	191.955	0.456	0.673
-59.305	-200.000	-0.175	-1.048
-58.290	186.855	0.791	1.154
-57.276	259.354	1.096	1.851
-56.261	-200.000	112.582	659.199
-55.246	547.778	1513.838	3546.774
-54.232	179.367	2683.132	3842.875
-53.217	112.113	2169.793	2566.139
-52.203	39.008	1698.998	1486.060
-51.188	31.562	1517.860	1276.996
-50.173	29.169	1493.039	1239.976
-49.159	53.238	1551.954	1454.689
-48.144	52.218	1567.241	1461.978
-47.130	31.708	1523.011	1282.123
-46.115	28.654	1508.257	1248.907
-45.100	28.426	1505.144	1244.732
-44.086	28.411	1503.373	1243.117
-43.071	28.322	1501.141	1240.624
-42.057	28.274	1499.842	1239.176
-41.042	28.336	1497.981	1238.008
-40.027	28.399	1496.254	1236.958
-39.013	28.301	1494.993	1235.200
-37.998	28.345	1493.542	1234.250
-36.984	28.324	1492.572	1233.261
-35.969	28.333	1491.302	1232.224
-34.954	28.356	1489.999	1231.250
-33.940	28.248	1489.016	1229.666
-32.925	28.278	1487.493	1228.561
-31.911	28.409	1485.827	1228.013
-30.896	28.316	1485.339	1226.933
-29.881	28.349	1483.886	1225.910
-28.867	28.289	1481.798	1223.731
-27.852	28.443	1480.977	1224.038
-26.838	28.452	1479.459	1222.790
-25.823	28.347	1478.279	1221.067
-24.809	28.388	1476.506	1219.827
-23.794	28.323	1475.435	1218.464
-22.779	28.334	1474.592	1217.793
-21.765	28.347	1473.434	1216.872
-20.750	28.362	1472.263	1215.955
-19.736	28.489	1470.990	1215.704
-18.721	28.338	1470.240	1214.033
-17.706	28.403	1468.699	1213.141
-16.692	28.389	1467.762	1212.224
-15.677	28.400	1466.301	1211.042
-14.663	28.311	1465.919	1210.094
-13.648	28.340	1464.558	1209.111
-12.633	28.290	1463.894	1208.185
-11.619	28.341	1462.805	1207.576
-10.604	28.448	1461.901	1207.486
-9.590	28.374	1460.881	1206.108
-8.575	28.303	1460.163	1205.003
-7.560	28.407	1459.184	1204.828
-6.546	28.328	1458.538	1203.731
-5.531	28.217	1457.582	1202.163
-4.517	28.255	1456.684	1201.624
-3.502	28.251	1455.909	1200.913
-2.487	28.306	1454.526	1200.083
-1.473	28.393	1453.511	1199.768
-0.458	28.326	1452.716	1198.622
0.556	28.684	1442.116	1186.730
1.571	25.466	1416.939	1145.438
2.586	21.760	1355.376	1072.931
3.600	19.952	1272.635	996.938
4.615	18.688	1227.718	954.641
5.629	16.119	1171.946	897.542
6.644	9.283	1090.278	800.961
7.659	3.966	1052.584	747.573
8.673	3.249	1047.200	740.235
9.688	3.250	1044.038	737.940
10.702	3.108	1042.564	736.154
11.717	3.184	1040.481	734.981
12.731	5.031	1042.256	744.998
13.746	12.066	1051.763	785.543
14.761	18.431	1059.706	822.040
15.775	20.002	1060.993	830.503
16.790	19.544	1059.213	826.845
17.804	18.491	1057.176	820.145
18.819	17.622	1055.417	814.558
19.834	17.239	1054.495	811.943
20.848	17.026	1053.264	809.905
21.863	16.882	1053.549	809.368
22.877	16.688	1052.263	807.384
23.892	16.514	1051.066	805.561
24.907	16.367	1050.601	804.434
25.921	16.461	1050.073	804.408
26.936	16.442	1049.026	803.445
27.950	16.484	1047.867	802.685
28.965	16.563	1046.615	802.031
29.980	16.544	1045.821	801.261
30.994	16.727	1044.338	800.918
32.009	16.554	1044.368	800.054
33.023	16.980	1042.934	800.894
34.038	16.831	1042.702	799.944
35.053	16.733	1041.361	798.380
36.067	16.555	1040.710	796.973
37.082	16.606	1039.665	796.341
38.096	16.627	1039.199	796.015
39.111	16.764	1038.395	795.973
40.126	16.865	1037.368	795.589
41.140	16.633	1036.761	793.965
42.155	16.521	1035.277	792.233
43.169	16.381	1034.092	790.598
44.184	16.325	1032.742	789.235
45.199	16.259	1032.043	788.323
46.213	16.217	1031.094	787.334
47.228	16.354	1030.253	787.257
48.242	16.596	1029.183	787.501
49.257	16.739	1028.244	787.376
50.271	16.584	1027.431	785.962
51.286	16.566	1026.482	785.085
52.301	16.604	1026.291	785.047
53.315	16.658	1025.187	784.380
54.330	16.512	1024.176	782.862
55.344	16.438	1023.148	781.665
56.359	16.383	1022.105	780.546
57.374	16.410	1021.270	779.965
58.388	16.398	1020.228	779.041
59.403	16.261	1019.851	778.055
60.417	16.268	1019.014	777.380
61.432	16.193	1018.206	776.350
62.447	16.306	1017.176	776.014
63.461	16.230	1016.232	774.880
64.476	16.099	1015.411	773.584
65.490	16.122	1014.620	773.014
66.505	16.067	1013.575	771.901
67.520	16.096	1013.307	771.758
68.534	16.168	1012.025	771.043
69.549	16.205	1011.181	770.503
70.563	16.247	1010.269	769.933
71.578	16.224	1010.006	769.555
72.593	16.057	1009.161	768.086
73.607	15.907	1008.272	766.657
74.622	15.924	1007.610	766.165
75.636	16.012	1006.124	765.364
76.651	16.030	1005.350	764.789
77.666	15.966	1005.105	764.245
78.680	16.102	1003.941	763.910
79.695	16.103	1003.697	763.660
80.709	16.133	1003.210	763.356
81.724	16.304	1001.967	763.120
82.739	16.310	1001.323	762.586
83.753	16.320	1001.088	762.384
84.768	16.421	1000.258	762.140
85.782	16.633	999.551	762.490
86.797	16.938	998.818	763.237
87.812	16.978	997.687	762.485
88.826	16.720	997.192	760.881
89.841	16.610	996.418	759.727
90.855	16.653	995.454	759.120
91.870	16.815	994.476	759.034
92.884	16.754	994.645	758.819
93.899	16.831	993.465	758.195
94.914	16.725	992.879	757.210
95.928	16.806	992.283	757.048
96.943	16.920	991.045	756.545
97.957	16.740	990.844	755.523
98.972	16.733	989.574	754.457
99.987	16.754	988.673	753.797
101.001	16.716	988.412	753.364
102.016	16.747	987.413	752.670
103.030	16.681	986.574	751.675
104.045	16.769	985.746	751.366
105.060	16.825	984.535	750.624
106.074	16.723	983.537	749.347
107.089	16.507	982.816	747.774
108.103	16.295	981.619	745.863
109.118	16.317	980.510	745.052
110.133	16.221	979.821	744.038
111.147	16.380	978.656	743.787
112.162	16.196	978.042	742.445
113.176	16.152	977.507	741.781
114.191	16.255	976.278	741.234
115.206	16.431	975.473	741.328
116.220	16.285	974.857	740.154
117.235	16.365	973.839	739.668
118.249	16.271	973.455	738.900
119.264	16.310	972.637	738.382
120.279	16.236	971.539	737.162
121.293	16.141	971.127	736.370
122.308	16.118	970.085	735.414
123.322	16.115	968.913	734.446
124.337	16.012	967.661	732.982
125.352	15.981	966.916	732.221
126.366	16.093	965.485	731.559
127.381	16.024	964.619	730.536
128.395	15.989	963.843	729.732
129.410	16.053	963.090	729.377
130.424	16.220	961.644	728.938
131.439	16.147	961.300	728.298
132.454	16.276	960.287	728.020
133.468	16.306	960.052	727.908
134.483	16.349	959.493	727.605
135.497	16.410	958.587	727.118
136.512	16.348	957.678	726.096
137.527	16.311	957.557	725.783
138.541	16.409	956.557	725.381
139.556	16.315	955.936	724.442
140.570	16.343	955.398	724.092
141.585	16.457	954.430	723.782
142.600	16.520	954.018	723.672
143.614	16.848	952.887	724.153
144.629	16.728	952.128	723.000
145.643	16.784	951.589	722.765
146.658	16.710	950.868	721.837
147.673	16.688	949.730	720.818
148.687	16.460	948.636	718.952
149.702	16.405	947.759	717.994
150.716	16.406	947.003	717.358
151.731	16.370	946.101	716.460
152.746	16.359	945.421	715.836
153.760	16.445	944.553	715.481
154.775	16.463	943.711	714.855
155.789	16.589	943.205	714.941
156.804	16.634	942.463	714.503
157.819	16.630	941.711	713.854
158.833	16.636	941.023	713.292
159.848	16.798	940.363	713.412
160.862	16.788	940.001	713.033
161.877	16.829	939.008	712.388
162.892	16.605	937.665	710.367
163.906	16.467	936.847	709.104
164.921	16.527	935.778	708.484
165.935	16.549	934.842	707.808
166.950	16.458	934.275	706.932
167.964	16.582	933.004	706.427
168.979	16.524	932.189	705.506
169.994	16.592	931.367	705.106
171.008	16.454	930.806	704.044
172.023	16.572	929.809	703.716
173.037	16.596	929.213	703.306
174.052	16.677	928.898	703.339
175.067	16.740	928.003	702.861
176.081	16.686	926.837	701.692
177.096	16.485	925.987	700.153
178.110	16.382	925.099	698.994
179.125	16.661	924.314	699.491
180.140	16.514	923.857	698.477
181.154	16.610	922.715	697.948
182.169	16.629	922.817	698.044
183.183	16.814	922.179	698.261
184.198	16.784	921.521	697.577
185.213	16.885	920.665	697.281
186.227	16.794	920.236	696.520
187.242	16.880	919.455	696.224
188.256	16.925	919.224	696.172
189.271	17.180	918.173	696.358
190.286	17.060	917.791	695.517
191.300	16.927	916.577	693.991
192.315	16.514	915.754	691.614
193.329	16.366	914.741	690.184
194.344	16.340	914.497	689.836
195.359	16.446	913.937	689.783
196.373	16.684	913.449	690.325
197.388	16.779	912.880	690.221
198.402	16.906	912.456	690.358
199.417	17.048	912.135	690.630
200.432	17.107	911.826	690.577
201.446	17.173	911.679	690.672
202.461	17.199	911.173	690.333
203.475	17.368	910.752	690.637
204.490	17.336	909.977	689.861
205.504	17.162	908.930	688.298
206.519	17.101	908.001	687.289
207.534	17.056	907.140	686.396
208.548	16.885	906.616	685.247
209.563	17.051	905.630	685.111
210.577	17.176	904.984	685.065
211.592	17.097	904.417	684.258
212.607	17.048	904.116	683.771
213.621	17.345	903.693	684.587
214.636	17.242	902.822	683.450
215.650	17.194	902.154	682.692
216.665	17.271	901.732	682.620
217.680	17.349	900.951	682.282
218.694	17.405	900.919	682.425
219.709	17.402	900.294	681.877
220.723	17.509	899.905	681.952
221.738	17.477	898.541	680.729
222.753	17.401	898.188	680.098
223.767	17.368	897.473	679.366
224.782	17.261	897.249	678.708
225.796	17.576	896.005	678.961
226.811	17.551	895.454	678.384
227.826	17.435	894.889	677.434
228.840	17.295	894.329	676.394
229.855	17.359	893.776	676.172
230.869	17.277	892.857	675.090
231.884	17.333	892.494	674.978
232.899	17.310	891.551	674.113
233.913	17.255	890.939	673.375
234.928	17.234	890.392	672.817
235.942	17.077	889.442	671.420
236.957	17.227	888.722	671.409
237.972	17.258	887.725	670.718
238.986	17.114	887.045	669.579
240.001	17.201	886.470	669.426
241.015	17.328	885.601	669.211
242.030	17.211	885.627	668.710
243.045	17.344	884.915	668.637
244.059	17.321	884.394	668.093
245.074	17.360	883.647	667.623
246.088	17.483	883.021	667.574
247.103	17.506	882.585	667.275
248.117	17.616	882.069	667.256
249.132	17.751	881.628	667.394
250.147	17.875	881.221	667.514
251.161	18.039	880.678	667.683
252.176	18.021	880.241	667.221
253.190	18.108	879.096	666.632
254.205	18.114	878.848	666.408
255.220	18.190	878.206	666.161
256.234	18.212	877.044	665.306
257.249	18.005	877.044	664.440
258.263	18.184	876.088	664.356
259.278	18.064	875.573	663.439
260.293	18.134	875.533	663.620
261.307	18.149	874.960	663.188
262.322	18.275	874.362	663.162
263.336	18.366	873.359	662.697
264.351	18.436	872.932	662.582
265.366	18.386	872.373	661.908
266.380	18.374	871.338	661.016
267.395	18.421	871.123	660.976
268.409	18.138	870.734	659.533
269.424	18.167	869.463	658.623
270.439	18.291	868.663	658.435
271.453	18.178	867.929	657.387
272.468	18.032	867.102	656.142
273.482	18.226	866.470	656.349
274.497	18.098	865.941	655.399
275.512	18.228	864.834	655.000
276.526	18.213	864.620	654.726
277.541	18.192	864.071	654.169
278.555	18.241	863.048	653.524
279.570	18.310	862.979	653.680
280.585	18.326	863.009	653.703
281.599	18.555	862.066	653.805
282.614	18.167	861.669	651.969
283.628	18.366	860.569	651.837
284.643	18.230	859.954	650.795
285.657	18.339	859.728	650.979
286.672	18.398	858.781	650.431
287.687	18.319	858.518	649.872
288.701	18.460	857.884	649.870
289.716	18.452	857.141	649.220
290.730	18.458	856.730	648.873
291.745	18.271	856.506	647.937
292.760	18.342	855.485	647.379
293.774	18.425	855.004	647.272
294.789	18.630	854.308	647.461
295.803	18.711	853.497	647.091
296.818	18.510	853.338	646.158
297.833	18.464	852.299	645.139
298.847	18.396	851.664	644.348
299.862	18.336	851.451	643.902
300.876	18.455	850.568	643.625
301.891	18.710	849.890	644.014
302.906	18.684	849.543	643.597
303.920	18.594	849.098	642.862
304.935	18.795	848.296	642.952
305.949	18.993	847.854	643.299
306.964	18.902	847.322	642.501
307.979	18.790	846.378	641.307
308.993	18.649	846.365	640.714
310.008	18.921	845.344	640.901
311.022	18.830	844.863	640.142
312.037	18.796	844.573	639.737
313.052	18.767	843.821	639.002
314.066	18.611	842.908	637.674
315.081	18.509	842.481	636.918
316.095	18.525	841.880	636.465
317.110	18.603	841.197	636.182
318.125	18.576	840.581	635.558
319.139	18.567	840.168	635.158
320.154	18.609	840.111	635.216
321.168	18.670	838.967	634.519
322.183	18.612	838.942	634.227
323.197	18.732	838.725	634.451
324.212	18.782	837.759	633.850
325.227	18.686	837.131	632.966
326.241	18.606	836.341	632.015
327.256	18.553	836.338	631.764
328.270	18.594	835.743	631.409
329.285	18.656	834.975	631.001
330.300	18.625	834.367	630.374
331.314	18.688	834.024	630.288
332.329	18.625	833.592	629.674
333.343	18.817	832.762	629.695
334.358	18.817	832.303	629.295
335.373	18.789	831.814	628.765
336.387	18.973	831.189	628.911
337.402	18.931	830.860	628.451
338.416	19.113	830.119	628.500
339.431	19.042	829.764	627.917
340.446	19.237	829.496	628.371
341.460	19.232	828.825	627.788
342.475	19.351	828.371	627.820
343.489	19.344	827.523	627.098
344.504	19.466	826.839	626.968
345.519	19.536	826.381	626.817
346.533	19.611	825.670	626.495
347.548	19.472	825.821	626.050
348.562	19.341	825.068	624.949
349.577	19.231	824.351	623.954
350.592	18.957	823.895	622.561
351.606	18.934	823.566	622.173
352.621	19.069	822.843	622.061
353.635	19.148	822.317	621.894
354.650	19.224	822.134	621.973
355.665	19.122	821.849	621.335
356.679	19.220	820.849	620.877
357.694	19.219	820.931	620.880
358.708	19.288	820.069	620.424
359.723	19.278	819.603	619.978
360.738	19.365	818.725	619.574
361.752	19.200	818.620	618.847
362.767	19.411	817.957	619.049
363.781	19.489	817.877	619.211
364.796	19.477	817.409	618.759
365.810	19.698	816.859	619.081
366.825	19.839	816.667	619.384
367.840	19.652	816.529	618.555
368.854	19.711	815.783	618.148
369.869	19.695	815.141	617.550
370.883	19.594	814.421	616.586
371.898	19.630	814.075	616.400
372.913	19.738	813.578	616.355
373.927	19.742	812.787	615.716
374.942	19.648	812.346	614.990
375.956	19.681	811.746	614.601
376.971	19.637	811.490	614.197
377.986	19.842	810.632	614.221
379.000	20.007	810.252	614.463
380.015	19.950	809.948	613.977
381.029	19.800	809.603	613.128
382.044	19.738	808.904	612.326
383.059	19.943	807.938	612.264
384.073	19.955	807.483	611.909
385.088	19.983	806.566	611.259
386.102	19.782	806.251	610.257
387.117	19.740	805.855	609.755
388.132	19.684	805.143	608.963
389.146	19.640	804.631	608.370
390.161	19.611	804.750	608.303
391.175	19.902	804.464	609.058
392.190	20.102	803.751	609.167
393.205	19.923	803.256	608.108
394.219	19.667	802.945	606.918
395.234	19.804	802.289	606.849
396.248	19.647	801.877	605.935
397.263	19.578	801.364	605.251
398.278	19.640	800.578	604.821
399.292	19.615	800.352	604.509
400.307	19.577	799.909	603.990
401.321	19.465	799.592	603.304
402.336	19.634	799.560	603.819
403.350	19.643	798.843	603.254
404.365	19.909	798.188	603.634
405.380	19.838	797.629	602.909
406.394	20.024	797.265	603.230
407.409	20.126	797.529	603.730
408.423	20.056	796.900	602.958
409.438	20.196	796.232	602.886
410.453	20.194	795.883	602.561
411.467	20.357	795.350	602.671
412.482	20.505	794.488	602.478
413.496	20.424	794.447	602.114
414.511	20.353	794.325	601.719
415.526	20.342	793.895	601.302
416.540	20.257	793.730	600.830
417.555	20.410	792.903	600.679
418.569	20.324	792.586	600.090
419.584	20.316	792.312	599.801
420.599	20.404	791.432	599.387
421.613	161.070	1371.654	1796.058
422.628	139.525	1456.184	1796.146
