DTS Sentinel unit serial number:	SN413079Multiplexer serial number:	ORYXHardware model number:	OX4-SRSoftware version number:	ORYX F/W v4.00 Oryx Data Collector v3.7.2.0data status	okinstallation	princeton_trtdifferential loss correction	single-endedforward channel	channel 3reverse channel	N/Adate	2019/09/13time	17:28:35forward acquisition time	60.00reverse acquisition time	0.00gamma	496.2192k internal	0.2297k external	0.2297temperature offset calibration	1.0105default loss term (dB/km)	0.3790temperature slope calibration	1.0000multiplexer offset coefficient	1.0000multiplexer slope coefficient	1.0000fibre end	0.00T internal ref (°C)	36.12T ext. ref 1 (°C)	5.14T ext. ref 2 (°C)	30.16length (m)	temperature (°C)	Stokes	anti-Stokes-747.200	-200.000	0.026	0.169
-746.185	-200.000	-0.013	0.301
-745.171	-69.674	0.454	-0.177
-744.156	800.000	-0.050	0.223
-743.142	371.335	-0.065	-0.135
-742.127	-158.541	0.095	-0.006
-741.112	54.598	-0.120	-0.118
-740.098	-200.000	0.018	-0.161
-739.083	800.000	-0.009	0.030
-738.069	-200.000	-0.008	0.107
-737.054	-45.668	0.129	-0.065
-736.039	-3.265	-0.133	0.094
-735.025	76.639	-0.039	0.042
-734.010	-24.865	0.063	-0.038
-732.996	479.693	0.096	-0.222
-731.981	-200.000	0.008	-0.124
-730.966	461.245	0.132	0.300
-729.952	-141.106	-0.174	0.018
-728.937	-1.793	-0.293	-0.210
-727.923	85.656	-0.158	-0.177
-726.908	-18.524	0.238	-0.152
-725.894	-82.206	-0.347	-0.116
-724.879	-96.018	0.189	0.051
-723.864	800.000	0.074	0.211
-722.850	-15.577	0.205	0.133
-721.835	223.350	0.101	-0.166
-720.821	78.924	-0.146	0.159
-719.806	-58.099	-0.095	0.042
-718.791	-200.000	-0.017	-0.219
-717.777	241.520	0.092	0.158
-716.762	-46.972	-0.221	0.110
-715.748	625.861	0.100	-0.257
-714.733	493.758	-0.169	-0.396
-713.718	624.805	0.033	0.085
-712.704	-53.976	0.285	-0.132
-711.689	800.000	0.055	-0.212
-710.675	235.153	0.104	-0.174
-709.660	-200.000	-0.008	-0.064
-708.645	-107.460	-0.372	-0.083
-707.631	97.956	-0.117	0.137
-706.616	-131.996	-0.413	-0.055
-705.602	-27.525	0.164	-0.097
-704.587	-58.252	0.320	0.142
-703.572	46.941	0.155	-0.147
-702.558	286.716	0.092	-0.169
-701.543	91.312	0.113	0.129
-700.529	-131.038	0.292	-0.040
-699.514	-200.000	0.021	0.164
-698.499	54.708	-0.058	-0.057
-697.485	-14.891	-0.220	-0.144
-696.470	545.645	-0.072	0.176
-695.456	-79.808	-0.235	0.081
-694.441	-25.779	-0.115	-0.069
-693.426	800.000	0.071	-0.261
-692.412	-200.000	-0.023	-0.186
-691.397	579.780	-0.034	0.084
-690.383	-5.605	-0.344	-0.240
-689.368	-34.418	-0.089	-0.050
-688.354	-200.000	-0.011	0.388
-687.339	-15.387	-0.144	0.094
-686.324	-132.354	-0.216	-0.028
-685.310	8.014	0.293	-0.224
-684.295	-109.932	-0.330	-0.070
-683.281	800.000	-0.039	-0.113
-682.266	305.279	-0.057	0.109
-681.251	56.704	-0.128	-0.127
-680.237	245.081	-0.186	0.318
-679.222	800.000	-0.163	0.667
-678.208	268.721	0.030	-0.053
-677.193	0.781	-0.138	-0.100
-676.178	-200.000	0.150	-0.000
-675.164	85.429	0.171	0.192
-674.149	160.990	0.269	-0.382
-673.135	564.763	-0.080	-0.198
-672.120	-65.963	0.130	-0.053
-671.105	-114.008	0.388	-0.077
-670.091	-200.000	-0.088	-0.396
-669.076	252.315	-0.160	-0.277
-668.062	4.237	-0.168	-0.125
-667.047	327.486	0.143	-0.279
-666.032	-105.195	-0.254	-0.059
-665.018	25.513	0.191	-0.162
-664.003	-18.005	-0.280	0.179
-662.989	84.674	0.067	-0.075
-661.974	-101.661	-0.239	-0.059
-660.959	92.911	0.137	0.158
-659.945	188.976	0.137	0.208
-658.930	-21.572	0.338	0.210
-657.916	-200.000	0.067	0.359
-656.901	95.743	-0.094	0.110
-655.886	-86.548	-0.488	-0.152
-654.872	600.313	0.163	0.411
-653.857	-64.662	0.153	0.063
-652.843	248.448	-0.172	-0.296
-651.828	-160.229	-0.192	-0.011
-650.814	-79.894	-0.403	0.138
-649.799	441.503	0.033	0.073
-648.784	71.614	-0.158	-0.167
-647.770	800.000	0.096	0.396
-646.755	32.187	0.200	-0.176
-645.741	-200.000	0.047	0.218
-644.726	496.936	0.122	-0.285
-643.711	-200.000	-0.062	-0.334
-642.697	97.328	0.103	-0.121
-641.682	800.000	0.043	-0.184
-640.668	-61.226	-0.323	-0.138
-639.653	371.119	0.123	0.253
-638.638	-23.760	0.263	-0.160
-637.624	663.262	0.129	-0.338
-636.609	-109.197	-0.272	-0.059
-635.595	-200.000	0.388	0.001
-634.580	-200.000	0.076	-0.344
-633.565	800.000	-0.045	-0.157
-632.551	349.940	-0.156	-0.313
-631.536	-17.502	-0.261	-0.167
-630.522	-0.649	-0.033	0.024
-629.507	175.766	-0.154	0.227
-628.492	33.862	0.291	0.258
-627.478	-61.362	0.271	-0.116
-626.463	-200.000	-0.025	-0.337
-625.449	800.000	-0.075	-0.229
-624.434	-99.576	0.340	-0.087
-623.419	266.392	0.074	0.132
-622.405	-166.356	0.159	-0.007
-621.390	16.620	-0.219	-0.176
-620.376	800.000	0.042	0.187
-619.361	-200.000	-0.005	0.052
-618.346	-102.773	0.161	0.039
-617.332	-200.000	0.057	-0.360
-616.317	139.731	-0.334	-0.447
-615.303	-74.882	0.165	-0.060
-614.288	-56.277	-0.034	0.015
-613.273	249.959	-0.035	0.061
-612.259	787.558	0.013	0.035
-611.244	-36.325	0.299	-0.164
-610.230	441.373	-0.105	-0.233
-609.215	-45.476	0.081	-0.041
-608.201	-90.348	-0.144	-0.043
-607.186	-104.062	0.127	0.030
-606.171	-65.311	-0.292	0.119
-605.157	-105.874	-0.162	-0.037
-604.142	-84.255	-0.084	0.027
-603.128	14.479	0.054	-0.043
-602.113	-19.800	-0.186	0.117
-601.098	-118.419	-0.192	-0.035
-600.084	238.183	-0.100	-0.169
-599.069	-191.636	-0.184	0.002
-598.055	-200.000	-0.034	-0.332
-597.040	-42.758	-0.136	-0.070
-596.025	0.468	-0.340	0.247
-595.011	-5.982	-0.040	0.028
-593.996	800.000	-0.048	0.162
-592.982	-200.000	0.007	-0.255
-591.967	-25.458	-0.267	-0.160
-590.952	-54.424	0.125	-0.058
-589.938	-200.000	-0.034	-0.352
-588.923	800.000	-0.042	-0.165
-587.909	-200.000	0.008	-0.167
-586.894	800.000	0.073	-0.255
-585.879	104.656	0.042	-0.050
-584.865	-91.797	0.100	-0.029
-583.850	-55.870	-0.110	-0.050
-582.836	737.878	-0.067	0.182
-581.821	-175.495	-0.226	0.006
-580.806	-128.743	0.169	-0.024
-579.792	-200.000	0.027	0.198
-578.777	-89.529	0.093	0.028
-577.763	-107.630	-0.161	-0.036
-576.748	36.953	0.092	0.083
-575.733	-140.573	0.142	0.015
-574.719	6.855	-0.141	0.107
-573.704	-200.000	0.057	0.338
-572.690	92.422	-0.121	0.139
-571.675	-138.825	0.114	-0.013
-570.661	800.000	0.049	-0.158
-569.646	800.000	-0.068	0.210
-568.631	54.907	0.357	-0.349
-567.617	-62.629	0.272	-0.114
-566.602	800.000	-0.088	-0.366
-565.588	-34.319	0.191	-0.106
-564.573	800.000	0.071	0.291
-563.558	-200.000	-0.017	0.090
-562.544	160.682	-0.087	0.123
-561.529	-3.636	-0.182	-0.128
-560.515	-200.000	-0.022	-0.149
-559.500	315.530	0.088	0.168
-558.485	-95.101	-0.396	0.108
-557.471	-182.195	0.454	0.009
-556.456	151.173	-0.118	-0.163
-555.442	202.525	0.075	-0.117
-554.427	-200.000	-0.001	0.078
-553.412	800.000	-0.066	0.228
-552.398	132.197	-0.211	0.276
-551.383	10.652	-0.268	-0.207
-550.369	-126.718	-0.298	-0.045
-549.354	-95.257	-0.240	0.065
-548.339	15.227	0.082	0.065
-547.325	-113.921	0.126	-0.025
-546.310	-62.897	0.390	-0.163
-545.296	4.473	0.205	0.152
-544.281	800.000	-0.024	0.073
-543.266	800.000	-0.129	-0.465
-542.252	-32.781	-0.063	0.036
-541.237	308.705	0.042	-0.079
-540.223	-64.536	-0.214	0.088
-539.208	-200.000	0.038	0.232
-538.193	800.000	-0.052	-0.215
-537.179	-76.138	0.203	-0.073
-536.164	-200.000	0.029	-0.319
-535.150	86.303	-0.116	0.130
-534.135	-22.728	0.352	0.215
-533.121	154.426	-0.078	0.108
-532.106	-33.953	-0.303	-0.169
-531.091	-200.000	-0.003	-0.262
-530.077	241.498	-0.136	0.229
-529.062	370.571	-0.179	-0.367
-528.048	-13.063	0.070	0.046
-527.033	280.151	0.097	-0.175
-526.018	-15.395	-0.300	0.194
-525.004	-200.000	0.004	0.083
-523.989	225.931	-0.231	0.380
-522.975	-200.000	-0.016	-0.165
-521.960	-114.507	-0.219	-0.043
-520.945	-129.617	0.093	0.013
-519.931	89.474	0.125	0.141
-518.916	-200.000	0.000	0.079
-517.902	46.188	-0.049	0.046
-516.887	-65.306	-0.105	-0.043
-515.872	-76.489	-0.372	-0.132
-514.858	319.663	0.095	-0.183
-513.843	316.832	-0.052	-0.099
-512.829	-200.000	-0.001	0.058
-511.814	-5.845	0.176	-0.122
-510.799	75.165	-0.051	0.055
-509.785	253.023	0.156	-0.269
-508.770	-138.231	0.222	-0.025
-507.756	-75.561	-0.214	0.077
-506.741	-156.273	0.294	0.019
-505.726	87.667	-0.131	0.147
-504.712	-31.598	0.101	-0.057
-503.697	-119.552	0.153	0.027
-502.683	-103.851	0.268	0.063
-501.668	529.364	-0.051	0.122
-500.653	-109.208	-0.139	-0.030
-499.639	98.533	0.044	0.051
-498.624	-153.866	0.191	-0.013
-497.610	-38.180	0.097	-0.052
-496.595	99.246	-0.128	0.150
-495.581	292.153	0.089	-0.164
-494.566	-85.905	-0.118	-0.037
-493.551	176.549	0.103	-0.151
-492.537	-79.997	-0.379	0.129
-491.522	-200.000	0.009	0.243
-490.508	-200.000	0.030	-0.321
-489.493	800.000	0.045	0.151
-488.478	-200.000	0.015	-0.148
-487.464	-58.512	-0.107	-0.047
-486.449	49.146	0.116	0.110
-485.435	-200.000	-0.012	0.239
-484.420	-200.000	0.028	0.233
-483.405	800.000	-0.051	0.202
-482.391	-16.395	-0.352	0.226
-481.376	-12.863	0.151	0.099
-480.362	210.208	-0.077	-0.122
-479.347	-121.284	-0.098	0.017
-478.332	249.630	0.095	-0.163
-477.318	172.867	-0.166	-0.242
-476.303	-127.851	-0.247	0.036
-475.289	-141.331	0.175	-0.018
-474.274	-33.054	-0.130	0.073
-473.259	-146.099	0.046	-0.004
-472.245	288.599	0.078	-0.143
-471.230	17.786	0.273	0.219
-470.216	-124.465	-0.361	-0.057
-469.201	234.654	-0.216	-0.360
-468.186	-138.868	-0.161	0.018
-467.172	-16.275	-0.212	0.136
-466.157	-24.219	0.310	0.187
-465.143	-60.384	-0.044	-0.019
-464.128	-81.003	0.263	-0.088
-463.113	-146.790	-0.091	0.008
-462.099	559.637	0.030	-0.072
-461.084	-200.000	0.004	0.021
-460.070	800.000	-0.038	0.152
-459.055	-200.000	0.011	0.269
-458.040	85.329	0.111	0.123
-457.026	672.743	-0.041	-0.108
-456.011	769.270	0.036	0.099
-454.997	71.531	-0.117	-0.123
-453.982	-70.359	0.240	0.092
-452.968	-200.000	0.051	-0.293
-451.953	138.153	0.039	-0.052
-450.938	40.963	-0.175	-0.160
-449.924	800.000	0.085	0.268
-448.909	800.000	0.046	0.163
-447.895	77.679	0.283	-0.305
-446.880	668.565	-0.115	0.301
-445.865	-117.320	0.142	0.026
-444.851	-55.700	0.060	-0.027
-443.836	-34.579	-0.356	-0.197
-442.822	67.551	-0.042	0.043
-441.807	-200.000	-0.028	-0.216
-440.792	-200.000	-0.375	-0.001
-439.778	-19.750	0.063	0.040
-438.763	-110.771	0.109	-0.023
-437.749	439.808	-0.110	0.243
-436.734	-200.000	0.028	-0.410
-435.719	-129.177	-0.077	0.011
-434.705	-60.609	0.221	-0.095
-433.690	5.451	-0.323	-0.240
-432.676	-83.253	0.206	0.067
-431.661	128.347	0.093	-0.119
-430.646	-200.000	-0.040	0.201
-429.632	-200.000	-0.047	0.354
-428.617	90.878	-0.083	0.094
-427.603	93.623	-0.165	0.189
-426.588	-200.000	0.023	0.245
-425.573	-82.108	0.032	0.011
-424.559	-200.000	0.017	-0.125
-423.544	657.255	0.048	0.125
-422.530	-66.523	0.199	-0.080
-421.515	143.756	-0.246	-0.331
-420.500	-160.898	0.470	0.025
-419.486	145.508	-0.056	-0.076
-418.471	-140.628	0.321	-0.034
-417.457	-81.120	-0.533	0.178
-416.442	800.000	-0.056	-0.230
-415.428	94.342	0.361	0.413
-414.413	263.135	-0.153	0.268
-413.398	-200.000	-0.019	0.130
-412.384	-200.000	-0.024	-0.116
-411.369	-200.000	0.070	-0.399
-410.355	352.373	-0.031	-0.062
-409.340	-94.808	0.060	-0.016
-408.325	59.870	-0.112	-0.111
-407.311	25.078	0.196	0.164
-406.296	11.377	-0.269	0.208
-405.282	-98.164	0.278	0.072
-404.267	213.525	0.155	0.247
-403.252	26.979	0.208	0.176
-402.238	37.271	-0.085	0.076
-401.223	383.920	0.105	0.218
-400.209	75.502	-0.097	0.103
-399.194	564.959	0.011	-0.026
-398.179	800.000	-0.036	-0.108
-397.165	800.000	-0.019	-0.055
-396.150	-200.000	-0.017	-0.458
-395.136	576.223	0.066	-0.162
-394.121	-121.381	-0.080	-0.013
-393.106	199.268	-0.198	-0.305
-392.092	29.755	0.104	0.089
-391.077	-200.000	0.003	-0.055
-390.063	-81.819	0.334	-0.110
-389.048	-101.203	0.376	-0.093
-388.033	-30.960	-0.238	-0.135
-387.019	193.750	0.108	0.165
-386.004	5.930	-0.271	0.202
-384.990	-200.000	-0.021	-0.223
-383.975	286.252	0.054	0.098
-382.960	1.858	0.270	-0.196
-381.946	-200.000	-0.009	-0.218
-380.931	-195.172	0.158	0.001
-379.917	-46.277	0.153	0.076
-378.902	163.356	-0.139	0.196
-377.888	131.507	0.206	0.267
-376.873	369.969	-0.045	-0.092
-375.858	19.991	-0.260	0.211
-374.844	-138.257	-0.222	-0.025
-373.829	8.256	0.285	0.216
-372.815	800.000	0.027	-0.080
-371.800	800.000	-0.055	0.186
-370.785	47.060	-0.108	-0.101
-369.771	76.365	-0.138	-0.147
-368.756	-4.109	-0.283	-0.198
-367.742	209.053	0.171	0.269
-366.727	25.001	0.073	0.061
-365.712	-27.688	0.154	-0.090
-364.698	-4.374	0.210	0.146
-363.683	-138.103	0.245	0.027
-362.669	62.721	0.143	0.144
-361.654	-174.114	-0.093	-0.003
-360.639	-97.179	0.120	0.031
-359.625	133.670	0.073	0.096
-358.610	-124.854	-0.320	-0.050
-357.596	-29.083	0.240	-0.139
-356.581	-35.909	-0.277	-0.151
-355.566	-200.000	-0.064	0.467
-354.552	561.787	0.065	-0.159
-353.537	-200.000	-0.017	-0.079
-352.523	-37.133	0.261	0.141
-351.508	-126.759	0.338	0.050
-350.493	-125.201	0.165	0.025
-349.479	-200.000	0.004	-0.227
-348.464	-183.854	0.071	0.001
-347.450	-27.182	-0.241	0.141
-346.435	-200.000	-0.010	-0.116
-345.420	-106.528	0.311	0.070
-344.406	800.000	0.078	0.265
-343.391	704.050	0.046	0.122
-342.377	-37.299	-0.121	0.065
-341.362	-200.000	-0.018	0.103
-340.348	-200.000	0.030	0.141
-339.333	800.000	-0.057	-0.239
-338.318	22.903	0.241	0.199
-337.304	50.797	0.197	0.187
-336.289	26.473	-0.065	-0.055
-335.275	-5.587	0.282	0.194
-334.260	18.348	0.092	0.074
-333.245	23.152	0.112	0.093
-332.231	83.211	-0.120	0.131
-331.216	-118.215	0.275	0.049
-330.202	-86.997	-0.269	-0.082
-329.187	800.000	0.111	-0.351
-328.172	-70.131	-0.111	0.042
-327.158	-33.297	0.252	0.140
-326.143	-23.086	-0.082	-0.050
-325.129	-66.572	-0.238	-0.095
-324.114	44.179	0.064	0.059
-323.099	-200.000	0.003	0.196
-322.085	-200.000	-0.045	0.342
-321.070	66.081	-0.233	0.238
-320.056	-61.304	-0.295	0.125
-319.041	-89.079	-0.102	-0.030
-318.026	800.000	-0.063	0.224
-317.012	151.976	-0.156	0.213
-315.997	800.000	-0.052	-0.226
-314.983	44.484	-0.129	-0.119
-313.968	-113.208	0.324	0.064
-312.953	7.252	-0.176	-0.132
-311.939	44.554	-0.198	0.183
-310.924	-54.924	0.296	0.134
-309.910	199.762	-0.180	0.278
-308.895	-200.000	-0.001	-0.145
-307.880	742.055	-0.028	-0.074
-306.866	-91.810	0.137	-0.039
-305.851	-200.000	-0.012	-0.184
-304.837	800.000	0.057	0.184
-303.822	222.154	0.094	-0.151
-302.807	-200.000	0.007	-0.068
-301.793	33.208	-0.199	0.174
-300.778	-48.987	0.177	0.085
-299.764	-19.530	-0.328	-0.204
-298.749	800.000	-0.069	-0.279
-297.735	-200.000	-0.009	0.086
-296.720	-200.000	-0.019	-0.238
-295.705	764.288	-0.147	-0.401
-294.691	515.412	0.033	0.078
-293.676	-41.342	-0.092	0.048
-292.662	-200.000	0.005	-0.033
-291.647	700.094	0.021	0.054
-290.632	-200.000	-0.064	-0.381
-289.618	-83.256	-0.046	-0.015
-288.603	87.067	-0.111	-0.123
-287.589	-200.000	0.073	0.320
-286.574	-200.000	0.026	-0.258
-285.559	-139.543	0.259	-0.028
-284.545	-112.280	-0.173	-0.035
-283.530	-200.000	-0.034	0.582
-282.516	-4.055	-0.162	0.113
-281.501	21.177	0.215	0.175
-280.486	-200.000	0.079	-0.392
-279.472	43.564	-0.144	-0.132
-278.457	-13.908	-0.142	-0.092
-277.443	-14.362	0.163	-0.105
-276.428	-200.000	0.044	0.209
-275.413	463.831	0.020	0.044
-274.399	226.084	0.049	0.079
-273.384	-131.317	0.539	0.072
-272.370	-68.829	0.086	-0.033
-271.355	109.472	0.067	-0.081
-270.340	-200.000	-0.006	0.057
-269.326	800.000	-0.049	0.195
-268.311	-124.753	0.260	0.040
-267.297	-5.717	0.107	-0.073
-266.282	-89.762	-0.033	0.010
-265.267	-6.499	0.256	0.175
-264.253	446.991	-0.071	-0.157
-263.238	-39.136	0.375	0.198
-262.224	-51.460	-0.248	-0.116
-261.209	-144.222	-0.021	0.002
-260.195	-200.000	-0.074	-0.396
-259.180	79.226	0.266	-0.286
-258.165	-38.284	0.120	0.064
-257.151	-155.882	0.195	-0.012
-256.136	40.927	-0.164	0.148
-255.122	26.465	0.298	0.250
-254.107	-17.347	-0.114	-0.072
-253.092	-40.758	-0.031	-0.016
-252.078	111.126	0.096	0.115
-251.063	195.528	0.114	0.174
-250.049	-36.057	0.312	-0.169
-249.034	800.000	0.064	-0.201
-248.019	19.388	0.115	-0.093
-247.005	-200.000	-0.011	0.374
-245.990	189.985	0.127	-0.190
-244.976	800.000	-0.067	-0.188
-243.961	-6.870	0.128	0.087
-242.946	158.647	0.263	0.366
-241.932	-31.577	-0.365	0.205
-240.917	-11.845	-0.165	-0.108
-239.903	43.017	-0.141	0.129
-238.888	-200.000	0.021	-0.212
-237.873	800.000	0.085	0.328
-236.859	-42.417	0.109	-0.056
-235.844	-47.695	-0.181	-0.088
-234.830	800.000	-0.038	0.146
-233.815	378.786	0.058	0.119
-232.800	-29.696	-0.244	0.140
-231.786	96.111	-0.167	-0.191
-230.771	545.087	-0.085	0.203
-229.757	-111.640	0.400	-0.081
-228.742	-44.819	0.073	0.036
-227.727	-200.000	0.011	0.061
-226.713	75.351	-0.186	0.196
-225.698	434.875	0.117	0.256
-224.684	-21.863	-0.145	-0.088
-223.669	214.699	-0.106	-0.169
-222.655	63.613	0.160	0.161
-221.640	-111.376	0.418	0.085
-220.625	-51.511	0.250	-0.117
-219.611	312.134	-0.042	-0.079
-218.596	128.131	-0.189	-0.241
-217.582	-160.971	-0.238	0.013
-216.567	387.401	-0.042	0.086
-215.552	-84.790	-0.141	-0.044
-214.538	148.669	-0.124	0.167
-213.523	-67.575	-0.430	0.169
-212.509	-104.793	-0.079	-0.018
-211.494	57.282	0.147	0.144
-210.479	757.940	-0.100	-0.270
-209.465	800.000	-0.001	0.003
-208.450	-68.673	-0.210	0.081
-207.436	65.832	-0.081	-0.082
-206.421	148.896	-0.101	-0.137
-205.406	736.946	-0.066	0.176
-204.392	222.001	-0.127	0.205
-203.377	-170.176	0.145	0.005
-202.363	-55.424	0.099	0.045
-201.348	-25.294	0.162	-0.096
-200.333	-63.590	-0.073	0.030
-199.319	37.086	0.326	-0.288
-198.304	-200.000	-0.050	-0.267
-197.290	254.366	-0.144	-0.247
-196.275	800.000	-0.112	-0.359
-195.260	-49.525	-0.087	-0.042
-194.246	-200.000	0.003	0.031
-193.231	-200.000	-0.017	0.246
-192.217	-6.727	-0.281	0.191
-191.202	39.702	0.127	-0.114
-190.187	-140.859	-0.164	-0.017
-189.173	800.000	-0.143	0.605
-188.158	-134.173	-0.223	0.027
-187.144	-111.435	-0.205	0.042
-186.129	81.460	0.258	0.279
-185.114	-109.969	-0.163	0.034
-184.100	-200.000	-0.058	0.288
-183.085	-77.703	0.201	-0.070
-182.071	614.444	0.041	-0.102
-181.056	-48.157	-0.143	0.069
-180.042	152.235	0.160	-0.219
-179.027	112.739	-0.166	-0.201
-178.012	-179.684	-0.239	-0.005
-176.998	-200.000	0.029	0.210
-175.983	-73.409	-0.244	0.089
-174.969	-13.367	0.185	-0.120
-173.954	67.524	0.284	0.289
-172.939	-200.000	-0.040	0.410
-171.925	12.254	0.163	0.125
-170.910	12.369	0.105	-0.081
-169.896	-21.292	-0.163	-0.099
-168.881	-69.968	-0.380	0.145
-167.866	-56.806	0.336	0.148
-166.852	-32.625	-0.093	0.052
-165.837	-54.570	0.222	0.100
-164.823	-0.031	0.075	-0.053
-163.808	-102.197	0.242	0.058
-162.793	295.162	-0.047	0.085
-161.779	-54.663	0.057	-0.026
-160.764	88.346	-0.079	-0.087
-159.750	-145.634	-0.209	0.019
-158.735	-0.316	0.209	-0.148
-157.720	800.000	0.031	-0.092
-156.706	48.208	-0.091	-0.085
-155.691	585.535	-0.169	-0.415
-154.677	-97.653	-0.133	0.034
-153.662	-200.000	-0.045	0.327
-152.647	-129.935	-0.152	-0.021
-151.633	349.663	-0.088	-0.174
-150.618	697.967	0.022	-0.058
-149.604	113.572	0.208	-0.252
-148.589	-200.000	-0.020	0.196
-147.574	428.160	0.058	0.124
-146.560	-200.000	0.011	-0.304
-145.545	247.428	0.004	-0.007
-144.531	-86.149	-0.059	0.018
-143.516	-167.930	0.364	0.014
-142.502	609.945	0.156	-0.389
-141.487	-108.435	-0.162	0.035
-140.472	-39.481	-0.098	-0.051
-139.458	-49.174	-0.356	-0.170
-138.443	129.869	-0.235	-0.300
-137.429	230.312	-0.058	0.094
-136.414	-1.997	-0.162	-0.114
-135.399	-19.052	0.128	-0.080
-134.385	-199.808	-0.045	0.000
-133.370	-59.029	0.232	-0.100
-132.356	800.000	-0.017	0.054
-131.341	-112.794	0.151	0.030
-130.326	-99.369	0.084	0.021
-129.312	580.738	-0.080	0.195
-128.297	-121.568	-0.064	-0.011
-127.283	262.364	0.197	0.340
-126.268	-200.000	-0.021	-0.141
-125.253	160.592	0.103	-0.143
-124.239	120.153	-0.295	0.364
-123.224	352.340	-0.098	-0.195
-122.210	17.268	0.264	0.209
-121.195	-152.272	-0.116	0.008
-120.180	122.549	0.201	0.251
-119.166	-200.000	0.012	0.076
-118.151	-68.928	0.240	-0.092
-117.137	-200.000	0.269	0.001
-116.122	685.072	-0.048	0.126
-115.107	110.006	-0.119	0.142
-114.093	-200.000	0.090	0.442
-113.078	-1.869	-0.197	-0.138
-112.064	800.000	0.096	-0.368
-111.049	57.699	-0.202	0.196
-110.034	346.303	-0.159	-0.312
-109.020	606.006	0.087	-0.215
-108.005	-200.000	-0.003	0.081
-106.991	242.515	0.118	0.197
-105.976	-77.150	-0.153	0.053
-104.962	-200.000	0.022	-0.160
-103.947	284.046	-0.093	-0.166
-102.932	238.273	-0.130	-0.216
-101.918	-2.244	0.218	-0.152
-100.903	-200.000	-0.007	-0.045
-99.889	574.561	0.148	0.360
-98.874	-72.457	-0.232	0.085
-97.859	800.000	0.079	-0.292
-96.845	-200.000	0.041	0.211
-95.830	800.000	0.023	0.100
-94.816	53.914	-0.158	0.151
-93.801	35.039	-0.254	0.222
-92.786	-42.666	0.090	0.046
-91.772	-138.379	0.118	0.013
-90.757	-70.994	-0.174	-0.065
-89.743	800.000	-0.016	0.070
-88.728	800.000	0.047	-0.187
-87.713	706.091	0.049	0.127
-86.699	-38.083	0.168	0.089
-85.684	242.661	0.189	-0.316
-84.670	60.393	-0.419	0.413
-83.655	232.179	0.105	-0.171
-82.640	-79.782	-0.095	0.032
-81.626	-145.318	-0.171	-0.015
-80.611	371.404	0.183	-0.370
-79.597	-108.210	-0.246	-0.053
-78.582	52.080	-0.246	0.233
-77.567	36.439	0.191	-0.168
-76.553	-142.211	0.418	-0.041
-75.538	793.341	0.164	-0.450
-74.524	-77.311	-0.257	-0.089
-73.509	86.271	-0.252	-0.277
-72.494	-133.279	0.174	0.022
-71.480	4.145	0.081	-0.059
-70.465	456.199	0.064	-0.142
-69.451	-122.217	0.271	0.044
-68.436	-87.088	0.643	0.195
-67.422	266.605	0.170	-0.296
-66.407	-62.223	-0.117	0.049
-65.392	1.782	0.076	0.055
-64.378	534.032	-0.179	0.421
-63.363	50.633	0.203	-0.191
-62.349	-200.000	0.040	0.197
-61.334	84.294	-0.980	-1.066
-60.319	-37.506	0.555	0.294
-59.305	506.897	-0.291	-0.672
-58.290	800.000	0.212	0.827
-57.276	280.641	0.626	1.113
-56.261	-200.000	90.564	533.840
-55.246	580.117	1388.108	3380.534
-54.232	185.086	2597.698	3831.822
-53.217	121.115	2221.459	2748.721
-52.203	46.401	1750.003	1613.293
-51.188	39.088	1556.633	1383.720
-50.173	36.621	1528.747	1341.790
-49.159	54.508	1576.427	1510.023
-48.144	58.463	1595.267	1555.858
-47.130	39.754	1552.690	1384.670
-46.115	36.390	1537.136	1347.326
-45.100	36.290	1533.893	1343.735
-44.086	36.125	1532.463	1341.278
-43.071	36.173	1529.940	1339.350
-42.057	36.115	1528.563	1337.687
-41.042	36.102	1527.084	1336.257
-40.027	36.172	1525.754	1335.519
-39.013	36.058	1524.274	1333.386
-37.998	36.038	1522.952	1332.039
-36.984	36.118	1521.683	1331.426
-35.969	36.094	1520.494	1330.165
-34.954	36.141	1518.779	1328.936
-33.940	36.049	1518.158	1327.705
-32.925	36.202	1515.806	1326.650
-31.911	36.096	1515.288	1325.412
-30.896	36.275	1513.179	1324.750
-29.881	36.226	1512.178	1323.481
-28.867	36.169	1510.589	1321.647
-27.852	36.138	1509.534	1320.461
-26.838	36.263	1507.558	1319.535
-25.823	36.146	1506.147	1317.452
-24.809	36.174	1504.681	1316.304
-23.794	36.198	1503.149	1315.077
-22.779	36.206	1502.159	1314.211
-21.765	36.153	1500.856	1312.658
-20.750	36.044	1500.376	1311.445
-19.736	36.140	1498.729	1310.607
-18.721	36.210	1497.333	1309.811
-17.706	36.099	1496.367	1308.160
-16.692	36.186	1495.251	1307.719
-15.677	36.044	1494.473	1306.026
-14.663	36.117	1493.522	1305.641
-13.648	36.109	1492.190	1304.365
-12.633	36.006	1491.375	1302.909
-11.619	36.031	1490.608	1302.357
-10.604	36.159	1489.163	1301.905
-9.590	36.129	1488.567	1301.131
-8.575	36.065	1487.812	1299.988
-7.560	36.193	1486.704	1299.828
-6.546	36.142	1486.129	1298.929
-5.531	36.085	1484.856	1297.379
-4.517	36.032	1483.950	1296.182
-3.502	36.110	1482.924	1295.760
-2.487	36.066	1481.947	1294.560
-1.473	36.150	1481.024	1294.267
-0.458	36.143	1479.508	1292.841
0.556	37.433	1469.480	1281.182
1.571	33.773	1441.448	1232.921
2.586	28.879	1375.342	1145.858
3.600	26.026	1288.691	1056.879
4.615	23.586	1239.949	1003.041
5.629	19.573	1182.126	934.512
6.644	11.871	1097.256	828.507
7.659	6.173	1056.730	769.999
8.673	5.293	1051.129	761.559
9.688	5.104	1048.505	758.673
10.702	5.108	1046.793	757.386
11.717	5.036	1045.477	756.017
12.731	6.797	1046.082	764.923
13.746	13.785	1055.742	805.969
14.761	20.070	1063.845	842.755
15.775	21.151	1064.439	848.404
16.790	20.483	1062.218	843.320
17.804	19.453	1060.359	836.778
18.819	18.668	1058.174	831.178
19.834	18.132	1057.066	827.640
20.848	17.915	1056.770	826.284
21.863	17.747	1055.945	824.755
22.877	17.638	1055.216	823.584
23.892	17.377	1054.169	821.436
24.907	17.300	1053.478	820.453
25.921	17.303	1053.036	820.053
26.936	17.346	1051.908	819.309
27.950	17.469	1050.645	818.841
28.965	17.481	1049.958	818.290
29.980	17.418	1048.743	816.971
30.994	17.550	1047.537	816.592
32.009	17.648	1046.958	816.538
33.023	17.737	1046.256	816.346
34.038	17.854	1045.145	815.964
35.053	17.696	1044.228	814.420
36.067	17.525	1043.653	813.084
37.082	17.429	1043.006	812.049
38.096	17.510	1041.652	811.310
39.111	17.622	1041.002	811.266
40.126	17.672	1040.290	810.874
41.140	17.579	1038.689	809.114
42.155	17.359	1037.759	807.274
43.169	17.258	1036.644	805.855
44.184	17.141	1035.611	804.428
45.199	17.135	1034.411	803.396
46.213	17.112	1033.662	802.636
47.228	17.252	1032.504	802.325
48.242	17.478	1031.772	802.754
49.257	17.498	1031.176	802.310
50.271	17.493	1030.078	801.364
51.286	17.508	1029.220	800.696
52.301	17.542	1028.909	800.545
53.315	17.530	1027.797	799.549
54.330	17.498	1026.657	798.443
55.344	17.378	1025.674	797.046
56.359	17.299	1025.006	796.088
57.374	17.268	1023.828	794.956
58.388	17.170	1023.505	794.174
59.403	17.117	1022.609	793.164
60.417	17.172	1021.713	792.655
61.432	17.075	1020.993	791.572
62.447	17.094	1020.069	790.877
63.461	17.062	1019.456	790.181
64.476	16.997	1018.327	788.936
65.490	16.919	1017.396	787.780
66.505	16.929	1016.597	787.140
67.520	17.019	1015.863	786.919
68.534	17.108	1014.916	786.526
69.549	16.950	1014.735	785.586
70.563	16.997	1013.381	784.687
71.578	16.949	1013.041	784.133
72.593	16.758	1011.881	782.280
73.607	16.779	1010.902	781.553
74.622	16.839	1009.878	780.970
75.636	16.895	1008.653	780.210
76.651	16.853	1008.305	779.678
77.666	16.889	1007.568	779.207
78.680	16.941	1006.976	778.915
79.695	16.969	1006.309	778.461
80.709	16.909	1005.799	777.720
81.724	16.989	1004.998	777.402
82.739	17.177	1004.296	777.647
83.753	17.224	1003.679	777.320
84.768	17.364	1002.930	777.310
85.782	17.470	1002.605	777.472
86.797	17.768	1001.947	778.253
87.812	17.675	1001.432	777.359
88.826	17.562	999.988	775.655
89.841	17.503	999.146	774.665
90.855	17.561	998.396	774.278
91.870	17.645	998.107	774.369
92.884	17.624	997.602	773.813
93.899	17.638	996.583	773.018
94.914	17.708	995.544	772.459
95.928	17.725	994.808	771.898
96.943	17.729	993.985	771.207
97.957	17.614	993.615	770.333
98.972	17.499	992.362	768.776
99.987	17.599	991.735	768.671
101.001	17.567	991.113	767.979
102.016	17.637	990.354	767.638
103.030	17.681	988.816	766.577
104.045	17.618	988.442	765.935
105.060	17.621	987.171	764.897
106.074	17.514	985.951	763.403
107.089	17.468	984.832	762.263
108.103	17.036	984.058	759.661
109.118	17.043	983.059	758.856
110.133	16.895	982.840	757.956
111.147	16.978	981.930	757.560
112.162	17.080	980.599	756.921
113.176	17.029	980.176	756.298
114.191	17.045	979.357	755.672
115.206	17.195	978.235	755.406
116.220	17.239	977.365	754.864
117.235	17.061	976.674	753.473
118.249	17.120	975.761	752.961
119.264	17.082	974.430	751.703
120.279	16.993	973.894	750.828
121.293	16.975	972.968	749.968
122.308	17.046	972.275	749.679
123.322	16.755	971.928	748.063
124.337	16.850	970.569	747.370
125.352	16.879	969.342	746.487
126.366	16.778	968.424	745.267
127.381	16.950	967.331	745.118
128.395	16.903	966.367	744.104
129.410	16.874	965.337	743.116
130.424	16.963	964.906	743.107
131.439	17.042	963.767	742.513
132.454	17.095	963.542	742.503
133.468	17.268	962.307	742.242
134.483	17.208	961.906	741.605
135.497	17.254	961.412	741.359
136.512	17.183	960.781	740.498
137.527	17.267	959.626	739.906
138.541	17.251	959.126	739.387
139.556	17.191	958.451	738.541
140.570	17.239	957.627	738.047
141.585	17.359	956.689	737.781
142.600	17.618	956.189	738.453
143.614	17.567	955.910	737.949
144.629	17.596	954.859	737.201
145.643	17.683	954.194	736.996
146.658	17.708	953.192	736.269
147.673	17.666	951.650	734.827
148.687	17.442	950.777	733.125
149.702	17.254	950.266	731.855
150.716	17.217	949.166	730.784
151.731	17.273	948.036	730.090
152.746	17.232	947.705	729.594
153.760	17.311	946.830	729.195
154.775	17.256	946.480	728.628
155.789	17.486	945.105	728.487
156.804	17.400	944.848	727.857
157.819	17.543	943.695	727.517
158.833	17.556	943.107	727.052
159.848	17.586	942.781	726.866
160.862	17.724	942.103	726.866
161.877	17.737	941.100	726.086
162.892	17.383	940.224	723.839
163.906	17.328	939.067	722.651
164.921	17.312	938.240	721.881
165.935	17.214	937.392	720.749
166.950	17.299	936.228	720.150
167.964	17.426	935.369	719.965
168.979	17.394	934.428	719.041
169.994	17.383	933.538	718.247
171.008	17.255	932.996	717.227
172.023	17.428	931.608	716.822
173.037	17.548	931.532	717.209
174.052	17.713	930.497	717.041
175.067	17.637	930.273	716.488
176.081	17.397	929.091	714.504
177.096	17.287	928.125	713.236
178.110	17.125	927.488	712.006
179.125	17.424	926.201	712.204
180.140	17.223	926.237	711.330
181.154	17.246	925.414	710.730
182.169	17.401	924.681	710.753
183.183	17.575	924.106	710.971
184.198	17.664	923.607	710.896
185.213	17.670	922.811	710.245
186.227	17.812	921.848	710.033
187.242	17.738	921.561	709.441
188.256	17.751	921.300	709.231
189.271	17.848	920.329	708.827
190.286	17.886	919.652	708.401
191.300	17.799	918.541	707.121
192.315	17.331	917.735	704.498
193.329	17.272	916.587	703.311
194.344	17.185	916.383	702.731
195.359	17.334	916.027	703.012
196.373	17.391	915.744	702.967
197.388	17.563	914.938	702.997
198.402	17.546	914.960	702.884
199.417	17.831	914.155	703.377
200.432	18.035	913.782	703.869
201.446	18.051	913.402	703.578
202.461	18.075	913.227	703.482
203.475	18.211	912.532	703.444
204.490	18.227	912.252	703.230
205.504	17.994	910.761	701.064
206.519	17.812	909.927	699.610
207.534	17.783	909.505	699.105
208.548	17.712	908.399	697.904
209.563	17.767	907.948	697.720
210.577	17.812	907.199	697.268
211.592	17.862	906.645	696.986
212.607	18.085	906.064	697.384
213.621	18.138	905.825	697.357
214.636	18.148	905.035	696.727
215.650	18.012	904.363	695.596
216.665	18.130	903.787	695.568
217.680	18.060	903.572	695.059
218.694	18.284	902.666	695.208
219.709	18.273	902.287	694.813
220.723	18.307	901.901	694.589
221.738	18.236	900.696	693.315
222.753	18.059	900.309	692.237
223.767	18.138	899.346	691.756
224.782	18.195	898.729	691.450
225.796	18.487	897.759	691.821
226.811	18.413	897.387	691.173
227.826	18.559	896.296	690.860
228.840	18.184	895.752	688.872
229.855	18.132	895.624	688.504
230.869	18.043	894.808	687.458
231.884	18.084	893.957	686.908
232.899	18.139	892.644	686.056
233.913	18.105	892.009	685.375
234.928	18.035	891.544	684.676
235.942	18.061	890.583	683.980
236.957	18.021	890.415	683.628
237.972	17.975	889.476	682.665
238.986	17.912	889.170	682.117
240.001	17.987	888.536	681.871
241.015	18.138	887.331	681.486
242.030	18.073	887.091	680.984
243.045	18.151	886.475	680.762
244.059	18.218	886.083	680.665
245.074	18.217	885.299	679.998
246.088	18.183	884.867	679.473
247.103	18.353	884.324	679.669
248.117	18.411	883.831	679.462
249.132	18.541	883.187	679.420
250.147	18.564	883.251	679.503
251.161	18.748	882.217	679.373
252.176	18.903	881.692	679.521
253.190	18.973	880.837	679.081
254.205	18.984	880.489	678.796
255.220	19.032	879.941	678.502
256.234	18.868	879.225	677.242
257.249	19.010	878.462	677.155
258.263	18.919	878.127	676.480
259.278	18.982	877.390	676.097
260.293	18.938	876.781	675.398
261.307	18.947	876.558	675.199
262.322	19.117	875.841	675.255
263.336	19.037	875.500	674.619
264.351	19.182	874.426	674.301
265.366	19.287	874.166	674.451
266.380	19.139	873.453	673.262
267.395	19.102	872.810	672.561
268.409	19.147	871.622	671.762
269.424	18.945	871.277	670.649
270.439	18.943	870.685	670.127
271.453	19.063	869.854	669.897
272.468	18.941	868.715	668.483
273.482	18.917	867.980	667.768
274.497	18.894	867.401	667.173
275.512	18.882	866.810	666.613
276.526	18.926	866.463	666.459
277.541	18.880	865.355	665.367
278.555	19.035	865.127	665.734
279.570	18.964	865.236	665.485
280.585	19.323	864.316	666.104
281.599	19.345	863.851	665.771
282.614	19.178	862.861	664.306
283.628	19.045	862.396	663.377
284.643	19.019	861.696	662.681
285.657	19.003	861.692	662.555
286.672	19.137	860.673	662.228
287.687	19.169	860.192	661.924
288.701	19.154	859.840	661.537
289.716	19.162	859.036	660.888
290.730	19.079	858.526	660.123
291.745	19.088	857.616	659.398
292.760	19.299	856.964	659.645
293.774	19.299	856.501	659.233
294.789	19.479	855.863	659.369
295.803	19.460	855.697	659.109
296.818	19.159	855.011	657.376
297.833	19.185	854.171	656.770
298.847	19.150	853.277	655.891
299.862	19.236	852.707	655.723
300.876	19.286	852.342	655.574
301.891	19.251	851.593	654.805
302.906	19.473	850.977	655.120
303.920	19.473	850.508	654.699
304.935	19.600	850.071	654.785
305.949	19.715	849.449	654.683
306.964	19.697	848.947	654.172
307.979	19.477	848.057	652.597
308.993	19.530	847.618	652.402
310.008	19.523	847.142	651.952
311.022	19.759	846.713	652.452
312.037	19.623	846.420	651.657
313.052	19.438	845.624	650.288
314.066	19.488	844.500	649.557
315.081	19.417	843.955	648.811
316.095	19.310	843.442	647.957
317.110	19.285	843.030	647.492
318.125	19.257	842.354	646.809
319.139	19.245	841.870	646.334
320.154	19.416	841.250	646.441
321.168	19.194	841.081	645.422
322.183	19.428	840.307	645.647
323.197	19.336	840.018	645.026
324.212	19.401	839.314	644.669
325.227	19.528	838.739	644.647
326.241	19.463	838.414	644.096
327.256	19.345	837.586	642.963
328.270	19.581	836.463	642.923
329.285	19.345	836.359	641.909
330.300	19.484	835.519	641.721
331.314	19.297	835.590	641.027
332.329	19.450	834.965	641.058
333.343	19.656	834.286	641.244
334.358	19.632	833.923	640.820
335.373	19.711	833.434	640.678
336.387	19.880	832.609	640.613
337.402	19.728	832.360	639.804
338.416	19.798	831.577	639.403
339.431	19.823	831.432	639.327
340.446	19.998	830.983	639.573
341.460	19.980	830.642	639.189
342.475	20.195	829.420	638.983
343.489	20.254	829.213	638.984
344.504	20.195	829.025	638.564
345.519	20.276	828.241	638.204
346.533	20.294	827.827	637.896
347.548	20.342	827.357	637.650
348.562	20.200	826.408	636.344
349.577	19.821	825.873	634.485
350.592	19.808	825.169	633.840
351.606	19.763	824.529	633.128
352.621	19.820	824.211	633.035
353.635	19.587	824.115	632.053
354.650	19.872	823.408	632.496
355.665	19.830	823.079	632.036
356.679	19.992	822.713	632.289
357.694	20.101	821.711	631.862
358.708	20.005	821.721	631.462
359.723	19.987	821.016	630.799
360.738	19.963	820.318	630.120
361.752	20.075	819.968	630.202
362.767	20.090	819.522	629.858
363.781	20.180	819.150	629.844
364.796	20.343	818.680	630.019
365.810	20.523	818.469	630.455
366.825	20.605	817.739	630.133
367.840	20.675	817.530	630.168
368.854	20.421	817.622	629.266
369.869	20.411	816.618	628.398
370.883	20.327	816.126	627.663
371.898	20.403	815.590	627.469
372.913	20.478	814.850	627.115
373.927	20.494	814.515	626.858
374.942	20.496	813.890	626.330
375.956	20.470	813.217	625.663
376.971	20.542	812.186	625.072
377.986	20.591	811.941	625.004
379.000	20.645	811.841	625.068
380.015	20.826	811.220	625.183
381.029	20.760	810.361	624.230
382.044	20.873	809.790	624.141
383.059	20.805	809.442	623.573
384.073	20.715	808.770	622.676
385.088	20.668	808.782	622.462
386.102	20.563	807.556	621.091
387.117	20.566	806.890	620.532
388.132	20.538	806.458	620.046
389.146	20.431	806.034	619.282
390.161	20.465	806.031	619.348
391.175	20.608	805.633	619.496
392.190	20.787	804.972	619.572
393.205	20.619	804.584	618.621
394.219	20.568	804.150	618.048
395.234	20.377	803.708	616.977
396.248	20.706	802.419	617.099
397.263	20.408	802.113	615.755
398.278	20.260	801.807	614.939
399.292	20.270	801.629	614.784
400.307	20.139	801.371	614.067
401.321	20.248	800.552	613.773
402.336	20.487	800.001	614.139
403.350	20.526	800.106	614.302
404.365	20.501	799.655	613.815
405.380	20.658	799.360	614.087
406.394	20.747	798.824	613.936
407.409	20.889	798.369	614.034
408.423	20.953	797.913	613.851
409.438	21.004	797.581	613.722
410.453	21.020	797.274	613.489
411.467	21.136	796.558	613.290
412.482	21.104	796.119	612.787
413.496	21.191	796.000	612.945
414.511	21.269	795.667	612.908
415.526	21.177	795.243	612.204
416.540	21.099	794.992	611.684
417.555	21.087	794.172	610.958
418.569	21.240	793.556	610.965
419.584	20.999	793.208	609.800
420.599	21.384	792.605	610.627
421.613	155.644	1366.609	1784.117
422.628	134.760	1450.265	1784.254
