DTS Sentinel unit serial number:	SN413079Multiplexer serial number:	ORYXHardware model number:	OX4-SRSoftware version number:	ORYX F/W v4.00 Oryx Data Collector v3.7.2.0data status	okinstallation	princeton_trtdifferential loss correction	single-endedforward channel	channel 3reverse channel	N/Adate	2019/09/13time	18:04:35forward acquisition time	60.00reverse acquisition time	0.00gamma	496.2192k internal	0.2308k external	0.2308temperature offset calibration	1.0122default loss term (dB/km)	0.3790temperature slope calibration	1.0000multiplexer offset coefficient	1.0000multiplexer slope coefficient	1.0000fibre end	0.00T internal ref (°C)	34.78T ext. ref 1 (°C)	4.65T ext. ref 2 (°C)	27.51length (m)	temperature (°C)	Stokes	anti-Stokes-747.200	-81.287	0.191	0.064
-746.185	71.484	-0.103	0.109
-745.171	108.647	0.100	-0.121
-744.156	-143.965	-0.239	-0.023
-743.142	139.864	-0.030	-0.041
-742.127	19.263	0.144	0.117
-741.112	-93.700	-0.245	0.069
-740.098	46.274	0.119	-0.112
-739.083	418.727	-0.103	-0.225
-738.069	160.996	0.144	0.204
-737.054	289.316	-0.100	-0.185
-736.039	-118.882	-0.211	0.038
-735.025	-158.638	0.261	0.015
-734.010	330.885	-0.120	-0.234
-732.996	800.000	-0.059	-0.255
-731.981	401.612	0.112	0.239
-730.966	-44.324	-0.122	-0.062
-729.952	581.266	-0.198	-0.493
-728.937	16.734	0.096	0.077
-727.923	-133.514	-0.187	-0.024
-726.908	405.968	0.127	0.271
-725.894	142.735	-0.084	-0.114
-724.879	-98.599	-0.157	-0.041
-723.864	-62.007	-0.285	0.121
-722.850	121.662	-0.062	-0.079
-721.835	800.000	-0.116	-0.338
-720.821	-111.434	-0.283	-0.059
-719.806	-101.276	-0.221	-0.055
-718.791	-120.387	-0.100	-0.017
-717.777	-174.243	0.069	-0.002
-716.762	151.418	-0.201	-0.278
-715.748	-200.000	0.039	0.188
-714.733	-102.495	-0.197	-0.048
-713.718	-120.970	0.126	-0.021
-712.704	-200.000	-0.051	-0.392
-711.689	167.754	0.079	-0.114
-710.675	309.322	-0.042	0.079
-709.660	1.807	-0.070	0.051
-708.645	108.892	0.176	0.214
-707.631	800.000	-0.021	-0.085
-706.616	39.021	-0.134	-0.121
-705.602	-200.000	-0.011	-0.164
-704.587	-179.372	-0.161	-0.004
-703.572	-200.000	-0.052	-0.260
-702.558	-105.261	-0.317	-0.073
-701.543	-50.340	0.285	-0.137
-700.529	-104.188	-0.096	-0.023
-699.514	-84.640	0.214	-0.069
-698.499	800.000	-0.069	-0.221
-697.485	800.000	-0.059	-0.231
-696.470	187.621	0.134	-0.202
-695.456	150.591	-0.069	0.095
-694.441	-200.000	-0.005	0.118
-693.426	800.000	0.021	0.062
-692.412	131.768	0.077	-0.101
-691.397	276.694	0.126	-0.227
-690.383	237.464	-0.159	0.267
-689.368	-83.303	-0.361	-0.118
-688.354	-134.722	-0.218	0.027
-687.339	-15.359	0.345	0.223
-686.324	619.842	0.067	-0.170
-685.310	488.380	0.158	-0.365
-684.295	56.338	-0.097	-0.096
-683.281	800.000	-0.067	-0.260
-682.266	738.565	-0.065	-0.176
-681.251	370.963	0.114	-0.235
-680.237	295.127	0.145	-0.269
-679.222	-158.144	-0.224	-0.013
-678.208	389.110	-0.121	0.253
-677.193	75.503	0.031	-0.033
-676.178	-103.590	0.531	-0.126
-675.164	-91.943	0.075	0.021
-674.149	-158.346	-0.288	-0.017
-673.135	422.683	0.047	-0.101
-672.120	-200.000	0.010	-0.092
-671.105	-52.478	-0.112	0.053
-670.091	34.322	-0.151	0.134
-669.076	800.000	-0.073	-0.257
-668.062	214.030	-0.146	0.235
-667.047	800.000	-0.079	-0.225
-666.032	758.861	0.085	0.232
-665.018	-20.810	0.288	-0.179
-664.003	-50.880	-0.226	-0.107
-662.989	-200.000	0.027	0.158
-661.974	103.192	-0.157	0.186
-660.959	-200.000	0.012	-0.463
-659.945	-200.000	-0.037	-0.556
-658.930	280.599	-0.159	-0.289
-657.916	228.438	0.135	0.223
-656.901	-94.963	-0.161	-0.044
-655.886	181.106	-0.229	-0.341
-654.872	-200.000	-0.015	0.122
-653.857	55.442	0.079	0.078
-652.843	389.140	-0.054	0.113
-651.828	-11.287	-0.254	-0.170
-650.814	-61.238	-0.274	-0.117
-649.799	211.672	0.079	-0.126
-648.784	325.631	0.175	-0.338
-647.770	-200.000	0.035	0.182
-646.755	101.399	-0.258	0.304
-645.741	132.279	-0.147	0.191
-644.726	-91.484	-0.233	0.067
-643.711	49.604	0.086	-0.082
-642.697	-200.000	-0.019	-0.314
-641.682	-32.157	0.200	0.113
-640.668	-44.512	0.086	-0.043
-639.653	63.373	-0.214	0.217
-638.638	-95.978	-0.211	-0.057
-637.624	-16.421	-0.280	-0.180
-636.609	-50.583	0.239	-0.114
-635.595	-175.314	-0.519	-0.014
-634.580	167.453	-0.118	0.170
-633.565	81.076	0.141	-0.154
-632.551	2.524	-0.259	-0.190
-631.536	29.604	-0.075	0.064
-630.522	-200.000	-0.029	-0.212
-629.507	-176.802	0.290	-0.007
-628.492	83.254	0.135	-0.149
-627.478	-200.000	0.022	0.112
-626.463	42.152	0.221	0.203
-625.449	-52.466	0.268	0.125
-624.434	-158.607	-0.170	-0.010
-623.419	-200.000	-0.040	-0.272
-622.405	-141.308	-0.287	-0.030
-621.390	-200.000	-0.008	-0.408
-620.376	143.640	0.192	-0.259
-619.361	775.289	0.207	-0.572
-618.346	-70.307	0.080	-0.031
-617.332	-116.334	0.144	-0.027
-616.317	34.132	-0.134	-0.118
-615.303	276.896	0.048	0.087
-614.288	-149.653	0.322	-0.026
-613.273	-200.000	-0.015	0.279
-612.259	800.000	-0.073	-0.293
-611.244	535.238	0.094	-0.225
-610.230	-200.000	0.021	-0.220
-609.215	149.394	0.093	0.128
-608.201	-64.338	0.491	0.202
-607.186	198.503	0.121	0.188
-606.171	-200.000	0.024	-0.420
-605.157	277.576	0.132	-0.237
-604.142	602.738	-0.051	-0.128
-603.128	-156.757	0.182	-0.011
-602.113	89.160	-0.174	0.196
-601.098	-21.373	0.208	-0.128
-600.084	30.851	-0.242	-0.210
-599.069	317.403	-0.013	0.025
-598.055	-15.546	0.151	0.097
-597.040	158.303	-0.030	-0.042
-596.025	-200.000	-0.007	0.367
-595.011	5.411	-0.252	-0.188
-593.996	21.504	-0.073	-0.060
-592.982	154.308	-0.199	0.276
-591.967	800.000	-0.019	0.056
-590.952	186.975	0.061	0.091
-589.938	653.257	0.026	-0.067
-588.923	9.435	-0.356	-0.272
-587.909	800.000	0.057	-0.184
-586.894	-5.846	0.154	-0.106
-585.879	10.235	0.100	0.077
-584.865	629.898	0.141	0.360
-583.850	-103.274	-0.344	-0.082
-582.836	93.609	-0.036	-0.041
-581.821	-129.650	0.452	-0.063
-580.806	125.520	-0.113	-0.144
-579.792	342.038	0.073	0.144
-578.777	-94.762	-0.047	-0.013
-577.763	-148.719	-0.152	-0.012
-576.748	47.198	-0.109	0.103
-575.733	126.415	0.251	-0.321
-574.719	-200.000	0.009	0.287
-573.704	598.090	-0.129	0.323
-572.690	207.892	0.100	-0.158
-571.675	382.751	0.057	-0.119
-570.661	-142.984	-0.087	-0.009
-569.646	-23.704	0.289	0.175
-568.631	-200.000	0.003	0.167
-567.617	-200.000	-0.010	0.057
-566.602	-83.768	-0.265	-0.085
-565.588	231.321	0.094	0.155
-564.573	-66.374	-0.187	0.075
-563.558	338.936	0.086	-0.169
-562.544	-82.226	0.309	-0.102
-561.529	14.848	0.140	0.110
-560.515	-51.834	0.193	-0.091
-559.500	220.200	0.054	-0.087
-558.485	266.516	-0.082	-0.145
-557.471	-81.899	-0.119	-0.039
-556.456	-200.000	0.004	-0.378
-555.442	-200.000	0.164	0.000
-554.427	9.494	0.241	-0.184
-553.412	-200.000	0.022	-0.166
-552.398	-122.940	-0.215	0.035
-551.383	-200.000	0.005	-0.083
-550.369	91.340	0.117	-0.133
-549.354	476.385	0.192	0.438
-548.339	-143.586	0.117	0.011
-547.325	-200.000	0.010	-0.180
-546.310	-200.000	0.000	-0.143
-545.296	476.961	-0.138	-0.314
-544.281	-200.000	-0.005	-0.245
-543.266	-119.793	-0.079	0.014
-542.252	-44.783	0.466	0.234
-541.237	108.441	-0.149	-0.180
-540.223	-46.067	0.231	-0.115
-539.208	-200.000	0.018	0.225
-538.193	530.297	0.076	0.182
-537.179	800.000	-0.030	-0.122
-536.164	128.750	0.238	-0.306
-535.150	155.641	-0.239	0.332
-534.135	-86.430	0.443	0.137
-533.121	100.468	-0.150	-0.175
-532.106	-104.378	-0.213	0.050
-531.091	728.927	0.054	0.144
-530.077	113.864	-0.149	-0.182
-529.062	374.620	0.060	-0.123
-528.048	-158.847	0.104	-0.006
-527.033	485.667	0.110	-0.252
-526.018	-200.000	-0.005	-0.262
-525.004	351.279	0.201	0.400
-523.989	-110.612	-0.174	0.036
-522.975	-127.908	-0.196	-0.028
-521.960	81.900	0.189	-0.206
-520.945	24.211	0.221	0.184
-519.931	-116.567	0.311	0.058
-518.916	-114.151	0.043	-0.008
-517.902	-82.417	0.149	0.049
-516.887	304.256	-0.109	-0.203
-515.872	237.502	-0.052	-0.088
-514.858	-200.000	-0.066	-0.294
-513.843	-67.775	-0.252	0.099
-512.829	800.000	-0.052	-0.214
-511.814	-130.946	0.494	-0.067
-510.799	-200.000	-0.014	0.206
-509.785	-200.000	-0.024	-0.319
-508.770	-200.000	0.036	-0.234
-507.756	661.166	-0.068	-0.177
-506.741	-200.000	-0.020	0.201
-505.726	13.412	0.189	-0.147
-504.712	-30.809	0.161	-0.092
-503.697	12.453	-0.164	0.127
-502.683	341.860	-0.238	-0.469
-501.668	-68.727	-0.390	-0.152
-500.653	-200.000	0.002	0.374
-499.639	1.863	0.055	-0.040
-498.624	-74.071	0.106	0.039
-497.610	424.283	-0.110	0.238
-496.595	414.927	0.078	0.167
-495.581	55.076	0.022	-0.021
-494.566	511.242	0.163	0.382
-493.551	-77.436	-0.226	0.079
-492.537	-200.000	-0.090	-0.408
-491.522	22.591	-0.134	0.110
-490.508	-123.638	-0.250	0.040
-489.493	-52.971	-0.053	0.024
-488.478	-115.120	0.165	0.032
-487.464	72.096	-0.162	0.170
-486.449	36.121	0.192	0.170
-485.435	-184.678	-0.269	-0.004
-484.420	-200.000	0.003	0.053
-483.405	-200.000	0.018	0.135
-482.391	-200.000	0.023	0.129
-481.376	-65.556	-0.244	0.099
-480.362	83.846	0.099	-0.109
-479.347	98.651	0.111	-0.129
-478.332	-57.167	0.144	0.064
-477.318	367.930	-0.127	-0.257
-476.303	-94.169	0.266	-0.073
-475.289	-0.342	0.225	0.161
-474.274	586.293	-0.090	0.223
-473.259	-200.000	-0.011	-0.106
-472.245	-51.408	0.141	0.066
-471.230	447.490	0.055	-0.121
-470.216	79.853	-0.197	0.212
-469.201	106.407	0.186	-0.222
-468.186	-34.486	0.222	0.122
-467.172	-200.000	0.034	-0.233
-466.157	-54.873	-0.044	-0.020
-465.143	85.682	0.072	-0.080
-464.128	-82.151	-0.145	0.047
-463.113	800.000	-0.058	0.237
-462.099	139.746	0.163	-0.216
-461.084	58.597	-0.154	-0.152
-460.070	-107.013	-0.249	0.055
-459.055	800.000	-0.056	-0.157
-458.040	219.701	-0.112	0.181
-457.026	99.420	0.299	0.348
-456.011	-86.076	-0.082	0.025
-454.997	778.035	-0.049	0.135
-453.982	800.000	-0.055	0.165
-452.968	1.565	-0.241	0.174
-451.953	-200.000	-0.030	0.144
-450.938	67.463	-0.040	0.041
-449.924	30.668	-0.205	0.176
-448.909	93.999	0.156	-0.178
-447.895	-89.699	0.134	-0.039
-446.880	-28.115	0.174	-0.101
-445.865	800.000	-0.063	-0.188
-444.851	-133.523	0.095	-0.012
-443.836	-177.451	-0.255	0.006
-442.822	-200.000	-0.015	0.222
-441.807	95.010	0.448	-0.512
-440.792	205.626	-0.084	-0.131
-439.778	2.773	-0.081	0.059
-438.763	-140.179	-0.140	-0.015
-437.749	-64.080	0.101	0.041
-436.734	119.031	-0.026	-0.032
-435.719	165.993	-0.202	-0.286
-434.705	-200.000	0.076	-0.538
-433.690	62.285	0.166	-0.166
-432.676	800.000	-0.079	-0.328
-431.661	181.883	-0.145	-0.214
-430.646	-63.033	0.156	0.065
-429.632	-200.000	0.044	-0.221
-428.617	800.000	0.053	-0.212
-427.603	-37.675	0.225	0.120
-426.588	-200.000	0.015	0.527
-425.573	-68.774	-0.135	0.052
-424.559	-11.521	-0.261	-0.172
-423.544	48.659	0.026	-0.025
-422.530	-24.185	-0.307	-0.184
-421.515	333.425	-0.154	0.299
-420.500	162.874	0.125	0.177
-419.486	-200.000	-0.040	-0.190
-418.471	58.006	-0.064	-0.063
-417.457	-8.368	0.047	-0.032
-416.442	664.121	0.093	0.241
-415.428	-120.994	0.133	-0.022
-414.413	-200.000	0.003	-0.255
-413.398	-14.718	-0.073	0.047
-412.384	-106.476	-0.095	-0.021
-411.369	-174.529	-0.133	-0.004
-410.355	621.950	-0.182	0.459
-409.340	800.000	-0.046	0.170
-408.325	40.406	0.145	0.131
-407.311	21.118	0.232	-0.189
-406.296	-200.000	-0.007	-0.119
-405.282	-200.000	0.023	-0.177
-404.267	330.493	0.194	-0.375
-403.252	86.020	-0.443	-0.489
-402.238	-112.736	0.318	0.063
-401.223	79.647	0.190	0.205
-400.209	-130.594	0.146	-0.020
-399.194	99.934	-0.028	0.032
-398.179	-200.000	-0.042	-0.335
-397.165	-200.000	-0.013	-0.194
-396.150	800.000	0.038	-0.110
-395.136	-200.000	0.023	-0.112
-394.121	-156.056	-0.238	0.015
-393.106	-200.000	-0.064	0.293
-392.092	-200.000	0.004	0.317
-391.077	61.895	0.124	0.124
-390.063	70.725	0.217	-0.226
-389.048	800.000	-0.083	-0.241
-388.033	-126.039	-0.070	0.011
-387.019	-102.852	0.103	-0.024
-386.004	-63.753	0.151	0.062
-384.990	346.393	0.120	0.237
-383.975	-64.559	0.092	0.037
-382.960	9.499	0.107	0.081
-381.946	275.653	0.102	-0.181
-380.931	-135.481	-0.053	-0.006
-379.917	-26.024	-0.272	-0.160
-378.902	800.000	-0.052	0.194
-377.888	-170.509	-0.152	0.005
-376.873	800.000	-0.032	-0.120
-375.858	415.583	-0.105	-0.224
-374.844	-121.180	0.263	0.044
-373.829	-200.000	0.071	-0.397
-372.815	800.000	-0.042	-0.181
-371.800	800.000	0.089	0.278
-370.785	578.870	0.056	0.137
-369.771	18.221	0.124	-0.099
-368.756	800.000	0.047	0.133
-367.742	282.316	0.202	0.362
-366.727	800.000	0.119	0.394
-365.712	-22.425	0.086	-0.052
-364.698	800.000	-0.052	-0.189
-363.683	562.495	0.078	0.189
-362.669	800.000	-0.033	0.117
-361.654	18.930	0.205	0.164
-360.639	5.682	-0.292	0.216
-359.625	-86.804	-0.179	-0.055
-358.610	27.026	0.039	-0.033
-357.596	-83.304	-0.114	0.037
-356.581	-200.000	-0.013	0.169
-355.566	25.759	0.122	0.102
-354.552	-47.987	-0.138	0.067
-353.537	0.057	-0.201	-0.143
-352.523	-80.212	-0.345	0.115
-351.508	34.467	-0.116	0.101
-350.493	800.000	0.094	0.266
-349.479	-200.000	0.041	0.264
-348.464	-139.606	0.233	0.025
-347.450	367.530	0.127	0.258
-346.435	800.000	0.064	0.249
-345.420	189.911	-0.239	-0.359
-344.406	-100.274	0.078	0.019
-343.391	-200.000	0.036	0.335
-342.377	-20.835	-0.173	-0.106
-341.362	32.707	-0.158	0.137
-340.348	-200.000	-0.026	0.142
-339.333	800.000	0.129	-0.356
-338.318	-152.586	-0.072	-0.005
-337.304	-92.550	0.324	-0.091
-336.289	46.439	-0.153	-0.142
-335.275	99.204	-0.139	0.161
-334.260	800.000	0.091	0.296
-333.245	-27.536	0.391	0.227
-332.231	278.126	0.158	-0.282
-331.216	271.889	0.208	0.366
-330.202	-200.000	-0.017	0.146
-329.187	-45.454	0.306	-0.152
-328.172	72.225	-0.012	0.013
-327.158	-200.000	0.014	0.125
-326.143	-14.314	0.217	0.140
-325.129	-109.409	0.104	0.022
-324.114	-200.000	0.019	-0.190
-323.099	674.941	-0.015	0.040
-322.085	-39.352	0.330	0.173
-321.070	-171.512	-0.066	0.002
-320.056	-133.809	0.166	0.021
-319.041	-131.534	0.222	-0.029
-318.026	-121.526	0.223	-0.037
-317.012	-82.406	-0.143	0.046
-315.997	208.260	-0.192	0.299
-314.983	-200.000	-0.104	0.470
-313.968	393.210	-0.158	-0.330
-312.953	800.000	0.111	0.313
-311.939	22.506	0.323	-0.264
-310.924	-22.722	0.149	-0.090
-309.910	-50.723	-0.385	0.181
-308.895	-65.729	-0.195	-0.078
-307.880	800.000	0.077	0.290
-306.866	23.001	0.447	-0.366
-305.851	-74.819	-0.231	-0.083
-304.837	241.091	-0.166	0.277
-303.822	-192.506	0.155	-0.001
-302.807	517.122	-0.173	-0.404
-301.793	326.472	0.082	-0.156
-300.778	42.675	-0.263	0.239
-299.764	151.799	-0.155	0.211
-298.749	40.020	0.162	-0.146
-297.735	403.795	0.052	0.109
-296.720	800.000	0.151	0.457
-295.705	-39.953	0.138	-0.072
-294.691	167.855	0.098	-0.140
-293.676	-83.337	-0.267	-0.086
-292.662	-200.000	0.026	0.280
-291.647	-159.517	0.172	0.010
-290.632	-68.547	-0.018	0.007
-289.618	-200.000	-0.023	0.169
-288.603	-32.097	-0.095	-0.053
-287.589	800.000	0.034	-0.097
-286.574	-9.776	-0.046	-0.031
-285.559	49.075	-0.093	-0.088
-284.545	-64.142	0.116	0.047
-283.530	73.586	0.209	0.218
-282.516	37.407	-0.187	-0.165
-281.501	43.932	-0.058	0.053
-280.486	25.517	0.150	-0.124
-279.472	206.016	-0.104	0.162
-278.457	-200.000	0.054	0.266
-277.443	6.126	0.097	-0.072
-276.428	57.817	-0.268	-0.262
-275.413	20.203	-0.084	0.068
-274.399	-12.145	-0.161	-0.105
-273.384	-200.000	-0.017	-0.508
-272.370	-113.473	-0.278	-0.054
-271.355	63.791	0.091	-0.091
-270.340	38.922	-0.205	-0.182
-269.326	-69.122	-0.265	0.102
-268.311	53.983	-0.142	0.136
-267.297	-106.034	0.182	-0.041
-266.282	800.000	-0.038	-0.106
-265.267	-77.045	0.173	0.060
-264.253	-200.000	0.066	0.459
-263.238	-60.347	-0.377	0.160
-262.224	341.862	-0.053	0.104
-261.209	-85.810	0.285	0.088
-260.195	-191.543	-0.078	-0.001
-259.180	259.197	0.091	-0.157
-258.165	-200.000	0.006	-0.045
-257.151	-137.005	-0.086	-0.010
-256.136	-1.495	0.153	-0.108
-255.122	-7.835	-0.133	-0.089
-254.107	-200.000	0.027	0.195
-253.092	260.011	0.239	0.411
-252.078	-109.084	-0.177	0.038
-251.063	673.656	-0.103	0.267
-250.049	559.980	-0.093	-0.224
-249.034	187.371	0.133	0.198
-248.019	-15.174	-0.147	-0.094
-247.005	-113.811	-0.131	0.025
-245.990	-9.145	-0.139	-0.093
-244.976	-60.037	-0.333	-0.142
-243.961	-200.000	0.084	0.427
-242.946	-4.269	-0.209	-0.144
-241.932	-200.000	-0.006	0.076
-240.917	213.689	-0.125	-0.197
-239.903	-48.083	-0.227	0.109
-238.888	-200.000	0.037	-0.187
-237.873	-121.954	-0.436	0.072
-236.859	231.320	-0.271	-0.443
-235.844	800.000	-0.033	0.098
-234.830	246.222	0.187	0.314
-233.815	754.099	-0.050	-0.134
-232.800	12.395	-0.078	0.060
-231.786	800.000	0.094	-0.258
-230.771	22.783	-0.217	-0.177
-229.757	32.793	-0.280	-0.241
-228.742	510.648	-0.127	-0.294
-227.727	-76.686	-0.135	-0.047
-226.713	-27.139	-0.166	0.097
-225.698	76.574	0.032	-0.034
-224.684	-120.820	-0.205	-0.034
-223.669	46.857	0.229	0.212
-222.655	94.402	0.193	0.218
-221.640	725.197	-0.032	0.085
-220.625	85.296	-0.359	-0.393
-219.611	35.866	0.224	0.196
-218.596	-200.000	0.001	0.272
-217.582	800.000	-0.034	-0.131
-216.567	796.913	0.098	0.268
-215.552	56.782	-0.146	0.142
-214.538	27.120	0.092	0.077
-213.523	-200.000	0.007	0.124
-212.509	-78.556	0.229	0.078
-211.494	9.693	-0.125	0.094
-210.479	29.679	-0.272	-0.231
-209.465	800.000	-0.070	-0.196
-208.450	3.958	0.217	0.158
-207.436	13.155	-0.121	-0.094
-206.421	-123.229	0.043	-0.007
-205.406	-25.366	0.197	-0.116
-204.392	38.746	-0.197	-0.175
-203.377	182.895	0.163	-0.239
-202.363	-200.000	-0.009	0.142
-201.348	46.854	0.102	0.094
-200.333	150.024	-0.218	-0.294
-199.319	748.315	0.061	0.164
-198.304	-54.874	-0.163	0.073
-197.290	-82.908	-0.251	-0.081
-196.275	-118.336	-0.178	0.032
-195.260	34.644	0.053	0.046
-194.246	-200.000	0.012	-0.124
-193.231	107.568	-0.227	0.269
-192.217	-18.530	-0.174	0.108
-191.202	69.853	0.095	0.098
-190.187	-200.000	0.016	0.084
-189.173	-64.461	-0.216	-0.087
-188.158	57.225	0.173	-0.168
-187.144	307.170	0.034	-0.062
-186.129	-200.000	-0.017	-0.309
-185.114	102.330	-0.294	0.342
-184.100	-200.000	0.026	0.398
-183.085	-46.056	-0.226	0.111
-182.071	-125.724	0.201	-0.030
-181.056	-142.126	-0.167	0.016
-180.042	-101.748	-0.077	0.018
-179.027	-200.000	-0.026	0.191
-178.012	42.085	-0.129	0.116
-176.998	19.357	0.200	0.160
-175.983	3.109	0.246	-0.178
-174.969	-71.489	-0.293	-0.109
-173.954	-200.000	-0.012	-0.216
-172.939	-65.070	-0.105	0.042
-171.925	-200.000	0.043	0.451
-170.910	-155.819	-0.085	-0.005
-169.896	-61.520	-0.296	0.124
-168.881	-119.408	0.339	0.058
-167.866	-200.000	-0.012	0.219
-166.852	-81.603	-0.108	-0.035
-165.837	55.469	0.064	-0.062
-164.823	322.040	0.041	0.077
-163.808	-200.000	0.012	0.056
-162.793	-67.344	0.211	0.082
-161.779	-100.007	0.090	-0.022
-160.764	-200.000	0.031	0.245
-159.750	800.000	0.067	0.204
-158.735	-140.853	0.106	-0.011
-157.720	492.208	0.050	-0.114
-156.706	800.000	-0.118	0.465
-155.691	50.063	0.163	-0.152
-154.677	-68.114	-0.170	0.066
-153.662	800.000	0.087	-0.270
-152.647	-62.453	0.211	-0.087
-151.633	443.575	0.111	0.242
-150.618	-104.733	-0.057	-0.013
-149.604	-28.983	0.118	0.067
-148.589	-200.000	0.040	-0.213
-147.574	449.801	0.035	-0.076
-146.560	160.528	-0.242	-0.335
-145.545	-10.770	0.032	0.021
-144.531	255.454	0.011	0.019
-143.516	22.318	-0.056	0.045
-142.502	-39.054	-0.192	0.100
-141.487	-200.000	0.083	-0.499
-140.472	800.000	-0.071	0.234
-139.458	800.000	-0.042	0.138
-138.443	-29.983	-0.177	-0.100
-137.429	-102.545	-0.408	0.097
-136.414	-86.157	-0.092	0.028
-135.399	-78.409	-0.028	0.010
-134.385	58.973	0.047	0.046
-133.370	-36.559	-0.142	0.076
-132.356	-200.000	-0.012	-0.158
-131.341	33.824	-0.063	0.054
-130.326	-80.211	0.212	0.070
-129.312	-135.181	0.180	0.021
-128.297	-176.369	0.235	0.006
-127.283	59.695	-0.248	-0.243
-126.268	-130.910	-0.535	-0.071
-125.253	800.000	-0.106	-0.331
-124.239	-28.167	-0.338	-0.194
-123.224	-88.878	-0.267	0.079
-122.210	-56.877	-0.300	-0.131
-121.195	202.275	0.095	0.145
-120.180	198.939	-0.205	-0.312
-119.166	-110.911	0.037	0.008
-118.151	21.317	-0.292	-0.235
-117.137	393.296	-0.192	0.396
-116.122	800.000	0.103	-0.324
-115.107	-59.545	0.268	0.114
-114.093	210.043	0.134	-0.208
-113.078	375.071	-0.072	-0.145
-112.064	800.000	-0.060	0.166
-111.049	-27.057	-0.329	-0.190
-110.034	41.251	0.074	0.066
-109.020	-95.923	-0.244	0.064
-108.005	311.161	-0.084	0.155
-106.991	-200.000	0.017	0.113
-105.976	-42.362	0.053	0.027
-104.962	-200.000	0.041	0.192
-103.947	14.861	-0.168	-0.131
-102.932	-1.252	0.203	-0.142
-101.918	481.265	0.043	-0.096
-100.903	12.643	-0.300	-0.230
-99.889	800.000	0.085	0.252
-98.874	21.619	-0.076	0.062
-97.859	44.205	0.041	-0.037
-96.845	205.231	-0.109	-0.167
-95.830	-151.037	0.283	-0.021
-94.816	297.010	0.130	-0.236
-93.801	69.750	-0.076	0.078
-92.786	-200.000	0.008	0.096
-91.772	-200.000	0.020	0.302
-90.757	-200.000	-0.013	-0.220
-89.743	-200.000	-0.022	-0.120
-88.728	-52.467	-0.128	0.059
-87.713	41.377	0.058	0.052
-86.699	4.446	0.149	0.108
-85.684	-94.985	-0.194	-0.052
-84.670	331.639	0.036	-0.069
-83.655	-66.197	-0.154	0.061
-82.640	-51.186	0.127	0.059
-81.626	-104.424	-0.357	-0.082
-80.611	-63.665	-0.265	-0.107
-79.597	-57.308	0.068	-0.029
-78.582	-200.000	0.277	0.000
-77.567	-72.040	0.189	-0.070
-76.553	-116.261	0.128	0.024
-75.538	318.110	-0.157	-0.293
-74.524	800.000	-0.074	-0.244
-73.509	315.374	0.186	0.348
-72.494	-106.285	0.091	-0.020
-71.480	-80.951	0.409	0.134
-70.465	-20.609	0.224	0.136
-69.451	49.881	0.174	-0.163
-68.436	174.194	-0.257	-0.367
-67.422	-43.396	0.282	0.141
-66.407	199.682	-0.208	-0.316
-65.392	-35.421	-0.231	-0.124
-64.378	103.167	-0.118	0.137
-63.363	-178.080	0.359	0.008
-62.349	361.327	-0.168	0.333
-61.334	10.620	-0.960	-0.724
-60.319	119.680	0.315	0.386
-59.305	-200.000	0.056	-0.865
-58.290	800.000	0.403	1.152
-57.276	254.627	0.799	1.354
-56.261	-200.000	97.605	582.715
-55.246	632.402	1402.078	3514.103
-54.232	186.865	2603.674	3838.129
-53.217	121.348	2192.954	2702.359
-52.203	45.284	1726.690	1575.509
-51.188	37.976	1537.819	1352.693
-50.173	35.537	1510.574	1312.036
-49.159	54.983	1561.737	1491.994
-48.144	58.139	1579.679	1530.971
-47.130	38.241	1535.748	1352.486
-46.115	34.962	1520.533	1316.518
-45.100	34.916	1516.767	1312.893
-44.086	34.781	1515.213	1310.566
-43.071	34.780	1513.595	1309.110
-42.057	34.784	1511.742	1307.480
-41.042	34.875	1509.792	1306.363
-40.027	34.694	1509.066	1304.447
-39.013	34.894	1506.905	1303.896
-37.998	34.751	1506.006	1302.088
-36.984	34.711	1505.348	1301.193
-35.969	34.780	1503.076	1299.651
-34.954	34.775	1501.801	1298.464
-33.940	34.640	1500.968	1296.770
-32.925	34.748	1499.513	1296.201
-31.911	34.802	1498.285	1295.448
-30.896	34.902	1496.646	1294.659
-29.881	34.824	1495.417	1293.018
-28.867	34.827	1494.173	1291.911
-27.852	34.828	1492.842	1290.717
-26.838	34.759	1491.433	1288.979
-25.823	34.882	1489.751	1288.302
-24.809	34.873	1488.002	1286.681
-23.794	34.759	1487.368	1285.315
-22.779	34.778	1486.017	1284.220
-21.765	34.860	1484.782	1283.656
-20.750	34.852	1483.154	1282.144
-19.736	34.775	1482.440	1280.962
-18.721	34.782	1481.388	1280.043
-17.706	34.793	1480.596	1279.381
-16.692	34.803	1479.617	1278.554
-15.677	34.760	1478.267	1277.048
-14.663	34.724	1477.609	1276.191
-13.648	34.723	1476.596	1275.260
-12.633	34.719	1475.338	1274.096
-11.619	34.840	1474.082	1273.765
-10.604	34.724	1473.898	1272.783
-9.590	34.728	1472.944	1271.938
-8.575	34.763	1472.047	1271.346
-7.560	34.792	1471.106	1270.676
-6.546	34.780	1470.372	1269.909
-5.531	34.852	1469.203	1269.326
-4.517	34.703	1468.190	1267.414
-3.502	34.727	1467.128	1266.602
-2.487	34.741	1466.163	1265.812
-1.473	34.673	1465.230	1264.506
-0.458	34.776	1464.010	1264.087
0.556	36.091	1453.966	1250.631
1.571	32.024	1425.803	1200.354
2.586	27.138	1361.059	1115.831
3.600	24.463	1276.550	1031.029
4.615	22.657	1229.258	982.690
5.629	19.220	1173.375	919.618
6.644	11.453	1089.500	815.159
7.659	5.648	1049.186	756.945
8.673	4.764	1043.975	748.864
9.688	4.653	1040.926	746.082
10.702	4.479	1039.531	744.181
11.717	4.695	1037.996	744.049
12.731	6.511	1039.342	753.638
13.746	13.708	1049.103	795.277
14.761	20.168	1057.466	832.669
15.775	21.495	1057.792	839.223
16.790	20.779	1056.454	834.657
17.804	19.835	1054.082	828.192
18.819	18.890	1052.286	822.190
19.834	18.582	1050.701	819.407
20.848	18.170	1050.030	816.841
21.863	18.130	1049.743	816.359
22.877	17.961	1048.994	814.894
23.892	17.684	1048.191	812.880
24.907	17.730	1046.981	812.086
25.921	17.808	1046.263	811.829
26.936	17.699	1045.850	810.918
27.950	17.563	1045.097	809.617
28.965	17.674	1043.825	809.089
29.980	17.803	1042.556	808.643
30.994	17.907	1041.791	808.472
32.009	18.090	1040.612	808.350
33.023	18.056	1040.041	807.677
34.038	17.990	1039.596	806.945
35.053	18.013	1038.428	806.078
36.067	17.846	1037.610	804.581
37.082	17.824	1036.279	803.375
38.096	17.734	1036.209	802.826
39.111	17.869	1035.491	802.836
40.126	18.049	1034.394	802.760
41.140	17.858	1033.073	800.766
42.155	17.509	1032.467	798.587
43.169	17.455	1030.972	797.109
44.184	17.474	1029.854	796.263
45.199	17.443	1028.686	795.147
46.213	17.472	1027.510	794.301
47.228	17.693	1026.594	794.553
48.242	17.643	1026.430	794.122
49.257	17.789	1025.309	793.867
50.271	17.871	1024.334	793.419
51.286	17.750	1023.783	792.362
52.301	17.877	1022.818	792.136
53.315	17.828	1022.192	791.353
54.330	17.668	1021.575	790.064
55.344	17.624	1020.859	789.236
56.359	17.498	1019.617	787.623
57.374	17.754	1018.158	787.606
58.388	17.580	1017.702	786.383
59.403	17.653	1016.532	785.746
60.417	17.416	1015.926	784.116
61.432	17.345	1015.740	783.575
62.447	17.479	1014.394	783.082
63.461	17.369	1013.882	782.116
64.476	17.215	1013.142	780.765
65.490	17.233	1012.157	780.021
66.505	17.273	1011.246	779.433
67.520	17.328	1010.543	779.072
68.534	17.452	1009.523	778.786
69.549	17.309	1009.078	777.721
70.563	17.285	1008.339	776.972
71.578	17.130	1008.086	776.000
72.593	17.191	1006.735	775.170
73.607	17.078	1005.451	773.599
74.622	17.142	1004.488	773.082
75.636	17.108	1003.935	772.429
76.651	17.216	1002.881	772.042
77.666	17.132	1002.263	771.117
78.680	17.118	1001.572	770.452
79.695	17.178	1001.179	770.355
80.709	17.130	1000.551	769.588
81.724	17.422	999.807	770.266
82.739	17.497	999.264	770.123
83.753	17.538	997.864	769.160
84.768	17.643	997.902	769.593
85.782	17.895	997.182	770.107
86.797	17.894	996.299	769.354
87.812	18.032	995.710	769.454
88.826	17.840	994.817	767.830
89.841	18.023	993.452	767.530
90.855	17.894	993.357	766.811
91.870	18.014	992.592	766.691
92.884	18.138	991.797	766.562
93.899	17.910	991.338	765.119
94.914	18.051	990.325	764.902
95.928	18.069	989.525	764.298
96.943	18.139	988.837	764.011
97.957	17.965	987.894	762.437
98.972	17.942	986.936	761.530
99.987	17.885	986.432	760.818
101.001	17.924	985.902	760.515
102.016	18.030	984.979	760.206
103.030	17.959	984.121	759.162
104.045	17.932	983.239	758.295
105.060	17.933	982.694	757.813
106.074	17.889	981.217	756.412
107.089	17.699	980.268	754.773
108.103	17.456	979.497	753.034
109.118	17.219	978.522	751.171
110.133	17.323	977.470	750.755
111.147	17.340	976.649	750.133
112.162	17.274	975.621	748.987
113.176	17.436	974.814	749.017
114.191	17.445	974.284	748.580
115.206	17.749	973.228	749.038
116.220	17.560	972.901	747.890
117.235	17.477	971.718	746.554
118.249	17.349	970.991	745.366
119.264	17.338	970.311	744.733
120.279	17.285	969.300	743.656
121.293	17.214	968.336	742.540
122.308	17.345	967.653	742.522
123.322	17.281	966.367	741.191
124.337	17.239	965.640	740.385
125.352	17.167	964.702	739.290
126.366	17.089	963.602	738.042
127.381	17.183	962.442	737.495
128.395	17.149	961.756	736.754
129.410	17.023	961.193	735.713
130.424	17.276	959.899	735.755
131.439	17.337	958.927	735.206
132.454	17.386	958.702	735.180
133.468	17.572	957.596	735.073
134.483	17.530	957.279	734.583
135.497	17.580	956.487	734.125
136.512	17.603	955.663	733.526
137.527	17.607	955.135	733.075
138.541	17.533	954.644	732.313
139.556	17.483	953.522	731.173
140.570	17.540	953.113	731.040
141.585	17.747	952.313	731.251
142.600	17.914	951.515	731.287
143.614	17.973	950.754	730.891
144.629	17.975	950.254	730.451
145.643	18.021	949.708	730.160
146.658	18.000	948.880	729.372
147.673	17.871	947.514	727.708
148.687	17.715	946.555	726.242
149.702	17.678	945.569	725.263
150.716	17.565	944.366	723.794
151.731	17.613	943.417	723.207
152.746	17.499	943.337	722.601
153.760	17.526	942.751	722.200
154.775	17.684	941.758	722.045
155.789	17.757	940.875	721.613
156.804	17.794	940.200	721.187
157.819	17.674	939.708	720.240
158.833	17.765	939.494	720.397
159.848	17.806	938.940	720.083
160.862	18.091	937.760	720.313
161.877	18.030	936.811	719.264
162.892	17.735	936.316	717.580
163.906	17.676	934.764	716.076
164.921	17.604	934.171	715.260
165.935	17.552	933.020	714.096
166.950	17.656	932.172	713.820
167.964	17.763	931.043	713.341
168.979	17.676	930.049	712.149
169.994	17.681	929.110	711.390
171.008	17.725	927.934	710.609
172.023	17.713	927.267	709.989
173.037	17.808	927.082	710.178
174.052	18.043	926.414	710.580
175.067	17.940	925.525	709.408
176.081	17.722	924.762	707.857
177.096	17.726	923.277	706.673
178.110	17.679	922.892	706.119
179.125	17.562	922.162	705.016
180.140	17.808	921.070	705.133
181.154	17.817	920.993	705.050
182.169	17.839	920.486	704.690
183.183	18.106	919.735	705.156
184.198	18.093	919.121	704.569
185.213	18.053	918.521	703.880
186.227	17.996	917.648	702.915
187.242	18.090	917.436	703.080
188.256	18.189	916.576	702.764
189.271	18.190	916.050	702.302
190.286	18.280	915.257	702.000
191.300	18.016	914.651	700.394
192.315	17.693	913.347	698.008
193.329	17.368	912.873	696.257
194.344	17.537	911.922	696.158
195.359	17.672	911.423	696.266
196.373	17.774	911.188	696.445
197.388	17.886	910.592	696.382
198.402	18.061	910.249	696.774
199.417	18.287	909.661	697.180
200.432	18.386	909.315	697.257
201.446	18.438	909.194	697.316
202.461	18.459	909.030	697.214
203.475	18.547	908.173	696.851
204.490	18.599	907.601	696.560
205.504	18.330	906.538	694.595
206.519	18.225	905.748	693.500
207.534	18.193	904.964	692.712
208.548	18.138	904.207	691.849
209.563	18.064	903.706	691.102
210.577	18.164	903.275	691.116
211.592	18.203	902.321	690.481
212.607	18.348	902.151	690.878
213.621	18.569	901.347	691.093
214.636	18.513	900.552	690.194
215.650	18.408	900.083	689.351
216.665	18.298	899.496	688.398
217.680	18.486	898.998	688.712
218.694	18.581	898.784	688.867
219.709	18.693	898.050	688.693
220.723	18.498	897.458	687.400
221.738	18.527	896.535	686.745
222.753	18.489	895.734	685.919
223.767	18.396	895.361	685.200
224.782	18.513	894.601	685.027
225.796	18.668	893.735	684.923
226.811	18.717	893.217	684.660
227.826	18.681	892.777	684.117
228.840	18.501	891.726	682.534
229.855	18.569	891.132	682.292
230.869	18.554	890.376	681.591
231.884	18.503	889.597	680.734
232.899	18.372	889.061	679.744
233.913	18.377	888.026	678.912
234.928	18.305	887.584	678.227
235.942	18.357	887.067	677.978
236.957	18.202	886.119	676.582
237.972	18.342	885.339	676.477
238.986	18.231	885.178	675.857
240.001	18.433	884.065	675.747
241.015	18.418	883.436	675.144
242.030	18.410	883.218	674.888
243.045	18.463	882.565	674.536
244.059	18.583	881.648	674.247
245.074	18.618	881.364	674.109
246.088	18.566	880.623	673.278
247.103	18.675	880.063	673.220
248.117	18.787	879.779	673.379
249.132	18.802	879.371	673.068
250.147	19.006	879.181	673.662
251.161	19.156	878.279	673.498
252.176	19.168	878.116	673.360
253.190	19.390	876.958	673.280
254.205	19.389	876.193	672.629
255.220	19.417	875.928	672.475
256.234	19.441	875.088	671.865
257.249	19.341	874.559	671.010
258.263	19.421	874.052	670.872
259.278	19.438	873.260	670.269
260.293	19.356	872.820	669.554
261.307	19.410	872.451	669.422
262.322	19.385	871.940	668.875
263.336	19.576	871.405	669.146
264.351	19.407	870.925	668.063
265.366	19.538	870.096	667.873
266.380	19.564	869.607	667.538
267.395	19.645	868.780	667.158
268.409	19.402	868.013	665.575
269.424	19.316	867.237	664.588
270.439	19.324	866.363	663.891
271.453	19.394	865.620	663.532
272.468	19.380	864.768	662.765
273.482	19.266	864.521	662.081
274.497	19.251	863.900	661.487
275.512	19.356	862.888	661.058
276.526	19.101	862.547	659.761
277.541	19.185	861.842	659.483
278.555	19.408	861.006	659.641
279.570	19.461	860.852	659.667
280.585	19.482	860.421	659.358
281.599	19.744	859.797	659.822
282.614	19.545	859.428	658.721
283.628	19.438	858.660	657.665
284.643	19.386	857.985	656.894
285.657	19.428	857.453	656.588
286.672	19.528	856.632	656.278
287.687	19.510	856.130	655.767
288.701	19.494	855.910	655.482
289.716	19.519	855.294	655.046
290.730	19.535	854.744	654.627
291.745	19.625	853.976	654.324
292.760	19.540	853.401	653.503
293.774	19.525	852.983	653.068
294.789	19.701	852.649	653.420
295.803	19.814	852.014	653.302
296.818	19.698	850.992	652.023
297.833	19.626	850.415	651.252
298.847	19.596	849.711	650.544
299.862	19.524	849.219	649.838
300.876	19.590	848.571	649.530
301.891	19.746	847.818	649.485
302.906	19.831	847.855	649.775
303.920	19.852	847.010	649.150
304.935	20.047	846.112	649.133
305.949	20.145	845.641	649.080
306.964	20.102	845.232	648.550
307.979	19.914	844.316	647.084
308.993	19.815	844.168	646.544
310.008	19.958	843.700	646.664
311.022	20.088	843.046	646.589
312.037	20.116	842.393	646.136
313.052	19.938	841.886	645.028
314.066	19.774	841.409	643.994
315.081	19.668	840.573	642.905
316.095	19.704	839.816	642.403
317.110	19.669	839.614	642.061
318.125	19.680	838.771	641.400
319.139	19.705	838.329	641.097
320.154	19.705	838.085	640.855
321.168	19.665	837.477	640.184
322.183	19.738	836.696	639.800
323.197	19.820	836.322	639.761
324.212	19.844	835.845	639.427
325.227	19.782	835.080	638.558
326.241	19.783	834.856	638.335
327.256	19.722	834.294	637.623
328.270	19.862	833.776	637.687
329.285	19.852	833.081	637.060
330.300	19.626	832.533	635.755
331.314	19.890	831.963	636.233
332.329	19.986	831.252	635.986
333.343	19.901	830.740	635.228
334.358	20.060	830.436	635.519
335.373	20.014	830.033	634.986
336.387	19.974	829.686	634.520
337.402	20.063	828.910	634.193
338.416	20.242	828.338	634.357
339.431	20.262	827.793	633.954
340.446	20.312	827.430	633.806
341.460	20.490	826.677	633.821
342.475	20.351	826.451	633.084
343.489	20.466	826.181	633.242
344.504	20.536	825.331	632.789
345.519	20.588	824.743	632.469
346.533	20.648	824.386	632.360
347.548	20.756	823.464	631.987
348.562	20.633	822.607	630.829
349.577	20.310	822.374	629.423
350.592	20.357	821.584	628.933
351.606	20.093	821.135	627.576
352.621	20.081	820.954	627.341
353.635	20.174	820.469	627.249
354.650	20.285	820.179	627.375
355.665	20.314	819.665	627.029
356.679	20.192	819.309	626.263
357.694	20.413	818.637	626.491
358.708	20.669	817.725	626.658
359.723	20.277	817.656	625.137
360.738	20.455	817.251	625.416
361.752	20.424	816.629	624.773
362.767	20.553	816.261	624.900
363.781	20.581	815.991	624.736
364.796	20.795	815.582	625.138
365.810	20.820	815.134	624.828
366.825	20.949	815.101	625.211
367.840	20.854	814.779	624.566
368.854	20.879	814.480	624.372
369.869	20.868	813.502	623.527
370.883	20.686	812.873	622.341
371.898	20.821	811.953	622.063
372.913	20.800	811.828	621.838
373.927	20.807	811.684	621.697
374.942	20.838	810.565	620.894
375.956	20.820	809.822	620.207
376.971	20.895	809.651	620.289
377.986	21.148	808.697	620.403
379.000	21.045	808.272	619.655
380.015	21.191	808.115	619.999
381.029	21.208	807.196	619.298
382.044	21.112	806.573	618.424
383.059	21.023	806.118	617.706
384.073	21.163	805.701	617.830
385.088	21.130	805.096	617.194
386.102	20.913	804.174	615.664
387.117	20.871	803.499	614.944
388.132	20.849	803.218	614.598
389.146	20.837	802.842	614.213
390.161	20.793	802.658	613.862
391.175	20.852	802.621	613.990
392.190	20.918	802.351	613.961
393.205	20.807	801.760	613.065
394.219	20.990	800.859	612.964
395.234	20.805	800.225	611.773
396.248	20.787	800.049	611.523
397.263	20.675	799.370	610.555
398.278	20.677	798.669	609.976
399.292	20.675	798.260	609.600
400.307	20.821	797.625	609.574
401.321	20.736	797.535	609.152
402.336	20.706	797.318	608.830
403.350	20.847	797.096	609.096
404.365	21.046	796.442	609.240
405.380	21.004	795.934	608.648
406.394	21.106	795.519	608.636
407.409	21.212	795.130	608.651
408.423	21.369	794.827	608.913
409.438	21.403	794.182	608.485
410.453	21.325	794.189	608.164
411.467	21.442	793.643	608.098
412.482	21.433	793.070	607.575
413.496	21.576	792.916	607.899
414.511	21.656	792.384	607.716
415.526	21.673	791.914	607.361
416.540	21.582	791.756	606.870
417.555	21.750	790.780	606.650
418.569	21.432	790.740	605.463
419.584	21.689	789.838	605.610
420.599	21.550	789.583	604.879
421.613	158.945	1368.481	1790.589
422.628	137.603	1452.826	1790.684
