DTS Sentinel unit serial number:	SN413079Multiplexer serial number:	ORYXHardware model number:	OX4-SRSoftware version number:	ORYX F/W v4.00 Oryx Data Collector v3.7.2.0data status	okinstallation	princeton_trtdifferential loss correction	single-endedforward channel	channel 3reverse channel	N/Adate	2019/09/16time	23:00:35forward acquisition time	60.00reverse acquisition time	0.00gamma	496.2192k internal	0.2325k external	0.2325temperature offset calibration	0.9938default loss term (dB/km)	0.3790temperature slope calibration	1.0000multiplexer offset coefficient	1.0000multiplexer slope coefficient	1.0000fibre end	0.00T internal ref (°C)	30.33T ext. ref 1 (°C)	0.09T ext. ref 2 (°C)	23.94length (m)	temperature (°C)	Stokes	anti-Stokes-747.200	-123.518	-0.192	-0.031
-746.185	800.000	-0.100	0.294
-745.171	-200.000	-0.005	0.264
-744.156	-200.000	0.004	0.338
-743.142	-17.527	-0.456	0.289
-742.127	174.491	0.197	0.288
-741.112	-200.000	-0.010	0.094
-740.098	-95.499	-0.283	-0.077
-739.083	-47.730	0.216	0.106
-738.069	800.000	-0.038	0.153
-737.054	409.555	0.046	0.098
-736.039	444.901	0.081	0.179
-735.025	-200.000	0.083	0.401
-734.010	31.357	-0.114	-0.099
-732.996	-109.342	0.033	-0.007
-731.981	537.424	0.082	0.196
-730.966	51.995	0.190	-0.183
-729.952	40.157	-0.191	-0.173
-728.937	66.251	-0.090	-0.092
-727.923	800.000	-0.090	-0.256
-726.908	-127.275	0.079	0.012
-725.894	-41.939	0.047	0.024
-724.879	202.186	0.171	-0.266
-723.864	-138.843	-0.308	-0.034
-722.850	-106.073	-0.285	-0.065
-721.835	32.102	0.237	-0.206
-720.821	-200.000	0.016	-0.204
-719.806	301.832	0.131	-0.244
-718.791	-59.085	0.164	-0.071
-717.777	-200.000	-0.016	-0.096
-716.762	-66.201	0.224	-0.090
-715.748	163.842	-0.057	0.081
-714.733	-19.900	0.278	-0.173
-713.718	-51.000	-0.173	-0.082
-712.704	30.605	-0.104	-0.089
-711.689	-43.529	-0.046	-0.023
-710.675	-200.000	-0.028	-0.152
-709.660	-166.689	-0.279	0.012
-708.645	-200.000	0.008	-0.199
-707.631	-200.000	0.065	0.478
-706.616	-5.500	-0.251	-0.173
-705.602	-73.294	-0.104	0.039
-704.587	181.699	-0.182	-0.270
-703.572	149.965	-0.134	-0.184
-702.558	-200.000	0.009	-0.200
-701.543	-88.079	0.277	-0.084
-700.529	315.316	-0.108	-0.206
-699.514	-90.914	0.386	0.112
-698.499	679.029	0.117	0.307
-697.485	121.938	0.045	0.057
-696.470	800.000	-0.044	-0.175
-695.456	-153.467	0.434	0.030
-694.441	-200.000	-0.013	0.130
-693.426	-140.920	-0.085	0.009
-692.412	-200.000	-0.018	-0.113
-691.397	132.915	0.240	-0.313
-690.383	199.122	0.161	0.248
-689.368	-64.515	-0.117	0.048
-688.354	528.070	-0.180	0.427
-687.339	49.741	-0.162	-0.154
-686.324	48.066	0.218	-0.205
-685.310	-200.000	-0.055	-0.295
-684.295	-99.267	0.291	0.074
-683.281	-200.000	0.028	0.139
-682.266	-50.439	-0.278	-0.132
-681.251	-105.309	0.214	0.049
-680.237	-83.585	-0.358	-0.115
-679.222	800.000	-0.074	-0.249
-678.208	-53.248	-0.094	0.043
-677.193	6.709	-0.384	0.287
-676.178	714.419	-0.149	-0.398
-675.164	-151.747	0.107	0.008
-674.149	191.023	-0.036	0.054
-673.135	-40.852	0.141	0.073
-672.120	536.283	0.068	0.162
-671.105	8.661	0.204	-0.155
-670.091	-95.869	-0.243	0.065
-669.076	-183.634	-0.246	0.004
-668.062	74.099	0.238	0.252
-667.047	151.443	0.093	0.127
-666.032	-200.000	-0.009	-0.074
-665.018	232.114	0.088	-0.145
-664.003	-120.294	-0.258	0.044
-662.989	656.116	-0.035	0.091
-661.974	-80.610	-0.218	-0.073
-660.959	85.758	-0.199	0.220
-659.945	-184.496	0.130	0.002
-658.930	-183.158	0.137	-0.002
-657.916	-90.748	0.390	0.113
-656.901	-39.246	-0.210	0.111
-655.886	-188.592	-0.385	0.005
-654.872	-200.000	0.002	0.145
-653.857	394.961	-0.110	-0.231
-652.843	12.753	-0.130	0.101
-651.828	-200.000	0.015	-0.173
-650.814	-46.976	-0.172	-0.084
-649.799	183.573	0.135	0.200
-648.784	31.180	-0.239	0.207
-647.770	-97.416	-0.305	-0.080
-646.755	511.574	0.165	-0.387
-645.741	289.863	0.104	0.189
-644.726	45.344	-0.124	0.115
-643.711	-180.156	0.247	0.005
-642.697	-183.751	-0.133	-0.002
-641.682	7.236	0.119	0.089
-640.668	-92.156	0.237	-0.067
-639.653	-200.000	0.056	-0.325
-638.638	103.861	0.062	-0.073
-637.624	-143.308	0.170	-0.016
-636.609	90.960	0.057	0.064
-635.595	-59.949	-0.130	-0.056
-634.580	-141.233	0.263	-0.027
-633.565	-125.365	-0.401	0.061
-632.551	-138.428	-0.274	-0.030
-631.536	-147.161	-0.200	-0.017
-630.522	-88.858	-0.440	-0.131
-629.507	-25.986	0.304	-0.180
-628.492	117.344	-0.052	-0.065
-627.478	158.787	0.078	-0.109
-626.463	136.480	-0.153	0.201
-625.449	800.000	0.067	-0.265
-624.434	123.821	-0.284	0.359
-623.419	169.760	0.071	-0.102
-622.405	83.534	0.145	-0.158
-621.390	-77.235	-0.338	0.118
-620.376	44.581	0.263	0.242
-619.361	-68.731	0.255	-0.099
-618.346	-128.672	-0.016	-0.002
-617.332	162.454	0.201	0.283
-616.317	800.000	0.089	-0.356
-615.303	-116.852	0.183	0.034
-614.288	-146.178	0.451	-0.040
-613.273	800.000	-0.012	0.048
-612.259	134.922	0.057	-0.075
-611.244	-200.000	-0.028	-0.215
-610.230	-6.789	0.173	0.118
-609.215	11.790	0.020	0.015
-608.201	-73.987	0.183	-0.067
-607.186	-26.744	0.137	-0.081
-606.171	24.878	0.136	-0.113
-605.157	-99.894	0.275	0.069
-604.142	-200.000	-0.013	-0.058
-603.128	644.369	-0.087	0.222
-602.113	-200.000	0.033	0.229
-601.098	800.000	0.042	0.151
-600.084	130.890	0.147	0.190
-599.069	-146.503	-0.197	0.017
-598.055	-200.000	0.008	-0.389
-597.040	-110.930	0.259	0.053
-596.025	-62.854	0.250	0.104
-595.011	196.224	-0.256	0.391
-593.996	92.426	0.095	0.107
-592.982	-72.200	-0.124	-0.046
-591.967	213.035	-0.175	-0.278
-590.952	-200.000	0.004	-0.028
-589.938	523.801	-0.080	0.189
-588.923	174.252	0.051	0.074
-587.909	-141.451	-0.147	0.015
-586.894	-51.846	0.107	-0.050
-585.879	-200.000	-0.010	-0.164
-584.865	611.767	-0.067	-0.167
-583.850	155.030	0.129	0.179
-582.836	-200.000	0.025	-0.187
-581.821	-194.452	-0.228	-0.002
-580.806	52.262	-0.077	0.073
-579.792	800.000	-0.005	-0.020
-578.777	-3.059	-0.021	0.015
-577.763	3.063	-0.290	-0.212
-576.748	-11.149	-0.185	-0.122
-575.733	140.961	-0.168	-0.223
-574.719	800.000	0.116	-0.411
-573.704	-87.079	0.247	0.075
-572.690	-200.000	0.002	-0.182
-571.675	-124.200	0.254	-0.040
-570.661	-200.000	0.002	0.190
-569.646	-200.000	0.030	-0.275
-568.631	268.481	-0.131	0.230
-567.617	139.074	-0.063	-0.083
-566.602	5.018	-0.266	-0.196
-565.588	800.000	-0.039	0.165
-564.573	-79.156	-0.159	-0.054
-563.558	-22.905	0.125	0.076
-562.544	123.385	-0.217	0.273
-561.529	-42.957	0.372	-0.189
-560.515	-63.604	0.331	-0.136
-559.500	146.693	0.139	-0.188
-558.485	-200.000	0.004	0.062
-557.471	561.786	-0.069	0.168
-556.456	-173.226	0.060	0.002
-555.442	-23.034	-0.158	0.095
-554.427	31.833	-0.100	0.086
-553.412	-58.417	0.117	-0.051
-552.398	13.983	-0.154	0.120
-551.383	16.786	0.122	-0.097
-550.369	-47.820	-0.142	0.069
-549.354	7.675	0.107	0.080
-548.339	-32.369	0.050	-0.028
-547.325	-70.510	0.361	-0.137
-546.310	725.349	0.064	-0.171
-545.296	-12.321	0.089	0.058
-544.281	-16.152	0.241	0.154
-543.266	131.768	-0.130	0.168
-542.252	26.682	-0.084	0.070
-541.237	650.964	0.040	-0.103
-540.223	-200.000	-0.027	0.131
-539.208	-163.838	0.230	0.011
-538.193	-191.916	-0.269	-0.003
-537.179	-165.825	-0.429	0.018
-536.164	-200.000	-0.045	0.200
-535.150	174.147	0.035	-0.051
-534.135	-84.917	-0.165	-0.052
-533.121	-108.463	0.170	-0.037
-532.106	69.614	-0.174	0.179
-531.091	616.157	0.070	0.175
-530.077	-73.190	-0.347	-0.127
-529.062	-200.000	-0.005	0.261
-528.048	-29.662	0.093	-0.053
-527.033	-20.565	-0.281	-0.173
-526.018	-163.559	-0.111	0.005
-525.004	242.323	-0.162	-0.271
-523.989	-85.403	0.314	0.098
-522.975	-200.000	-0.006	-0.068
-521.960	800.000	0.033	0.133
-520.945	-75.781	0.160	0.057
-519.931	50.559	-0.057	0.054
-518.916	583.898	-0.082	0.201
-517.902	97.881	0.174	0.200
-516.887	-106.176	0.146	-0.033
-515.872	94.061	-0.106	-0.121
-514.858	305.933	0.090	-0.168
-513.843	-129.799	0.332	0.046
-512.829	183.918	-0.103	-0.152
-511.814	579.679	-0.105	0.257
-510.799	800.000	0.028	0.110
-509.785	-100.891	0.251	-0.062
-508.770	-29.306	-0.320	-0.183
-507.756	36.771	0.225	0.199
-506.741	177.295	0.025	0.037
-505.726	-7.516	-0.151	0.102
-504.712	-36.714	0.069	0.037
-503.697	610.856	-0.081	0.203
-502.683	-200.000	-0.020	0.109
-501.668	97.728	0.099	0.113
-500.653	-144.863	0.178	0.016
-499.639	16.075	0.194	0.153
-498.624	-150.478	0.198	-0.015
-497.610	697.423	-0.035	-0.093
-496.595	119.292	0.071	0.087
-495.581	-200.000	0.145	-0.000
-494.566	185.157	-0.063	0.094
-493.551	226.362	-0.093	-0.151
-492.537	319.929	0.111	-0.210
-491.522	169.016	0.201	-0.286
-490.508	800.000	0.053	0.168
-489.493	800.000	-0.027	0.117
-488.478	-133.001	0.128	0.016
-487.464	38.675	-0.063	-0.056
-486.449	174.581	0.108	0.156
-485.435	-102.229	-0.177	-0.043
-484.420	800.000	0.044	0.145
-483.405	-20.173	0.284	0.175
-482.391	-97.724	-0.460	0.119
-481.376	-200.000	0.032	0.147
-480.362	-177.108	0.384	0.010
-479.347	-200.000	0.026	0.169
-478.332	-117.039	-0.141	-0.026
-477.318	614.345	-0.099	-0.247
-476.303	-200.000	-0.035	0.409
-475.289	-81.599	0.180	-0.059
-474.274	-147.967	0.224	-0.019
-473.259	41.378	0.133	0.120
-472.245	-108.313	-0.368	-0.079
-471.230	-134.737	-0.108	0.013
-470.216	-52.899	-0.158	-0.072
-469.201	-55.746	0.128	0.057
-468.186	32.922	-0.345	-0.298
-467.172	-45.418	0.233	-0.115
-466.157	383.839	0.110	0.226
-465.143	-200.000	-0.002	0.285
-464.128	-200.000	0.005	-0.052
-463.113	-200.000	0.002	0.068
-462.099	253.175	0.099	-0.169
-461.084	-4.087	0.111	-0.077
-460.070	-33.563	0.256	-0.141
-459.055	-16.151	0.142	0.090
-458.040	20.333	-0.104	-0.084
-457.026	119.142	0.020	-0.025
-456.011	-200.000	0.029	-0.252
-454.997	-154.402	0.355	0.024
-453.982	-99.549	0.124	-0.031
-452.968	-112.175	-0.122	0.024
-451.953	-142.292	-0.112	-0.011
-450.938	-78.831	0.350	-0.119
-449.924	-200.000	-0.026	-0.127
-448.909	-200.000	0.020	-0.204
-447.895	199.736	-0.202	0.310
-446.880	290.519	-0.169	-0.307
-445.865	-200.000	0.008	-0.082
-444.851	-200.000	0.059	0.314
-443.836	-113.590	-0.284	-0.055
-442.822	-83.044	-0.242	0.078
-441.807	-58.334	0.049	-0.021
-440.792	-10.997	-0.347	-0.229
-439.778	-134.536	0.155	0.019
-438.763	-200.000	0.021	-0.093
-437.749	-63.167	-0.150	0.061
-436.734	-200.000	0.022	-0.134
-435.719	119.833	0.157	-0.194
-434.705	-188.293	-0.090	-0.001
-433.690	296.347	0.120	0.219
-432.676	32.609	0.188	0.162
-431.661	109.793	0.052	-0.062
-430.646	45.107	0.072	-0.066
-429.632	132.616	-0.116	0.150
-428.617	-200.000	0.007	0.048
-427.603	-28.430	0.177	-0.102
-426.588	-184.296	-0.148	0.002
-425.573	-143.630	-0.025	0.002
-424.559	-200.000	0.014	-0.268
-423.544	136.389	0.101	0.132
-422.530	-11.447	0.324	-0.212
-421.515	433.222	-0.061	0.132
-420.500	-200.000	-0.020	0.146
-419.486	75.892	0.116	0.122
-418.471	-200.000	0.001	0.153
-417.457	-165.255	0.174	0.008
-416.442	-48.720	0.194	0.093
-415.428	364.531	0.064	0.128
-414.413	3.124	0.172	0.125
-413.398	-16.874	-0.284	0.179
-412.384	-200.000	-0.034	0.223
-411.369	280.891	-0.091	-0.163
-410.355	-4.520	0.158	0.109
-409.340	-93.153	0.165	0.046
-408.325	17.321	0.237	0.188
-407.311	-107.454	-0.449	0.098
-406.296	-200.000	0.010	0.058
-405.282	-200.000	-0.033	-0.201
-404.267	86.178	-0.164	-0.179
-403.252	-31.469	0.185	-0.104
-402.238	17.875	-0.236	0.187
-401.223	158.646	0.072	0.100
-400.209	-86.250	-0.215	0.066
-399.194	-200.000	0.011	-0.186
-398.179	-134.191	0.230	0.028
-397.165	-200.000	0.011	-0.099
-396.150	-72.427	-0.343	0.126
-395.136	29.617	-0.075	0.064
-394.121	55.989	-0.094	0.091
-393.106	294.193	-0.043	-0.079
-392.092	61.107	0.047	0.047
-391.077	-167.230	0.241	-0.010
-390.063	-200.000	0.034	-0.312
-389.048	-37.635	0.085	-0.045
-388.033	800.000	0.044	0.157
-387.019	274.221	-0.088	0.155
-386.004	183.583	0.146	0.214
-384.990	17.638	-0.101	-0.080
-383.975	590.319	-0.068	0.168
-382.960	-38.709	-0.167	-0.088
-381.946	29.320	0.224	-0.189
-380.931	-62.034	0.127	0.053
-379.917	-101.982	0.276	0.066
-378.902	-77.809	-0.318	0.109
-377.888	160.705	0.238	-0.331
-376.873	-200.000	0.016	0.071
-375.858	-60.730	0.086	-0.036
-374.844	-164.910	-0.208	-0.009
-373.829	0.997	-0.335	0.239
-372.815	-35.893	0.046	-0.025
-371.800	-23.976	-0.134	0.080
-370.785	218.776	-0.126	0.200
-369.771	449.851	0.086	-0.189
-368.756	27.066	-0.282	-0.235
-367.742	-189.796	0.166	-0.002
-366.727	-100.924	0.126	-0.031
-365.712	-200.000	0.035	0.233
-364.698	-200.000	0.118	0.552
-363.683	18.146	0.149	0.118
-362.669	-77.517	-0.163	-0.056
-361.654	569.826	0.093	-0.225
-360.639	-177.126	-0.195	0.005
-359.625	-124.658	-0.244	0.038
-358.610	-4.115	-0.158	0.109
-357.596	800.000	-0.040	0.169
-356.581	800.000	-0.025	-0.076
-355.566	-69.110	0.187	0.072
-354.552	10.317	0.122	-0.092
-353.537	-158.878	0.106	-0.006
-352.523	62.692	0.312	0.310
-351.508	-62.707	-0.132	-0.054
-350.493	-134.636	-0.237	0.029
-349.479	-78.422	-0.225	-0.077
-348.464	-40.969	0.084	0.043
-347.450	76.400	0.248	0.261
-346.435	-200.000	0.018	0.145
-345.420	800.000	0.100	-0.383
-344.406	-200.000	0.007	-0.201
-343.391	81.601	0.141	0.152
-342.377	479.907	-0.087	-0.196
-341.362	41.919	-0.074	0.067
-340.348	800.000	0.044	0.148
-339.333	-97.485	-0.365	-0.094
-338.318	-200.000	-0.024	-0.170
-337.304	-200.000	-0.015	0.069
-336.289	-29.002	0.078	-0.045
-335.275	-200.000	-0.030	-0.283
-334.260	-25.213	0.206	-0.121
-333.245	608.017	-0.051	0.126
-332.231	-162.690	0.269	-0.013
-331.216	-29.107	-0.127	-0.072
-330.202	67.612	-0.108	0.110
-329.187	-122.581	0.333	0.054
-328.172	-53.026	0.139	0.064
-327.158	-200.000	0.013	-0.199
-326.143	-86.299	-0.171	-0.052
-325.129	-10.171	0.127	0.083
-324.114	25.213	-0.043	0.035
-323.099	-46.221	0.312	-0.153
-322.085	-28.542	-0.228	0.130
-321.070	-164.066	-0.114	0.005
-320.056	39.936	0.271	-0.242
-319.041	90.192	-0.130	-0.145
-318.026	-118.454	0.161	-0.028
-317.012	4.198	-0.115	0.084
-315.997	118.391	0.083	0.102
-314.983	800.000	-0.025	-0.075
-313.968	645.946	0.115	-0.290
-312.953	294.672	-0.251	0.455
-311.939	-159.624	0.060	-0.003
-310.924	298.036	0.081	-0.148
-309.910	113.803	-0.092	-0.111
-308.895	-135.632	-0.281	0.033
-307.880	800.000	0.199	-0.578
-306.866	604.833	-0.054	-0.132
-305.851	788.070	-0.106	0.288
-304.837	-146.431	0.276	0.024
-303.822	-94.299	0.148	-0.040
-302.807	-123.606	-0.139	0.022
-301.793	304.587	0.105	0.194
-300.778	86.456	0.027	0.030
-299.764	-51.794	-0.255	0.118
-298.749	129.993	-0.019	-0.024
-297.735	22.022	0.242	0.195
-296.720	-200.000	0.008	0.150
-295.705	159.075	-0.139	-0.192
-294.691	71.128	-0.173	-0.178
-293.676	385.663	-0.062	0.127
-292.662	47.657	0.114	-0.105
-291.647	489.472	0.100	-0.227
-290.632	-200.000	0.036	0.282
-289.618	-126.445	-0.178	0.026
-288.603	800.000	-0.059	-0.251
-287.589	-200.000	-0.009	0.110
-286.574	-101.370	0.401	0.097
-285.559	14.907	-0.226	-0.175
-284.545	-200.000	0.012	-0.164
-283.530	108.871	0.227	-0.270
-282.516	267.626	-0.121	0.210
-281.501	33.406	0.136	0.117
-280.486	78.185	0.110	-0.116
-279.472	-200.000	0.268	0.000
-278.457	-38.127	-0.249	-0.131
-277.443	-104.293	-0.322	-0.074
-276.428	172.198	0.341	-0.486
-275.413	-68.466	-0.357	-0.137
-274.399	800.000	0.026	0.099
-273.384	-54.580	-0.435	0.195
-272.370	18.879	0.077	0.061
-271.355	-32.785	-0.147	0.081
-270.340	-109.704	0.285	0.060
-269.326	800.000	0.053	-0.167
-268.311	800.000	-0.101	-0.382
-267.297	-113.441	-0.012	-0.002
-266.282	-132.175	-0.114	-0.015
-265.267	753.563	0.019	0.050
-264.253	-122.980	-0.061	0.010
-263.238	120.531	0.082	-0.101
-262.224	-178.852	0.169	-0.004
-261.209	800.000	-0.022	0.093
-260.195	195.186	-0.175	-0.263
-259.180	-51.675	0.231	0.107
-258.165	-165.200	-0.382	-0.017
-257.151	171.684	-0.156	0.222
-256.136	12.430	0.077	-0.059
-255.122	800.000	-0.022	0.082
-254.107	800.000	0.076	-0.224
-253.092	49.331	-0.204	0.190
-252.078	-200.000	-0.063	0.310
-251.063	204.324	0.133	-0.204
-250.049	46.540	0.177	-0.163
-249.034	-43.364	0.086	0.043
-248.019	90.632	-0.211	-0.234
-247.005	268.565	-0.091	-0.158
-245.990	-68.382	0.332	0.128
-244.976	800.000	0.095	0.310
-243.961	800.000	0.032	0.101
-242.946	-184.502	-0.225	-0.004
-241.932	-200.000	0.012	0.085
-240.917	-200.000	0.095	0.000
-239.903	800.000	-0.039	-0.109
-238.888	-200.000	-0.022	0.286
-237.873	4.061	-0.113	0.081
-236.859	398.781	-0.089	-0.184
-235.844	-200.000	-0.002	0.433
-234.830	-65.654	-0.173	-0.068
-233.815	800.000	0.085	0.280
-232.800	340.270	0.070	0.135
-231.786	182.390	-0.202	-0.294
-230.771	-115.172	-0.178	-0.033
-229.757	-123.188	0.018	0.003
-228.742	4.758	0.171	0.124
-227.727	-118.370	-0.205	-0.036
-226.713	-200.000	0.035	-0.195
-225.698	-39.444	-0.284	0.147
-224.684	-152.689	-0.290	0.020
-223.669	67.879	0.127	-0.129
-222.655	-200.000	0.004	0.236
-221.640	60.486	0.024	-0.023
-220.625	355.002	-0.119	-0.235
-219.611	100.033	-0.181	-0.208
-218.596	-109.445	-0.395	-0.083
-217.582	1.505	-0.508	-0.361
-216.567	800.000	-0.067	-0.233
-215.552	-107.732	-0.088	0.019
-214.538	123.717	0.154	-0.192
-213.523	800.000	0.030	-0.100
-212.509	524.559	-0.040	0.092
-211.494	59.776	0.132	0.129
-210.479	-200.000	-0.006	0.229
-209.465	620.498	0.146	-0.363
-208.450	-36.272	0.251	-0.134
-207.436	298.042	0.125	-0.227
-206.421	44.340	0.250	-0.227
-205.406	-146.556	-0.405	-0.035
-204.392	-125.078	0.274	0.042
-203.377	93.275	-0.160	-0.179
-202.363	-200.000	-0.008	-0.058
-201.348	-49.863	-0.365	0.171
-200.333	800.000	-0.032	0.113
-199.319	-38.910	0.132	-0.069
-198.304	-200.000	0.041	0.194
-197.290	19.893	0.036	-0.029
-196.275	29.039	-0.239	0.200
-195.260	800.000	-0.017	-0.069
-194.246	-45.013	-0.097	0.048
-193.231	-100.460	-0.167	0.041
-192.217	121.060	0.271	0.333
-191.202	-170.126	0.358	-0.013
-190.187	29.456	0.119	0.100
-189.173	140.595	-0.106	0.139
-188.158	-87.592	0.127	-0.038
-187.144	35.815	-0.127	0.110
-186.129	93.088	-0.082	-0.091
-185.114	-49.082	-0.187	-0.088
-184.100	-73.927	-0.275	0.099
-183.085	-107.196	0.270	0.059
-182.071	-200.000	-0.014	0.151
-181.056	-200.000	-0.053	-0.273
-180.042	-12.668	0.182	0.117
-179.027	-126.097	-0.176	0.026
-178.012	644.629	0.122	-0.307
-176.998	-35.920	-0.233	0.124
-175.983	-4.800	0.165	-0.112
-174.969	-86.312	-0.326	0.099
-173.954	-73.320	-0.157	0.057
-172.939	-7.000	0.265	-0.178
-171.925	-1.580	-0.071	0.049
-170.910	-112.716	-0.252	-0.049
-169.896	309.594	-0.099	-0.182
-168.881	-8.968	-0.118	0.078
-167.866	-152.233	-0.257	0.018
-166.852	72.479	0.094	0.097
-165.837	-21.589	0.196	0.118
-164.823	111.039	-0.130	0.154
-163.808	-200.000	-0.045	-0.237
-162.793	-200.000	0.036	-0.290
-161.779	-200.000	-0.017	-0.188
-160.764	-17.478	0.075	-0.047
-159.750	556.237	-0.155	0.369
-158.735	800.000	0.069	0.201
-157.720	-42.327	-0.001	0.001
-156.706	-181.744	-0.240	-0.005
-155.691	24.091	-0.236	0.192
-154.677	-155.043	0.167	-0.011
-153.662	-17.663	0.130	-0.080
-152.647	211.158	-0.105	-0.164
-151.633	133.073	0.060	-0.077
-150.618	-200.000	-0.023	0.209
-149.604	-200.000	-0.088	0.437
-148.589	-89.419	0.128	-0.037
-147.574	800.000	-0.157	-0.481
-146.560	-106.539	-0.250	0.055
-145.545	-72.619	-0.566	-0.206
-144.531	800.000	-0.043	-0.157
-143.516	58.969	-0.081	0.078
-142.502	-15.090	0.265	0.167
-141.487	250.292	0.155	0.260
-140.472	-96.826	-0.201	0.052
-139.458	-56.183	-0.059	-0.026
-138.443	-32.912	-0.175	0.096
-137.429	-119.128	-0.331	0.057
-136.414	-200.000	0.076	0.455
-135.399	-112.200	-0.110	0.022
-134.385	9.939	-0.146	-0.109
-133.370	-200.000	-0.020	0.104
-132.356	-174.089	-0.158	-0.005
-131.341	-45.183	0.111	0.054
-130.326	559.646	-0.114	0.270
-129.312	-66.625	0.114	0.045
-128.297	42.701	0.207	0.186
-127.283	-56.037	-0.088	-0.039
-126.268	-14.682	-0.133	0.084
-125.253	-200.000	-0.038	-0.301
-124.239	7.669	0.157	-0.115
-123.224	-14.976	0.251	0.158
-122.210	-77.312	0.373	0.128
-121.195	800.000	0.125	0.344
-120.180	434.246	-0.161	0.344
-119.166	800.000	-0.065	-0.275
-118.151	-75.457	0.128	0.045
-117.137	-114.324	0.126	0.024
-116.122	46.466	-0.156	-0.143
-115.107	173.718	0.015	0.021
-114.093	10.754	-0.159	-0.120
-113.078	28.075	0.438	-0.364
-112.064	-84.886	0.102	0.032
-111.049	320.982	0.062	0.116
-110.034	375.311	0.179	0.359
-109.020	354.672	-0.145	-0.284
-108.005	199.486	0.033	-0.049
-106.991	-6.964	0.185	0.124
-105.976	45.858	0.113	-0.103
-104.962	38.792	0.076	0.067
-103.947	562.590	0.041	-0.097
-102.932	-200.000	0.043	-0.303
-101.918	338.017	-0.107	0.205
-100.903	51.264	-0.195	0.182
-99.889	-78.374	-0.322	-0.109
-98.874	180.073	-0.094	0.135
-97.859	16.509	0.186	0.144
-96.845	8.001	-0.306	0.226
-95.830	-64.500	-0.442	0.177
-94.816	547.961	-0.120	0.282
-93.801	8.063	0.033	-0.024
-92.786	131.315	0.121	0.153
-91.772	185.369	-0.131	-0.191
-90.757	800.000	-0.126	-0.377
-89.743	10.006	-0.173	-0.129
-88.728	-89.582	-0.085	0.024
-87.713	-161.171	0.305	0.016
-86.699	-3.433	0.343	-0.235
-85.684	-18.515	-0.178	-0.109
-84.670	-53.134	-0.176	-0.080
-83.655	62.404	0.130	0.128
-82.640	215.845	-0.018	-0.028
-81.626	-200.000	0.008	0.165
-80.611	-121.446	0.183	-0.030
-79.597	-200.000	0.028	0.261
-78.582	-55.317	0.149	-0.066
-77.567	100.570	-0.149	0.170
-76.553	-66.144	0.222	0.087
-75.538	334.941	-0.095	-0.182
-74.524	-68.141	-0.205	-0.079
-73.509	-66.453	0.246	-0.096
-72.494	19.158	-0.233	-0.184
-71.480	79.484	0.159	-0.168
-70.465	-200.000	0.014	0.114
-69.451	800.000	0.137	0.467
-68.436	-150.253	0.372	0.028
-67.422	-118.683	-0.207	-0.036
-66.407	-78.763	0.032	-0.011
-65.392	341.780	-0.102	-0.197
-64.378	181.570	-0.155	0.225
-63.363	29.699	0.139	0.117
-62.349	-200.000	0.052	-0.311
-61.334	135.637	-0.731	-0.935
-60.319	80.395	0.648	0.685
-59.305	800.000	-0.356	-1.085
-58.290	694.667	0.438	1.130
-57.276	510.381	0.816	1.865
-56.261	-200.000	105.642	580.646
-55.246	465.728	1451.274	3191.542
-54.232	151.351	2628.657	3515.329
-53.217	106.623	2168.498	2526.872
-52.203	40.502	1700.536	1504.410
-51.188	33.527	1512.767	1290.946
-50.173	31.032	1486.081	1251.402
-49.159	51.363	1540.289	1436.574
-48.144	52.219	1557.508	1458.425
-47.130	33.617	1514.357	1292.711
-46.115	30.695	1499.012	1259.810
-45.100	30.423	1496.040	1255.427
-44.086	30.417	1494.183	1253.779
-43.071	30.368	1491.999	1251.568
-42.057	30.317	1490.343	1249.784
-41.042	30.380	1488.761	1248.831
-40.027	30.209	1488.021	1247.008
-39.013	30.298	1486.038	1245.898
-37.998	30.259	1484.618	1244.394
-36.984	30.260	1483.197	1243.163
-35.969	30.308	1482.420	1242.780
-34.954	30.323	1480.877	1241.539
-33.940	30.196	1479.912	1239.834
-32.925	30.345	1478.061	1239.225
-31.911	30.397	1477.107	1238.727
-30.896	30.378	1475.650	1237.328
-29.881	30.445	1474.365	1236.649
-28.867	30.392	1473.316	1235.367
-27.852	30.308	1471.681	1233.386
-26.838	30.320	1470.184	1232.167
-25.823	30.386	1468.878	1231.457
-24.809	30.334	1467.528	1229.930
-23.794	30.369	1465.799	1228.667
-22.779	30.376	1464.886	1227.895
-21.765	30.368	1463.795	1226.880
-20.750	30.326	1463.102	1225.974
-19.736	30.297	1461.775	1224.624
-18.721	30.378	1460.594	1224.117
-17.706	30.440	1459.014	1223.154
-16.692	30.252	1458.531	1221.466
-15.677	30.308	1457.033	1220.529
-14.663	30.342	1455.977	1219.818
-13.648	30.350	1455.140	1219.122
-12.633	30.400	1454.331	1218.726
-11.619	30.411	1452.975	1217.615
-10.604	30.335	1452.090	1216.326
-9.590	30.296	1451.556	1215.572
-8.575	30.304	1450.850	1214.988
-7.560	30.280	1450.228	1214.262
-6.546	30.322	1449.174	1213.602
-5.531	30.287	1448.435	1212.706
-4.517	30.320	1447.147	1211.798
-3.502	30.208	1446.492	1210.471
-2.487	30.280	1445.157	1209.776
-1.473	30.287	1444.121	1208.904
-0.458	30.237	1443.287	1207.832
0.556	28.166	1433.630	1195.543
1.571	25.105	1408.174	1154.532
2.586	21.531	1347.551	1082.661
3.600	19.711	1265.944	1006.416
4.615	18.525	1220.988	963.928
5.629	16.017	1164.462	905.757
6.644	8.037	1080.529	800.450
7.659	1.314	1039.466	737.390
8.673	0.288	1033.852	728.383
9.688	0.088	1030.642	725.095
10.702	0.051	1029.387	723.966
11.717	-0.076	1027.371	721.875
12.731	2.553	1029.686	736.083
13.746	10.584	1040.837	782.871
14.761	16.929	1048.140	819.035
15.775	17.500	1047.779	821.440
16.790	16.410	1046.203	814.873
17.804	15.423	1043.425	807.889
18.819	14.455	1041.851	801.948
19.834	13.965	1040.481	798.463
20.848	13.714	1039.378	796.343
21.863	13.544	1038.673	794.916
22.877	13.138	1038.020	792.401
23.892	13.124	1037.066	791.534
24.907	12.987	1036.140	790.101
25.921	13.050	1035.427	789.788
26.936	13.066	1034.552	789.129
27.950	13.248	1033.619	789.217
28.965	13.164	1033.268	788.478
29.980	13.283	1032.646	788.498
30.994	13.326	1031.545	787.795
32.009	13.182	1031.152	786.739
33.023	13.324	1030.108	786.550
34.038	13.275	1029.630	785.881
35.053	13.237	1028.665	784.896
36.067	13.028	1027.867	783.226
37.082	13.180	1026.819	783.076
38.096	13.231	1026.363	782.904
39.111	13.239	1025.834	782.467
40.126	13.312	1024.528	781.747
41.140	13.270	1023.584	780.758
42.155	13.101	1022.808	779.300
43.169	13.095	1021.678	778.339
44.184	12.963	1020.457	776.722
45.199	13.065	1019.645	776.513
46.213	13.008	1018.788	775.523
47.228	12.997	1017.657	774.542
48.242	13.032	1016.831	774.012
49.257	13.176	1015.794	773.827
50.271	13.021	1015.069	772.483
51.286	13.120	1013.752	771.871
52.301	13.195	1013.032	771.606
53.315	13.254	1012.213	771.189
54.330	13.176	1011.683	770.355
55.344	13.142	1010.466	769.203
56.359	13.169	1009.581	768.584
57.374	13.029	1009.032	767.450
58.388	12.934	1008.347	766.420
59.403	12.940	1007.532	765.760
60.417	12.989	1006.483	765.120
61.432	13.027	1005.613	764.570
62.447	13.089	1004.948	764.283
63.461	12.914	1004.543	763.095
64.476	12.947	1003.393	762.307
65.490	13.035	1002.189	761.730
66.505	13.017	1001.672	761.189
67.520	13.077	1000.952	760.852
68.534	13.103	1000.160	760.300
69.549	12.959	999.891	759.366
70.563	13.043	998.568	758.682
71.578	12.959	998.235	757.974
72.593	12.985	997.099	757.163
73.607	12.849	996.109	755.720
74.622	12.998	995.035	755.523
75.636	12.986	993.868	754.514
76.651	12.949	993.349	753.887
77.666	12.927	993.029	753.475
78.680	12.953	992.190	752.892
79.695	12.855	991.795	752.078
80.709	13.100	990.622	752.237
81.724	13.041	990.025	751.449
82.739	12.982	989.383	750.624
83.753	13.179	988.389	750.701
84.768	13.100	987.774	749.811
85.782	13.272	987.003	749.937
86.797	13.272	986.215	749.271
87.812	13.297	985.587	748.841
88.826	13.262	984.760	747.991
89.841	13.216	984.405	747.445
90.855	13.072	983.766	746.241
91.870	13.215	982.817	746.102
92.884	13.285	982.029	745.753
93.899	13.264	981.213	744.976
94.914	13.282	980.285	744.284
95.928	13.401	979.572	744.211
96.943	13.332	979.181	743.538
97.957	13.319	978.131	742.620
98.972	13.271	977.334	741.734
99.987	13.305	976.631	741.284
101.001	13.393	976.077	741.193
102.016	13.198	975.372	739.721
103.030	13.168	974.161	738.604
104.045	13.225	973.314	738.150
105.060	13.343	972.029	737.637
106.074	13.239	971.502	736.705
107.089	13.193	970.625	735.773
108.103	13.121	969.903	734.837
109.118	12.986	968.935	733.438
110.133	13.056	968.123	733.072
111.147	13.164	967.428	732.959
112.162	12.932	966.519	731.178
113.176	13.258	965.365	731.682
114.191	13.137	964.918	730.745
115.206	13.206	964.269	730.494
116.220	13.210	963.302	729.713
117.235	13.053	962.406	728.276
118.249	13.069	962.016	727.990
119.264	13.114	960.770	727.181
120.279	13.081	960.300	726.612
121.293	13.107	958.912	725.615
122.308	13.155	958.268	725.275
123.322	13.018	957.568	724.076
124.337	13.092	956.723	723.697
125.352	13.016	955.714	722.540
126.366	13.057	954.330	721.608
127.381	12.947	953.612	720.520
128.395	13.173	952.217	720.387
129.410	13.143	951.442	719.608
130.424	13.131	950.587	718.844
131.439	13.155	949.413	718.000
132.454	13.115	948.791	717.290
133.468	13.104	948.128	716.678
134.483	13.136	947.972	716.637
135.497	13.215	946.973	716.159
136.512	13.061	946.424	715.015
137.527	13.298	944.953	714.866
138.541	13.277	943.872	713.893
139.556	13.236	943.864	713.648
140.570	13.238	943.025	712.960
141.585	13.299	941.899	712.306
142.600	13.238	941.696	711.828
143.614	13.315	940.921	711.512
144.629	13.322	940.229	710.953
145.643	13.376	939.454	710.535
146.658	13.350	938.719	709.805
147.673	13.317	937.584	708.743
148.687	13.408	936.685	708.390
149.702	13.373	935.854	707.549
150.716	13.182	935.198	706.174
151.731	13.207	934.489	705.684
152.746	13.310	933.744	705.500
153.760	13.287	933.010	704.785
154.775	13.240	932.493	704.132
155.789	13.323	931.424	703.616
156.804	13.403	930.670	703.324
157.819	13.431	929.616	702.583
158.833	13.374	929.194	701.961
159.848	13.514	928.397	701.887
160.862	13.496	927.883	701.363
161.877	13.407	927.226	700.425
162.892	13.300	926.468	699.339
163.906	13.364	925.642	698.925
164.921	13.312	924.898	698.083
165.935	13.305	923.772	697.140
166.950	13.463	922.434	696.734
167.964	13.274	922.310	695.782
168.979	13.395	921.004	695.246
169.994	13.291	920.279	694.198
171.008	13.492	918.950	693.976
172.023	13.527	918.143	693.452
173.037	13.501	917.424	692.739
174.052	13.565	916.894	692.545
175.067	13.558	916.151	691.895
176.081	13.543	915.819	691.519
177.096	13.416	915.163	690.434
178.110	13.431	913.756	689.372
179.125	13.493	913.322	689.243
180.140	13.458	912.789	688.636
181.154	13.429	912.040	687.890
182.169	13.443	911.289	687.319
183.183	13.551	910.748	687.300
184.198	13.662	909.899	687.057
185.213	13.577	909.212	686.126
186.227	13.534	908.696	685.499
187.242	13.536	908.444	685.257
188.256	13.670	907.734	685.214
189.271	13.657	906.902	684.471
190.286	13.690	906.164	683.987
191.300	13.615	905.200	682.890
192.315	13.530	904.437	681.907
193.329	13.479	903.624	681.024
194.344	13.566	903.140	680.956
195.359	13.477	902.650	680.159
196.373	13.590	901.985	680.065
197.388	13.605	901.753	679.888
198.402	13.816	900.900	680.051
199.417	13.817	900.645	679.804
200.432	14.000	900.124	680.096
201.446	13.823	899.796	679.066
202.461	14.051	899.124	679.431
203.475	13.895	898.722	678.428
204.490	13.930	898.325	678.214
205.504	13.925	897.157	677.248
206.519	14.084	896.116	677.051
207.534	13.905	895.971	676.153
208.548	13.772	895.300	675.046
209.563	14.017	894.243	675.185
210.577	13.939	893.533	674.271
211.592	13.872	893.018	673.553
212.607	13.976	892.563	673.570
213.621	14.147	891.569	673.454
214.636	14.069	891.366	672.925
215.650	14.044	890.712	672.269
216.665	14.108	889.938	671.887
217.680	14.073	889.675	671.485
218.694	14.137	888.866	671.076
219.709	14.158	888.227	670.616
220.723	14.195	887.735	670.336
221.738	14.016	887.299	669.228
222.753	14.126	886.525	669.028
223.767	14.200	885.640	668.594
224.782	14.079	885.187	667.708
225.796	14.223	884.346	667.592
226.811	14.343	883.225	667.168
227.826	14.238	882.557	666.186
228.840	14.096	882.193	665.283
229.855	14.239	881.365	665.172
230.869	14.181	880.970	664.584
231.884	14.229	880.279	664.193
232.899	14.213	879.700	663.637
233.913	14.160	878.910	662.771
234.928	14.314	877.927	662.584
235.942	14.182	877.759	661.873
236.957	14.177	876.653	660.960
237.972	14.294	876.096	660.943
238.986	14.147	875.810	660.086
240.001	14.294	875.088	660.066
241.015	14.337	874.371	659.638
242.030	14.252	873.740	658.767
243.045	14.361	872.768	658.409
244.059	14.390	872.447	658.223
245.074	14.446	871.542	657.702
246.088	14.347	871.132	656.943
247.103	14.473	870.853	657.172
248.117	14.528	870.038	656.717
249.132	14.557	869.344	656.245
250.147	14.578	869.330	656.263
251.161	14.698	867.989	655.662
252.176	14.732	867.592	655.439
253.190	14.794	866.675	654.931
254.205	14.839	865.940	654.495
255.220	14.769	865.701	653.979
256.234	14.671	865.199	653.161
257.249	14.839	864.387	653.146
258.263	14.751	864.163	652.574
259.278	14.763	863.184	651.824
260.293	14.807	862.957	651.769
261.307	14.886	862.223	651.463
262.322	14.921	861.448	650.957
263.336	14.928	861.170	650.714
264.351	14.965	860.400	650.221
265.366	14.933	859.873	649.638
266.380	15.015	859.197	649.392
267.395	14.979	858.405	648.593
268.409	15.057	857.820	648.398
269.424	14.883	857.443	647.380
270.439	15.071	856.452	647.304
271.453	14.981	855.754	646.368
272.468	14.850	855.511	645.624
273.482	14.862	854.543	644.881
274.497	14.889	853.990	644.513
275.512	14.819	853.661	643.935
276.526	15.055	852.398	643.833
277.541	15.049	851.726	643.247
278.555	15.007	851.465	642.830
279.570	15.111	850.842	642.702
280.585	15.052	850.307	642.017
281.599	15.122	849.566	641.670
282.614	15.276	848.840	641.654
283.628	15.124	848.387	640.673
284.643	15.010	847.947	639.849
285.657	15.099	847.394	639.713
286.672	15.147	846.828	639.413
287.687	15.125	846.216	638.810
288.701	15.195	846.031	638.881
289.716	15.153	845.439	638.219
290.730	15.217	844.759	637.890
291.745	15.192	844.081	637.226
292.760	15.382	842.833	636.950
293.774	15.496	842.633	637.175
294.789	15.359	842.358	636.390
295.803	15.264	841.897	635.627
296.818	15.358	841.203	635.403
297.833	15.240	840.386	634.283
298.847	15.190	839.909	633.678
299.862	15.313	839.517	633.790
300.876	15.444	838.459	633.430
301.891	15.429	837.861	632.865
302.906	15.475	837.210	632.490
303.920	15.499	836.633	632.092
304.935	15.414	835.967	631.212
305.949	15.598	835.407	631.423
306.964	15.582	835.238	631.182
307.979	15.578	834.235	630.350
308.993	15.557	833.780	629.875
310.008	15.610	833.123	629.520
311.022	15.650	832.605	629.223
312.037	15.625	832.402	628.921
313.052	15.637	831.732	628.401
314.066	15.523	831.224	627.539
315.081	15.617	830.220	627.076
316.095	15.640	829.755	626.755
317.110	15.579	829.465	626.251
318.125	15.664	828.889	626.078
319.139	15.540	828.450	625.228
320.154	15.498	827.678	624.434
321.168	15.518	827.283	624.158
322.183	15.549	827.248	624.191
323.197	15.636	826.500	623.895
324.212	15.705	825.935	623.668
325.227	15.743	825.316	623.285
326.241	15.673	824.811	622.592
327.256	15.615	823.993	621.702
328.270	15.764	823.574	621.885
329.285	15.864	822.962	621.737
330.300	15.680	822.255	620.467
331.314	15.691	821.691	620.026
332.329	15.690	821.101	619.524
333.343	15.796	820.537	619.434
334.358	15.803	820.106	619.079
335.373	15.816	819.399	618.537
336.387	15.914	819.020	618.557
337.402	15.875	818.673	618.098
338.416	16.096	817.319	617.830
339.431	16.052	817.189	617.515
340.446	15.981	816.904	616.986
341.460	16.001	816.425	616.642
342.475	16.146	815.293	616.263
343.489	16.193	814.846	616.043
344.504	16.177	814.381	615.580
345.519	16.234	813.944	615.400
346.533	16.115	813.952	614.920
347.548	16.187	813.177	614.541
348.562	16.213	812.399	613.995
349.577	16.088	811.923	613.125
350.592	16.088	811.692	612.894
351.606	15.988	811.043	611.989
352.621	16.057	810.660	611.896
353.635	16.162	810.066	611.775
354.650	16.132	809.724	611.351
355.665	16.200	809.427	611.322
356.679	16.209	808.865	610.876
357.694	16.151	808.532	610.361
358.708	16.081	808.009	609.659
359.723	16.181	807.359	609.474
360.738	16.317	806.619	609.352
361.752	16.332	806.000	608.887
362.767	16.167	806.060	608.283
363.781	16.329	805.552	608.427
364.796	16.460	805.014	608.438
365.810	16.432	804.360	607.790
366.825	16.481	804.214	607.805
367.840	16.400	803.979	607.281
368.854	16.393	803.214	606.622
369.869	16.485	802.673	606.492
370.883	16.504	802.536	606.402
371.898	16.400	801.779	605.403
372.913	16.549	801.191	605.442
373.927	16.633	800.453	605.131
374.942	16.593	799.860	604.486
375.956	16.620	799.555	604.297
376.971	16.549	798.857	603.464
377.986	16.626	798.192	603.180
379.000	16.700	797.830	603.119
380.015	16.688	797.640	602.879
381.029	16.738	796.880	602.429
382.044	16.709	796.212	601.768
383.059	16.731	795.832	601.504
384.073	16.749	795.134	600.989
385.088	16.676	794.950	600.537
386.102	16.823	794.038	600.315
387.117	16.720	793.456	599.458
388.132	16.725	793.085	599.142
389.146	16.815	792.700	599.118
390.161	16.690	792.879	598.757
391.175	16.868	792.331	598.919
392.190	16.892	791.805	598.554
393.205	16.919	791.022	598.002
394.219	16.696	790.843	597.030
395.234	16.849	790.243	597.063
396.248	16.729	790.215	596.566
397.263	16.830	789.355	596.217
398.278	16.694	789.078	595.478
399.292	16.830	788.532	595.492
400.307	16.790	788.011	594.905
401.321	16.669	787.600	594.117
402.336	16.759	787.293	594.149
403.350	16.832	786.944	594.090
404.365	16.912	786.571	594.033
405.380	17.088	785.833	594.042
406.394	17.058	785.255	593.447
407.409	17.054	785.048	593.223
408.423	17.038	785.099	593.154
409.438	17.116	783.992	592.536
410.453	16.952	783.819	591.782
411.467	17.119	783.388	591.988
412.482	17.073	782.638	591.209
413.496	17.312	782.279	591.714
414.511	17.225	781.917	591.085
415.526	17.161	781.887	590.788
416.540	17.330	781.387	590.945
417.555	17.071	781.467	590.055
418.569	17.293	780.663	590.168
419.584	17.316	780.002	589.694
420.599	17.315	779.598	589.333
421.613	108.638	1290.190	1467.486
422.628	92.892	1364.580	1467.571
