DTS Sentinel unit serial number:	SN413079Multiplexer serial number:	ORYXHardware model number:	OX4-SRSoftware version number:	ORYX F/W v4.00 Oryx Data Collector v3.7.2.0data status	okinstallation	princeton_trtdifferential loss correction	single-endedforward channel	channel 3reverse channel	N/Adate	2019/09/18time	13:40:34forward acquisition time	60.00reverse acquisition time	0.00gamma	496.2192k internal	0.2311k external	0.2311temperature offset calibration	0.9970default loss term (dB/km)	0.3790temperature slope calibration	1.0000multiplexer offset coefficient	1.0000multiplexer slope coefficient	1.0000fibre end	0.00T internal ref (°C)	34.44T ext. ref 1 (°C)	0.63T ext. ref 2 (°C)	30.35length (m)	temperature (°C)	Stokes	anti-Stokes-747.200	36.111	0.135	-0.121
-746.185	786.916	-0.104	0.289
-745.171	-200.000	-0.026	0.250
-744.156	94.667	-0.050	-0.058
-743.142	-121.435	0.239	0.040
-742.127	734.611	-0.074	0.200
-741.112	-25.297	0.163	-0.098
-740.098	-69.505	-0.340	0.132
-739.083	800.000	0.017	0.064
-738.069	109.798	-0.103	0.125
-737.054	-23.654	-0.263	-0.160
-736.039	77.729	-0.171	0.185
-735.025	102.257	0.058	0.068
-734.010	-61.620	0.055	-0.024
-732.996	-78.713	0.280	-0.097
-731.981	233.900	-0.184	0.307
-730.966	-200.000	0.009	-0.091
-729.952	352.573	0.100	-0.201
-728.937	-93.215	-0.122	-0.034
-727.923	141.908	0.090	-0.122
-726.908	-67.288	-0.371	-0.148
-725.894	-79.203	-0.278	-0.096
-724.879	-123.108	-0.287	-0.047
-723.864	50.438	-0.157	-0.151
-722.850	-29.920	-0.162	0.093
-721.835	-121.319	0.192	-0.033
-720.821	-54.107	-0.033	0.015
-719.806	152.585	-0.013	-0.018
-718.791	800.000	0.097	0.286
-717.777	49.070	0.235	-0.224
-716.762	-169.309	-0.069	-0.003
-715.748	92.915	0.080	-0.091
-714.733	105.905	-0.151	0.181
-713.718	-85.635	-0.226	0.071
-712.704	-3.619	0.117	0.083
-711.689	-200.000	0.007	0.092
-710.675	45.558	-0.245	-0.230
-709.660	-172.345	-0.131	0.004
-708.645	349.933	0.063	0.127
-707.631	-200.000	-0.069	-0.376
-706.616	-200.000	-0.026	-0.301
-705.602	-92.216	0.231	-0.066
-704.587	-200.000	0.024	-0.256
-703.572	-153.651	-0.182	-0.013
-702.558	342.066	-0.013	-0.025
-701.543	76.528	-0.131	0.141
-700.529	246.872	0.115	-0.196
-699.514	-20.931	0.055	-0.034
-698.499	-200.000	-0.005	-0.141
-697.485	-200.000	0.008	0.221
-696.470	-102.955	0.196	-0.047
-695.456	-8.054	-0.085	-0.058
-694.441	800.000	-0.042	0.136
-693.426	-72.928	-0.431	0.160
-692.412	-200.000	0.016	0.089
-691.397	20.070	0.118	-0.096
-690.383	-63.639	0.208	-0.087
-689.368	377.988	0.062	0.128
-688.354	14.352	-0.271	0.214
-687.339	329.817	0.094	-0.183
-686.324	-84.683	-0.240	0.077
-685.310	800.000	0.040	-0.142
-684.295	800.000	0.049	-0.186
-683.281	335.951	0.060	0.118
-682.266	228.796	-0.207	-0.343
-681.251	47.624	0.139	0.132
-680.237	383.477	-0.152	-0.317
-679.222	-200.000	-0.069	-0.495
-678.208	-54.532	-0.085	-0.039
-677.193	1.797	-0.391	0.286
-676.178	-15.955	-0.265	0.171
-675.164	-113.877	-0.176	-0.035
-674.149	11.158	-0.100	-0.078
-673.135	282.674	-0.136	-0.247
-672.120	140.912	0.227	-0.304
-671.105	-200.000	-0.037	-0.372
-670.091	167.589	-0.137	-0.197
-669.076	-200.000	-0.005	-0.160
-668.062	-33.340	-0.127	0.071
-667.047	800.000	-0.064	-0.237
-666.032	43.462	-0.230	-0.213
-665.018	-35.678	-0.221	-0.121
-664.003	107.701	0.228	-0.275
-662.989	126.702	0.190	-0.243
-661.974	182.916	-0.201	-0.300
-660.959	266.246	-0.271	-0.479
-659.945	-146.385	0.029	-0.003
-658.930	800.000	-0.128	-0.415
-657.916	7.523	-0.111	-0.084
-656.901	800.000	-0.109	-0.359
-655.886	-118.980	-0.557	0.099
-654.872	275.809	-0.166	-0.298
-653.857	800.000	-0.007	0.024
-652.843	-89.087	0.231	-0.069
-651.828	204.300	-0.125	-0.196
-650.814	212.735	0.069	-0.111
-649.799	-143.710	-0.109	0.010
-648.784	-179.850	0.188	-0.004
-647.770	99.977	-0.010	-0.012
-646.755	-107.622	-0.084	-0.019
-645.741	-126.656	-0.230	-0.034
-644.726	-47.375	0.330	-0.162
-643.711	-40.681	0.221	-0.116
-642.697	-151.247	-0.219	0.017
-641.682	32.200	-0.059	0.052
-640.668	-129.453	-0.380	0.053
-639.653	80.768	0.051	0.056
-638.638	-16.688	-0.300	-0.192
-637.624	18.104	0.176	-0.142
-636.609	-67.303	0.149	-0.059
-635.595	-77.912	0.368	0.128
-634.580	14.872	0.190	0.150
-633.565	-122.435	-0.166	0.027
-632.551	800.000	-0.084	-0.321
-631.536	-28.159	0.246	-0.144
-630.522	-200.000	-0.026	0.162
-629.507	-56.873	-0.296	0.132
-628.492	115.979	0.094	-0.116
-627.478	336.996	-0.128	-0.252
-626.463	-128.400	0.292	-0.042
-625.449	800.000	-0.124	-0.415
-624.434	144.799	-0.070	-0.095
-623.419	-34.567	0.232	-0.128
-622.405	-200.000	0.025	0.284
-621.390	-64.642	-0.308	-0.126
-620.376	-0.090	0.073	-0.053
-619.361	-68.841	0.061	-0.024
-618.346	-200.000	-0.031	-0.252
-617.332	193.638	0.166	-0.254
-616.317	-200.000	0.031	-0.214
-615.303	-70.003	0.328	0.126
-614.288	122.179	0.178	0.224
-613.273	-200.000	0.028	0.171
-612.259	276.692	-0.052	-0.093
-611.244	123.925	-0.188	0.239
-610.230	99.391	-0.087	-0.102
-609.215	203.038	-0.078	0.121
-608.201	-200.000	-0.008	-0.273
-607.186	-157.930	-0.138	0.008
-606.171	-200.000	0.033	0.196
-605.157	800.000	0.022	-0.079
-604.142	-109.662	0.132	-0.028
-603.128	259.603	-0.128	0.223
-602.113	275.541	-0.136	-0.244
-601.098	800.000	-0.008	-0.031
-600.084	448.351	0.075	0.166
-599.069	-141.847	-0.295	0.030
-598.055	800.000	-0.042	0.168
-597.040	122.736	-0.107	-0.135
-596.025	-72.284	-0.283	0.106
-595.011	230.389	0.235	-0.388
-593.996	242.061	-0.090	-0.152
-592.982	-200.000	-0.042	0.302
-591.967	-83.516	0.230	0.074
-590.952	130.802	-0.098	0.127
-589.938	-200.000	-0.016	0.123
-588.923	800.000	-0.160	0.471
-587.909	-132.887	0.358	-0.046
-586.894	450.524	0.049	0.108
-585.879	609.442	0.070	-0.175
-584.865	19.744	-0.190	-0.154
-583.850	-200.000	0.006	0.061
-582.836	118.578	-0.055	-0.068
-581.821	-200.000	-0.045	-0.234
-580.806	-84.859	-0.124	-0.039
-579.792	322.520	-0.244	0.469
-578.777	78.903	-0.025	0.027
-577.763	-49.415	0.268	0.129
-576.748	-44.924	-0.396	-0.199
-575.733	-3.569	0.298	-0.209
-574.719	62.062	0.177	-0.178
-573.704	319.433	-0.039	0.075
-572.690	-152.629	0.057	0.004
-571.675	436.582	0.085	0.186
-570.661	142.994	-0.029	-0.038
-569.646	800.000	-0.008	-0.030
-568.631	238.490	-0.064	-0.107
-567.617	254.957	0.135	0.232
-566.602	-119.678	-0.191	0.033
-565.588	63.433	-0.023	0.023
-564.573	-200.000	-0.047	-0.210
-563.558	-103.619	-0.259	-0.061
-562.544	251.537	0.121	-0.208
-561.529	-111.708	-0.280	0.057
-560.515	-139.145	0.200	0.022
-559.500	-40.682	-0.051	-0.026
-558.485	120.557	0.073	0.091
-557.471	441.657	-0.077	0.170
-556.456	-200.000	0.008	-0.155
-555.442	-200.000	-0.023	-0.114
-554.427	-118.067	-0.135	-0.024
-553.412	-165.632	-0.131	-0.006
-552.398	-19.723	0.069	-0.043
-551.383	-200.000	0.253	-0.001
-550.369	-85.421	0.251	0.079
-549.354	-142.831	-0.270	-0.026
-548.339	-39.198	0.155	-0.082
-547.325	323.092	0.165	0.317
-546.310	217.306	-0.233	0.374
-545.296	223.902	-0.058	0.095
-544.281	667.887	-0.231	0.601
-543.266	238.359	0.038	0.064
-542.252	149.191	-0.092	-0.125
-541.237	-133.569	-0.243	0.031
-540.223	614.037	0.094	-0.238
-539.208	70.921	0.103	0.108
-538.193	18.188	0.147	0.118
-537.179	-114.895	-0.362	0.070
-536.164	-200.000	-0.047	-0.268
-535.150	-200.000	0.000	-0.079
-534.135	658.448	0.047	0.122
-533.121	682.260	0.124	0.325
-532.106	800.000	-0.046	0.165
-531.091	-21.124	-0.152	-0.094
-530.077	-200.000	-0.039	0.305
-529.062	470.502	-0.043	-0.097
-528.048	-200.000	0.002	0.132
-527.033	56.181	0.184	-0.180
-526.018	33.465	0.227	-0.198
-525.004	565.106	0.075	0.183
-523.989	-19.138	0.132	-0.082
-522.975	800.000	0.039	-0.116
-521.960	-105.277	0.192	0.044
-520.945	-107.460	0.135	0.030
-519.931	263.556	-0.029	-0.051
-518.916	-185.380	-0.254	0.004
-517.902	-78.772	0.339	-0.117
-516.887	-42.870	0.285	-0.146
-515.872	-200.000	-0.004	0.148
-514.858	-54.453	0.213	-0.097
-513.843	-78.039	0.329	0.114
-512.829	280.005	-0.101	-0.182
-511.814	261.048	0.164	-0.286
-510.799	-148.041	0.290	0.024
-509.785	-16.079	-0.224	0.143
-508.770	-200.000	-0.019	-0.161
-507.756	800.000	0.065	-0.222
-506.741	-200.000	-0.043	-0.223
-505.726	282.520	0.058	-0.104
-504.712	800.000	0.024	-0.072
-503.697	25.342	-0.172	-0.144
-502.683	121.558	0.214	-0.269
-501.668	-12.490	-0.048	-0.032
-500.653	-39.492	-0.017	0.009
-499.639	-28.788	0.316	0.183
-498.624	-90.131	0.333	-0.097
-497.610	-200.000	-0.024	-0.223
-496.595	784.891	0.027	0.075
-495.581	337.369	0.038	0.074
-494.566	800.000	-0.103	0.329
-493.551	-200.000	-0.041	-0.189
-492.537	770.666	0.093	-0.255
-491.522	210.266	-0.074	0.117
-490.508	3.778	-0.137	-0.101
-489.493	40.183	0.176	-0.159
-488.478	-58.743	0.085	-0.037
-487.464	316.468	0.203	-0.385
-486.449	-200.000	-0.030	-0.164
-485.435	-78.610	0.102	0.035
-484.420	24.609	-0.231	-0.193
-483.405	307.723	-0.213	-0.399
-482.391	27.256	-0.211	0.178
-481.376	62.233	0.372	0.373
-480.362	-200.000	-0.014	-0.127
-479.347	262.895	-0.094	-0.164
-478.332	-14.265	0.103	-0.067
-477.318	-94.231	-0.061	-0.017
-476.303	-200.000	-0.014	0.065
-475.289	30.598	-0.205	0.176
-474.274	-113.071	-0.394	-0.078
-473.259	-200.000	0.028	0.360
-472.245	516.250	0.051	-0.119
-471.230	101.088	0.143	0.167
-470.216	800.000	0.017	0.069
-469.201	77.527	0.116	0.124
-468.186	6.022	-0.137	-0.102
-467.172	587.846	-0.060	0.149
-466.157	-111.277	-0.387	-0.079
-465.143	-200.000	-0.077	0.378
-464.128	-48.023	0.320	0.155
-463.113	65.241	-0.067	-0.068
-462.099	343.618	0.112	0.221
-461.084	45.604	-0.192	0.178
-460.070	-117.964	0.057	-0.010
-459.055	-10.524	0.118	-0.079
-458.040	-158.838	-0.177	0.010
-457.026	-96.585	-0.395	-0.105
-456.011	-38.235	0.261	-0.139
-454.997	64.809	-0.259	-0.263
-453.982	199.927	0.100	-0.154
-452.968	163.107	-0.202	0.285
-451.953	-200.000	-0.015	-0.109
-450.938	-200.000	0.014	-0.131
-449.924	-73.966	-0.229	-0.083
-448.909	-95.589	0.201	-0.054
-447.895	476.859	0.146	-0.331
-446.880	-116.774	-0.223	0.041
-445.865	800.000	0.016	-0.070
-444.851	166.596	-0.282	0.401
-443.836	58.282	-0.149	0.147
-442.822	-103.373	0.201	0.047
-441.807	-43.721	0.196	-0.099
-440.792	-77.482	0.148	0.052
-439.778	-200.000	0.057	-0.265
-438.763	101.700	-0.240	-0.281
-437.749	-54.290	0.351	0.160
-436.734	-200.000	0.007	-0.134
-435.719	-53.681	-0.049	0.023
-434.705	-2.357	-0.111	-0.078
-433.690	47.603	0.135	-0.127
-432.676	-14.869	-0.198	-0.128
-431.661	96.299	-0.257	-0.295
-430.646	-74.936	-0.065	0.023
-429.632	-200.000	0.013	-0.263
-428.617	84.908	0.299	-0.329
-427.603	-200.000	0.018	-0.143
-426.588	-49.020	-0.155	-0.075
-425.573	800.000	-0.063	0.239
-424.559	-47.476	0.281	-0.137
-423.544	-86.863	-0.037	0.011
-422.530	-149.231	0.162	0.013
-421.515	15.528	0.296	0.233
-420.500	-80.927	0.090	0.030
-419.486	-200.000	-0.029	0.219
-418.471	-90.457	-0.251	0.073
-417.457	-200.000	0.008	-0.140
-416.442	-191.903	0.237	0.002
-415.428	800.000	0.086	0.270
-414.413	800.000	-0.034	0.139
-413.398	592.034	0.066	0.164
-412.384	-39.294	-0.141	0.074
-411.369	45.078	0.164	0.152
-410.355	-200.000	0.021	0.098
-409.340	655.828	-0.118	0.303
-408.325	8.576	0.141	0.107
-407.311	253.896	-0.088	0.151
-406.296	-50.530	-0.283	-0.134
-405.282	-200.000	-0.009	-0.524
-404.267	325.298	-0.161	0.308
-403.252	350.620	0.088	-0.174
-402.238	800.000	-0.085	-0.349
-401.223	-68.616	-0.237	0.092
-400.209	-159.297	0.125	-0.007
-399.194	775.591	-0.111	0.304
-398.179	166.885	0.236	0.336
-397.165	41.110	-0.103	0.094
-396.150	385.947	0.138	-0.284
-395.136	27.006	0.193	-0.162
-394.121	-104.779	-0.215	-0.049
-393.106	12.156	-0.299	0.231
-392.092	-21.636	0.276	0.168
-391.077	800.000	0.059	0.188
-390.063	-27.425	0.153	0.089
-389.048	800.000	-0.095	-0.292
-388.033	800.000	0.102	-0.377
-387.019	-200.000	0.013	0.170
-386.004	-164.159	-0.255	-0.012
-384.990	800.000	-0.054	0.164
-383.975	-41.708	0.075	-0.039
-382.960	64.039	0.027	-0.027
-381.946	-200.000	-0.002	0.340
-380.931	97.352	-0.144	0.165
-379.917	-200.000	0.024	0.269
-378.902	-64.048	-0.151	-0.062
-377.888	-77.538	0.122	-0.042
-376.873	800.000	0.130	-0.469
-375.858	224.252	-0.076	-0.122
-374.844	4.358	0.106	0.078
-373.829	-52.731	0.140	0.064
-372.815	2.213	-0.135	-0.097
-371.800	-200.000	-0.013	-0.156
-370.785	301.909	-0.054	-0.100
-369.771	-200.000	0.005	0.245
-368.756	-163.058	-0.115	0.006
-367.742	-68.630	-0.186	-0.072
-366.727	-103.656	-0.301	0.071
-365.712	14.848	-0.146	-0.114
-364.698	-3.378	-0.136	0.094
-363.683	-117.099	-0.180	-0.033
-362.669	14.090	0.215	0.168
-361.654	-103.704	0.380	-0.089
-360.639	89.003	0.159	0.176
-359.625	-137.402	0.401	-0.045
-358.610	-189.133	-0.069	-0.001
-357.596	-170.884	-0.397	0.014
-356.581	81.720	-0.090	0.097
-355.566	-84.889	0.278	0.087
-354.552	-92.681	0.215	-0.060
-353.537	-142.311	-0.252	0.025
-352.523	-200.000	-0.036	0.275
-351.508	635.581	-0.176	0.446
-350.493	522.575	0.142	-0.334
-349.479	212.283	0.141	-0.223
-348.464	-69.579	-0.185	-0.071
-347.450	146.754	0.123	0.165
-346.435	780.717	-0.048	0.131
-345.420	-200.000	-0.032	-0.168
-344.406	-200.000	0.017	-0.280
-343.391	149.380	0.057	-0.077
-342.377	-200.000	0.073	0.390
-341.362	74.613	0.052	-0.054
-340.348	-31.582	-0.091	-0.051
-339.333	-50.182	0.149	0.071
-338.318	-200.000	-0.036	-0.189
-337.304	-92.571	-0.161	0.045
-336.289	86.657	0.122	-0.135
-335.275	755.469	-0.076	0.206
-334.260	93.126	-0.158	-0.178
-333.245	-58.105	0.146	0.063
-332.231	108.871	0.057	-0.069
-331.216	70.534	-0.072	0.075
-330.202	-200.000	-0.037	0.237
-329.187	-104.183	0.193	-0.045
-328.172	-102.402	-0.127	-0.030
-327.158	-75.742	-0.245	0.087
-326.143	372.022	0.157	0.319
-325.129	534.853	0.073	-0.172
-324.114	800.000	-0.021	0.078
-323.099	20.976	0.056	-0.046
-322.085	321.716	-0.141	0.268
-321.070	218.218	0.170	-0.271
-320.056	285.329	-0.176	-0.317
-319.041	795.400	0.084	0.232
-318.026	201.041	0.238	0.366
-317.012	267.242	0.081	-0.142
-315.997	-91.908	0.237	0.067
-314.983	-113.325	-0.119	-0.023
-313.968	295.863	-0.226	0.414
-312.953	677.298	-0.084	0.218
-311.939	118.211	0.141	0.174
-310.924	-81.221	0.247	-0.081
-309.910	2.816	-0.212	0.153
-308.895	-115.567	-0.341	0.064
-307.880	220.695	0.036	-0.058
-306.866	-189.838	0.087	0.001
-305.851	800.000	0.024	0.078
-304.837	-200.000	0.001	-0.144
-303.822	374.607	-0.077	0.157
-302.807	-112.232	0.182	-0.036
-301.793	61.266	-0.110	0.109
-300.778	448.554	0.060	0.132
-299.764	87.940	-0.169	0.186
-298.749	-109.235	-0.102	-0.022
-297.735	-109.212	0.037	0.008
-296.720	-200.000	0.039	0.282
-295.705	-49.259	0.035	-0.017
-294.691	-151.320	-0.184	-0.014
-293.676	-55.426	-0.294	0.131
-292.662	97.805	-0.105	-0.120
-291.647	-126.522	0.082	-0.012
-290.632	-200.000	-0.010	-0.107
-289.618	343.475	-0.088	0.172
-288.603	14.860	-0.148	0.116
-287.589	300.662	0.161	-0.296
-286.574	-12.199	-0.108	-0.070
-285.559	-60.841	-0.402	0.170
-284.545	800.000	-0.043	-0.126
-283.530	304.416	-0.091	-0.169
-282.516	692.709	0.100	0.261
-281.501	246.610	-0.056	-0.094
-280.486	-126.546	0.193	-0.029
-279.472	-62.607	0.245	0.101
-278.457	37.410	0.146	-0.129
-277.443	-200.000	-0.017	-0.358
-276.428	-98.191	-0.174	0.045
-275.413	284.167	0.198	0.355
-274.399	280.338	0.068	-0.121
-273.384	800.000	0.031	0.110
-272.370	-200.000	0.020	-0.149
-271.355	638.024	0.054	0.138
-270.340	152.714	-0.174	-0.237
-269.326	640.523	0.084	-0.212
-268.311	11.917	-0.073	-0.056
-267.297	-28.154	-0.189	-0.109
-266.282	-83.040	0.280	0.090
-265.267	-159.224	-0.189	-0.011
-264.253	75.017	-0.095	-0.100
-263.238	-200.000	0.060	-0.272
-262.224	-22.809	-0.034	-0.020
-261.209	-200.000	-0.030	0.203
-260.195	800.000	-0.040	-0.145
-259.180	-200.000	0.007	-0.187
-258.165	45.011	0.155	-0.142
-257.151	800.000	-0.056	-0.232
-256.136	-118.774	0.171	0.030
-255.122	320.583	0.066	0.125
-254.107	-16.663	0.165	0.104
-253.092	-96.541	-0.417	0.110
-252.078	-77.495	-0.032	-0.011
-251.063	-128.517	-0.174	0.025
-250.049	269.145	-0.212	-0.370
-249.034	-63.067	0.290	-0.119
-248.019	-200.000	-0.008	0.131
-247.005	-200.000	0.001	0.353
-245.990	277.470	0.086	0.153
-244.976	-151.840	0.253	-0.018
-243.961	-110.005	-0.468	0.097
-242.946	-110.554	0.112	-0.023
-241.932	-58.739	0.137	0.059
-240.917	100.777	0.056	-0.065
-239.903	-116.866	-0.334	-0.061
-238.888	800.000	0.016	0.048
-237.873	-60.016	-0.403	-0.171
-236.859	-34.570	0.275	0.150
-235.844	-200.000	0.018	-0.339
-234.830	-200.000	-0.010	-0.265
-233.815	495.611	0.128	0.293
-232.800	353.618	0.123	0.243
-231.786	-110.608	-0.148	-0.030
-230.771	309.659	0.056	-0.103
-229.757	-3.839	0.337	0.233
-228.742	800.000	-0.080	0.241
-227.727	-196.382	-0.161	-0.001
-226.713	-49.917	0.152	-0.072
-225.698	-100.951	0.392	0.096
-224.684	270.185	-0.212	-0.371
-223.669	254.472	0.054	-0.091
-222.655	-95.862	-0.509	-0.135
-221.640	-107.639	0.225	-0.049
-220.625	32.603	-0.128	-0.110
-219.611	-200.000	0.011	-0.157
-218.596	-200.000	0.011	0.109
-217.582	-78.004	0.234	-0.080
-216.567	-200.000	-0.066	0.414
-215.552	13.056	0.230	-0.177
-214.538	-98.170	0.095	0.024
-213.523	122.826	0.110	0.137
-212.509	-200.000	-0.044	-0.411
-211.494	-163.897	0.120	-0.006
-210.479	-200.000	0.045	-0.400
-209.465	345.469	-0.142	-0.277
-208.450	-94.393	-0.171	-0.046
-207.436	800.000	-0.078	0.315
-206.421	121.582	0.156	-0.193
-205.406	114.508	-0.165	0.199
-204.392	366.477	-0.115	0.231
-203.377	800.000	0.070	-0.253
-202.363	88.921	0.147	0.163
-201.348	-200.000	-0.006	0.175
-200.333	-155.205	0.392	0.025
-199.319	14.753	-0.355	0.276
-198.304	-50.458	0.046	-0.022
-197.290	28.284	0.074	-0.062
-196.275	-200.000	-0.008	-0.160
-195.260	143.930	0.009	0.012
-194.246	51.394	0.058	0.054
-193.231	509.318	0.035	0.081
-192.217	199.589	-0.073	0.112
-191.202	-200.000	-0.023	0.209
-190.187	453.777	-0.022	-0.048
-189.173	320.163	0.106	0.201
-188.158	-200.000	0.036	0.184
-187.144	-46.944	-0.448	0.217
-186.129	-121.382	0.436	0.072
-185.114	800.000	0.056	0.205
-184.100	-200.000	0.018	-0.191
-183.085	51.246	-0.044	-0.042
-182.071	94.718	0.138	0.156
-181.056	800.000	0.022	0.069
-180.042	800.000	-0.051	-0.211
-179.027	-185.501	-0.200	-0.003
-178.012	613.986	0.061	0.151
-176.998	116.982	-0.114	-0.139
-175.983	-132.248	0.194	0.025
-174.969	-132.088	0.207	-0.027
-173.954	441.616	-0.070	-0.153
-172.939	-200.000	0.045	-0.215
-171.925	-200.000	-0.004	0.316
-170.910	-67.915	-0.190	0.074
-169.896	-200.000	0.032	-0.233
-168.881	-136.127	-0.322	0.037
-167.866	-117.234	-0.196	0.035
-166.852	-200.000	-0.002	0.213
-165.837	-200.000	0.036	0.278
-164.823	-200.000	-0.061	0.334
-163.808	800.000	0.076	-0.276
-162.793	288.006	-0.112	0.202
-161.779	-112.038	-0.217	-0.043
-160.764	-200.000	-0.048	-0.228
-159.750	182.583	-0.245	-0.359
-158.735	-64.526	0.236	0.095
-157.720	-113.111	0.147	0.029
-156.706	-116.215	-0.029	0.005
-155.691	71.808	0.297	-0.306
-154.677	38.250	0.451	-0.398
-153.662	144.242	-0.247	0.327
-152.647	60.949	0.116	-0.114
-151.633	145.239	0.190	0.253
-150.618	-200.000	0.031	-0.393
-149.604	120.547	-0.101	0.124
-148.589	510.470	0.139	0.321
-147.574	-103.474	0.103	-0.024
-146.560	-200.000	0.023	-0.125
-145.545	-116.419	0.163	0.030
-144.531	-80.076	-0.209	-0.070
-143.516	-200.000	0.068	0.407
-142.502	800.000	-0.028	0.116
-141.487	-200.000	-0.002	-0.028
-140.472	-127.269	-0.322	-0.047
-139.458	800.000	-0.071	-0.209
-138.443	162.769	-0.029	-0.041
-137.429	-98.725	0.137	0.034
-136.414	-200.000	-0.081	0.470
-135.399	-32.492	0.091	0.050
-134.385	78.411	-0.204	0.216
-133.370	800.000	-0.078	-0.222
-132.356	741.994	0.145	-0.388
-131.341	344.192	0.037	-0.072
-130.326	-200.000	-0.023	-0.242
-129.312	200.368	0.117	0.178
-128.297	88.951	0.064	-0.071
-127.283	486.903	0.118	-0.266
-126.268	-200.000	0.010	0.316
-125.253	86.886	-0.169	0.185
-124.239	800.000	0.015	-0.047
-123.224	-108.834	-0.222	-0.047
-122.210	53.848	0.078	-0.074
-121.195	190.917	-0.085	-0.126
-120.180	-148.275	-0.190	0.016
-119.166	-72.975	-0.263	-0.096
-118.151	-52.324	-0.213	0.098
-117.137	44.931	0.172	0.157
-116.122	150.623	-0.243	0.327
-115.107	23.211	0.173	0.141
-114.093	-200.000	0.017	-0.119
-113.078	-120.121	0.077	-0.013
-112.064	-200.000	-0.032	-0.222
-111.049	117.738	-0.136	0.166
-110.034	-72.413	0.104	-0.038
-109.020	-47.013	-0.175	0.085
-108.005	-130.641	0.232	0.031
-106.991	50.042	0.392	-0.366
-105.976	-154.458	0.102	0.007
-104.962	-45.863	0.115	-0.056
-103.947	-200.000	0.000	-0.108
-102.932	800.000	-0.141	0.584
-101.918	-105.867	-0.277	0.062
-100.903	-200.000	0.004	0.082
-99.889	-200.000	0.005	0.541
-98.874	217.547	0.046	0.072
-97.859	108.525	0.235	-0.278
-96.845	800.000	0.035	-0.125
-95.830	458.741	0.078	0.172
-94.816	47.461	-0.047	0.043
-93.801	-184.792	0.182	-0.003
-92.786	11.369	-0.041	-0.031
-91.772	-200.000	-0.004	-0.048
-90.757	310.246	-0.120	-0.221
-89.743	-82.520	0.434	-0.139
-88.728	604.300	0.122	0.301
-87.713	305.539	0.151	0.278
-86.699	2.812	-0.086	-0.062
-85.684	-200.000	0.001	0.035
-84.670	92.062	-0.079	-0.088
-83.655	-55.806	-0.375	-0.166
-82.640	-5.279	-0.131	-0.089
-81.626	-128.487	-0.300	0.042
-80.611	17.048	-0.184	0.144
-79.597	286.488	-0.167	0.297
-78.582	4.040	0.323	-0.234
-77.567	-200.000	0.015	0.186
-76.553	70.906	0.388	0.397
-75.538	142.961	0.185	-0.244
-74.524	188.008	-0.133	0.197
-73.509	-200.000	0.056	-0.348
-72.494	-75.626	-0.328	-0.115
-71.480	33.320	-0.200	0.171
-70.465	-200.000	-0.053	0.343
-69.451	800.000	-0.047	-0.184
-68.436	-100.552	0.241	-0.059
-67.422	-200.000	0.042	-0.190
-66.407	-55.719	0.174	0.077
-65.392	358.114	0.072	-0.143
-64.378	-120.739	0.295	-0.049
-63.363	249.507	-0.111	0.187
-62.349	471.279	-0.133	0.296
-61.334	147.016	-0.731	-0.972
-60.319	173.372	0.402	0.573
-59.305	800.000	-0.260	-0.794
-58.290	305.346	0.404	0.742
-57.276	659.113	0.505	1.285
-56.261	-200.000	95.635	546.804
-55.246	504.592	1419.423	3247.570
-54.232	144.514	2647.565	3494.535
-53.217	109.604	2245.078	2658.863
-52.203	44.676	1768.555	1607.103
-51.188	37.451	1577.118	1381.972
-50.173	35.022	1549.556	1340.779
-49.159	52.297	1599.318	1507.252
-48.144	55.121	1618.438	1545.350
-47.130	37.773	1573.923	1381.236
-46.115	34.693	1558.239	1345.760
-45.100	34.544	1554.687	1341.593
-44.086	34.483	1553.338	1339.942
-43.071	34.481	1550.948	1337.815
-42.057	34.319	1549.749	1335.593
-41.042	34.387	1548.367	1334.825
-40.027	34.373	1546.856	1333.370
-39.013	34.466	1544.878	1332.259
-37.998	34.444	1543.584	1330.939
-36.984	34.503	1542.951	1330.752
-35.969	34.422	1541.369	1328.770
-34.954	34.412	1539.565	1327.098
-33.940	34.373	1538.431	1325.795
-32.925	34.449	1537.164	1325.180
-31.911	34.500	1535.331	1323.896
-30.896	34.521	1534.325	1323.124
-29.881	34.517	1533.075	1321.966
-28.867	34.563	1531.561	1320.925
-27.852	34.517	1530.343	1319.502
-26.838	34.545	1528.662	1318.196
-25.823	34.421	1527.494	1316.278
-24.809	34.538	1525.324	1315.167
-23.794	34.440	1524.130	1313.411
-22.779	34.463	1523.381	1312.866
-21.765	34.498	1522.149	1311.999
-20.750	34.585	1520.533	1311.149
-19.736	34.462	1519.450	1309.317
-18.721	34.361	1518.766	1307.986
-17.706	34.405	1517.986	1307.562
-16.692	34.440	1516.587	1306.546
-15.677	34.401	1515.735	1305.495
-14.663	34.413	1514.257	1304.247
-13.648	34.369	1513.961	1303.643
-12.633	34.391	1512.459	1302.447
-11.619	34.442	1511.686	1302.076
-10.604	34.436	1510.739	1301.169
-9.590	34.365	1509.899	1299.906
-8.575	34.412	1508.660	1299.113
-7.560	34.425	1508.288	1298.826
-6.546	34.333	1507.714	1297.658
-5.531	34.273	1506.516	1296.162
-4.517	34.356	1505.047	1295.414
-3.502	34.367	1504.094	1294.617
-2.487	34.351	1503.372	1293.838
-1.473	34.361	1502.430	1293.044
-0.458	34.374	1501.085	1291.923
0.556	33.192	1491.569	1281.571
1.571	30.251	1463.921	1238.110
2.586	26.212	1399.190	1157.433
3.600	23.982	1311.820	1071.649
4.615	21.898	1264.187	1020.538
5.629	18.632	1205.865	955.218
6.644	9.705	1116.216	837.919
7.659	1.992	1072.212	766.195
8.673	0.798	1066.541	756.105
9.688	0.581	1063.219	752.602
10.702	0.614	1061.820	751.709
11.717	0.518	1060.613	750.315
12.731	3.214	1063.453	765.682
13.746	11.563	1075.190	815.912
14.761	17.499	1081.892	850.672
15.775	17.633	1080.865	850.455
16.790	16.839	1079.113	845.047
17.804	15.892	1076.675	838.350
18.819	14.876	1075.259	832.119
19.834	14.370	1073.915	828.488
20.848	14.170	1072.784	826.548
21.863	13.741	1072.382	824.033
22.877	13.590	1071.087	822.217
23.892	13.420	1070.039	820.498
24.907	13.239	1069.288	818.951
25.921	13.371	1068.151	818.664
26.936	13.365	1068.125	818.541
27.950	13.362	1067.154	817.710
28.965	13.402	1066.746	817.523
29.980	13.471	1065.570	816.887
30.994	13.584	1064.168	816.299
32.009	13.587	1063.497	815.727
33.023	13.671	1062.973	815.665
34.038	13.621	1061.817	814.460
35.053	13.549	1061.312	813.648
36.067	13.497	1059.980	812.298
37.082	13.557	1059.420	812.092
38.096	13.570	1058.720	811.549
39.111	13.592	1057.655	810.768
40.126	13.574	1056.600	809.796
41.140	13.556	1055.904	809.107
42.155	13.519	1054.375	807.680
43.169	13.325	1054.108	806.461
44.184	13.435	1052.688	805.836
45.199	13.447	1051.297	804.761
46.213	13.369	1050.467	803.676
47.228	13.315	1049.843	802.863
48.242	13.463	1048.629	802.580
49.257	13.467	1047.341	801.544
50.271	13.453	1046.892	801.063
51.286	13.517	1046.147	800.730
52.301	13.451	1045.350	799.733
53.315	13.472	1044.640	799.219
54.330	13.477	1043.247	798.107
55.344	13.311	1043.284	797.262
56.359	13.436	1041.620	796.522
57.374	13.337	1041.373	795.786
58.388	13.386	1040.144	795.013
59.403	13.301	1039.497	794.040
60.417	13.282	1039.023	793.519
61.432	13.417	1037.556	792.971
62.447	13.271	1037.282	791.996
63.461	13.259	1036.473	791.250
64.476	13.368	1034.719	790.362
65.490	13.316	1034.222	789.663
66.505	13.233	1033.833	788.898
67.520	13.262	1033.036	788.358
68.534	13.280	1032.249	787.775
69.549	13.405	1031.039	787.375
70.563	13.451	1030.125	786.830
71.578	13.335	1029.930	786.057
72.593	13.241	1029.269	785.037
73.607	13.244	1028.074	784.073
74.622	13.226	1027.196	783.249
75.636	13.339	1026.184	782.940
76.651	13.234	1025.204	781.626
77.666	13.337	1024.439	781.462
78.680	13.315	1023.824	780.821
79.695	13.184	1023.929	780.214
80.709	13.181	1022.988	779.413
81.724	13.380	1021.948	779.488
82.739	13.424	1021.061	778.949
83.753	13.341	1020.736	778.244
84.768	13.330	1019.719	777.348
85.782	13.510	1018.728	777.369
86.797	13.505	1018.248	776.909
87.812	13.459	1017.455	776.021
88.826	13.395	1016.558	774.968
89.841	13.389	1015.760	774.261
90.855	13.431	1014.828	773.678
91.870	13.397	1014.218	772.986
92.884	13.542	1013.473	773.026
93.899	13.604	1012.638	772.612
94.914	13.536	1012.075	771.796
95.928	13.618	1011.062	771.338
96.943	13.544	1010.548	770.533
97.957	13.489	1010.018	769.804
98.972	13.544	1008.817	769.075
99.987	13.512	1007.994	768.233
101.001	13.600	1007.018	767.829
102.016	13.609	1005.886	766.938
103.030	13.592	1005.282	766.332
104.045	13.462	1004.624	765.163
105.060	13.513	1003.503	764.479
106.074	13.493	1002.628	763.648
107.089	13.488	1001.625	762.794
108.103	13.492	1000.959	762.240
109.118	13.417	1000.189	761.240
110.133	13.361	999.462	760.365
111.147	13.552	997.829	759.927
112.162	13.399	997.153	758.643
113.176	13.378	996.923	758.308
114.191	13.271	996.156	757.169
115.206	13.446	994.767	756.844
116.220	13.495	993.901	756.343
117.235	13.560	993.325	756.133
118.249	13.404	992.430	754.675
119.264	13.454	991.187	753.889
120.279	13.398	990.497	753.046
121.293	13.549	989.400	752.827
122.308	13.449	988.537	751.650
123.322	13.428	988.463	751.434
124.337	13.412	986.995	750.178
125.352	13.399	985.788	749.137
126.366	13.366	984.630	748.041
127.381	13.453	983.852	747.774
128.395	13.449	982.804	746.895
129.410	13.379	982.054	745.945
130.424	13.448	980.826	745.256
131.439	13.529	980.026	744.947
132.454	13.496	979.497	744.328
133.468	13.656	978.503	744.229
134.483	13.512	978.248	743.322
135.497	13.562	976.931	742.477
136.512	13.611	976.106	742.008
137.527	13.515	975.497	741.046
138.541	13.563	974.673	740.568
139.556	13.471	973.980	739.567
140.570	13.496	973.211	739.031
141.585	13.522	972.618	738.631
142.600	13.706	971.507	738.541
143.614	13.779	970.356	737.925
144.629	13.725	970.053	737.391
145.643	13.670	969.344	736.540
146.658	13.572	968.756	735.594
147.673	13.670	967.111	734.715
148.687	13.623	966.509	733.981
149.702	13.493	965.785	732.793
150.716	13.640	964.963	732.755
151.731	13.518	964.306	731.651
152.746	13.542	963.389	730.995
153.760	13.617	962.573	730.645
154.775	13.652	961.857	730.190
155.789	13.646	960.904	729.375
156.804	13.681	960.502	729.159
157.819	13.615	959.663	728.167
158.833	13.678	958.909	727.810
159.848	13.632	958.136	726.958
160.862	13.715	957.110	726.478
161.877	13.778	956.882	726.516
162.892	13.648	956.158	725.333
163.906	13.715	955.143	724.790
164.921	13.696	954.477	724.141
165.935	13.741	952.799	722.999
166.950	13.633	952.382	722.147
167.964	13.765	951.013	721.620
168.979	13.774	950.303	721.057
169.994	13.709	949.421	720.041
171.008	13.719	948.317	719.181
172.023	13.726	947.723	718.697
173.037	13.678	947.297	718.105
174.052	13.827	946.195	717.852
175.067	13.791	945.354	716.994
176.081	13.868	944.671	716.742
177.096	13.674	944.042	715.368
178.110	13.785	943.044	715.026
179.125	13.948	942.227	715.045
180.140	13.831	941.680	714.061
181.154	13.889	941.254	713.927
182.169	13.801	940.798	713.139
183.183	13.859	939.676	712.473
184.198	13.916	939.348	712.405
185.213	14.016	938.410	712.058
186.227	14.015	937.628	711.399
187.242	14.080	937.111	711.221
188.256	14.070	936.411	710.585
189.271	14.034	936.054	710.096
190.286	14.088	935.096	709.542
191.300	13.935	934.316	708.233
192.315	13.914	933.178	707.217
193.329	13.893	932.991	706.923
194.344	13.909	932.061	706.226
195.359	13.891	931.835	705.913
196.373	14.074	930.957	705.965
197.388	13.988	930.544	705.222
198.402	14.049	929.682	704.766
199.417	14.003	929.571	704.423
200.432	14.230	928.866	704.789
201.446	14.254	928.657	704.671
202.461	14.232	928.040	704.048
203.475	14.370	927.741	704.343
204.490	14.207	927.280	703.241
205.504	14.302	925.756	702.424
206.519	14.171	925.092	701.306
207.534	14.211	924.546	700.997
208.548	14.139	923.602	699.917
209.563	14.170	923.068	699.578
210.577	14.364	922.065	699.571
211.592	14.417	921.563	699.351
212.607	14.393	920.653	698.501
213.621	14.203	920.720	697.692
214.636	14.289	920.037	697.471
215.650	14.358	919.301	697.143
216.665	14.410	918.594	696.760
217.680	14.471	917.976	696.485
218.694	14.533	917.209	696.101
219.709	14.505	916.879	695.674
220.723	14.455	916.411	695.049
221.738	14.368	915.597	694.008
222.753	14.484	914.880	693.885
223.767	14.560	914.189	693.612
224.782	14.535	913.398	692.847
225.796	14.517	912.546	692.067
226.811	14.535	911.655	691.404
227.826	14.481	911.395	690.923
228.840	14.520	910.345	690.227
229.855	14.560	910.108	690.149
230.869	14.550	908.986	689.199
231.884	14.465	908.708	688.577
232.899	14.426	907.976	687.801
233.913	14.537	907.243	687.640
234.928	14.592	906.378	687.150
235.942	14.599	905.557	686.496
236.957	14.477	905.486	685.880
237.972	14.536	904.279	685.146
238.986	14.484	903.805	684.514
240.001	14.584	902.979	684.238
241.015	14.652	902.407	684.024
242.030	14.626	901.550	683.206
243.045	14.640	900.926	682.728
244.059	14.595	900.754	682.355
245.074	14.635	899.771	681.712
246.088	14.770	899.019	681.635
247.103	14.734	898.656	681.150
248.117	14.806	897.733	680.683
249.132	14.868	897.004	680.326
250.147	14.809	896.840	679.899
251.161	14.879	896.277	679.695
252.176	15.048	895.196	679.505
253.190	15.001	894.644	678.833
254.205	14.999	894.158	678.395
255.220	14.925	893.830	677.788
256.234	15.206	892.532	677.880
257.249	15.213	892.218	677.610
258.263	15.064	891.769	676.607
259.278	15.162	890.987	676.350
260.293	15.203	890.631	676.187
261.307	15.127	890.293	675.562
262.322	15.320	889.502	675.679
263.336	15.349	888.673	675.108
264.351	15.224	888.110	674.115
265.366	15.352	887.572	674.165
266.380	15.374	887.117	673.846
267.395	15.335	886.749	673.350
268.409	15.279	885.640	672.226
269.424	15.220	885.040	671.473
270.439	15.247	884.261	670.930
271.453	15.166	884.079	670.409
272.468	15.362	882.771	670.142
273.482	15.287	882.806	669.808
274.497	15.346	881.928	669.320
275.512	15.209	881.083	668.073
276.526	15.207	880.400	667.486
277.541	15.267	879.692	667.129
278.555	15.294	879.004	666.656
279.570	15.511	878.056	666.743
280.585	15.369	878.205	666.233
281.599	15.476	877.663	666.184
282.614	15.455	876.893	665.460
283.628	15.428	876.138	664.720
284.643	15.623	875.187	664.709
285.657	15.481	874.748	663.759
286.672	15.501	874.427	663.535
287.687	15.602	873.900	663.475
288.701	15.513	873.928	663.087
289.716	15.618	872.781	662.569
290.730	15.546	872.358	661.905
291.745	15.644	871.219	661.372
292.760	15.556	870.909	660.730
293.774	15.634	870.183	660.427
294.789	15.611	869.596	659.832
295.803	15.699	868.943	659.625
296.818	15.681	868.105	658.859
297.833	15.588	867.720	658.145
298.847	15.703	866.809	657.844
299.862	15.622	866.203	657.012
300.876	15.671	865.950	656.950
301.891	15.605	864.957	655.882
302.906	15.738	864.156	655.736
303.920	15.803	863.510	655.442
304.935	15.834	863.083	655.181
305.949	15.909	862.283	654.805
306.964	15.954	861.506	654.334
307.979	15.912	861.524	654.126
308.993	15.900	860.718	653.409
310.008	15.938	860.436	653.285
311.022	15.941	859.468	652.503
312.037	15.906	859.095	652.027
313.052	15.927	858.695	651.747
314.066	16.044	857.707	651.392
315.081	15.958	857.349	650.731
316.095	15.840	856.929	649.897
317.110	15.901	856.278	649.583
318.125	15.905	855.832	649.201
319.139	16.003	855.466	649.246
320.154	15.991	854.921	648.725
321.168	16.195	854.107	648.837
322.183	15.824	853.897	647.194
323.197	16.018	853.359	647.472
324.212	16.261	852.393	647.617
325.227	16.100	851.814	646.502
326.241	16.113	851.558	646.299
327.256	16.168	851.159	646.151
328.270	15.990	850.215	644.694
329.285	16.022	850.011	644.607
330.300	16.056	849.223	644.082
331.314	16.044	848.680	643.566
332.329	16.249	847.684	643.535
333.343	16.198	847.391	643.064
334.358	16.187	846.736	642.465
335.373	16.292	846.166	642.379
336.387	16.296	845.455	641.795
337.402	16.341	844.902	641.488
338.416	16.347	844.562	641.198
339.431	16.281	844.081	640.525
340.446	16.392	843.419	640.389
341.460	16.464	842.780	640.117
342.475	16.387	842.506	639.561
343.489	16.562	841.702	639.557
344.504	16.575	840.767	638.838
345.519	16.533	840.747	638.610
346.533	16.496	840.182	637.982
347.548	16.499	839.598	637.493
348.562	16.421	839.045	636.725
349.577	16.475	838.798	636.682
350.592	16.434	838.026	635.887
351.606	16.372	837.685	635.339
352.621	16.537	837.194	635.533
353.635	16.514	837.004	635.242
354.650	16.574	835.990	634.644
355.665	16.534	836.009	634.452
356.679	16.603	835.564	634.315
357.694	16.480	835.019	633.386
358.708	16.630	834.016	633.128
359.723	16.680	833.572	632.922
360.738	16.756	832.816	632.579
361.752	16.585	832.444	631.600
362.767	16.719	832.121	631.801
363.781	16.817	831.527	631.658
364.796	16.793	831.293	631.334
365.810	16.742	830.651	630.600
366.825	16.816	830.213	630.488
367.840	16.912	830.193	630.775
368.854	16.879	829.598	630.146
369.869	16.859	828.953	629.525
370.883	16.722	828.533	628.639
371.898	16.717	827.997	628.161
372.913	17.009	827.138	628.533
373.927	16.840	826.885	627.660
374.942	16.986	825.948	627.435
375.956	16.948	825.413	626.834
376.971	16.907	824.542	625.965
377.986	17.041	824.139	626.098
379.000	17.048	823.884	625.872
380.015	17.044	823.688	625.656
381.029	17.030	822.992	625.020
382.044	17.033	822.108	624.303
383.059	17.152	821.778	624.434
384.073	17.143	821.327	624.002
385.088	17.228	820.424	623.575
386.102	17.124	820.135	622.918
387.117	17.074	819.370	622.099
388.132	17.032	819.122	621.700
389.146	17.186	818.778	621.949
390.161	17.005	818.437	620.973
391.175	17.259	817.775	621.345
392.190	17.171	817.884	621.051
393.205	17.224	817.427	620.841
394.219	17.216	816.433	620.003
395.234	17.190	816.247	619.711
396.248	17.085	815.777	618.916
397.263	17.027	815.394	618.359
398.278	17.116	814.828	618.201
399.292	17.272	813.910	618.018
400.307	17.236	813.651	617.635
401.321	17.176	813.222	617.035
402.336	17.141	813.034	616.711
403.350	17.036	812.642	615.978
404.365	17.241	812.242	616.364
405.380	17.209	811.379	615.539
406.394	17.250	811.384	615.639
407.409	17.489	810.491	615.772
408.423	17.384	809.783	614.800
409.438	17.414	809.519	614.653
410.453	17.527	809.167	614.737
411.467	17.448	809.142	614.381
412.482	17.501	808.169	613.778
413.496	17.494	807.553	613.229
414.511	17.634	807.377	613.548
415.526	17.621	806.939	613.114
416.540	17.721	806.942	613.419
417.555	17.728	806.124	612.769
418.569	17.645	805.596	612.016
419.584	17.743	805.086	611.924
420.599	17.654	805.162	611.610
421.613	104.948	1284.333	1446.524
422.628	90.336	1354.148	1446.651
