DTS Sentinel unit serial number:	SN413079Multiplexer serial number:	ORYXHardware model number:	OX4-SRSoftware version number:	ORYX F/W v4.00 Oryx Data Collector v3.7.2.0data status	okinstallation	princeton_trtdifferential loss correction	single-endedforward channel	channel 3reverse channel	N/Adate	2019/09/13time	23:28:35forward acquisition time	60.00reverse acquisition time	0.00gamma	496.2192k internal	0.2339k external	0.2339temperature offset calibration	1.0061default loss term (dB/km)	0.3790temperature slope calibration	1.0000multiplexer offset coefficient	1.0000multiplexer slope coefficient	1.0000fibre end	0.00T internal ref (°C)	26.87T ext. ref 1 (°C)	3.19T ext. ref 2 (°C)	20.93length (m)	temperature (°C)	Stokes	anti-Stokes-747.200	-72.609	-0.073	-0.027
-746.185	142.939	-0.170	0.227
-745.171	-153.985	-0.297	-0.020
-744.156	800.000	-0.050	-0.208
-743.142	702.129	-0.041	-0.109
-742.127	800.000	0.073	0.271
-741.112	800.000	0.061	0.207
-740.098	-6.243	0.082	-0.056
-739.083	14.667	-0.130	-0.102
-738.069	-137.026	-0.019	-0.002
-737.054	-74.046	-0.327	0.119
-736.039	-85.010	-0.176	0.055
-735.025	178.995	-0.058	0.086
-734.010	-97.038	-0.245	0.064
-732.996	-200.000	0.017	0.116
-731.981	469.133	0.164	-0.368
-730.966	-200.000	-0.029	-0.206
-729.952	153.559	0.037	-0.051
-728.937	120.559	-0.262	-0.326
-727.923	-66.067	-0.207	0.083
-726.908	-200.000	0.010	0.093
-725.894	386.289	-0.093	-0.192
-724.879	-40.705	0.290	0.151
-723.864	-3.765	-0.192	-0.133
-722.850	-66.150	-0.536	-0.214
-721.835	17.755	-0.272	0.217
-720.821	-7.191	0.072	-0.049
-719.806	36.630	0.142	-0.125
-718.791	236.478	0.136	-0.225
-717.777	527.198	-0.086	-0.204
-716.762	-200.000	0.035	-0.223
-715.748	-129.136	0.212	-0.030
-714.733	-112.020	-0.195	0.039
-713.718	-79.248	-0.159	-0.054
-712.704	-11.777	-0.036	0.023
-711.689	-44.154	-0.456	0.229
-710.675	800.000	-0.051	0.170
-709.660	327.616	-0.122	0.234
-708.645	-200.000	0.007	-0.077
-707.631	-105.751	0.459	0.104
-706.616	733.546	-0.161	0.432
-705.602	800.000	0.054	0.192
-704.587	-200.000	-0.021	-0.147
-703.572	608.209	0.035	0.088
-702.558	-11.429	-0.256	-0.169
-701.543	124.275	-0.033	0.041
-700.529	594.735	-0.072	-0.179
-699.514	-26.330	0.193	0.113
-698.499	550.709	0.043	-0.102
-697.485	-123.427	0.386	-0.062
-696.470	-200.000	0.033	0.250
-695.456	-30.775	0.162	0.092
-694.441	-27.680	-0.148	-0.086
-693.426	672.523	-0.049	0.127
-692.412	-64.600	-0.150	0.061
-691.397	-99.507	0.280	-0.070
-690.383	-200.000	0.013	-0.340
-689.368	8.898	0.148	0.112
-688.354	-152.630	0.433	0.031
-687.339	-64.091	-0.460	-0.188
-686.324	44.488	-0.160	-0.147
-685.310	-200.000	0.075	0.396
-684.295	126.550	-0.086	0.109
-683.281	219.608	-0.064	0.102
-682.266	-200.000	0.003	-0.437
-681.251	-4.596	-0.306	-0.211
-680.237	-200.000	0.006	-0.054
-679.222	800.000	-0.112	-0.432
-678.208	-155.042	0.365	-0.024
-677.193	-115.511	0.126	-0.024
-676.178	221.151	-0.256	0.411
-675.164	-117.541	0.297	-0.054
-674.149	-200.000	0.018	0.088
-673.135	165.669	-0.086	0.122
-672.120	-200.000	-0.008	-0.429
-671.105	-168.695	-0.035	-0.001
-670.091	266.166	-0.186	-0.325
-669.076	236.385	0.084	-0.139
-668.062	800.000	0.042	-0.120
-667.047	-33.638	0.119	0.065
-666.032	126.997	-0.196	0.248
-665.018	-85.466	-0.160	-0.050
-664.003	-155.822	0.124	0.008
-662.989	-200.000	0.033	0.172
-661.974	-72.791	-0.211	-0.078
-660.959	-22.245	-0.108	0.066
-659.945	-102.451	0.176	0.042
-658.930	667.162	-0.004	0.011
-657.916	800.000	-0.075	0.289
-656.901	-21.099	-0.135	0.083
-655.886	328.150	-0.048	0.092
-654.872	-200.000	0.026	0.192
-653.857	514.717	-0.056	-0.130
-652.843	309.686	0.076	0.142
-651.828	-119.403	0.156	0.027
-650.814	800.000	0.048	-0.174
-649.799	-32.635	0.222	0.124
-648.784	355.739	-0.181	0.361
-647.770	-58.700	0.150	-0.065
-646.755	161.032	-0.097	0.135
-645.741	408.738	-0.056	-0.118
-644.726	-145.799	-0.257	0.023
-643.711	-38.232	-0.238	-0.126
-642.697	22.945	-0.035	-0.029
-641.682	-50.682	-0.299	-0.141
-640.668	83.616	-0.212	-0.230
-639.653	-68.376	-0.197	-0.076
-638.638	14.641	0.136	0.106
-637.624	800.000	-0.071	0.202
-636.609	800.000	-0.127	0.407
-635.595	697.759	0.106	-0.279
-634.580	37.415	-0.102	0.090
-633.565	121.279	0.104	0.130
-632.551	800.000	-0.102	0.344
-631.536	-88.788	0.195	-0.058
-630.522	-76.213	-0.280	-0.098
-629.507	114.330	-0.195	-0.237
-628.492	385.189	-0.036	-0.074
-627.478	-120.391	0.268	-0.045
-626.463	15.539	-0.111	0.087
-625.449	-89.185	0.179	-0.053
-624.434	-18.030	-0.198	-0.124
-623.419	476.987	-0.067	0.151
-622.405	-84.538	0.111	0.035
-621.390	-10.691	0.348	-0.230
-620.376	112.950	0.221	-0.268
-619.361	-139.145	-0.327	0.035
-618.346	528.668	-0.117	0.275
-617.332	-200.000	-0.056	-0.299
-616.317	11.990	-0.111	-0.085
-615.303	-99.672	0.330	-0.083
-614.288	800.000	0.030	0.118
-613.273	-200.000	0.026	0.363
-612.259	-48.158	-0.272	0.131
-611.244	-135.749	0.179	-0.021
-610.230	-126.118	-0.340	0.051
-609.215	85.982	-0.112	-0.123
-608.201	-200.000	-0.011	0.410
-607.186	312.226	0.065	-0.121
-606.171	157.077	-0.192	-0.265
-605.157	-96.014	-0.348	-0.092
-604.142	87.470	-0.353	0.390
-603.128	48.091	0.218	-0.204
-602.113	-8.504	-0.105	-0.070
-601.098	54.476	0.193	0.185
-600.084	99.929	0.105	0.121
-599.069	375.239	0.106	-0.216
-598.055	-200.000	-0.007	-0.074
-597.040	95.563	-0.315	0.358
-596.025	-200.000	-0.019	0.337
-595.011	20.159	0.094	-0.075
-593.996	523.132	-0.134	-0.314
-592.982	-79.130	-0.536	0.181
-591.967	-200.000	0.000	0.069
-590.952	800.000	0.045	-0.138
-589.938	9.243	-0.336	0.253
-588.923	-115.604	-0.005	0.001
-587.909	516.801	0.048	-0.113
-586.894	604.497	0.100	-0.249
-585.879	-200.000	0.007	-0.185
-584.865	197.420	0.147	0.224
-583.850	18.414	-0.097	-0.077
-582.836	69.935	0.056	-0.057
-581.821	-200.000	0.053	0.244
-580.806	800.000	0.020	-0.064
-579.792	-12.391	0.188	-0.122
-578.777	-3.502	0.156	-0.108
-577.763	181.246	-0.130	0.190
-576.748	348.112	0.110	-0.216
-575.733	800.000	0.059	0.202
-574.719	-142.307	-0.195	-0.019
-573.704	-44.286	-0.402	-0.201
-572.690	570.015	-0.024	0.057
-571.675	-200.000	0.001	-0.058
-570.661	-20.696	-0.194	0.118
-569.646	800.000	-0.049	0.204
-568.631	-19.642	-0.080	0.049
-567.617	460.451	0.138	-0.306
-566.602	793.384	0.207	-0.568
-565.588	377.860	-0.071	-0.144
-564.573	-104.431	0.496	0.114
-563.558	-200.000	-0.005	-0.072
-562.544	-69.016	0.102	0.039
-561.529	-59.643	-0.301	-0.129
-560.515	-23.478	0.337	-0.201
-559.500	-45.284	-0.323	-0.160
-558.485	103.702	0.039	-0.046
-557.471	231.042	0.125	0.204
-556.456	-200.000	0.073	-0.319
-555.442	19.838	0.131	-0.105
-554.427	-200.000	-0.030	0.158
-553.412	-200.000	0.060	0.268
-552.398	277.717	-0.134	-0.237
-551.383	-200.000	-0.045	-0.275
-550.369	97.787	0.132	0.151
-549.354	800.000	-0.081	0.248
-548.339	-29.245	0.083	-0.047
-547.325	383.366	-0.032	0.065
-546.310	-128.466	0.077	0.011
-545.296	6.020	0.307	0.226
-544.281	141.179	0.028	-0.037
-543.266	-95.579	-0.282	-0.075
-542.252	-200.000	-0.051	-0.248
-541.237	-137.094	0.097	0.011
-540.223	88.600	0.338	-0.374
-539.208	800.000	0.078	0.238
-538.193	-200.000	0.050	0.300
-537.179	-200.000	-0.044	-0.377
-536.164	800.000	0.048	-0.199
-535.150	313.212	0.279	-0.522
-534.135	49.284	-0.148	0.138
-533.121	-3.374	0.198	0.137
-532.106	453.514	-0.048	0.105
-531.091	317.887	0.020	0.039
-530.077	-200.000	0.016	0.075
-529.062	19.662	-0.265	0.212
-528.048	-48.821	-0.341	-0.162
-527.033	-200.000	0.026	0.190
-526.018	279.288	0.143	0.253
-525.004	1.735	-0.067	-0.048
-523.989	192.440	-0.323	-0.484
-522.975	273.433	-0.157	-0.277
-521.960	356.282	0.035	-0.069
-520.945	-119.908	-0.263	-0.045
-519.931	-200.000	-0.015	0.275
-518.916	-102.436	-0.096	0.023
-517.902	-200.000	0.015	-0.220
-516.887	-200.000	0.038	0.215
-515.872	800.000	0.046	-0.150
-514.858	135.732	0.051	-0.066
-513.843	-9.188	-0.182	-0.121
-512.829	800.000	-0.059	0.166
-511.814	317.547	-0.086	0.161
-510.799	-200.000	-0.047	-0.300
-509.785	-68.411	0.119	-0.046
-508.770	-200.000	-0.047	-0.236
-507.756	-3.696	-0.153	-0.106
-506.741	-58.791	-0.034	0.015
-505.726	290.591	-0.299	-0.540
-504.712	-60.991	0.522	-0.219
-503.697	-200.000	-0.054	-0.451
-502.683	750.122	0.025	-0.068
-501.668	-129.494	0.120	0.017
-500.653	81.030	0.078	0.083
-499.639	41.066	-0.154	0.138
-498.624	-2.801	-0.361	-0.251
-497.610	62.523	-0.185	0.184
-496.595	-200.000	-0.022	-0.296
-495.581	189.449	-0.104	0.155
-494.566	-67.084	-0.302	-0.118
-493.551	105.557	0.203	-0.238
-492.537	285.553	0.019	-0.033
-491.522	-200.000	-0.023	0.385
-490.508	3.148	0.310	-0.224
-489.493	-57.525	-0.279	0.122
-488.478	-53.397	0.197	-0.090
-487.464	549.554	-0.112	-0.267
-486.449	-141.511	-0.321	0.032
-485.435	222.612	-0.076	0.121
-484.420	521.222	-0.127	-0.295
-483.405	157.415	0.094	0.130
-482.391	-28.175	-0.106	-0.061
-481.376	-6.566	0.061	0.041
-480.362	221.605	-0.204	0.326
-479.347	-40.071	0.193	-0.100
-478.332	-46.501	0.024	0.012
-477.318	287.711	-0.295	0.529
-476.303	-174.243	0.335	0.010
-475.289	302.140	-0.070	-0.129
-474.274	120.203	-0.033	0.040
-473.259	-200.000	0.014	-0.096
-472.245	-200.000	0.009	-0.155
-471.230	-73.097	0.129	-0.047
-470.216	74.822	-0.237	-0.248
-469.201	-21.688	-0.078	0.047
-468.186	524.826	-0.061	-0.143
-467.172	800.000	-0.096	0.279
-466.157	155.407	-0.050	0.068
-465.143	213.303	-0.020	0.031
-464.128	125.793	-0.097	-0.122
-463.113	71.701	-0.095	-0.098
-462.099	-130.121	0.256	0.035
-461.084	-16.846	-0.150	-0.094
-460.070	-53.783	0.477	0.216
-459.055	-47.149	-0.156	-0.075
-458.040	13.426	-0.426	-0.328
-457.026	139.982	-0.082	0.108
-456.011	433.468	-0.047	0.101
-454.997	120.361	-0.161	0.199
-453.982	-90.982	-0.320	0.091
-452.968	-40.761	0.357	-0.183
-451.953	-147.135	0.264	0.022
-450.938	83.079	-0.163	-0.176
-449.924	-26.792	0.162	0.094
-448.909	118.603	-0.035	0.043
-447.895	-44.849	-0.215	0.106
-446.880	-125.160	-0.184	-0.028
-445.865	-3.212	0.189	-0.130
-444.851	-93.462	-0.275	0.076
-443.836	800.000	0.159	-0.468
-442.822	-21.276	0.194	0.117
-441.807	-70.115	-0.404	0.152
-440.792	197.912	0.151	0.228
-439.778	97.545	0.237	0.270
-438.763	319.630	0.137	0.258
-437.749	2.317	0.143	-0.102
-436.734	-48.605	-0.267	0.127
-435.719	214.649	-0.021	0.032
-434.705	457.811	0.041	-0.091
-433.690	41.686	0.316	-0.284
-432.676	-52.785	-0.165	0.075
-431.661	-129.759	0.069	-0.009
-430.646	-26.692	0.253	0.147
-429.632	370.188	-0.048	-0.097
-428.617	-154.325	0.201	0.013
-427.603	86.945	-0.213	0.233
-426.588	-71.104	0.444	-0.165
-425.573	85.398	0.135	-0.147
-424.559	70.593	0.177	0.181
-423.544	14.169	0.135	-0.104
-422.530	-200.000	-0.035	-0.430
-421.515	627.606	-0.102	0.256
-420.500	697.945	-0.057	0.149
-419.486	591.819	-0.075	0.184
-418.471	-200.000	0.019	0.116
-417.457	-180.941	0.268	-0.005
-416.442	-15.106	-0.115	0.073
-415.428	-52.352	-0.225	0.103
-414.413	-47.103	0.067	0.033
-413.398	72.297	0.141	-0.146
-412.384	-57.571	-0.181	-0.078
-411.369	270.708	0.098	0.171
-410.355	-98.020	0.201	-0.051
-409.340	176.449	0.094	0.136
-408.325	-200.000	0.029	0.171
-407.311	-115.914	0.055	-0.010
-406.296	2.645	0.075	-0.054
-405.282	132.265	-0.016	0.020
-404.267	-17.158	-0.282	0.176
-403.252	75.962	-0.112	-0.117
-402.238	-104.599	-0.061	0.014
-401.223	76.555	-0.303	-0.318
-400.209	97.714	0.089	-0.101
-399.194	-200.000	-0.002	0.211
-398.179	-200.000	-0.004	0.101
-397.165	333.699	-0.061	0.117
-396.150	-200.000	-0.006	0.125
-395.136	732.354	0.056	0.148
-394.121	319.363	-0.157	0.295
-393.106	-200.000	0.002	0.127
-392.092	152.448	-0.282	-0.380
-391.077	800.000	0.070	-0.249
-390.063	-98.852	0.346	-0.087
-389.048	800.000	-0.037	-0.112
-388.033	68.856	0.202	0.205
-387.019	23.064	0.109	0.089
-386.004	197.254	-0.142	0.215
-384.990	50.230	0.032	-0.030
-383.975	205.068	-0.281	-0.431
-382.960	288.839	0.152	0.272
-381.946	-200.000	0.395	-0.001
-380.931	-83.500	0.306	0.097
-379.917	-169.029	-0.448	0.017
-378.902	800.000	-0.110	0.369
-377.888	800.000	-0.074	-0.202
-376.873	179.263	0.103	-0.149
-375.858	-120.586	0.517	-0.087
-374.844	-74.151	-0.376	-0.135
-373.829	-105.401	0.355	-0.080
-372.815	-200.000	-0.152	-0.000
-371.800	-94.401	-0.287	0.077
-370.785	-31.097	0.090	-0.050
-369.771	47.562	0.384	0.354
-368.756	5.848	-0.068	-0.050
-367.742	-6.193	-0.098	0.066
-366.727	297.580	-0.115	0.209
-365.712	-200.000	0.272	-0.001
-364.698	405.551	0.151	-0.315
-363.683	-151.294	-0.411	0.030
-362.669	-200.000	0.190	-0.001
-361.654	-200.000	-0.036	0.165
-360.639	69.550	-0.171	-0.174
-359.625	-200.000	0.003	0.066
-358.610	0.689	0.257	-0.181
-357.596	49.485	0.080	0.074
-356.581	-44.653	-0.166	0.082
-355.566	-130.994	-0.264	-0.035
-354.552	555.093	0.121	0.287
-353.537	-85.318	-0.142	0.044
-352.523	83.146	0.069	0.074
-351.508	259.111	-0.117	0.199
-350.493	-151.247	0.357	0.026
-349.479	-148.127	-0.302	-0.025
-348.464	-184.158	0.199	-0.003
-347.450	32.904	0.033	-0.028
-346.435	181.750	0.152	-0.221
-345.420	69.473	0.130	-0.132
-344.406	61.552	0.226	-0.222
-343.391	51.323	-0.192	-0.180
-342.377	-101.830	-0.263	0.063
-341.362	-200.000	-0.013	-0.276
-340.348	-55.395	0.181	-0.080
-339.333	-158.664	-0.281	0.016
-338.318	80.305	0.150	-0.159
-337.304	-35.830	0.225	0.120
-336.289	77.668	-0.198	-0.208
-335.275	-150.151	-0.094	-0.007
-334.260	184.705	0.085	-0.124
-333.245	128.535	0.179	0.225
-332.231	-149.151	0.079	0.006
-331.216	-1.640	-0.179	-0.124
-330.202	-72.705	-0.148	0.054
-329.187	-115.591	-0.105	-0.019
-328.172	-85.584	-0.225	0.069
-327.158	20.531	0.101	0.081
-326.143	-61.003	0.197	-0.082
-325.129	-34.350	-0.070	0.038
-324.114	-30.951	-0.113	-0.063
-323.099	356.842	-0.107	0.211
-322.085	-145.746	-0.105	0.009
-321.070	130.456	0.121	0.153
-320.056	480.008	0.041	-0.092
-319.041	-41.764	-0.359	0.182
-318.026	197.636	-0.244	0.367
-317.012	-200.000	0.040	-0.349
-315.997	-200.000	-0.013	-0.066
-314.983	-53.410	0.264	-0.119
-313.968	158.764	0.082	0.113
-312.953	-62.942	-0.446	0.182
-311.939	226.163	-0.079	-0.126
-310.924	-135.472	-0.133	-0.016
-309.910	-200.000	0.017	0.107
-308.895	-69.301	-0.484	-0.183
-307.880	-8.349	0.202	-0.134
-306.866	346.636	0.125	-0.242
-305.851	-109.970	-0.356	0.073
-304.837	-82.542	0.062	0.020
-303.822	-161.442	0.058	0.003
-302.807	800.000	-0.035	0.126
-301.793	-86.095	0.383	0.117
-300.778	77.247	0.094	-0.099
-299.764	236.761	0.202	0.329
-298.749	179.211	-0.101	-0.146
-297.735	-28.167	0.236	0.135
-296.720	511.032	-0.058	0.133
-295.705	-154.076	-0.168	0.011
-294.691	-101.269	0.093	-0.022
-293.676	414.765	0.115	0.242
-292.662	307.463	-0.100	0.184
-291.647	-104.220	-0.150	0.034
-290.632	-200.000	-0.005	0.329
-289.618	-200.000	0.000	0.180
-288.603	47.928	-0.157	0.145
-287.589	-22.817	0.058	0.034
-286.574	-65.016	0.054	-0.022
-285.559	-200.000	0.001	-0.193
-284.545	89.833	-0.147	-0.161
-283.530	-200.000	-0.010	-0.266
-282.516	-54.834	-0.100	-0.044
-281.501	-200.000	0.035	0.161
-280.486	13.457	0.135	0.103
-279.472	-200.000	0.029	-0.246
-278.457	-37.599	0.224	-0.118
-277.443	289.754	-0.067	-0.120
-276.428	-160.197	-0.274	-0.015
-275.413	1.315	-0.179	0.127
-274.399	800.000	-0.075	-0.275
-273.384	-111.894	0.254	-0.050
-272.370	-200.000	0.015	0.228
-271.355	-76.822	-0.102	0.035
-270.340	-200.000	0.006	0.224
-269.326	37.350	0.323	0.282
-268.311	-41.967	0.162	-0.082
-267.297	373.852	-0.207	0.414
-266.282	154.275	0.177	-0.240
-265.267	-173.164	0.177	-0.005
-264.253	-66.747	-0.275	-0.107
-263.238	-200.000	-0.012	-0.110
-262.224	167.819	0.047	-0.065
-261.209	-74.064	0.390	-0.139
-260.195	-142.670	0.385	-0.037
-259.180	-200.000	-0.040	0.295
-258.165	724.373	-0.062	0.164
-257.151	-200.000	-0.035	-0.294
-256.136	-200.000	-0.057	-0.265
-255.122	48.412	0.030	0.028
-254.107	-49.383	0.193	-0.091
-253.092	150.155	0.146	-0.194
-252.078	-200.000	-0.039	0.229
-251.063	-163.509	-0.156	0.007
-250.049	16.695	0.083	0.065
-249.034	-200.000	0.004	-0.338
-248.019	-200.000	0.024	0.437
-247.005	-118.514	0.093	-0.016
-245.990	155.014	0.279	0.377
-244.976	-158.705	-0.100	-0.006
-243.961	180.411	-0.032	0.047
-242.946	319.916	-0.126	0.235
-241.932	404.085	0.131	-0.271
-240.917	684.403	0.169	0.433
-239.903	137.442	0.095	0.122
-238.888	764.903	0.099	0.264
-237.873	-26.774	-0.063	-0.036
-236.859	16.922	-0.218	-0.170
-235.844	-200.000	-0.003	-0.109
-234.830	-1.363	0.163	-0.113
-233.815	-200.000	-0.038	0.337
-232.800	-66.316	0.662	-0.259
-231.786	-14.852	-0.117	-0.074
-230.771	-200.000	0.007	0.163
-229.757	-17.479	0.051	-0.032
-228.742	-139.183	0.140	-0.015
-227.727	310.003	-0.030	0.055
-226.713	114.207	0.140	-0.167
-225.698	367.003	0.095	-0.189
-224.684	-200.000	0.014	-0.091
-223.669	258.001	0.082	0.138
-222.655	-10.460	-0.297	0.194
-221.640	-175.848	-0.360	-0.009
-220.625	112.818	0.021	0.025
-219.611	-200.000	-0.034	-0.158
-218.596	690.263	0.025	-0.065
-217.582	-0.776	0.219	-0.152
-216.567	-200.000	0.011	-0.180
-215.552	-200.000	0.036	0.235
-214.538	15.178	-0.053	0.041
-213.523	-175.479	0.528	0.014
-212.509	-200.000	0.045	0.418
-211.494	-78.021	-0.305	0.103
-210.479	-180.747	-0.089	-0.002
-209.465	69.026	-0.185	0.186
-208.450	16.152	0.013	-0.010
-207.436	-12.447	-0.344	-0.220
-206.421	141.241	0.208	-0.270
-205.406	-31.503	0.150	-0.083
-204.392	-200.000	0.013	0.096
-203.377	-166.778	-0.200	-0.008
-202.363	-23.787	0.140	-0.083
-201.348	-88.093	0.075	-0.022
-200.333	-200.000	0.053	0.240
-199.319	-200.000	-0.003	-0.231
-198.304	-196.734	0.183	-0.001
-197.290	-103.989	0.182	0.042
-196.275	576.749	0.145	-0.348
-195.260	223.064	-0.256	0.406
-194.246	-155.693	-0.339	-0.021
-193.231	-137.450	0.408	-0.045
-192.217	800.000	-0.037	0.127
-191.202	-186.762	0.219	0.003
-190.187	-26.974	0.123	0.070
-189.173	191.481	0.130	0.192
-188.158	84.456	-0.176	-0.189
-187.144	-200.000	-0.026	-0.126
-186.129	-117.892	-0.062	0.011
-185.114	-12.479	-0.102	0.065
-184.100	800.000	0.048	-0.140
-183.085	-200.000	-0.016	0.088
-182.071	-61.874	0.194	0.080
-181.056	-200.000	-0.020	-0.160
-180.042	-26.018	0.132	0.076
-179.027	800.000	-0.027	0.100
-178.012	42.304	0.103	-0.092
-176.998	108.289	0.216	0.253
-175.983	295.210	-0.140	0.252
-174.969	-134.914	0.275	0.033
-173.954	-11.107	-0.246	0.159
-172.939	-51.187	0.197	0.090
-171.925	-17.645	0.361	-0.222
-170.910	-68.906	-0.157	0.059
-169.896	222.880	0.140	-0.221
-168.881	18.844	0.111	0.087
-167.866	-150.578	-0.392	0.029
-166.852	289.129	-0.032	-0.057
-165.837	-132.210	0.315	-0.040
-164.823	151.760	0.077	0.103
-163.808	-154.779	0.432	-0.028
-162.793	5.161	0.048	-0.035
-161.779	-113.592	-0.169	0.032
-160.764	529.171	-0.069	-0.160
-159.750	-46.764	-0.095	-0.045
-158.735	800.000	-0.096	0.282
-157.720	454.560	0.092	-0.200
-156.706	12.711	0.248	0.188
-155.691	269.450	-0.130	0.225
-154.677	-134.230	0.143	0.017
-153.662	9.767	0.046	0.034
-152.647	60.538	0.078	-0.076
-151.633	10.082	0.209	-0.156
-150.618	-60.744	-0.230	-0.096
-149.604	73.991	-0.107	0.110
-148.589	-6.671	0.164	-0.109
-147.574	-200.000	0.043	-0.203
-146.560	800.000	0.103	0.392
-145.545	-112.045	-0.226	0.045
-144.531	-149.435	-0.048	0.004
-143.516	3.611	0.232	-0.166
-142.502	-67.854	-0.208	0.080
-141.487	-200.000	-0.065	-0.351
-140.472	-172.481	0.269	0.008
-139.458	-47.999	0.166	-0.079
-138.443	-200.000	-0.021	0.122
-137.429	-122.280	0.064	0.010
-136.414	263.904	-0.073	0.124
-135.399	105.886	-0.336	0.389
-134.385	32.174	0.203	0.172
-133.370	-200.000	0.062	0.342
-132.356	479.848	0.084	-0.186
-131.341	14.330	0.336	0.256
-130.326	-139.179	-0.015	0.002
-129.312	800.000	-0.048	0.195
-128.297	-140.039	0.209	0.022
-127.283	-81.945	0.217	-0.070
-126.268	234.197	0.012	-0.019
-125.253	39.186	0.121	0.106
-124.239	800.000	-0.071	-0.255
-123.224	-149.740	0.112	-0.009
-122.210	-62.032	-0.299	0.122
-121.195	-93.200	0.329	0.089
-120.180	93.418	-0.278	0.308
-119.166	-184.080	0.163	0.003
-118.151	-200.000	-0.027	0.418
-117.137	-200.000	0.003	-0.232
-116.122	800.000	-0.027	-0.112
-115.107	-80.145	0.127	0.042
-114.093	-76.480	-0.394	-0.136
-113.078	-186.390	-0.369	-0.005
-112.064	-111.991	0.079	0.016
-111.049	4.602	-0.210	0.151
-110.034	-200.000	0.064	0.384
-109.020	-53.292	-0.251	-0.113
-108.005	402.200	0.115	0.235
-106.991	3.681	-0.319	-0.228
-105.976	137.065	-0.149	-0.191
-104.962	-200.000	-0.006	0.200
-103.947	-200.000	0.022	0.258
-102.932	-6.056	-0.166	-0.111
-101.918	1.468	0.075	0.053
-100.903	489.731	-0.055	0.123
-99.889	-109.266	-0.216	-0.045
-98.874	-179.629	0.335	0.007
-97.859	-164.210	0.212	0.010
-96.845	222.427	-0.166	-0.261
-95.830	-13.431	0.220	0.139
-94.816	100.599	-0.105	-0.119
-93.801	146.670	0.065	-0.085
-92.786	800.000	0.068	-0.186
-91.772	94.596	-0.183	0.204
-90.757	-30.751	-0.196	0.108
-89.743	-58.265	0.172	0.073
-88.728	-80.880	0.072	0.023
-87.713	-99.116	0.424	-0.105
-86.699	759.157	-0.050	-0.133
-85.684	-134.076	0.234	-0.028
-84.670	-28.394	-0.189	0.107
-83.655	135.953	-0.076	-0.097
-82.640	-88.092	-0.129	-0.038
-81.626	-13.943	-0.322	-0.203
-80.611	-83.733	0.170	0.053
-79.597	-47.959	-0.411	0.194
-78.582	-142.482	-0.156	0.015
-77.567	98.618	0.201	0.227
-76.553	9.132	-0.250	-0.185
-75.538	40.130	0.044	0.038
-74.524	-155.750	-0.164	0.010
-73.509	-84.787	0.199	-0.061
-72.494	800.000	-0.068	0.255
-71.480	-155.013	0.170	-0.011
-70.465	321.112	-0.010	-0.019
-69.451	2.606	0.155	0.109
-68.436	176.353	0.041	0.058
-67.422	-200.000	0.062	0.375
-66.407	-93.660	0.106	0.028
-65.392	-15.334	0.136	-0.085
-64.378	-47.540	0.177	0.084
-63.363	-121.564	-0.229	0.037
-62.349	-147.358	0.261	-0.022
-61.334	317.942	-0.583	-1.078
-60.319	-77.184	0.543	0.185
-59.305	-200.000	-0.168	-1.270
-58.290	38.934	0.831	0.725
-57.276	469.002	0.702	1.540
-56.261	-200.000	115.723	649.108
-55.246	516.831	1528.884	3489.383
-54.232	178.425	2694.337	3840.399
-53.217	105.621	2164.599	2497.790
-52.203	37.391	1686.084	1458.925
-51.188	29.993	1502.629	1250.405
-50.173	27.865	1477.448	1215.262
-49.159	50.531	1538.259	1420.050
-48.144	49.170	1552.729	1424.097
-47.130	30.154	1508.001	1255.770
-46.115	27.137	1492.916	1222.889
-45.100	26.955	1489.617	1218.922
-44.086	26.955	1487.383	1217.040
-43.071	26.835	1485.907	1214.980
-42.057	26.743	1484.648	1213.287
-41.042	26.836	1483.126	1212.620
-40.027	26.853	1481.047	1210.984
-39.013	26.889	1479.417	1209.844
-37.998	26.831	1478.596	1208.736
-36.984	26.824	1478.016	1208.168
-35.969	26.892	1476.248	1207.127
-34.954	26.717	1475.429	1205.246
-33.940	26.830	1473.350	1204.250
-32.925	26.742	1472.479	1202.905
-31.911	26.911	1470.537	1202.394
-30.896	26.945	1469.513	1201.735
-29.881	26.916	1468.211	1200.430
-28.867	26.931	1467.185	1199.639
-27.852	26.965	1465.429	1198.385
-26.838	26.956	1464.155	1197.235
-25.823	27.015	1462.486	1196.210
-24.809	26.854	1461.883	1194.612
-23.794	26.874	1460.151	1193.281
-22.779	26.957	1458.801	1192.677
-21.765	26.959	1457.615	1191.672
-20.750	26.915	1456.511	1190.431
-19.736	26.954	1454.988	1189.395
-18.721	26.952	1454.079	1188.590
-17.706	26.879	1453.467	1187.563
-16.692	26.888	1452.002	1186.382
-15.677	26.940	1450.815	1185.702
-14.663	26.894	1450.144	1184.807
-13.648	26.834	1449.291	1183.669
-12.633	26.837	1448.543	1183.034
-11.619	26.761	1448.005	1182.055
-10.604	26.843	1446.645	1181.430
-9.590	26.838	1445.712	1180.584
-8.575	26.883	1444.651	1179.964
-7.560	26.819	1444.277	1179.200
-6.546	26.894	1443.048	1178.638
-5.531	26.850	1442.668	1177.992
-4.517	26.900	1441.283	1177.140
-3.502	26.822	1440.440	1175.896
-2.487	26.812	1439.480	1175.003
-1.473	26.860	1438.525	1174.488
-0.458	26.974	1436.984	1173.923
0.556	27.083	1427.297	1161.407
1.571	23.871	1401.816	1120.370
2.586	20.230	1339.416	1048.438
3.600	18.531	1257.000	974.196
4.615	17.346	1213.001	933.507
5.629	14.975	1157.915	878.603
6.644	8.604	1077.985	786.641
7.659	3.735	1042.157	737.238
8.673	3.185	1036.612	730.642
9.688	3.143	1033.520	728.200
10.702	3.113	1031.620	726.651
11.717	3.329	1029.523	726.127
12.731	4.976	1030.748	734.698
13.746	11.453	1039.745	771.752
14.761	17.903	1048.086	808.519
15.775	19.747	1049.746	818.465
16.790	19.462	1048.499	816.074
17.804	18.476	1046.016	809.414
18.819	17.505	1044.383	803.498
19.834	17.102	1043.263	800.665
20.848	16.906	1042.410	799.018
21.863	16.797	1042.007	798.122
22.877	16.576	1041.240	796.424
23.892	16.429	1039.908	794.643
24.907	16.397	1039.550	794.152
25.921	16.400	1038.789	793.511
26.936	16.336	1038.022	792.557
27.950	16.329	1037.109	791.755
28.965	16.401	1035.951	791.139
29.980	16.517	1034.598	790.577
30.994	16.658	1033.481	790.316
32.009	16.887	1032.178	790.316
33.023	16.791	1032.000	789.659
34.038	16.710	1031.059	788.495
35.053	16.646	1030.442	787.654
36.067	16.606	1028.781	786.131
37.082	16.486	1028.297	785.133
38.096	16.505	1027.501	784.542
39.111	16.675	1026.738	784.680
40.126	16.712	1025.871	784.118
41.140	16.418	1024.905	781.953
42.155	16.431	1023.272	780.696
43.169	16.258	1022.564	779.289
44.184	16.271	1021.672	778.599
45.199	16.141	1020.551	777.077
46.213	16.244	1019.582	776.744
47.228	16.130	1019.243	775.893
48.242	16.367	1018.128	776.067
49.257	16.538	1016.992	775.915
50.271	16.567	1015.940	775.177
51.286	16.621	1015.405	774.947
52.301	16.589	1014.780	774.256
53.315	16.580	1014.087	773.616
54.330	16.540	1013.054	772.578
55.344	16.407	1012.049	771.138
56.359	16.417	1011.122	770.405
57.374	16.337	1010.370	769.401
58.388	16.357	1009.646	768.871
59.403	16.194	1008.938	767.526
60.417	16.218	1007.847	766.736
61.432	16.157	1007.008	765.752
62.447	16.181	1006.564	765.456
63.461	16.124	1005.493	764.316
64.476	16.131	1004.645	763.637
65.490	16.105	1003.432	762.529
66.505	16.100	1002.799	761.956
67.520	16.209	1002.272	761.980
68.534	16.121	1001.978	761.292
69.549	16.121	1000.713	760.263
70.563	16.121	999.929	759.601
71.578	16.046	999.775	759.081
72.593	16.054	998.590	758.151
73.607	15.925	997.592	756.747
74.622	15.836	996.900	755.752
75.636	15.847	995.929	755.001
76.651	15.953	994.864	754.600
77.666	15.900	994.485	754.009
78.680	15.982	993.969	753.918
79.695	15.953	993.029	753.010
80.709	16.022	992.531	752.870
81.724	16.097	991.489	752.352
82.739	16.255	990.914	752.552
83.753	16.303	990.317	752.247
84.768	16.475	989.823	752.568
85.782	16.658	989.186	752.832
86.797	16.702	988.692	752.586
87.812	16.718	987.856	751.952
88.826	16.642	986.583	750.583
89.841	16.612	985.897	749.859
90.855	16.623	985.195	749.310
91.870	16.699	984.530	749.075
92.884	16.784	984.097	749.054
93.899	16.779	982.855	748.019
94.914	16.654	982.401	747.056
95.928	16.809	981.780	747.202
96.943	16.816	981.200	746.723
97.957	16.817	979.911	745.681
98.972	16.701	979.003	744.417
99.987	16.781	978.021	743.955
101.001	16.750	977.162	743.099
102.016	16.741	976.694	742.638
103.030	16.659	975.593	741.375
104.045	16.641	974.681	740.538
105.060	16.810	973.780	740.527
106.074	16.559	973.274	738.980
107.089	16.379	972.084	737.227
108.103	16.245	970.986	735.743
109.118	16.220	970.015	734.834
110.133	16.202	969.321	734.163
111.147	16.161	968.299	733.148
112.162	16.193	967.549	732.655
113.176	16.282	966.570	732.235
114.191	16.313	965.918	731.809
115.206	16.524	965.110	732.044
116.220	16.275	964.569	730.493
117.235	16.307	963.511	729.765
118.249	16.284	963.171	729.346
119.264	16.250	962.450	728.585
120.279	16.254	960.915	727.379
121.293	16.246	960.358	726.856
122.308	16.144	959.542	725.737
123.322	16.029	958.772	724.594
124.337	16.005	957.291	723.310
125.352	16.094	956.127	722.749
126.366	16.012	955.447	721.818
127.381	16.020	954.199	720.848
128.395	16.040	953.423	720.282
129.410	16.061	952.184	719.369
130.424	16.057	951.831	719.023
131.439	16.297	950.056	718.640
132.454	16.163	950.110	718.046
133.468	16.326	949.542	718.249
134.483	16.245	948.699	717.202
135.497	16.355	947.792	716.918
136.512	16.268	947.597	716.340
137.527	16.287	946.594	715.600
138.541	16.253	946.125	715.039
139.556	16.218	945.670	714.482
140.570	16.317	944.483	713.940
141.585	16.401	943.880	713.778
142.600	16.584	943.607	714.279
143.614	16.659	942.561	713.739
144.629	16.650	942.056	713.257
145.643	16.782	941.062	712.996
146.658	16.840	940.290	712.592
147.673	16.599	939.143	710.651
148.687	16.549	938.260	709.710
149.702	16.441	937.658	708.737
150.716	16.423	936.802	707.953
151.731	16.315	935.975	706.812
152.746	16.505	935.074	706.866
153.760	16.496	934.210	706.110
154.775	16.436	933.743	705.445
155.789	16.648	932.841	705.584
156.804	16.705	932.471	705.480
157.819	16.576	932.038	704.555
158.833	16.549	931.123	703.685
159.848	16.657	930.903	703.909
160.862	16.809	929.875	703.699
161.877	16.869	929.137	703.326
162.892	16.470	928.180	700.885
163.906	16.360	926.834	699.353
164.921	16.230	926.378	698.408
165.935	16.478	925.003	698.337
166.950	16.396	924.417	697.492
167.964	16.515	923.678	697.363
168.979	16.561	922.552	696.640
169.994	16.602	921.172	695.707
171.008	16.409	920.777	694.555
172.023	16.645	919.762	694.697
173.037	16.684	919.383	694.506
174.052	16.793	919.174	694.737
175.067	16.850	917.800	693.867
176.081	16.707	917.052	692.656
177.096	16.529	916.107	691.155
178.110	16.473	915.501	690.408
179.125	16.549	914.553	689.939
180.140	16.362	914.832	689.328
181.154	16.559	913.478	689.048
182.169	16.656	913.313	689.260
183.183	16.681	912.935	689.012
184.198	16.964	911.989	689.389
185.213	16.862	911.061	688.214
186.227	16.846	910.363	687.561
187.242	16.858	910.124	687.368
188.256	16.934	909.436	687.093
189.271	16.974	908.851	686.753
190.286	17.069	908.030	686.455
191.300	16.860	907.086	684.839
192.315	16.590	905.977	682.850
193.329	16.264	905.468	681.090
194.344	16.530	904.126	681.094
195.359	16.553	904.540	681.437
196.373	16.681	904.213	681.648
197.388	16.659	903.631	681.057
198.402	16.963	902.971	681.724
199.417	16.971	903.033	681.741
200.432	17.235	902.397	682.261
201.446	17.402	901.853	682.459
202.461	17.323	901.585	681.879
203.475	17.257	901.650	681.602
204.490	17.423	900.566	681.390
205.504	17.169	899.102	679.207
206.519	17.129	898.285	678.368
207.534	16.970	897.801	677.309
208.548	17.060	897.081	677.064
209.563	17.160	896.293	676.806
210.577	17.046	895.733	675.870
211.592	17.083	895.404	675.709
212.607	17.192	894.768	675.605
213.621	17.316	894.556	675.875
214.636	17.219	893.665	674.758
215.650	17.176	893.115	674.111
216.665	17.245	892.497	673.859
217.680	17.251	891.936	673.399
218.694	17.403	891.401	673.541
219.709	17.266	891.318	672.877
220.723	17.462	890.464	672.945
221.738	17.305	889.726	671.710
222.753	17.332	889.166	671.333
223.767	17.441	888.096	670.894
224.782	17.276	887.620	669.824
225.796	17.500	886.753	669.993
226.811	17.650	886.227	670.129
227.826	17.503	885.527	668.961
228.840	17.356	885.145	668.036
229.855	17.246	884.343	666.940
230.869	17.401	883.494	666.848
231.884	17.312	882.907	665.999
232.899	17.316	881.974	665.252
233.913	17.299	881.409	664.699
234.928	17.244	880.280	663.574
235.942	17.179	879.832	662.924
236.957	17.294	879.224	662.856
237.972	17.162	878.555	661.779
238.986	17.201	878.361	661.727
240.001	17.194	877.902	661.296
241.015	17.200	876.828	660.449
242.030	17.240	876.201	660.074
243.045	17.440	875.250	660.076
244.059	17.485	874.873	659.907
245.074	17.390	874.172	658.953
246.088	17.582	873.998	659.504
247.103	17.549	873.176	658.700
248.117	17.532	873.062	658.490
249.132	17.639	872.770	658.624
250.147	17.845	872.045	658.816
251.161	17.952	871.436	658.708
252.176	18.159	870.874	659.023
253.190	18.087	870.158	658.147
254.205	18.139	869.713	657.952
255.220	18.178	869.242	657.688
256.234	18.092	868.459	656.708
257.249	18.109	867.216	655.773
258.263	18.299	866.816	656.142
259.278	18.202	866.131	655.193
260.293	18.182	865.971	654.940
261.307	18.239	865.385	654.655
262.322	18.298	865.007	654.535
263.336	18.395	864.385	654.377
264.351	18.217	863.994	653.345
265.366	18.402	863.101	653.317
266.380	18.266	862.310	652.141
267.395	18.340	862.138	652.235
268.409	18.345	860.879	651.246
269.424	18.218	860.311	650.273
270.439	18.132	859.565	649.327
271.453	18.112	859.197	648.915
272.468	18.161	858.060	648.185
273.482	17.939	857.888	647.156
274.497	18.210	856.886	647.370
275.512	18.314	856.192	647.180
276.526	18.111	855.682	645.971
277.541	18.237	855.027	645.896
278.555	18.295	854.286	645.499
279.570	18.322	853.787	645.164
280.585	18.379	853.877	645.392
281.599	18.489	852.992	645.080
282.614	18.480	852.309	644.471
283.628	18.270	851.714	643.174
284.643	18.323	850.981	642.762
285.657	18.289	850.809	642.451
286.672	18.264	850.046	641.721
287.687	18.310	849.930	641.752
288.701	18.301	849.434	641.286
289.716	18.275	848.495	640.421
290.730	18.408	847.943	640.446
291.745	18.501	847.180	640.160
292.760	18.470	846.740	639.657
293.774	18.509	846.175	639.320
294.789	18.581	845.694	639.169
295.803	18.498	845.263	638.475
296.818	18.485	844.553	637.833
297.833	18.576	843.691	637.464
298.847	18.287	843.540	636.222
299.862	18.400	842.722	635.967
300.876	18.372	842.002	635.263
301.891	18.515	841.487	635.347
302.906	18.648	840.719	635.204
303.920	18.753	840.389	635.287
304.935	18.759	839.550	634.621
305.949	18.856	839.314	634.745
306.964	18.817	838.616	634.016
307.979	18.711	838.079	633.163
308.993	18.789	837.552	632.997
310.008	18.831	836.839	632.557
311.022	18.833	836.228	632.043
312.037	18.837	835.700	631.605
313.052	18.764	834.873	630.657
314.066	18.544	834.454	629.474
315.081	18.566	833.663	628.903
316.095	18.493	833.433	628.409
317.110	18.493	832.736	627.826
318.125	18.676	832.036	627.914
319.139	18.530	831.222	626.709
320.154	18.513	831.453	626.766
321.168	18.592	830.977	626.638
322.183	18.661	830.138	626.205
323.197	18.653	829.873	625.920
324.212	18.866	829.027	626.002
325.227	18.666	828.679	624.956
326.241	18.815	828.033	624.953
327.256	18.773	827.446	624.302
328.270	18.772	827.253	624.099
329.285	18.766	826.078	623.135
330.300	18.737	825.623	622.632
331.314	18.610	825.313	621.883
332.329	18.757	824.370	621.649
333.343	18.849	824.032	621.672
334.358	18.896	823.877	621.671
335.373	18.980	823.182	621.394
336.387	19.106	822.551	621.319
337.402	18.845	822.359	620.176
338.416	19.059	821.619	620.337
339.431	19.111	821.169	620.129
340.446	19.325	820.137	620.063
341.460	19.354	819.869	619.909
342.475	19.291	819.518	619.362
343.489	19.489	818.943	619.585
344.504	19.250	818.777	618.546
345.519	19.513	818.212	619.010
346.533	19.494	817.683	618.485
347.548	19.613	817.137	618.442
348.562	19.403	816.172	616.906
349.577	19.171	815.624	615.608
350.592	19.101	815.437	615.164
351.606	19.167	814.747	614.826
352.621	19.006	814.576	614.065
353.635	19.166	813.926	614.093
354.650	19.204	813.737	614.031
355.665	19.120	813.256	613.316
356.679	19.209	812.699	613.157
357.694	19.318	812.328	613.210
358.708	19.415	811.473	612.855
359.723	19.427	811.056	612.528
360.738	19.403	810.168	611.721
361.752	19.408	809.976	611.538
362.767	19.361	809.660	611.080
363.781	19.523	809.180	611.235
364.796	19.470	809.120	610.950
365.810	19.576	808.666	610.928
366.825	19.655	808.453	610.992
367.840	19.756	808.079	611.012
368.854	19.747	807.559	610.533
369.869	19.756	806.811	609.944
370.883	19.637	806.244	609.043
371.898	19.650	805.973	608.831
372.913	19.699	805.415	608.527
373.927	19.797	804.818	608.367
374.942	19.669	804.207	607.400
375.956	19.707	803.668	607.074
376.971	19.693	803.082	606.529
377.986	19.795	802.472	606.372
379.000	19.817	802.024	606.058
380.015	20.021	801.638	606.427
381.029	20.019	801.075	605.941
382.044	19.925	800.565	605.170
383.059	19.928	799.873	604.604
384.073	20.029	799.286	604.459
385.088	19.934	798.398	603.403
386.102	19.800	797.966	602.558
387.117	19.796	797.412	602.071
388.132	19.713	796.764	601.240
389.146	19.797	796.647	601.390
390.161	19.804	796.093	600.945
391.175	19.878	796.245	601.262
392.190	19.912	795.694	600.910
393.205	19.893	795.122	600.359
394.219	19.782	794.706	599.609
395.234	19.825	793.791	599.012
396.248	19.813	793.246	598.509
397.263	19.651	793.049	597.747
398.278	19.601	792.551	597.143
399.292	19.688	792.001	596.978
400.307	19.606	791.799	596.488
401.321	19.558	791.469	596.021
402.336	19.651	791.124	596.033
403.350	19.751	790.334	595.727
404.365	19.863	790.077	595.868
405.380	19.841	789.834	595.554
406.394	20.005	789.392	595.735
407.409	20.185	788.988	595.994
408.423	20.255	788.440	595.767
409.438	20.188	788.133	595.254
410.453	20.360	787.591	595.382
411.467	20.152	787.424	594.489
412.482	20.362	786.889	594.751
413.496	20.497	786.110	594.572
414.511	20.470	786.072	594.400
415.526	20.470	785.757	594.107
416.540	20.378	785.105	593.248
417.555	20.465	784.799	593.262
418.569	20.348	784.346	592.469
419.584	20.312	784.169	592.159
420.599	20.364	783.630	591.876
421.613	162.221	1370.470	1795.492
422.628	140.315	1455.973	1795.576
