DTS Sentinel unit serial number:	SN413079Multiplexer serial number:	ORYXHardware model number:	OX4-SRSoftware version number:	ORYX F/W v4.00 Oryx Data Collector v3.7.2.0data status	okinstallation	princeton_trtdifferential loss correction	single-endedforward channel	channel 3reverse channel	N/Adate	2019/09/18time	21:04:35forward acquisition time	60.00reverse acquisition time	0.00gamma	496.2192k internal	0.2344k external	0.2344temperature offset calibration	1.0010default loss term (dB/km)	0.3790temperature slope calibration	1.0000multiplexer offset coefficient	1.0000multiplexer slope coefficient	1.0000fibre end	0.00T internal ref (°C)	26.33T ext. ref 1 (°C)	1.11T ext. ref 2 (°C)	18.08length (m)	temperature (°C)	Stokes	anti-Stokes-747.200	-102.716	0.225	0.054
-746.185	15.087	-0.374	0.293
-745.171	-10.981	0.132	0.087
-744.156	-44.510	-0.182	-0.091
-743.142	800.000	0.124	-0.351
-742.127	800.000	-0.053	-0.161
-741.112	-184.068	-0.127	0.002
-740.098	-200.000	0.017	0.278
-739.083	125.387	0.213	-0.269
-738.069	131.777	-0.266	0.342
-737.054	-114.412	0.290	0.056
-736.039	-103.569	0.252	-0.059
-735.025	314.774	0.186	0.351
-734.010	-200.000	-0.064	-0.346
-732.996	-200.000	0.026	-0.141
-731.981	108.242	-0.185	0.220
-730.966	260.696	-0.160	-0.278
-729.952	800.000	-0.125	0.430
-728.937	-96.726	0.281	0.074
-727.923	-75.423	-0.148	-0.053
-726.908	251.171	0.021	-0.036
-725.894	800.000	0.041	-0.173
-724.879	-200.000	0.015	-0.105
-723.864	800.000	-0.068	0.263
-722.850	-200.000	0.056	-0.273
-721.835	327.343	-0.301	-0.576
-720.821	14.523	0.137	0.107
-719.806	800.000	-0.067	-0.202
-718.791	-71.775	0.394	0.147
-717.777	246.818	0.108	-0.181
-716.762	-200.000	-0.014	-0.388
-715.748	243.481	0.222	-0.372
-714.733	-10.846	-0.168	0.111
-713.718	-101.380	0.240	0.058
-712.704	-64.162	0.111	0.045
-711.689	-200.000	-0.080	-0.359
-710.675	277.451	0.216	0.384
-709.660	-100.763	-0.275	0.068
-708.645	5.411	-0.232	0.171
-707.631	-11.425	0.090	0.059
-706.616	-106.123	-0.067	-0.015
-705.602	-150.007	-0.069	0.005
-704.587	-118.272	-0.149	0.026
-703.572	67.397	0.167	-0.170
-702.558	630.011	0.032	-0.082
-701.543	-200.000	-0.011	0.291
-700.529	-200.000	-0.054	-0.000
-699.514	178.454	-0.250	-0.365
-698.499	-127.985	-0.079	0.011
-697.485	6.293	0.179	-0.133
-696.470	28.822	-0.229	-0.194
-695.456	-200.000	0.063	0.320
-694.441	-200.000	0.013	0.306
-693.426	284.875	-0.038	-0.069
-692.412	-200.000	0.016	0.186
-691.397	106.305	0.144	0.170
-690.383	-48.996	-0.384	-0.184
-689.368	-200.000	-0.018	0.132
-688.354	-200.000	-0.032	-0.227
-687.339	113.730	-0.107	-0.130
-686.324	-50.702	0.350	0.165
-685.310	-172.101	0.066	0.002
-684.295	53.905	-0.301	-0.289
-683.281	39.328	-0.202	-0.180
-682.266	-106.529	0.278	-0.062
-681.251	800.000	0.067	-0.237
-680.237	-194.754	-0.195	0.002
-679.222	-200.000	-0.070	-0.000
-678.208	716.929	-0.092	0.244
-677.193	-200.000	-0.032	-0.387
-676.178	-56.540	0.014	-0.006
-675.164	691.011	-0.110	0.287
-674.149	-141.859	0.167	0.017
-673.135	-31.132	-0.290	0.163
-672.120	85.508	-0.284	0.311
-671.105	29.882	0.138	0.117
-670.091	10.117	-0.081	-0.062
-669.076	-138.109	0.265	0.029
-668.062	-200.000	-0.006	0.042
-667.047	-136.751	0.135	-0.016
-666.032	-91.116	0.228	0.065
-665.018	479.778	-0.060	0.136
-664.003	-200.000	0.021	-0.193
-662.989	-200.000	0.030	-0.191
-661.974	116.544	0.202	0.248
-660.959	-200.000	0.013	0.177
-659.945	501.985	0.115	-0.264
-658.930	528.874	0.187	-0.440
-657.916	48.978	-0.184	0.172
-656.901	-200.000	-0.047	-0.492
-655.886	-98.542	0.424	-0.108
-654.872	-200.000	-0.039	0.339
-653.857	172.683	0.247	-0.354
-652.843	-99.093	-0.474	-0.120
-651.828	58.635	0.222	0.218
-650.814	-131.076	-0.545	-0.072
-649.799	192.509	0.134	-0.201
-648.784	-47.102	-0.085	-0.041
-647.770	52.977	-0.108	0.103
-646.755	-25.222	-0.183	-0.108
-645.741	800.000	-0.047	-0.170
-644.726	-53.997	0.176	-0.080
-643.711	432.861	-0.028	-0.062
-642.697	752.316	0.155	0.417
-641.682	765.676	0.147	0.399
-640.668	163.606	-0.077	0.108
-639.653	-53.671	-0.155	0.070
-638.638	53.770	0.038	0.036
-637.624	-105.018	-0.144	0.033
-636.609	-92.423	0.129	-0.036
-635.595	229.692	0.073	-0.119
-634.580	150.833	-0.085	-0.115
-633.565	-58.760	0.147	0.063
-632.551	-200.000	-0.016	0.096
-631.536	-16.089	-0.115	-0.073
-630.522	42.879	-0.162	0.147
-629.507	-138.619	-0.122	-0.013
-628.492	287.374	-0.054	-0.097
-627.478	97.368	-0.211	0.241
-626.463	800.000	-0.023	0.074
-625.449	-83.915	0.162	-0.051
-624.434	-77.615	-0.304	-0.105
-623.419	-142.407	0.176	0.017
-622.405	37.560	0.263	0.232
-621.390	800.000	-0.035	0.119
-620.376	1.802	-0.235	-0.169
-619.361	-106.144	0.082	0.018
-618.346	-90.030	-0.245	-0.071
-617.332	23.038	-0.083	-0.068
-616.317	93.092	0.053	-0.060
-615.303	800.000	0.071	-0.279
-614.288	32.207	0.264	0.227
-613.273	-193.723	0.110	0.001
-612.259	199.402	-0.200	-0.306
-611.244	-200.000	0.019	0.160
-610.230	115.594	-0.164	0.200
-609.215	42.175	-0.306	0.277
-608.201	-43.770	0.046	-0.023
-607.186	-49.850	0.059	0.028
-606.171	-44.102	0.184	0.092
-605.157	365.832	-0.089	0.179
-604.142	-97.166	-0.271	-0.071
-603.128	258.212	0.075	-0.128
-602.113	245.202	0.152	0.254
-601.098	113.703	-0.166	0.201
-600.084	-132.976	-0.230	-0.029
-599.069	260.233	0.069	-0.119
-598.055	-15.937	0.200	0.127
-597.040	-117.073	-0.130	-0.024
-596.025	-200.000	-0.018	-0.285
-595.011	380.108	-0.051	0.105
-593.996	-53.589	-0.275	0.125
-592.982	118.195	-0.163	-0.200
-591.967	257.593	0.177	0.303
-590.952	-200.000	0.012	0.145
-589.938	178.516	-0.143	0.207
-588.923	-15.547	-0.177	-0.113
-587.909	800.000	-0.091	0.254
-586.894	252.202	0.028	-0.047
-585.879	123.038	0.066	0.082
-584.865	-69.024	0.194	0.074
-583.850	-200.000	0.009	0.088
-582.836	-200.000	0.001	0.015
-581.821	800.000	-0.036	0.118
-580.806	-200.000	-0.008	0.049
-579.792	628.061	-0.116	-0.291
-578.777	-109.008	-0.195	0.041
-577.763	-200.000	0.002	0.224
-576.748	249.691	-0.132	0.223
-575.733	-112.365	-0.107	0.021
-574.719	45.579	-0.114	-0.105
-573.704	51.951	0.253	-0.239
-572.690	-200.000	0.008	-0.163
-571.675	-57.249	0.337	-0.147
-570.661	-88.493	-0.205	0.061
-569.646	-107.901	-0.264	0.057
-568.631	-37.035	-0.072	-0.039
-567.617	-171.667	0.297	-0.010
-566.602	-200.000	0.012	0.197
-565.588	182.949	-0.222	-0.325
-564.573	-115.229	-0.102	-0.019
-563.558	-140.609	-0.142	-0.015
-562.544	-58.079	-0.200	-0.087
-561.529	60.272	-0.299	-0.294
-560.515	132.339	0.209	0.267
-559.500	-199.441	-0.098	0.001
-558.485	-200.000	0.027	-0.465
-557.471	430.896	0.012	-0.025
-556.456	-14.288	0.486	0.311
-555.442	-200.000	0.011	-0.216
-554.427	381.111	-0.151	0.309
-553.412	-57.081	0.007	-0.003
-552.398	800.000	0.012	0.039
-551.383	-33.435	-0.175	-0.096
-550.369	-33.590	-0.065	-0.036
-549.354	218.162	0.077	0.121
-548.339	-188.270	-0.138	-0.002
-547.325	306.915	-0.143	0.265
-546.310	-71.784	0.217	-0.080
-545.296	-200.000	0.073	0.400
-544.281	786.854	0.066	0.180
-543.266	-50.996	0.214	0.100
-542.252	276.972	-0.052	-0.092
-541.237	458.745	-0.099	-0.218
-540.223	-200.000	-0.051	-0.241
-539.208	1.414	-0.089	-0.064
-538.193	-164.756	-0.240	0.011
-537.179	75.502	-0.252	-0.265
-536.164	137.896	-0.135	0.176
-535.150	25.635	-0.036	0.030
-534.135	-25.659	-0.265	-0.155
-533.121	125.650	-0.187	-0.234
-532.106	800.000	0.033	0.100
-531.091	68.930	0.274	0.279
-530.077	353.235	-0.101	-0.198
-529.062	-200.000	0.002	0.024
-528.048	254.402	0.151	-0.256
-527.033	-74.517	-0.237	0.085
-526.018	275.040	0.153	0.269
-525.004	-108.934	0.119	-0.025
-523.989	165.986	0.199	-0.280
-522.975	24.239	0.243	0.199
-521.960	219.881	0.092	0.146
-520.945	-47.617	-0.201	0.097
-519.931	-200.000	-0.005	0.074
-518.916	-22.677	-0.206	-0.123
-517.902	-200.000	0.219	0.000
-516.887	-79.135	-0.283	-0.095
-515.872	-200.000	0.004	-0.407
-514.858	-200.000	0.094	-0.000
-513.843	295.966	-0.079	-0.143
-512.829	5.608	0.057	0.041
-511.814	-15.551	0.216	0.137
-510.799	-43.676	0.261	-0.131
-509.785	71.626	0.200	0.206
-508.770	-109.157	-0.083	-0.017
-507.756	249.110	0.057	-0.097
-506.741	800.000	0.076	0.235
-505.726	-131.117	-0.170	0.022
-504.712	150.237	-0.237	0.318
-503.697	-108.561	-0.361	0.077
-502.683	-151.718	-0.273	0.020
-501.668	617.626	0.059	-0.147
-500.653	800.000	-0.057	-0.177
-499.639	-200.000	0.017	-0.146
-498.624	-104.809	0.336	0.077
-497.610	-125.821	0.202	-0.030
-496.595	-103.675	-0.291	-0.068
-495.581	482.930	0.077	-0.173
-494.566	-114.588	0.184	0.035
-493.551	149.498	-0.089	-0.119
-492.537	-33.701	-0.120	-0.065
-491.522	423.674	0.041	-0.088
-490.508	800.000	-0.018	-0.056
-489.493	-153.641	0.275	-0.019
-488.478	-96.877	-0.426	0.111
-487.464	-115.720	-0.197	-0.037
-486.449	69.093	-0.183	-0.186
-485.435	694.370	-0.194	0.503
-484.420	337.330	-0.150	-0.288
-483.405	34.939	0.298	0.259
-482.391	28.002	0.145	-0.121
-481.376	195.602	-0.164	-0.247
-480.362	-200.000	0.006	0.042
-479.347	-200.000	-0.009	0.095
-478.332	-160.796	0.188	0.010
-477.318	545.201	-0.061	-0.144
-476.303	-80.520	0.117	-0.039
-475.289	-200.000	0.034	0.172
-474.274	-200.000	0.009	0.089
-473.259	-11.795	0.373	-0.242
-472.245	-122.956	0.194	0.031
-471.230	103.707	-0.202	-0.235
-470.216	-64.478	-0.096	0.038
-469.201	-200.000	0.024	0.205
-468.186	772.547	0.039	-0.104
-467.172	327.132	-0.093	0.177
-466.157	800.000	-0.055	0.153
-465.143	-200.000	-0.041	0.265
-464.128	54.178	-0.167	0.159
-463.113	239.842	-0.051	-0.084
-462.099	-89.666	0.068	-0.020
-461.084	-51.530	0.049	-0.023
-460.070	800.000	0.036	0.106
-459.055	-102.852	0.084	0.020
-458.040	-103.107	-0.252	-0.059
-457.026	130.886	-0.168	-0.214
-456.011	100.277	0.058	-0.067
-454.997	800.000	-0.106	-0.289
-453.982	-200.000	-0.015	-0.263
-452.968	-67.572	0.089	0.035
-451.953	800.000	-0.053	-0.150
-450.938	-113.468	0.172	-0.033
-449.924	-200.000	0.005	-0.086
-448.909	-8.438	-0.137	-0.091
-447.895	-155.580	0.369	-0.024
-446.880	-52.256	-0.133	-0.061
-445.865	-47.422	0.287	-0.138
-444.851	369.209	0.055	0.110
-443.836	-200.000	0.001	0.034
-442.822	297.634	-0.051	-0.092
-441.807	291.576	-0.272	-0.490
-440.792	157.066	-0.140	-0.192
-439.778	-200.000	0.002	-0.135
-438.763	170.252	-0.126	0.178
-437.749	-129.137	-0.071	0.010
-436.734	-106.269	-0.237	-0.052
-435.719	-7.775	0.168	-0.112
-434.705	-51.035	0.105	-0.049
-433.690	33.556	-0.251	-0.216
-432.676	-111.484	-0.237	-0.048
-431.661	30.074	0.185	-0.156
-430.646	77.463	0.169	-0.178
-429.632	-0.337	-0.129	0.091
-428.617	9.888	0.336	0.252
-427.603	263.539	0.108	-0.186
-426.588	254.285	-0.083	0.140
-425.573	-79.195	0.353	-0.118
-424.559	-10.732	0.032	-0.021
-423.544	45.282	-0.242	0.221
-422.530	-200.000	0.006	0.368
-421.515	242.021	-0.080	0.132
-420.500	3.711	0.194	-0.140
-419.486	-68.001	-0.216	0.083
-418.471	-173.119	-0.223	-0.007
-417.457	-47.230	0.217	-0.104
-416.442	17.383	-0.030	-0.023
-415.428	-11.570	0.167	-0.108
-414.413	-200.000	-0.026	0.183
-413.398	114.050	0.102	-0.122
-412.384	131.156	0.306	0.389
-411.369	378.406	-0.118	0.239
-410.355	800.000	-0.055	0.154
-409.340	-142.167	-0.266	0.026
-408.325	62.470	-0.134	-0.133
-407.311	-116.154	0.344	-0.063
-406.296	-19.892	-0.054	0.033
-405.282	-131.157	-0.179	0.023
-404.267	800.000	-0.060	-0.189
-403.252	-88.957	-0.489	0.143
-402.238	83.841	0.198	0.214
-401.223	330.085	0.042	-0.080
-400.209	171.721	-0.069	0.097
-399.194	-200.000	0.072	0.497
-398.179	800.000	-0.036	-0.150
-397.165	-200.000	0.058	-0.295
-396.150	-4.929	0.163	-0.111
-395.136	-20.589	0.234	0.142
-394.121	-46.250	-0.141	-0.068
-393.106	-200.000	0.004	-0.297
-392.092	-65.023	0.308	-0.123
-391.077	-77.826	0.372	-0.127
-390.063	-100.147	-0.264	-0.065
-389.048	-99.855	0.829	0.205
-388.033	-123.980	0.297	-0.046
-387.019	15.168	0.217	0.168
-386.004	-98.113	-0.144	0.037
-384.990	800.000	0.041	0.125
-383.975	-200.000	0.017	0.134
-382.960	121.011	-0.153	-0.188
-381.946	800.000	0.131	-0.370
-380.931	-138.509	0.345	0.037
-379.917	-200.000	-0.012	0.123
-378.902	-177.752	0.166	-0.004
-377.888	114.883	-0.174	-0.210
-376.873	-89.514	-0.140	-0.041
-375.858	-112.159	-0.336	-0.067
-374.844	-37.699	0.213	-0.112
-373.829	-157.930	-0.254	-0.015
-372.815	409.999	-0.044	-0.093
-371.800	-129.996	-0.241	-0.033
-370.785	-61.285	0.095	-0.039
-369.771	-153.192	-0.092	-0.006
-368.756	-177.741	0.140	0.003
-367.742	-200.000	0.186	0.000
-366.727	-200.000	0.011	0.106
-365.712	-22.647	0.343	-0.204
-364.698	-112.511	-0.295	-0.058
-363.683	-46.533	-0.243	-0.117
-362.669	793.891	0.059	-0.161
-361.654	-200.000	-0.006	0.186
-360.639	-23.364	-0.272	0.161
-359.625	329.873	0.043	-0.082
-358.610	42.838	0.162	0.145
-357.596	12.469	0.102	-0.077
-356.581	-17.798	-0.033	0.021
-355.566	-200.000	-0.007	-0.193
-354.552	40.977	0.148	0.132
-353.537	-142.172	-0.121	-0.012
-352.523	75.433	-0.176	-0.183
-351.508	800.000	0.050	0.216
-350.493	26.100	-0.254	0.209
-349.479	-54.164	0.554	-0.248
-348.464	800.000	-0.062	-0.204
-347.450	-139.487	0.690	-0.073
-346.435	-200.000	0.023	-0.174
-345.420	266.139	-0.114	-0.197
-344.406	492.275	-0.161	-0.363
-343.391	236.891	-0.091	0.148
-342.377	3.747	-0.141	-0.102
-341.362	-50.727	-0.181	-0.084
-340.348	-200.000	0.011	0.149
-339.333	-200.000	-0.008	0.231
-338.318	-61.664	-0.204	-0.084
-337.304	214.146	0.082	-0.128
-336.289	79.468	-0.300	0.317
-335.275	5.670	0.133	-0.097
-334.260	-77.244	-0.251	-0.086
-333.245	100.723	-0.116	-0.133
-332.231	-75.193	0.347	0.122
-331.216	-147.755	-0.133	-0.011
-330.202	-26.778	0.319	-0.184
-329.187	38.598	-0.251	0.220
-328.172	800.000	-0.038	-0.120
-327.158	-14.605	-0.226	0.143
-326.143	45.516	0.111	0.101
-325.129	800.000	0.046	0.194
-324.114	374.286	-0.095	0.191
-323.099	800.000	-0.059	-0.199
-322.085	-200.000	-0.001	-0.160
-321.070	800.000	-0.114	0.360
-320.056	105.699	-0.196	0.228
-319.041	-71.025	0.078	0.029
-318.026	800.000	0.029	0.104
-317.012	-52.406	-0.242	0.110
-315.997	-59.629	-0.360	-0.152
-314.983	-53.762	-0.175	0.079
-313.968	69.125	0.067	-0.067
-312.953	800.000	-0.035	-0.130
-311.939	-200.000	0.029	0.144
-310.924	105.272	0.049	0.056
-309.910	-78.124	-0.118	0.040
-308.895	667.644	-0.119	0.302
-307.880	326.051	0.070	0.132
-306.866	-77.484	-0.083	-0.028
-305.851	694.196	-0.145	-0.374
-304.837	-84.336	0.139	-0.043
-303.822	800.000	-0.133	0.482
-302.807	-200.000	0.021	0.204
-301.793	69.787	0.347	0.352
-300.778	-200.000	-0.037	0.260
-299.764	-24.968	0.245	-0.143
-298.749	-200.000	-0.006	-0.115
-297.735	473.612	0.104	0.230
-296.720	-11.867	0.361	-0.233
-295.705	-200.000	-0.016	-0.141
-294.691	30.451	-0.205	-0.172
-293.676	658.017	-0.058	-0.146
-292.662	-200.000	0.027	-0.130
-291.647	-118.826	-0.220	0.038
-290.632	259.800	0.066	-0.112
-289.618	211.191	-0.129	0.199
-288.603	-75.680	0.444	0.155
-287.589	-118.935	-0.223	0.038
-286.574	-180.261	-0.214	-0.004
-285.559	800.000	-0.097	-0.411
-284.545	-6.589	0.127	0.085
-283.530	7.516	0.256	-0.188
-282.516	35.327	0.235	-0.203
-281.501	-200.000	0.008	-0.038
-280.486	731.624	-0.060	-0.158
-279.472	33.742	0.081	-0.070
-278.457	86.229	0.177	-0.191
-277.443	46.074	-0.119	0.108
-276.428	151.004	0.168	-0.224
-275.413	263.948	-0.015	-0.026
-274.399	-48.376	0.201	-0.095
-273.384	416.463	-0.080	0.167
-272.370	184.892	-0.119	0.173
-271.355	250.567	0.085	-0.142
-270.340	290.197	0.121	-0.217
-269.326	104.641	-0.161	-0.186
-268.311	-59.542	0.282	-0.119
-267.297	-200.000	-0.039	-0.192
-266.282	800.000	0.044	0.147
-265.267	-49.822	-0.252	-0.118
-264.253	421.497	-0.118	0.248
-263.238	-53.586	-0.067	0.030
-262.224	159.395	-0.146	0.199
-261.209	-200.000	0.039	-0.201
-260.195	79.888	0.234	-0.247
-259.180	-131.599	-0.205	0.026
-258.165	2.680	-0.099	0.070
-257.151	250.400	-0.098	-0.163
-256.136	-74.800	0.316	-0.111
-255.122	27.583	-0.025	-0.021
-254.107	35.234	-0.110	-0.094
-253.092	83.241	0.187	-0.200
-252.078	-81.295	-0.165	-0.053
-251.063	-139.414	0.454	0.048
-250.049	25.533	-0.170	0.139
-249.034	38.198	0.224	0.196
-248.019	-28.289	0.214	-0.121
-247.005	-196.998	0.080	0.001
-245.990	800.000	-0.017	0.070
-244.976	-117.511	-0.173	0.031
-243.961	58.938	0.215	-0.208
-242.946	-53.611	0.032	-0.014
-241.932	252.885	-0.212	-0.356
-240.917	-97.527	0.340	-0.087
-239.903	-47.985	0.280	-0.133
-238.888	-50.125	0.198	0.092
-237.873	-200.000	-0.004	-0.042
-236.859	-131.315	0.223	-0.029
-235.844	551.318	-0.091	-0.215
-234.830	158.137	0.145	-0.197
-233.815	800.000	0.027	0.088
-232.800	212.051	-0.094	-0.145
-231.786	189.647	0.026	0.039
-230.771	58.050	-0.205	0.197
-229.757	800.000	-0.057	-0.244
-228.742	436.332	-0.099	-0.211
-227.727	-25.031	-0.169	-0.099
-226.713	-2.346	0.148	-0.102
-225.698	800.000	0.011	-0.031
-224.684	-88.750	-0.277	-0.081
-223.669	800.000	-0.144	0.447
-222.655	-98.732	0.183	-0.046
-221.640	800.000	0.058	0.241
-220.625	219.043	-0.069	-0.108
-219.611	-56.292	0.195	-0.085
-218.596	8.855	-0.290	0.214
-217.582	-140.151	0.182	0.019
-216.567	-200.000	0.010	-0.076
-215.552	-167.970	-0.183	0.007
-214.538	17.868	0.335	-0.261
-213.523	122.545	0.097	0.118
-212.509	-24.939	0.080	-0.046
-211.494	-138.546	0.264	-0.028
-210.479	161.698	0.169	0.231
-209.465	-200.000	0.024	0.207
-208.450	-36.978	0.356	0.187
-207.436	20.962	-0.064	0.051
-206.421	-200.000	-0.090	0.572
-205.406	800.000	-0.069	-0.293
-204.392	91.124	0.270	-0.297
-203.377	-62.340	-0.266	0.108
-202.363	38.046	0.162	0.141
-201.348	-118.529	-0.169	0.029
-200.333	-200.000	0.009	0.153
-199.319	-124.121	0.335	0.052
-198.304	21.190	-0.116	-0.092
-197.290	-12.551	0.222	-0.142
-196.275	-121.968	-0.203	-0.033
-195.260	800.000	-0.067	0.227
-194.246	210.381	0.006	0.009
-193.231	159.987	0.089	-0.122
-192.217	42.510	0.103	-0.092
-191.202	599.692	0.063	-0.153
-190.187	-0.687	-0.209	0.145
-189.173	362.801	-0.179	0.351
-188.158	-14.825	0.362	-0.227
-187.144	-104.761	-0.316	0.071
-186.129	322.684	0.040	0.075
-185.114	800.000	0.139	0.437
-184.100	32.216	-0.154	0.130
-183.085	-200.000	-0.028	0.267
-182.071	659.469	-0.076	-0.192
-181.056	-200.000	-0.006	-0.068
-180.042	782.362	-0.051	0.135
-179.027	82.595	0.144	-0.153
-178.012	-57.170	0.200	0.086
-176.998	-118.419	0.370	-0.064
-175.983	-38.093	-0.054	0.028
-174.969	-34.420	-0.320	0.172
-173.954	343.927	-0.158	0.303
-172.939	-141.147	0.127	0.013
-171.925	800.000	0.085	0.333
-170.910	184.631	-0.076	-0.110
-169.896	-117.880	0.193	-0.034
-168.881	139.967	0.120	0.155
-167.866	-56.101	-0.092	0.040
-166.852	800.000	-0.023	0.078
-165.837	-200.000	0.010	0.437
-164.823	-200.000	-0.001	0.201
-163.808	-200.000	-0.024	0.282
-162.793	113.408	-0.142	-0.169
-161.779	51.965	0.303	-0.283
-160.764	754.022	-0.061	-0.161
-159.750	-37.854	0.068	0.035
-158.735	599.020	0.029	0.071
-157.720	-10.829	0.244	-0.158
-156.706	327.180	-0.086	0.161
-155.691	800.000	0.087	0.243
-154.677	-84.541	-0.293	-0.090
-153.662	93.691	-0.129	0.143
-152.647	-33.427	0.068	0.037
-151.633	100.718	0.089	-0.102
-150.618	-200.000	0.020	-0.140
-149.604	-78.763	-0.319	-0.107
-148.589	-41.414	-0.145	-0.073
-147.574	-164.651	-0.233	0.010
-146.560	32.650	0.246	-0.208
-145.545	800.000	0.112	0.314
-144.531	51.879	-0.217	0.202
-143.516	800.000	0.028	-0.077
-142.502	-18.530	0.093	-0.057
-141.487	-38.140	0.090	0.047
-140.472	790.592	0.164	0.440
-139.458	443.734	0.079	0.170
-138.443	-14.365	0.151	-0.095
-137.429	-200.000	-0.073	-0.321
-136.414	-94.895	0.181	-0.048
-135.399	229.860	-0.109	0.173
-134.385	589.030	-0.081	0.195
-133.370	-24.171	-0.100	-0.058
-132.356	-200.000	0.016	-0.234
-131.341	-200.000	0.007	-0.183
-130.326	71.882	0.177	-0.180
-129.312	-8.843	0.215	-0.141
-128.297	-200.000	-0.046	0.236
-127.283	81.348	-0.246	0.260
-126.268	134.763	0.066	0.084
-125.253	-200.000	-0.065	0.287
-124.239	-200.000	-0.015	-0.148
-123.224	-200.000	0.003	0.084
-122.210	228.076	-0.031	-0.050
-121.195	-200.000	0.026	-0.248
-120.180	-163.935	-0.239	0.011
-119.166	107.870	0.109	-0.127
-118.151	-200.000	0.040	-0.259
-117.137	-26.163	0.161	0.092
-116.122	-200.000	-0.007	0.371
-115.107	-200.000	-0.028	0.243
-114.093	97.214	0.081	0.091
-113.078	-125.547	0.145	0.022
-112.064	147.673	0.191	-0.252
-111.049	-43.093	0.370	0.183
-110.034	-59.225	0.180	-0.076
-109.020	214.052	-0.090	0.139
-108.005	0.856	0.274	0.191
-106.991	-149.690	-0.367	0.028
-105.976	199.427	0.217	-0.325
-104.962	281.952	0.123	0.215
-103.947	-103.920	-0.192	-0.044
-102.932	-186.363	0.131	0.002
-101.918	249.350	-0.088	0.146
-100.903	136.730	-0.215	0.275
-99.889	-104.619	-0.276	0.062
-98.874	-200.000	0.009	-0.233
-97.859	215.664	0.329	-0.510
-96.845	-93.505	0.072	-0.020
-95.830	10.913	-0.168	0.125
-94.816	-84.304	-0.062	0.019
-93.801	-72.320	0.176	-0.064
-92.786	-56.087	0.165	-0.072
-91.772	4.709	0.423	-0.303
-90.757	-200.000	-0.003	-0.152
-89.743	800.000	-0.069	-0.242
-88.728	-172.772	0.076	-0.002
-87.713	-57.637	0.227	-0.097
-86.699	-66.456	0.009	-0.003
-85.684	-110.766	0.176	-0.035
-84.670	91.646	0.169	-0.186
-83.655	69.115	-0.252	0.253
-82.640	147.276	0.314	-0.412
-81.626	189.532	0.075	-0.110
-80.611	-126.372	0.123	0.018
-79.597	-97.141	-0.191	-0.049
-78.582	254.300	0.059	-0.099
-77.567	11.554	-0.153	-0.114
-76.553	362.751	0.071	0.139
-75.538	-109.032	0.180	0.037
-74.524	121.178	-0.189	-0.229
-73.509	8.344	-0.211	0.154
-72.494	800.000	0.049	-0.164
-71.480	-98.602	-0.377	0.094
-70.465	108.532	0.182	0.212
-69.451	31.145	0.159	-0.133
-68.436	-80.309	0.129	-0.042
-67.422	-200.000	-0.401	-0.001
-66.407	-24.457	0.438	0.254
-65.392	-117.771	-0.414	0.073
-64.378	65.157	-0.220	-0.217
-63.363	6.747	0.336	-0.244
-62.349	143.631	-0.048	-0.063
-61.334	-12.302	-1.157	-0.737
-60.319	33.134	0.884	0.747
-59.305	346.801	-0.675	-1.294
-58.290	708.402	0.571	1.470
-57.276	800.000	0.512	1.400
-56.261	-200.000	117.865	619.853
-55.246	425.136	1521.493	3191.332
-54.232	149.582	2676.193	3532.085
-53.217	98.002	2150.552	2411.011
-52.203	36.375	1675.157	1439.068
-51.188	29.485	1491.237	1235.109
-50.173	27.302	1466.375	1200.083
-49.159	48.700	1531.429	1398.731
-48.144	47.269	1545.671	1401.990
-47.130	29.441	1497.896	1240.129
-46.115	26.516	1482.449	1207.801
-45.100	26.352	1478.753	1203.654
-44.086	26.350	1476.831	1202.028
-43.071	26.306	1475.115	1200.286
-42.057	26.252	1473.955	1198.936
-41.042	26.261	1472.062	1197.412
-40.027	26.308	1470.617	1196.502
-39.013	26.294	1468.858	1194.926
-37.998	26.216	1467.931	1193.609
-36.984	26.235	1466.942	1192.883
-35.969	26.320	1465.662	1192.359
-34.954	26.309	1464.072	1190.945
-33.940	26.215	1462.820	1189.259
-32.925	26.316	1461.581	1188.872
-31.911	26.310	1460.514	1187.913
-30.896	26.393	1458.937	1187.130
-29.881	26.495	1457.656	1186.709
-28.867	26.343	1456.615	1184.819
-27.852	26.310	1455.228	1183.430
-26.838	26.360	1453.704	1182.467
-25.823	26.382	1452.430	1181.526
-24.809	26.355	1450.554	1179.779
-23.794	26.385	1449.234	1178.857
-22.779	26.272	1448.797	1177.716
-21.765	26.326	1446.831	1176.422
-20.750	26.357	1445.764	1175.709
-19.736	26.387	1444.972	1175.216
-18.721	26.381	1443.793	1174.169
-17.706	26.341	1443.191	1173.373
-16.692	26.341	1441.708	1172.122
-15.677	26.337	1440.930	1171.420
-14.663	26.278	1440.152	1170.354
-13.648	26.259	1439.352	1169.537
-12.633	26.312	1438.319	1168.992
-11.619	26.358	1437.204	1168.340
-10.604	26.452	1436.262	1168.130
-9.590	26.263	1436.062	1166.701
-8.575	26.377	1434.585	1166.191
-7.560	26.349	1434.215	1165.663
-6.546	26.362	1432.916	1164.647
-5.531	26.396	1431.835	1163.942
-4.517	26.311	1431.132	1162.775
-3.502	26.284	1430.117	1161.729
-2.487	26.350	1429.112	1161.291
-1.473	26.295	1428.273	1160.212
-0.458	26.215	1426.698	1158.376
0.556	25.438	1416.553	1145.787
1.571	21.555	1391.211	1100.821
2.586	17.218	1328.966	1025.355
3.600	15.116	1247.291	950.338
4.615	13.957	1203.719	910.709
5.629	12.316	1149.601	861.091
6.644	6.677	1070.375	774.082
7.659	1.857	1034.393	725.102
8.673	1.159	1029.166	718.069
9.688	1.105	1025.717	715.345
10.702	1.125	1024.651	714.634
11.717	1.031	1022.666	712.742
12.731	2.920	1023.493	722.143
13.746	9.063	1031.885	757.047
14.761	15.468	1039.173	792.662
15.775	17.598	1041.701	804.593
16.790	17.404	1040.520	802.693
17.804	16.436	1038.333	796.375
18.819	15.561	1036.619	790.871
19.834	15.127	1035.006	787.531
20.848	14.823	1034.550	785.683
21.863	14.681	1033.563	784.200
22.877	14.243	1032.616	781.357
23.892	14.116	1031.529	779.870
24.907	14.087	1030.780	779.096
25.921	14.138	1030.224	778.849
26.936	14.011	1029.869	777.916
27.950	14.060	1029.070	777.470
28.965	14.117	1027.949	776.824
29.980	14.219	1027.058	776.555
30.994	14.243	1026.280	776.012
32.009	14.328	1025.516	775.763
33.023	14.397	1024.736	775.424
34.038	14.302	1024.486	774.722
35.053	14.224	1023.893	773.844
36.067	14.102	1022.724	772.326
37.082	14.170	1021.868	771.926
38.096	14.200	1021.176	771.474
39.111	14.267	1020.333	771.080
40.126	14.328	1019.086	770.349
41.140	14.117	1018.475	768.846
42.155	14.253	1017.073	768.348
43.169	14.063	1016.676	767.101
44.184	14.102	1015.111	766.034
45.199	14.053	1014.738	765.460
46.213	14.018	1013.971	764.651
47.228	14.121	1012.491	763.939
48.242	14.078	1011.821	763.170
49.257	14.156	1010.632	762.564
50.271	14.142	1009.904	761.885
51.286	14.270	1008.498	761.339
52.301	14.268	1007.929	760.835
53.315	14.212	1007.846	760.450
54.330	14.167	1006.605	759.238
55.344	14.127	1005.579	758.214
56.359	14.073	1004.829	757.339
57.374	14.115	1003.719	756.626
58.388	14.145	1002.960	756.120
59.403	14.079	1002.408	755.341
60.417	14.143	1001.161	754.621
61.432	14.184	1000.261	754.063
62.447	14.164	999.868	753.608
63.461	14.086	999.104	752.615
64.476	13.894	998.611	751.308
65.490	13.996	997.524	750.884
66.505	14.069	996.462	750.346
67.520	14.176	995.739	750.221
68.534	14.026	995.510	749.305
69.549	14.106	994.196	748.610
70.563	14.153	993.650	748.344
71.578	14.152	992.956	747.750
72.593	14.077	992.210	746.783
73.607	14.037	991.205	745.781
74.622	14.094	990.176	745.199
75.636	13.984	989.469	744.109
76.651	14.018	988.655	743.580
77.666	13.934	988.006	742.653
78.680	13.972	987.125	742.096
79.695	13.997	986.870	741.950
80.709	14.011	986.038	741.322
81.724	14.043	985.068	740.667
82.739	14.166	984.646	740.832
83.753	14.070	983.923	739.795
84.768	14.120	982.942	739.215
85.782	14.211	982.059	738.892
86.797	14.288	981.183	738.507
87.812	14.201	980.443	737.500
88.826	14.194	979.852	736.959
89.841	14.221	978.938	736.327
90.855	14.251	977.909	735.617
91.870	14.191	977.559	735.026
92.884	14.315	976.474	734.690
93.899	14.274	976.332	734.338
94.914	14.289	975.143	733.444
95.928	14.325	974.373	732.960
96.943	14.209	974.267	732.303
97.957	14.325	973.256	731.990
98.972	14.243	972.546	731.031
99.987	14.366	971.680	730.853
101.001	14.369	971.210	730.449
102.016	14.372	970.032	729.511
103.030	14.354	968.916	728.529
104.045	14.268	968.282	727.613
105.060	14.413	966.874	727.123
106.074	14.299	966.431	726.230
107.089	14.320	965.763	725.753
108.103	14.234	964.724	724.536
109.118	14.195	964.010	723.767
110.133	14.265	963.102	723.323
111.147	14.133	961.955	721.824
112.162	14.244	961.444	721.860
113.176	14.189	960.253	720.664
114.191	14.180	960.040	720.399
115.206	14.228	959.033	719.790
116.220	14.171	958.478	719.063
117.235	14.187	957.509	718.338
118.249	14.227	956.587	717.759
119.264	14.257	955.584	717.070
120.279	14.237	954.995	716.481
121.293	14.166	954.223	715.533
122.308	14.187	953.216	714.805
123.322	14.161	952.490	714.083
124.337	14.313	951.239	713.734
125.352	14.192	950.385	712.511
126.366	14.250	949.470	712.011
127.381	14.199	948.065	710.676
128.395	14.196	947.266	710.003
129.410	14.171	946.271	709.088
130.424	14.268	944.670	708.240
131.439	14.188	944.451	707.672
132.454	14.146	944.113	707.175
133.468	14.330	942.873	706.965
134.483	14.211	942.672	706.249
135.497	14.279	941.465	705.569
136.512	14.237	940.954	704.945
137.527	14.267	940.224	704.465
138.541	14.320	939.586	704.149
139.556	14.250	938.986	703.338
140.570	14.211	938.198	702.524
141.585	14.289	937.237	702.071
142.600	14.297	936.820	701.730
143.614	14.381	935.790	701.249
144.629	14.392	934.893	700.563
145.643	14.400	934.274	700.068
146.658	14.423	933.568	699.575
147.673	14.309	932.805	698.464
148.687	14.435	931.414	697.885
149.702	14.373	930.601	696.958
150.716	14.429	929.890	696.594
151.731	14.431	929.195	696.021
152.746	14.360	928.308	694.999
153.760	14.358	927.949	694.661
154.775	14.447	927.014	694.271
155.789	14.561	926.288	694.140
156.804	14.439	925.539	693.010
157.819	14.453	924.881	692.516
158.833	14.503	924.160	692.119
159.848	14.554	923.087	691.468
160.862	14.523	923.015	691.222
161.877	14.647	922.191	691.060
162.892	14.440	921.224	689.418
163.906	14.397	920.629	688.733
164.921	14.374	919.985	688.098
165.935	14.478	918.538	687.383
166.950	14.556	917.662	686.985
167.964	14.608	916.613	686.355
168.979	14.607	915.977	685.813
169.994	14.482	914.845	684.390
171.008	14.343	914.688	683.642
172.023	14.586	913.498	683.687
173.037	14.567	913.199	683.326
174.052	14.729	912.045	683.067
175.067	14.502	911.458	681.639
176.081	14.665	910.498	681.527
177.096	14.697	909.761	681.044
178.110	14.563	909.189	680.011
179.125	14.538	908.566	679.379
180.140	14.665	907.707	679.196
181.154	14.687	906.741	678.501
182.169	14.593	906.797	678.100
183.183	14.738	906.084	678.095
184.198	14.750	904.809	677.131
185.213	14.760	904.375	676.787
186.227	14.735	903.879	676.257
187.242	14.850	903.722	676.543
188.256	14.769	902.810	675.475
189.271	14.908	901.433	674.943
190.286	14.852	901.339	674.587
191.300	14.795	900.778	673.877
192.315	14.641	899.951	672.581
193.329	14.625	899.427	672.065
194.344	14.680	898.610	671.615
195.359	14.576	898.616	671.143
196.373	14.679	897.620	670.753
197.388	14.896	897.152	671.215
198.402	14.820	896.545	670.397
199.417	15.042	895.890	670.738
200.432	15.040	895.571	670.432
201.446	15.050	895.037	670.012
202.461	15.043	894.613	669.609
203.475	15.161	894.099	669.634
204.490	15.205	893.443	669.262
205.504	15.028	893.032	668.188
206.519	15.013	891.989	667.287
207.534	15.052	891.614	667.102
208.548	15.028	890.290	665.960
209.563	15.064	889.797	665.675
210.577	15.189	889.081	665.575
211.592	15.018	888.995	664.772
212.607	15.017	888.127	664.061
213.621	15.178	887.645	664.279
214.636	15.160	886.917	663.605
215.650	15.202	886.246	663.211
216.665	15.171	885.882	662.756
217.680	15.324	885.196	662.790
218.694	15.251	884.808	662.153
219.709	15.339	884.482	662.196
220.723	15.316	883.442	661.270
221.738	15.313	882.746	660.680
222.753	15.336	881.797	660.002
223.767	15.203	881.490	659.188
224.782	15.373	880.294	658.903
225.796	15.384	879.872	658.572
226.811	15.540	879.215	658.634
227.826	15.343	878.748	657.456
228.840	15.293	877.915	656.576
229.855	15.456	877.537	656.875
230.869	15.442	876.869	656.263
231.884	15.283	876.264	655.130
232.899	15.381	875.574	654.938
233.913	15.475	874.806	654.672
234.928	15.421	874.201	653.950
235.942	15.289	873.571	652.908
236.957	15.220	873.034	652.181
237.972	15.525	871.860	652.430
238.986	15.392	871.235	651.391
240.001	15.462	870.770	651.254
241.015	15.413	870.246	650.615
242.030	15.557	869.414	650.495
243.045	15.489	869.178	649.998
244.059	15.532	868.936	649.926
245.074	15.627	867.659	649.279
246.088	15.599	867.292	648.841
247.103	15.723	866.477	648.648
248.117	15.527	866.200	647.629
249.132	15.668	865.637	647.695
250.147	15.655	865.020	647.126
251.161	15.819	864.096	647.009
252.176	15.623	864.024	646.143
253.190	15.802	862.802	645.860
254.205	15.871	862.270	645.669
255.220	15.969	861.849	645.671
256.234	15.979	860.900	644.943
257.249	15.935	860.593	644.487
258.263	15.848	860.310	643.884
259.278	15.936	859.382	643.470
260.293	15.974	859.004	643.274
261.307	15.902	858.841	642.823
262.322	15.993	857.765	642.305
263.336	16.079	857.434	642.328
264.351	15.999	856.745	641.452
265.366	16.181	855.813	641.389
266.380	16.255	855.571	641.432
267.395	16.036	854.834	639.991
268.409	16.181	853.923	639.804
269.424	16.063	853.400	638.908
270.439	16.039	852.723	638.251
271.453	16.134	851.957	637.980
272.468	16.216	851.200	637.668
273.482	16.230	851.076	637.574
274.497	16.209	850.036	636.656
275.512	16.171	849.331	635.930
276.526	16.192	848.673	635.458
277.541	16.145	848.164	634.845
278.555	16.261	847.350	634.615
279.570	16.123	847.308	634.010
280.585	16.233	846.604	633.840
281.599	16.339	846.073	633.784
282.614	16.324	845.598	633.317
283.628	16.315	844.884	632.692
284.643	16.260	844.469	632.119
285.657	16.299	844.024	631.876
286.672	16.273	843.695	631.476
287.687	16.337	842.756	630.957
288.701	16.350	842.285	630.597
289.716	16.386	841.996	630.458
290.730	16.446	841.048	629.915
291.745	16.462	840.524	629.529
292.760	16.511	839.668	629.014
293.774	16.515	839.170	628.598
294.789	16.555	838.694	628.337
295.803	16.454	838.560	627.806
296.818	16.498	837.363	627.017
297.833	16.627	836.857	627.060
298.847	16.534	836.214	626.180
299.862	16.539	835.220	625.398
300.876	16.615	834.504	625.087
301.891	16.466	834.566	624.528
302.906	16.638	833.462	624.279
303.920	16.551	833.251	623.748
304.935	16.707	832.157	623.446
305.949	16.634	831.772	622.835
306.964	16.690	830.897	622.332
307.979	16.816	830.343	622.324
308.993	16.894	829.969	622.275
310.008	16.740	829.781	621.514
311.022	16.823	829.383	621.463
312.037	16.811	828.638	620.806
313.052	16.693	828.441	620.174
314.066	16.762	827.370	619.568
315.081	16.736	826.832	619.013
316.095	16.695	826.645	618.672
317.110	16.905	825.767	618.724
318.125	16.852	825.063	617.951
319.139	16.761	824.953	617.481
320.154	16.797	824.544	617.252
321.168	16.852	823.711	616.772
322.183	16.810	822.983	616.022
323.197	16.933	822.666	616.176
324.212	16.942	822.028	615.677
325.227	16.878	821.348	614.882
326.241	16.993	821.126	615.076
327.256	16.945	820.467	614.354
328.270	16.908	820.332	614.064
329.285	16.846	819.600	613.239
330.300	16.972	818.733	612.992
331.314	17.078	818.241	612.952
332.329	16.951	817.944	612.218
333.343	17.079	817.147	612.026
334.358	17.050	816.635	611.486
335.373	17.131	816.081	611.306
336.387	17.089	815.847	610.928
337.402	17.207	814.831	610.536
338.416	17.073	814.608	609.835
339.431	17.121	814.292	609.715
340.446	17.141	813.359	609.036
341.460	17.160	813.132	608.878
342.475	17.495	812.148	609.288
343.489	17.174	811.613	607.685
344.504	17.247	811.353	607.697
345.519	17.295	810.773	607.380
346.533	17.315	810.232	606.993
347.548	17.348	809.925	606.827
348.562	17.370	809.434	606.483
349.577	17.404	808.744	606.035
350.592	17.403	808.143	605.525
351.606	17.255	808.010	604.846
352.621	17.234	807.434	604.287
353.635	17.317	806.898	604.128
354.650	17.357	806.738	604.097
355.665	17.435	806.008	603.773
356.679	17.396	805.554	603.242
357.694	17.483	805.164	603.204
358.708	17.427	804.412	602.389
359.723	17.531	803.677	602.154
360.738	17.286	803.437	601.054
361.752	17.500	803.107	601.511
362.767	17.434	802.858	601.037
363.781	17.615	802.039	601.010
364.796	17.497	801.699	600.286
365.810	17.632	801.379	600.468
366.825	17.603	800.841	599.910
367.840	17.647	800.525	599.775
368.854	17.606	800.358	599.454
369.869	17.745	799.724	599.413
370.883	17.794	799.175	599.120
371.898	17.796	798.385	598.481
372.913	17.764	798.015	598.040
373.927	17.822	797.593	597.875
374.942	17.755	796.839	597.021
375.956	17.810	796.182	596.669
376.971	17.822	795.573	596.200
377.986	17.829	795.105	595.823
379.000	17.937	794.573	595.747
380.015	18.052	793.973	595.645
381.029	17.950	793.675	595.014
382.044	17.965	793.291	594.727
383.059	17.933	792.688	594.110
384.073	17.936	792.312	593.785
385.088	17.979	791.705	593.427
386.102	17.893	791.329	592.795
387.117	17.970	790.535	592.415
388.132	17.916	789.947	591.735
389.146	17.822	789.984	591.383
390.161	18.023	789.563	591.714
391.175	18.007	788.987	591.174
392.190	18.114	788.625	591.221
393.205	17.977	788.641	590.708
394.219	18.108	787.890	590.545
395.234	17.920	787.348	589.435
396.248	18.056	786.759	589.412
397.263	17.999	786.207	588.749
398.278	18.050	785.687	588.486
399.292	17.934	785.927	588.214
400.307	18.027	785.119	587.876
401.321	18.020	784.657	587.453
402.336	18.124	784.030	587.291
403.350	18.079	784.093	587.131
404.365	18.067	783.703	586.745
405.380	18.265	782.642	586.577
406.394	18.276	782.508	586.462
407.409	18.128	782.458	585.866
408.423	18.193	781.956	585.660
409.438	18.293	780.846	585.121
410.453	18.397	780.535	585.192
411.467	18.353	780.137	584.689
412.482	18.366	779.669	584.332
413.496	18.548	779.020	584.413
414.511	18.489	778.646	583.881
415.526	18.427	778.855	583.775
416.540	18.455	778.500	583.552
417.555	18.350	778.314	583.005
418.569	18.468	777.056	582.411
419.584	18.557	776.941	582.575
420.599	18.475	776.427	581.861
421.613	115.960	1294.013	1485.107
422.628	99.458	1369.406	1485.196
