DTS Sentinel unit serial number:	SN413079Multiplexer serial number:	ORYXHardware model number:	OX4-SRSoftware version number:	ORYX F/W v4.00 Oryx Data Collector v3.7.2.0data status	okinstallation	princeton_trtdifferential loss correction	single-endedforward channel	channel 3reverse channel	N/Adate	2019/09/15time	01:40:35forward acquisition time	60.00reverse acquisition time	0.00gamma	496.2192k internal	0.2321k external	0.2321temperature offset calibration	0.9965default loss term (dB/km)	0.3790temperature slope calibration	1.0000multiplexer offset coefficient	1.0000multiplexer slope coefficient	1.0000fibre end	0.00T internal ref (°C)	31.81T ext. ref 1 (°C)	4.51T ext. ref 2 (°C)	26.74length (m)	temperature (°C)	Stokes	anti-Stokes-747.200	-37.605	0.037	-0.020
-746.185	-138.031	-0.152	-0.017
-745.171	-53.022	0.051	-0.024
-744.156	-76.558	-0.135	-0.048
-743.142	-161.551	0.081	-0.004
-742.127	800.000	-0.121	0.401
-741.112	-143.643	-0.391	-0.038
-740.098	-185.124	-0.357	0.006
-739.083	-54.543	0.133	-0.061
-738.069	800.000	-0.072	0.242
-737.054	417.788	-0.234	0.506
-736.039	800.000	0.042	-0.165
-735.025	-51.662	0.101	0.048
-734.010	-161.635	-0.332	0.017
-732.996	-115.220	-0.237	-0.045
-731.981	-200.000	0.055	-0.422
-730.966	-92.883	-0.175	-0.049
-729.952	83.714	-0.115	-0.127
-728.937	800.000	-0.218	0.728
-727.923	-53.479	-0.207	-0.096
-726.908	12.820	-0.146	0.114
-725.894	-15.008	0.112	-0.072
-724.879	-145.142	-0.173	0.016
-723.864	84.783	0.183	-0.202
-722.850	-200.000	0.052	0.241
-721.835	800.000	-0.052	-0.181
-720.821	61.488	-0.170	-0.171
-719.806	-33.018	-0.214	-0.120
-718.791	-152.412	-0.249	0.018
-717.777	-153.814	0.064	0.004
-716.762	-200.000	-0.024	-0.172
-715.748	-79.097	-0.198	0.068
-714.733	491.192	0.092	-0.213
-713.718	104.322	-0.273	-0.325
-712.704	9.184	-0.441	-0.336
-711.689	4.036	0.151	-0.112
-710.675	-118.408	-0.142	0.025
-709.660	-29.224	0.125	0.072
-708.645	800.000	-0.024	-0.101
-707.631	126.777	0.196	-0.251
-706.616	-136.250	-0.420	0.049
-705.602	-200.000	-0.053	0.298
-704.587	151.937	0.125	-0.172
-703.572	220.295	0.095	0.154
-702.558	209.360	0.034	-0.053
-701.543	-143.377	-0.229	-0.022
-700.529	-200.000	-0.070	-0.328
-699.514	87.501	0.042	0.047
-698.499	-105.490	-0.111	-0.025
-697.485	-200.000	-0.041	-0.234
-696.470	-200.000	-0.007	-0.064
-695.456	-200.000	-0.043	-0.228
-694.441	800.000	0.070	0.235
-693.426	400.189	0.068	0.145
-692.412	70.088	0.113	-0.117
-691.397	-200.000	0.069	-0.342
-690.383	428.437	0.195	-0.424
-689.368	244.676	0.135	-0.229
-688.354	227.446	-0.123	-0.201
-687.339	-98.047	-0.209	-0.054
-686.324	-200.000	0.001	0.084
-685.310	79.880	0.109	-0.118
-684.295	-150.753	-0.179	0.014
-683.281	-22.730	-0.058	-0.036
-682.266	76.884	0.019	0.020
-681.251	-189.025	-0.527	-0.006
-680.237	27.524	-0.218	-0.185
-679.222	39.928	0.307	0.278
-678.208	-200.000	-0.019	0.122
-677.193	40.151	-0.092	-0.083
-676.178	66.179	0.272	0.278
-675.164	28.321	-0.101	0.086
-674.149	800.000	-0.052	-0.147
-673.135	16.253	-0.023	0.018
-672.120	155.676	0.125	-0.174
-671.105	3.631	-0.335	-0.246
-670.091	125.016	-0.073	0.093
-669.076	-200.000	0.005	0.161
-668.062	238.852	-0.033	-0.056
-667.047	-7.962	0.130	-0.088
-666.032	-119.867	0.039	-0.007
-665.018	-72.142	-0.193	0.072
-664.003	800.000	-0.038	-0.151
-662.989	-88.864	-0.105	0.031
-661.974	-47.188	-0.214	-0.105
-660.959	-39.069	-0.094	-0.050
-659.945	-194.631	-0.265	-0.002
-658.930	113.383	0.303	-0.371
-657.916	-48.233	-0.525	-0.255
-656.901	-48.000	-0.104	-0.051
-655.886	-200.000	-0.039	0.354
-654.872	130.191	0.045	-0.058
-653.857	-125.989	-0.165	0.025
-652.843	-54.510	-0.162	-0.074
-651.828	-42.456	0.130	0.067
-650.814	-110.606	0.277	-0.058
-649.799	-148.324	-0.061	-0.005
-648.784	153.190	-0.073	-0.101
-647.770	800.000	-0.076	-0.261
-646.755	-129.902	0.140	0.019
-645.741	-33.017	0.198	-0.111
-644.726	-87.428	-0.099	-0.030
-643.711	146.643	0.199	-0.269
-642.697	8.959	0.413	-0.314
-641.682	-87.677	-0.049	-0.015
-640.668	-200.000	-0.009	0.143
-639.653	800.000	0.057	-0.253
-638.638	495.093	-0.117	-0.271
-637.624	-142.119	-0.293	-0.029
-636.609	-85.780	0.472	-0.147
-635.595	-135.908	-0.477	0.057
-634.580	-46.033	-0.133	-0.066
-633.565	462.639	-0.094	-0.212
-632.551	-105.090	-0.251	-0.058
-631.536	-200.000	0.028	0.415
-630.522	3.841	0.159	0.117
-629.507	425.905	-0.133	0.288
-628.492	71.911	-0.194	-0.203
-627.478	185.515	0.133	-0.198
-626.463	800.000	-0.029	0.123
-625.449	800.000	0.031	-0.098
-624.434	-130.769	-0.087	-0.012
-623.419	800.000	-0.057	0.217
-622.405	-40.170	-0.087	-0.046
-621.390	-158.229	-0.227	0.013
-620.376	-200.000	-0.026	-0.159
-619.361	-200.000	0.059	0.332
-618.346	91.212	-0.103	-0.117
-617.332	599.889	-0.006	0.014
-616.317	49.785	0.182	-0.172
-615.303	47.011	-0.250	-0.234
-614.288	158.223	0.108	-0.151
-613.273	-124.246	0.208	-0.033
-612.259	-185.507	-0.359	-0.005
-611.244	56.364	0.210	0.205
-610.230	147.089	-0.183	-0.247
-609.215	-121.263	0.243	-0.041
-608.201	-200.000	0.047	0.283
-607.186	142.792	0.076	-0.102
-606.171	-200.000	-0.011	-0.169
-605.157	14.206	-0.167	-0.131
-604.142	305.978	0.089	0.166
-603.128	22.328	-0.117	-0.096
-602.113	-158.801	-0.279	0.016
-601.098	85.036	-0.189	-0.208
-600.084	85.710	-0.222	-0.245
-599.069	-152.034	0.110	-0.008
-598.055	147.017	-0.156	0.211
-597.040	47.924	0.177	0.166
-596.025	-101.316	-0.190	0.047
-595.011	114.921	-0.146	0.178
-593.996	-117.294	0.292	0.053
-592.982	-17.646	-0.447	0.282
-591.967	-200.000	0.065	0.378
-590.952	-177.543	-0.165	-0.004
-589.938	-121.382	0.118	-0.020
-588.923	-160.673	-0.250	-0.013
-587.909	800.000	-0.073	-0.254
-586.894	-81.950	-0.361	-0.119
-585.879	-102.397	-0.259	-0.062
-584.865	491.694	0.086	-0.198
-583.850	-145.918	0.070	0.006
-582.836	173.458	-0.085	0.124
-581.821	-100.288	0.065	0.016
-580.806	-12.667	0.152	-0.099
-579.792	-116.612	-0.051	-0.009
-578.777	-125.350	-0.199	-0.030
-577.763	273.537	-0.068	-0.121
-576.748	-119.082	-0.451	-0.079
-575.733	-200.000	-0.059	-0.341
-574.719	-39.423	0.304	0.160
-573.704	652.703	0.089	0.230
-572.690	102.134	0.073	-0.086
-571.675	-174.328	0.184	0.005
-570.661	-58.622	0.220	-0.096
-569.646	536.363	0.050	0.120
-568.631	-131.428	-0.298	0.040
-567.617	-27.790	0.437	-0.255
-566.602	42.674	0.236	0.216
-565.588	-111.099	0.187	-0.038
-564.573	-51.277	0.067	-0.032
-563.558	-37.091	-0.307	0.165
-562.544	375.792	0.117	0.239
-561.529	800.000	-0.011	0.044
-560.515	72.708	0.094	0.098
-559.500	800.000	-0.120	0.367
-558.485	193.701	-0.086	0.131
-557.471	392.383	-0.113	0.236
-556.456	-28.144	0.137	0.079
-555.442	-2.075	-0.060	0.043
-554.427	800.000	0.084	0.238
-553.412	47.766	-0.133	-0.125
-552.398	61.058	0.058	-0.058
-551.383	-39.954	0.238	-0.124
-550.369	-108.685	-0.188	-0.041
-549.354	-24.281	0.252	0.151
-548.339	-200.000	-0.007	0.213
-547.325	207.705	0.087	-0.136
-546.310	344.074	-0.081	-0.160
-545.296	-17.019	-0.319	-0.202
-544.281	800.000	-0.094	-0.269
-543.266	80.408	0.225	-0.243
-542.252	144.864	-0.139	0.187
-541.237	800.000	-0.030	-0.112
-540.223	-20.440	0.215	-0.132
-539.208	-35.684	0.160	-0.087
-538.193	190.597	0.138	-0.209
-537.179	247.784	-0.135	-0.229
-536.164	484.580	0.137	-0.314
-535.150	800.000	0.005	0.014
-534.135	211.931	0.127	0.201
-533.121	-200.000	0.029	0.169
-532.106	30.221	-0.157	0.134
-531.091	-200.000	-0.006	0.129
-530.077	73.086	0.122	-0.128
-529.062	-200.000	-0.358	0.001
-528.048	18.309	0.095	-0.076
-527.033	-2.259	-0.236	0.166
-526.018	800.000	0.010	-0.042
-525.004	85.098	-0.153	-0.168
-523.989	145.087	0.167	-0.223
-522.975	-9.731	-0.162	0.108
-521.960	-200.000	-0.037	-0.190
-520.945	800.000	0.057	0.230
-519.931	-168.868	0.178	-0.007
-518.916	-34.198	-0.122	-0.067
-517.902	-40.483	0.303	-0.157
-516.887	263.680	0.124	0.216
-515.872	5.611	-0.070	-0.052
-514.858	27.421	-0.182	0.153
-513.843	-200.000	-0.065	0.413
-512.829	-66.579	0.176	0.070
-511.814	-4.486	0.121	0.084
-510.799	84.562	-0.231	-0.253
-509.785	99.408	-0.074	0.085
-508.770	-114.897	-0.387	0.074
-507.756	-101.735	-0.214	0.052
-506.741	-200.000	0.023	0.457
-505.726	-200.000	0.013	-0.124
-504.712	-200.000	0.050	0.257
-503.697	-170.276	-0.199	-0.007
-502.683	205.219	0.168	0.261
-501.668	-98.966	0.504	0.128
-500.653	37.733	-0.121	0.107
-499.639	504.637	-0.104	0.242
-498.624	258.090	0.047	0.081
-497.610	-6.382	-0.075	-0.051
-496.595	197.665	0.155	0.237
-495.581	-97.699	-0.183	-0.047
-494.566	-124.574	0.353	0.055
-493.551	-80.117	-0.448	0.150
-492.537	30.322	0.099	0.085
-491.522	172.791	0.087	-0.126
-490.508	-169.334	-0.383	-0.014
-489.493	-75.257	-0.389	0.139
-488.478	800.000	0.052	-0.176
-487.464	123.769	-0.050	-0.063
-486.449	187.094	-0.100	-0.149
-485.435	424.402	0.146	-0.315
-484.420	-200.000	-0.026	0.474
-483.405	130.855	0.144	0.185
-482.391	410.672	-0.082	0.175
-481.376	140.961	0.215	-0.284
-480.362	800.000	-0.090	-0.257
-479.347	800.000	-0.045	0.175
-478.332	-200.000	0.045	-0.379
-477.318	27.946	0.413	-0.349
-476.303	-117.674	0.198	0.036
-475.289	52.291	0.158	0.151
-474.274	-200.000	-0.045	-0.197
-473.259	800.000	-0.021	-0.081
-472.245	771.182	0.028	0.076
-471.230	-49.012	0.173	-0.083
-470.216	612.754	0.077	-0.193
-469.201	800.000	0.065	-0.285
-468.186	-200.000	-0.003	0.333
-467.172	-200.000	-0.027	0.147
-466.157	227.421	-0.220	-0.358
-465.143	-200.000	-0.015	-0.242
-464.128	-198.544	-0.444	0.003
-463.113	-200.000	0.004	0.222
-462.099	149.338	-0.167	-0.226
-461.084	-54.564	-0.145	-0.065
-460.070	-200.000	-0.063	0.319
-459.055	-200.000	-0.011	0.292
-458.040	-125.509	0.466	0.071
-457.026	800.000	-0.050	0.180
-456.011	349.831	-0.077	-0.152
-454.997	-200.000	-0.022	-0.134
-453.982	-73.380	-0.224	0.082
-452.968	-89.938	0.403	0.118
-451.953	447.889	0.097	-0.212
-450.938	114.314	0.128	-0.155
-449.924	-85.209	0.078	0.024
-448.909	-200.000	0.048	0.415
-447.895	-200.000	-0.015	-0.359
-446.880	188.415	0.136	-0.203
-445.865	800.000	0.062	-0.209
-444.851	-0.615	-0.142	-0.100
-443.836	72.477	0.122	0.127
-442.822	-63.433	0.083	0.034
-441.807	-122.615	-0.045	0.007
-440.792	800.000	0.064	-0.179
-439.778	-200.000	-0.003	-0.081
-438.763	164.947	-0.096	-0.135
-437.749	-154.197	0.132	0.009
-436.734	-41.291	-0.027	0.014
-435.719	229.422	0.120	0.196
-434.705	-15.756	-0.040	-0.026
-433.690	-59.738	0.187	0.080
-432.676	800.000	-0.092	-0.281
-431.661	-153.126	0.125	-0.009
-430.646	-30.346	0.200	0.113
-429.632	800.000	-0.013	0.041
-428.617	293.399	-0.180	0.327
-427.603	-183.220	-0.279	-0.005
-426.588	-45.812	0.381	-0.188
-425.573	-150.697	-0.304	0.023
-424.559	214.292	-0.130	-0.206
-423.544	800.000	-0.053	-0.179
-422.530	-72.460	-0.181	-0.067
-421.515	-143.327	0.098	0.009
-420.500	-76.894	0.167	0.058
-419.486	239.931	-0.064	-0.106
-418.471	-200.000	0.013	-0.066
-417.457	800.000	0.030	-0.127
-416.442	800.000	0.081	0.288
-415.428	4.578	-0.193	0.141
-414.413	-0.193	0.195	0.139
-413.398	399.642	0.197	0.413
-412.384	-144.535	-0.329	0.030
-411.369	-200.000	-0.059	0.279
-410.355	-41.935	-0.221	-0.113
-409.340	-200.000	-0.014	-0.254
-408.325	91.583	0.180	-0.202
-407.311	-94.519	0.167	0.045
-406.296	277.748	-0.044	-0.079
-405.282	-38.520	-0.127	0.067
-404.267	-133.117	-0.339	-0.043
-403.252	-94.321	0.142	-0.039
-402.238	-200.000	0.004	-0.168
-401.223	266.148	0.193	0.336
-400.209	-200.000	0.003	0.121
-399.194	233.035	0.064	-0.105
-398.179	6.290	0.120	0.089
-397.165	-78.760	-0.070	0.024
-396.150	72.481	-0.276	0.286
-395.136	-40.252	0.212	0.110
-394.121	605.428	-0.096	-0.238
-393.106	50.941	-0.113	-0.107
-392.092	-63.044	0.274	-0.113
-391.077	256.039	-0.104	0.177
-390.063	50.344	0.071	-0.067
-389.048	144.020	0.111	0.148
-388.033	800.000	0.111	0.444
-387.019	695.429	0.148	-0.387
-386.004	-200.000	0.063	-0.380
-384.990	-200.000	0.007	0.153
-383.975	334.815	0.143	0.276
-382.960	-36.017	-0.111	0.060
-381.946	-67.928	-0.174	-0.068
-380.931	134.477	-0.042	-0.054
-379.917	-200.000	-0.049	0.383
-378.902	37.748	-0.199	-0.176
-377.888	-200.000	-0.035	0.223
-376.873	49.523	-0.256	0.240
-375.858	-200.000	0.030	0.301
-374.844	791.052	0.003	0.009
-373.829	139.774	0.085	-0.111
-372.815	-200.000	0.023	0.272
-371.800	-200.000	0.034	-0.249
-370.785	167.523	0.092	-0.130
-369.771	800.000	0.104	0.403
-368.756	-164.762	-0.112	0.005
-367.742	61.995	0.075	-0.074
-366.727	46.885	0.173	-0.161
-365.712	99.807	-0.018	0.021
-364.698	-55.580	0.052	-0.023
-363.683	-73.989	-0.235	-0.085
-362.669	-132.724	-0.135	0.017
-361.654	800.000	-0.015	0.044
-360.639	440.763	0.181	-0.394
-359.625	-200.000	-0.009	-0.047
-358.610	-48.043	-0.028	-0.013
-357.596	208.522	-0.252	-0.392
-356.581	800.000	-0.030	0.094
-355.566	-200.000	0.041	-0.273
-354.552	122.119	0.139	-0.172
-353.537	-200.000	0.031	0.377
-352.523	165.132	-0.084	-0.118
-351.508	317.631	0.101	-0.190
-350.493	-58.286	-0.252	0.109
-349.479	-200.000	-0.000	-0.116
-348.464	375.062	-0.152	-0.307
-347.450	-44.899	-0.084	0.041
-346.435	-27.808	0.252	-0.145
-345.420	-200.000	0.006	-0.120
-344.406	-24.955	0.175	0.103
-343.391	-137.638	0.152	0.017
-342.377	-200.000	-0.005	0.111
-341.362	-200.000	0.019	0.138
-340.348	16.717	0.140	-0.110
-339.333	22.828	-0.097	0.079
-338.318	708.357	0.056	0.147
-337.304	44.163	0.159	0.145
-336.289	800.000	0.077	0.312
-335.275	156.766	0.285	0.391
-334.260	-200.000	0.001	-0.308
-333.245	-170.628	-0.109	-0.004
-332.231	-85.269	0.093	-0.029
-331.216	19.983	0.136	0.109
-330.202	19.064	-0.039	-0.031
-329.187	747.905	-0.106	-0.285
-328.172	0.682	0.158	-0.112
-327.158	-136.675	0.058	0.007
-326.143	93.967	-0.101	-0.114
-325.129	-163.645	0.085	0.004
-324.114	142.642	-0.053	-0.070
-323.099	-58.626	-0.302	0.130
-322.085	-84.362	-0.226	0.071
-321.070	-82.224	0.084	-0.027
-320.056	-51.351	0.036	0.017
-319.041	-119.733	-0.183	-0.031
-318.026	-65.122	0.273	0.110
-317.012	-92.005	-0.157	-0.044
-315.997	-4.014	0.278	0.191
-314.983	47.906	0.066	-0.061
-313.968	111.881	0.044	0.052
-312.953	-81.094	-0.081	-0.027
-311.939	-75.120	0.195	0.069
-310.924	-26.313	0.212	-0.123
-309.910	360.829	-0.209	-0.415
-308.895	-144.164	-0.243	-0.023
-307.880	-200.000	-0.014	0.121
-306.866	74.076	0.225	0.234
-305.851	800.000	0.054	-0.152
-304.837	-184.158	-0.304	0.005
-303.822	-111.318	0.369	-0.075
-302.807	37.563	0.164	0.145
-301.793	167.464	0.105	0.148
-300.778	-200.000	0.016	0.277
-299.764	255.516	0.157	0.268
-298.749	3.930	0.219	-0.159
-297.735	79.681	-0.187	-0.200
-296.720	783.962	0.042	0.114
-295.705	-156.092	0.142	-0.009
-294.691	-200.000	0.055	-0.357
-293.676	104.518	-0.316	0.369
-292.662	-200.000	0.005	-0.119
-291.647	458.018	-0.148	0.326
-290.632	54.248	0.267	-0.255
-289.618	11.384	0.134	-0.102
-288.603	-37.745	-0.170	-0.090
-287.589	-125.355	0.165	-0.025
-286.574	-86.736	0.311	-0.094
-285.559	-15.516	-0.220	-0.140
-284.545	354.201	0.061	-0.121
-283.530	-51.342	0.193	-0.090
-282.516	-104.467	0.145	0.033
-281.501	73.527	-0.154	0.160
-280.486	376.788	0.083	0.169
-279.472	-39.147	-0.136	-0.071
-278.457	219.504	-0.200	0.317
-277.443	28.079	-0.198	-0.166
-276.428	-200.000	0.015	-0.072
-275.413	262.592	-0.057	0.099
-274.399	293.400	-0.151	0.274
-273.384	-200.000	0.012	-0.157
-272.370	259.926	-0.184	-0.315
-271.355	800.000	-0.058	-0.226
-270.340	698.508	0.078	-0.203
-269.326	800.000	0.061	0.188
-268.311	800.000	-0.042	-0.152
-267.297	77.601	-0.258	0.272
-266.282	-184.100	0.298	-0.005
-265.267	18.041	-0.130	-0.103
-264.253	135.267	0.048	0.061
-263.238	-41.327	0.148	-0.076
-262.224	-200.000	-0.027	0.176
-261.209	-200.000	-0.086	0.000
-260.195	13.377	0.249	0.191
-259.180	-200.000	-0.007	-0.356
-258.165	-76.192	0.152	-0.053
-257.151	-63.859	-0.168	-0.068
-256.136	800.000	-0.044	-0.154
-255.122	60.571	0.150	0.147
-254.107	-40.950	0.459	-0.235
-253.092	-102.836	0.198	-0.047
-252.078	359.578	0.126	-0.251
-251.063	532.219	-0.090	0.211
-250.049	-200.000	0.016	0.079
-249.034	77.359	-0.228	-0.241
-248.019	-81.019	-0.219	-0.072
-247.005	-200.000	0.042	-0.206
-245.990	-0.605	-0.166	0.117
-244.976	6.328	-0.116	0.085
-243.961	11.733	-0.069	-0.053
-242.946	377.008	-0.041	-0.084
-241.932	387.085	-0.037	-0.075
-240.917	-114.837	0.138	0.026
-239.903	-22.014	0.079	0.048
-238.888	-200.000	0.019	-0.138
-237.873	162.622	0.158	0.220
-236.859	-147.384	0.086	0.007
-235.844	-84.535	-0.255	-0.080
-234.830	125.494	-0.063	-0.078
-233.815	800.000	0.071	-0.234
-232.800	-159.866	0.227	-0.012
-231.786	597.905	-0.146	0.359
-230.771	453.012	0.246	0.539
-229.757	800.000	-0.074	0.209
-228.742	88.066	-0.060	0.066
-227.727	35.226	-0.156	-0.136
-226.713	405.615	0.102	-0.213
-225.698	64.267	0.110	0.110
-224.684	-57.909	-0.103	0.044
-223.669	458.572	-0.218	0.480
-222.655	-166.632	-0.303	-0.012
-221.640	109.694	0.201	-0.238
-220.625	47.753	0.098	-0.090
-219.611	-132.056	-0.037	-0.005
-218.596	-42.328	0.243	0.123
-217.582	-200.000	-0.041	0.195
-216.567	-86.763	0.417	0.126
-215.552	800.000	0.042	-0.127
-214.538	-62.984	0.081	0.033
-213.523	75.413	-0.123	-0.128
-212.509	-135.187	0.132	-0.016
-211.494	-33.013	-0.047	0.026
-210.479	-200.000	0.004	0.204
-209.465	-75.216	0.144	-0.051
-208.450	800.000	0.053	-0.180
-207.436	7.890	0.127	-0.094
-206.421	314.628	-0.180	-0.336
-205.406	530.249	-0.105	-0.245
-204.392	800.000	-0.085	0.288
-203.377	-45.754	-0.086	-0.042
-202.363	55.774	-0.066	0.063
-201.348	44.735	0.014	-0.013
-200.333	50.742	0.127	0.119
-199.319	451.503	-0.105	-0.230
-198.304	-123.185	0.443	-0.070
-197.290	35.153	0.053	-0.046
-196.275	674.516	-0.076	-0.195
-195.260	42.699	0.088	0.080
-194.246	173.662	0.079	0.112
-193.231	109.081	-0.089	-0.105
-192.217	-71.291	-0.109	0.040
-191.202	-57.533	0.348	-0.151
-190.187	119.274	0.017	-0.021
-189.173	-200.000	0.001	-0.181
-188.158	-200.000	0.046	0.323
-187.144	-200.000	0.019	0.252
-186.129	800.000	0.094	0.332
-185.114	-200.000	0.005	0.112
-184.100	23.273	0.057	-0.046
-183.085	51.131	-0.041	-0.038
-182.071	800.000	-0.050	-0.141
-181.056	-200.000	0.032	0.356
-180.042	-1.692	0.129	-0.090
-179.027	-28.256	-0.199	0.113
-178.012	-16.316	0.180	-0.113
-176.998	75.107	0.079	-0.082
-175.983	-200.000	-0.013	0.135
-174.969	-141.565	-0.445	-0.044
-173.954	-79.153	-0.225	-0.076
-172.939	-125.755	0.230	0.034
-171.925	-200.000	-0.003	0.059
-170.910	513.370	-0.128	0.295
-169.896	39.272	-0.094	-0.083
-168.881	-22.760	-0.193	0.115
-167.866	191.093	0.140	-0.207
-166.852	0.066	-0.184	0.130
-165.837	447.265	-0.049	0.107
-164.823	204.707	-0.138	0.212
-163.808	-0.222	-0.051	0.036
-162.793	-103.095	0.231	0.054
-161.779	-70.337	0.110	0.041
-160.764	-68.951	0.307	0.117
-159.750	506.913	0.005	0.012
-158.735	13.233	-0.124	-0.095
-157.720	-124.956	-0.384	0.058
-156.706	-200.000	-0.025	-0.210
-155.691	-48.086	0.209	0.100
-154.677	-79.799	-0.245	-0.081
-153.662	-200.000	-0.018	0.087
-152.647	-37.999	-0.146	0.077
-151.633	-139.999	-0.165	-0.017
-150.618	-39.349	0.444	0.230
-149.604	121.263	0.169	0.208
-148.589	-200.000	-0.001	0.159
-147.574	-49.931	-0.234	0.109
-146.560	18.424	-0.152	0.120
-145.545	800.000	0.108	-0.332
-144.531	-45.173	0.202	0.099
-143.516	68.420	-0.185	-0.187
-142.502	-180.348	0.290	-0.006
-141.487	-200.000	-0.015	-0.336
-140.472	-55.728	-0.058	-0.026
-139.458	110.322	-0.170	0.201
-138.443	340.889	0.077	-0.148
-137.429	-200.000	-0.020	0.135
-136.414	-116.670	0.153	-0.028
-135.399	414.332	0.056	0.117
-134.385	-62.841	0.042	0.017
-133.370	-200.000	0.028	0.134
-132.356	-16.589	0.293	0.183
-131.341	292.745	-0.177	0.319
-130.326	-123.072	-0.415	-0.066
-129.312	117.364	-0.042	0.051
-128.297	-53.560	-0.059	-0.027
-127.283	328.571	-0.139	-0.263
-126.268	-16.900	0.119	0.074
-125.253	432.964	-0.076	-0.162
-124.239	25.738	0.091	0.075
-123.224	-74.481	-0.384	-0.136
-122.210	139.143	0.068	-0.088
-121.195	-88.200	0.334	-0.099
-120.180	259.633	0.033	0.056
-119.166	-148.591	-0.238	-0.019
-118.151	-200.000	-0.154	0.001
-117.137	-200.000	0.025	-0.109
-116.122	389.045	-0.048	-0.099
-115.107	-200.000	0.003	0.184
-114.093	45.147	-0.185	0.168
-113.078	58.089	-0.148	-0.143
-112.064	-9.245	-0.063	-0.042
-111.049	-119.161	-0.050	-0.009
-110.034	180.147	-0.157	0.227
-109.020	515.086	-0.135	-0.311
-108.005	67.895	0.249	0.251
-106.991	77.547	-0.086	0.091
-105.976	129.775	0.139	0.175
-104.962	800.000	-0.055	0.161
-103.947	-200.000	0.061	0.312
-102.932	-155.818	-0.115	0.007
-101.918	-200.000	-0.006	0.183
-100.903	-51.394	0.191	-0.088
-99.889	800.000	-0.017	0.064
-98.874	-35.420	0.142	0.076
-97.859	-200.000	-0.010	0.294
-96.845	-200.000	0.023	0.357
-95.830	69.526	-0.306	0.311
-94.816	-169.384	0.041	-0.001
-93.801	800.000	-0.022	0.062
-92.786	-15.748	0.402	0.252
-91.772	-200.000	0.037	0.224
-90.757	-168.028	-0.147	-0.006
-89.743	2.654	0.145	0.104
-88.728	-121.140	0.253	0.042
-87.713	43.591	-0.128	0.115
-86.699	-154.964	0.425	0.028
-85.684	-200.000	-0.062	0.417
-84.670	582.806	-0.092	0.222
-83.655	-21.288	0.343	0.206
-82.640	357.734	0.093	-0.183
-81.626	155.378	-0.115	0.155
-80.611	-200.000	-0.014	0.201
-79.597	60.787	-0.229	0.224
-78.582	800.000	0.046	-0.128
-77.567	-78.629	0.129	0.043
-76.553	436.249	-0.024	0.052
-75.538	-200.000	0.025	0.162
-74.524	800.000	0.082	-0.245
-73.509	800.000	-0.022	0.085
-72.494	-102.940	0.235	0.055
-71.480	635.250	0.233	0.582
-70.465	-28.883	-0.411	0.232
-69.451	-129.581	0.591	-0.080
-68.436	-51.214	0.196	-0.090
-67.422	-200.000	-0.125	-0.561
-66.407	800.000	-0.032	0.100
-65.392	106.623	0.117	-0.137
-64.378	52.416	-0.152	0.143
-63.363	-200.000	-0.011	0.088
-62.349	800.000	-0.008	0.035
-61.334	253.321	-0.717	-1.205
-60.319	0.366	0.585	0.411
-59.305	800.000	-0.268	-0.915
-58.290	191.459	0.660	0.978
-57.276	484.422	0.659	1.477
-56.261	-200.000	96.607	597.240
-55.246	647.479	1374.791	3457.329
-54.232	198.861	2550.267	3842.278
-53.217	119.635	2158.802	2630.919
-52.203	42.694	1702.991	1525.578
-51.188	35.024	1515.977	1305.918
-50.173	32.611	1488.810	1266.272
-49.159	52.289	1537.688	1442.629
-48.144	54.001	1555.940	1471.387
-47.130	35.310	1515.488	1307.238
-46.115	32.099	1500.985	1272.952
-45.100	31.888	1497.574	1268.584
-44.086	31.921	1495.683	1267.149
-43.071	31.819	1493.989	1264.980
-42.057	31.871	1491.729	1263.367
-41.042	31.806	1490.446	1261.787
-40.027	31.836	1489.392	1261.052
-39.013	31.770	1488.017	1259.389
-37.998	31.776	1486.586	1258.171
-36.984	31.782	1485.614	1257.337
-35.969	31.796	1483.848	1255.886
-34.954	31.786	1482.385	1254.535
-33.940	31.785	1480.857	1253.186
-32.925	31.816	1479.222	1251.956
-31.911	31.876	1478.565	1251.750
-30.896	31.896	1477.263	1250.731
-29.881	31.864	1475.990	1249.393
-28.867	31.912	1474.259	1248.196
-27.852	31.897	1473.142	1247.105
-26.838	31.777	1472.197	1245.453
-25.823	31.856	1470.364	1244.380
-24.809	31.862	1468.260	1242.591
-23.794	31.871	1466.717	1241.290
-22.779	31.878	1465.492	1240.254
-21.765	31.790	1464.302	1238.618
-20.750	31.962	1462.974	1238.577
-19.736	31.817	1462.660	1237.305
-18.721	31.827	1461.441	1236.296
-17.706	31.796	1460.218	1235.003
-16.692	31.773	1459.176	1233.921
-15.677	31.886	1457.729	1233.397
-14.663	31.783	1457.182	1232.204
-13.648	31.880	1455.682	1231.523
-12.633	31.779	1455.148	1230.360
-11.619	31.776	1454.702	1229.918
-10.604	31.750	1454.121	1229.201
-9.590	31.808	1452.831	1228.445
-8.575	31.762	1452.085	1227.464
-7.560	31.755	1450.921	1226.385
-6.546	31.788	1449.838	1225.635
-5.531	31.725	1449.288	1224.709
-4.517	31.714	1447.908	1223.424
-3.502	31.708	1446.961	1222.537
-2.487	31.687	1446.133	1221.651
-1.473	31.670	1445.181	1220.687
-0.458	31.745	1443.741	1219.912
0.556	30.379	1433.962	1208.879
1.571	27.402	1408.459	1168.202
2.586	24.080	1348.071	1097.574
3.600	22.368	1267.720	1022.131
4.615	21.074	1222.268	978.144
5.629	18.213	1166.376	918.005
6.644	10.881	1083.835	816.279
7.659	5.414	1044.644	760.174
8.673	4.597	1039.145	752.157
9.688	4.552	1036.405	749.890
10.702	4.471	1034.756	748.241
11.717	4.439	1032.999	746.750
12.731	6.524	1034.245	757.612
13.746	13.331	1043.841	797.495
14.761	18.336	1049.887	826.259
15.775	18.310	1049.403	825.680
16.790	17.354	1046.692	818.869
17.804	16.253	1044.359	811.682
18.819	15.331	1042.506	805.740
19.834	14.991	1041.283	803.094
20.848	14.707	1040.180	800.810
21.863	14.470	1039.481	799.067
22.877	14.085	1039.115	796.871
23.892	14.117	1038.113	796.182
24.907	13.933	1037.406	794.688
25.921	14.001	1036.850	794.519
26.936	14.034	1035.808	793.806
27.950	14.101	1034.664	793.179
28.965	13.968	1034.034	791.991
29.980	14.091	1032.737	791.515
30.994	14.187	1031.807	791.188
32.009	14.305	1030.548	790.713
33.023	14.290	1030.250	790.346
34.038	14.268	1029.219	789.379
35.053	14.200	1028.220	788.219
36.067	14.162	1027.513	787.431
37.082	14.097	1026.608	786.357
38.096	14.112	1025.573	785.566
39.111	14.176	1025.311	785.600
40.126	14.287	1024.192	785.195
41.140	14.154	1022.822	783.448
42.155	13.949	1022.093	781.857
43.169	13.877	1021.547	781.034
44.184	13.919	1019.595	779.665
45.199	13.787	1018.767	778.347
46.213	13.887	1017.789	777.999
47.228	14.072	1016.213	777.592
48.242	14.104	1016.071	777.561
49.257	14.091	1015.290	776.837
50.271	14.169	1013.765	775.963
51.286	14.041	1013.325	774.963
52.301	14.116	1012.229	774.405
53.315	14.149	1011.512	773.942
54.330	14.072	1010.613	772.824
55.344	14.157	1009.267	772.123
56.359	14.048	1008.496	770.961
57.374	13.958	1007.903	770.023
58.388	14.095	1006.514	769.528
59.403	13.910	1006.366	768.489
60.417	13.963	1005.342	767.885
61.432	13.890	1005.041	767.249
62.447	13.750	1004.428	766.066
63.461	13.786	1003.588	765.525
64.476	13.825	1002.492	764.798
65.490	13.755	1001.441	763.608
66.505	13.873	1000.675	763.497
67.520	13.756	1000.153	762.497
68.534	13.937	998.986	762.368
69.549	13.826	998.378	761.327
70.563	13.876	997.800	761.047
71.578	13.846	996.657	759.975
72.593	13.770	996.014	759.067
73.607	13.783	995.186	758.429
74.622	13.667	994.321	757.172
75.636	13.587	994.033	756.520
76.651	13.607	992.756	755.575
77.666	13.765	992.016	755.662
78.680	13.799	991.456	755.324
79.695	13.721	990.853	754.446
80.709	13.891	990.223	754.669
81.724	13.725	989.299	753.144
82.739	13.868	988.696	753.268
83.753	13.989	988.335	753.474
84.768	13.910	987.693	752.561
85.782	14.245	986.562	753.148
86.797	14.239	985.971	752.606
87.812	14.121	985.361	751.539
88.826	14.169	984.118	750.742
89.841	14.155	983.448	750.101
90.855	14.230	982.433	749.598
91.870	14.188	982.075	749.068
92.884	14.201	981.284	748.459
93.899	14.141	980.785	747.742
94.914	14.369	979.775	747.928
95.928	14.339	979.089	747.205
96.943	14.296	978.331	746.367
97.957	14.218	977.699	745.470
98.972	14.368	976.656	745.282
99.987	14.226	976.357	744.351
101.001	14.151	975.635	743.401
102.016	14.170	974.851	742.820
103.030	14.146	973.980	741.984
104.045	14.249	972.666	741.377
105.060	14.291	971.924	740.930
106.074	14.123	971.289	739.634
107.089	14.064	970.133	738.426
108.103	13.907	969.697	737.332
109.118	13.902	968.151	736.072
110.133	13.791	967.508	735.023
111.147	13.891	966.859	734.911
112.162	13.768	965.920	733.586
113.176	13.959	964.911	733.601
114.191	13.964	964.271	733.068
115.206	14.112	963.233	732.867
116.220	13.997	962.670	731.867
117.235	13.963	961.870	731.045
118.249	14.005	961.374	730.787
119.264	13.989	960.146	729.719
120.279	13.895	959.275	728.581
121.293	13.984	958.361	728.213
122.308	13.980	957.631	727.574
123.322	13.899	956.733	726.476
124.337	13.866	955.403	725.259
125.352	13.883	954.652	724.695
126.366	13.898	953.222	723.611
127.381	13.697	952.828	722.373
128.395	13.825	951.381	721.770
129.410	13.817	950.920	721.320
130.424	13.814	949.867	720.447
131.439	13.829	949.207	719.948
132.454	13.972	947.967	719.562
133.468	14.037	947.552	719.466
134.483	14.103	946.747	719.076
135.497	14.015	946.333	718.316
136.512	14.160	945.585	718.313
137.527	14.087	944.853	717.375
138.541	13.980	944.158	716.326
139.556	14.076	943.686	716.317
140.570	13.991	942.643	715.095
141.585	14.064	941.753	714.672
142.600	14.197	941.394	714.906
143.614	14.275	940.473	714.477
144.629	14.217	939.583	713.491
145.643	14.220	939.328	713.245
146.658	14.382	938.153	712.983
147.673	14.241	937.187	711.587
148.687	14.114	936.525	710.476
149.702	14.152	935.483	709.787
150.716	14.068	934.630	708.717
151.731	13.987	933.591	707.523
152.746	13.904	933.221	706.825
153.760	14.122	932.190	706.910
154.775	14.204	931.331	706.546
155.789	14.296	930.529	706.264
156.804	14.237	930.410	705.861
157.819	14.267	929.502	705.236
158.833	14.259	928.894	704.678
159.848	14.422	927.940	704.580
160.862	14.461	927.128	704.067
161.877	14.348	926.746	703.238
162.892	14.198	925.826	701.843
163.906	14.116	924.967	700.786
164.921	14.116	923.984	699.978
165.935	14.069	923.078	699.033
166.950	14.047	922.408	698.371
167.964	14.206	921.248	698.098
168.979	14.255	920.483	697.661
169.994	14.360	919.044	696.950
171.008	14.216	918.440	695.827
172.023	14.299	917.785	695.616
173.037	14.289	917.235	695.098
174.052	14.452	916.380	695.067
175.067	14.315	915.719	693.932
176.081	14.202	914.870	692.759
177.096	14.225	913.977	692.115
178.110	14.308	912.592	691.351
179.125	14.311	912.348	691.117
180.140	14.404	911.436	690.749
181.154	14.304	910.746	689.751
182.169	14.425	910.360	689.902
183.183	14.405	910.077	689.541
184.198	14.520	909.385	689.433
185.213	14.411	908.926	688.571
186.227	14.408	908.323	688.044
187.242	14.534	907.681	688.016
188.256	14.502	907.077	687.366
189.271	14.718	905.826	687.247
190.286	14.511	906.031	686.488
191.300	14.513	904.984	685.643
192.315	14.323	904.203	684.208
193.329	14.154	903.074	682.603
194.344	14.324	902.681	682.939
195.359	14.332	902.347	682.659
196.373	14.330	901.437	681.902
197.388	14.458	901.159	682.156
198.402	14.543	900.971	682.301
199.417	14.652	900.131	682.048
200.432	14.688	899.913	681.971
201.446	14.753	899.432	681.810
202.461	14.769	899.002	681.489
203.475	14.891	898.530	681.570
204.490	14.858	897.934	680.923
205.504	14.814	896.770	679.800
206.519	14.763	896.003	678.950
207.534	14.684	895.427	678.136
208.548	14.743	894.392	677.532
209.563	14.700	894.275	677.206
210.577	14.694	893.293	676.380
211.592	14.704	892.852	676.028
212.607	14.765	892.277	675.776
213.621	15.063	891.741	676.515
214.636	14.971	890.690	675.287
215.650	14.857	890.600	674.699
216.665	14.889	890.030	674.336
217.680	14.986	889.066	673.940
218.694	14.988	888.708	673.617
219.709	14.989	888.185	673.164
220.723	14.965	887.515	672.498
221.738	14.957	887.077	672.076
222.753	15.012	886.303	671.650
223.767	15.099	885.233	671.128
224.782	15.076	884.737	670.602
225.796	15.069	884.390	670.251
226.811	15.054	883.768	669.663
227.826	15.177	882.775	669.340
228.840	14.966	882.385	668.143
229.855	14.933	881.762	667.481
230.869	15.091	880.866	667.373
231.884	14.967	880.185	666.303
232.899	14.996	879.729	666.016
233.913	14.913	878.821	664.938
234.928	14.899	878.062	664.250
235.942	15.033	877.309	664.153
236.957	14.983	876.870	663.565
237.972	14.946	876.424	663.021
238.986	14.870	875.574	662.017
240.001	14.869	874.932	661.470
241.015	15.142	873.946	661.746
242.030	15.108	873.352	661.102
243.045	15.073	873.273	660.847
244.059	15.068	872.398	660.106
245.074	15.150	871.634	659.792
246.088	15.212	870.996	659.496
247.103	15.198	870.781	659.219
248.117	15.163	870.178	658.568
249.132	15.335	869.409	658.601
250.147	15.477	869.089	658.860
251.161	15.575	868.493	658.734
252.176	15.569	867.935	658.227
253.190	15.730	866.981	658.076
254.205	15.542	867.080	657.357
255.220	15.567	866.267	656.782
256.234	15.479	865.699	655.946
257.249	15.676	864.610	655.834
258.263	15.700	864.157	655.525
259.278	15.776	863.343	655.147
260.293	15.726	863.118	654.721
261.307	15.885	862.181	654.573
262.322	15.840	861.689	653.965
263.336	15.789	861.355	653.458
264.351	15.831	860.569	652.967
265.366	15.902	859.759	652.570
266.380	15.871	859.262	652.013
267.395	15.832	858.705	651.381
268.409	15.815	858.004	650.726
269.424	15.906	857.305	650.491
270.439	15.923	856.589	649.954
271.453	15.933	855.837	649.367
272.468	15.756	855.191	648.135
273.482	15.817	854.760	647.988
274.497	15.709	854.555	647.359
275.512	15.726	853.656	646.685
276.526	15.798	853.069	646.460
277.541	15.878	852.096	645.973
278.555	15.874	851.644	645.558
279.570	15.959	851.072	645.393
280.585	15.979	850.796	645.202
281.599	15.974	850.431	644.852
282.614	16.009	849.550	644.259
283.628	16.042	848.572	643.585
284.643	15.851	848.750	642.936
285.657	15.959	847.864	642.617
286.672	15.983	847.560	642.424
287.687	15.998	846.803	641.850
288.701	16.052	846.514	641.778
289.716	16.143	845.659	641.421
290.730	15.863	845.397	640.102
291.745	16.256	844.288	640.695
292.760	16.189	843.885	640.081
293.774	16.102	843.379	639.307
294.789	16.199	843.127	639.429
295.803	16.230	842.516	639.028
296.818	16.160	841.784	638.148
297.833	16.071	841.029	637.184
298.847	16.076	840.150	636.480
299.862	16.158	839.621	636.332
300.876	16.123	839.291	635.897
301.891	16.018	838.658	634.962
302.906	16.272	837.899	635.290
303.920	16.324	837.060	634.791
304.935	16.500	836.893	635.272
305.949	16.533	836.078	634.719
306.964	16.452	835.373	633.823
307.979	16.447	834.460	633.057
308.993	16.354	834.285	632.520
310.008	16.407	833.846	632.331
311.022	16.494	833.382	632.247
312.037	16.415	833.150	631.720
313.052	16.490	832.240	631.252
314.066	16.397	831.436	630.241
315.081	16.247	831.115	629.383
316.095	16.236	830.519	628.833
317.110	16.282	830.001	628.557
318.125	16.314	829.255	628.056
319.139	16.358	828.819	627.835
320.154	16.454	828.313	627.750
321.168	16.337	828.108	627.108
322.183	16.364	827.207	626.468
323.197	16.350	827.364	626.479
324.212	16.456	826.411	626.095
325.227	16.538	826.230	626.209
326.241	16.607	825.288	625.693
327.256	16.420	824.650	624.462
328.270	16.441	824.456	624.339
329.285	16.355	823.614	623.328
330.300	16.483	823.433	623.608
331.314	16.477	822.564	622.872
332.329	16.326	822.217	622.000
333.343	16.560	821.282	622.099
334.358	16.643	821.170	622.262
335.373	16.706	820.407	621.862
336.387	16.654	820.016	621.318
337.402	16.783	819.105	621.046
338.416	16.742	818.874	620.666
339.431	16.878	818.423	620.765
340.446	16.808	817.825	620.001
341.460	16.818	817.468	619.715
342.475	16.959	816.364	619.336
343.489	16.875	816.266	618.902
344.504	16.993	815.943	619.032
345.519	17.064	815.309	618.754
346.533	17.061	814.890	618.372
347.548	17.135	814.233	618.086
348.562	17.085	813.478	617.279
349.577	16.925	813.203	616.433
350.592	16.937	812.368	615.788
351.606	16.827	811.921	614.995
352.621	16.756	811.703	614.519
353.635	16.864	811.285	614.541
354.650	16.915	810.771	614.280
355.665	16.996	810.169	614.063
356.679	16.916	810.071	613.647
357.694	17.077	809.374	613.644
358.708	17.081	808.979	613.308
359.723	16.992	808.414	612.502
360.738	17.103	807.581	612.218
361.752	17.013	807.220	611.564
362.767	17.095	807.116	611.727
363.781	17.170	806.697	611.624
364.796	17.249	806.387	611.620
365.810	17.265	805.538	610.981
366.825	17.234	805.586	610.851
367.840	17.391	804.807	610.772
368.854	17.295	804.974	610.499
369.869	17.270	803.944	609.574
370.883	17.351	803.327	609.340
371.898	17.240	803.072	608.698
372.913	17.315	802.509	608.484
373.927	17.409	801.564	608.052
374.942	17.413	801.236	607.763
375.956	17.510	800.373	607.401
376.971	17.496	800.387	607.308
377.986	17.523	799.552	606.715
379.000	17.602	798.869	606.425
380.015	17.607	798.298	605.954
381.029	17.647	797.939	605.773
382.044	17.503	797.520	604.890
383.059	17.634	797.225	605.076
384.073	17.636	796.152	604.216
385.088	17.567	796.047	603.839
386.102	17.518	795.408	603.126
387.117	17.434	794.795	602.312
388.132	17.381	794.533	601.871
389.146	17.345	794.059	601.331
390.161	17.677	793.457	601.995
391.175	17.557	792.862	601.067
392.190	17.597	792.915	601.193
393.205	17.650	792.415	600.951
394.219	17.629	791.841	600.388
395.234	17.549	791.201	599.567
396.248	17.563	790.968	599.386
397.263	17.599	790.026	598.745
398.278	17.451	789.798	597.999
399.292	17.441	789.329	597.557
400.307	17.414	789.322	597.406
401.321	17.559	788.670	597.366
402.336	17.503	788.463	596.960
403.350	17.581	788.040	596.860
404.365	17.713	787.423	596.802
405.380	17.704	787.113	596.484
406.394	17.667	786.630	595.935
407.409	17.847	786.259	596.231
408.423	17.749	785.814	595.499
409.438	17.904	785.389	595.664
410.453	17.943	785.020	595.468
411.467	17.939	784.444	594.964
412.482	17.928	783.960	594.507
413.496	18.037	783.513	594.493
414.511	18.152	783.341	594.710
415.526	18.107	782.868	594.143
416.540	18.080	782.422	593.659
417.555	18.003	781.980	593.004
418.569	17.975	781.361	592.383
419.584	18.084	781.071	592.490
420.599	17.930	780.831	591.720
421.613	155.812	1369.495	1794.975
422.628	134.458	1455.269	1795.077
