DTS Sentinel unit serial number:	SN413079Multiplexer serial number:	ORYXHardware model number:	OX4-SRSoftware version number:	ORYX F/W v4.00 Oryx Data Collector v3.7.2.0data status	okinstallation	princeton_trtdifferential loss correction	single-endedforward channel	channel 3reverse channel	N/Adate	2019/09/12time	20:06:04forward acquisition time	15.00reverse acquisition time	0.00gamma	496.2192k internal	0.2324k external	0.2324temperature offset calibration	1.0115default loss term (dB/km)	0.3790temperature slope calibration	1.0000multiplexer offset coefficient	1.0000multiplexer slope coefficient	1.0000fibre end	0.00T internal ref (°C)	31.69T ext. ref 1 (°C)	3.43T ext. ref 2 (°C)	26.20length (m)	temperature (°C)	Stokes	anti-Stokes-747.200	-200.000	-0.151	-0.888
-746.185	-122.711	-0.713	0.116
-745.171	-145.514	0.243	0.022
-744.156	353.384	-0.098	0.197
-743.142	356.688	0.290	0.584
-742.127	800.000	0.110	-0.413
-741.112	188.473	0.332	-0.501
-740.098	330.344	0.224	0.435
-739.083	491.324	0.204	-0.471
-738.069	-62.467	0.369	-0.155
-737.054	-200.000	0.017	0.530
-736.039	800.000	-0.136	0.503
-735.025	380.516	0.481	0.995
-734.010	73.453	0.096	-0.102
-732.996	-28.765	-0.759	-0.440
-731.981	245.141	0.213	0.362
-730.966	-5.530	-0.370	-0.256
-729.952	174.302	-0.128	-0.187
-728.937	3.898	0.371	-0.273
-727.923	8.329	0.395	0.299
-726.908	-146.772	-0.309	-0.027
-725.894	93.654	-0.284	-0.324
-724.879	-129.538	-0.922	0.129
-723.864	-97.421	-0.229	-0.060
-722.850	-200.000	0.068	0.639
-721.835	363.082	0.260	0.528
-720.821	369.664	0.356	-0.727
-719.806	247.442	0.102	-0.174
-718.791	19.566	0.680	-0.552
-717.777	578.580	-0.509	-1.257
-716.762	254.065	0.494	0.851
-715.748	87.546	-0.534	-0.596
-714.733	48.263	0.573	0.541
-713.718	307.093	0.474	0.891
-712.704	-70.170	0.265	-0.102
-711.689	15.230	0.517	-0.409
-710.675	800.000	0.157	-0.512
-709.660	608.802	0.242	0.608
-708.645	255.375	0.287	-0.495
-707.631	-116.552	-0.158	0.029
-706.616	800.000	0.246	-0.798
-705.602	-37.661	-0.264	-0.142
-704.587	-97.426	-1.106	0.290
-703.572	116.518	0.256	-0.316
-702.558	0.819	-0.919	-0.663
-701.543	-149.960	-0.581	-0.046
-700.529	-200.000	-0.039	0.322
-699.514	-200.000	0.055	-0.356
-698.499	-142.562	-0.925	0.091
-697.485	-115.368	0.831	0.158
-696.470	-2.216	-0.206	-0.146
-695.456	158.137	0.399	-0.558
-694.441	-83.234	0.317	-0.103
-693.426	-97.166	0.055	0.015
-692.412	162.575	-0.483	0.683
-691.397	64.563	-0.341	-0.346
-690.383	-127.159	0.698	-0.103
-689.368	21.646	-0.613	-0.503
-688.354	-135.996	0.664	-0.079
-687.339	643.260	-0.354	0.910
-686.324	3.272	-0.455	-0.333
-685.310	-200.000	-0.325	0.001
-684.295	-102.628	-0.382	-0.092
-683.281	12.809	0.330	-0.257
-682.266	617.502	0.081	-0.206
-681.251	-197.808	-0.309	-0.002
-680.237	-72.045	1.276	0.477
-679.222	55.161	0.353	0.343
-678.208	25.895	-0.660	0.554
-677.193	-157.153	-0.653	-0.040
-676.178	220.354	-0.075	0.121
-675.164	82.173	0.757	-0.827
-674.149	-108.464	-0.139	0.030
-673.135	-116.743	1.150	-0.212
-672.120	-136.678	-0.290	0.034
-671.105	-33.297	-0.107	-0.059
-670.091	-37.725	0.505	-0.271
-669.076	48.857	-0.680	0.643
-668.062	-75.647	-0.560	-0.200
-667.047	-81.793	-0.144	0.047
-666.032	-121.317	0.418	-0.070
-665.018	122.154	0.526	0.661
-664.003	800.000	0.232	0.663
-662.989	697.120	0.322	-0.851
-661.974	-200.000	-0.003	-0.591
-660.959	13.496	0.245	-0.191
-659.945	63.291	-0.127	0.128
-658.930	34.578	-0.102	-0.090
-657.916	185.342	-0.475	0.709
-656.901	-6.629	-0.338	0.231
-655.886	204.235	-0.430	0.671
-654.872	100.607	-0.174	0.203
-653.857	-7.724	-0.404	-0.275
-652.843	-7.305	0.462	-0.315
-651.828	-86.690	-0.590	-0.182
-650.814	320.630	0.370	0.706
-649.799	116.194	-0.293	-0.360
-648.784	800.000	-0.214	-0.616
-647.770	15.830	-0.159	0.125
-646.755	-91.581	0.507	-0.145
-645.741	-37.785	-0.097	0.052
-644.726	-200.000	0.069	-0.390
-643.711	126.473	-0.222	0.283
-642.697	-128.256	0.415	-0.059
-641.682	-23.891	0.465	0.280
-640.668	27.299	0.594	0.502
-639.653	-36.931	-0.797	-0.430
-638.638	84.006	0.078	-0.086
-637.624	-33.644	0.328	-0.182
-636.609	-97.441	0.775	0.203
-635.595	-43.283	0.694	0.353
-634.580	164.361	0.243	0.345
-633.565	-99.825	-0.911	0.229
-632.551	68.419	-0.771	-0.795
-631.536	293.216	-0.091	0.167
-630.522	-200.000	0.061	0.607
-629.507	-200.000	-0.124	-0.666
-628.492	101.219	-0.542	0.635
-627.478	69.243	0.398	0.411
-626.463	-200.000	-0.162	0.950
-625.449	-77.353	-0.272	0.095
-624.434	-131.450	0.385	-0.051
-623.419	-96.063	0.573	0.153
-622.405	207.453	-0.183	-0.286
-621.390	20.126	0.526	-0.427
-620.376	39.886	0.373	-0.336
-619.361	-200.000	0.012	0.547
-618.346	-99.719	-0.386	-0.097
-617.332	-200.000	0.020	0.148
-616.317	30.542	-0.617	-0.530
-615.303	-114.344	0.364	0.070
-614.288	-58.120	-0.790	0.346
-613.273	-200.000	0.174	-0.812
-612.259	182.195	-0.263	-0.389
-611.244	800.000	0.335	-1.055
-610.230	735.829	0.366	-0.985
-609.215	158.240	-0.178	0.248
-608.201	-110.338	-0.550	-0.115
-607.186	800.000	-0.126	-0.358
-606.171	-28.603	-0.289	-0.167
-605.157	-200.000	-0.200	-1.451
-604.142	26.771	0.154	-0.130
-603.128	-49.484	-0.427	-0.204
-602.113	-200.000	0.065	0.521
-601.098	2.170	0.251	0.182
-600.084	-5.532	-0.182	0.125
-599.069	-81.385	0.529	0.175
-598.055	78.943	0.380	-0.408
-597.040	165.850	0.311	-0.441
-596.025	-127.907	1.064	-0.154
-595.011	21.272	0.522	0.426
-593.996	-32.802	0.114	0.064
-592.982	-200.000	0.032	0.251
-591.967	31.900	-0.374	0.323
-590.952	597.224	-0.096	0.238
-589.938	185.694	0.519	0.774
-588.923	-140.571	0.909	-0.095
-587.909	-108.303	0.287	0.062
-586.894	-200.000	-0.096	0.593
-585.879	-200.000	-0.114	0.504
-584.865	-80.014	0.747	-0.252
-583.850	-124.291	0.140	0.022
-582.836	591.166	-0.172	0.425
-581.821	-49.218	0.719	0.344
-580.806	-52.528	-0.262	-0.121
-579.792	305.453	-0.115	-0.215
-578.777	297.133	0.149	-0.273
-577.763	99.343	-0.398	-0.462
-576.748	-200.000	-0.061	0.567
-575.733	6.167	0.656	-0.488
-574.719	542.205	-0.248	-0.593
-573.704	13.470	-0.269	-0.209
-572.690	50.700	0.559	0.531
-571.675	-106.571	0.563	-0.126
-570.661	-141.271	-0.747	0.076
-569.646	295.160	0.085	0.155
-568.631	800.000	0.041	0.157
-567.617	75.435	-0.593	0.627
-566.602	15.797	0.130	-0.102
-565.588	800.000	0.078	0.316
-564.573	-116.591	0.907	-0.167
-563.558	10.586	0.717	0.548
-562.544	800.000	0.169	0.706
-561.529	-200.000	0.048	-0.299
-560.515	-200.000	-0.067	1.247
-559.500	35.872	-0.659	0.581
-558.485	-54.929	-1.380	-0.623
-557.471	-69.872	-0.520	-0.199
-556.456	-64.883	-0.615	-0.249
-555.442	-24.372	0.135	0.080
-554.427	-86.800	-0.472	0.145
-553.412	-143.853	0.124	-0.012
-552.398	-84.988	-0.793	0.249
-551.383	425.046	-0.142	0.305
-550.369	-136.658	-0.291	-0.034
-549.354	244.253	0.129	-0.217
-548.339	-200.000	-0.099	-0.674
-547.325	-33.282	0.314	-0.174
-546.310	499.941	0.192	0.444
-545.296	685.811	0.081	-0.213
-544.281	-200.000	0.005	0.358
-543.266	-200.000	-0.004	0.315
-542.252	338.429	-0.047	0.091
-541.237	565.441	-0.118	-0.286
-540.223	30.320	0.346	0.296
-539.208	66.121	-0.142	-0.144
-538.193	265.451	-0.404	-0.706
-537.179	-86.831	0.596	0.182
-536.164	153.025	0.115	-0.158
-535.150	52.219	0.232	0.222
-534.135	67.437	-0.116	0.119
-533.121	800.000	0.171	-0.541
-532.106	-2.385	-0.775	0.544
-531.091	462.304	-0.302	-0.676
-530.077	-86.499	0.409	0.126
-529.062	590.220	-0.189	-0.466
-528.048	23.944	-0.249	0.205
-527.033	227.119	-0.134	-0.218
-526.018	-200.000	-0.005	-0.044
-525.004	-200.000	0.015	0.197
-523.989	-75.083	0.233	0.084
-522.975	-200.000	-0.027	-0.528
-521.960	52.331	0.589	0.562
-520.945	-23.332	-0.592	-0.356
-519.931	-105.217	1.318	-0.301
-518.916	-200.000	-0.008	-0.127
-517.902	-50.028	0.654	-0.310
-516.887	57.705	0.412	-0.403
-515.872	4.453	0.667	-0.490
-514.858	195.591	0.407	0.619
-513.843	-4.143	-0.073	0.051
-512.829	-200.000	0.044	-0.473
-511.814	-200.000	0.014	-0.438
-510.799	-200.000	-0.005	0.287
-509.785	-73.526	-0.528	0.193
-508.770	-200.000	0.047	0.719
-507.756	100.822	-0.263	0.305
-506.741	413.781	-0.177	-0.376
-505.726	-57.569	-0.340	0.149
-504.712	65.772	0.387	0.392
-503.697	800.000	0.039	0.157
-502.683	748.059	-0.048	0.130
-501.668	-87.508	-0.242	-0.073
-500.653	173.843	-0.288	-0.416
-499.639	250.370	0.500	0.849
-498.624	-165.833	-0.361	-0.016
-497.610	-149.490	0.392	-0.031
-496.595	-40.223	-0.827	-0.430
-495.581	-167.083	-0.175	0.007
-494.566	-111.161	1.257	-0.257
-493.551	155.039	0.111	0.152
-492.537	-200.000	-0.236	1.290
-491.522	-100.019	0.230	0.057
-490.508	-200.000	0.039	0.230
-489.493	-200.000	-0.104	0.556
-488.478	307.241	0.088	0.164
-487.464	-191.817	0.631	-0.006
-486.449	-147.944	-0.439	0.037
-485.435	377.257	-0.347	0.709
-484.420	-200.000	-0.064	0.825
-483.405	137.719	0.452	0.592
-482.391	6.367	0.855	0.634
-481.376	36.457	-0.251	-0.222
-480.362	-200.000	-0.005	-0.234
-479.347	-58.795	0.183	0.079
-478.332	59.115	0.521	0.512
-477.318	50.705	0.568	0.537
-476.303	800.000	0.075	0.260
-475.289	-200.000	0.048	0.452
-474.274	424.915	0.138	-0.297
-473.259	-24.934	-0.757	-0.449
-472.245	-22.644	0.086	0.052
-471.230	-52.927	0.992	0.456
-470.216	129.475	-0.445	0.568
-469.201	34.918	-0.558	-0.488
-468.186	183.418	-0.053	0.077
-467.172	26.055	0.143	0.119
-466.157	-63.335	-0.096	-0.039
-465.143	-200.000	0.018	-0.634
-464.128	372.118	-0.064	0.131
-463.113	-171.499	0.401	-0.013
-462.099	-200.000	0.141	1.010
-461.084	-173.142	-0.262	0.008
-460.070	-119.260	0.761	0.132
-459.055	194.102	0.242	-0.366
-458.040	-59.061	-0.582	0.251
-457.026	-24.906	-0.436	-0.258
-456.011	-111.252	-0.546	-0.111
-454.997	124.809	-0.468	0.589
-453.982	16.378	-0.389	0.306
-452.968	137.602	0.362	-0.473
-451.953	-4.851	-0.673	-0.463
-450.938	213.126	-0.348	0.549
-449.924	345.299	0.100	-0.197
-448.909	800.000	-0.246	0.706
-447.895	-143.725	0.656	-0.062
-446.880	278.204	0.211	0.375
-445.865	279.011	-0.335	-0.597
-444.851	-83.801	0.280	-0.089
-443.836	-88.214	-0.591	0.177
-442.822	-27.370	-0.171	-0.099
-441.807	-200.000	-0.007	-0.386
-440.792	-200.000	0.056	1.039
-439.778	-200.000	-0.032	-0.160
-438.763	800.000	0.116	0.507
-437.749	-200.000	-0.053	-0.470
-436.734	-189.220	-0.997	0.012
-435.719	-200.000	-0.011	0.236
-434.705	17.716	0.207	0.164
-433.690	-149.471	0.855	0.068
-432.676	-200.000	-0.059	0.544
-431.661	5.243	0.233	-0.171
-430.646	-200.000	-0.034	-0.526
-429.632	-80.265	-0.622	0.208
-428.617	800.000	0.007	0.023
-427.603	260.576	0.336	-0.580
-426.588	-66.671	-0.096	0.038
-425.573	-200.000	0.081	0.614
-424.559	-198.198	-0.377	-0.002
-423.544	558.412	0.101	0.243
-422.530	181.560	-0.327	0.480
-421.515	173.563	0.230	0.331
-420.500	-200.000	-0.568	0.002
-419.486	-65.798	0.934	0.373
-418.471	-200.000	-0.136	0.000
-417.457	137.913	-0.282	-0.368
-416.442	502.778	-0.059	0.135
-415.428	148.992	0.354	0.477
-414.413	494.282	0.090	0.206
-413.398	-200.000	-0.129	-0.916
-412.384	413.167	0.116	0.247
-411.369	225.524	-0.309	-0.499
-410.355	-65.932	-0.248	0.099
-409.340	683.374	-0.399	-1.036
-408.325	-200.000	0.017	0.295
-407.311	800.000	0.317	-0.998
-406.296	-200.000	-0.065	0.491
-405.282	-91.618	-0.623	-0.177
-404.267	-16.499	0.584	-0.369
-403.252	-45.988	0.618	0.303
-402.238	36.350	0.350	-0.308
-401.223	-4.604	-0.964	0.663
-400.209	381.583	-0.055	-0.112
-399.194	-52.687	0.276	-0.127
-398.179	-200.000	-0.055	-0.368
-397.165	-200.000	0.073	0.949
-396.150	800.000	0.113	0.429
-395.136	800.000	-0.157	0.608
-394.121	-200.000	-0.097	0.590
-393.106	-17.691	-0.666	0.417
-392.092	-85.786	0.142	-0.044
-391.077	41.133	-0.395	-0.355
-390.063	216.093	0.552	0.873
-389.048	-200.000	0.145	0.653
-388.033	-39.910	-0.424	-0.220
-387.019	800.000	-0.154	-0.629
-386.004	126.578	0.584	0.736
-384.990	-106.957	0.785	0.173
-383.975	-200.000	-0.050	-0.925
-382.960	145.386	-0.167	-0.222
-381.946	-151.870	0.527	0.038
-380.931	-200.000	-0.068	-0.594
-379.917	800.000	-0.159	0.680
-378.902	-98.196	-0.115	-0.029
-377.888	-200.000	0.141	-0.699
-376.873	-43.476	-0.436	0.219
-375.858	18.445	0.205	0.163
-374.844	8.763	-0.873	0.655
-373.829	8.804	-0.631	-0.474
-372.815	422.881	-0.002	-0.003
-371.800	272.819	-0.196	0.344
-370.785	-124.376	-0.375	-0.058
-369.771	445.558	0.253	-0.554
-368.756	654.890	0.221	0.564
-367.742	-159.571	-0.472	-0.026
-366.727	-200.000	0.013	-1.014
-365.712	379.747	0.463	-0.944
-364.698	-159.267	-0.873	-0.049
-363.683	724.317	-0.232	0.615
-362.669	-200.000	0.004	-0.472
-361.654	683.270	0.219	-0.568
-360.639	474.066	0.147	-0.329
-359.625	-36.397	-0.646	0.346
-358.610	155.252	-0.117	0.160
-357.596	38.696	-0.984	-0.873
-356.581	-33.806	0.697	0.382
-355.566	231.114	0.424	0.691
-354.552	213.220	-0.379	0.595
-353.537	-23.591	-0.315	0.188
-352.523	572.435	-0.044	0.107
-351.508	370.354	-0.181	0.365
-350.493	-153.065	0.719	-0.050
-349.479	307.328	0.373	-0.690
-348.464	22.450	0.249	0.202
-347.450	689.170	0.165	-0.430
-346.435	350.588	-0.325	0.639
-345.420	-118.631	-0.209	0.037
-344.406	-84.882	-0.858	0.268
-343.391	-96.266	-0.283	0.075
-342.377	-146.289	0.478	-0.042
-341.362	-146.081	-0.572	0.050
-340.348	-85.070	0.862	-0.268
-339.333	-55.665	0.632	-0.281
-338.318	5.164	-0.160	-0.117
-337.304	207.426	0.176	-0.273
-336.289	-200.000	-0.074	-0.652
-335.275	-141.193	-0.539	-0.055
-334.260	-108.309	-0.840	-0.180
-333.245	-200.000	-0.129	-0.780
-332.231	113.527	0.325	-0.392
-331.216	-124.031	-0.203	-0.032
-330.202	800.000	-0.034	-0.135
-329.187	187.883	-0.612	-0.907
-328.172	25.826	-0.542	-0.448
-327.158	-127.335	-0.793	-0.115
-326.143	-28.254	0.650	-0.373
-325.129	-41.854	-0.135	-0.069
-324.114	-68.740	0.248	0.095
-323.099	-57.319	-0.455	-0.199
-322.085	-3.591	0.496	0.343
-321.070	-135.532	-0.519	0.061
-320.056	35.769	-0.566	-0.494
-319.041	645.449	-0.214	-0.542
-318.026	-90.725	-0.866	0.248
-317.012	-200.000	-0.053	-1.043
-315.997	-200.000	-0.069	0.757
-314.983	16.800	-0.382	-0.300
-313.968	800.000	0.278	0.779
-312.953	244.879	0.514	0.857
-311.939	211.320	-0.052	0.082
-310.924	-200.000	-0.006	-0.213
-309.910	125.387	0.265	-0.332
-308.895	-115.776	0.340	0.063
-307.880	-169.571	0.790	-0.029
-306.866	53.754	-0.576	0.549
-305.851	245.388	0.185	0.309
-304.837	485.266	-0.368	-0.833
-303.822	-200.000	0.003	0.350
-302.807	-88.775	1.101	-0.325
-301.793	402.574	0.553	1.153
-300.778	-1.463	1.071	-0.749
-299.764	221.487	-0.070	0.111
-298.749	34.634	-0.128	-0.111
-297.735	46.078	0.127	-0.116
-296.720	85.278	0.170	0.185
-295.705	53.719	-0.896	-0.853
-294.691	-71.509	1.459	-0.541
-293.676	-43.460	-0.725	0.363
-292.662	-200.000	0.012	0.260
-291.647	233.256	-0.146	0.238
-290.632	55.314	0.645	0.618
-289.618	-200.000	0.005	0.541
-288.603	-57.269	-0.627	0.273
-287.589	-85.609	0.443	-0.136
-286.574	-200.000	-0.022	-0.419
-285.559	800.000	-0.101	-0.387
-284.545	-0.266	0.384	0.271
-283.530	-103.227	0.128	0.030
-282.516	-200.000	-0.969	0.002
-281.501	284.660	-0.276	0.493
-280.486	-151.655	-0.470	-0.034
-279.472	800.000	-0.100	0.405
-278.457	294.930	0.154	0.279
-277.443	-200.000	-0.028	-0.378
-276.428	800.000	-0.080	0.235
-275.413	-33.921	-0.759	0.414
-274.399	586.173	-0.102	-0.249
-273.384	-119.506	-0.320	-0.055
-272.370	-100.957	-0.068	0.017
-271.355	-36.582	0.328	0.175
-270.340	-50.559	-1.144	-0.535
-269.326	375.121	0.318	-0.643
-268.311	-200.000	0.090	0.412
-267.297	246.291	0.298	0.497
-266.282	-200.000	0.059	-0.270
-265.267	45.194	-0.104	-0.095
-264.253	-98.847	-0.293	-0.074
-263.238	-58.514	-0.315	-0.136
-262.224	-200.000	0.095	-0.423
-261.209	44.588	0.969	-0.882
-260.195	-200.000	-0.059	-0.609
-259.180	116.495	-0.618	0.750
-258.165	25.437	-0.628	0.517
-257.151	799.109	0.303	-0.829
-256.136	-200.000	-0.056	0.301
-255.122	-200.000	-0.812	-0.001
-254.107	-87.581	0.839	-0.251
-253.092	257.944	0.156	0.266
-252.078	-19.476	-0.689	-0.423
-251.063	740.053	-0.168	-0.447
-250.049	3.610	0.061	-0.044
-249.034	14.916	-0.505	-0.392
-248.019	-23.859	0.592	-0.351
-247.005	771.344	-0.146	0.395
-245.990	141.967	0.537	-0.705
-244.976	189.213	0.266	-0.395
-243.961	-137.748	0.326	-0.036
-242.946	-160.676	-1.023	-0.054
-241.932	165.336	-0.257	-0.359
-240.917	0.105	0.093	0.066
-239.903	-19.683	-0.522	0.319
-238.888	-200.000	0.019	-0.177
-237.873	-200.000	0.034	-0.628
-236.859	4.491	-0.435	-0.316
-235.844	281.329	-0.222	-0.394
-234.830	-157.379	0.398	0.024
-233.815	800.000	-0.168	0.475
-232.800	-92.664	-0.107	-0.030
-231.786	150.122	-0.247	0.331
-230.771	344.214	0.391	0.758
-229.757	569.736	-0.123	0.297
-228.742	800.000	-0.147	-0.435
-227.727	-200.000	0.308	-0.001
-226.713	26.284	0.269	-0.223
-225.698	241.907	0.216	0.357
-224.684	205.477	-0.344	0.529
-223.669	-200.000	-0.052	-0.849
-222.655	-200.000	-0.004	-0.856
-221.640	224.866	0.263	-0.420
-220.625	-125.745	0.825	0.123
-219.611	313.970	0.308	-0.574
-218.596	453.667	0.194	-0.425
-217.582	-126.529	0.912	-0.134
-216.567	-48.090	-0.419	0.200
-215.552	-119.166	-0.631	0.109
-214.538	535.642	-0.219	-0.514
-213.523	-200.000	0.067	0.385
-212.509	-170.221	0.486	-0.017
-211.494	-2.942	-0.501	0.346
-210.479	338.139	0.481	0.926
-209.465	-115.682	0.576	0.107
-208.450	544.304	-0.124	0.293
-207.436	178.632	-0.373	-0.538
-206.421	-200.000	-0.008	-0.699
-205.406	-107.589	-0.641	-0.139
-204.392	-58.146	-0.648	0.279
-203.377	-84.843	0.684	-0.212
-202.363	-38.228	0.783	0.410
-201.348	-72.679	-0.231	0.084
-200.333	-132.606	0.766	0.097
-199.319	800.000	0.223	-0.670
-198.304	-97.777	-0.215	-0.055
-197.290	136.981	0.890	-1.150
-196.275	390.230	-0.063	-0.129
-195.260	307.873	-0.324	-0.597
-194.246	-200.000	-0.117	-0.778
-193.231	601.199	0.291	0.715
-192.217	-125.572	0.923	0.138
-191.202	-200.000	-0.019	0.242
-190.187	74.433	0.777	0.807
-189.173	58.269	0.157	0.152
-188.158	95.952	-0.737	-0.832
-187.144	-200.000	0.022	0.170
-186.129	3.347	-0.311	-0.224
-185.114	-16.723	0.488	-0.305
-184.100	74.539	-0.239	-0.248
-183.085	-139.857	-0.598	-0.063
-182.071	48.873	-0.606	-0.562
-181.056	-200.000	-0.058	0.272
-180.042	298.448	0.260	0.472
-179.027	389.045	0.154	0.316
-178.012	-152.525	-0.626	0.044
-176.998	150.917	0.800	1.074
-175.983	402.156	-0.059	-0.123
-174.969	-113.026	-0.821	0.160
-173.954	-120.348	0.655	-0.110
-172.939	-77.328	0.791	-0.272
-171.925	-56.082	0.094	-0.041
-170.910	255.056	-0.047	0.080
-169.896	-200.000	0.024	0.133
-168.881	613.336	0.158	0.389
-167.866	-200.000	-0.033	-0.678
-166.852	286.480	-0.348	0.620
-165.837	-101.281	-0.704	-0.170
-164.823	-147.877	-0.101	-0.008
-163.808	-165.488	1.031	-0.044
-162.793	-171.201	0.737	-0.025
-161.779	91.723	0.430	0.477
-160.764	-54.941	0.115	0.051
-159.750	-107.016	0.704	-0.154
-158.735	-108.636	0.672	-0.142
-157.720	-200.000	0.219	-1.156
-156.706	-111.634	-0.607	0.121
-155.691	32.805	-0.276	0.235
-154.677	-29.620	-0.444	0.250
-153.662	67.418	-0.198	0.200
-152.647	-91.765	-0.676	0.190
-151.633	-76.228	-0.692	0.241
-150.618	-200.000	0.025	-0.279
-149.604	800.000	-0.411	1.184
-148.589	-20.292	-0.912	0.554
-147.574	472.342	0.183	-0.407
-146.560	761.802	0.057	-0.152
-145.545	-162.964	0.485	0.023
-144.531	-113.315	-0.381	0.074
-143.516	272.364	0.242	-0.421
-142.502	320.867	-0.740	-1.386
-141.487	51.456	-0.516	0.483
-140.472	109.507	0.657	0.776
-139.458	-136.482	-0.553	0.063
-138.443	487.579	0.297	0.669
-137.429	-79.774	-0.186	-0.062
-136.414	-86.876	-0.675	0.203
-135.399	-200.000	-0.039	1.071
-134.385	287.867	0.179	-0.320
-133.370	188.730	0.180	-0.265
-132.356	298.247	-0.196	0.355
-131.341	-103.240	0.681	-0.159
-130.326	800.000	-0.115	-0.430
-129.312	265.656	0.150	0.258
-128.297	19.279	0.659	0.522
-127.283	-175.093	-0.117	-0.003
-126.268	-200.000	0.026	1.266
-125.253	-100.047	0.359	0.088
-124.239	165.217	-0.370	0.515
-123.224	396.174	-0.088	0.181
-122.210	-200.000	-0.031	-0.571
-121.195	-91.956	1.098	-0.307
-120.180	-1.420	1.350	-0.938
-119.166	-200.000	0.010	0.474
-118.151	0.275	-0.158	-0.111
-117.137	-51.421	0.536	-0.247
-116.122	33.572	-0.776	0.664
-115.107	-200.000	-0.007	0.295
-114.093	18.194	-0.916	0.720
-113.078	-21.338	-0.327	0.197
-112.064	-200.000	0.019	-0.256
-111.049	57.366	-0.640	0.616
-110.034	437.451	0.141	-0.303
-109.020	-200.000	0.050	-0.310
-108.005	69.050	0.389	-0.394
-106.991	-69.940	-0.099	-0.037
-105.976	33.313	0.232	0.199
-104.962	201.994	0.364	0.552
-103.947	-200.000	-0.035	0.458
-102.932	13.579	0.129	0.099
-101.918	364.397	-0.248	0.491
-100.903	-142.892	0.538	0.051
-99.889	-98.383	0.478	-0.120
-98.874	-200.000	0.142	-0.861
-97.859	-200.000	-0.014	-0.302
-96.845	303.667	0.380	-0.693
-95.830	800.000	-0.143	-0.578
-94.816	251.874	0.300	-0.503
-93.801	-200.000	0.004	0.820
-92.786	-200.000	-0.031	-0.636
-91.772	800.000	0.112	0.416
-90.757	-176.133	0.184	-0.005
-89.743	-200.000	0.176	1.059
-88.728	-138.557	1.089	0.118
-87.713	177.577	-0.204	0.293
-86.699	53.109	-0.318	-0.299
-85.684	-92.166	-0.401	0.111
-84.670	-29.738	-0.670	-0.376
-83.655	-111.294	0.408	-0.082
-82.640	-36.699	0.619	0.327
-81.626	-96.323	0.631	0.164
-80.611	-131.780	0.931	0.120
-79.597	209.577	0.469	0.724
-78.582	-200.000	0.020	0.754
-77.567	-106.969	-0.667	-0.145
-76.553	-200.000	-0.004	0.329
-75.538	-64.686	-0.488	0.195
-74.524	-176.647	0.326	0.008
-73.509	150.725	0.444	0.594
-72.494	-4.145	-0.344	0.234
-71.480	96.302	0.505	0.567
-70.465	-200.000	0.091	-0.775
-69.451	66.306	0.297	0.297
-68.436	-126.168	-1.334	0.196
-67.422	90.395	0.538	0.592
-66.407	-64.095	0.542	-0.218
-65.392	78.813	0.612	0.644
-64.378	-200.000	0.034	0.806
-63.363	-4.710	-0.596	-0.404
-62.349	-7.667	-0.286	0.190
-61.334	-43.900	-1.210	-0.598
-60.319	-115.905	0.964	0.177
-59.305	698.677	0.456	-1.178
-58.290	177.445	0.533	0.763
-57.276	800.000	0.482	1.590
-56.261	-200.000	97.921	601.949
-55.246	618.336	1376.435	3396.682
-54.232	200.233	2544.719	3840.727
-53.217	116.903	2140.269	2582.066
-52.203	42.103	1687.472	1505.313
-51.188	34.946	1500.836	1290.704
-50.173	32.514	1474.543	1251.898
-49.159	53.005	1528.191	1436.698
-48.144	53.861	1544.894	1458.136
-47.130	35.316	1503.116	1294.955
-46.115	31.916	1488.414	1259.456
-45.100	31.819	1485.027	1255.891
-44.086	31.844	1482.647	1253.994
-43.071	31.909	1480.998	1252.986
-42.057	31.786	1479.828	1251.124
-41.042	31.815	1477.868	1249.610
-40.027	31.833	1477.099	1249.029
-39.013	31.546	1476.377	1246.456
-37.998	31.772	1474.230	1246.099
-36.984	31.554	1474.000	1244.405
-35.969	31.752	1471.793	1243.807
-34.954	31.693	1469.613	1241.525
-33.940	31.882	1469.155	1242.342
-32.925	31.668	1468.390	1240.227
-31.911	31.507	1466.572	1237.578
-30.896	31.970	1464.188	1238.575
-29.881	32.103	1462.255	1237.767
-28.867	31.819	1462.313	1235.898
-27.852	31.631	1461.082	1233.569
-26.838	31.674	1459.815	1232.728
-25.823	31.544	1458.675	1230.862
-24.809	31.733	1456.816	1230.491
-23.794	31.869	1454.650	1229.505
-22.779	31.601	1454.613	1227.665
-21.765	31.586	1454.037	1227.030
-20.750	31.823	1451.529	1226.420
-19.736	31.828	1451.022	1225.976
-18.721	31.708	1450.146	1224.402
-17.706	31.638	1449.431	1223.292
-16.692	31.393	1448.452	1220.817
-15.677	31.795	1445.340	1220.763
-14.663	31.690	1445.154	1219.876
-13.648	31.545	1444.885	1218.655
-12.633	31.818	1443.321	1219.062
-11.619	31.550	1442.815	1216.842
-10.604	31.686	1442.361	1217.296
-9.590	31.705	1441.116	1216.319
-8.575	31.705	1439.797	1215.157
-7.560	31.507	1439.307	1213.412
-6.546	31.692	1438.661	1214.021
-5.531	31.615	1437.398	1212.408
-4.517	31.578	1436.970	1211.762
-3.502	31.399	1435.719	1209.499
-2.487	31.645	1434.696	1210.181
-1.473	31.566	1434.255	1209.246
-0.458	31.606	1432.137	1207.670
0.556	32.946	1422.549	1196.259
1.571	29.738	1398.280	1155.731
2.586	26.363	1338.640	1086.107
3.600	24.527	1259.939	1011.768
4.615	22.982	1214.409	966.674
5.629	20.207	1158.390	907.504
6.644	11.591	1074.247	799.520
7.659	4.714	1034.307	737.237
8.673	3.793	1028.227	728.499
9.688	3.337	1025.787	724.559
10.702	3.165	1023.926	722.372
11.717	3.426	1022.510	722.535
12.731	6.432	1025.044	738.367
13.746	15.191	1036.900	788.212
14.761	22.549	1045.355	829.335
15.775	24.098	1048.189	838.812
16.790	24.137	1045.999	837.171
17.804	23.670	1044.541	833.737
18.819	23.143	1044.720	831.328
19.834	22.756	1043.078	828.133
20.848	23.000	1042.280	828.569
21.863	22.919	1042.508	828.297
22.877	23.178	1042.336	829.302
23.892	23.129	1040.524	827.559
24.907	22.789	1040.372	825.774
25.921	23.135	1038.849	826.109
26.936	22.644	1038.848	823.740
27.950	22.956	1036.969	823.630
28.965	22.372	1036.087	820.140
29.980	22.262	1035.569	819.144
30.994	22.581	1034.406	819.636
32.009	22.687	1033.693	819.489
33.023	23.033	1032.583	820.144
34.038	22.684	1033.026	818.804
35.053	22.754	1031.342	817.719
36.067	22.667	1030.714	816.748
37.082	22.609	1029.222	815.222
38.096	22.941	1028.471	816.090
39.111	22.777	1029.191	815.833
40.126	22.774	1027.021	814.027
41.140	22.595	1026.539	812.746
42.155	22.717	1024.013	811.237
43.169	22.172	1023.671	808.385
44.184	21.933	1022.580	806.354
45.199	21.816	1021.933	805.235
46.213	22.157	1020.817	805.851
47.228	22.336	1019.379	805.464
48.242	22.795	1019.066	807.243
49.257	22.932	1019.411	808.074
50.271	22.900	1018.299	806.976
51.286	22.786	1018.432	806.486
52.301	22.552	1018.003	805.008
53.315	23.202	1015.399	805.836
54.330	22.989	1016.089	805.344
55.344	22.651	1015.118	802.961
56.359	22.537	1013.756	801.294
57.374	22.554	1012.721	800.484
58.388	22.444	1012.846	800.012
59.403	22.423	1011.215	798.558
60.417	22.414	1010.314	797.738
61.432	22.241	1009.445	796.193
62.447	22.305	1008.793	795.900
63.461	22.361	1007.190	794.818
64.476	21.908	1007.321	792.806
65.490	21.920	1007.147	792.651
66.505	22.168	1005.330	792.272
67.520	21.808	1004.519	789.939
68.534	22.272	1003.725	791.332
69.549	22.266	1003.001	790.664
70.563	21.906	1001.355	787.682
71.578	21.854	1001.105	787.181
72.593	21.622	1000.439	785.547
73.607	21.461	999.698	784.176
74.622	21.522	998.292	783.275
75.636	21.340	998.323	782.418
76.651	21.719	996.155	782.339
77.666	21.815	995.692	782.336
78.680	21.900	995.900	782.807
79.695	21.676	995.717	781.596
80.709	21.706	994.342	780.580
81.724	21.617	993.657	779.581
82.739	21.849	992.955	779.992
83.753	22.149	992.766	781.109
84.768	22.770	992.469	783.565
85.782	22.917	992.488	784.159
86.797	23.256	991.624	784.912
87.812	23.094	991.413	783.959
88.826	23.482	989.157	783.818
89.841	22.808	989.289	780.873
90.855	22.983	989.191	781.504
91.870	23.203	987.878	781.366
92.884	23.270	986.843	780.773
93.899	23.142	986.820	780.121
94.914	23.102	985.258	778.643
95.928	23.053	984.565	777.810
96.943	23.141	983.899	777.602
97.957	22.876	982.376	775.166
98.972	22.559	982.143	773.521
99.987	22.811	981.145	773.773
101.001	22.880	980.769	773.710
102.016	22.807	979.276	772.146
103.030	22.824	978.334	771.408
104.045	23.167	977.258	771.988
105.060	23.213	977.174	772.054
106.074	23.148	976.317	771.025
107.089	23.060	975.512	769.940
108.103	22.881	973.512	767.515
109.118	22.614	972.961	765.853
110.133	22.144	971.773	762.810
111.147	21.819	971.001	760.728
112.162	21.933	970.107	760.455
113.176	21.795	968.923	758.862
114.191	21.779	968.230	758.181
115.206	22.069	967.482	758.780
116.220	22.054	966.690	758.028
117.235	22.129	965.595	757.425
118.249	22.113	964.610	756.520
119.264	21.711	964.577	754.693
120.279	21.615	963.594	753.446
121.293	21.518	962.416	752.042
122.308	21.607	961.689	751.788
123.322	21.602	960.557	750.814
124.337	21.441	959.950	749.585
125.352	21.349	958.337	747.864
126.366	21.455	957.599	747.675
127.381	21.467	956.415	746.735
128.395	21.839	954.801	746.994
129.410	21.556	955.123	745.975
130.424	21.994	954.305	747.136
131.439	21.806	954.133	746.134
132.454	22.045	952.980	746.180
133.468	22.322	952.552	746.955
134.483	22.391	951.314	746.211
135.497	22.364	950.974	745.766
136.512	22.116	950.741	744.468
137.527	22.414	949.322	744.548
138.541	22.125	948.625	742.715
139.556	22.330	948.043	743.062
140.570	22.291	947.646	742.520
141.585	22.256	946.495	741.405
142.600	22.710	946.119	742.957
143.614	22.630	946.495	742.851
144.629	22.930	945.818	743.513
145.643	23.251	945.433	744.496
146.658	23.178	943.713	742.770
147.673	22.900	942.248	740.386
148.687	22.711	941.459	738.908
149.702	22.169	940.878	736.115
150.716	22.372	938.968	735.405
151.731	22.428	938.327	735.075
152.746	22.320	938.128	734.402
153.760	22.309	937.885	734.099
154.775	22.773	936.239	734.679
155.789	22.684	936.319	734.308
156.804	22.658	935.094	733.172
157.819	22.887	933.549	732.847
158.833	22.814	932.885	731.959
159.848	22.846	933.309	732.360
160.862	23.432	931.870	733.589
161.877	23.246	931.779	732.685
162.892	22.791	930.062	729.390
163.906	22.283	929.948	727.138
164.921	22.342	928.258	725.992
165.935	22.156	927.534	724.596
166.950	22.121	927.093	724.043
167.964	22.651	924.808	724.373
168.979	22.435	925.416	723.897
169.994	22.566	923.434	722.821
171.008	22.245	922.606	720.792
172.023	22.601	922.265	721.921
173.037	22.996	921.225	722.659
174.052	23.082	920.755	722.576
175.067	22.501	921.509	720.729
176.081	22.776	918.856	719.713
177.096	22.006	918.617	716.320
178.110	22.148	918.083	716.419
179.125	21.980	916.536	714.467
180.140	22.323	915.271	714.809
181.154	22.195	914.971	713.991
182.169	22.334	914.293	713.965
183.183	22.747	914.388	715.649
184.198	22.679	914.774	715.612
185.213	22.783	913.167	714.712
186.227	22.626	913.066	713.934
187.242	22.416	912.678	712.718
188.256	23.133	910.985	714.231
189.271	23.282	910.670	714.521
190.286	23.133	909.192	712.699
191.300	22.764	909.701	711.544
192.315	22.371	907.627	708.280
193.329	21.860	907.163	705.801
194.344	21.994	906.536	705.787
195.359	21.755	907.337	705.386
196.373	22.376	906.293	707.009
197.388	22.584	906.448	707.905
198.402	22.707	906.105	708.065
199.417	23.059	905.869	709.230
200.432	23.098	906.192	709.576
201.446	23.184	904.773	708.750
202.461	23.348	904.965	709.493
203.475	23.527	904.298	709.623
204.490	23.195	903.236	707.401
205.504	22.943	901.195	704.736
206.519	22.784	900.058	703.149
207.534	22.871	899.943	703.342
208.548	22.598	900.262	702.441
209.563	22.969	898.730	702.660
210.577	22.602	897.497	700.176
211.592	22.827	896.984	700.607
212.607	23.101	897.261	701.850
213.621	23.216	897.407	702.357
214.636	23.354	896.268	701.952
215.650	23.238	895.558	700.874
216.665	23.561	894.818	701.511
217.680	23.155	894.192	699.354
218.694	23.340	893.875	699.774
219.709	23.353	893.468	699.447
220.723	23.049	893.348	698.089
221.738	23.195	891.827	697.415
222.753	23.218	890.226	696.191
223.767	22.618	890.375	693.887
224.782	23.235	889.399	695.487
225.796	22.817	888.989	693.464
226.811	23.077	889.585	694.888
227.826	22.941	888.485	693.435
228.840	22.777	887.298	691.803
229.855	22.612	886.750	690.669
230.869	22.509	886.602	690.089
231.884	22.660	884.806	689.221
232.899	22.635	884.533	688.848
233.913	22.969	883.215	689.064
234.928	22.735	882.525	687.555
235.942	22.347	882.881	686.257
236.957	22.108	881.846	684.462
237.972	22.413	880.133	684.256
238.986	22.379	879.901	683.885
240.001	22.254	879.829	683.281
241.015	22.454	878.270	682.788
242.030	22.723	878.167	683.689
243.045	22.792	877.016	682.998
244.059	22.789	877.532	683.326
245.074	22.770	876.986	682.770
246.088	22.829	876.688	682.703
247.103	22.905	875.825	682.265
248.117	23.016	875.788	682.604
249.132	23.726	875.333	684.930
250.147	23.778	875.206	684.968
251.161	23.901	875.064	685.271
252.176	24.131	875.204	686.209
253.190	24.006	874.717	685.284
254.205	24.444	873.568	686.007
255.220	24.481	872.926	685.583
256.234	24.550	871.753	684.867
257.249	24.339	870.059	682.667
258.263	24.137	870.430	682.123
259.278	23.777	870.971	681.107
260.293	23.801	870.283	680.603
261.307	23.894	869.295	680.123
262.322	24.238	868.672	680.891
263.336	24.271	868.577	680.885
264.351	24.059	867.488	679.159
265.366	23.963	867.099	678.429
266.380	23.764	866.863	677.425
267.395	23.720	866.040	676.557
268.409	24.022	864.295	676.281
269.424	23.811	864.565	675.629
270.439	23.760	863.953	674.898
271.453	23.822	862.958	674.297
272.468	24.020	862.027	674.260
273.482	23.839	861.420	673.038
274.497	23.954	861.406	673.406
275.512	23.791	860.304	671.867
276.526	23.975	858.510	671.099
277.541	23.887	858.987	671.084
278.555	23.882	858.703	670.781
279.570	24.442	856.689	671.258
280.585	24.383	857.744	671.801
281.599	24.339	857.986	671.767
282.614	23.535	856.632	667.622
283.628	23.810	854.499	666.932
284.643	23.631	854.729	666.382
285.657	23.698	854.438	666.348
286.672	23.446	854.402	665.313
287.687	23.736	854.326	666.285
288.701	23.994	852.924	666.100
289.716	23.626	852.403	664.254
290.730	23.582	852.796	664.337
291.745	23.755	851.484	663.903
292.760	23.902	850.431	663.571
293.774	23.736	849.937	662.508
294.789	24.268	850.444	664.831
295.803	24.754	849.701	666.001
296.818	23.832	849.557	662.395
297.833	23.624	848.564	660.787
298.847	23.664	846.848	659.541
299.862	23.635	846.259	658.917
300.876	23.706	845.970	658.897
301.891	24.084	845.212	659.650
302.906	24.598	844.535	660.963
303.920	24.336	845.275	660.515
304.935	24.407	844.698	660.269
305.949	24.885	844.028	661.452
306.964	24.761	842.532	659.766
307.979	24.019	842.707	657.107
308.993	24.093	841.721	656.550
310.008	24.256	841.790	657.146
311.022	24.577	840.601	657.342
312.037	24.719	839.835	657.207
313.052	24.035	839.994	654.759
314.066	24.105	838.390	653.708
315.081	23.473	837.854	650.912
316.095	23.596	836.653	650.371
317.110	24.016	836.498	651.731
318.125	23.703	835.821	650.003
319.139	23.291	837.059	649.395
320.154	23.238	835.603	648.017
321.168	23.215	835.543	647.826
322.183	23.376	834.519	647.565
323.197	23.814	833.725	648.491
324.212	23.760	832.701	647.440
325.227	23.769	832.607	647.340
326.241	23.584	833.156	647.036
327.256	23.544	832.422	646.264
328.270	23.325	831.053	644.347
329.285	23.405	830.012	643.774
330.300	23.371	830.316	643.830
331.314	23.105	830.030	642.586
332.329	23.083	829.102	641.729
333.343	23.834	827.908	643.466
334.358	24.206	827.770	644.649
335.373	24.308	826.771	644.182
336.387	24.056	826.853	643.279
337.402	23.965	827.471	643.374
338.416	24.035	826.229	642.606
339.431	24.177	826.528	643.292
340.446	24.332	825.586	643.063
341.460	24.827	824.998	644.329
342.475	24.932	825.273	644.867
343.489	24.891	824.802	644.293
344.504	24.553	824.400	642.707
345.519	24.955	823.602	643.471
346.533	25.308	822.698	643.976
347.548	25.250	822.191	643.312
348.562	24.591	821.435	640.305
349.577	24.567	821.412	640.143
350.592	23.887	820.858	637.218
351.606	24.077	819.854	637.062
352.621	24.308	818.851	637.052
353.635	24.114	818.231	635.821
354.650	24.255	818.172	636.222
355.665	23.902	817.767	634.592
356.679	24.188	816.520	634.588
357.694	24.073	817.258	634.694
358.708	24.254	816.306	634.544
359.723	24.477	815.108	634.347
360.738	24.230	814.451	632.904
361.752	24.290	813.451	632.282
362.767	24.272	814.327	632.845
363.781	24.405	815.238	633.969
364.796	25.001	814.200	635.220
365.810	25.021	813.661	634.815
366.825	25.191	812.768	634.663
367.840	24.888	813.720	634.275
368.854	25.206	812.449	634.355
369.869	25.302	811.369	633.795
370.883	24.872	810.777	631.759
371.898	24.606	810.253	630.356
372.913	24.957	809.319	630.811
373.927	24.989	809.601	631.087
374.942	24.866	808.111	629.436
375.956	24.611	808.496	628.785
376.971	24.787	807.197	628.335
377.986	25.449	806.403	629.984
379.000	25.215	806.878	629.480
380.015	25.362	805.864	629.146
381.029	25.265	806.111	628.944
382.044	25.251	804.596	627.659
383.059	25.355	804.050	627.540
384.073	25.404	803.460	627.196
385.088	25.397	803.057	626.800
386.102	24.995	802.344	624.788
387.117	24.324	802.170	622.254
388.132	24.579	801.297	622.413
389.146	24.398	800.738	621.293
390.161	24.315	800.089	620.445
391.175	24.880	799.864	622.179
392.190	25.357	799.661	623.623
393.205	25.237	799.043	622.670
394.219	24.700	798.050	619.980
395.234	24.632	796.976	618.855
396.248	23.617	797.649	615.804
397.263	24.131	796.340	616.517
398.278	24.328	795.950	616.845
399.292	23.804	795.943	614.969
400.307	24.353	795.025	616.104
401.321	24.194	794.543	615.126
402.336	23.941	794.528	614.187
403.350	24.727	793.311	615.900
404.365	24.342	793.973	615.033
405.380	24.659	793.732	615.885
406.394	25.178	794.293	618.054
407.409	25.622	792.714	618.295
408.423	25.260	793.397	617.529
409.438	25.845	791.688	618.153
410.453	26.105	791.607	618.927
411.467	25.618	791.062	616.775
412.482	25.747	790.950	617.076
413.496	25.479	790.754	615.950
414.511	25.780	790.739	616.914
415.526	25.488	790.718	615.845
416.540	25.694	788.883	615.065
417.555	25.441	789.335	614.497
418.569	25.273	788.806	613.456
419.584	25.201	788.492	612.911
420.599	25.533	787.456	613.186
421.613	161.873	1369.207	1794.429
422.628	140.140	1454.005	1794.463
