DTS Sentinel unit serial number:	SN413079Multiplexer serial number:	ORYXHardware model number:	OX4-SRSoftware version number:	ORYX F/W v4.00 Oryx Data Collector v3.7.2.0data status	okinstallation	princeton_trtdifferential loss correction	single-endedforward channel	channel 3reverse channel	N/Adate	2019/09/15time	14:48:35forward acquisition time	60.00reverse acquisition time	0.00gamma	496.2192k internal	0.2292k external	0.2292temperature offset calibration	0.9951default loss term (dB/km)	0.3790temperature slope calibration	1.0000multiplexer offset coefficient	1.0000multiplexer slope coefficient	1.0000fibre end	0.00T internal ref (°C)	39.81T ext. ref 1 (°C)	4.84T ext. ref 2 (°C)	36.56length (m)	temperature (°C)	Stokes	anti-Stokes-747.200	-60.807	0.287	-0.124
-746.185	-108.892	0.118	0.026
-745.171	800.000	-0.086	0.341
-744.156	-74.189	0.272	0.101
-743.142	-120.126	0.188	-0.033
-742.127	-11.816	-0.257	0.173
-741.112	-89.798	-0.385	0.115
-740.098	46.636	-0.412	0.391
-739.083	-134.486	-0.330	0.041
-738.069	316.751	0.094	0.181
-737.054	-200.000	-0.031	-0.248
-736.039	-141.955	-0.180	0.018
-735.025	160.706	0.162	-0.232
-734.010	146.418	-0.063	-0.086
-732.996	-50.968	-0.364	0.175
-731.981	-48.747	-0.385	-0.189
-730.966	391.003	-0.066	-0.140
-729.952	-200.000	-0.007	0.103
-728.937	-36.710	-0.292	-0.160
-727.923	243.271	-0.101	-0.173
-726.908	-18.044	0.139	0.089
-725.894	-82.360	-0.275	-0.091
-724.879	18.112	-0.394	0.321
-723.864	-63.582	-0.058	0.025
-722.850	-200.000	-0.028	-0.236
-721.835	342.189	-0.192	-0.385
-720.821	-20.474	0.169	0.106
-719.806	219.467	-0.140	-0.230
-718.791	-200.000	0.031	-0.306
-717.777	-30.975	0.086	0.050
-716.762	544.202	0.107	0.262
-715.748	800.000	0.083	-0.296
-714.733	800.000	-0.078	-0.272
-713.718	-113.748	0.246	0.049
-712.704	-102.668	0.031	0.007
-711.689	-34.492	-0.234	-0.131
-710.675	166.701	0.202	0.293
-709.660	547.968	-0.119	0.291
-708.645	-25.605	-0.129	-0.078
-707.631	-105.338	-0.108	-0.025
-706.616	393.821	0.044	0.094
-705.602	5.723	-0.094	0.071
-704.587	546.856	-0.103	-0.252
-703.572	514.842	0.094	0.225
-702.558	449.121	0.120	-0.271
-701.543	-136.255	0.270	-0.032
-700.529	54.918	-0.270	0.266
-699.514	-200.000	-0.039	-0.353
-698.499	58.025	0.089	0.089
-697.485	-111.991	-0.217	0.045
-696.470	163.484	-0.117	-0.168
-695.456	144.205	0.296	0.403
-694.441	-95.593	-0.289	0.079
-693.426	800.000	0.057	0.214
-692.412	25.478	0.237	-0.201
-691.397	-84.244	-0.239	0.077
-690.383	81.933	-0.094	-0.104
-689.368	-141.206	0.149	-0.016
-688.354	800.000	0.036	0.105
-687.339	-1.908	0.153	-0.110
-686.324	-70.885	0.123	0.047
-685.310	48.907	-0.205	0.197
-684.295	-41.079	-0.190	-0.100
-683.281	-78.425	0.190	-0.066
-682.266	-133.918	0.061	-0.008
-681.251	529.011	-0.118	-0.284
-680.237	-0.167	0.084	-0.061
-679.222	-160.942	-0.268	0.014
-678.208	800.000	-0.026	-0.105
-677.193	-84.258	-0.279	-0.090
-676.178	-200.000	0.002	0.035
-675.164	-80.477	-0.139	0.047
-674.149	-13.945	-0.077	0.051
-673.135	-78.612	0.029	0.010
-672.120	-200.000	0.024	0.184
-671.105	140.922	0.181	-0.244
-670.091	-100.663	-0.284	-0.072
-669.076	306.327	0.104	-0.197
-668.062	329.078	-0.137	0.268
-667.047	5.532	-0.171	-0.129
-666.032	105.989	-0.008	-0.010
-665.018	74.412	0.126	0.135
-664.003	-148.783	-0.221	-0.018
-662.989	800.000	-0.043	-0.154
-661.974	-60.636	-0.084	-0.036
-660.959	483.606	0.056	-0.130
-659.945	-200.000	-0.016	0.305
-658.930	50.356	-0.146	0.141
-657.916	-200.000	0.054	-0.261
-656.901	33.693	0.052	0.046
-655.886	132.662	0.131	0.172
-654.872	-69.578	-0.259	-0.101
-653.857	-68.681	0.178	0.070
-652.843	800.000	0.073	0.248
-651.828	340.666	-0.038	-0.076
-650.814	-160.939	0.244	0.013
-649.799	-200.000	0.016	-0.100
-648.784	34.382	-0.183	-0.163
-647.770	-21.431	-0.197	-0.122
-646.755	-200.000	0.004	0.252
-645.741	378.677	0.129	-0.268
-644.726	-80.531	0.242	-0.082
-643.711	133.100	-0.240	-0.316
-642.697	800.000	0.071	0.210
-641.682	51.621	-0.128	0.124
-640.668	325.043	-0.138	0.269
-639.653	-200.000	0.032	-0.172
-638.638	800.000	0.064	-0.183
-637.624	323.101	0.167	0.324
-636.609	26.622	-0.153	0.130
-635.595	-200.000	0.026	0.176
-634.580	122.161	-0.124	0.158
-633.565	-200.000	0.052	0.352
-632.551	3.534	0.175	0.130
-631.536	-80.488	0.162	0.055
-630.522	-53.073	-0.136	-0.064
-629.507	164.243	-0.230	-0.330
-628.492	132.975	-0.178	0.234
-627.478	-50.504	-0.015	-0.007
-626.463	-100.976	-0.125	0.031
-625.449	800.000	-0.168	-0.573
-624.434	87.639	-0.165	0.186
-623.419	800.000	0.011	-0.041
-622.405	-200.000	0.020	0.375
-621.390	357.935	-0.186	-0.378
-620.376	-119.498	-0.566	0.100
-619.361	302.361	-0.020	0.037
-618.346	-200.000	-0.037	-0.176
-617.332	432.477	-0.101	-0.222
-616.317	-200.000	0.001	-0.093
-615.303	-4.806	-0.151	0.106
-614.288	76.901	-0.205	-0.222
-613.273	-101.827	-0.412	0.102
-612.259	-183.244	-0.056	-0.001
-611.244	-200.000	0.039	-0.477
-610.230	-169.768	-0.452	-0.017
-609.215	161.397	-0.145	-0.207
-608.201	-200.000	0.018	0.171
-607.186	-200.000	0.002	0.286
-606.171	800.000	-0.123	-0.368
-605.157	-93.114	-0.240	0.068
-604.142	63.791	0.173	0.177
-603.128	320.001	0.113	-0.219
-602.113	631.047	-0.044	-0.113
-601.098	29.499	0.100	-0.087
-600.084	-200.000	-0.058	0.341
-599.069	-56.460	0.089	-0.040
-598.055	-112.744	-0.034	0.007
-597.040	-200.000	-0.019	0.259
-596.025	642.493	-0.074	0.191
-595.011	33.527	0.162	0.143
-593.996	351.928	-0.167	-0.337
-592.982	-131.996	-0.250	0.033
-591.967	-200.000	0.005	-0.126
-590.952	-200.000	-0.020	0.312
-589.938	-200.000	0.006	0.156
-588.923	-149.328	-0.257	0.021
-587.909	800.000	-0.084	-0.239
-586.894	-34.316	-0.070	0.039
-585.879	-0.175	-0.419	-0.304
-584.865	96.133	-0.127	0.148
-583.850	800.000	0.052	-0.193
-582.836	85.866	0.103	0.115
-581.821	-200.000	-0.019	-0.303
-580.806	-200.000	0.007	-0.343
-579.792	8.920	0.209	-0.160
-578.777	-9.636	0.063	0.043
-577.763	-37.016	-0.433	-0.236
-576.748	-200.000	-0.006	0.145
-575.733	-156.197	-0.378	0.024
-574.719	109.989	0.056	0.068
-573.704	296.435	-0.063	0.118
-572.690	-21.101	0.188	0.117
-571.675	-200.000	-0.002	0.253
-570.661	-58.265	0.198	0.087
-569.646	77.360	-0.205	-0.221
-568.631	-200.000	0.023	0.241
-567.617	-140.577	0.109	-0.012
-566.602	-96.821	0.030	0.008
-565.588	-109.114	0.390	-0.084
-564.573	-98.005	-0.198	0.052
-563.558	800.000	0.034	-0.147
-562.544	-200.000	0.004	-0.170
-561.529	173.708	-0.080	-0.118
-560.515	4.243	-0.442	0.329
-559.500	121.765	-0.065	0.082
-558.485	-165.115	-0.150	0.007
-557.471	-50.092	0.418	-0.201
-556.456	-156.001	-0.529	0.034
-555.442	-66.001	0.512	0.208
-554.427	47.332	0.063	-0.059
-553.412	-128.261	0.052	-0.008
-552.398	-77.615	-0.319	-0.112
-551.383	800.000	0.092	-0.318
-550.369	777.429	0.128	-0.356
-549.354	-79.526	0.313	0.107
-548.339	-127.177	-0.219	0.033
-547.325	800.000	0.086	-0.288
-546.310	-200.000	-0.072	0.501
-545.296	-139.932	0.195	0.021
-544.281	800.000	0.006	-0.024
-543.266	-200.000	-0.016	0.084
-542.252	-134.835	-0.146	-0.018
-541.237	13.333	0.058	-0.046
-540.223	800.000	-0.034	-0.099
-539.208	16.009	-0.179	0.143
-538.193	-70.351	0.515	0.198
-537.179	-200.000	-0.047	0.277
-536.164	-8.140	-0.057	0.039
-535.150	35.357	0.128	0.114
-534.135	-154.116	0.335	-0.023
-533.121	640.878	-0.047	0.120
-532.106	519.194	-0.105	-0.249
-531.091	383.723	0.172	0.360
-530.077	-200.000	0.000	-0.024
-529.062	-200.000	0.179	0.000
-528.048	45.659	0.083	0.078
-527.033	-30.823	-0.147	0.084
-526.018	-117.260	0.124	0.023
-525.004	-128.752	-0.173	0.025
-523.989	72.968	-0.093	0.098
-522.975	462.458	-0.153	0.347
-521.960	-200.000	-0.048	0.230
-520.945	-90.133	-0.154	-0.046
-519.931	126.382	0.085	-0.110
-518.916	-36.699	0.056	0.030
-517.902	687.293	-0.142	0.376
-516.887	-44.814	-0.224	0.113
-515.872	-9.263	0.397	0.270
-514.858	151.427	-0.308	0.425
-513.843	101.901	0.046	-0.055
-512.829	44.231	-0.166	-0.155
-511.814	-120.806	0.011	0.002
-510.799	-200.000	-0.011	-0.070
-509.785	800.000	0.015	-0.061
-508.770	-128.693	0.233	0.033
-507.756	434.315	0.082	0.180
-506.741	138.559	0.041	0.055
-505.726	-51.779	0.113	-0.053
-504.712	-59.431	0.244	-0.106
-503.697	-65.471	-0.123	-0.050
-502.683	-109.764	-0.225	-0.048
-501.668	-200.000	0.057	0.482
-500.653	-114.404	0.206	-0.040
-499.639	299.114	0.090	0.168
-498.624	-200.000	0.025	-0.190
-497.610	800.000	0.082	0.285
-496.595	-44.767	0.101	0.051
-495.581	61.537	0.112	-0.113
-494.566	-122.797	0.270	-0.044
-493.551	-138.532	-0.109	-0.012
-492.537	-171.790	-0.238	0.008
-491.522	-104.910	-0.087	-0.020
-490.508	300.769	0.212	0.396
-489.493	-155.605	0.135	0.009
-488.478	-89.815	-0.324	0.096
-487.464	125.284	0.195	-0.249
-486.449	-96.036	0.129	0.035
-485.435	-43.815	-0.074	0.038
-484.420	58.904	0.147	-0.147
-483.405	513.977	0.104	0.246
-482.391	-36.525	-0.240	-0.131
-481.376	-154.412	-0.117	-0.008
-480.362	-110.069	-0.095	0.020
-479.347	180.273	-0.240	0.357
-478.332	800.000	-0.028	0.096
-477.318	-62.702	0.300	-0.126
-476.303	650.600	-0.143	-0.370
-475.289	-200.000	0.026	-0.364
-474.274	800.000	0.077	0.303
-473.259	-124.573	0.093	-0.015
-472.245	76.649	-0.299	-0.321
-471.230	-148.544	0.128	-0.011
-470.216	-95.500	0.401	0.109
-469.201	-58.529	-0.410	-0.180
-468.186	3.652	-0.148	0.109
-467.172	-192.900	-0.186	-0.002
-466.157	-101.627	0.279	-0.069
-465.143	800.000	0.085	0.287
-464.128	-200.000	-0.043	0.310
-463.113	-158.268	-0.263	-0.016
-462.099	22.620	0.226	-0.187
-461.084	-117.317	0.119	0.022
-460.070	800.000	0.138	0.426
-459.055	-104.964	-0.087	-0.020
-458.040	-96.897	-0.209	-0.055
-457.026	-138.229	-0.178	0.020
-456.011	-174.542	0.312	-0.009
-454.997	-57.252	0.220	-0.098
-453.982	270.692	0.037	-0.065
-452.968	-65.248	-0.341	-0.139
-451.953	-77.897	0.158	-0.055
-450.938	-3.632	-0.484	0.341
-449.924	800.000	-0.015	-0.064
-448.909	-185.422	0.206	0.003
-447.895	54.224	0.134	-0.131
-446.880	-42.404	0.206	-0.106
-445.865	800.000	0.058	0.180
-444.851	-39.418	-0.141	-0.075
-443.836	-200.000	0.060	0.380
-442.822	-48.167	-0.063	-0.031
-441.807	43.426	-0.065	0.060
-440.792	-8.201	-0.098	0.067
-439.778	7.449	0.198	-0.149
-438.763	-146.580	0.111	-0.010
-437.749	-87.888	-0.157	0.048
-436.734	-169.928	0.211	-0.008
-435.719	800.000	-0.091	0.285
-434.705	1.866	0.044	0.032
-433.690	128.992	-0.149	-0.192
-432.676	-63.849	-0.064	-0.026
-431.661	13.379	0.101	-0.079
-430.646	-32.136	0.233	-0.132
-429.632	-68.564	0.007	-0.003
-428.617	-82.851	-0.215	-0.070
-427.603	-14.615	0.264	-0.172
-426.588	-200.000	0.042	-0.312
-425.573	26.974	0.139	0.118
-424.559	-200.000	0.030	-0.331
-423.544	7.315	0.142	0.107
-422.530	-101.747	-0.130	0.032
-421.515	-127.230	-0.274	0.041
-420.500	-47.063	-0.175	-0.086
-419.486	217.531	0.130	-0.209
-418.471	266.792	0.180	-0.317
-417.457	-200.000	0.016	-0.237
-416.442	-162.222	0.251	-0.013
-415.428	-200.000	0.328	0.000
-414.413	337.661	-0.014	-0.027
-413.398	104.571	0.143	0.171
-412.384	800.000	-0.074	0.230
-411.369	-88.183	0.210	0.064
-410.355	23.526	0.264	-0.220
-409.340	-56.022	-0.181	0.081
-408.325	563.442	-0.134	0.328
-407.311	-200.000	-0.010	-0.078
-406.296	82.406	0.210	0.230
-405.282	800.000	-0.068	-0.295
-404.267	-200.000	-0.204	-0.001
-403.252	138.735	0.206	0.273
-402.238	39.413	0.136	0.123
-401.223	110.781	-0.114	-0.139
-400.209	-26.426	-0.057	0.034
-399.194	-120.963	-0.117	0.020
-398.179	32.496	0.054	-0.047
-397.165	-46.891	0.501	-0.247
-396.150	69.519	0.128	0.133
-395.136	-160.099	0.202	-0.011
-394.121	800.000	-0.042	0.161
-393.106	-72.021	-0.285	-0.107
-392.092	-123.765	-0.229	-0.037
-391.077	54.300	0.161	0.156
-390.063	760.126	0.084	-0.229
-389.048	800.000	0.094	-0.265
-388.033	67.893	-0.053	0.055
-387.019	129.985	-0.051	0.066
-386.004	664.356	-0.082	-0.214
-384.990	-139.718	-0.178	-0.019
-383.975	-27.093	0.234	-0.138
-382.960	22.310	0.232	-0.192
-381.946	185.058	0.175	-0.262
-380.931	-200.000	-0.029	0.128
-379.917	-126.054	0.089	-0.013
-378.902	800.000	0.045	0.175
-377.888	-200.000	-0.036	-0.185
-376.873	238.483	-0.085	0.142
-375.858	173.682	0.172	-0.250
-374.844	-166.761	-0.179	0.007
-373.829	800.000	-0.061	0.209
-372.815	699.505	-0.056	-0.147
-371.800	20.008	-0.212	0.172
-370.785	-17.074	-0.056	0.036
-369.771	-200.000	0.031	-0.414
-368.756	-196.175	0.322	0.002
-367.742	-70.703	0.166	-0.063
-366.727	-76.684	0.086	0.030
-365.712	-200.000	-0.017	0.249
-364.698	-49.727	0.108	-0.052
-363.683	-52.212	-0.064	-0.030
-362.669	159.101	0.063	0.088
-361.654	93.264	-0.127	-0.145
-360.639	-200.000	0.024	-0.150
-359.625	18.102	-0.288	-0.232
-358.610	-48.155	-0.215	0.105
-357.596	-166.328	-0.135	-0.006
-356.581	573.229	-0.070	-0.172
-355.566	-62.161	0.068	-0.029
-354.552	-157.517	-0.106	0.006
-353.537	174.692	0.148	-0.215
-352.523	322.630	0.023	-0.044
-351.508	-200.000	-0.017	-0.321
-350.493	-200.000	-0.041	-0.210
-349.479	-200.000	-0.016	0.101
-348.464	-200.000	-0.061	-0.000
-347.450	-126.803	0.105	-0.016
-346.435	-200.000	-0.039	0.280
-345.420	-94.463	0.234	0.064
-344.406	-200.000	0.007	0.111
-343.391	-200.000	0.026	0.138
-342.377	-38.527	-0.095	0.051
-341.362	-200.000	-0.021	-0.142
-340.348	81.938	-0.299	-0.326
-339.333	631.595	0.024	-0.061
-338.318	74.002	-0.223	0.236
-337.304	41.762	0.396	0.361
-336.289	176.335	-0.166	-0.243
-335.275	-200.000	0.059	-0.264
-334.260	-200.000	0.087	-0.389
-333.245	-200.000	-0.012	-0.170
-332.231	-35.122	0.263	0.144
-331.216	-12.787	-0.110	-0.072
-330.202	-68.811	-0.245	-0.096
-329.187	-69.512	0.144	0.056
-328.172	212.260	-0.167	0.265
-327.158	-200.000	-0.014	0.288
-326.143	-200.000	-0.022	0.251
-325.129	-81.508	0.156	0.052
-324.114	800.000	0.064	-0.238
-323.099	-110.792	-0.166	0.034
-322.085	22.947	-0.271	-0.224
-321.070	-53.562	-0.240	-0.110
-320.056	800.000	-0.040	0.122
-319.041	-58.329	-0.227	-0.099
-318.026	52.330	-0.143	0.137
-317.012	-200.000	-0.027	-0.180
-315.997	-200.000	0.043	-0.409
-314.983	-133.265	-0.266	-0.034
-313.968	-156.808	-0.148	-0.009
-312.953	-147.250	0.223	-0.019
-311.939	-200.000	-0.002	-0.288
-310.924	81.332	0.148	-0.161
-309.910	800.000	-0.080	0.329
-308.895	-200.000	0.048	-0.326
-307.880	-17.492	0.101	-0.064
-306.866	215.804	-0.068	0.109
-305.851	-129.100	0.274	-0.039
-304.837	453.569	0.030	0.066
-303.822	1.788	-0.153	0.111
-302.807	-56.079	-0.044	0.020
-301.793	-95.350	0.351	0.095
-300.778	-24.676	-0.195	0.117
-299.764	-68.353	-0.119	-0.046
-298.749	359.652	-0.107	-0.216
-297.735	52.329	0.139	-0.133
-296.720	-59.137	-0.301	0.130
-295.705	-71.792	-0.149	-0.056
-294.691	-10.908	0.307	0.204
-293.676	488.040	0.068	-0.157
-292.662	621.208	0.067	-0.170
-291.647	-126.623	0.092	0.014
-290.632	-0.368	0.291	0.208
-289.618	298.807	-0.061	-0.112
-288.603	-108.562	-0.462	0.100
-287.589	-66.530	0.221	0.088
-286.574	-72.165	-0.120	-0.045
-285.559	-153.691	-0.227	-0.016
-284.545	141.141	0.182	0.243
-283.530	384.314	-0.106	-0.220
-282.516	676.587	0.118	0.308
-281.501	33.479	-0.169	-0.148
-280.486	371.276	0.144	-0.294
-279.472	-200.000	0.022	-0.317
-278.457	-67.876	-0.146	0.057
-277.443	-27.748	-0.324	-0.189
-276.428	212.522	0.060	-0.095
-275.413	8.296	-0.375	0.284
-274.399	-200.000	-0.012	0.287
-273.384	611.800	-0.078	0.197
-272.370	206.645	0.273	0.428
-271.355	-145.420	-0.239	-0.022
-270.340	351.962	0.059	0.118
-269.326	-12.687	-0.285	-0.186
-268.311	-71.935	0.131	0.049
-267.297	-200.000	0.001	-0.211
-266.282	-200.000	-0.043	0.224
-265.267	-129.129	0.051	-0.007
-264.253	193.499	0.159	0.242
-263.238	-137.566	0.287	-0.032
-262.224	-15.125	-0.216	-0.139
-261.209	432.527	-0.085	-0.184
-260.195	121.744	-0.149	-0.187
-259.180	-17.872	0.080	-0.051
-258.165	-20.989	0.302	-0.186
-257.151	319.117	-0.017	-0.033
-256.136	-55.709	0.056	-0.025
-255.122	218.867	-0.080	0.128
-254.107	-1.529	0.098	0.070
-253.092	-64.532	0.145	-0.059
-252.078	-200.000	-0.061	0.301
-251.063	800.000	-0.117	0.325
-250.049	-190.975	0.389	0.004
-249.034	423.190	0.083	0.179
-248.019	30.556	-0.200	-0.171
-247.005	-200.000	0.009	0.503
-245.990	229.661	-0.102	-0.167
-244.976	112.741	-0.159	-0.193
-243.961	281.668	0.115	-0.207
-242.946	-118.150	-0.285	-0.051
-241.932	82.282	-0.150	-0.163
-240.917	13.344	0.202	-0.157
-239.903	-24.742	0.085	0.051
-238.888	-20.739	0.438	-0.270
-237.873	608.235	-0.046	-0.116
-236.859	274.377	0.083	-0.148
-235.844	-152.094	0.082	-0.006
-234.830	-54.964	0.045	0.021
-233.815	-6.655	-0.123	0.084
-232.800	-87.553	-0.043	-0.013
-231.786	-200.000	-0.026	-0.161
-230.771	800.000	-0.048	0.157
-229.757	-200.000	-0.013	-0.113
-228.742	-42.691	0.214	-0.109
-227.727	-69.803	0.059	-0.023
-226.713	-80.969	0.109	-0.036
-225.698	-63.575	-0.435	-0.179
-224.684	-72.780	0.239	0.088
-223.669	73.532	0.063	0.066
-222.655	163.121	0.082	0.115
-221.640	132.324	0.146	0.189
-220.625	6.978	0.186	0.139
-219.611	-102.827	0.286	-0.068
-218.596	800.000	-0.093	-0.259
-217.582	-38.581	0.049	-0.026
-216.567	800.000	-0.020	0.067
-215.552	-200.000	-0.024	0.259
-214.538	227.428	0.051	0.082
-213.523	-194.584	0.196	0.002
-212.509	-5.389	-0.176	-0.121
-211.494	800.000	-0.049	-0.135
-210.479	168.485	-0.035	-0.050
-209.465	-17.120	-0.150	0.095
-208.450	-156.695	0.249	0.015
-207.436	-91.096	0.163	-0.047
-206.421	83.823	-0.081	-0.089
-205.406	376.206	0.109	-0.223
-204.392	800.000	-0.061	0.185
-203.377	25.755	-0.290	0.242
-202.363	604.067	0.151	-0.377
-201.348	48.089	0.138	0.129
-200.333	-71.282	0.111	0.042
-199.319	800.000	-0.044	-0.133
-198.304	800.000	0.020	-0.076
-197.290	-40.818	0.250	0.129
-196.275	-12.226	-0.033	-0.022
-195.260	-21.329	-0.067	-0.041
-194.246	514.797	0.065	0.152
-193.231	120.205	-0.024	0.029
-192.217	229.663	0.123	0.201
-191.202	-136.919	-0.334	-0.038
-190.187	721.864	0.034	0.092
-189.173	157.483	0.119	0.165
-188.158	-88.249	0.041	-0.012
-187.144	-200.000	-0.039	-0.327
-186.129	82.382	-0.071	-0.077
-185.114	157.468	-0.128	-0.178
-184.100	-200.000	0.027	0.351
-183.085	48.240	-0.116	-0.109
-182.071	476.670	-0.028	-0.062
-181.056	-115.095	0.307	-0.058
-180.042	800.000	0.043	-0.180
-179.027	-72.765	0.058	-0.021
-178.012	-65.310	0.219	-0.088
-176.998	312.035	0.237	0.445
-175.983	-44.546	-0.306	-0.153
-174.969	-90.203	0.323	-0.094
-173.954	418.247	0.121	0.259
-172.939	232.242	0.101	0.166
-171.925	-125.390	0.254	0.039
-170.910	-47.120	-0.150	-0.073
-169.896	242.407	0.070	0.118
-168.881	-138.129	0.109	-0.012
-167.866	-0.223	0.193	0.138
-166.852	11.941	-0.057	0.044
-165.837	800.000	-0.083	0.289
-164.823	-200.000	-0.005	0.203
-163.808	77.832	-0.044	0.047
-162.793	-15.379	-0.048	-0.031
-161.779	504.196	-0.004	0.010
-160.764	-200.000	0.000	0.001
-159.750	32.136	-0.173	0.150
-158.735	43.120	0.050	0.046
-157.720	17.091	0.258	0.204
-156.706	169.865	0.252	0.360
-155.691	261.734	0.106	-0.184
-154.677	265.045	0.125	-0.217
-153.662	-39.897	0.084	-0.044
-152.647	-200.000	-0.036	0.228
-151.633	800.000	0.029	-0.116
-150.618	-200.000	-0.034	0.248
-149.604	799.986	0.085	-0.235
-148.589	320.046	0.144	-0.274
-147.574	15.900	-0.229	0.180
-146.560	-7.323	0.097	0.066
-145.545	-200.000	-0.051	0.252
-144.531	-80.191	0.150	-0.050
-143.516	-200.000	0.041	-0.354
-142.502	410.633	0.090	0.192
-141.487	800.000	-0.108	0.376
-140.472	-64.548	0.303	0.123
-139.458	-161.271	0.324	0.017
-138.443	-183.254	0.055	0.001
-137.429	-167.540	-0.086	0.003
-136.414	-110.907	-0.176	0.036
-135.399	-200.000	-0.011	0.253
-134.385	60.549	-0.123	0.122
-133.370	-31.585	-0.206	-0.115
-132.356	-15.138	0.627	-0.401
-131.341	176.005	-0.146	0.211
-130.326	-84.718	-0.380	-0.120
-129.312	209.858	-0.182	-0.285
-128.297	-15.946	0.146	0.093
-127.283	-170.089	0.400	-0.014
-126.268	-67.996	-0.250	0.098
-125.253	800.000	0.096	-0.266
-124.239	269.155	-0.144	-0.253
-123.224	-132.948	0.203	-0.026
-122.210	-200.000	0.005	-0.047
-121.195	800.000	0.076	-0.252
-120.180	669.276	-0.076	-0.197
-119.166	160.098	-0.051	0.071
-118.151	311.690	-0.037	0.069
-117.137	-90.691	-0.200	0.058
-116.122	-200.000	-0.065	0.301
-115.107	-62.327	-0.269	0.112
-114.093	770.388	0.087	0.236
-113.078	142.763	0.132	0.175
-112.064	-109.366	0.234	0.049
-111.049	99.826	-0.135	-0.156
-110.034	-200.000	-0.041	-0.275
-109.020	-29.064	-0.156	-0.089
-108.005	-58.482	0.094	0.041
-106.991	-105.546	0.111	-0.025
-105.976	-160.863	0.373	0.020
-104.962	13.441	-0.029	-0.022
-103.947	49.071	0.121	0.113
-102.932	-43.213	-0.071	-0.036
-101.918	800.000	-0.140	0.424
-100.903	-186.310	-0.331	0.005
-99.889	272.466	0.143	-0.253
-98.874	-2.993	-0.159	0.111
-97.859	101.468	0.025	0.029
-96.845	-200.000	0.022	-0.109
-95.830	-147.660	-0.178	0.015
-94.816	-200.000	0.196	0.000
-93.801	-65.819	0.072	0.029
-92.786	-59.144	0.089	-0.038
-91.772	800.000	0.112	-0.314
-90.757	-200.000	-0.004	0.191
-89.743	164.424	-0.124	0.175
-88.728	-39.648	0.310	-0.162
-87.713	800.000	-0.076	-0.223
-86.699	-200.000	0.004	0.180
-85.684	800.000	0.057	0.179
-84.670	-200.000	0.051	0.469
-83.655	-200.000	-0.007	0.195
-82.640	-177.002	-0.179	0.004
-81.626	119.028	0.061	0.075
-80.611	290.500	0.291	-0.528
-79.597	55.770	0.243	-0.235
-78.582	-67.607	-0.314	-0.123
-77.567	-200.000	0.070	0.312
-76.553	162.835	0.159	-0.222
-75.538	800.000	0.065	0.256
-74.524	539.962	0.101	-0.239
-73.509	38.262	0.203	0.180
-72.494	-47.662	-0.078	0.038
-71.480	106.615	-0.168	-0.198
-70.465	800.000	-0.087	-0.329
-69.451	154.912	0.116	0.159
-68.436	260.659	0.141	0.243
-67.422	89.739	-0.272	0.302
-66.407	-200.000	0.042	0.274
-65.392	-91.050	0.234	0.067
-64.378	39.853	0.065	0.058
-63.363	-129.153	0.188	0.026
-62.349	-25.026	0.119	0.070
-61.334	137.547	-0.516	-0.674
-60.319	-79.700	0.727	0.244
-59.305	318.952	-0.162	-0.305
-58.290	42.336	0.834	0.755
-57.276	800.000	0.387	1.565
-56.261	-200.000	76.901	514.764
-55.246	493.856	1352.417	3091.806
-54.232	143.735	2586.355	3434.005
-53.217	113.847	2258.824	2735.603
-52.203	50.205	1782.759	1677.438
-51.188	43.165	1582.113	1438.601
-50.173	40.510	1552.358	1392.873
-49.159	56.708	1589.690	1541.531
-48.144	61.885	1609.102	1596.986
-47.130	43.734	1573.032	1434.150
-46.115	40.113	1558.692	1395.527
-45.100	39.971	1555.188	1391.341
-44.086	39.961	1552.684	1388.974
-43.071	39.739	1550.727	1385.607
-42.057	39.780	1548.988	1384.286
-41.042	39.776	1547.834	1383.171
-40.027	39.731	1546.065	1381.222
-39.013	39.826	1543.901	1379.898
-37.998	39.783	1543.072	1378.798
-36.984	39.725	1542.268	1377.625
-35.969	39.832	1540.956	1377.144
-34.954	39.835	1539.199	1375.540
-33.940	39.762	1537.978	1373.886
-32.925	39.899	1536.402	1373.377
-31.911	39.914	1535.062	1372.225
-30.896	39.868	1533.836	1370.759
-29.881	39.895	1532.145	1369.381
-28.867	39.837	1531.148	1368.031
-27.852	39.942	1529.487	1367.221
-26.838	39.924	1527.768	1365.505
-25.823	39.888	1526.569	1364.133
-24.809	39.859	1524.524	1362.051
-23.794	39.848	1523.149	1360.691
-22.779	39.872	1521.753	1359.557
-21.765	39.812	1520.882	1358.312
-20.750	39.990	1519.575	1358.309
-19.736	39.901	1518.630	1356.803
-18.721	39.854	1517.869	1355.744
-17.706	39.740	1516.719	1353.885
-16.692	39.835	1515.217	1353.138
-15.677	39.808	1514.264	1352.049
-14.663	39.752	1513.139	1350.609
-13.648	39.707	1512.162	1349.373
-12.633	39.835	1510.712	1348.899
-11.619	39.710	1510.577	1347.873
-10.604	39.794	1509.687	1347.599
-9.590	39.706	1509.009	1346.340
-8.575	39.762	1507.651	1345.459
-7.560	39.700	1506.820	1344.238
-6.546	39.769	1505.777	1343.724
-5.531	39.675	1505.139	1342.463
-4.517	39.697	1504.329	1341.839
-3.502	39.607	1503.464	1340.401
-2.487	39.713	1501.875	1339.650
-1.473	39.685	1501.072	1338.688
-0.458	39.738	1499.740	1337.808
0.556	38.385	1490.436	1328.819
1.571	35.893	1462.890	1287.499
2.586	32.186	1397.252	1205.886
3.600	29.704	1311.586	1116.879
4.615	27.622	1262.671	1063.004
5.629	24.017	1204.607	993.935
6.644	14.570	1114.839	870.717
7.659	6.482	1069.049	794.254
8.673	5.069	1062.623	782.325
9.688	4.783	1059.908	778.827
10.702	4.768	1057.925	777.226
11.717	4.742	1056.709	776.134
12.731	8.148	1061.124	796.341
13.746	16.754	1072.909	848.398
14.761	20.517	1077.067	870.496
15.775	18.610	1073.009	857.619
16.790	17.032	1069.919	847.197
17.804	15.899	1067.724	839.736
18.819	15.059	1066.007	834.132
19.834	14.660	1064.350	830.772
20.848	14.279	1063.583	828.209
21.863	13.960	1062.336	825.579
22.877	13.695	1062.158	824.049
23.892	13.528	1061.076	822.306
24.907	13.531	1060.253	821.613
25.921	13.575	1059.301	821.019
26.936	13.514	1058.876	820.317
27.950	13.490	1057.594	819.129
28.965	13.464	1056.851	818.355
29.980	13.555	1055.487	817.675
30.994	13.756	1053.711	817.217
32.009	13.724	1052.945	816.391
33.023	13.759	1052.329	816.014
34.038	13.809	1051.510	815.554
35.053	13.735	1050.694	814.484
36.067	13.733	1049.391	813.394
37.082	13.633	1048.758	812.343
38.096	13.650	1047.854	811.651
39.111	13.776	1047.170	811.666
40.126	13.688	1046.436	810.595
41.140	13.644	1045.207	809.358
42.155	13.595	1043.578	807.784
43.169	13.438	1043.288	806.724
44.184	13.337	1042.569	805.608
45.199	13.359	1041.273	804.640
46.213	13.400	1040.172	803.918
47.228	13.519	1038.833	803.391
48.242	13.474	1038.304	802.689
49.257	13.487	1037.401	801.986
50.271	13.547	1036.314	801.365
51.286	13.597	1035.185	800.661
52.301	13.644	1034.497	800.285
53.315	13.486	1034.354	799.340
54.330	13.567	1033.110	798.702
55.344	13.461	1031.686	797.015
56.359	13.433	1030.898	796.202
57.374	13.530	1030.138	796.010
58.388	13.423	1029.124	794.647
59.403	13.423	1028.297	793.934
60.417	13.326	1027.459	792.753
61.432	13.328	1027.219	792.509
62.447	13.418	1026.232	792.107
63.461	13.381	1025.151	791.025
64.476	13.315	1024.392	790.054
65.490	13.218	1023.921	789.160
66.505	13.388	1022.416	788.736
67.520	13.344	1021.912	788.069
68.534	13.281	1021.392	787.300
69.549	13.422	1020.387	787.125
70.563	13.417	1019.496	786.344
71.578	13.358	1018.868	785.512
72.593	13.272	1018.192	784.513
73.607	13.204	1017.318	783.446
74.622	13.253	1015.628	782.307
75.636	13.226	1015.215	781.795
76.651	13.231	1014.275	781.023
77.666	13.187	1013.698	780.301
78.680	13.259	1012.991	780.030
79.695	13.320	1012.213	779.649
80.709	13.250	1011.662	778.825
81.724	13.409	1010.622	778.706
82.739	13.343	1010.284	778.066
83.753	13.458	1009.482	777.919
84.768	13.460	1008.594	777.176
85.782	13.695	1007.767	777.569
86.797	13.684	1007.002	776.860
87.812	13.633	1006.327	776.031
88.826	13.646	1005.705	775.547
89.841	13.574	1004.736	774.394
90.855	13.640	1004.001	774.065
91.870	13.662	1003.258	773.528
92.884	13.668	1002.701	773.057
93.899	13.625	1002.002	772.248
94.914	13.615	1000.945	771.320
95.928	13.680	1001.002	771.597
96.943	13.796	999.552	770.953
97.957	13.714	998.672	769.825
98.972	13.593	998.012	768.687
99.987	13.537	997.570	768.016
101.001	13.688	996.227	767.615
102.016	13.736	995.554	767.249
103.030	13.614	994.838	766.066
104.045	13.603	993.818	765.163
105.060	13.645	992.817	764.515
106.074	13.685	991.447	763.577
107.089	13.498	991.053	762.347
108.103	13.368	990.011	760.881
109.118	13.350	989.134	760.059
110.133	13.498	987.971	759.776
111.147	13.366	986.884	758.266
112.162	13.294	986.480	757.559
113.176	13.370	985.708	757.247
114.191	13.510	984.397	756.815
115.206	13.648	982.822	756.164
116.220	13.461	982.957	755.350
117.235	13.553	982.060	755.012
118.249	13.409	981.670	753.989
119.264	13.540	980.329	753.490
120.279	13.501	979.756	752.803
121.293	13.303	978.940	751.211
122.308	13.445	978.120	751.162
123.322	13.404	977.386	750.345
124.337	13.283	976.430	748.993
125.352	13.348	975.027	748.146
126.366	13.421	973.857	747.515
127.381	13.381	973.197	746.757
128.395	13.336	972.052	745.611
129.410	13.407	971.000	745.061
130.424	13.461	970.239	744.653
131.439	13.374	969.401	743.550
132.454	13.475	968.961	743.603
133.468	13.486	967.867	742.747
134.483	13.525	967.457	742.542
135.497	13.472	966.753	741.699
136.512	13.651	965.465	741.445
137.527	13.608	964.860	740.720
138.541	13.561	964.404	740.095
139.556	13.531	963.922	739.525
140.570	13.551	962.971	738.822
141.585	13.627	962.239	738.533
142.600	13.758	961.545	738.520
143.614	13.830	960.294	737.811
144.629	13.738	959.930	737.057
145.643	13.780	959.226	736.639
146.658	13.771	958.070	735.646
147.673	13.688	957.144	734.503
148.687	13.603	955.971	733.162
149.702	13.669	955.025	732.661
150.716	13.600	954.315	731.750
151.731	13.449	953.720	730.563
152.746	13.569	952.904	730.402
153.760	13.456	952.417	729.465
154.775	13.665	951.372	729.521
155.789	13.674	950.230	728.620
156.804	13.708	949.863	728.424
157.819	13.762	949.152	728.049
158.833	13.725	948.853	727.594
159.848	13.790	948.193	727.309
160.862	13.606	947.754	726.101
161.877	13.730	946.652	725.735
162.892	13.578	946.071	724.562
163.906	13.565	944.988	723.610
164.921	13.586	943.933	722.829
165.935	13.616	942.920	722.119
166.950	13.521	942.225	721.110
167.964	13.727	941.441	721.344
168.979	13.922	939.836	720.896
169.994	13.720	939.301	719.545
171.008	13.611	938.783	718.615
172.023	13.677	937.650	717.969
173.037	13.909	937.124	718.506
174.052	13.860	936.514	717.764
175.067	13.805	935.510	716.693
176.081	13.762	934.944	716.010
177.096	13.646	934.407	715.033
178.110	13.736	933.309	714.520
179.125	13.648	932.770	713.662
180.140	13.747	931.742	713.240
181.154	13.739	931.092	712.645
182.169	13.716	930.749	712.221
183.183	13.869	930.173	712.372
184.198	13.862	929.074	711.439
185.213	13.860	928.525	710.945
186.227	13.987	927.475	710.623
187.242	14.024	927.095	710.426
188.256	13.984	926.516	709.749
189.271	14.103	925.787	709.636
190.286	13.944	925.243	708.478
191.300	13.956	924.213	707.679
192.315	13.788	923.167	706.098
193.329	13.642	922.721	705.075
194.344	13.740	922.496	705.259
195.359	13.864	921.625	705.056
196.373	13.916	920.871	704.637
197.388	13.937	920.587	704.449
198.402	14.047	919.684	704.159
199.417	14.098	919.769	704.377
200.432	14.260	918.940	704.365
201.446	14.191	918.423	703.614
202.461	14.319	918.252	703.964
203.475	14.296	917.652	703.344
204.490	14.152	917.344	702.437
205.504	14.176	916.258	701.647
206.519	14.124	915.220	700.569
207.534	14.122	914.436	699.899
208.548	14.246	913.705	699.800
209.563	14.222	912.987	699.085
210.577	14.292	912.018	698.578
211.592	14.234	911.665	698.002
212.607	14.237	911.297	697.670
213.621	14.280	911.221	697.730
214.636	14.379	909.873	697.053
215.650	14.241	909.101	695.820
216.665	14.343	909.060	696.153
217.680	14.358	908.474	695.705
218.694	14.456	907.868	695.592
219.709	14.638	907.064	695.670
220.723	14.607	906.247	694.854
221.738	14.523	905.562	693.916
222.753	14.439	905.055	693.119
223.767	14.324	904.404	692.079
224.782	14.404	903.438	691.611
225.796	14.577	902.703	691.707
226.811	14.538	902.289	691.165
227.826	14.589	901.504	690.716
228.840	14.412	900.957	689.501
229.855	14.490	900.490	689.407
230.869	14.385	899.791	688.377
231.884	14.568	898.740	688.267
232.899	14.358	898.457	687.121
233.913	14.451	897.574	686.771
234.928	14.385	896.934	685.947
235.942	14.316	896.284	685.104
236.957	14.330	895.224	684.291
237.972	14.410	894.723	684.179
238.986	14.418	894.380	683.885
240.001	14.355	893.689	683.038
241.015	14.412	893.037	682.713
242.030	14.479	892.065	682.185
243.045	14.504	891.513	681.806
244.059	14.581	890.857	681.557
245.074	14.696	890.337	681.567
246.088	14.619	889.755	680.751
247.103	14.591	889.140	680.106
248.117	14.732	888.178	679.881
249.132	14.776	887.889	679.778
250.147	14.934	887.494	680.059
251.161	14.864	886.697	679.106
252.176	15.054	885.708	679.059
253.190	15.082	885.108	678.654
254.205	14.967	884.505	677.662
255.220	15.113	883.748	677.612
256.234	15.118	883.326	677.249
257.249	15.017	882.927	676.476
258.263	15.042	882.272	676.015
259.278	15.131	881.775	675.934
260.293	15.169	881.089	675.501
261.307	15.222	880.377	675.108
262.322	15.201	879.998	674.676
263.336	15.219	879.407	674.236
264.351	15.165	878.846	673.530
265.366	15.252	878.262	673.371
266.380	15.188	877.762	672.672
267.395	15.264	877.201	672.486
268.409	15.219	876.222	671.496
269.424	15.205	875.705	670.985
270.439	15.272	874.769	670.476
271.453	15.245	873.965	669.693
272.468	15.119	873.340	668.650
273.482	15.250	872.551	668.510
274.497	15.301	871.942	668.186
275.512	15.267	871.396	667.575
276.526	15.309	870.431	666.944
277.541	15.218	870.056	666.236
278.555	15.154	869.496	665.491
279.570	15.359	868.818	665.728
280.585	15.482	867.745	665.334
281.599	15.423	867.880	665.147
282.614	15.471	866.720	664.389
283.628	15.308	866.743	663.702
284.643	15.411	866.287	663.702
285.657	15.413	865.737	663.230
286.672	15.428	865.277	662.877
287.687	15.506	864.372	662.433
288.701	15.486	864.355	662.281
289.716	15.383	863.620	661.256
290.730	15.592	863.073	661.600
291.745	15.482	862.649	660.785
292.760	15.345	861.836	659.562
293.774	15.579	861.057	659.829
294.789	15.713	860.583	659.932
295.803	15.682	859.783	659.139
296.818	15.661	859.175	658.532
297.833	15.639	858.318	657.731
298.847	15.601	857.873	657.183
299.862	15.674	857.018	656.755
300.876	15.561	856.317	655.719
301.891	15.677	855.701	655.644
302.906	15.677	855.306	655.281
303.920	15.880	854.458	655.366
304.935	15.756	854.060	654.518
305.949	15.826	853.496	654.300
306.964	15.893	852.591	653.808
307.979	15.848	852.298	653.352
308.993	15.825	851.911	652.908
310.008	15.854	851.181	652.405
311.022	15.938	850.615	652.238
312.037	15.942	849.954	651.689
313.052	15.899	849.429	651.060
314.066	15.902	849.075	650.745
315.081	15.806	848.240	649.674
316.095	15.677	847.931	648.885
317.110	15.799	847.036	648.613
318.125	15.844	846.103	648.013
319.139	15.814	846.047	647.796
320.154	15.833	845.349	647.278
321.168	15.908	844.628	646.960
322.183	15.850	844.073	646.254
323.197	15.960	843.586	646.247
324.212	15.866	843.053	645.418
325.227	16.067	842.731	645.887
326.241	15.962	842.386	645.161
327.256	15.984	841.623	644.603
328.270	15.903	841.112	643.845
329.285	15.965	840.308	643.411
330.300	15.870	839.833	642.628
331.314	15.901	839.118	642.143
332.329	15.986	838.666	642.063
333.343	16.053	837.715	641.535
334.358	16.089	837.168	641.195
335.373	16.108	837.095	641.153
336.387	16.076	836.416	640.458
337.402	16.104	835.684	639.945
338.416	16.116	835.251	639.602
339.431	16.214	834.688	639.485
340.446	16.265	834.306	639.331
341.460	16.340	833.321	638.803
342.475	16.252	833.017	638.180
343.489	16.291	832.801	638.106
344.504	16.251	832.134	637.386
345.519	16.388	831.676	637.497
346.533	16.425	831.407	637.373
347.548	16.489	830.625	636.957
348.562	16.462	829.882	636.231
349.577	16.381	829.331	635.448
350.592	16.483	828.583	635.202
351.606	16.335	828.157	634.261
352.621	16.155	828.144	633.520
353.635	16.297	827.421	633.447
354.650	16.425	826.925	633.489
355.665	16.471	826.609	633.365
356.679	16.460	825.964	632.770
357.694	16.451	825.465	632.301
358.708	16.313	825.356	631.645
359.723	16.428	824.327	631.230
360.738	16.409	824.225	631.026
361.752	16.482	823.488	630.678
362.767	16.514	823.137	630.472
363.781	16.606	822.574	630.327
364.796	16.624	822.148	630.013
365.810	16.634	821.741	629.682
366.825	16.721	821.262	629.582
367.840	16.828	821.116	629.815
368.854	17.000	820.648	630.037
369.869	16.861	820.077	629.027
370.883	16.700	819.695	628.083
371.898	16.649	818.846	627.187
372.913	16.853	818.293	627.461
373.927	16.699	818.080	626.675
374.942	16.800	817.060	626.212
375.956	16.806	816.573	625.802
376.971	16.821	816.470	625.726
377.986	16.825	815.472	624.918
379.000	16.895	815.192	624.909
380.015	16.927	814.764	624.642
381.029	16.973	813.837	624.047
382.044	17.015	813.514	623.896
383.059	16.918	813.141	623.200
384.073	17.009	812.348	622.871
385.088	16.973	812.096	622.490
386.102	16.936	811.368	621.740
387.117	16.813	810.763	620.771
388.132	17.088	809.935	621.088
389.146	17.034	809.640	620.611
390.161	17.012	809.563	620.417
391.175	16.864	809.424	619.712
392.190	17.126	808.777	620.119
393.205	17.063	808.744	619.812
394.219	17.055	807.820	619.018
395.234	16.988	807.293	618.316
396.248	17.007	806.694	617.873
397.263	16.888	806.374	617.137
398.278	16.883	805.900	616.704
399.292	16.903	805.450	616.375
400.307	17.036	804.856	616.349
401.321	16.985	804.417	615.773
402.336	16.997	804.400	615.750
403.350	16.845	804.060	614.885
404.365	16.988	803.348	614.805
405.380	17.140	802.834	614.907
406.394	17.113	802.287	614.337
407.409	17.199	801.906	614.302
408.423	17.242	801.777	614.302
409.438	17.298	801.068	613.905
410.453	17.402	800.668	613.920
411.467	17.443	800.148	613.618
412.482	17.396	799.642	613.004
413.496	17.503	799.077	612.902
414.511	17.436	798.748	612.354
415.526	17.549	798.514	612.527
416.540	17.414	798.404	611.903
417.555	17.449	797.511	611.290
418.569	17.474	797.331	611.189
419.584	17.418	796.683	610.436
420.599	17.576	796.067	610.476
421.613	93.983	1267.083	1385.981
422.628	80.234	1335.733	1386.102
