DTS Sentinel unit serial number:	SN413079Multiplexer serial number:	ORYXHardware model number:	OX4-SRSoftware version number:	ORYX F/W v4.00 Oryx Data Collector v3.7.2.0data status	okinstallation	princeton_trtdifferential loss correction	single-endedforward channel	channel 3reverse channel	N/Adate	2019/09/12time	23:44:35forward acquisition time	60.00reverse acquisition time	0.00gamma	496.2192k internal	0.2329k external	0.2329temperature offset calibration	1.0126default loss term (dB/km)	0.3790temperature slope calibration	1.0000multiplexer offset coefficient	1.0000multiplexer slope coefficient	1.0000fibre end	0.00T internal ref (°C)	28.81T ext. ref 1 (°C)	3.78T ext. ref 2 (°C)	23.55length (m)	temperature (°C)	Stokes	anti-Stokes-747.200	800.000	0.080	0.249
-746.185	-17.723	-0.075	0.047
-745.171	28.240	-0.314	0.267
-744.156	-183.768	-0.155	-0.003
-743.142	-84.858	-0.235	-0.074
-742.127	89.791	0.089	0.100
-741.112	43.418	0.309	-0.285
-740.098	495.049	-0.092	0.212
-739.083	-186.587	0.284	0.004
-738.069	-41.165	-0.058	-0.030
-737.054	-200.000	-0.001	0.056
-736.039	45.665	-0.380	0.354
-735.025	-47.767	0.083	-0.041
-734.010	-15.497	-0.270	0.174
-732.996	2.467	0.136	0.099
-731.981	800.000	-0.030	-0.092
-730.966	-52.236	-0.288	0.135
-729.952	-200.000	-0.059	-0.373
-728.937	-42.151	-0.412	-0.212
-727.923	118.429	0.114	0.142
-726.908	-1.595	0.096	0.068
-725.894	-200.000	0.071	-0.325
-724.879	-200.000	0.004	-0.038
-723.864	800.000	0.067	-0.217
-722.850	188.179	0.042	-0.064
-721.835	-17.162	0.180	0.114
-720.821	198.484	-0.058	-0.089
-719.806	800.000	-0.149	-0.438
-718.791	62.194	-0.039	0.039
-717.777	-200.000	0.021	0.230
-716.762	800.000	-0.021	0.064
-715.748	53.457	-0.306	-0.295
-714.733	-200.000	-0.035	-0.254
-713.718	117.472	-0.180	-0.222
-712.704	36.003	-0.193	-0.170
-711.689	-200.000	-0.022	-0.324
-710.675	290.402	0.236	0.431
-709.660	-200.000	-0.018	-0.117
-708.645	-200.000	-0.003	0.285
-707.631	-66.881	-0.054	0.021
-706.616	800.000	0.025	0.092
-705.602	380.905	-0.087	0.179
-704.587	57.801	0.303	-0.298
-703.572	800.000	0.078	-0.229
-702.558	800.000	-0.040	-0.172
-701.543	115.056	-0.143	0.175
-700.529	317.077	0.211	-0.402
-699.514	-200.000	-0.005	-0.025
-698.499	121.648	-0.040	0.050
-697.485	13.161	-0.072	-0.056
-696.470	-200.000	-0.040	-0.273
-695.456	-62.357	-0.056	0.023
-694.441	-1.130	-0.359	0.255
-693.426	-105.720	0.053	0.012
-692.412	-108.400	0.166	-0.036
-691.397	-200.000	0.043	-0.234
-690.383	-146.996	0.127	-0.011
-689.368	17.849	-0.155	0.124
-688.354	-200.000	0.045	-0.232
-687.339	-60.116	-0.153	0.066
-686.324	-172.872	0.283	-0.009
-685.310	470.478	0.091	-0.205
-684.295	800.000	-0.061	0.209
-683.281	-8.842	0.356	-0.240
-682.266	-9.346	-0.134	-0.090
-681.251	15.400	-0.283	-0.223
-680.237	109.687	0.117	-0.141
-679.222	22.674	0.191	-0.157
-678.208	-53.279	-0.150	0.069
-677.193	-118.766	0.299	0.053
-676.178	-75.265	0.258	0.092
-675.164	-200.000	-0.006	0.376
-674.149	7.994	0.073	0.055
-673.135	72.397	-0.065	0.068
-672.120	-200.000	-0.178	-0.001
-671.105	-200.000	-0.005	0.163
-670.091	-123.513	0.168	0.027
-669.076	-200.000	0.047	-0.347
-668.062	2.119	-0.119	-0.086
-667.047	92.610	-0.009	0.010
-666.032	-97.180	0.123	-0.032
-665.018	-52.251	-0.172	0.080
-664.003	220.264	-0.198	0.318
-662.989	-200.000	-0.009	-0.127
-661.974	523.874	0.098	-0.231
-660.959	237.561	-0.162	0.270
-659.945	564.582	0.148	-0.359
-658.930	197.901	0.112	0.172
-657.916	-87.654	0.287	-0.087
-656.901	-200.000	0.019	-0.222
-655.886	-200.000	0.017	-0.176
-654.872	800.000	-0.105	-0.303
-653.857	-200.000	0.027	0.201
-652.843	-200.000	0.008	0.088
-651.828	-91.904	-0.255	0.072
-650.814	-37.005	0.175	-0.094
-649.799	-2.864	0.144	-0.101
-648.784	-143.516	0.293	0.028
-647.770	-132.902	-0.221	-0.028
-646.755	-98.071	-0.470	0.121
-645.741	-45.129	0.224	-0.112
-644.726	84.523	0.136	0.149
-643.711	15.110	-0.146	0.114
-642.697	-22.834	-0.299	-0.181
-641.682	36.290	-0.052	-0.046
-640.668	-113.756	-0.148	-0.029
-639.653	163.652	-0.235	-0.331
-638.638	-142.597	0.183	0.018
-637.624	-110.105	0.167	0.035
-636.609	-1.048	0.116	0.082
-635.595	-165.483	-0.252	0.011
-634.580	-71.260	0.115	-0.043
-633.565	353.911	0.139	0.277
-632.551	-200.000	-0.019	-0.137
-631.536	800.000	-0.050	0.217
-630.522	800.000	-0.026	-0.107
-629.507	800.000	0.044	-0.189
-628.492	737.270	-0.037	-0.099
-627.478	-24.285	0.176	0.105
-626.463	712.074	-0.138	0.366
-625.449	800.000	0.092	-0.335
-624.434	77.721	0.023	-0.024
-623.419	800.000	-0.013	-0.054
-622.405	593.017	0.191	0.472
-621.390	373.270	-0.050	-0.101
-620.376	-85.766	-0.205	0.064
-619.361	-127.671	0.075	-0.011
-618.346	-45.193	0.128	0.064
-617.332	-200.000	-0.003	0.151
-616.317	-107.642	-0.466	0.102
-615.303	-200.000	0.023	0.459
-614.288	-56.716	0.357	0.158
-613.273	-127.972	-0.394	-0.057
-612.259	-102.930	-0.135	-0.032
-611.244	40.285	0.330	-0.297
-610.230	-64.067	-0.091	-0.037
-609.215	283.298	-0.031	-0.056
-608.201	-8.012	-0.050	-0.034
-607.186	-18.048	-0.075	0.047
-606.171	-85.450	-0.032	-0.010
-605.157	61.727	-0.112	0.111
-604.142	-72.798	-0.282	0.104
-603.128	800.000	-0.022	0.077
-602.113	251.369	0.075	-0.128
-601.098	-200.000	0.005	-0.039
-600.084	800.000	-0.066	-0.229
-599.069	800.000	0.064	0.199
-598.055	253.445	-0.055	-0.094
-597.040	195.802	-0.145	-0.221
-596.025	-200.000	-0.006	-0.094
-595.011	-200.000	0.010	-0.087
-593.996	96.337	-0.276	0.316
-592.982	-167.286	0.219	-0.009
-591.967	800.000	-0.088	-0.365
-590.952	800.000	0.041	0.124
-589.938	-200.000	0.041	-0.190
-588.923	161.534	-0.226	0.316
-587.909	28.285	0.176	-0.149
-586.894	120.931	-0.033	0.041
-585.879	800.000	-0.026	0.098
-584.865	-72.110	-0.202	0.075
-583.850	341.458	-0.064	0.124
-582.836	800.000	0.062	-0.221
-581.821	800.000	0.088	-0.315
-580.806	-97.659	-0.284	-0.074
-579.792	443.415	-0.103	-0.227
-578.777	-20.396	0.171	-0.105
-577.763	53.861	0.114	-0.110
-576.748	557.948	0.115	-0.277
-575.733	-67.149	-0.130	-0.051
-574.719	255.087	-0.083	0.141
-573.704	124.589	0.032	-0.041
-572.690	35.628	0.283	0.249
-571.675	114.337	0.158	-0.192
-570.661	-111.815	-0.327	0.066
-569.646	-117.581	-0.298	-0.054
-568.631	-38.608	-0.188	-0.099
-567.617	-70.513	0.111	0.042
-566.602	-149.671	-0.140	0.011
-565.588	-68.869	-0.226	-0.087
-564.573	-200.000	-0.038	0.484
-563.558	800.000	-0.057	-0.220
-562.544	-104.318	0.103	-0.024
-561.529	800.000	-0.057	0.161
-560.515	252.983	-0.230	-0.392
-559.500	-137.237	0.073	-0.008
-558.485	-127.613	0.131	0.019
-557.471	-200.000	-0.004	0.072
-556.456	-40.369	0.190	-0.099
-555.442	7.983	-0.199	-0.149
-554.427	-65.772	-0.257	0.103
-553.412	-122.075	0.334	0.055
-552.398	-28.115	0.062	-0.036
-551.383	655.229	-0.010	0.026
-550.369	28.111	-0.110	0.093
-549.354	-107.815	0.225	-0.049
-548.339	-200.000	-0.036	-0.196
-547.325	-124.421	0.125	0.019
-546.310	365.146	-0.078	0.157
-545.296	-200.000	-0.008	-0.157
-544.281	800.000	-0.015	0.066
-543.266	69.489	0.085	0.087
-542.252	-127.757	-0.179	-0.026
-541.237	37.930	0.103	0.091
-540.223	-200.000	-0.005	-0.065
-539.208	-97.029	-0.079	0.021
-538.193	533.746	0.129	-0.305
-537.179	-79.078	-0.293	-0.099
-536.164	100.076	0.180	0.208
-535.150	277.906	0.036	-0.063
-534.135	-84.016	-0.138	0.044
-533.121	-36.856	-0.065	-0.035
-532.106	-116.279	-0.168	0.031
-531.091	-150.692	-0.224	0.017
-530.077	248.485	0.063	0.106
-529.062	505.972	-0.157	0.362
-528.048	-149.617	-0.387	0.030
-527.033	-87.566	0.334	-0.101
-526.018	-150.904	-0.335	-0.025
-525.004	-172.625	0.160	-0.005
-523.989	800.000	0.068	-0.267
-522.975	156.514	0.038	0.053
-521.960	-114.193	0.231	-0.045
-520.945	-164.779	0.248	0.011
-519.931	-47.133	0.192	0.093
-518.916	-200.000	0.024	0.127
-517.902	-110.922	-0.169	-0.035
-516.887	800.000	-0.087	-0.332
-515.872	-82.391	-0.446	0.145
-514.858	-131.326	0.389	-0.051
-513.843	353.192	-0.108	-0.213
-512.829	-77.191	0.067	-0.023
-511.814	13.595	0.167	-0.130
-510.799	230.071	0.129	-0.210
-509.785	501.279	-0.092	0.212
-508.770	-200.000	-0.008	-0.109
-507.756	-75.673	0.154	0.055
-506.741	170.719	0.123	0.175
-505.726	-134.051	0.146	0.018
-504.712	800.000	0.035	0.126
-503.697	86.939	-0.188	-0.207
-502.683	-16.165	-0.501	-0.317
-501.668	-54.989	0.225	0.101
-500.653	123.092	-0.201	-0.251
-499.639	99.126	-0.069	-0.080
-498.624	-9.384	-0.193	-0.129
-497.610	-24.953	0.180	-0.107
-496.595	460.887	0.080	0.177
-495.581	-126.067	-0.171	0.026
-494.566	-135.115	0.083	-0.010
-493.551	800.000	0.013	0.042
-492.537	166.728	0.176	0.249
-491.522	-95.249	0.151	-0.041
-490.508	-63.198	-0.337	0.138
-489.493	-75.835	0.280	0.099
-488.478	524.914	0.066	0.155
-487.464	-134.759	-0.127	-0.015
-486.449	227.816	0.137	-0.222
-485.435	-101.801	0.301	-0.073
-484.420	-49.524	-0.217	0.103
-483.405	123.572	-0.094	-0.118
-482.391	59.657	-0.255	0.251
-481.376	800.000	0.042	0.152
-480.362	-111.614	-0.037	0.007
-479.347	349.577	0.160	-0.315
-478.332	-31.801	0.180	-0.101
-477.318	-132.922	-0.250	-0.032
-476.303	-27.885	-0.055	-0.032
-475.289	-200.000	-0.049	-0.215
-474.274	8.663	-0.213	0.160
-473.259	-41.829	0.057	-0.029
-472.245	-82.558	0.524	-0.169
-471.230	50.423	0.223	-0.210
-470.216	-106.795	0.248	0.055
-469.201	-21.398	0.375	-0.228
-468.186	402.427	-0.091	-0.191
-467.172	105.421	-0.388	-0.457
-466.157	-58.226	0.068	0.029
-465.143	94.587	-0.362	0.410
-464.128	-84.786	-0.189	-0.059
-463.113	-46.125	-0.151	-0.074
-462.099	800.000	0.033	-0.119
-461.084	610.952	0.061	0.153
-460.070	800.000	-0.003	0.013
-459.055	-200.000	0.028	-0.171
-458.040	800.000	-0.080	-0.231
-457.026	157.551	-0.089	-0.123
-456.011	346.698	0.111	-0.218
-454.997	193.380	0.062	-0.094
-453.982	-200.000	0.019	-0.087
-452.968	434.620	-0.026	0.056
-451.953	582.022	0.051	0.124
-450.938	-68.612	0.098	-0.038
-449.924	-30.643	0.143	-0.081
-448.909	800.000	-0.023	-0.094
-447.895	-114.149	0.114	-0.022
-446.880	-163.447	0.312	-0.015
-445.865	34.953	-0.061	-0.053
-444.851	549.416	0.101	0.241
-443.836	-49.059	0.332	-0.158
-442.822	800.000	-0.084	-0.233
-441.807	-196.710	0.181	0.001
-440.792	-200.000	-0.022	0.250
-439.778	-38.752	0.129	0.068
-438.763	21.141	-0.056	0.045
-437.749	800.000	-0.080	-0.251
-436.734	-106.759	0.132	-0.029
-435.719	-82.452	-0.439	0.142
-434.705	-85.659	-0.088	0.027
-433.690	-200.000	-0.013	0.061
-432.676	-158.604	-0.128	0.007
-431.661	728.960	-0.032	0.085
-430.646	800.000	-0.074	-0.281
-429.632	332.155	-0.127	-0.243
-428.617	262.076	0.081	0.139
-427.603	800.000	-0.060	-0.179
-426.588	-113.661	0.110	0.021
-425.573	-77.312	0.125	0.043
-424.559	301.015	0.083	-0.153
-423.544	200.050	0.037	0.056
-422.530	-97.402	-0.050	-0.013
-421.515	405.475	0.108	-0.226
-420.500	800.000	0.068	-0.278
-419.486	-200.000	-0.027	-0.152
-418.471	-82.398	0.048	-0.016
-417.457	-159.296	0.032	0.002
-416.442	-87.517	-0.053	-0.016
-415.428	116.664	-0.054	-0.065
-414.413	85.888	-0.189	-0.206
-413.398	-153.160	-0.160	0.011
-412.384	-93.601	0.387	-0.106
-411.369	-8.096	0.242	0.162
-410.355	-28.188	-0.387	0.223
-409.340	800.000	0.115	0.388
-408.325	67.725	-0.243	0.247
-407.311	-200.000	0.008	-0.277
-406.296	15.383	0.341	-0.266
-405.282	16.441	0.045	-0.035
-404.267	557.024	-0.049	-0.118
-403.252	800.000	-0.038	0.135
-402.238	800.000	-0.042	0.172
-401.223	-25.096	0.244	0.144
-400.209	-200.000	-0.046	-0.212
-399.194	130.567	0.127	0.162
-398.179	192.994	0.087	0.131
-397.165	249.360	0.118	-0.198
-396.150	-200.000	-0.010	0.318
-395.136	-200.000	-0.010	-0.108
-394.121	722.755	0.118	0.312
-393.106	-124.182	-0.159	-0.025
-392.092	-200.000	0.034	0.310
-391.077	800.000	0.085	-0.255
-390.063	-200.000	-0.052	-0.263
-389.048	-200.000	-0.031	0.145
-388.033	-137.529	0.180	0.020
-387.019	-38.724	-0.073	0.038
-386.004	-150.939	0.220	0.017
-384.990	800.000	-0.036	0.118
-383.975	-156.172	0.381	-0.024
-382.960	800.000	-0.030	0.121
-381.946	-200.000	-0.052	-0.249
-380.931	234.595	0.114	0.187
-379.917	-200.000	0.004	-0.087
-378.902	40.969	-0.209	0.188
-377.888	-200.000	0.020	0.216
-376.873	781.771	0.140	0.380
-375.858	532.669	0.157	0.369
-374.844	55.504	-0.226	0.217
-373.829	800.000	-0.047	-0.172
-372.815	-143.066	-0.189	-0.018
-371.800	-160.364	-0.212	0.011
-370.785	170.093	0.149	0.212
-369.771	-84.751	0.222	0.069
-368.756	800.000	-0.025	0.080
-367.742	-200.000	-0.002	0.204
-366.727	297.800	-0.021	0.038
-365.712	127.150	0.199	0.251
-364.698	-33.402	0.199	-0.109
-363.683	20.719	-0.185	-0.148
-362.669	-200.000	0.051	-0.248
-361.654	800.000	0.059	0.256
-360.639	116.002	-0.127	0.154
-359.625	77.609	-0.295	0.311
-358.610	123.838	0.018	-0.022
-357.596	139.406	-0.132	-0.172
-356.581	6.725	0.119	-0.088
-355.566	-174.212	0.120	0.003
-354.552	800.000	-0.082	0.231
-353.537	-132.003	-0.268	0.035
-352.523	800.000	-0.092	-0.295
-351.508	-39.027	-0.204	0.107
-350.493	-108.139	0.224	-0.048
-349.479	-200.000	-0.179	0.000
-348.464	800.000	0.056	0.170
-347.450	99.447	0.099	-0.113
-346.435	-30.621	-0.248	-0.140
-345.420	183.427	0.158	-0.232
-344.406	82.752	-0.051	0.055
-343.391	-95.306	0.044	0.012
-342.377	-41.100	0.151	-0.077
-341.362	-156.497	0.460	0.028
-340.348	-104.739	0.108	-0.025
-339.333	143.346	-0.075	-0.099
-338.318	-200.000	0.011	-0.048
-337.304	49.162	-0.108	0.101
-336.289	800.000	-0.065	0.193
-335.275	-53.855	0.253	0.114
-334.260	12.009	-0.114	-0.087
-333.245	800.000	-0.073	-0.210
-332.231	-99.266	-0.177	-0.044
-331.216	-22.957	0.145	0.086
-330.202	73.815	-0.241	-0.251
-329.187	27.616	0.115	0.096
-328.172	100.173	-0.359	-0.413
-327.158	-76.727	0.090	-0.031
-326.143	-3.126	0.059	0.041
-325.129	-103.431	0.248	0.058
-324.114	-91.765	0.059	-0.017
-323.099	171.135	0.167	-0.238
-322.085	800.000	0.111	0.392
-321.070	296.977	-0.104	0.189
-320.056	-200.000	-0.041	-0.229
-319.041	-1.007	-0.223	0.156
-318.026	408.139	0.136	0.284
-317.012	-200.000	0.069	-0.328
-315.997	800.000	0.050	0.160
-314.983	382.073	0.149	0.303
-313.968	67.369	0.231	0.234
-312.953	58.230	0.310	0.301
-311.939	-174.685	0.116	0.003
-310.924	-200.000	-0.010	-0.071
-309.910	-183.661	-0.123	0.002
-308.895	125.344	0.102	-0.128
-307.880	152.608	-0.158	0.213
-306.866	-136.213	0.219	-0.025
-305.851	693.979	-0.111	-0.289
-304.837	-200.000	-0.042	0.217
-303.822	-163.247	0.091	0.004
-302.807	-111.102	0.245	-0.050
-301.793	-94.738	-0.186	-0.050
-300.778	63.441	-0.170	0.169
-299.764	538.400	0.134	-0.315
-298.749	-72.003	0.293	-0.108
-297.735	725.881	-0.079	0.210
-296.720	-158.645	0.329	0.019
-295.705	-200.000	-0.063	0.327
-294.691	800.000	-0.074	-0.206
-293.676	-7.071	-0.087	-0.059
-292.662	39.911	0.266	-0.237
-291.647	-72.767	0.221	-0.081
-290.632	95.197	-0.071	-0.080
-289.618	282.980	-0.030	-0.054
-288.603	-40.534	0.280	0.144
-287.589	2.056	0.368	0.263
-286.574	-132.669	0.102	0.013
-285.559	504.342	-0.045	0.103
-284.545	800.000	0.053	-0.183
-283.530	-200.000	-0.022	-0.328
-282.516	-64.533	-0.197	0.079
-281.501	-200.000	0.006	0.058
-280.486	-119.501	-0.296	0.051
-279.472	-103.718	0.125	-0.029
-278.457	-112.886	-0.106	-0.021
-277.443	-44.656	0.091	0.045
-276.428	-81.149	0.129	-0.042
-275.413	-46.325	-0.189	-0.092
-274.399	-91.474	-0.066	0.019
-273.384	-200.000	-0.039	-0.245
-272.370	-131.170	0.156	0.021
-271.355	-50.815	0.247	0.115
-270.340	55.875	-0.176	0.169
-269.326	-51.771	0.091	-0.042
-268.311	-145.859	0.251	0.022
-267.297	293.507	-0.043	0.078
-266.282	800.000	-0.026	0.082
-265.267	78.198	0.076	-0.081
-264.253	800.000	0.033	0.104
-263.238	-200.000	-0.011	0.109
-262.224	-136.226	0.359	0.041
-261.209	800.000	0.065	-0.240
-260.195	800.000	0.031	-0.117
-259.180	11.830	-0.256	0.195
-258.165	-57.674	0.162	0.070
-257.151	-200.000	-0.034	-0.171
-256.136	800.000	-0.072	0.298
-255.122	-134.630	-0.182	-0.022
-254.107	224.089	-0.104	-0.165
-253.092	800.000	-0.140	0.423
-252.078	-7.625	-0.351	0.234
-251.063	8.068	0.140	0.104
-250.049	800.000	0.080	-0.223
-249.034	1.714	0.233	-0.166
-248.019	-28.158	-0.154	0.088
-247.005	-69.280	-0.144	-0.055
-245.990	73.980	-0.312	-0.323
-244.976	-148.058	0.103	0.008
-243.961	-118.119	-0.489	0.086
-242.946	0.879	-0.040	0.028
-241.932	-59.928	0.332	0.140
-240.917	800.000	0.070	-0.250
-239.903	-26.912	-0.287	0.166
-238.888	-200.000	0.020	0.112
-237.873	-200.000	-0.011	-0.211
-236.859	-46.058	-0.322	0.157
-235.844	-200.000	0.008	0.133
-234.830	346.475	0.098	-0.191
-233.815	-161.349	0.068	-0.003
-232.800	-200.000	0.051	-0.313
-231.786	-87.286	0.507	-0.152
-230.771	-52.585	-0.319	0.145
-229.757	5.353	-0.162	0.118
-228.742	-28.276	0.356	0.203
-227.727	323.802	0.059	-0.112
-226.713	-79.086	-0.379	-0.127
-225.698	84.668	-0.182	0.197
-224.684	111.041	-0.162	-0.193
-223.669	-20.410	-0.264	-0.160
-222.655	53.120	0.069	0.065
-221.640	-200.000	0.015	-0.140
-220.625	-200.000	0.004	0.058
-219.611	90.796	-0.156	-0.172
-218.596	183.171	0.062	0.090
-217.582	-84.142	0.240	0.075
-216.567	120.255	-0.176	-0.215
-215.552	27.433	-0.209	-0.173
-214.538	800.000	0.103	-0.304
-213.523	518.110	-0.073	0.169
-212.509	-52.736	0.225	-0.102
-211.494	93.457	-0.048	0.054
-210.479	-200.000	0.077	0.402
-209.465	-55.653	0.048	0.021
-208.450	-6.697	-0.080	0.054
-207.436	194.694	0.073	-0.109
-206.421	-200.000	-0.052	-0.240
-205.406	576.373	0.130	0.313
-204.392	-0.247	-0.093	-0.065
-203.377	-200.000	0.002	-0.034
-202.363	732.875	-0.102	0.269
-201.348	122.710	0.122	0.151
-200.333	-153.138	-0.105	-0.007
-199.319	139.465	-0.032	0.042
-198.304	-115.769	0.141	0.026
-197.290	-200.000	0.038	0.428
-196.275	-138.302	-0.260	0.028
-195.260	-0.397	-0.266	0.186
-194.246	-76.103	0.069	0.024
-193.231	-161.899	-0.239	-0.012
-192.217	-44.960	0.141	0.069
-191.202	-200.000	0.015	-0.131
-190.187	-200.000	-0.010	-0.130
-189.173	-165.290	-0.203	0.009
-188.158	36.224	0.265	0.230
-187.144	-61.519	-0.073	-0.030
-186.129	-82.954	0.259	0.082
-185.114	3.348	-0.379	-0.272
-184.100	-122.848	-0.190	-0.030
-183.085	-135.761	0.151	0.018
-182.071	-200.000	-0.037	0.211
-181.056	555.283	0.173	-0.411
-180.042	-200.000	0.003	0.194
-179.027	-145.088	-0.143	-0.013
-178.012	-59.619	-0.310	-0.131
-176.998	506.257	-0.082	0.187
-175.983	48.815	0.351	0.324
-174.969	40.734	0.183	-0.163
-173.954	123.163	0.338	0.417
-172.939	24.919	-0.124	-0.101
-171.925	-56.828	0.307	-0.134
-170.910	205.570	0.091	-0.139
-169.896	-90.294	-0.290	0.083
-168.881	-5.478	0.027	0.018
-167.866	33.042	-0.198	-0.169
-166.852	-200.000	0.021	0.101
-165.837	42.230	-0.134	0.120
-164.823	800.000	-0.116	-0.353
-163.808	-37.648	-0.282	-0.148
-162.793	413.468	-0.053	0.111
-161.779	-48.168	0.494	0.235
-160.764	-200.000	0.034	0.361
-159.750	84.069	-0.173	0.186
-158.735	186.810	-0.065	0.095
-157.720	-151.825	0.117	0.008
-156.706	188.268	0.145	0.214
-155.691	337.198	0.102	-0.196
-154.677	800.000	-0.043	-0.129
-153.662	-121.376	-0.240	0.039
-152.647	-123.318	-0.081	0.013
-151.633	-35.133	0.303	0.162
-150.618	-41.809	-0.130	0.066
-149.604	244.753	0.022	0.036
-148.589	-152.682	-0.333	0.023
-147.574	8.201	-0.124	-0.091
-146.560	270.847	-0.253	-0.437
-145.545	-200.000	0.040	-0.427
-144.531	-53.681	0.219	-0.098
-143.516	-161.767	0.243	-0.012
-142.502	42.446	0.276	0.247
-141.487	289.194	-0.281	0.501
-140.472	171.031	0.148	0.209
-139.458	30.376	-0.152	0.128
-138.443	-18.203	-0.227	-0.139
-137.429	800.000	-0.046	0.190
-136.414	800.000	-0.144	0.415
-135.399	75.858	0.091	-0.094
-134.385	-109.842	-0.044	-0.009
-133.370	-57.908	0.241	-0.104
-132.356	800.000	-0.101	0.345
-131.341	264.698	0.067	0.115
-130.326	122.388	0.101	-0.124
-129.312	-99.198	0.187	0.046
-128.297	694.501	0.047	0.122
-127.283	503.839	-0.051	-0.116
-126.268	-200.000	-0.019	-0.112
-125.253	199.142	0.210	-0.316
-124.239	156.845	0.356	0.483
-123.224	-200.000	-0.060	0.502
-122.210	65.118	-0.223	0.221
-121.195	800.000	0.036	-0.123
-120.180	-37.804	-0.447	0.234
-119.166	135.383	0.153	0.195
-118.151	45.717	0.227	-0.206
-117.137	-161.901	0.164	-0.008
-116.122	203.278	-0.074	0.113
-115.107	800.000	-0.069	-0.192
-114.093	-68.292	0.296	-0.113
-113.078	-200.000	-0.019	-0.136
-112.064	-125.962	-0.146	0.022
-111.049	-200.000	0.027	-0.122
-110.034	-200.000	-0.024	0.166
-109.020	38.484	-0.289	-0.253
-108.005	-143.902	0.320	-0.030
-106.991	-108.010	0.177	-0.038
-105.976	-70.981	-0.287	0.106
-104.962	402.829	0.031	-0.064
-103.947	187.106	-0.069	0.101
-102.932	26.147	0.108	0.089
-101.918	86.979	-0.126	0.136
-100.903	79.942	-0.050	0.053
-99.889	-105.040	0.317	0.071
-98.874	-72.531	-0.159	-0.058
-97.859	-35.867	0.196	-0.104
-96.845	-200.000	-0.048	-0.257
-95.830	-104.028	0.328	-0.075
-94.816	-140.211	-0.042	0.004
-93.801	-95.956	0.099	-0.026
-92.786	96.342	0.297	0.333
-91.772	-54.216	0.171	0.076
-90.757	-63.224	0.399	-0.161
-89.743	-145.293	-0.093	0.008
-88.728	29.984	0.052	0.044
-87.713	382.957	-0.077	-0.155
-86.699	-177.545	0.123	-0.003
-85.684	-12.363	0.176	-0.113
-84.670	164.491	0.126	-0.175
-83.655	-182.892	0.130	0.002
-82.640	393.691	0.092	0.188
-81.626	-200.000	-0.013	-0.111
-80.611	800.000	0.121	0.444
-79.597	58.465	0.064	-0.062
-78.582	-126.250	-0.116	0.017
-77.567	800.000	0.030	0.122
-76.553	-141.889	-0.180	-0.018
-75.538	-3.419	-0.188	-0.128
-74.524	-86.113	0.188	-0.057
-73.509	-5.916	0.282	-0.189
-72.494	152.948	0.073	0.098
-71.480	165.194	-0.010	-0.013
-70.465	11.868	-0.020	0.015
-69.451	-145.450	0.102	-0.009
-68.436	639.523	-0.103	-0.258
-67.422	-200.000	0.045	0.255
-66.407	-200.000	0.029	0.250
-65.392	-20.994	0.107	-0.064
-64.378	-200.000	-0.025	-0.214
-63.363	-120.598	0.100	-0.017
-62.349	-101.177	0.146	-0.035
-61.334	-21.303	-0.963	-0.577
-60.319	50.137	0.843	0.780
-59.305	800.000	-0.326	-1.196
-58.290	35.044	0.821	0.705
-57.276	232.183	0.709	1.140
-56.261	-200.000	111.206	613.796
-55.246	507.926	1517.015	3452.493
-54.232	176.929	2694.116	3842.679
-53.217	108.609	2174.123	2545.630
-52.203	38.925	1703.711	1492.241
-51.188	31.861	1521.800	1284.664
-50.173	29.626	1496.537	1248.212
-49.159	50.868	1554.275	1443.356
-48.144	50.793	1570.322	1457.679
-47.130	32.097	1525.261	1289.008
-46.115	29.192	1510.266	1256.504
-45.100	28.948	1507.186	1252.230
-44.086	28.938	1504.946	1250.246
-43.071	28.883	1502.777	1248.026
-42.057	28.826	1500.977	1246.097
-41.042	28.821	1500.051	1245.244
-40.027	28.777	1498.762	1243.827
-39.013	28.793	1497.227	1242.606
-37.998	28.704	1496.005	1240.947
-36.984	28.804	1494.679	1240.472
-35.969	28.694	1493.304	1238.536
-34.954	28.801	1492.172	1238.273
-33.940	28.804	1490.882	1237.173
-32.925	28.833	1489.311	1236.013
-31.911	28.789	1488.290	1234.819
-30.896	28.823	1486.787	1233.757
-29.881	28.820	1485.267	1232.421
-28.867	28.950	1483.775	1232.004
-27.852	28.902	1483.111	1231.087
-26.838	28.905	1481.641	1229.840
-25.823	28.856	1480.398	1228.428
-24.809	28.898	1478.954	1227.464
-23.794	28.916	1477.138	1226.029
-22.779	28.906	1476.408	1225.307
-21.765	28.840	1475.396	1223.975
-20.750	28.912	1474.110	1223.338
-19.736	28.759	1473.277	1221.584
-18.721	28.779	1471.630	1220.301
-17.706	28.827	1470.482	1219.623
-16.692	28.773	1469.747	1218.606
-15.677	28.865	1468.547	1218.170
-14.663	28.798	1467.849	1217.097
-13.648	28.811	1466.465	1215.990
-12.633	28.813	1465.984	1215.556
-11.619	28.787	1465.065	1214.571
-10.604	28.786	1463.870	1213.527
-9.590	28.874	1462.928	1213.281
-8.575	28.780	1462.195	1212.006
-7.560	28.734	1460.982	1210.644
-6.546	28.818	1460.077	1210.400
-5.531	28.696	1459.826	1209.345
-4.517	28.803	1458.356	1208.782
-3.502	28.752	1457.589	1207.763
-2.487	28.745	1456.616	1206.862
-1.473	28.749	1455.016	1205.517
-0.458	28.803	1453.943	1204.929
0.556	30.360	1444.182	1193.737
1.571	27.270	1418.279	1152.673
2.586	23.502	1360.088	1082.336
3.600	21.761	1278.377	1007.224
4.615	20.491	1231.946	963.520
5.629	17.987	1175.556	906.069
6.644	10.600	1092.708	805.588
7.659	4.821	1054.290	749.449
8.673	4.135	1048.519	741.995
9.688	3.759	1045.244	737.818
10.702	3.602	1043.699	735.915
11.717	3.605	1041.978	734.651
12.731	6.380	1044.130	749.320
13.746	14.196	1055.196	794.655
14.761	21.192	1064.106	834.870
15.775	23.225	1065.763	845.820
16.790	22.788	1064.586	842.725
17.804	22.032	1062.745	837.588
18.819	21.342	1061.275	833.068
19.834	20.979	1060.084	830.328
20.848	20.952	1059.767	829.882
21.863	21.016	1059.469	829.875
22.877	21.005	1058.854	829.268
23.892	20.871	1057.992	827.885
24.907	20.605	1057.132	825.875
25.921	20.711	1055.678	825.169
26.936	20.573	1055.429	824.248
27.950	20.533	1054.275	823.082
28.965	20.594	1052.786	822.138
29.980	20.573	1051.844	821.228
30.994	20.773	1051.106	821.526
32.009	21.043	1050.100	821.936
33.023	20.900	1049.857	821.003
34.038	20.929	1048.722	820.178
35.053	20.754	1047.999	818.716
36.067	20.687	1047.124	817.645
37.082	20.651	1045.686	816.281
38.096	20.606	1045.043	815.495
39.111	20.724	1044.872	815.842
40.126	20.922	1043.526	815.649
41.140	20.779	1042.260	813.915
42.155	20.444	1040.651	811.024
43.169	20.144	1039.563	808.708
44.184	20.076	1038.494	807.487
45.199	20.122	1037.618	806.949
46.213	20.100	1036.550	805.942
47.228	20.209	1036.115	806.042
48.242	20.626	1035.620	807.521
49.257	20.830	1035.010	807.919
50.271	20.707	1034.005	806.492
51.286	20.710	1033.583	806.105
52.301	20.834	1033.215	806.324
53.315	20.908	1032.210	805.810
54.330	20.683	1031.217	803.925
55.344	20.444	1030.174	801.935
56.359	20.399	1029.330	801.003
57.374	20.367	1028.336	800.008
58.388	20.236	1027.618	798.776
59.403	20.181	1026.927	797.914
60.417	20.101	1025.472	796.345
61.432	19.925	1025.368	795.388
62.447	20.082	1024.480	795.348
63.461	19.985	1023.757	794.274
64.476	19.850	1022.765	792.811
65.490	19.798	1021.754	791.721
66.505	19.690	1020.984	790.561
67.520	19.815	1020.204	790.456
68.534	19.986	1019.587	790.689
69.549	19.817	1018.813	789.251
70.563	19.795	1017.899	788.369
71.578	19.728	1016.880	787.205
72.593	19.505	1015.846	785.321
73.607	19.498	1014.546	784.215
74.622	19.348	1013.941	782.996
75.636	19.410	1013.208	782.645
76.651	19.532	1012.446	782.539
77.666	19.530	1011.792	781.956
78.680	19.615	1010.943	781.615
79.695	19.572	1010.673	781.144
80.709	19.749	1010.108	781.436
81.724	19.812	1009.453	781.145
82.739	19.936	1008.768	781.107
83.753	20.091	1007.841	781.016
84.768	20.378	1007.635	782.080
85.782	20.980	1007.481	784.602
86.797	21.170	1006.611	784.709
87.812	21.268	1006.278	784.823
88.826	20.905	1005.438	782.469
89.841	20.747	1004.524	780.977
90.855	20.945	1003.777	781.214
91.870	21.009	1003.179	780.966
92.884	21.183	1002.262	780.962
93.899	21.064	1001.324	779.632
94.914	20.969	1000.493	778.492
95.928	21.023	999.628	777.990
96.943	21.009	999.116	777.461
97.957	20.768	998.409	775.768
98.972	20.798	997.281	774.957
99.987	20.869	996.642	774.706
101.001	20.956	995.952	774.487
102.016	20.899	995.208	773.589
103.030	20.870	994.153	772.570
104.045	20.759	993.594	771.577
105.060	20.875	992.561	771.222
106.074	20.823	991.248	769.903
107.089	20.558	990.041	767.725
108.103	20.174	989.442	765.496
109.118	20.013	988.010	763.614
110.133	19.875	986.972	762.134
111.147	19.707	986.462	760.935
112.162	19.712	985.021	759.776
113.176	19.756	984.397	759.423
114.191	19.964	983.842	759.840
115.206	20.039	983.190	759.599
116.220	20.083	982.383	759.101
117.235	20.014	981.072	757.718
118.249	20.008	980.274	757.008
119.264	19.980	979.544	756.254
120.279	19.736	978.635	754.421
121.293	19.613	977.858	753.219
122.308	19.592	977.657	752.906
123.322	19.567	976.315	751.697
124.337	19.481	975.080	750.308
125.352	19.432	973.764	749.017
126.366	19.295	973.168	747.898
127.381	19.329	972.022	747.095
128.395	19.492	971.363	747.231
129.410	19.522	970.380	746.538
130.424	19.696	969.930	746.877
131.439	19.766	968.664	746.138
132.454	19.838	968.398	746.179
133.468	20.002	967.576	746.186
134.483	20.006	967.278	745.908
135.497	20.016	966.450	745.243
136.512	20.043	965.606	744.645
137.527	20.119	964.560	744.099
138.541	20.012	963.986	743.132
139.556	20.019	963.534	742.747
140.570	20.082	962.636	742.258
141.585	20.421	961.866	743.049
142.600	20.625	961.729	743.752
143.614	20.836	960.693	743.786
144.629	20.918	960.545	743.955
145.643	20.909	959.850	743.311
146.658	20.911	958.491	742.202
147.673	20.622	957.215	739.918
148.687	20.386	956.498	738.298
149.702	20.416	955.056	737.244
150.716	20.150	953.949	735.196
151.731	20.033	953.229	734.084
152.746	20.207	952.712	734.356
153.760	20.224	952.157	733.933
154.775	20.304	951.163	733.442
155.789	20.482	950.355	733.504
156.804	20.419	950.166	733.028
157.819	20.405	949.180	732.142
158.833	20.515	948.441	731.974
159.848	20.691	947.714	732.089
160.862	20.924	947.228	732.627
161.877	20.763	946.830	731.576
162.892	20.417	945.097	728.722
163.906	20.092	943.810	726.305
164.921	20.007	942.693	725.023
165.935	20.084	941.891	724.665
166.950	20.182	941.123	724.420
167.964	20.171	940.756	724.028
168.979	20.311	939.001	723.195
169.994	20.200	938.015	721.909
171.008	20.138	937.204	720.963
172.023	20.359	936.331	721.147
173.037	20.506	936.239	721.622
174.052	20.817	935.563	722.327
175.067	20.599	935.316	721.168
176.081	20.324	933.723	718.739
177.096	19.913	932.446	715.992
178.110	19.764	931.845	714.854
179.125	19.899	931.357	714.972
180.140	20.148	929.879	714.802
181.154	20.131	929.815	714.619
182.169	20.339	929.735	715.353
183.183	20.475	929.332	715.537
184.198	20.589	928.634	715.405
185.213	20.598	927.868	714.791
186.227	20.559	927.298	714.128
187.242	20.573	927.015	713.904
188.256	20.807	926.325	714.267
189.271	20.947	925.359	714.036
190.286	20.991	925.000	713.873
191.300	20.871	923.650	712.277
192.315	20.223	922.703	708.838
193.329	19.800	921.426	706.069
194.344	19.838	921.002	705.834
195.359	19.956	920.922	706.192
196.373	20.248	920.043	706.647
197.388	20.211	919.910	706.333
198.402	20.492	919.845	707.360
199.417	20.834	919.492	708.421
200.432	21.125	918.765	708.980
201.446	21.213	918.593	709.139
202.461	21.279	918.528	709.295
203.475	21.359	918.089	709.218
204.490	21.468	916.866	708.654
205.504	20.826	915.992	705.316
206.519	20.702	914.630	703.703
207.534	20.740	913.885	703.221
208.548	20.600	913.625	702.395
209.563	20.760	912.612	702.200
210.577	20.697	912.112	701.496
211.592	20.586	911.987	700.894
212.607	20.982	910.951	701.626
213.621	21.192	911.042	702.482
214.636	21.085	910.259	701.386
215.650	20.926	909.493	700.094
216.665	20.870	909.490	699.803
217.680	21.002	909.042	699.929
218.694	21.086	908.641	699.896
219.709	21.240	907.856	699.845
220.723	21.184	907.046	698.935
221.738	21.119	906.153	697.924
222.753	20.987	905.540	696.862
223.767	20.773	905.116	695.621
224.782	21.016	903.859	695.561
225.796	21.149	903.435	695.704
226.811	21.427	902.615	696.119
227.826	21.130	902.096	694.475
228.840	20.908	901.528	693.093
229.855	20.856	900.234	691.831
230.869	20.871	899.796	691.491
231.884	20.803	898.794	690.390
232.899	20.736	898.056	689.497
233.913	20.545	897.589	688.320
234.928	20.575	896.652	687.659
235.942	20.454	896.225	686.796
236.957	20.463	895.186	685.975
237.972	20.334	894.600	684.956
238.986	20.548	893.778	685.107
240.001	20.464	893.406	684.429
241.015	20.346	892.965	683.567
242.030	20.557	892.132	683.701
243.045	20.732	891.622	683.934
244.059	20.806	891.202	683.845
245.074	20.794	890.349	683.083
246.088	20.728	890.382	682.786
247.103	20.999	889.494	683.110
248.117	21.159	889.471	683.656
249.132	21.330	889.124	683.999
250.147	21.784	888.937	685.570
251.161	22.074	888.618	686.396
252.176	22.206	888.192	686.524
253.190	22.122	887.688	685.745
254.205	22.103	887.503	685.467
255.220	22.366	886.456	685.624
256.234	22.208	885.780	684.424
257.249	22.019	885.009	683.032
258.263	22.082	884.573	682.882
259.278	22.030	883.724	681.961
260.293	22.085	882.787	681.393
261.307	22.147	882.695	681.501
262.322	22.201	882.350	681.384
263.336	22.169	881.813	680.786
264.351	22.157	881.300	680.282
265.366	22.251	880.424	679.909
266.380	22.253	879.589	679.213
267.395	22.248	879.017	678.693
268.409	22.038	878.194	677.185
269.424	21.988	877.899	676.706
270.439	21.966	876.928	675.814
271.453	21.867	876.033	674.684
272.468	21.561	875.597	673.111
273.482	21.670	874.542	672.658
274.497	21.525	874.456	671.977
275.512	21.650	873.346	671.545
276.526	21.708	872.870	671.340
277.541	21.745	872.015	670.765
278.555	21.818	871.231	670.381
279.570	22.083	871.231	671.336
280.585	22.316	870.777	671.817
281.599	22.223	870.351	671.074
282.614	22.032	869.829	669.882
283.628	21.898	868.898	668.595
284.643	21.755	867.957	667.267
285.657	21.826	867.621	667.222
286.672	21.827	867.287	666.908
287.687	21.865	866.301	666.235
288.701	21.937	866.361	666.498
289.716	21.872	865.920	665.853
290.730	21.856	865.089	665.093
291.745	21.989	864.290	664.924
292.760	21.910	864.064	664.392
293.774	22.015	863.347	664.180
294.789	22.410	863.171	665.478
295.803	22.478	862.337	665.033
296.818	21.830	861.946	662.226
297.833	21.718	860.889	660.934
298.847	21.790	860.075	660.519
299.862	21.889	859.239	660.195
300.876	21.939	858.805	659.990
301.891	22.019	858.362	659.890
302.906	22.317	858.351	660.946
303.920	22.553	857.575	661.175
304.935	22.613	856.783	660.731
305.949	22.846	856.614	661.412
306.964	22.558	855.892	659.719
307.979	22.264	855.109	657.959
308.993	22.203	854.404	657.128
310.008	22.415	853.946	657.510
311.022	22.481	853.831	657.610
312.037	22.539	852.905	657.055
313.052	22.282	852.421	655.667
314.066	21.916	851.694	653.685
315.081	21.757	850.669	652.248
316.095	21.565	849.900	650.888
317.110	21.782	849.354	651.220
318.125	21.754	849.081	650.847
319.139	21.869	848.198	650.539
320.154	21.786	847.834	649.896
321.168	21.692	847.001	648.850
322.183	21.808	846.569	648.893
323.197	21.908	846.296	648.996
324.212	22.114	845.404	649.015
325.227	21.940	845.347	648.270
326.241	22.001	844.769	647.996
327.256	21.764	844.409	646.788
328.270	21.849	843.531	646.372
329.285	21.842	842.920	645.820
330.300	21.706	842.220	644.728
331.314	21.635	841.799	644.085
332.329	21.758	841.489	644.244
333.343	21.968	840.891	644.499
334.358	22.265	840.157	644.972
335.373	22.236	840.140	644.795
336.387	22.331	839.576	644.653
337.402	22.435	838.917	644.471
338.416	22.441	838.441	644.070
339.431	22.447	838.416	644.013
340.446	22.729	837.952	644.633
341.460	22.838	837.685	644.769
342.475	23.007	836.937	644.751
343.489	22.992	836.359	644.194
344.504	23.218	835.472	644.276
345.519	23.179	835.527	644.121
346.533	23.331	835.185	644.353
347.548	23.257	834.570	643.552
348.562	22.927	833.292	641.314
349.577	22.773	832.461	640.056
350.592	22.396	832.214	638.445
351.606	22.381	831.468	637.762
352.621	22.227	830.648	636.519
353.635	22.208	830.414	636.214
354.650	22.355	830.012	636.382
355.665	22.418	829.467	636.132
356.679	22.488	828.891	635.889
357.694	22.598	828.644	636.041
358.708	22.623	828.448	635.925
359.723	22.565	827.925	635.256
360.738	22.473	827.177	634.294
361.752	22.482	826.552	633.792
362.767	22.590	826.477	634.066
363.781	22.856	826.002	634.601
364.796	23.052	825.507	634.870
365.810	23.232	825.389	635.368
366.825	23.413	825.209	635.823
367.840	23.540	824.577	635.735
368.854	23.443	824.293	635.112
369.869	23.185	823.440	633.476
370.883	23.087	822.634	632.451
371.898	23.000	822.018	631.608
372.913	23.349	821.576	632.460
373.927	23.418	821.496	632.588
374.942	23.303	820.335	631.227
375.956	23.166	819.601	630.121
376.971	23.198	819.577	630.160
377.986	23.382	819.104	630.395
379.000	23.624	818.374	630.638
380.015	23.693	818.007	630.542
381.029	23.564	817.680	629.778
382.044	23.395	816.989	628.591
383.059	23.514	816.079	628.258
384.073	23.564	815.806	628.168
385.088	23.459	815.011	627.130
386.102	23.124	814.143	625.222
387.117	22.993	813.482	624.195
388.132	22.897	812.806	623.282
389.146	22.818	812.515	622.727
390.161	22.944	811.987	622.710
391.175	23.163	812.169	623.568
392.190	23.386	811.820	624.029
393.205	23.131	811.382	622.739
394.219	22.903	810.786	621.423
395.234	22.858	810.048	620.645
396.248	22.787	809.122	619.634
397.263	22.726	808.782	619.102
398.278	22.601	808.499	618.393
399.292	22.557	808.059	617.848
400.307	22.580	807.693	617.593
401.321	22.475	806.885	616.554
402.336	22.413	806.873	616.273
403.350	22.767	806.207	616.947
404.365	22.847	806.050	617.052
405.380	23.125	805.620	617.641
406.394	23.559	805.160	618.746
407.409	23.674	804.899	618.892
408.423	23.741	804.584	618.828
409.438	23.715	804.398	618.539
410.453	23.841	804.045	618.652
411.467	23.798	803.586	618.094
412.482	23.938	802.789	617.915
413.496	24.047	802.312	617.869
414.511	24.009	802.447	617.788
415.526	24.008	802.175	617.521
416.540	23.937	801.348	616.581
417.555	23.856	800.947	615.939
418.569	23.818	800.433	615.357
419.584	23.671	799.927	614.406
420.599	23.749	799.588	614.359
421.613	162.992	1371.599	1796.728
422.628	141.540	1454.936	1796.799
