DTS Sentinel unit serial number:	SN413079Multiplexer serial number:	ORYXHardware model number:	OX4-SRSoftware version number:	ORYX F/W v4.00 Oryx Data Collector v3.7.2.0data status	okinstallation	princeton_trtdifferential loss correction	single-endedforward channel	channel 3reverse channel	N/Adate	2019/09/11time	02:34:11forward acquisition time	60.00reverse acquisition time	0.00gamma	496.2192k internal	0.2332k external	0.2332temperature offset calibration	0.9910default loss term (dB/km)	0.3790temperature slope calibration	1.0000multiplexer offset coefficient	1.0000multiplexer slope coefficient	1.0000fibre end	0.00T internal ref (°C)	29.25T ext. ref 1 (°C)	-0.31T ext. ref 2 (°C)	23.36length (m)	temperature (°C)	Stokes	anti-Stokes-747.200	19.461	0.204	-0.165
-746.185	-90.362	-0.297	0.087
-745.171	180.635	0.212	-0.313
-744.156	550.068	-0.119	0.286
-743.142	-200.000	-0.008	0.302
-742.127	-135.013	-0.126	0.015
-741.112	800.000	0.075	0.252
-740.098	1.277	0.119	0.086
-739.083	302.008	0.071	-0.133
-738.069	258.104	0.069	0.120
-737.054	-178.408	0.359	-0.008
-736.039	-200.000	-0.015	-0.195
-735.025	13.739	0.147	-0.115
-734.010	-23.233	-0.157	0.095
-732.996	-121.743	-0.430	0.071
-731.981	278.188	0.082	-0.147
-730.966	-102.367	0.122	-0.029
-729.952	9.085	-0.218	0.166
-728.937	800.000	0.077	-0.269
-727.923	-29.842	-0.327	0.187
-726.908	-95.118	-0.100	-0.027
-725.894	-177.705	-0.215	0.005
-724.879	121.022	-0.236	-0.296
-723.864	-161.907	-0.135	0.007
-722.850	32.959	0.255	0.222
-721.835	247.754	0.079	-0.134
-720.821	114.225	-0.188	0.230
-719.806	326.046	-0.071	0.136
-718.791	95.155	0.129	-0.148
-717.777	-200.000	-0.006	-0.147
-716.762	-200.000	-0.084	-0.385
-715.748	30.583	-0.116	-0.100
-714.733	-65.526	-0.177	0.071
-713.718	-74.285	0.181	-0.066
-712.704	133.648	-0.321	-0.417
-711.689	139.178	-0.104	-0.138
-710.675	383.046	0.087	0.181
-709.660	85.139	0.017	-0.019
-708.645	551.233	-0.086	0.206
-707.631	118.004	0.121	0.150
-706.616	800.000	0.057	-0.163
-705.602	-46.926	-0.196	-0.096
-704.587	-200.000	0.062	-0.302
-703.572	-29.905	-0.104	0.060
-702.558	281.104	-0.151	-0.271
-701.543	277.604	-0.291	0.520
-700.529	137.320	0.217	-0.285
-699.514	800.000	-0.100	0.328
-698.499	129.762	0.314	0.403
-697.485	-200.000	-0.030	0.131
-696.470	6.545	-0.077	-0.057
-695.456	800.000	0.069	-0.225
-694.441	-67.600	-0.111	0.044
-693.426	-200.000	0.031	-0.182
-692.412	-115.747	-0.210	0.040
-691.397	604.323	-0.060	-0.149
-690.383	87.227	-0.221	0.245
-689.368	64.967	0.083	-0.084
-688.354	-8.035	0.147	0.099
-687.339	-135.410	0.252	-0.030
-686.324	-200.000	-0.003	-0.137
-685.310	586.181	-0.076	-0.187
-684.295	40.138	-0.116	0.105
-683.281	141.864	-0.117	-0.156
-682.266	37.534	0.255	-0.227
-681.251	-66.531	0.238	-0.095
-680.237	44.466	0.171	0.158
-679.222	-11.292	-0.118	0.078
-678.208	-2.061	0.302	-0.213
-677.193	15.956	-0.067	0.053
-676.178	800.000	0.083	-0.255
-675.164	-200.000	-0.022	-0.186
-674.149	19.557	0.165	-0.133
-673.135	-87.149	0.112	0.034
-672.120	19.330	-0.165	0.133
-671.105	536.325	0.039	0.093
-670.091	-24.010	0.112	-0.067
-669.076	-184.645	0.098	-0.002
-668.062	-200.000	0.007	-0.091
-667.047	-104.102	-0.120	-0.028
-666.032	-120.599	-0.286	-0.049
-665.018	-90.144	0.364	-0.106
-664.003	-200.000	-0.039	-0.267
-662.989	-58.577	-0.227	-0.099
-661.974	-61.555	0.184	-0.077
-660.959	-200.000	0.045	-0.229
-659.945	-49.189	0.139	0.067
-658.930	-200.000	0.015	-0.323
-657.916	-49.881	-0.181	-0.086
-656.901	365.096	-0.134	-0.270
-655.886	-94.565	0.249	0.068
-654.872	-200.000	-0.067	0.343
-653.857	169.328	0.088	-0.126
-652.843	-84.877	-0.164	-0.052
-651.828	-93.793	0.222	-0.061
-650.814	81.416	-0.136	-0.147
-649.799	-200.000	0.007	-0.198
-648.784	-119.782	-0.140	0.024
-647.770	293.985	0.189	-0.346
-646.755	231.491	0.048	0.079
-645.741	495.251	-0.129	0.297
-644.726	-111.630	0.180	0.037
-643.711	-190.049	-0.154	-0.002
-642.697	-200.000	0.023	0.195
-641.682	800.000	0.065	-0.244
-640.668	5.105	0.258	0.190
-639.653	-64.955	-0.243	-0.098
-638.638	-25.220	0.133	0.079
-637.624	-58.093	0.131	-0.057
-636.609	-108.073	-0.081	-0.018
-635.595	64.546	-0.265	0.268
-634.580	122.278	0.347	0.434
-633.565	275.809	-0.161	0.287
-632.551	270.952	0.099	-0.175
-631.536	800.000	-0.041	0.157
-630.522	-141.511	0.083	-0.008
-629.507	-200.000	-0.025	0.155
-628.492	-176.697	-0.245	0.006
-627.478	-70.801	0.119	-0.045
-626.463	222.814	0.104	-0.167
-625.449	-105.764	-0.239	-0.054
-624.434	-90.425	-0.139	-0.040
-623.419	233.953	-0.073	0.120
-622.405	-200.000	0.042	0.324
-621.390	-120.629	-0.155	-0.026
-620.376	800.000	0.040	-0.137
-619.361	295.777	-0.120	-0.221
-618.346	-200.000	-0.019	-0.230
-617.332	57.092	-0.133	0.129
-616.317	643.116	0.027	-0.069
-615.303	-111.224	-0.140	-0.029
-614.288	664.989	-0.027	-0.069
-613.273	800.000	0.086	-0.254
-612.259	275.038	0.094	-0.167
-611.244	-200.000	0.016	-0.124
-610.230	-200.000	-0.118	-0.001
-609.215	633.964	-0.047	0.120
-608.201	-200.000	0.003	0.155
-607.186	-0.945	-0.166	0.118
-606.171	-200.000	-0.006	-0.042
-605.157	11.508	-0.257	0.197
-604.142	29.325	0.290	-0.247
-603.128	800.000	-0.038	0.115
-602.113	45.110	0.113	0.105
-601.098	-136.841	0.080	0.009
-600.084	15.062	-0.264	-0.207
-599.069	45.064	0.078	-0.071
-598.055	215.746	0.182	-0.289
-597.040	364.997	-0.192	-0.387
-596.025	-20.379	0.144	0.088
-595.011	-200.000	-0.013	-0.280
-593.996	800.000	-0.075	-0.274
-592.982	-102.368	-0.278	-0.067
-591.967	138.986	-0.108	-0.142
-590.952	506.479	-0.140	0.325
-589.938	56.312	-0.050	-0.049
-588.923	28.647	-0.118	0.100
-587.909	797.121	0.116	-0.320
-586.894	12.418	-0.179	-0.138
-585.879	-135.077	0.335	0.040
-584.865	82.613	0.171	0.185
-583.850	102.637	0.204	-0.239
-582.836	35.219	-0.197	0.173
-581.821	-126.017	0.271	-0.041
-580.806	-200.000	0.012	-0.169
-579.792	-71.260	0.287	-0.108
-578.777	-117.080	0.322	-0.059
-577.763	-200.000	0.038	-0.215
-576.748	2.321	-0.325	-0.235
-575.733	-66.883	0.140	-0.055
-574.719	-200.000	-0.005	0.035
-573.704	-47.111	-0.176	0.086
-572.690	91.805	-0.246	-0.276
-571.675	50.739	0.133	-0.126
-570.661	-22.759	0.122	-0.074
-569.646	94.410	0.229	0.260
-568.631	-28.358	-0.110	0.064
-567.617	32.430	0.209	0.180
-566.602	119.622	0.290	0.358
-565.588	-200.000	-0.009	-0.044
-564.573	-150.096	-0.280	-0.022
-563.558	-176.132	0.081	0.002
-562.544	-105.608	0.166	-0.037
-561.529	-101.739	-0.168	0.041
-560.515	59.951	0.102	0.101
-559.500	-73.902	0.150	-0.054
-558.485	-24.872	0.210	-0.125
-557.471	-1.270	-0.434	0.306
-556.456	-73.659	-0.196	0.071
-555.442	173.192	-0.216	-0.311
-554.427	-111.713	0.181	0.037
-553.412	56.963	-0.131	-0.127
-552.398	-200.000	0.011	0.060
-551.383	114.632	-0.198	0.241
-550.369	77.276	0.128	-0.135
-549.354	-200.000	-0.024	-0.146
-548.339	125.306	-0.146	0.184
-547.325	-200.000	-0.092	0.403
-546.310	-92.246	-0.213	-0.060
-545.296	-141.440	-0.292	-0.029
-544.281	10.203	0.158	0.120
-543.266	146.890	-0.057	0.076
-542.252	303.608	-0.119	0.220
-541.237	435.305	0.101	-0.218
-540.223	-112.200	0.266	0.053
-539.208	-200.000	-0.002	0.022
-538.193	800.000	-0.112	-0.363
-537.179	-178.762	0.341	0.008
-536.164	246.986	-0.164	-0.276
-535.150	-116.806	-0.259	-0.047
-534.135	103.744	0.170	-0.199
-533.121	347.466	0.178	0.351
-532.106	181.232	-0.245	0.359
-531.091	-77.443	-0.132	0.046
-530.077	-88.302	0.285	0.085
-529.062	43.910	0.133	-0.122
-528.048	-200.000	0.050	0.236
-527.033	-200.000	-0.019	0.170
-526.018	53.233	0.225	0.215
-525.004	-11.435	0.124	-0.081
-523.989	209.852	-0.118	-0.184
-522.975	-86.413	-0.010	-0.003
-521.960	-28.560	0.259	-0.149
-520.945	259.634	0.042	0.072
-519.931	-200.000	0.011	0.447
-518.916	800.000	-0.106	-0.302
-517.902	-3.467	0.090	-0.063
-516.887	-200.000	-0.045	-0.238
-515.872	286.914	-0.204	-0.367
-514.858	-200.000	0.011	-0.152
-513.843	-200.000	0.046	-0.293
-512.829	-144.760	0.114	0.010
-511.814	-27.104	-0.156	0.091
-510.799	56.068	-0.380	-0.367
-509.785	149.984	0.063	-0.085
-508.770	-200.000	-0.047	0.377
-507.756	-1.183	-0.069	0.049
-506.741	-200.000	0.008	-0.168
-505.726	85.507	-0.225	-0.246
-504.712	579.841	-0.024	0.059
-503.697	-153.917	0.160	-0.011
-502.683	-200.000	0.048	-0.340
-501.668	56.776	-0.182	0.177
-500.653	131.749	0.118	-0.152
-499.639	222.501	0.028	-0.044
-498.624	-82.412	0.280	-0.091
-497.610	253.346	-0.068	-0.116
-496.595	-51.584	-0.224	0.104
-495.581	-130.951	0.158	0.021
-494.566	-28.358	0.136	-0.078
-493.551	105.809	0.139	0.163
-492.537	275.095	-0.083	-0.146
-491.522	620.623	0.052	-0.129
-490.508	-30.319	-0.141	0.080
-489.493	-9.676	-0.207	0.137
-488.478	107.125	-0.201	-0.238
-487.464	16.829	-0.062	-0.049
-486.449	-200.000	-0.085	-0.411
-485.435	800.000	0.006	0.024
-484.420	800.000	0.071	0.268
-483.405	76.790	0.292	-0.309
-482.391	-83.252	0.099	0.032
-481.376	-114.652	0.302	-0.058
-480.362	-180.813	-0.134	0.003
-479.347	800.000	-0.057	-0.171
-478.332	-54.240	0.349	-0.158
-477.318	1.749	0.194	-0.139
-476.303	800.000	-0.005	0.021
-475.289	-129.562	0.166	0.023
-474.274	-65.874	-0.143	-0.057
-473.259	-17.984	-0.231	-0.144
-472.245	-58.201	0.156	-0.068
-471.230	800.000	-0.058	0.213
-470.216	177.575	-0.177	0.257
-469.201	-132.868	0.189	-0.024
-468.186	575.671	-0.090	0.219
-467.172	-142.836	-0.281	-0.027
-466.157	90.456	0.198	0.221
-465.143	-19.605	-0.034	0.021
-464.128	-84.240	-0.163	-0.051
-463.113	-200.000	-0.021	-0.097
-462.099	-200.000	-0.000	0.194
-461.084	72.586	0.180	-0.187
-460.070	44.717	-0.178	0.163
-459.055	800.000	0.037	-0.148
-458.040	320.267	-0.124	-0.235
-457.026	-40.876	0.207	0.107
-456.011	227.857	0.128	-0.208
-454.997	54.661	0.113	-0.108
-453.982	69.619	0.164	0.168
-452.968	65.096	0.061	-0.061
-451.953	-200.000	-0.010	-0.068
-450.938	-18.755	0.219	0.136
-449.924	-200.000	-0.036	-0.230
-448.909	25.283	-0.108	0.089
-447.895	-151.093	-0.348	0.026
-446.880	16.676	0.143	0.112
-445.865	-152.015	0.157	-0.011
-444.851	330.897	-0.170	0.325
-443.836	18.360	-0.098	0.078
-442.822	133.825	0.105	0.135
-441.807	-200.000	0.023	-0.156
-440.792	16.402	-0.092	-0.072
-439.778	-95.777	-0.185	-0.049
-438.763	800.000	-0.044	-0.150
-437.749	-34.077	-0.076	0.041
-436.734	49.211	0.190	-0.178
-435.719	-200.000	0.039	0.189
-434.705	-200.000	-0.025	0.308
-433.690	-86.166	-0.272	-0.083
-432.676	5.127	-0.102	-0.075
-431.661	640.131	-0.067	-0.168
-430.646	522.636	-0.104	0.244
-429.632	-50.407	0.265	-0.124
-428.617	-78.306	-0.192	-0.065
-427.603	251.471	-0.106	0.179
-426.588	-200.000	0.034	0.256
-425.573	4.183	-0.121	0.088
-424.559	-9.031	0.377	-0.251
-423.544	-109.815	0.251	-0.052
-422.530	-200.000	0.030	-0.321
-421.515	122.430	-0.132	-0.164
-420.500	123.290	0.296	0.369
-419.486	-112.372	0.153	0.030
-418.471	-55.563	0.295	0.131
-417.457	33.648	-0.233	-0.202
-416.442	51.989	0.157	-0.148
-415.428	-153.086	0.086	0.006
-414.413	329.100	0.095	-0.182
-413.398	-200.000	-0.011	0.205
-412.384	162.364	0.249	0.346
-411.369	-200.000	-0.020	-0.238
-410.355	322.527	-0.071	0.134
-409.340	800.000	0.047	-0.187
-408.325	-200.000	0.013	-0.161
-407.311	168.472	-0.278	-0.393
-406.296	38.850	0.180	0.159
-405.282	-46.369	-0.162	0.079
-404.267	181.369	0.187	-0.273
-403.252	234.418	0.176	-0.289
-402.238	-200.000	-0.044	0.405
-401.223	192.262	0.130	0.195
-400.209	58.658	-0.095	-0.092
-399.194	-156.706	-0.140	-0.009
-398.179	10.551	0.098	0.074
-397.165	-134.491	-0.219	0.027
-396.150	273.630	-0.051	0.089
-395.136	-57.167	0.077	-0.034
-394.121	-6.632	-0.069	-0.047
-393.106	303.075	-0.090	-0.165
-392.092	800.000	-0.040	0.167
-391.077	33.076	-0.079	0.068
-390.063	241.320	-0.088	0.145
-389.048	-89.279	0.368	-0.108
-388.033	737.858	0.093	-0.248
-387.019	-34.701	-0.285	0.155
-386.004	800.000	-0.129	0.416
-384.990	260.119	-0.092	0.159
-383.975	800.000	-0.035	0.128
-382.960	-200.000	0.015	-0.182
-381.946	-8.517	-0.296	0.197
-380.931	-119.436	-0.358	-0.062
-379.917	115.433	-0.181	-0.219
-378.902	-200.000	0.080	-0.375
-377.888	-103.087	0.287	0.067
-376.873	-128.244	-0.384	0.054
-375.858	800.000	0.080	-0.265
-374.844	-43.290	-0.147	0.074
-373.829	-200.000	-0.055	0.263
-372.815	204.623	0.095	-0.147
-371.800	177.965	-0.156	-0.225
-370.785	800.000	0.089	0.337
-369.771	262.867	-0.089	0.153
-368.756	-200.000	-0.061	0.301
-367.742	-200.000	0.001	0.145
-366.727	217.319	0.119	-0.188
-365.712	86.490	-0.177	0.193
-364.698	-92.545	-0.139	0.039
-363.683	-200.000	-0.039	0.237
-362.669	-95.931	-0.166	0.044
-361.654	82.204	0.091	0.098
-360.639	-8.038	0.074	0.049
-359.625	131.886	0.084	-0.107
-358.610	310.367	-0.044	-0.081
-357.596	5.111	-0.350	-0.255
-356.581	-200.000	-0.018	-0.091
-355.566	347.566	-0.048	-0.094
-354.552	-123.221	0.107	0.017
-353.537	83.710	-0.165	0.178
-352.523	-200.000	0.069	0.408
-351.508	-49.049	0.229	0.109
-350.493	-10.171	-0.250	0.165
-349.479	800.000	-0.043	0.123
-348.464	22.578	-0.102	-0.082
-347.450	514.909	-0.064	0.147
-346.435	-200.000	0.013	0.165
-345.420	-188.487	0.031	-0.000
-344.406	-120.855	0.429	-0.072
-343.391	-200.000	0.029	-0.166
-342.377	22.311	-0.088	-0.071
-341.362	12.919	-0.091	-0.069
-340.348	-200.000	0.007	0.384
-339.333	-200.000	-0.028	0.257
-338.318	-8.755	0.178	-0.118
-337.304	-110.430	0.416	-0.086
-336.289	139.302	0.179	0.233
-335.275	46.661	-0.201	-0.185
-334.260	651.725	-0.020	0.050
-333.245	800.000	0.064	-0.263
-332.231	800.000	-0.011	-0.042
-331.216	-138.393	0.134	0.015
-330.202	-91.076	-0.244	0.069
-329.187	-167.707	-0.347	-0.014
-328.172	1.249	-0.354	0.252
-327.158	-200.000	0.000	-0.113
-326.143	500.723	0.155	-0.354
-325.129	-12.898	-0.163	-0.105
-324.114	-16.136	0.097	-0.061
-323.099	-200.000	-0.039	0.414
-322.085	-125.315	-0.341	-0.052
-321.070	-22.786	-0.091	0.055
-320.056	-172.993	0.474	-0.014
-319.041	82.742	0.057	-0.062
-318.026	800.000	-0.078	-0.295
-317.012	-78.179	-0.059	-0.020
-315.997	105.006	-0.333	-0.389
-314.983	-200.000	0.013	-0.167
-313.968	7.844	0.216	-0.160
-312.953	800.000	0.049	0.168
-311.939	-200.000	-0.139	-0.613
-310.924	161.279	0.038	-0.052
-309.910	71.132	0.130	0.134
-308.895	93.187	0.282	0.315
-307.880	395.705	0.029	0.061
-306.866	800.000	-0.092	0.395
-305.851	-200.000	0.025	0.303
-304.837	-200.000	-0.020	0.160
-303.822	22.265	0.163	0.132
-302.807	-200.000	0.010	0.345
-301.793	13.480	0.088	0.067
-300.778	-127.188	0.079	-0.011
-299.764	553.803	0.024	-0.056
-298.749	30.729	-0.452	-0.383
-297.735	-200.000	0.037	0.183
-296.720	552.826	0.116	-0.276
-295.705	800.000	0.037	0.136
-294.691	4.556	0.197	-0.143
-293.676	390.802	0.193	-0.395
-292.662	20.157	0.094	-0.075
-291.647	-197.449	-0.353	-0.002
-290.632	-110.575	0.055	0.011
-289.618	800.000	-0.048	-0.198
-288.603	800.000	-0.089	0.276
-287.589	-200.000	0.015	0.163
-286.574	800.000	0.100	-0.305
-285.559	-84.760	0.332	0.103
-284.545	800.000	-0.054	-0.201
-283.530	329.193	-0.086	0.163
-282.516	-55.977	0.254	-0.112
-281.501	-200.000	-0.007	0.080
-280.486	7.366	0.205	-0.151
-279.472	196.612	-0.083	0.126
-278.457	-132.714	-0.449	0.057
-277.443	-88.230	0.153	0.045
-276.428	800.000	-0.120	-0.424
-275.413	143.985	-0.117	-0.154
-274.399	-111.848	0.215	0.043
-273.384	-200.000	-0.001	0.045
-272.370	-87.713	0.067	0.020
-271.355	-48.049	0.399	0.190
-270.340	363.436	0.133	0.263
-269.326	3.244	-0.266	0.191
-268.311	-122.037	-0.033	-0.005
-267.297	-62.953	-0.158	-0.064
-266.282	-48.629	0.214	-0.102
-265.267	-200.000	-0.001	0.117
-264.253	285.387	-0.186	0.332
-263.238	127.299	-0.113	0.141
-262.224	746.808	0.057	-0.151
-261.209	-200.000	0.076	-0.382
-260.195	800.000	0.182	0.527
-259.180	-64.185	-0.310	0.125
-258.165	-108.959	-0.208	-0.044
-257.151	-63.161	-0.022	0.009
-256.136	-74.060	0.278	-0.100
-255.122	-147.008	0.182	-0.015
-254.107	246.412	0.071	-0.119
-253.092	192.889	-0.189	-0.281
-252.078	-131.791	-0.012	0.002
-251.063	-200.000	-0.024	-0.167
-250.049	-14.151	0.260	-0.166
-249.034	660.531	-0.066	0.167
-248.019	391.222	-0.068	0.139
-247.005	-111.827	-0.287	0.057
-245.990	-4.096	-0.144	-0.098
-244.976	-94.835	0.095	-0.025
-243.961	-200.000	0.021	0.290
-242.946	101.608	0.111	-0.127
-241.932	194.790	0.116	0.174
-240.917	-159.273	0.274	0.015
-239.903	73.081	-0.296	-0.305
-238.888	158.901	-0.032	-0.044
-237.873	55.316	-0.331	0.316
-236.859	356.473	0.113	0.221
-235.844	4.782	0.272	0.197
-234.830	273.586	-0.155	0.271
-233.815	-28.737	-0.293	-0.166
-232.800	-121.531	-0.302	0.049
-231.786	-123.697	0.116	-0.018
-230.771	-175.998	0.053	0.001
-229.757	-200.000	0.005	-0.158
-228.742	-168.954	-0.340	-0.013
-227.727	800.000	0.122	-0.396
-226.713	790.026	0.038	-0.102
-225.698	-65.185	-0.405	-0.161
-224.684	-112.929	-0.237	0.046
-223.669	557.668	-0.103	0.244
-222.655	78.263	0.189	-0.199
-221.640	-71.076	0.101	-0.037
-220.625	800.000	-0.085	0.247
-219.611	221.489	0.117	-0.186
-218.596	252.843	0.164	-0.275
-217.582	-174.575	0.056	-0.002
-216.567	-75.912	0.267	0.093
-215.552	-17.369	0.118	0.073
-214.538	-57.278	0.273	0.118
-213.523	-200.000	-0.035	-0.182
-212.509	4.223	0.472	-0.341
-211.494	-5.511	-0.159	-0.108
-210.479	173.697	-0.142	0.202
-209.465	-12.726	0.507	-0.326
-208.450	542.275	-0.034	0.079
-207.436	-200.000	-0.060	-0.276
-206.421	-70.299	-0.260	0.097
-205.406	291.859	0.175	-0.314
-204.392	206.670	-0.045	0.069
-203.377	-200.000	0.007	-0.077
-202.363	-62.592	-0.081	0.033
-201.348	568.029	0.088	0.211
-200.333	62.229	0.117	0.115
-199.319	-59.765	-0.090	-0.038
-198.304	271.501	-0.059	-0.103
-197.290	-200.000	0.012	0.132
-196.275	65.154	0.274	0.273
-195.260	800.000	-0.047	0.138
-194.246	-88.274	0.365	-0.108
-193.231	132.281	0.230	-0.292
-192.217	100.729	-0.219	0.251
-191.202	-134.371	0.233	-0.028
-190.187	-200.000	-0.015	-0.085
-189.173	-127.513	-0.346	0.049
-188.158	-86.652	-0.282	-0.085
-187.144	-200.000	0.018	-0.123
-186.129	20.518	0.083	0.066
-185.114	-136.911	-0.174	-0.020
-184.100	-116.870	-0.202	0.036
-183.085	58.405	0.160	0.154
-182.071	-120.190	0.209	0.035
-181.056	-90.988	0.190	-0.054
-180.042	-31.870	0.099	-0.054
-179.027	-102.999	-0.311	0.073
-178.012	-200.000	-0.116	0.591
-176.998	-55.931	-0.055	-0.024
-175.983	-46.178	-0.170	-0.082
-174.969	-200.000	0.065	0.458
-173.954	186.119	-0.185	0.270
-172.939	-200.000	-0.006	-0.184
-171.925	-200.000	0.027	0.149
-170.910	-106.112	0.296	-0.065
-169.896	-200.000	0.027	0.212
-168.881	-131.426	0.133	0.017
-167.866	120.311	0.248	0.303
-166.852	393.594	-0.067	-0.137
-165.837	-8.026	0.425	0.282
-164.823	-200.000	0.021	0.453
-163.808	101.400	-0.113	-0.129
-162.793	28.954	-0.081	0.067
-161.779	-57.919	0.251	-0.108
-160.764	800.000	-0.040	-0.114
-159.750	6.120	-0.136	0.099
-158.735	-94.480	0.210	0.056
-157.720	645.621	-0.061	0.153
-156.706	167.391	-0.103	-0.144
-155.691	-200.000	0.002	-0.129
-154.677	466.410	-0.073	0.160
-153.662	800.000	-0.085	0.278
-152.647	-15.371	-0.237	-0.149
-151.633	55.367	0.239	0.227
-150.618	4.819	0.289	0.209
-149.604	-155.374	0.216	-0.014
-148.589	-93.022	-0.205	-0.056
-147.574	36.161	-0.443	-0.384
-146.560	84.289	0.068	-0.073
-145.545	-200.000	0.009	-0.149
-144.531	-93.699	-0.164	-0.045
-143.516	-200.000	-0.066	-0.294
-142.502	27.237	-0.191	-0.158
-141.487	422.486	0.178	-0.376
-140.472	243.474	0.238	-0.393
-139.458	149.517	0.198	0.263
-138.443	732.539	0.098	0.258
-137.429	-200.000	0.017	0.212
-136.414	-103.691	0.136	-0.031
-135.399	15.250	-0.158	0.121
-134.385	181.119	0.093	-0.134
-133.370	800.000	0.022	0.069
-132.356	63.870	0.142	0.140
-131.341	55.592	0.078	0.074
-130.326	578.828	-0.047	-0.113
-129.312	24.300	0.066	-0.054
-128.297	462.355	0.064	-0.140
-127.283	106.620	0.256	-0.298
-126.268	-51.550	-0.355	0.163
-125.253	61.142	-0.063	-0.062
-124.239	265.159	-0.080	-0.137
-123.224	373.846	0.093	-0.186
-122.210	-200.000	-0.043	-0.416
-121.195	393.071	-0.093	0.190
-120.180	18.251	-0.084	-0.066
-119.166	106.737	-0.159	-0.185
-118.151	800.000	0.079	-0.224
-117.137	-147.950	-0.140	0.011
-116.122	-200.000	-0.049	0.220
-115.107	-123.078	0.180	0.028
-114.093	6.053	0.241	-0.175
-113.078	323.210	0.033	0.061
-112.064	115.891	-0.181	0.218
-111.049	-104.640	-0.225	0.051
-110.034	223.462	-0.079	0.126
-109.020	800.000	0.073	-0.288
-108.005	184.725	0.238	0.346
-106.991	-200.000	0.076	-0.390
-105.976	-42.448	-0.107	-0.054
-104.962	800.000	0.118	-0.386
-103.947	-66.768	0.056	-0.022
-102.932	395.736	-0.050	0.102
-101.918	-106.105	-0.314	-0.069
-100.903	-107.044	0.359	0.078
-99.889	88.643	-0.149	0.162
-98.874	-200.000	0.038	0.281
-97.859	800.000	0.061	-0.169
-96.845	-44.803	0.107	-0.052
-95.830	-200.000	-0.025	0.109
-94.816	-200.000	0.020	0.101
-93.801	303.530	-0.068	0.124
-92.786	93.529	-0.248	-0.275
-91.772	-22.670	0.243	0.144
-90.757	-200.000	0.010	-0.082
-89.743	-200.000	0.015	0.088
-88.728	-200.000	0.017	-0.084
-87.713	-102.413	0.069	-0.016
-86.699	-29.943	0.408	0.228
-85.684	722.115	0.079	-0.206
-84.670	146.184	-0.199	-0.262
-83.655	-200.000	-0.033	0.178
-82.640	38.410	0.140	-0.122
-81.626	800.000	-0.214	-0.718
-80.611	170.534	-0.239	-0.335
-79.597	-110.191	0.451	0.092
-78.582	800.000	-0.098	-0.269
-77.567	-170.844	0.280	0.009
-76.553	-200.000	-0.095	0.472
-75.538	-106.129	0.246	0.054
-74.524	-37.869	-0.113	-0.059
-73.509	705.502	0.176	0.456
-72.494	-200.000	-0.002	0.090
-71.480	35.369	-0.135	0.116
-70.465	-14.551	-0.123	0.077
-69.451	-2.293	-0.157	-0.108
-68.436	-200.000	0.009	0.088
-67.422	-51.681	0.226	0.103
-66.407	172.962	0.139	-0.196
-65.392	-61.286	0.249	0.103
-64.378	800.000	0.058	0.233
-63.363	217.874	0.068	0.106
-62.349	104.448	0.257	0.296
-61.334	130.147	-0.998	-1.252
-60.319	104.123	0.429	0.494
-59.305	800.000	-0.304	-1.187
-58.290	591.174	0.450	1.088
-57.276	227.139	1.012	1.611
-56.261	-200.000	106.498	620.254
-55.246	515.280	1511.759	3457.517
-54.232	176.223	2703.004	3844.829
-53.217	110.103	2185.531	2569.409
-52.203	39.901	1706.154	1500.302
-51.188	32.355	1518.184	1283.703
-50.173	30.035	1491.089	1245.172
-49.159	51.127	1547.999	1437.842
-48.144	51.350	1564.215	1454.377
-47.130	32.469	1519.671	1285.535
-46.115	29.532	1505.301	1253.429
-45.100	29.435	1501.591	1249.630
-44.086	29.295	1500.034	1247.338
-43.071	29.296	1497.164	1244.906
-42.057	29.231	1495.664	1243.173
-41.042	29.236	1494.211	1241.948
-40.027	29.255	1492.531	1240.629
-39.013	29.234	1491.182	1239.318
-37.998	29.175	1490.404	1238.226
-36.984	29.216	1488.649	1236.999
-35.969	29.150	1487.382	1235.449
-34.954	29.209	1486.070	1234.712
-33.940	29.189	1484.304	1233.060
-32.925	29.251	1483.045	1232.378
-31.911	29.333	1481.655	1231.722
-30.896	29.371	1480.709	1231.142
-29.881	29.296	1479.617	1229.685
-28.867	29.250	1478.182	1228.135
-27.852	29.296	1476.729	1227.183
-26.838	29.319	1475.383	1226.172
-25.823	29.317	1474.085	1225.028
-24.809	29.361	1472.046	1223.580
-23.794	29.404	1470.726	1222.718
-22.779	29.247	1469.650	1220.735
-21.765	29.394	1468.608	1220.794
-20.750	29.306	1467.604	1219.331
-19.736	29.261	1466.600	1218.148
-18.721	29.298	1465.243	1217.219
-17.706	29.195	1464.360	1215.756
-16.692	29.287	1463.030	1215.214
-15.677	29.272	1462.099	1214.290
-14.663	29.324	1460.875	1213.566
-13.648	29.229	1460.152	1212.294
-12.633	29.229	1459.322	1211.559
-11.619	29.258	1458.410	1210.940
-10.604	29.319	1457.322	1210.390
-9.590	29.163	1456.680	1208.785
-8.575	29.233	1455.730	1208.411
-7.560	29.157	1455.327	1207.526
-6.546	29.107	1454.568	1206.521
-5.531	29.092	1453.671	1205.634
-4.517	29.144	1452.973	1205.346
-3.502	29.227	1451.473	1204.596
-2.487	29.226	1450.219	1203.501
-1.473	29.219	1449.321	1202.661
-0.458	29.266	1448.096	1201.904
0.556	26.889	1438.307	1190.796
1.571	24.012	1413.218	1151.338
2.586	20.765	1354.208	1083.004
3.600	19.287	1273.664	1009.845
4.615	18.251	1229.104	968.566
5.629	15.736	1173.730	911.241
6.644	7.624	1090.016	805.207
7.659	0.819	1050.431	742.569
8.673	-0.130	1044.772	733.868
9.688	-0.308	1041.525	730.659
10.702	-0.427	1039.546	728.625
11.717	-0.384	1037.332	727.217
12.731	2.554	1040.655	743.765
13.746	11.237	1053.413	795.344
14.761	18.384	1062.491	837.183
15.775	20.078	1064.638	847.086
16.790	20.493	1063.973	848.510
17.804	20.324	1063.274	847.054
18.819	20.190	1062.297	845.546
19.834	20.238	1061.733	845.258
20.848	20.308	1061.567	845.391
21.863	20.350	1061.393	845.383
22.877	20.378	1060.766	844.941
23.892	20.356	1059.582	843.819
24.907	20.170	1059.095	842.454
25.921	20.250	1058.266	842.105
26.936	20.257	1057.862	841.743
27.950	20.327	1056.349	840.808
28.965	20.235	1055.242	839.406
29.980	20.113	1053.613	837.446
30.994	20.028	1051.997	835.679
32.009	20.392	1051.175	836.703
33.023	20.265	1050.857	835.765
34.038	20.103	1049.703	833.997
35.053	20.150	1048.764	833.402
36.067	20.409	1047.691	833.717
37.082	20.414	1047.025	833.140
38.096	20.450	1046.006	832.424
39.111	20.493	1045.682	832.302
40.126	20.525	1044.713	831.609
41.140	20.509	1043.391	830.409
42.155	20.209	1041.917	827.727
43.169	19.877	1040.991	825.334
44.184	20.041	1039.640	824.974
45.199	20.103	1038.492	824.284
46.213	20.010	1037.212	822.755
47.228	19.940	1036.336	821.652
48.242	20.085	1035.784	821.831
49.257	20.221	1035.070	821.837
50.271	20.199	1034.210	820.975
51.286	20.390	1033.201	821.006
52.301	20.382	1032.294	820.173
53.315	20.276	1031.778	819.192
54.330	20.320	1031.120	818.803
55.344	20.309	1030.063	817.841
56.359	20.332	1029.060	817.081
57.374	20.308	1028.203	816.214
58.388	20.161	1027.366	814.788
59.403	20.074	1026.617	813.711
60.417	20.162	1025.782	813.390
61.432	19.880	1025.136	811.486
62.447	20.050	1023.825	811.170
63.461	20.270	1023.206	811.637
64.476	20.188	1022.312	810.475
65.490	20.314	1021.576	810.409
66.505	20.056	1020.674	808.418
67.520	20.081	1020.075	807.988
68.534	20.254	1019.099	807.951
69.549	20.002	1018.077	805.896
70.563	19.689	1017.205	803.678
71.578	19.731	1016.044	802.885
72.593	19.894	1014.833	802.615
73.607	19.637	1013.912	800.622
74.622	19.560	1013.498	799.867
75.636	19.926	1012.270	800.519
76.651	20.050	1011.567	800.467
77.666	19.983	1010.541	799.274
78.680	19.780	1009.719	797.619
79.695	19.821	1009.575	797.623
80.709	19.947	1008.791	797.514
81.724	19.960	1008.031	796.900
82.739	19.968	1006.727	795.835
83.753	19.933	1005.934	794.977
84.768	20.093	1005.858	795.584
85.782	20.475	1004.565	796.242
86.797	20.489	1004.412	796.114
87.812	20.703	1003.124	796.002
88.826	20.501	1002.063	794.168
89.841	20.539	1000.967	793.403
90.855	20.424	1000.462	792.406
91.870	20.568	999.571	792.284
92.884	20.664	998.659	791.929
93.899	20.335	998.026	789.859
94.914	20.391	996.238	788.631
95.928	20.544	995.656	788.797
96.943	20.519	994.909	788.019
97.957	20.126	993.882	785.357
98.972	20.064	992.687	784.064
99.987	19.885	991.488	782.236
101.001	19.956	991.083	782.168
102.016	20.252	990.319	782.831
103.030	20.425	989.550	782.935
104.045	20.207	988.400	780.976
105.060	20.072	987.053	779.234
106.074	19.777	986.362	777.292
107.089	20.027	985.332	777.536
108.103	20.323	985.443	778.883
109.118	20.464	984.268	778.519
110.133	20.170	982.932	776.073
111.147	20.051	982.141	774.852
112.162	19.999	981.273	773.863
113.176	19.853	980.017	772.155
114.191	19.894	979.621	771.956
115.206	20.054	978.273	771.537
116.220	19.709	976.667	768.668
117.235	19.629	976.125	767.818
118.249	19.702	975.587	767.651
119.264	19.886	974.407	767.475
120.279	19.856	973.528	766.580
121.293	19.661	973.392	765.542
122.308	19.831	971.939	765.083
123.322	19.975	970.689	764.668
124.337	19.799	969.679	763.025
125.352	19.664	968.518	761.449
126.366	19.451	966.747	759.054
127.381	19.041	965.441	756.161
128.395	19.610	964.722	758.030
129.410	20.217	964.871	760.743
130.424	20.369	963.956	760.619
131.439	20.379	962.760	759.653
132.454	20.252	961.846	758.309
133.468	20.207	961.244	757.569
134.483	20.117	960.365	756.418
135.497	20.384	959.435	756.780
136.512	20.478	959.014	756.792
137.527	20.515	957.890	755.999
138.541	20.519	957.144	755.358
139.556	20.456	956.699	754.669
140.570	20.615	955.304	754.192
141.585	20.472	954.840	753.137
142.600	20.457	954.520	752.753
143.614	20.422	953.269	751.551
144.629	20.419	952.699	751.019
145.643	20.795	951.965	751.999
146.658	20.748	950.711	750.741
147.673	20.579	949.405	748.915
148.687	20.487	948.435	747.687
149.702	20.372	947.443	746.345
150.716	20.185	946.795	744.966
151.731	20.369	945.278	744.494
152.746	20.399	944.850	744.221
153.760	20.508	944.233	744.134
154.775	20.639	943.401	743.973
155.789	20.713	942.560	743.561
156.804	20.736	941.693	742.911
157.819	20.639	940.548	741.527
158.833	20.606	939.891	740.803
159.848	20.715	939.003	740.502
160.862	20.706	937.779	739.431
161.877	20.600	937.470	738.675
162.892	20.644	936.035	737.664
163.906	20.723	935.581	737.577
164.921	20.714	934.705	736.782
165.935	20.527	933.658	735.101
166.950	20.578	932.533	734.364
167.964	20.682	931.579	733.990
168.979	20.691	930.222	732.893
169.994	20.663	929.197	731.903
171.008	20.445	928.457	730.336
172.023	20.536	928.011	730.304
173.037	20.655	927.514	730.349
174.052	20.529	926.109	728.649
175.067	20.360	924.771	726.825
176.081	20.281	924.112	725.911
177.096	20.454	923.432	726.034
178.110	20.451	922.671	725.361
179.125	20.273	921.636	723.741
180.140	20.174	920.580	722.435
181.154	20.138	919.869	721.665
182.169	20.080	919.661	721.197
183.183	20.301	919.268	721.742
184.198	20.595	918.864	722.583
185.213	20.598	917.509	721.467
186.227	20.468	917.113	720.553
187.242	20.662	916.829	721.071
188.256	20.637	916.037	720.279
189.271	20.624	915.462	719.709
190.286	20.751	914.620	719.509
191.300	20.662	913.070	717.857
192.315	20.019	912.281	714.523
193.329	19.395	910.712	710.661
194.344	19.070	909.859	708.593
195.359	19.639	909.958	710.952
196.373	20.414	910.180	714.250
197.388	20.629	910.097	715.007
198.402	20.474	908.918	713.379
199.417	20.424	908.477	712.764
200.432	20.621	907.587	712.809
201.446	20.403	907.212	711.559
202.461	20.117	906.592	709.841
203.475	20.206	905.777	709.503
204.490	19.785	904.661	706.846
205.504	18.616	902.501	700.327
206.519	19.142	902.218	702.190
207.534	19.897	902.922	705.755
208.548	20.236	901.967	706.328
209.563	20.522	901.700	707.220
210.577	20.587	901.429	707.209
211.592	20.291	900.683	705.360
212.607	20.669	900.762	706.894
213.621	20.791	899.694	706.491
214.636	20.641	899.099	705.352
215.650	20.769	898.459	705.305
216.665	20.666	898.046	704.500
217.680	20.631	897.522	703.888
218.694	20.727	896.765	703.619
219.709	20.202	896.241	701.024
220.723	19.957	895.144	699.112
221.738	20.291	894.746	700.089
222.753	20.453	894.193	700.247
223.767	20.481	893.188	699.512
224.782	20.496	892.509	698.978
225.796	20.706	892.060	699.409
226.811	20.733	891.725	699.193
227.826	20.316	890.325	696.362
228.840	19.703	888.755	692.616
229.855	19.577	888.119	691.554
230.869	19.802	887.903	692.225
231.884	19.624	886.614	690.447
232.899	19.546	886.150	689.716
233.913	20.340	886.491	693.089
234.928	20.566	885.752	693.353
235.942	20.413	885.319	692.341
236.957	20.476	884.220	691.670
237.972	20.123	883.693	689.794
238.986	20.047	883.123	688.986
240.001	20.194	882.550	689.061
241.015	20.233	881.542	688.367
242.030	20.349	880.708	688.118
243.045	20.384	880.525	688.050
244.059	20.400	880.153	687.764
245.074	20.760	879.374	688.516
246.088	20.666	878.669	687.533
247.103	20.144	877.806	684.734
248.117	20.319	876.725	684.522
249.132	20.801	876.805	686.426
250.147	21.136	876.552	687.485
251.161	21.139	875.885	686.914
252.176	21.355	875.460	687.368
253.190	21.313	874.855	686.669
254.205	21.505	874.428	687.024
255.220	21.427	874.051	686.362
256.234	21.613	872.988	686.197
257.249	21.390	872.626	684.979
258.263	21.269	871.864	683.845
259.278	21.258	871.517	683.470
260.293	21.332	871.149	683.409
261.307	21.484	869.923	682.981
262.322	21.423	869.678	682.488
263.336	21.126	868.998	680.739
264.351	20.759	867.257	677.884
265.366	19.743	865.262	672.317
266.380	19.186	864.919	669.823
267.395	20.134	864.783	673.346
268.409	20.976	865.026	676.745
269.424	20.838	864.471	675.713
270.439	21.065	863.972	676.144
271.453	21.166	863.442	676.061
272.468	21.196	862.766	675.590
273.482	21.320	862.378	675.706
274.497	21.528	861.768	675.969
275.512	21.299	860.361	673.924
276.526	20.682	859.263	670.625
277.541	21.071	858.632	671.574
278.555	21.251	858.493	672.098
279.570	21.001	858.182	670.831
280.585	20.835	857.102	669.289
281.599	20.835	856.921	669.091
282.614	21.124	856.234	669.604
283.628	20.694	854.751	666.736
284.643	20.417	854.272	665.246
285.657	20.827	854.154	666.664
286.672	20.520	853.614	665.008
287.687	20.135	852.558	662.654
288.701	20.459	852.618	663.880
289.716	20.935	852.286	665.382
290.730	20.643	851.114	663.294
291.745	20.406	850.541	661.888
292.760	20.197	849.682	660.365
293.774	20.037	849.283	659.387
294.789	21.086	849.611	663.573
295.803	21.707	849.296	665.630
296.818	21.744	848.779	665.308
297.833	21.990	847.889	665.482
298.847	21.492	847.067	662.890
299.862	21.229	846.308	661.243
300.876	21.192	846.165	660.933
301.891	21.566	845.670	661.903
302.906	21.646	844.963	661.592
303.920	21.207	843.829	658.990
304.935	21.174	843.361	658.443
305.949	21.496	842.774	659.137
306.964	21.704	842.261	659.463
307.979	21.441	841.487	657.809
308.993	21.285	841.355	657.059
310.008	21.812	840.985	658.694
311.022	21.807	840.492	658.230
312.037	21.813	839.646	657.533
313.052	21.566	839.015	656.054
314.066	21.420	838.371	654.945
315.081	20.639	837.137	651.003
316.095	20.136	835.778	648.006
317.110	20.557	836.029	649.719
318.125	21.330	835.947	652.484
319.139	21.006	834.894	650.398
320.154	20.001	833.031	645.145
321.168	19.644	832.106	643.044
322.183	20.154	832.627	645.287
323.197	21.065	832.744	648.711
324.212	21.231	832.699	649.235
325.227	21.346	832.370	649.352
326.241	21.549	831.990	649.751
327.256	21.512	830.995	648.776
328.270	21.432	830.301	647.882
329.285	21.395	829.515	647.075
330.300	21.163	829.013	645.767
331.314	20.968	828.265	644.408
332.329	21.001	827.531	643.902
333.343	21.393	827.236	645.062
334.358	21.545	827.095	645.457
335.373	21.610	826.158	644.906
336.387	21.411	826.234	644.175
337.402	21.842	825.641	645.242
338.416	21.925	825.206	645.149
339.431	21.955	824.403	644.577
340.446	22.087	823.744	644.489
341.460	22.229	823.649	644.879
342.475	22.185	822.941	644.103
343.489	22.038	822.227	642.949
344.504	21.939	821.478	641.946
345.519	22.264	821.085	642.770
346.533	22.355	820.854	642.864
347.548	22.430	820.525	642.826
348.562	22.504	820.147	642.741
349.577	22.401	819.589	641.870
350.592	22.421	818.623	641.129
351.606	22.448	818.090	640.757
352.621	22.345	818.106	640.334
353.635	22.388	817.505	639.964
354.650	22.210	816.885	638.778
355.665	21.897	815.822	636.753
356.679	20.748	814.603	631.580
357.694	20.652	813.873	630.610
358.708	21.263	813.781	632.697
359.723	21.419	813.252	632.795
360.738	21.505	813.066	632.904
361.752	22.058	813.146	634.911
362.767	22.160	812.543	634.749
363.781	22.463	812.135	635.469
364.796	22.635	811.939	635.880
365.810	22.643	811.450	635.471
366.825	22.819	811.276	635.910
367.840	22.656	811.111	635.137
368.854	22.478	810.285	633.795
369.869	22.075	809.052	631.325
370.883	22.033	808.873	630.981
371.898	22.119	808.210	630.715
372.913	22.007	807.259	629.517
373.927	21.998	807.048	629.263
374.942	22.127	806.081	628.917
375.956	22.274	805.696	629.084
376.971	22.342	805.236	628.913
377.986	22.544	804.952	629.359
379.000	22.564	804.596	629.094
380.015	22.733	803.531	628.809
381.029	22.512	803.180	627.692
382.044	22.357	802.814	626.798
383.059	22.492	802.147	626.701
384.073	22.592	801.818	626.747
385.088	22.767	801.252	626.870
386.102	22.672	800.664	626.018
387.117	22.429	800.394	624.888
388.132	22.453	799.238	624.015
389.146	22.355	798.831	623.297
390.161	21.627	798.115	620.105
391.175	21.845	797.606	620.426
392.190	22.362	797.517	622.129
393.205	22.365	796.810	621.532
394.219	21.381	795.354	616.871
395.234	19.881	793.158	609.832
396.248	19.251	792.030	606.692
397.263	20.321	792.689	610.912
398.278	22.117	794.376	618.488
399.292	22.367	794.140	619.127
400.307	22.135	793.424	617.701
401.321	22.100	792.697	616.958
402.336	22.089	792.955	617.065
403.350	22.482	792.554	618.077
404.365	22.936	792.171	619.315
405.380	23.138	792.251	620.030
406.394	23.239	791.995	620.131
407.409	23.416	791.587	620.376
408.423	23.328	791.154	619.674
409.438	23.151	790.656	618.609
410.453	23.246	790.024	618.391
411.467	23.348	789.395	618.199
412.482	23.296	788.926	617.597
413.496	23.258	788.639	617.185
414.511	23.340	788.171	617.049
415.526	23.207	788.176	616.536
416.540	23.368	787.780	616.734
417.555	23.238	786.937	615.567
418.569	23.032	786.120	614.157
419.584	23.099	785.513	613.860
420.599	22.927	785.207	612.970
421.613	157.649	1364.327	1798.703
422.628	136.367	1448.689	1798.788
