DTS Sentinel unit serial number:	SN413079Multiplexer serial number:	ORYXHardware model number:	OX4-SRSoftware version number:	ORYX F/W v4.00 Oryx Data Collector v3.7.2.0data status	okinstallation	princeton_trtdifferential loss correction	single-endedforward channel	channel 3reverse channel	N/Adate	2019/09/12time	19:43:04forward acquisition time	15.00reverse acquisition time	0.00gamma	496.2192k internal	0.2322k external	0.2322temperature offset calibration	1.0126default loss term (dB/km)	0.3790temperature slope calibration	1.0000multiplexer offset coefficient	1.0000multiplexer slope coefficient	1.0000fibre end	0.00T internal ref (°C)	32.00T ext. ref 1 (°C)	3.48T ext. ref 2 (°C)	26.58length (m)	temperature (°C)	Stokes	anti-Stokes-747.200	88.786	-0.576	0.648
-746.185	800.000	0.221	-0.709
-745.171	-94.608	-1.061	-0.291
-744.156	-130.738	-0.521	0.071
-743.142	-42.843	0.434	0.223
-742.127	-60.519	-1.117	0.479
-741.112	120.631	-0.634	0.795
-740.098	2.587	0.672	0.492
-739.083	-34.210	-0.382	-0.212
-738.069	-200.000	-0.039	0.204
-737.054	-200.000	-0.020	0.218
-736.039	83.282	-0.218	-0.240
-735.025	-200.000	0.035	0.357
-734.010	260.283	0.393	-0.687
-732.996	641.278	0.038	0.098
-731.981	25.014	-0.246	0.206
-730.966	263.126	-0.344	0.604
-729.952	-97.149	0.310	0.082
-728.937	-54.009	-0.071	-0.032
-727.923	49.258	0.543	-0.516
-726.908	-96.780	0.298	-0.079
-725.894	-67.439	0.699	-0.277
-724.879	-80.370	-0.264	-0.089
-723.864	-133.642	0.340	0.043
-722.850	76.778	1.077	-1.153
-721.835	-18.789	-0.428	-0.269
-720.821	-106.646	0.925	-0.208
-719.806	305.639	0.439	-0.824
-718.791	-84.122	0.984	-0.315
-717.777	77.947	-0.230	0.248
-716.762	-81.695	-0.152	0.050
-715.748	-139.952	-0.760	-0.081
-714.733	-102.798	-0.501	-0.120
-713.718	-8.966	0.377	-0.255
-712.704	-200.000	-0.131	-0.723
-711.689	-200.000	0.151	0.784
-710.675	86.827	0.364	-0.405
-709.660	-95.884	-0.453	-0.122
-708.645	800.000	0.243	-0.746
-707.631	-144.665	0.160	-0.015
-706.616	428.280	0.360	-0.784
-705.602	800.000	0.136	0.455
-704.587	-29.425	0.131	-0.075
-703.572	-121.830	0.861	-0.143
-702.558	-193.767	0.084	0.001
-701.543	641.962	0.133	-0.341
-700.529	1.233	0.330	0.239
-699.514	800.000	0.114	-0.392
-698.499	-200.000	-0.079	-0.489
-697.485	-26.084	-0.501	-0.297
-696.470	15.595	0.120	-0.095
-695.456	-19.249	-0.476	0.298
-694.441	-108.415	0.290	-0.063
-693.426	132.427	-0.571	-0.742
-692.412	-91.296	0.228	-0.066
-691.397	-0.321	-0.931	-0.667
-690.383	-16.737	0.528	0.337
-689.368	97.715	0.113	0.131
-688.354	-120.393	0.469	-0.080
-687.339	180.279	0.294	-0.435
-686.324	-67.645	0.311	-0.123
-685.310	64.064	-0.124	-0.126
-684.295	392.427	0.125	-0.263
-683.281	800.000	0.452	-1.472
-682.266	-200.000	-0.025	0.171
-681.251	18.400	-0.568	0.457
-680.237	-111.794	-0.187	0.038
-679.222	322.673	-0.192	0.368
-678.208	-200.000	0.032	0.186
-677.193	-131.539	0.659	-0.087
-676.178	-200.000	-0.145	0.651
-675.164	-111.820	-0.561	-0.114
-674.149	-200.000	-0.124	-0.607
-673.135	-32.585	-0.703	0.394
-672.120	-61.356	-0.344	-0.146
-671.105	189.241	0.194	-0.293
-670.091	-200.000	0.040	-0.604
-669.076	-200.000	0.079	-0.577
-668.062	687.481	-0.165	-0.435
-667.047	800.000	-0.057	-0.167
-666.032	-200.000	0.135	0.629
-665.018	126.756	-1.170	1.492
-664.003	86.018	0.230	0.255
-662.989	800.000	0.079	0.300
-661.974	-200.000	0.017	-0.134
-660.959	800.000	-0.126	-0.362
-659.945	298.433	0.219	0.406
-658.930	82.002	-0.718	-0.783
-657.916	14.189	-0.203	-0.160
-656.901	357.139	0.121	-0.244
-655.886	-27.323	0.506	-0.296
-654.872	211.199	0.184	-0.291
-653.857	-41.752	0.423	-0.218
-652.843	150.565	0.121	0.165
-651.828	-147.751	0.765	-0.065
-650.814	82.379	0.700	-0.764
-649.799	51.742	0.388	-0.371
-648.784	-58.899	-0.630	0.274
-647.770	7.638	-0.698	0.526
-646.755	283.507	0.177	0.320
-645.741	-200.000	-0.751	-0.002
-644.726	-140.046	-0.567	0.060
-643.711	708.308	0.195	0.517
-642.697	-200.000	0.062	0.381
-641.682	800.000	0.026	-0.084
-640.668	-53.793	-0.843	0.387
-639.653	-200.000	0.021	0.166
-638.638	-200.000	0.001	0.368
-637.624	800.000	0.074	0.252
-636.609	-200.000	0.006	0.210
-635.595	118.862	0.247	0.307
-634.580	-43.908	-0.759	0.384
-633.565	181.627	0.460	0.680
-632.551	143.216	0.443	-0.593
-631.536	54.176	-0.435	0.421
-630.522	45.547	0.256	-0.238
-629.507	-55.736	-0.136	0.061
-628.492	117.475	-0.518	-0.640
-627.478	185.109	-0.135	-0.201
-626.463	-200.000	0.022	-0.277
-625.449	-113.467	-0.595	0.117
-624.434	110.688	-0.490	0.593
-623.419	-25.036	-0.649	-0.387
-622.405	-20.822	-0.610	0.376
-621.390	-200.000	0.117	0.756
-620.376	800.000	-0.192	-0.670
-619.361	-200.000	0.068	-0.907
-618.346	246.559	0.399	-0.677
-617.332	800.000	0.226	-0.771
-616.317	-56.599	0.180	-0.080
-615.303	-85.045	0.543	0.171
-614.288	55.089	-0.351	0.341
-613.273	-30.209	0.330	0.189
-612.259	-200.000	0.087	-0.748
-611.244	800.000	0.138	0.505
-610.230	-27.513	-0.401	-0.234
-609.215	322.484	-0.441	0.844
-608.201	594.630	-0.179	-0.445
-607.186	800.000	0.198	0.651
-606.171	-200.000	-0.013	-1.039
-605.157	-200.000	-0.174	-1.183
-604.142	-200.000	0.124	-0.730
-603.128	800.000	0.026	-0.075
-602.113	-97.686	-0.414	0.108
-601.098	132.373	-0.067	-0.087
-600.084	-26.123	0.388	-0.229
-599.069	-41.808	0.311	0.160
-598.055	132.838	0.495	-0.642
-597.040	-167.501	-0.816	0.033
-596.025	278.643	-0.387	-0.693
-595.011	-200.000	0.007	-0.138
-593.996	358.621	-0.298	0.599
-592.982	127.374	-0.237	-0.303
-591.967	-112.583	-0.213	-0.043
-590.952	-13.146	-0.492	0.321
-589.938	-5.420	0.535	0.369
-588.923	-80.183	-0.269	0.090
-587.909	39.164	0.456	0.410
-586.894	41.569	-0.807	0.734
-585.879	-13.963	-0.323	-0.210
-584.865	245.779	-0.573	-0.969
-583.850	0.637	-0.124	0.089
-582.836	-52.254	0.256	0.119
-581.821	-200.000	-0.032	0.288
-580.806	-169.406	-0.276	0.010
-579.792	-129.251	0.870	-0.122
-578.777	800.000	-0.250	-1.040
-577.763	-200.000	-0.060	-0.333
-576.748	162.310	-0.362	-0.509
-575.733	42.396	0.523	-0.477
-574.719	109.146	-0.248	0.298
-573.704	382.751	0.363	0.748
-572.690	-99.731	1.248	0.314
-571.675	-101.595	-0.561	0.137
-570.661	-34.489	-0.569	0.313
-569.646	197.013	0.141	0.216
-568.631	290.203	-0.249	-0.454
-567.617	-7.960	0.334	-0.226
-566.602	165.232	0.238	-0.338
-565.588	-0.617	0.579	0.412
-564.573	65.761	0.450	0.457
-563.558	207.003	0.238	0.372
-562.544	-126.544	-0.454	-0.068
-561.529	-107.315	0.986	-0.217
-560.515	-173.704	-0.464	-0.014
-559.500	-200.000	-0.135	0.668
-558.485	1.447	-0.399	-0.288
-557.471	-35.729	-0.369	-0.200
-556.456	-26.980	-0.428	-0.251
-555.442	54.430	-0.340	0.329
-554.427	-93.474	0.473	-0.131
-553.412	-87.723	0.238	-0.072
-552.398	-200.000	-0.003	-0.204
-551.383	200.057	-0.090	-0.138
-550.369	800.000	0.169	0.646
-549.354	-62.210	0.410	-0.171
-548.339	123.317	-0.207	-0.260
-547.325	75.639	-0.222	-0.235
-546.310	-134.474	0.493	0.060
-545.296	-113.803	-0.752	0.147
-544.281	-200.000	-0.152	0.822
-543.266	-88.276	0.417	0.125
-542.252	-49.735	-0.722	0.344
-541.237	-55.766	-0.335	-0.150
-540.223	-31.784	0.378	0.213
-539.208	-141.550	0.186	-0.019
-538.193	155.423	0.539	0.743
-537.179	-91.014	0.543	0.156
-536.164	-85.464	0.513	0.160
-535.150	349.966	0.201	0.398
-534.135	500.151	-0.245	0.567
-533.121	-200.000	-0.083	0.407
-532.106	-68.865	0.851	-0.329
-531.091	-185.661	-0.654	-0.010
-530.077	-200.000	0.041	-0.778
-529.062	-110.444	0.848	0.176
-528.048	-57.397	-0.347	-0.153
-527.033	-159.439	1.010	-0.056
-526.018	800.000	0.138	-0.406
-525.004	-146.191	0.201	-0.018
-523.989	800.000	-0.198	0.706
-522.975	-5.559	0.202	-0.139
-521.960	61.548	0.277	0.276
-520.945	-36.445	-0.311	0.168
-519.931	-74.199	-0.722	-0.262
-518.916	736.467	-0.103	0.276
-517.902	196.965	0.597	-0.912
-516.887	233.791	-0.274	0.452
-515.872	800.000	-0.239	-0.827
-514.858	487.630	0.051	-0.116
-513.843	-151.187	-0.526	0.039
-512.829	-129.144	-0.607	-0.085
-511.814	-30.184	0.920	0.524
-510.799	-104.475	-0.461	-0.107
-509.785	-59.297	-0.262	-0.113
-508.770	-200.000	-0.029	0.282
-507.756	-138.259	-0.295	-0.033
-506.741	34.183	-0.647	0.565
-505.726	-29.444	-0.150	-0.086
-504.712	-47.625	0.505	-0.245
-503.697	-200.000	-0.081	-0.492
-502.683	-200.000	0.015	-0.724
-501.668	-200.000	0.034	1.124
-500.653	6.671	-0.181	-0.135
-499.639	-108.399	0.301	-0.065
-498.624	215.931	0.506	-0.804
-497.610	141.039	-0.158	-0.208
-496.595	9.749	-0.051	-0.039
-495.581	-110.362	0.454	-0.094
-494.566	-59.107	0.867	-0.374
-493.551	-200.000	-0.036	0.617
-492.537	178.988	-0.377	0.552
-491.522	7.948	-0.401	-0.301
-490.508	-200.000	0.120	0.646
-489.493	525.168	0.214	0.503
-488.478	-133.016	-0.160	0.020
-487.464	260.345	-0.418	-0.722
-486.449	-200.000	0.037	0.475
-485.435	-101.712	0.199	0.048
-484.420	79.583	-0.346	-0.371
-483.405	-33.497	-0.990	0.547
-482.391	800.000	0.240	-0.876
-481.376	-71.961	0.144	-0.054
-480.362	-200.000	-0.038	0.408
-479.347	110.870	-0.267	-0.321
-478.332	320.049	0.242	0.459
-477.318	-121.167	0.420	0.070
-476.303	-200.000	0.053	-0.314
-475.289	-93.051	-0.303	0.085
-474.274	-50.433	-0.271	0.128
-473.259	-24.359	-0.352	-0.210
-472.245	-200.000	-0.132	-0.833
-471.230	425.919	0.074	-0.158
-470.216	472.642	-0.288	-0.648
-469.201	800.000	-0.172	0.628
-468.186	65.508	0.504	0.509
-467.172	800.000	0.091	-0.255
-466.157	-25.681	1.137	-0.670
-465.143	-79.355	-0.194	0.065
-464.128	-150.201	-0.428	0.033
-463.113	-36.116	-0.136	-0.073
-462.099	800.000	0.107	0.389
-461.084	-167.401	-1.084	-0.043
-460.070	-22.464	-0.187	-0.113
-459.055	-15.844	0.263	0.167
-458.040	-127.204	-0.493	0.072
-457.026	-114.471	-0.647	-0.124
-456.011	56.823	0.591	-0.575
-454.997	-135.727	-0.367	-0.043
-453.982	-161.718	-0.928	-0.047
-452.968	108.352	-0.493	-0.587
-451.953	-80.918	-0.138	-0.046
-450.938	122.442	-0.044	-0.054
-449.924	-59.122	-0.130	-0.056
-448.909	-51.108	-0.581	-0.272
-447.895	-75.663	0.558	-0.198
-446.880	-130.374	0.696	-0.094
-445.865	-71.722	-0.138	-0.052
-444.851	-200.000	0.516	-0.002
-443.836	108.249	-0.336	0.401
-442.822	-134.960	0.850	0.103
-441.807	17.717	-0.769	-0.611
-440.792	-17.055	-0.272	0.172
-439.778	-122.050	0.653	-0.107
-438.763	-55.410	-0.751	-0.337
-437.749	800.000	0.082	-0.280
-436.734	-65.977	-0.864	0.344
-435.719	-200.000	-0.086	0.433
-434.705	56.170	-0.032	-0.031
-433.690	-175.380	0.877	0.024
-432.676	-95.852	-0.291	-0.078
-431.661	800.000	-0.079	0.302
-430.646	-123.009	-0.433	0.070
-429.632	-158.123	-0.210	0.012
-428.617	366.375	-0.061	-0.122
-427.603	16.561	-0.214	0.169
-426.588	22.553	0.644	0.526
-425.573	-200.000	-0.107	0.533
-424.559	-20.505	0.148	-0.091
-423.544	-200.000	-0.003	-0.493
-422.530	-200.000	-0.040	-0.871
-421.515	-66.734	0.696	0.275
-420.500	361.275	-0.207	0.414
-419.486	-5.103	-0.336	0.231
-418.471	36.684	0.268	-0.236
-417.457	-200.000	-0.024	-0.498
-416.442	-198.496	0.855	-0.005
-415.428	-42.909	0.425	-0.215
-414.413	-200.000	0.017	-0.105
-413.398	15.937	0.784	-0.616
-412.384	-13.617	0.787	0.508
-411.369	800.000	0.219	-0.708
-410.355	-43.875	0.337	0.169
-409.340	-31.907	1.131	0.632
-408.325	-200.000	-0.060	-0.370
-407.311	337.030	0.243	0.470
-406.296	77.226	-0.285	-0.302
-405.282	-200.000	0.139	-0.872
-404.267	-67.386	0.255	-0.100
-403.252	368.698	-0.112	-0.227
-402.238	-28.690	0.633	0.363
-401.223	15.703	-0.652	-0.511
-400.209	212.309	0.366	0.575
-399.194	-69.062	-0.849	-0.326
-398.179	-63.263	0.603	-0.248
-397.165	424.267	-0.152	0.325
-396.150	-200.000	0.002	0.162
-395.136	73.005	-0.054	0.056
-394.121	37.898	-0.702	-0.621
-393.106	800.000	0.050	-0.145
-392.092	592.145	0.211	-0.519
-391.077	-16.120	-0.479	-0.303
-390.063	622.124	0.104	0.261
-389.048	-200.000	0.139	0.890
-388.033	800.000	0.108	-0.453
-387.019	-66.387	-0.518	-0.205
-386.004	-8.303	0.628	-0.421
-384.990	-200.000	-0.009	0.311
-383.975	-5.845	-0.340	0.232
-382.960	-112.186	0.795	0.159
-381.946	-11.023	0.194	0.127
-380.931	-200.000	0.035	0.485
-379.917	327.559	-0.039	-0.074
-378.902	-168.441	-1.395	0.053
-377.888	-83.777	0.637	-0.202
-376.873	800.000	-0.139	-0.572
-375.858	-63.032	-0.828	-0.340
-374.844	746.602	0.173	-0.463
-373.829	-200.000	-0.002	0.216
-372.815	-79.802	0.386	0.129
-371.800	-200.000	-0.066	-0.501
-370.785	50.893	0.299	0.282
-369.771	233.070	0.323	-0.528
-368.756	-200.000	0.107	-0.713
-367.742	-63.383	0.715	-0.293
-366.727	22.580	-0.113	-0.092
-365.712	-129.906	-0.537	-0.073
-364.698	800.000	-0.093	0.394
-363.683	21.673	0.383	-0.310
-362.669	-94.084	0.796	0.217
-361.654	331.656	0.249	-0.478
-360.639	182.918	-0.528	-0.775
-359.625	-55.299	-0.089	0.040
-358.610	2.799	0.130	0.094
-357.596	48.984	0.481	-0.450
-356.581	800.000	0.205	-0.692
-355.566	-200.000	0.044	0.382
-354.552	298.362	0.075	-0.137
-353.537	544.922	-0.142	-0.337
-352.523	457.320	-0.262	0.580
-351.508	111.700	-0.625	0.750
-350.493	63.342	-0.221	0.220
-349.479	-200.000	-0.014	0.635
-348.464	280.595	0.134	-0.239
-347.450	-151.799	0.647	0.047
-346.435	-200.000	-0.079	1.145
-345.420	32.176	0.287	0.246
-344.406	140.227	-0.237	0.310
-343.391	293.616	-0.565	1.026
-342.377	-200.000	-0.116	0.691
-341.362	123.440	0.544	-0.679
-340.348	800.000	0.217	-0.770
-339.333	-118.377	0.749	-0.132
-338.318	129.873	-0.403	0.512
-337.304	-61.516	0.485	0.202
-336.289	-2.026	-0.387	-0.270
-335.275	-200.000	-0.081	-0.431
-334.260	536.828	0.107	-0.253
-333.245	-200.000	-0.023	0.285
-332.231	-200.000	-0.008	0.248
-331.216	-200.000	0.134	0.919
-330.202	-98.791	-0.270	-0.068
-329.187	-200.000	0.045	0.718
-328.172	-103.391	0.869	-0.204
-327.158	-25.260	0.359	0.211
-326.143	568.122	0.126	-0.303
-325.129	150.623	0.558	-0.753
-324.114	-167.577	-1.003	-0.040
-323.099	618.132	0.291	0.727
-322.085	-145.925	0.179	0.016
-321.070	17.940	0.323	-0.256
-320.056	168.772	-0.354	0.501
-319.041	-200.000	0.015	0.136
-318.026	-115.134	0.351	0.066
-317.012	-200.000	-0.022	0.330
-315.997	154.905	0.503	0.687
-314.983	66.815	-0.130	-0.132
-313.968	-77.433	-0.399	-0.138
-312.953	104.852	-0.273	0.319
-311.939	-166.578	0.399	0.017
-310.924	-178.448	1.011	-0.023
-309.910	-107.741	0.783	-0.170
-308.895	-127.177	-0.779	-0.113
-307.880	-53.521	0.570	0.259
-306.866	129.797	0.553	-0.703
-305.851	31.581	-0.341	-0.291
-304.837	-50.872	-0.507	-0.237
-303.822	-200.000	-0.209	-1.026
-302.807	265.845	-0.251	0.435
-301.793	-52.975	-0.339	0.155
-300.778	619.767	-0.124	-0.309
-299.764	-52.246	0.168	-0.077
-298.749	-14.003	-1.119	0.717
-297.735	343.405	-0.190	-0.370
-296.720	101.141	0.336	0.388
-295.705	-200.000	0.017	-0.789
-294.691	-55.023	-0.208	0.093
-293.676	-102.100	0.808	0.193
-292.662	-200.000	0.049	-0.320
-291.647	-200.000	0.044	-0.361
-290.632	160.875	-0.155	-0.214
-289.618	34.767	0.777	-0.674
-288.603	-19.308	0.842	-0.518
-287.589	-200.000	-0.109	-0.581
-286.574	-124.482	0.514	0.079
-285.559	94.737	0.540	0.610
-284.545	-150.553	0.870	-0.066
-283.530	-120.551	-0.494	0.083
-282.516	504.442	-0.205	-0.470
-281.501	-1.499	0.506	0.354
-280.486	-98.877	-0.686	-0.173
-279.472	-138.764	0.489	0.053
-278.457	-163.324	-0.469	-0.022
-277.443	-200.000	-0.028	0.176
-276.428	-17.528	-0.435	0.271
-275.413	12.044	0.781	0.596
-274.399	102.688	-0.476	0.552
-273.384	800.000	-0.276	0.919
-272.370	-10.485	-0.339	-0.223
-271.355	-44.356	-0.910	-0.452
-270.340	163.740	-0.440	-0.614
-269.326	197.958	-0.208	-0.315
-268.311	-32.531	0.626	0.346
-267.297	-151.343	0.395	0.029
-266.282	-117.553	-0.634	0.113
-265.267	-25.509	0.289	-0.169
-264.253	-32.410	-0.363	0.201
-263.238	-200.000	0.196	1.373
-262.224	5.860	-0.267	-0.196
-261.209	800.000	-0.112	0.365
-260.195	-81.683	0.936	-0.305
-259.180	-160.117	0.420	0.023
-258.165	36.022	0.589	0.514
-257.151	-43.773	-0.732	-0.366
-256.136	800.000	0.101	-0.416
-255.122	6.745	-0.556	0.410
-254.107	212.614	-0.210	0.329
-253.092	62.641	-0.423	-0.419
-252.078	197.480	-0.739	-1.117
-251.063	-200.000	0.030	0.547
-250.049	-200.000	-0.035	0.232
-249.034	800.000	0.221	0.909
-248.019	-9.069	0.516	0.342
-247.005	767.321	-0.381	1.026
-245.990	593.729	-0.551	1.350
-244.976	258.626	0.406	0.694
-243.961	4.218	-0.456	0.331
-242.946	-98.044	0.501	-0.128
-241.932	104.479	-0.664	-0.774
-240.917	48.199	-0.292	0.271
-239.903	-200.000	0.132	0.661
-238.888	-1.532	-0.773	0.540
-237.873	-200.000	-0.001	-0.009
-236.859	93.353	-0.114	-0.128
-235.844	246.958	-0.081	0.136
-234.830	-200.000	0.007	0.950
-233.815	245.027	-0.128	0.213
-232.800	-200.000	0.049	0.905
-231.786	-97.300	-1.038	0.268
-230.771	459.809	-0.183	-0.403
-229.757	-200.000	-0.025	-0.118
-228.742	508.980	-0.108	-0.248
-227.727	-5.584	0.726	-0.493
-226.713	781.464	0.345	-0.936
-225.698	-101.661	1.162	-0.279
-224.684	-99.500	-0.067	-0.017
-223.669	-50.449	0.653	-0.305
-222.655	-101.206	-0.349	0.084
-221.640	-127.368	0.655	-0.094
-220.625	7.928	-0.125	0.093
-219.611	-110.184	0.633	0.131
-218.596	-98.401	-0.053	-0.013
-217.582	119.789	0.168	-0.206
-216.567	-200.000	0.601	-0.001
-215.552	800.000	-0.074	0.215
-214.538	111.190	0.256	-0.305
-213.523	-200.000	0.039	0.599
-212.509	-200.000	-0.175	0.855
-211.494	800.000	0.184	-0.510
-210.479	257.147	0.135	0.229
-209.465	184.782	-0.276	-0.405
-208.450	-119.425	-0.108	-0.019
-207.436	-200.000	-0.179	1.094
-206.421	-59.557	0.439	0.186
-205.406	-102.207	-0.518	-0.123
-204.392	-1.355	-0.265	0.185
-203.377	96.935	0.082	-0.093
-202.363	222.130	-0.153	0.244
-201.348	-162.299	0.710	-0.035
-200.333	-31.184	-0.531	-0.296
-199.319	-200.000	-0.085	0.760
-198.304	-200.000	0.056	0.681
-197.290	-17.388	0.431	0.268
-196.275	-185.376	0.584	-0.009
-195.260	771.331	-0.164	-0.441
-194.246	50.184	0.384	-0.359
-193.231	-111.032	0.472	0.096
-192.217	-150.026	-1.754	-0.135
-191.202	42.008	0.448	-0.402
-190.187	86.376	0.256	0.279
-189.173	166.670	0.122	0.170
-188.158	800.000	0.204	0.640
-187.144	257.689	0.309	0.526
-186.129	-200.000	0.067	-0.303
-185.114	214.000	-0.603	-0.943
-184.100	-200.000	-0.059	-0.371
-183.085	-131.015	-0.291	0.038
-182.071	36.391	-0.955	-0.833
-181.056	800.000	-0.115	-0.424
-180.042	-96.683	-0.537	0.140
-179.027	-200.000	0.053	-0.654
-178.012	-35.956	0.370	-0.198
-176.998	-122.873	-0.345	0.055
-175.983	50.528	-0.397	-0.371
-174.969	188.865	0.352	-0.521
-173.954	-177.171	-0.261	-0.006
-172.939	173.166	-0.079	0.113
-171.925	-154.176	0.539	-0.036
-170.910	43.565	-0.426	0.385
-169.896	-75.064	0.349	-0.123
-168.881	-30.528	0.544	-0.304
-167.866	-50.032	-0.385	0.180
-166.852	366.712	0.055	-0.110
-165.837	800.000	-0.216	-0.677
-164.823	126.464	-0.479	0.599
-163.808	169.690	0.338	0.477
-162.793	-64.231	0.556	-0.224
-161.779	21.444	-0.327	-0.263
-160.764	20.624	-0.292	-0.234
-159.750	341.723	0.271	-0.524
-158.735	-63.012	0.073	0.030
-157.720	800.000	0.090	-0.380
-156.706	29.786	0.253	0.213
-155.691	800.000	0.089	0.383
-154.677	-32.461	0.858	-0.472
-153.662	176.879	0.424	0.609
-152.647	-72.444	-0.408	0.149
-151.633	222.586	-0.421	-0.670
-150.618	-200.000	-0.023	0.268
-149.604	-18.107	-0.628	0.388
-148.589	-5.643	-0.504	-0.341
-147.574	-200.000	0.154	-0.689
-146.560	-44.515	0.538	-0.266
-145.545	-68.972	-0.763	-0.290
-144.531	800.000	0.136	-0.517
-143.516	-90.960	0.696	0.197
-142.502	-37.246	-0.124	0.065
-141.487	800.000	0.190	0.522
-140.472	-44.531	0.472	-0.233
-139.458	-137.565	-0.803	0.089
-138.443	-200.000	-0.045	-0.215
-137.429	167.010	0.196	-0.274
-136.414	-116.015	-0.556	0.102
-135.399	797.427	-0.248	0.675
-134.385	-160.054	0.200	-0.011
-133.370	-82.339	0.198	0.064
-132.356	215.495	0.393	-0.614
-131.341	-200.000	-0.004	-0.034
-130.326	-200.000	-0.097	0.447
-129.312	-200.000	0.034	0.248
-128.297	137.978	0.229	-0.296
-127.283	182.391	-0.163	0.236
-126.268	15.125	0.550	-0.425
-125.253	-12.641	-0.562	0.361
-124.239	203.974	0.378	-0.577
-123.224	101.492	-0.386	-0.444
-122.210	107.838	-0.466	0.548
-121.195	91.953	-0.264	-0.293
-120.180	77.779	0.561	0.589
-119.166	-115.469	0.360	0.067
-118.151	261.507	0.374	0.638
-117.137	176.501	-0.386	0.553
-116.122	17.601	-0.180	0.141
-115.107	800.000	0.143	-0.501
-114.093	-27.026	0.422	-0.243
-113.078	-200.000	-0.009	-0.321
-112.064	-92.424	0.891	0.247
-111.049	-8.460	0.611	-0.405
-110.034	-91.433	-0.930	-0.262
-109.020	-146.706	-0.229	0.020
-108.005	-181.805	0.923	-0.017
-106.991	55.841	-0.318	-0.304
-105.976	-2.189	-0.391	-0.270
-104.962	-2.311	0.354	0.245
-103.947	-3.987	0.628	0.429
-102.932	-89.611	-0.492	0.142
-101.918	-200.000	-0.147	-0.726
-100.903	123.089	0.534	-0.659
-99.889	523.502	0.032	-0.073
-98.874	-168.025	0.632	0.024
-97.859	-114.234	-0.178	0.034
-96.845	-2.156	0.474	0.327
-95.830	12.764	0.579	-0.441
-94.816	-74.323	-0.233	0.083
-93.801	-45.004	0.620	0.304
-92.786	357.860	-0.283	-0.556
-91.772	-87.889	-0.839	0.249
-90.757	-83.135	-0.403	0.128
-89.743	92.862	0.372	-0.414
-88.728	-200.000	0.042	-0.855
-87.713	-123.192	-1.061	0.167
-86.699	658.424	0.210	0.533
-85.684	-200.000	0.048	0.272
-84.670	137.263	0.107	-0.138
-83.655	153.748	-0.318	-0.429
-82.640	-29.430	-0.398	0.224
-81.626	73.359	-0.515	-0.531
-80.611	-164.321	0.422	0.019
-79.597	-78.170	0.549	0.186
-78.582	-24.509	-0.497	0.291
-77.567	-200.000	-0.005	0.202
-76.553	254.996	0.292	-0.492
-75.538	800.000	0.239	-0.883
-74.524	-141.276	0.407	0.041
-73.509	-102.150	-0.280	0.066
-72.494	-33.204	0.457	-0.249
-71.480	-111.211	-0.214	-0.043
-70.465	2.077	0.386	0.274
-69.451	153.674	0.323	-0.435
-68.436	71.880	0.239	-0.245
-67.422	206.140	-0.072	-0.110
-66.407	-135.284	-0.315	-0.037
-65.392	-147.261	-0.384	-0.032
-64.378	378.862	-0.198	-0.399
-63.363	-9.682	-0.543	0.356
-62.349	-20.388	-1.261	-0.763
-61.334	71.272	-0.904	-0.922
-60.319	-112.560	0.583	0.114
-59.305	-200.000	-0.177	-2.128
-58.290	126.048	0.989	1.229
-57.276	800.000	0.643	2.132
-56.261	-200.000	97.075	605.971
-55.246	658.655	1360.395	3441.377
-54.232	203.783	2522.797	3840.196
-53.217	119.067	2136.213	2597.171
-52.203	42.977	1688.958	1514.286
-51.188	35.243	1503.861	1296.228
-50.173	32.885	1476.990	1257.334
-49.159	53.614	1530.214	1443.708
-48.144	54.017	1545.666	1460.963
-47.130	35.345	1505.298	1297.956
-46.115	32.214	1491.185	1264.702
-45.100	31.946	1488.042	1260.185
-44.086	32.026	1486.235	1259.142
-43.071	32.414	1482.146	1258.224
-42.057	32.100	1482.529	1256.401
-41.042	32.210	1480.121	1255.043
-40.027	31.959	1479.501	1252.793
-39.013	31.946	1477.502	1250.966
-37.998	31.869	1477.195	1250.141
-36.984	31.924	1475.252	1248.809
-35.969	32.112	1473.541	1248.566
-34.954	31.956	1472.654	1246.727
-33.940	31.803	1470.874	1244.157
-32.925	31.768	1469.692	1242.871
-31.911	32.207	1467.372	1243.768
-30.896	32.084	1466.796	1242.418
-29.881	32.132	1465.449	1241.544
-28.867	32.063	1464.234	1240.011
-27.852	32.140	1462.795	1239.248
-26.838	31.969	1462.261	1237.618
-25.823	31.976	1460.066	1235.758
-24.809	32.150	1457.702	1234.855
-23.794	32.087	1456.506	1233.380
-22.779	32.108	1456.285	1233.278
-21.765	32.030	1454.332	1231.066
-20.750	31.931	1453.936	1230.034
-19.736	31.964	1451.884	1228.464
-18.721	32.079	1451.134	1228.531
-17.706	31.931	1450.601	1227.063
-16.692	32.005	1449.007	1226.147
-15.677	32.048	1448.382	1225.854
-14.663	32.142	1446.849	1225.120
-13.648	32.041	1445.860	1223.576
-12.633	31.893	1445.291	1222.083
-11.619	31.878	1445.519	1222.130
-10.604	32.036	1444.105	1221.913
-9.590	32.026	1444.110	1221.802
-8.575	31.949	1442.723	1220.078
-7.560	32.013	1441.807	1219.671
-6.546	31.844	1440.305	1217.259
-5.531	32.144	1439.421	1218.410
-4.517	31.925	1437.699	1215.483
-3.502	31.923	1436.464	1214.377
-2.487	31.792	1435.329	1212.525
-1.473	32.121	1434.673	1214.046
-0.458	32.055	1434.293	1213.249
0.556	33.469	1423.735	1200.141
1.571	30.360	1399.046	1159.837
2.586	27.069	1341.152	1091.997
3.600	25.187	1262.337	1017.070
4.615	23.588	1215.187	970.260
5.629	20.402	1158.980	908.659
6.644	11.696	1073.969	799.539
7.659	4.946	1034.027	737.867
8.673	3.620	1029.492	728.312
9.688	3.373	1026.495	724.966
10.702	3.646	1023.571	724.118
11.717	3.282	1022.344	721.478
12.731	6.542	1025.383	738.862
13.746	15.522	1037.863	790.215
14.761	22.789	1047.346	831.743
15.775	24.597	1048.982	841.495
16.790	24.411	1047.954	839.719
17.804	23.963	1046.605	836.459
18.819	23.737	1045.576	834.501
19.834	23.335	1045.280	832.302
20.848	23.347	1043.791	831.101
21.863	23.502	1043.766	831.734
22.877	23.962	1043.073	833.261
23.892	23.617	1042.089	830.787
24.907	23.576	1042.102	830.534
25.921	23.067	1042.194	828.147
26.936	23.158	1040.154	826.882
27.950	23.103	1039.262	825.842
28.965	23.255	1037.426	825.019
29.980	23.092	1035.985	823.041
30.994	23.244	1035.341	823.164
32.009	23.259	1035.497	823.283
33.023	23.494	1034.948	823.864
34.038	23.518	1033.612	822.841
35.053	23.207	1033.313	821.086
36.067	23.298	1031.851	820.273
37.082	23.330	1031.139	819.784
38.096	23.199	1030.394	818.512
39.111	23.372	1029.999	818.928
40.126	23.345	1028.256	817.343
41.140	23.318	1027.412	816.475
42.155	23.191	1025.956	814.663
43.169	22.980	1025.127	812.960
44.184	22.573	1024.208	810.288
45.199	22.618	1024.146	810.378
46.213	22.887	1021.097	809.124
47.228	22.623	1021.341	808.036
48.242	23.356	1020.930	810.998
49.257	23.543	1020.034	811.067
50.271	23.640	1019.602	811.098
51.286	23.506	1019.068	809.989
52.301	23.522	1019.527	810.354
53.315	23.607	1018.106	809.541
54.330	23.509	1018.040	808.970
55.344	23.568	1016.241	807.736
56.359	23.474	1015.133	806.357
57.374	23.036	1014.542	803.823
58.388	23.084	1013.905	803.469
59.403	22.789	1012.926	801.280
60.417	22.807	1012.678	801.096
61.432	22.927	1010.713	800.016
62.447	22.637	1010.834	798.727
63.461	22.886	1009.865	799.014
64.476	22.863	1008.872	798.056
65.490	22.874	1007.795	797.182
66.505	22.562	1006.730	794.863
67.520	22.484	1005.996	793.860
68.534	23.001	1005.396	795.646
69.549	22.930	1003.396	793.676
70.563	22.621	1003.119	791.997
71.578	22.178	1003.600	790.316
72.593	22.033	1002.691	788.878
73.607	21.793	1000.418	785.946
74.622	21.911	999.601	785.762
75.636	22.033	998.883	785.673
76.651	22.272	997.994	785.971
77.666	22.311	997.137	785.403
78.680	22.234	997.072	784.940
79.695	22.213	997.061	784.766
80.709	22.343	995.110	783.742
81.724	22.544	994.512	784.092
82.739	22.729	994.431	784.787
83.753	22.862	993.285	784.400
84.768	23.455	992.842	786.614
85.782	23.972	992.228	788.348
86.797	23.945	992.938	788.722
87.812	23.573	992.258	786.465
88.826	23.733	990.553	785.753
89.841	23.682	989.393	784.536
90.855	23.739	988.610	784.100
91.870	23.795	988.696	784.344
92.884	24.090	986.832	784.096
93.899	23.794	987.043	782.892
94.914	23.735	986.551	782.171
95.928	23.869	984.994	781.458
96.943	23.864	984.159	780.701
97.957	23.564	983.021	778.415
98.972	23.381	981.730	776.522
99.987	23.478	981.400	776.616
101.001	23.705	980.581	776.892
102.016	23.750	979.467	776.140
103.030	23.443	978.408	773.892
104.045	23.751	977.518	774.462
105.060	23.403	977.628	772.962
106.074	23.401	975.577	771.265
107.089	23.179	975.404	770.094
108.103	23.200	974.551	769.443
109.118	22.890	973.381	767.103
110.133	22.827	970.883	764.796
111.147	22.333	971.570	763.126
112.162	22.072	970.655	761.209
113.176	22.612	968.890	762.095
114.191	22.644	969.026	762.270
115.206	22.677	968.575	761.992
116.220	22.795	967.164	761.321
117.235	22.314	966.569	758.714
118.249	22.712	965.829	759.781
119.264	22.693	964.285	758.415
120.279	22.370	963.377	756.248
121.293	22.299	963.413	755.904
122.308	22.126	962.424	754.319
123.322	21.877	961.699	752.615
124.337	22.287	960.206	753.136
125.352	22.213	958.172	751.158
126.366	21.850	958.266	749.615
127.381	22.184	956.626	749.691
128.395	22.155	957.209	749.958
129.410	22.406	956.683	750.548
130.424	22.700	954.751	750.217
131.439	22.599	954.947	749.874
132.454	22.970	954.157	750.766
133.468	22.808	953.939	749.837
134.483	22.894	951.355	748.104
135.497	22.934	951.182	748.072
136.512	22.821	950.754	747.190
137.527	22.880	950.084	746.850
138.541	22.724	948.912	745.202
139.556	22.798	949.488	745.901
140.570	23.263	948.018	746.641
141.585	23.223	947.963	746.363
142.600	23.494	946.965	746.652
143.614	23.578	946.306	746.419
144.629	23.645	945.587	746.069
145.643	24.161	943.669	746.653
146.658	23.796	943.221	744.703
147.673	23.901	941.832	743.981
148.687	23.189	942.161	741.195
149.702	23.381	940.015	740.240
150.716	23.068	938.534	737.705
151.731	23.206	938.014	737.806
152.746	23.004	938.846	737.551
153.760	23.218	937.482	737.306
154.775	23.311	934.681	735.427
155.789	23.245	936.101	736.202
156.804	23.269	935.212	735.541
157.819	23.365	933.916	734.854
158.833	23.303	934.390	734.904
159.848	23.363	933.513	734.397
160.862	23.599	932.299	734.353
161.877	23.932	931.405	734.961
162.892	23.494	930.096	732.055
163.906	23.094	928.666	729.218
164.921	22.820	928.945	728.241
165.935	22.882	926.204	726.283
166.950	22.990	926.297	726.737
167.964	23.268	925.380	727.091
168.979	23.426	924.822	727.239
169.994	23.308	923.290	725.488
171.008	23.033	922.192	723.434
172.023	23.069	922.222	723.542
173.037	23.397	921.989	724.636
174.052	23.819	919.779	724.556
175.067	23.448	920.206	723.314
176.081	23.075	919.262	720.989
177.096	22.554	918.457	718.170
178.110	22.752	916.530	717.404
179.125	22.685	915.922	716.593
180.140	22.674	915.086	715.831
181.154	22.620	913.977	714.683
182.169	23.118	913.904	716.580
183.183	23.624	913.668	718.380
184.198	23.404	913.906	717.612
185.213	23.255	913.364	716.518
186.227	23.559	911.795	716.454
187.242	23.355	911.748	715.528
188.256	23.569	911.314	715.990
189.271	23.616	910.575	715.535
190.286	23.632	910.243	715.274
191.300	23.569	908.778	713.808
192.315	23.014	907.176	710.257
193.329	22.505	906.833	707.881
194.344	22.459	906.413	707.304
195.359	23.129	904.866	708.722
196.373	22.892	906.223	708.768
197.388	23.240	905.220	709.316
198.402	23.548	904.970	710.293
199.417	23.891	904.461	711.202
200.432	23.916	904.925	711.602
201.446	24.039	904.045	711.339
202.461	24.375	903.410	712.120
203.475	24.161	903.270	711.092
204.490	23.734	902.391	708.632
205.504	23.198	901.684	705.880
206.519	23.445	900.577	705.934
207.534	23.325	900.249	705.136
208.548	23.499	898.544	704.431
209.563	23.400	898.586	704.008
210.577	23.528	897.193	703.361
211.592	23.537	896.918	703.118
212.607	23.866	896.528	704.055
213.621	24.095	896.668	705.009
214.636	23.756	896.102	703.159
215.650	23.991	895.437	703.504
216.665	23.678	895.451	702.214
217.680	23.922	893.153	701.314
218.694	24.010	893.791	702.099
219.709	23.776	893.125	700.593
220.723	24.133	891.649	700.775
221.738	23.684	890.903	698.362
222.753	23.482	890.406	697.117
223.767	23.325	890.887	696.815
224.782	23.743	889.213	697.085
225.796	23.963	888.736	697.511
226.811	24.016	889.630	698.360
227.826	23.833	887.851	696.185
228.840	23.652	886.751	694.554
229.855	23.156	885.915	691.898
230.869	23.380	885.573	692.445
231.884	23.530	885.207	692.681
232.899	23.291	883.811	690.596
233.913	23.322	883.558	690.459
234.928	23.090	883.855	689.725
235.942	23.228	882.074	688.812
236.957	23.096	880.779	687.228
237.972	22.716	880.496	685.471
238.986	23.170	879.161	686.129
240.001	22.991	879.470	685.615
241.015	22.869	878.341	684.201
242.030	22.910	877.835	683.905
243.045	23.567	876.728	685.523
244.059	23.555	877.457	685.985
245.074	23.691	876.594	685.775
246.088	23.257	876.229	683.752
247.103	23.692	876.257	685.395
248.117	24.201	874.773	686.134
249.132	24.268	875.695	687.055
250.147	24.695	875.385	688.396
251.161	24.883	874.614	688.451
252.176	24.786	874.604	688.009
253.190	24.983	873.342	687.710
254.205	24.880	873.624	687.478
255.220	24.801	873.255	686.824
256.234	24.524	872.066	684.765
257.249	24.716	871.814	685.244
258.263	24.267	871.067	682.873
259.278	24.638	869.592	683.076
260.293	24.559	870.064	683.084
261.307	24.611	868.956	682.353
262.322	24.836	867.820	682.258
263.336	24.744	868.299	682.226
264.351	23.998	868.425	679.413
265.366	24.190	866.080	678.251
266.380	24.520	865.531	679.016
267.395	24.272	866.406	678.700
268.409	24.433	864.374	677.658
269.424	24.165	864.331	676.546
270.439	24.404	863.611	676.829
271.453	24.581	862.079	676.240
272.468	24.541	861.749	675.768
273.482	24.450	861.223	674.955
274.497	24.524	860.373	674.506
275.512	24.322	859.849	673.276
276.526	23.961	860.163	672.097
277.541	24.171	858.990	671.913
278.555	24.104	859.013	671.619
279.570	24.770	857.616	672.974
280.585	24.639	858.184	672.867
281.599	24.791	857.653	672.963
282.614	24.598	857.325	671.922
283.628	24.085	855.557	668.549
284.643	24.066	855.227	668.161
285.657	24.314	854.327	668.327
286.672	24.306	853.680	667.734
287.687	23.959	853.932	666.572
288.701	24.173	853.465	666.950
289.716	24.084	852.748	665.997
290.730	24.263	852.289	666.247
291.745	24.416	852.378	666.831
292.760	24.577	850.441	665.858
293.774	24.463	850.544	665.454
294.789	24.820	850.426	666.632
295.803	24.978	849.877	666.733
296.818	24.877	848.991	665.603
297.833	24.235	848.394	662.689
298.847	24.344	847.326	662.199
299.862	24.367	847.076	662.031
300.876	24.630	846.303	662.345
301.891	24.817	845.646	662.463
302.906	24.972	845.942	663.213
303.920	25.035	844.997	662.646
304.935	25.252	843.873	662.505
305.949	25.293	844.176	662.837
306.964	24.885	843.949	661.093
307.979	24.838	842.611	659.812
308.993	24.506	842.826	658.697
310.008	24.929	841.213	658.938
311.022	24.863	841.405	658.786
312.037	24.822	840.302	657.712
313.052	24.595	840.276	656.801
314.066	24.273	839.884	655.252
315.081	23.627	838.991	652.126
316.095	24.128	837.186	652.502
317.110	24.278	837.146	652.961
318.125	24.508	836.714	653.408
319.139	24.292	835.901	651.928
320.154	23.787	835.456	649.677
321.168	23.833	834.716	649.211
322.183	23.941	834.369	649.277
323.197	24.242	834.146	650.144
324.212	24.474	833.808	650.668
325.227	24.389	833.044	649.705
326.241	23.801	833.824	648.113
327.256	23.855	831.972	646.811
328.270	24.092	831.372	647.152
329.285	24.183	830.081	646.417
330.300	23.911	829.708	645.085
331.314	23.804	828.750	643.895
332.329	24.290	827.683	644.768
333.343	24.179	828.253	644.753
334.358	24.504	828.042	645.706
335.373	24.765	827.615	646.260
336.387	24.604	827.922	645.860
337.402	24.486	827.276	644.872
338.416	24.696	826.732	645.150
339.431	25.066	826.434	646.195
340.446	25.313	825.595	646.370
341.460	25.297	825.161	645.915
342.475	25.789	824.097	646.795
343.489	25.373	824.014	645.177
344.504	25.674	823.467	645.772
345.519	25.292	823.599	644.446
346.533	25.722	822.611	645.159
347.548	25.558	822.524	644.444
348.562	25.485	822.163	643.844
349.577	25.236	821.034	642.011
350.592	25.051	819.977	640.468
351.606	25.033	819.667	640.103
352.621	24.573	819.232	638.064
353.635	24.585	818.343	637.361
354.650	24.515	818.905	637.491
355.665	24.851	817.274	637.360
356.679	24.619	817.513	636.664
357.694	24.729	816.880	636.507
358.708	25.010	815.757	636.575
359.723	24.705	816.032	635.650
360.738	24.653	815.168	634.734
361.752	24.737	814.670	634.588
362.767	24.590	813.993	633.484
363.781	25.191	813.951	635.524
364.796	25.702	813.390	636.840
365.810	25.713	812.654	636.248
366.825	25.630	812.978	636.151
367.840	25.574	812.215	635.298
368.854	25.499	812.353	635.084
369.869	25.734	811.488	635.182
370.883	25.212	810.810	632.754
371.898	25.341	810.199	632.678
372.913	25.174	810.056	631.921
373.927	25.440	809.908	632.685
374.942	25.247	809.708	631.794
375.956	25.410	807.713	630.753
376.971	25.446	806.754	630.077
377.986	25.794	806.464	631.012
379.000	25.796	806.882	631.293
380.015	25.547	806.779	630.282
381.029	25.635	805.564	629.585
382.044	25.763	804.474	629.126
383.059	25.673	804.304	628.621
384.073	26.133	803.875	629.835
385.088	25.650	803.272	627.623
386.102	25.182	803.401	626.034
387.117	25.108	801.816	624.487
388.132	25.408	800.953	624.805
389.146	25.497	799.816	624.170
390.161	24.995	800.180	622.654
391.175	24.981	800.705	622.959
392.190	25.688	800.311	625.054
393.205	25.569	800.231	624.523
394.219	25.099	799.011	621.886
395.234	24.678	797.757	619.397
396.248	24.699	797.113	618.915
397.263	24.665	796.835	618.528
398.278	24.906	795.950	618.617
399.292	24.906	795.548	618.249
400.307	24.271	795.963	616.324
401.321	24.617	794.435	616.280
402.336	24.704	794.782	616.793
403.350	24.963	793.918	616.960
404.365	25.422	793.341	618.037
405.380	25.770	793.823	619.555
406.394	25.923	793.773	619.987
407.409	26.144	794.172	621.007
408.423	25.848	793.533	619.435
409.438	26.082	792.839	619.640
410.453	25.793	792.909	618.647
411.467	25.889	792.824	618.855
412.482	26.147	791.054	618.305
413.496	26.141	791.180	618.328
414.511	25.933	791.028	617.443
415.526	26.114	790.980	617.967
416.540	26.225	789.576	617.198
417.555	26.021	789.351	616.271
418.569	25.627	789.827	615.240
419.584	25.939	788.172	614.960
420.599	26.093	787.393	614.822
421.613	161.815	1369.269	1793.589
422.628	140.103	1454.028	1793.647
