DTS Sentinel unit serial number:	SN413079Multiplexer serial number:	ORYXHardware model number:	OX4-SRSoftware version number:	ORYX F/W v4.00 Oryx Data Collector v3.7.2.0data status	okinstallation	princeton_trtdifferential loss correction	single-endedforward channel	channel 3reverse channel	N/Adate	2019/09/12time	12:34:11forward acquisition time	60.00reverse acquisition time	0.00gamma	496.2192k internal	0.2292k external	0.2292temperature offset calibration	1.0042default loss term (dB/km)	0.3790temperature slope calibration	1.0000multiplexer offset coefficient	1.0000multiplexer slope coefficient	1.0000fibre end	0.00T internal ref (°C)	40.48T ext. ref 1 (°C)	2.01T ext. ref 2 (°C)	35.48length (m)	temperature (°C)	Stokes	anti-Stokes-747.200	-200.000	0.016	-0.177
-746.185	267.507	0.127	0.227
-745.171	-153.121	-0.309	-0.022
-744.156	-200.000	0.029	0.319
-743.142	80.277	-0.027	0.030
-742.127	800.000	-0.049	0.140
-741.112	800.000	-0.050	-0.202
-740.098	13.583	0.089	-0.071
-739.083	394.333	-0.156	-0.332
-738.069	407.172	0.221	0.478
-737.054	-96.355	0.030	-0.008
-736.039	22.687	0.072	-0.060
-735.025	-200.000	0.004	-0.417
-734.010	-50.832	-0.161	0.078
-732.996	732.931	-0.084	-0.231
-731.981	-104.728	0.212	-0.050
-730.966	115.626	-0.135	0.168
-729.952	-98.645	-0.434	-0.113
-728.937	2.619	-0.243	-0.180
-727.923	-187.642	0.148	0.002
-726.908	7.716	-0.502	0.385
-725.894	-200.000	-0.011	0.506
-724.879	-114.870	-0.300	0.059
-723.864	-151.862	-0.386	0.029
-722.850	-161.380	-0.154	-0.008
-721.835	-74.816	-0.279	0.102
-720.821	210.551	0.015	-0.024
-719.806	6.264	-0.049	-0.037
-718.791	527.845	0.107	0.258
-717.777	-7.178	-0.348	0.242
-716.762	800.000	-0.055	-0.226
-715.748	-3.763	-0.219	-0.156
-714.733	-192.086	-0.198	-0.002
-713.718	32.365	0.373	0.329
-712.704	54.180	-0.257	-0.253
-711.689	232.206	0.129	-0.216
-710.675	6.349	-0.295	0.224
-709.660	233.198	0.078	0.130
-708.645	-71.142	-0.220	0.084
-707.631	67.647	-0.095	0.099
-706.616	-25.740	-0.078	0.047
-705.602	800.000	0.122	-0.402
-704.587	281.599	-0.095	0.174
-703.572	150.144	-0.110	0.152
-702.558	40.088	-0.102	-0.094
-701.543	-116.921	0.141	-0.026
-700.529	-114.272	0.219	0.043
-699.514	-200.000	0.045	-0.286
-698.499	-74.582	0.356	0.131
-697.485	-97.425	-0.228	-0.061
-696.470	-200.000	0.022	-0.320
-695.456	-136.767	0.081	0.010
-694.441	-200.000	-0.036	0.226
-693.426	129.880	0.073	0.095
-692.412	-22.847	0.159	0.098
-691.397	-200.000	0.000	0.170
-690.383	-200.000	0.031	0.284
-689.368	-1.521	0.144	-0.104
-688.354	-52.887	-0.202	-0.095
-687.339	-43.875	0.133	0.068
-686.324	-200.000	0.048	0.215
-685.310	-112.014	0.274	-0.056
-684.295	-74.834	-0.434	-0.159
-683.281	-200.000	0.053	-0.259
-682.266	52.161	-0.147	0.143
-681.251	-36.555	-0.170	0.094
-680.237	-123.723	0.155	0.025
-679.222	-200.000	0.002	-0.191
-678.208	75.987	-0.164	-0.177
-677.193	-53.704	0.072	0.034
-676.178	151.477	-0.198	-0.275
-675.164	13.642	-0.265	0.210
-674.149	95.234	-0.111	-0.130
-673.135	746.594	0.114	-0.312
-672.120	-200.000	0.000	0.036
-671.105	-85.323	-0.059	0.019
-670.091	800.000	0.107	-0.401
-669.076	-79.820	-0.388	-0.133
-668.062	166.776	-0.174	-0.252
-667.047	-200.000	-0.021	-0.148
-666.032	-108.046	0.181	-0.040
-665.018	-60.324	0.177	0.077
-664.003	12.258	0.090	-0.071
-662.989	-200.000	-0.022	0.171
-661.974	-75.874	0.180	0.065
-660.959	255.823	0.099	-0.174
-659.945	71.951	-0.221	-0.235
-658.930	537.486	-0.086	-0.208
-657.916	22.802	-0.146	0.122
-656.901	395.756	0.196	-0.417
-655.886	-49.269	0.076	0.037
-654.872	-200.000	-0.019	0.101
-653.857	-114.242	-0.198	0.039
-652.843	-200.000	-0.053	-0.242
-651.828	-200.000	-0.012	0.328
-650.814	408.570	0.156	-0.336
-649.799	-200.000	-0.002	0.062
-648.784	-92.231	0.193	-0.056
-647.770	22.965	0.061	-0.051
-646.755	-34.543	-0.154	0.086
-645.741	-25.671	0.158	-0.095
-644.726	-200.000	-0.006	-0.138
-643.711	-29.384	0.086	-0.050
-642.697	-48.299	-0.311	-0.153
-641.682	-200.000	-0.007	-0.289
-640.668	800.000	0.050	-0.183
-639.653	-44.295	-0.151	0.077
-638.638	-200.000	-0.009	-0.105
-637.624	319.573	0.097	0.188
-636.609	-19.834	-0.071	-0.044
-635.595	-200.000	0.004	0.065
-634.580	-35.259	-0.151	0.084
-633.565	220.712	-0.108	-0.177
-632.551	504.639	-0.069	-0.163
-631.536	-32.503	0.218	0.124
-630.522	-58.615	-0.215	0.095
-629.507	-5.188	0.300	0.210
-628.492	122.624	-0.079	0.101
-627.478	-139.741	-0.298	-0.032
-626.463	-15.000	0.224	0.146
-625.449	800.000	-0.087	0.251
-624.434	800.000	0.125	-0.361
-623.419	32.471	-0.099	-0.087
-622.405	-17.319	-0.132	-0.085
-621.390	-144.355	0.181	0.017
-620.376	-24.541	0.193	-0.117
-619.361	596.300	-0.125	0.316
-618.346	-72.132	0.192	-0.073
-617.332	-144.614	-0.291	-0.027
-616.317	19.884	0.048	-0.040
-615.303	-74.654	-0.190	-0.070
-614.288	-200.000	-0.029	-0.159
-613.273	296.672	-0.064	0.119
-612.259	-86.591	0.283	0.088
-611.244	44.384	-0.177	0.165
-610.230	-200.000	0.046	-0.269
-609.215	265.572	0.194	-0.345
-608.201	-84.425	0.079	-0.025
-607.186	-135.028	0.045	-0.005
-606.171	737.321	0.054	-0.149
-605.157	-200.000	0.012	0.241
-604.142	-142.700	-0.301	0.030
-603.128	172.165	0.179	0.261
-602.113	-87.483	-0.116	0.036
-601.098	-200.000	0.016	-0.393
-600.084	87.652	0.277	-0.312
-599.069	-200.000	0.005	-0.291
-598.055	540.499	0.121	0.292
-597.040	-200.000	-0.015	0.069
-596.025	103.779	0.013	-0.016
-595.011	-200.000	-0.016	0.106
-593.996	19.619	0.072	0.059
-592.982	-144.298	0.198	-0.019
-591.967	11.497	0.051	0.040
-590.952	-157.157	-0.388	-0.024
-589.938	-200.000	-0.018	-0.080
-588.923	541.661	0.107	-0.261
-587.909	162.464	-0.103	-0.146
-586.894	-25.607	0.310	0.186
-585.879	437.680	-0.097	-0.214
-584.865	-124.977	-0.354	-0.055
-583.850	73.159	0.131	0.140
-582.836	81.725	-0.128	0.141
-581.821	-59.980	0.139	-0.060
-580.806	14.064	0.280	-0.222
-579.792	-27.307	-0.251	0.149
-578.777	103.534	0.216	0.258
-577.763	76.792	0.145	-0.156
-576.748	-65.633	-0.300	0.123
-575.733	116.204	-0.057	-0.071
-574.719	-185.356	-0.125	-0.002
-573.704	147.818	0.063	-0.086
-572.690	-23.896	0.131	-0.079
-571.675	-170.207	-0.541	-0.019
-570.661	96.605	0.049	-0.057
-569.646	-200.000	0.005	0.189
-568.631	-165.276	-0.201	0.009
-567.617	444.046	-0.160	-0.356
-566.602	14.652	-0.142	-0.113
-565.588	179.319	0.130	-0.193
-564.573	-200.000	-0.036	-0.319
-563.558	800.000	0.080	-0.227
-562.544	639.012	0.088	-0.227
-561.529	26.334	-0.183	0.156
-560.515	-134.933	0.414	-0.051
-559.500	6.516	-0.279	-0.211
-558.485	-23.089	-0.261	0.160
-557.471	92.061	-0.140	0.160
-556.456	800.000	0.035	0.107
-555.442	173.411	-0.190	0.278
-554.427	167.618	0.204	0.294
-553.412	55.480	0.229	0.225
-552.398	-200.000	-0.030	0.205
-551.383	-130.634	-0.300	-0.041
-550.369	644.950	-0.024	0.062
-549.354	137.189	-0.147	0.195
-548.339	699.196	-0.056	-0.149
-547.325	-58.482	-0.411	0.181
-546.310	45.591	-0.132	-0.124
-545.296	133.765	0.154	0.202
-544.281	127.439	-0.080	-0.103
-543.266	359.301	0.061	-0.124
-542.252	561.446	0.144	-0.353
-541.237	450.010	-0.172	-0.385
-540.223	-200.000	0.006	0.130
-539.208	168.919	0.280	0.405
-538.193	-53.830	-0.270	0.125
-537.179	-17.216	-0.107	-0.069
-536.164	30.740	0.235	-0.204
-535.150	800.000	-0.081	-0.300
-534.135	-90.004	0.288	-0.085
-533.121	-99.105	0.378	0.097
-532.106	110.539	0.108	-0.131
-531.091	-142.212	0.167	-0.017
-530.077	-81.612	-0.446	0.149
-529.062	64.857	0.063	0.065
-528.048	-36.762	-0.145	0.079
-527.033	166.089	-0.165	-0.237
-526.018	-156.279	-0.311	-0.020
-525.004	-6.192	0.232	-0.161
-523.989	-165.327	-0.415	-0.019
-522.975	91.771	-0.117	-0.134
-521.960	800.000	0.022	0.067
-520.945	-8.813	0.214	-0.146
-519.931	257.649	-0.078	0.136
-518.916	-200.000	-0.015	-0.083
-517.902	-200.000	-0.036	0.172
-516.887	9.979	-0.232	0.179
-515.872	-81.760	-0.328	0.109
-514.858	800.000	-0.026	-0.093
-513.843	-200.000	0.019	0.158
-512.829	-200.000	0.007	0.580
-511.814	-200.000	-0.002	0.207
-510.799	38.987	-0.226	0.205
-509.785	-115.424	0.217	0.042
-508.770	58.423	-0.289	-0.288
-507.756	-200.000	0.008	0.038
-506.741	-62.237	0.073	0.031
-505.726	800.000	0.039	0.168
-504.712	-165.559	-0.132	0.006
-503.697	48.570	-0.153	0.146
-502.683	317.481	-0.154	0.296
-501.668	62.525	-0.178	-0.180
-500.653	800.000	-0.066	0.284
-499.639	-0.047	-0.181	0.130
-498.624	-56.349	0.118	-0.053
-497.610	-112.858	0.065	-0.013
-496.595	-155.793	0.152	0.010
-495.581	53.778	0.100	0.098
-494.566	-2.675	-0.084	-0.059
-493.551	166.089	-0.060	0.086
-492.537	647.054	-0.081	-0.209
-491.522	-40.382	-0.084	0.044
-490.508	77.241	0.110	-0.118
-489.493	800.000	0.043	-0.175
-488.478	800.000	0.027	0.110
-487.464	71.636	0.182	0.191
-486.449	-75.615	-0.080	0.029
-485.435	-94.835	-0.404	0.111
-484.420	-191.868	-0.067	-0.001
-483.405	-153.554	0.125	-0.009
-482.391	668.916	-0.098	-0.257
-481.376	181.769	-0.080	0.120
-480.362	105.863	-0.072	-0.086
-479.347	-113.268	0.182	0.036
-478.332	-64.478	0.085	0.035
-477.318	11.688	0.249	0.194
-476.303	316.326	-0.089	0.171
-475.289	-64.027	0.331	0.137
-474.274	-67.470	-0.070	-0.028
-473.259	188.157	0.168	-0.255
-472.245	56.955	-0.087	-0.086
-471.230	38.533	0.056	0.051
-470.216	-94.163	-0.439	-0.122
-469.201	-99.402	-0.093	0.024
-468.186	-34.190	0.021	-0.012
-467.172	111.747	0.077	0.094
-466.157	-51.851	-0.317	0.149
-465.143	800.000	-0.049	0.208
-464.128	-200.000	0.013	0.306
-463.113	68.937	0.083	-0.086
-462.099	-27.437	0.304	-0.179
-461.084	632.199	-0.101	-0.259
-460.070	-91.826	-0.067	-0.019
-459.055	800.000	-0.052	0.146
-458.040	800.000	0.011	0.045
-457.026	314.677	-0.092	0.175
-456.011	-108.556	-0.285	0.062
-454.997	-73.532	0.089	-0.033
-453.982	-54.289	0.355	0.163
-452.968	-43.797	0.299	0.153
-451.953	-115.165	0.235	-0.045
-450.938	84.421	-0.256	0.284
-449.924	-106.197	-0.222	-0.050
-448.909	-128.608	0.035	-0.005
-447.895	-2.166	0.268	0.190
-446.880	504.736	0.061	0.142
-445.865	116.337	0.114	0.141
-444.851	800.000	-0.048	0.143
-443.836	751.912	0.066	0.180
-442.822	-26.369	0.092	-0.055
-441.807	800.000	0.011	0.030
-440.792	310.862	-0.105	0.200
-439.778	269.807	-0.077	0.136
-438.763	-200.000	0.000	0.059
-437.749	-44.242	-0.318	-0.162
-436.734	-200.000	0.088	-0.451
-435.719	-136.444	-0.201	-0.024
-434.705	252.181	-0.104	-0.179
-433.690	-200.000	-0.001	-0.180
-432.676	537.120	-0.083	-0.199
-431.661	-87.206	0.141	-0.043
-430.646	-200.000	-0.053	0.346
-429.632	-47.322	-0.144	-0.071
-428.617	139.784	0.184	-0.245
-427.603	224.469	-0.082	-0.135
-426.588	800.000	0.077	-0.248
-425.573	20.344	0.165	-0.135
-424.559	-200.000	0.066	0.309
-423.544	-105.538	0.036	-0.008
-422.530	695.638	0.039	-0.104
-421.515	317.163	-0.167	-0.320
-420.500	-113.010	-0.346	-0.069
-419.486	-51.578	0.295	0.139
-418.471	-130.256	0.166	-0.023
-417.457	261.353	-0.110	-0.193
-416.442	359.468	0.047	-0.096
-415.428	-200.000	-0.024	0.348
-414.413	-171.513	0.375	-0.013
-413.398	-78.929	-0.099	-0.034
-412.384	180.702	0.171	-0.254
-411.369	-71.714	0.021	0.008
-410.355	800.000	-0.031	-0.100
-409.340	-185.352	-0.404	-0.006
-408.325	-63.325	-0.129	0.054
-407.311	800.000	0.030	-0.104
-406.296	89.281	-0.137	0.154
-405.282	140.431	-0.062	-0.082
-404.267	-74.889	-0.271	0.098
-403.252	3.020	0.235	-0.172
-402.238	300.128	0.158	0.293
-401.223	26.029	0.241	0.203
-400.209	255.285	0.148	0.257
-399.194	-25.107	-0.205	-0.122
-398.179	-161.842	-0.095	0.005
-397.165	-200.000	0.012	0.290
-396.150	800.000	0.058	0.186
-395.136	17.499	-0.195	0.157
-394.121	-111.640	-0.373	0.076
-393.106	-36.124	-0.272	-0.149
-392.092	-58.243	-0.229	-0.101
-391.077	-73.892	-0.316	-0.116
-390.063	800.000	0.044	0.143
-389.048	114.919	0.099	0.122
-388.033	-53.101	-0.065	-0.030
-387.019	350.267	-0.088	-0.176
-386.004	12.795	0.285	-0.222
-384.990	-114.317	0.206	-0.040
-383.975	-161.069	0.367	-0.019
-382.960	800.000	-0.069	0.304
-381.946	-134.898	0.423	-0.052
-380.931	-169.842	0.190	0.007
-379.917	-10.382	0.205	-0.137
-378.902	213.621	0.058	-0.092
-377.888	206.274	-0.083	-0.131
-376.873	66.050	-0.114	0.117
-375.858	394.075	-0.027	0.056
-374.844	667.422	-0.056	-0.147
-373.829	-131.994	0.268	-0.035
-372.815	-200.000	-0.027	-0.193
-371.800	-38.727	0.148	-0.079
-370.785	-200.000	0.004	-0.244
-369.771	212.809	-0.095	0.152
-368.756	-12.494	-0.139	-0.092
-367.742	-100.320	-0.230	0.057
-366.727	139.679	0.187	0.249
-365.712	-67.747	0.433	-0.171
-364.698	-61.692	-0.237	-0.100
-363.683	-146.209	-0.264	-0.023
-362.669	-200.000	-0.050	0.305
-361.654	800.000	-0.019	0.082
-360.639	-53.186	0.251	0.116
-359.625	-136.457	0.335	-0.039
-358.610	134.636	0.066	-0.086
-357.596	-16.734	0.355	0.227
-356.581	-200.000	0.004	0.267
-355.566	-25.396	0.157	-0.093
-354.552	-114.295	-0.395	0.077
-353.537	58.967	0.114	-0.113
-352.523	-149.616	0.111	-0.009
-351.508	12.645	0.423	-0.329
-350.493	211.445	0.115	0.182
-349.479	-68.864	-0.199	0.077
-348.464	-200.000	0.021	0.141
-347.450	800.000	-0.059	0.190
-346.435	-131.552	0.181	0.024
-345.420	-200.000	0.019	0.204
-344.406	440.826	0.126	-0.278
-343.391	-139.518	0.171	0.018
-342.377	800.000	-0.033	0.135
-341.362	-200.000	-0.001	-0.043
-340.348	-63.800	0.072	-0.030
-339.333	-4.045	-0.157	0.109
-338.318	-200.000	-0.037	0.184
-337.304	-34.967	0.145	-0.080
-336.289	264.134	0.081	0.142
-335.275	-91.229	-0.319	0.092
-334.260	144.697	-0.193	0.260
-333.245	271.178	-0.240	0.427
-332.231	-62.134	0.209	-0.088
-331.216	421.962	0.203	-0.439
-330.202	-1.115	0.041	-0.029
-329.187	-45.970	0.207	0.103
-328.172	39.471	-0.107	0.096
-327.158	-164.229	0.462	0.021
-326.143	103.616	0.102	0.120
-325.129	-137.135	0.178	-0.020
-324.114	-156.527	0.145	-0.009
-323.099	179.026	0.137	-0.201
-322.085	-180.238	0.199	-0.004
-321.070	-200.000	-0.365	0.000
-320.056	46.364	-0.119	-0.111
-319.041	-37.801	0.105	-0.056
-318.026	-45.807	0.136	0.068
-317.012	800.000	-0.027	-0.091
-315.997	67.734	0.090	-0.093
-314.983	301.980	-0.247	-0.459
-313.968	-200.000	-0.031	-0.264
-312.953	800.000	0.092	-0.261
-311.939	-200.000	0.002	-0.085
-310.924	-30.120	-0.185	0.106
-309.910	25.770	0.323	-0.271
-308.895	-62.428	-0.236	0.099
-307.880	182.843	-0.136	0.202
-306.866	-200.000	-0.005	0.385
-305.851	1.877	-0.240	0.174
-304.837	340.994	0.103	-0.203
-303.822	-168.908	-0.339	0.013
-302.807	155.332	0.007	0.010
-301.793	-200.000	0.031	0.139
-300.778	141.573	-0.198	-0.264
-299.764	-183.074	-0.170	0.003
-298.749	143.849	0.241	0.323
-297.735	-200.000	-0.000	0.412
-296.720	649.882	0.035	-0.091
-295.705	-42.860	0.081	0.042
-294.691	-200.000	-0.008	0.167
-293.676	-148.571	0.395	-0.032
-292.662	-200.000	0.010	0.375
-291.647	535.066	0.068	-0.162
-290.632	708.331	-0.066	-0.177
-289.618	265.449	0.164	0.287
-288.603	111.803	0.073	0.089
-287.589	45.949	-0.229	0.213
-286.574	63.279	-0.127	-0.128
-285.559	80.255	-0.230	-0.249
-284.545	46.704	0.332	-0.310
-283.530	-158.241	-0.165	0.010
-282.516	14.645	0.118	-0.093
-281.501	204.529	0.139	0.216
-280.486	-21.498	-0.187	0.115
-279.472	190.381	0.075	0.114
-278.457	-119.474	0.249	-0.043
-277.443	20.802	-0.202	0.164
-276.428	279.018	0.148	0.266
-275.413	800.000	-0.051	-0.179
-274.399	84.323	-0.153	0.168
-273.384	6.460	-0.186	0.139
-272.370	-16.326	-0.244	0.156
-271.355	-120.242	0.273	0.047
-270.340	-110.878	-0.447	0.092
-269.326	-200.000	0.077	0.526
-268.311	-30.783	-0.160	-0.091
-267.297	123.638	0.134	-0.168
-266.282	96.878	0.044	0.051
-265.267	-200.000	0.013	-0.437
-264.253	93.946	0.127	0.144
-263.238	-34.052	0.262	-0.145
-262.224	800.000	-0.028	-0.119
-261.209	-199.865	-0.015	0.000
-260.195	-200.000	-0.001	-0.066
-259.180	350.709	0.093	-0.184
-258.165	-200.000	-0.024	0.603
-257.151	71.996	0.038	0.040
-256.136	-200.000	-0.046	0.282
-255.122	-91.183	-0.111	0.032
-254.107	-46.663	-0.182	0.089
-253.092	43.734	-0.193	-0.177
-252.078	-183.652	-0.130	-0.002
-251.063	-107.389	0.209	-0.046
-250.049	800.000	0.072	-0.266
-249.034	29.177	-0.061	0.052
-248.019	-169.439	-0.294	-0.011
-247.005	-94.680	-0.219	-0.060
-245.990	105.134	0.088	-0.105
-244.976	127.233	-0.124	0.158
-243.961	91.204	-0.082	0.093
-242.946	800.000	0.118	-0.380
-241.932	-196.695	-0.292	-0.002
-240.917	141.033	-0.160	0.213
-239.903	-58.101	0.018	0.008
-238.888	-41.908	0.283	-0.146
-237.873	253.733	0.140	-0.239
-236.859	-20.668	0.115	0.071
-235.844	-176.322	-0.118	0.003
-234.830	168.920	0.036	0.052
-233.815	-200.000	0.013	0.110
-232.800	78.726	-0.179	0.192
-231.786	407.372	0.160	0.339
-230.771	112.611	-0.277	0.337
-229.757	653.165	-0.056	-0.143
-228.742	-55.130	0.113	0.051
-227.727	-200.000	0.025	0.140
-226.713	-64.201	-0.190	0.078
-225.698	102.024	-0.123	-0.144
-224.684	-138.710	0.106	-0.012
-223.669	201.945	0.123	-0.190
-222.655	800.000	0.061	-0.206
-221.640	-116.777	0.264	-0.049
-220.625	800.000	-0.062	-0.190
-219.611	62.834	-0.124	-0.125
-218.596	10.629	0.480	0.367
-217.582	-200.000	0.002	-0.105
-216.567	-88.069	0.068	0.020
-215.552	396.467	0.248	-0.519
-214.538	-145.444	0.281	0.025
-213.523	-105.393	-0.417	0.095
-212.509	800.000	0.031	0.094
-211.494	-183.887	-0.098	-0.002
-210.479	36.601	0.065	-0.057
-209.465	120.594	-0.186	-0.232
-208.450	-49.906	-0.116	0.055
-207.436	800.000	0.056	-0.164
-206.421	-10.627	-0.146	0.097
-205.406	-97.031	0.163	-0.043
-204.392	74.021	0.116	0.122
-203.377	-62.032	0.165	0.069
-202.363	79.255	0.043	0.046
-201.348	-80.039	0.150	0.050
-200.333	215.250	0.126	0.201
-199.319	-200.000	-0.044	-0.270
-198.304	-200.000	0.049	-0.506
-197.290	-134.734	-0.028	-0.003
-196.275	71.188	0.131	-0.136
-195.260	53.934	-0.194	0.186
-194.246	-149.954	-0.084	0.007
-193.231	137.754	-0.171	-0.225
-192.217	-159.437	0.456	-0.026
-191.202	-149.188	0.495	-0.040
-190.187	380.516	0.167	-0.344
-189.173	-5.267	-0.097	-0.067
-188.158	70.255	0.173	-0.179
-187.144	800.000	-0.103	-0.306
-186.129	120.119	0.038	-0.047
-185.114	-61.058	-0.082	0.035
-184.100	159.470	0.186	0.259
-183.085	-74.458	-0.231	0.083
-182.071	-136.746	0.230	-0.027
-181.056	-121.304	-0.263	-0.044
-180.042	-23.968	0.145	-0.087
-179.027	-200.000	0.013	0.119
-178.012	800.000	-0.062	0.183
-176.998	-200.000	-0.017	-0.109
-175.983	-75.004	-0.237	0.085
-174.969	-22.788	-0.305	-0.184
-173.954	5.511	0.081	-0.060
-172.939	355.241	-0.013	0.026
-171.925	-200.000	-0.007	-0.047
-170.910	800.000	0.057	-0.190
-169.896	122.479	0.042	-0.053
-168.881	-86.167	-0.163	-0.050
-167.866	-50.319	0.178	0.084
-166.852	-166.317	0.091	0.004
-165.837	800.000	0.072	0.201
-164.823	134.672	-0.062	-0.081
-163.808	25.062	-0.062	-0.052
-162.793	768.319	-0.164	-0.445
-161.779	-115.182	-0.245	0.046
-160.764	-200.000	-0.007	-0.215
-159.750	-27.322	0.327	0.190
-158.735	-87.823	0.333	-0.100
-157.720	202.909	0.176	-0.272
-156.706	-22.639	0.211	-0.127
-155.691	800.000	-0.166	-0.584
-154.677	168.375	0.060	0.086
-153.662	-6.086	0.103	0.071
-152.647	227.907	0.070	0.114
-151.633	800.000	0.093	0.386
-150.618	-129.694	-0.206	0.028
-149.604	23.855	-0.320	-0.263
-148.589	618.530	-0.144	0.361
-147.574	-56.811	-0.210	0.093
-146.560	231.872	0.116	-0.190
-145.545	-200.000	-0.048	-0.224
-144.531	-200.000	-0.126	0.586
-143.516	-142.872	0.217	-0.021
-142.502	-107.842	-0.385	0.084
-141.487	-200.000	-0.068	-0.467
-140.472	390.958	0.162	0.336
-139.458	308.898	-0.140	-0.262
-138.443	111.767	0.107	-0.129
-137.429	-55.697	-0.025	-0.011
-136.414	-112.093	0.092	0.018
-135.399	-200.000	0.006	0.201
-134.385	-189.684	-0.337	-0.004
-133.370	2.965	0.020	-0.014
-132.356	-84.417	-0.124	0.039
-131.341	-200.000	-0.010	-0.182
-130.326	-120.017	0.100	-0.017
-129.312	149.926	0.076	0.104
-128.297	-200.000	-0.015	0.117
-127.283	-200.000	0.002	0.032
-126.268	800.000	-0.121	0.361
-125.253	272.876	0.040	-0.070
-124.239	-142.225	-0.191	0.019
-123.224	233.781	0.159	-0.261
-122.210	527.645	0.074	-0.174
-121.195	-200.000	0.076	0.402
-120.180	800.000	0.043	0.172
-119.166	631.467	0.026	0.067
-118.151	224.825	-0.114	-0.185
-117.137	-30.086	-0.152	0.086
-116.122	-137.390	-0.160	0.018
-115.107	-91.463	-0.159	0.045
-114.093	-142.411	0.111	0.011
-113.078	-120.440	-0.197	0.033
-112.064	202.334	-0.031	-0.048
-111.049	800.000	-0.050	-0.191
-110.034	113.908	0.211	-0.256
-109.020	-200.000	-0.027	0.171
-108.005	1.734	-0.202	-0.146
-106.991	-155.668	0.077	0.005
-105.976	-33.643	-0.123	-0.068
-104.962	323.825	-0.117	0.222
-103.947	276.643	0.108	0.192
-102.932	-200.000	-0.007	-0.131
-101.918	-122.707	0.188	0.030
-100.903	-87.385	0.089	0.027
-99.889	6.179	0.131	0.097
-98.874	42.210	-0.053	-0.048
-97.859	172.433	0.196	0.281
-96.845	-200.000	0.004	0.062
-95.830	-200.000	-0.002	0.176
-94.816	-200.000	0.032	0.145
-93.801	-200.000	0.056	0.267
-92.786	248.415	-0.029	-0.049
-91.772	-30.462	-0.230	0.130
-90.757	-60.359	-0.221	-0.094
-89.743	-151.807	-0.564	-0.041
-88.728	-32.017	0.132	0.074
-87.713	-120.247	-0.330	-0.056
-86.699	183.315	0.113	0.167
-85.684	-134.046	-0.233	-0.029
-84.670	800.000	0.040	-0.140
-83.655	800.000	0.073	0.230
-82.640	40.860	-0.073	-0.066
-81.626	-200.000	0.003	0.063
-80.611	13.432	0.139	-0.108
-79.597	-200.000	-0.052	0.238
-78.582	105.275	0.241	0.284
-77.567	-200.000	0.022	0.200
-76.553	510.660	0.108	-0.251
-75.538	157.640	-0.158	-0.218
-74.524	-86.367	-0.164	0.050
-73.509	205.318	0.111	-0.172
-72.494	358.734	-0.070	0.139
-71.480	190.975	-0.141	0.211
-70.465	267.225	-0.109	0.190
-69.451	-200.000	0.008	0.247
-68.436	262.579	0.279	0.483
-67.422	-99.444	0.316	0.079
-66.407	257.216	-0.109	-0.187
-65.392	136.644	-0.060	0.078
-64.378	-119.977	-0.563	0.096
-63.363	88.009	-0.103	0.114
-62.349	51.934	0.173	0.164
-61.334	252.903	-0.548	-0.933
-60.319	-13.098	0.389	-0.252
-59.305	608.551	-0.372	-0.925
-58.290	162.480	0.561	0.784
-57.276	643.893	0.621	1.579
-56.261	-200.000	76.986	513.746
-55.246	512.806	1339.985	3111.782
-54.232	144.913	2573.627	3428.848
-53.217	115.239	2252.034	2740.153
-52.203	51.000	1775.718	1677.242
-51.188	43.737	1575.009	1436.312
-50.173	41.159	1545.600	1391.453
-49.159	57.381	1581.904	1538.804
-48.144	62.881	1602.124	1597.185
-47.130	44.466	1565.101	1432.191
-46.115	40.790	1551.281	1393.751
-45.100	40.576	1547.900	1389.161
-44.086	40.509	1545.700	1386.665
-43.071	40.522	1543.707	1384.909
-42.057	40.587	1541.224	1383.084
-41.042	40.507	1540.147	1381.505
-40.027	40.452	1539.023	1380.060
-39.013	40.446	1537.242	1378.365
-37.998	40.427	1535.621	1376.727
-36.984	40.334	1535.263	1375.702
-35.969	40.412	1533.630	1374.724
-34.954	40.519	1531.747	1373.728
-33.940	40.544	1530.579	1372.796
-32.925	40.454	1529.215	1370.899
-31.911	40.500	1527.617	1369.728
-30.896	40.614	1525.649	1368.695
-29.881	40.601	1524.688	1367.691
-28.867	40.564	1523.527	1366.335
-27.852	40.613	1521.731	1365.006
-26.838	40.588	1520.289	1363.490
-25.823	40.573	1518.634	1361.849
-24.809	40.550	1517.109	1360.266
-23.794	40.522	1515.751	1358.808
-22.779	40.531	1514.476	1357.669
-21.765	40.545	1513.552	1356.882
-20.750	40.523	1512.400	1355.645
-19.736	40.515	1510.969	1354.257
-18.721	40.547	1509.836	1353.403
-17.706	40.493	1508.638	1351.912
-16.692	40.494	1507.568	1350.906
-15.677	40.501	1506.682	1350.103
-14.663	40.404	1505.668	1348.483
-13.648	40.443	1504.699	1347.829
-12.633	40.418	1503.868	1346.859
-11.619	40.567	1502.615	1346.691
-10.604	40.424	1502.185	1345.283
-9.590	40.370	1501.646	1344.383
-8.575	40.391	1500.058	1343.050
-7.560	40.465	1499.062	1342.603
-6.546	40.469	1498.387	1341.974
-5.531	40.362	1497.799	1340.669
-4.517	40.430	1496.893	1340.268
-3.502	40.387	1495.946	1339.075
-2.487	40.478	1494.543	1338.381
-1.473	40.503	1493.695	1337.735
-0.458	40.412	1492.372	1335.886
0.556	40.707	1482.749	1325.644
1.571	37.827	1455.603	1282.343
2.586	33.769	1393.069	1201.526
3.600	31.554	1308.227	1115.066
4.615	29.631	1260.006	1062.822
5.629	24.993	1200.948	987.418
6.644	13.277	1107.981	850.950
7.659	3.798	1060.363	767.428
8.673	2.294	1054.272	755.521
9.688	2.090	1050.845	751.998
10.702	1.854	1049.288	749.655
11.717	1.803	1047.670	748.182
12.731	5.212	1051.961	767.964
13.746	16.037	1067.999	833.404
14.761	24.316	1078.273	882.502
15.775	25.447	1079.038	888.646
16.790	25.513	1078.174	888.180
17.804	25.305	1077.433	886.467
18.819	25.131	1076.760	884.973
19.834	25.255	1075.875	884.781
20.848	25.350	1075.281	884.683
21.863	25.354	1075.716	884.980
22.877	25.401	1074.549	884.176
23.892	25.307	1074.131	883.291
24.907	25.318	1073.052	882.380
25.921	25.387	1072.276	882.003
26.936	25.307	1071.998	881.302
27.950	25.093	1070.777	879.172
28.965	25.214	1069.518	878.653
29.980	25.137	1068.120	877.048
30.994	25.134	1066.637	875.738
32.009	25.277	1065.929	875.779
33.023	25.494	1065.494	876.399
34.038	25.229	1064.592	874.291
35.053	25.138	1063.896	873.200
36.067	25.340	1063.331	873.638
37.082	25.303	1062.248	872.495
38.096	25.317	1061.495	871.868
39.111	25.454	1060.888	871.953
40.126	25.604	1060.064	871.926
41.140	25.573	1058.278	870.232
42.155	25.135	1057.737	867.591
43.169	24.932	1056.409	865.446
44.184	24.987	1054.958	864.445
45.199	25.048	1054.110	863.969
46.213	24.856	1053.184	862.206
47.228	24.821	1052.642	861.519
48.242	25.099	1051.396	861.759
49.257	25.105	1051.119	861.484
50.271	25.283	1050.281	861.575
51.286	25.190	1049.870	860.715
52.301	25.454	1048.628	860.885
53.315	25.384	1048.173	860.101
54.330	25.222	1047.590	858.773
55.344	25.203	1046.763	857.928
56.359	25.154	1046.036	857.020
57.374	25.240	1045.098	856.589
58.388	25.205	1043.956	855.409
59.403	24.926	1043.494	853.623
60.417	25.009	1042.808	853.381
61.432	24.868	1041.921	851.910
62.447	24.949	1041.259	851.680
63.461	24.920	1040.862	851.141
64.476	25.059	1039.837	850.889
65.490	25.089	1038.967	850.243
66.505	24.939	1037.983	848.654
67.520	24.926	1037.010	847.720
68.534	25.158	1036.393	848.239
69.549	25.083	1035.199	846.832
70.563	24.638	1034.256	843.882
71.578	24.423	1034.047	842.625
72.593	24.557	1032.993	842.321
73.607	24.518	1031.618	840.943
74.622	24.505	1030.873	840.199
75.636	24.633	1030.545	840.459
76.651	24.875	1029.466	840.644
77.666	24.732	1028.764	839.322
78.680	24.653	1027.532	837.873
79.695	24.710	1026.964	837.605
80.709	24.726	1027.045	837.670
81.724	24.841	1026.222	837.466
82.739	24.824	1025.339	836.590
83.753	24.816	1024.377	835.693
84.768	25.103	1024.129	836.758
85.782	25.304	1023.689	837.262
86.797	25.630	1023.277	838.370
87.812	25.668	1022.015	837.439
88.826	25.465	1020.962	835.560
89.841	25.300	1020.720	834.521
90.855	25.625	1018.902	834.465
91.870	25.551	1018.667	833.857
92.884	25.617	1017.691	833.289
93.899	25.426	1017.109	831.856
94.914	25.326	1015.706	830.174
95.928	25.394	1015.308	830.090
96.943	25.456	1014.221	829.410
97.957	25.168	1013.201	827.177
98.972	25.015	1011.854	825.299
99.987	24.718	1011.368	823.463
101.001	24.822	1010.852	823.448
102.016	25.157	1009.861	824.106
103.030	25.305	1009.063	824.063
104.045	25.247	1008.046	822.892
105.060	25.210	1006.573	821.450
106.074	24.828	1006.084	819.228
107.089	24.850	1005.172	818.513
108.103	25.234	1004.608	819.738
109.118	25.325	1003.855	819.464
110.133	24.951	1003.322	817.253
111.147	24.985	1001.855	816.140
112.162	24.773	1000.972	814.383
113.176	24.646	1000.027	812.963
114.191	24.857	998.584	812.675
115.206	25.040	998.247	813.161
116.220	24.628	997.267	810.424
117.235	24.465	996.477	808.971
118.249	24.590	996.242	809.274
119.264	24.570	994.977	808.086
120.279	24.660	994.155	807.752
121.293	24.528	993.369	806.447
122.308	24.663	992.607	806.364
123.322	24.552	991.946	805.255
124.337	24.626	990.892	804.662
125.352	24.513	989.494	802.947
126.366	24.137	988.036	800.007
127.381	23.869	986.575	797.550
128.395	24.384	986.639	799.842
129.410	24.994	986.289	802.220
130.424	25.222	985.806	802.775
131.439	25.161	984.822	801.629
132.454	25.056	984.022	800.440
133.468	25.251	982.741	800.197
134.483	25.132	982.233	799.182
135.497	25.232	981.440	798.909
136.512	25.336	981.265	799.162
137.527	25.456	980.303	798.838
138.541	25.457	979.480	798.102
139.556	25.579	978.638	797.889
140.570	25.421	977.779	796.417
141.585	25.433	977.257	795.975
142.600	25.525	976.599	795.775
143.614	25.348	975.870	794.325
144.629	25.505	975.552	794.692
145.643	25.680	974.895	794.862
146.658	25.780	972.942	793.637
147.673	25.411	972.122	791.275
148.687	25.377	971.073	790.199
149.702	25.324	969.822	788.881
150.716	25.111	968.641	786.914
151.731	25.052	967.700	785.822
152.746	25.135	967.399	785.873
153.760	25.432	966.563	786.421
154.775	25.478	966.085	786.166
155.789	25.568	965.145	785.726
156.804	25.574	964.050	784.789
157.819	25.410	963.341	783.428
158.833	25.499	962.231	782.846
159.848	25.678	961.546	782.996
160.862	25.647	960.940	782.300
161.877	25.572	960.072	781.197
162.892	25.449	958.934	779.667
163.906	25.560	958.317	779.579
164.921	25.597	957.200	778.761
165.935	25.459	956.358	777.412
166.950	25.620	955.153	777.057
167.964	25.614	954.282	776.253
168.979	25.479	953.393	774.883
169.994	25.298	952.680	773.451
171.008	25.209	951.706	772.213
172.023	25.469	950.776	772.507
173.037	25.638	949.881	772.437
174.052	25.388	948.915	770.510
175.067	25.305	947.695	769.096
176.081	25.197	946.967	767.974
177.096	25.283	945.945	767.444
178.110	25.346	945.117	766.974
179.125	25.220	944.052	765.506
180.140	24.888	943.245	763.365
181.154	24.848	942.520	762.544
182.169	24.876	942.623	762.679
183.183	25.180	942.049	763.440
184.198	25.447	941.762	764.276
185.213	25.401	941.030	763.417
186.227	25.474	939.978	762.806
187.242	25.446	939.663	762.365
188.256	25.479	939.135	762.008
189.271	25.422	938.295	761.020
190.286	25.478	937.501	760.544
191.300	25.482	936.589	759.753
192.315	24.890	935.160	756.029
193.329	24.196	933.621	751.792
194.344	23.795	932.223	748.909
195.359	24.240	932.850	751.224
196.373	25.099	933.293	755.131
197.388	25.428	932.893	756.126
198.402	25.351	932.230	755.200
199.417	25.306	931.534	754.379
200.432	25.416	931.332	754.612
201.446	25.365	930.615	753.749
202.461	24.887	929.977	751.161
203.475	25.182	928.911	751.468
204.490	24.711	927.684	748.440
205.504	23.514	925.585	741.678
206.519	23.710	925.672	742.499
207.534	24.868	925.831	747.403
208.548	24.925	925.474	747.283
209.563	25.261	925.400	748.560
210.577	25.381	924.316	748.118
211.592	25.089	923.557	746.222
212.607	25.552	923.359	747.923
213.621	25.756	922.750	748.210
214.636	25.451	922.172	746.409
215.650	25.695	921.597	746.889
216.665	25.588	920.817	745.750
217.680	25.528	920.687	745.328
218.694	25.551	920.414	745.137
219.709	25.352	919.279	743.327
220.723	24.944	918.283	740.772
221.738	25.247	917.762	741.536
222.753	25.305	917.553	741.542
223.767	25.265	916.787	740.693
224.782	25.472	916.245	741.041
225.796	25.569	915.531	740.797
226.811	25.752	914.718	740.827
227.826	25.527	913.650	738.974
228.840	24.577	911.973	733.653
229.855	24.305	911.402	732.013
230.869	24.741	911.074	733.470
231.884	24.449	909.877	731.248
232.899	24.264	909.438	730.070
233.913	25.103	910.135	734.003
234.928	25.344	909.299	734.250
235.942	25.349	908.398	733.478
236.957	25.201	908.178	732.629
237.972	25.001	907.205	730.966
238.986	24.814	906.247	729.367
240.001	24.962	905.790	729.539
241.015	25.004	905.368	729.303
242.030	25.122	904.615	729.114
243.045	25.361	904.160	729.653
244.059	25.236	903.798	728.790
245.074	25.599	903.042	729.586
246.088	25.464	902.382	728.442
247.103	25.075	901.276	725.909
248.117	25.164	900.871	725.877
249.132	25.563	901.007	727.537
250.147	25.899	901.215	729.004
251.161	26.108	900.023	728.818
252.176	26.167	899.886	728.878
253.190	26.202	899.299	728.480
254.205	26.156	898.662	727.716
255.220	26.484	898.257	728.643
256.234	26.515	897.468	728.064
257.249	26.336	896.672	726.637
258.263	26.266	896.027	725.766
259.278	26.265	895.654	725.395
260.293	26.317	894.927	724.952
261.307	26.332	894.673	724.744
262.322	26.321	893.754	723.890
263.336	26.047	893.657	722.650
264.351	25.783	891.821	720.044
265.366	24.631	889.738	713.701
266.380	23.968	889.353	710.684
267.395	24.991	889.534	714.848
268.409	25.822	889.495	718.069
269.424	25.715	889.035	717.207
270.439	25.864	888.589	717.377
271.453	26.077	887.854	717.570
272.468	26.004	887.156	716.650
273.482	26.136	886.980	716.970
274.497	26.352	886.435	717.323
275.512	26.154	885.298	715.555
276.526	25.474	884.536	712.182
277.541	25.752	883.692	712.540
278.555	26.111	883.323	713.599
279.570	26.141	882.651	713.109
280.585	25.681	882.098	710.784
281.599	25.798	881.680	710.845
282.614	26.078	881.010	711.346
283.628	25.576	879.802	708.331
284.643	25.149	878.905	705.867
285.657	25.647	879.099	707.919
286.672	25.608	878.470	707.199
287.687	24.849	877.811	703.621
288.701	25.307	877.456	705.076
289.716	25.744	877.102	706.443
290.730	25.428	876.151	704.375
291.745	25.200	875.757	703.104
292.760	25.119	874.427	701.656
293.774	24.960	873.835	700.497
294.789	25.980	874.397	704.874
295.803	26.602	874.166	707.055
296.818	26.668	874.063	707.167
297.833	26.655	874.089	707.076
298.847	26.510	872.637	705.275
299.862	26.128	871.306	702.649
300.876	26.342	871.004	703.177
301.891	26.604	870.668	703.859
302.906	26.568	870.036	703.148
303.920	26.234	869.050	700.993
304.935	26.111	868.604	700.093
305.949	26.411	868.134	700.817
306.964	26.620	867.549	701.088
307.979	26.437	866.636	699.583
308.993	26.086	866.691	698.208
310.008	26.571	866.425	699.808
311.022	26.847	865.690	700.217
312.037	26.595	865.247	698.826
313.052	26.284	864.603	697.044
314.066	26.180	863.735	695.881
315.081	25.454	862.656	692.154
316.095	24.928	860.597	688.422
317.110	25.307	861.174	690.278
318.125	26.188	861.694	694.022
319.139	25.821	860.707	691.757
320.154	24.582	858.942	685.526
321.168	24.139	857.327	682.478
322.183	24.884	857.732	685.595
323.197	25.664	858.770	689.352
324.212	26.043	858.475	690.508
325.227	26.163	858.006	690.528
326.241	26.404	857.612	691.071
327.256	26.397	856.852	690.371
328.270	26.122	856.245	688.769
329.285	26.169	855.267	688.103
330.300	25.822	854.787	686.334
331.314	25.689	854.073	685.192
332.329	25.853	853.295	685.133
333.343	26.269	853.138	686.525
334.358	26.516	852.594	686.963
335.373	26.468	851.951	686.202
336.387	26.673	851.229	686.337
337.402	26.551	851.681	686.182
338.416	26.918	851.393	687.276
339.431	26.896	850.279	686.234
340.446	26.935	849.919	686.029
341.460	27.245	849.122	686.499
342.475	27.034	848.812	685.388
343.489	26.805	848.135	683.917
344.504	26.836	847.384	683.370
345.519	27.004	847.293	683.866
346.533	27.250	846.782	684.321
347.548	27.295	846.434	684.148
348.562	27.391	845.998	684.097
349.577	27.223	845.231	682.786
350.592	27.188	844.903	682.326
351.606	27.218	844.296	681.888
352.621	27.275	843.546	681.438
353.635	27.206	843.066	680.730
354.650	27.004	842.538	679.488
355.665	26.885	841.430	678.089
356.679	25.795	839.826	672.668
357.694	25.500	839.179	670.990
358.708	26.151	839.792	673.853
359.723	26.346	838.813	673.733
360.738	26.318	838.467	673.292
361.752	26.897	838.546	675.452
362.767	26.907	838.416	675.324
363.781	27.226	838.245	676.315
364.796	27.373	838.430	676.948
365.810	27.390	838.091	676.680
366.825	27.707	837.274	677.137
367.840	27.697	836.924	676.755
368.854	27.602	836.233	675.785
369.869	26.967	835.315	672.633
370.883	26.866	834.776	671.765
371.898	26.945	834.087	671.443
372.913	26.856	833.599	670.663
373.927	26.993	832.756	670.431
374.942	27.114	832.291	670.442
375.956	27.108	831.395	669.640
376.971	27.331	831.014	670.094
377.986	27.466	830.573	670.176
379.000	27.510	830.573	670.279
380.015	27.577	829.478	669.581
381.029	27.383	829.053	668.466
382.044	27.392	828.636	668.104
383.059	27.534	828.335	668.323
384.073	27.602	827.550	667.881
385.088	27.600	826.930	667.316
386.102	27.516	826.845	666.879
387.117	27.338	825.944	665.443
388.132	27.257	825.175	664.467
389.146	27.156	824.316	663.350
390.161	26.609	823.475	660.619
391.175	26.529	823.339	660.158
392.190	27.128	823.355	662.296
393.205	27.243	822.873	662.272
394.219	26.290	820.870	657.135
395.234	24.583	819.191	649.533
396.248	23.654	817.691	644.913
397.263	24.737	818.746	649.624
398.278	26.573	820.255	657.439
399.292	27.255	820.176	659.793
400.307	27.014	819.084	657.983
401.321	26.770	818.876	656.871
402.336	26.901	818.613	657.079
403.350	27.127	818.375	657.646
404.365	27.653	818.312	659.441
405.380	27.890	817.981	659.974
406.394	28.201	817.595	660.724
407.409	28.421	817.250	661.183
408.423	28.232	817.021	660.258
409.438	28.266	816.346	659.777
410.453	28.229	815.681	659.046
411.467	28.326	815.406	659.117
412.482	28.294	814.496	658.207
413.496	28.277	814.075	657.746
414.511	28.243	814.184	657.656
415.526	28.306	813.622	657.370
416.540	28.149	813.585	656.717
417.555	28.200	812.692	656.123
418.569	27.973	812.018	654.707
419.584	27.912	811.243	653.806
420.599	28.073	811.118	654.223
421.613	95.809	1265.280	1380.810
422.628	82.373	1331.480	1380.923
