DTS Sentinel unit serial number:	SN413079Multiplexer serial number:	ORYXHardware model number:	OX4-SRSoftware version number:	ORYX F/W v4.00 Oryx Data Collector v3.7.2.0data status	okinstallation	princeton_trtdifferential loss correction	single-endedforward channel	channel 3reverse channel	N/Adate	2019/09/18time	12:28:35forward acquisition time	60.00reverse acquisition time	0.00gamma	496.2192k internal	0.2320k external	0.2320temperature offset calibration	0.9965default loss term (dB/km)	0.3790temperature slope calibration	1.0000multiplexer offset coefficient	1.0000multiplexer slope coefficient	1.0000fibre end	0.00T internal ref (°C)	32.14T ext. ref 1 (°C)	0.52T ext. ref 2 (°C)	29.44length (m)	temperature (°C)	Stokes	anti-Stokes-747.200	0.565	-0.178	0.129
-746.185	-107.932	0.279	0.061
-745.171	-104.679	0.101	0.023
-744.156	-200.000	-0.083	0.377
-743.142	-200.000	-0.018	0.350
-742.127	-74.182	0.140	0.051
-741.112	800.000	0.098	-0.286
-740.098	-93.458	-0.280	0.078
-739.083	-200.000	0.084	-0.381
-738.069	-35.145	-0.160	0.088
-737.054	253.259	-0.065	0.112
-736.039	800.000	-0.058	-0.209
-735.025	195.960	0.197	0.304
-734.010	-200.000	-0.033	0.173
-732.996	514.868	-0.092	-0.217
-731.981	159.879	0.120	-0.168
-730.966	204.293	0.090	0.141
-729.952	-143.779	-0.307	-0.029
-728.937	-41.698	0.253	-0.131
-727.923	229.299	-0.143	-0.235
-726.908	-158.362	-0.089	-0.005
-725.894	380.577	-0.057	0.117
-724.879	-146.067	-0.289	0.026
-723.864	-113.278	0.277	0.055
-722.850	-23.965	0.205	-0.124
-721.835	15.786	-0.375	0.298
-720.821	-183.290	0.295	-0.005
-719.806	-71.145	-0.172	-0.065
-718.791	800.000	-0.061	-0.252
-717.777	304.128	0.168	0.314
-716.762	-137.525	-0.273	-0.031
-715.748	-7.093	-0.056	0.038
-714.733	-141.971	0.162	-0.016
-713.718	131.692	-0.175	0.227
-712.704	800.000	0.055	-0.192
-711.689	-80.793	-0.086	-0.029
-710.675	-139.361	-0.334	0.036
-709.660	68.659	0.196	-0.203
-708.645	800.000	0.080	0.253
-707.631	-73.845	-0.295	-0.108
-706.616	122.591	-0.187	-0.236
-705.602	-12.952	0.314	0.206
-704.587	-9.633	-0.218	-0.147
-703.572	108.334	-0.086	0.103
-702.558	-200.000	-0.044	0.239
-701.543	87.231	0.101	0.113
-700.529	800.000	-0.019	-0.061
-699.514	-116.191	0.166	-0.031
-698.499	253.527	0.077	0.133
-697.485	-138.056	-0.264	-0.030
-696.470	-74.353	0.253	-0.092
-695.456	-94.516	0.135	0.037
-694.441	-200.000	-0.011	0.122
-693.426	800.000	0.174	0.555
-692.412	-99.284	0.288	-0.073
-691.397	64.382	-0.084	-0.085
-690.383	800.000	0.045	0.132
-689.368	545.681	0.083	-0.201
-688.354	-98.448	-0.463	-0.120
-687.339	-115.319	0.408	0.078
-686.324	-27.273	0.093	0.055
-685.310	6.241	0.267	-0.200
-684.295	-200.000	0.002	-0.236
-683.281	221.417	0.033	-0.054
-682.266	132.852	-0.110	-0.143
-681.251	-123.386	0.145	-0.023
-680.237	-200.000	-0.049	-0.348
-679.222	151.624	-0.110	-0.151
-678.208	-178.253	0.026	-0.001
-677.193	-176.564	-0.305	0.008
-676.178	-200.000	0.013	0.133
-675.164	52.277	-0.252	-0.242
-674.149	374.633	-0.079	-0.162
-673.135	210.180	0.091	0.144
-672.120	567.576	-0.164	0.400
-671.105	69.254	0.115	-0.119
-670.091	-200.000	0.091	-0.000
-669.076	196.040	-0.086	0.132
-668.062	800.000	0.085	-0.281
-667.047	-200.000	-0.086	-0.510
-666.032	800.000	0.061	-0.234
-665.018	589.873	0.023	-0.057
-664.003	71.545	0.154	-0.161
-662.989	800.000	0.040	-0.120
-661.974	53.477	0.173	0.167
-660.959	60.715	-0.298	-0.297
-659.945	54.936	0.113	-0.110
-658.930	-200.000	-0.024	-0.425
-657.916	800.000	0.038	-0.140
-656.901	72.715	-0.063	0.066
-655.886	545.384	0.100	-0.240
-654.872	-200.000	0.016	-0.097
-653.857	-65.910	-0.121	-0.049
-652.843	59.152	0.112	-0.111
-651.828	800.000	0.183	-0.515
-650.814	-117.500	0.323	-0.059
-649.799	-137.260	0.149	0.017
-648.784	169.245	0.113	0.163
-647.770	-30.880	-0.189	0.108
-646.755	-142.976	-0.147	0.014
-645.741	-55.525	0.150	-0.068
-644.726	-59.957	-0.288	-0.124
-643.711	-82.314	-0.295	-0.097
-642.697	71.653	0.168	-0.176
-641.682	-6.030	-0.214	-0.147
-640.668	-16.986	0.138	-0.088
-639.653	38.526	0.111	-0.100
-638.638	-89.302	0.259	-0.077
-637.624	800.000	-0.104	0.406
-636.609	-115.090	0.122	-0.023
-635.595	-8.979	0.337	0.227
-634.580	48.360	-0.072	-0.067
-633.565	233.614	0.151	0.251
-632.551	584.826	-0.125	-0.309
-631.536	111.094	-0.171	0.207
-630.522	639.892	0.094	-0.241
-629.507	800.000	0.066	0.224
-628.492	426.223	-0.102	-0.222
-627.478	182.452	-0.178	-0.265
-626.463	800.000	0.062	0.252
-625.449	344.368	0.104	-0.206
-624.434	-29.270	-0.167	-0.096
-623.419	405.020	0.171	-0.363
-622.405	-35.933	-0.084	0.046
-621.390	364.481	-0.109	0.222
-620.376	-51.887	-0.209	0.098
-619.361	-103.847	0.050	0.012
-618.346	58.259	0.056	-0.055
-617.332	-6.305	-0.038	-0.026
-616.317	-58.952	-0.299	0.130
-615.303	263.058	0.082	-0.144
-614.288	-81.207	-0.115	-0.038
-613.273	-64.221	-0.168	0.069
-612.259	149.526	-0.255	-0.347
-611.244	776.534	-0.122	0.335
-610.230	9.233	-0.097	0.074
-609.215	800.000	-0.112	-0.376
-608.201	-65.416	0.371	0.150
-607.186	-83.688	0.118	-0.038
-606.171	110.427	-0.344	-0.416
-605.157	129.940	-0.187	-0.240
-604.142	-200.000	-0.056	-0.250
-603.128	-56.740	0.125	0.056
-602.113	149.537	0.039	-0.054
-601.098	-132.999	0.143	0.018
-600.084	-66.320	0.080	0.032
-599.069	682.143	0.107	-0.281
-598.055	580.402	-0.089	0.220
-597.040	-57.727	-0.151	0.067
-596.025	-98.151	-0.214	-0.055
-595.011	-13.425	0.349	0.228
-593.996	16.126	-0.280	0.222
-592.982	-57.253	-0.088	-0.039
-591.967	-200.000	-0.027	0.169
-590.952	-200.000	0.037	-0.247
-589.938	-99.495	0.059	0.015
-588.923	-63.286	-0.179	-0.074
-587.909	-85.184	0.208	-0.065
-586.894	299.232	-0.174	-0.322
-585.879	-77.126	-0.052	-0.018
-584.865	-200.000	-0.020	-0.368
-583.850	443.423	0.050	0.111
-582.836	2.748	0.097	0.070
-581.821	-200.000	-0.013	-0.197
-580.806	306.464	0.095	-0.177
-579.792	300.673	0.083	-0.155
-578.777	234.554	-0.028	-0.046
-577.763	-200.000	0.006	0.141
-576.748	-200.000	0.061	0.321
-575.733	249.420	0.081	-0.139
-574.719	43.100	-0.083	-0.076
-573.704	604.810	-0.069	0.172
-572.690	-200.000	-0.016	0.273
-571.675	130.608	-0.187	0.241
-570.661	-75.095	0.377	0.135
-569.646	-44.702	-0.256	-0.128
-568.631	245.660	-0.130	0.221
-567.617	465.689	0.113	-0.254
-566.602	85.691	0.015	0.016
-565.588	-89.464	-0.283	-0.084
-564.573	-130.924	-0.146	-0.020
-563.558	-66.260	-0.122	0.049
-562.544	-97.480	-0.151	0.039
-561.529	-55.845	0.123	-0.055
-560.515	-117.287	0.139	-0.025
-559.500	491.545	-0.078	0.180
-558.485	151.884	-0.110	-0.151
-557.471	-54.175	-0.171	-0.078
-556.456	-95.902	-0.480	0.128
-555.442	-134.963	-0.335	-0.041
-554.427	-98.214	-0.287	-0.074
-553.412	-200.000	0.000	0.103
-552.398	-35.509	0.104	0.057
-551.383	38.020	-0.081	-0.072
-550.369	-13.026	-0.210	-0.137
-549.354	132.445	0.173	-0.224
-548.339	-28.179	-0.172	0.100
-547.325	307.027	0.122	0.228
-546.310	36.213	0.195	-0.173
-545.296	-51.064	0.118	-0.055
-544.281	60.512	0.030	-0.029
-543.266	-4.067	-0.235	0.163
-542.252	800.000	0.071	-0.281
-541.237	-36.243	0.210	0.114
-540.223	800.000	0.070	0.238
-539.208	800.000	0.101	0.324
-538.193	-200.000	0.045	-0.275
-537.179	800.000	0.052	-0.158
-536.164	-7.765	-0.318	-0.216
-535.150	-94.527	0.370	0.101
-534.135	30.053	0.084	0.072
-533.121	-147.579	0.282	-0.024
-532.106	-122.954	-0.131	0.021
-531.091	-40.037	-0.221	0.116
-530.077	-200.000	-0.016	0.089
-529.062	430.357	-0.067	-0.146
-528.048	-32.997	-0.418	-0.233
-527.033	-120.856	0.068	0.011
-526.018	267.444	0.044	0.077
-525.004	66.686	0.073	-0.074
-523.989	143.293	-0.088	-0.118
-522.975	69.657	-0.193	0.200
-521.960	-62.241	0.314	0.131
-520.945	800.000	0.082	0.243
-519.931	-143.163	0.363	-0.035
-518.916	-200.000	-0.036	0.278
-517.902	-47.966	-0.069	0.033
-516.887	800.000	0.054	-0.150
-515.872	-185.134	0.248	-0.004
-514.858	-200.000	-0.079	-0.397
-513.843	-200.000	0.005	-0.271
-512.829	800.000	0.072	0.206
-511.814	-76.760	-0.398	-0.140
-510.799	35.829	-0.195	0.172
-509.785	-200.000	0.023	-0.187
-508.770	-200.000	-0.013	-0.110
-507.756	-200.000	0.007	0.181
-506.741	-200.000	-0.016	0.116
-505.726	82.612	-0.110	-0.120
-504.712	246.490	-0.140	-0.237
-503.697	-54.796	-0.096	-0.043
-502.683	17.678	0.124	-0.099
-501.668	-200.000	-0.012	-0.449
-500.653	624.172	0.054	0.136
-499.639	48.406	-0.143	0.134
-498.624	-200.000	0.021	0.238
-497.610	733.819	-0.077	-0.206
-496.595	307.051	0.142	-0.264
-495.581	606.285	-0.033	-0.081
-494.566	105.720	-0.082	-0.098
-493.551	-200.000	-0.011	0.370
-492.537	7.605	0.370	-0.277
-491.522	-31.017	-0.313	0.177
-490.508	83.802	-0.249	-0.272
-489.493	31.453	-0.182	0.156
-488.478	129.483	-0.066	0.084
-487.464	-153.919	-0.122	-0.008
-486.449	800.000	0.053	0.224
-485.435	800.000	0.079	0.227
-484.420	415.593	0.198	0.422
-483.405	-139.359	0.264	-0.028
-482.391	-200.000	-0.008	-0.100
-481.376	324.242	0.089	0.169
-480.362	-6.019	-0.219	0.150
-479.347	-75.136	0.371	-0.133
-478.332	212.576	0.075	-0.119
-477.318	-1.183	0.247	-0.174
-476.303	-81.115	-0.236	-0.078
-475.289	-77.138	0.174	0.061
-474.274	100.226	-0.114	0.133
-473.259	-153.957	-0.177	-0.012
-472.245	430.744	0.092	0.199
-471.230	-200.000	-0.013	0.244
-470.216	-22.455	-0.122	-0.074
-469.201	-200.000	-0.037	0.200
-468.186	-133.999	0.472	-0.058
-467.172	-147.083	0.246	0.021
-466.157	-200.000	-0.002	0.125
-465.143	87.863	0.041	-0.045
-464.128	111.807	-0.271	-0.327
-463.113	-200.000	0.019	-0.493
-462.099	-200.000	-0.040	0.226
-461.084	-200.000	0.036	0.170
-460.070	45.865	0.230	-0.213
-459.055	-155.449	-0.345	-0.022
-458.040	130.475	-0.109	0.140
-457.026	-200.000	0.009	-0.130
-456.011	196.615	-0.052	-0.079
-454.997	-35.754	0.389	0.211
-453.982	-126.075	-0.432	0.065
-452.968	-8.628	0.308	0.207
-451.953	-106.387	-0.274	-0.061
-450.938	-104.227	-0.271	-0.063
-449.924	75.042	-0.261	0.275
-448.909	-170.786	-0.384	0.013
-447.895	-91.225	0.230	-0.066
-446.880	77.744	0.175	-0.187
-445.865	79.371	0.140	-0.150
-444.851	800.000	0.048	-0.194
-443.836	-60.702	-0.140	-0.059
-442.822	-78.835	0.349	-0.119
-441.807	13.670	0.277	-0.215
-440.792	177.161	0.052	-0.076
-439.778	-200.000	-0.009	-0.189
-438.763	-102.911	0.132	0.031
-437.749	124.731	0.246	0.310
-436.734	-39.702	-0.186	-0.097
-435.719	375.164	-0.082	-0.166
-434.705	69.100	0.183	0.188
-433.690	-62.210	0.286	0.119
-432.676	148.362	-0.264	-0.355
-431.661	-200.000	-0.001	-0.037
-430.646	-182.896	-0.148	0.003
-429.632	295.367	0.043	0.078
-428.617	90.012	0.136	0.152
-427.603	800.000	0.070	-0.193
-426.588	60.573	-0.077	-0.076
-425.573	296.324	0.186	0.341
-424.559	60.375	0.149	0.147
-423.544	15.113	0.111	0.087
-422.530	-42.411	-0.139	-0.071
-421.515	-200.000	0.022	-0.161
-420.500	-16.279	0.097	-0.062
-419.486	800.000	-0.082	0.269
-418.471	127.504	-0.123	-0.156
-417.457	-100.630	0.320	-0.079
-416.442	-26.942	-0.566	-0.330
-415.428	-99.508	0.329	-0.083
-414.413	11.426	-0.048	0.037
-413.398	109.526	0.138	-0.166
-412.384	800.000	0.027	-0.114
-411.369	-200.000	-0.006	-0.206
-410.355	-200.000	0.002	-0.068
-409.340	-50.159	0.190	-0.090
-408.325	-200.000	-0.056	-0.329
-407.311	-184.286	-0.178	-0.003
-406.296	12.260	0.080	-0.062
-405.282	291.878	-0.078	-0.141
-404.267	-3.148	-0.314	-0.219
-403.252	169.311	0.164	-0.234
-402.238	221.995	0.082	0.131
-401.223	-87.051	-0.415	0.126
-400.209	599.602	0.136	-0.337
-399.194	-200.000	-0.018	-0.162
-398.179	-131.592	0.128	0.017
-397.165	-25.085	0.206	0.122
-396.150	-9.756	0.251	-0.167
-395.136	-200.000	-0.063	0.350
-394.121	-116.038	0.163	0.030
-393.106	-200.000	0.019	0.164
-392.092	-200.000	-0.002	0.202
-391.077	-200.000	-0.026	-0.116
-390.063	-200.000	-0.060	-0.271
-389.048	800.000	-0.158	-0.482
-388.033	-200.000	0.038	-0.239
-387.019	-39.384	-0.042	-0.022
-386.004	-200.000	0.064	0.339
-384.990	-33.586	-0.233	-0.128
-383.975	-200.000	-0.071	0.363
-382.960	-149.556	0.154	-0.012
-381.946	-20.609	0.239	0.146
-380.931	155.829	0.135	-0.185
-379.917	413.012	0.108	-0.229
-378.902	-200.000	-0.024	0.402
-377.888	647.581	-0.012	0.030
-376.873	-200.000	-0.093	0.459
-375.858	20.704	0.162	0.131
-374.844	-25.129	0.034	0.020
-373.829	-117.409	0.105	-0.019
-372.815	-5.730	-0.212	0.144
-371.800	798.315	0.020	-0.054
-370.785	-200.000	0.052	0.293
-369.771	-200.000	-0.046	0.420
-368.756	-39.546	-0.054	-0.028
-367.742	800.000	0.064	0.188
-366.727	30.588	0.133	0.113
-365.712	-48.942	0.144	0.069
-364.698	-118.724	0.374	0.066
-363.683	7.380	-0.138	0.103
-362.669	-85.486	0.355	0.110
-361.654	-107.889	-0.184	-0.040
-360.639	-81.084	-0.176	-0.058
-359.625	-99.942	-0.364	-0.091
-358.610	191.897	0.048	-0.072
-357.596	517.866	-0.120	-0.280
-356.581	503.221	0.166	-0.382
-355.566	-100.547	0.216	-0.053
-354.552	-200.000	-0.012	-0.263
-353.537	-172.718	0.220	-0.007
-352.523	-64.421	-0.097	0.039
-351.508	800.000	0.025	-0.074
-350.493	-96.135	-0.246	0.065
-349.479	-164.015	-0.093	0.004
-348.464	13.566	-0.114	-0.088
-347.450	-121.761	-0.193	0.032
-346.435	-200.000	0.006	-0.145
-345.420	-135.711	-0.087	0.010
-344.406	-200.000	0.004	0.126
-343.391	-200.000	0.041	-0.262
-342.377	326.813	0.259	0.495
-341.362	417.320	0.056	-0.118
-340.348	727.110	0.074	-0.197
-339.333	-200.000	-0.105	0.000
-338.318	-200.000	-0.004	0.064
-337.304	202.530	0.033	-0.050
-336.289	-78.565	0.265	0.090
-335.275	800.000	-0.134	-0.496
-334.260	-200.000	0.078	-0.373
-333.245	-160.513	0.159	-0.008
-332.231	800.000	-0.046	0.130
-331.216	-149.810	-0.199	0.016
-330.202	287.089	0.015	0.027
-329.187	132.959	0.293	-0.376
-328.172	-152.287	-0.175	-0.013
-327.158	36.873	-0.180	0.158
-326.143	-200.000	0.001	0.255
-325.129	-8.017	0.127	-0.085
-324.114	-145.434	-0.183	0.016
-323.099	-177.398	-0.031	-0.001
-322.085	-200.000	-0.043	-0.293
-321.070	101.659	-0.343	0.398
-320.056	-129.181	-0.062	0.009
-319.041	800.000	0.062	-0.258
-318.026	-98.709	0.106	-0.027
-317.012	800.000	0.116	-0.358
-315.997	-38.752	0.065	-0.034
-314.983	147.165	0.100	0.134
-313.968	800.000	-0.095	0.320
-312.953	-110.051	0.110	-0.023
-311.939	26.033	-0.251	-0.208
-310.924	24.792	0.136	0.112
-309.910	47.134	-0.136	-0.126
-308.895	-62.379	0.308	0.128
-307.880	115.911	-0.207	0.252
-306.866	682.084	-0.066	0.172
-305.851	-16.686	-0.092	-0.058
-304.837	275.554	0.055	0.096
-303.822	-200.000	-0.024	-0.112
-302.807	36.261	-0.257	-0.225
-301.793	800.000	0.010	-0.043
-300.778	800.000	0.051	0.212
-299.764	800.000	0.058	0.203
-298.749	-16.914	-0.202	-0.127
-297.735	181.123	0.102	-0.149
-296.720	-16.592	0.139	-0.087
-295.705	-144.443	0.362	-0.033
-294.691	800.000	0.080	0.224
-293.676	-200.000	0.042	0.194
-292.662	266.712	-0.129	0.224
-291.647	-182.774	-0.176	0.003
-290.632	-107.450	0.081	0.018
-289.618	123.240	-0.101	-0.126
-288.603	-93.811	0.168	0.046
-287.589	-161.145	-0.177	-0.009
-286.574	-100.467	-0.102	0.025
-285.559	356.093	-0.067	-0.133
-284.545	55.803	-0.191	0.184
-283.530	800.000	-0.135	0.445
-282.516	-34.043	-0.226	0.124
-281.501	-151.189	-0.059	0.004
-280.486	247.460	0.060	-0.101
-279.472	248.516	0.137	-0.230
-278.457	-200.000	-0.029	0.237
-277.443	-5.277	0.392	0.268
-276.428	-164.975	-0.212	-0.009
-275.413	-200.000	-0.046	-0.263
-274.399	147.402	0.187	-0.250
-273.384	-200.000	-0.040	-0.185
-272.370	800.000	0.060	-0.178
-271.355	-200.000	0.086	0.438
-270.340	734.466	-0.193	0.513
-269.326	-122.865	0.151	-0.024
-268.311	27.320	0.219	0.183
-267.297	159.980	-0.167	0.230
-266.282	800.000	0.047	-0.196
-265.267	53.383	0.139	0.132
-264.253	466.736	-0.109	-0.243
-263.238	125.665	-0.085	-0.107
-262.224	-200.000	-0.053	0.300
-261.209	800.000	-0.022	0.063
-260.195	-125.532	-0.129	0.019
-259.180	-200.000	0.006	-0.219
-258.165	-55.796	0.221	0.098
-257.151	0.503	-0.111	-0.079
-256.136	24.617	-0.126	-0.103
-255.122	102.927	-0.232	0.269
-254.107	545.383	0.116	0.276
-253.092	-166.075	0.395	0.017
-252.078	197.250	-0.167	0.252
-251.063	-178.221	0.129	0.003
-250.049	147.647	-0.137	0.183
-249.034	434.236	-0.180	-0.388
-248.019	-112.913	-0.177	0.035
-247.005	-31.302	0.114	-0.063
-245.990	43.529	-0.221	0.201
-244.976	-38.693	-0.323	-0.169
-243.961	-23.176	-0.185	-0.110
-242.946	-21.266	0.050	-0.030
-241.932	-50.888	-0.179	0.083
-240.917	-111.221	-0.200	-0.040
-239.903	-66.316	0.187	0.074
-238.888	800.000	0.046	0.131
-237.873	-21.010	0.441	0.268
-236.859	-103.540	-0.045	-0.010
-235.844	760.959	0.121	0.325
-234.830	43.770	0.168	0.152
-233.815	-108.843	-0.458	0.097
-232.800	-178.205	-0.252	-0.006
-231.786	121.018	-0.175	-0.216
-230.771	-141.760	0.172	0.017
-229.757	-89.598	-0.225	-0.065
-228.742	-200.000	0.015	-0.262
-227.727	8.141	-0.184	-0.137
-226.713	191.403	-0.072	-0.108
-225.698	-9.194	-0.280	0.186
-224.684	26.045	0.225	-0.186
-223.669	231.665	0.146	0.237
-222.655	-200.000	0.078	0.504
-221.640	-107.972	0.376	-0.081
-220.625	-200.000	0.008	0.193
-219.611	16.764	0.178	0.140
-218.596	34.405	0.056	-0.048
-217.582	-92.969	-0.119	0.033
-216.567	-200.000	0.017	0.132
-215.552	6.248	0.206	0.152
-214.538	454.449	0.043	-0.094
-213.523	-200.000	0.015	-0.069
-212.509	-179.804	-0.121	0.003
-211.494	507.549	0.069	-0.158
-210.479	-151.094	-0.077	-0.006
-209.465	248.568	0.073	0.123
-208.450	-200.000	0.004	-0.068
-207.436	800.000	0.055	0.213
-206.421	-200.000	-0.002	0.139
-205.406	37.911	0.267	0.235
-204.392	-61.648	-0.196	-0.082
-203.377	-200.000	0.002	-0.015
-202.363	-200.000	-0.025	-0.177
-201.348	-99.537	0.229	-0.057
-200.333	397.553	-0.129	0.266
-199.319	190.227	-0.042	-0.062
-198.304	-102.267	-0.117	-0.028
-197.290	-200.000	-0.016	0.380
-196.275	-8.692	0.113	-0.075
-195.260	-50.666	0.099	-0.046
-194.246	800.000	0.086	-0.282
-193.231	800.000	0.129	-0.369
-192.217	-200.000	-0.057	0.305
-191.202	81.106	-0.029	-0.031
-190.187	-190.655	0.149	-0.002
-189.173	137.311	0.047	-0.061
-188.158	394.672	0.114	-0.236
-187.144	-200.000	-0.028	0.169
-186.129	-76.030	-0.330	-0.115
-185.114	51.710	0.135	0.127
-184.100	800.000	-0.025	0.097
-183.085	175.706	0.077	0.111
-182.071	-200.000	-0.001	0.135
-181.056	109.384	-0.130	-0.154
-180.042	-70.994	0.493	-0.183
-179.027	-151.270	0.203	-0.015
-178.012	113.903	-0.068	0.082
-176.998	32.320	-0.340	-0.290
-175.983	209.677	-0.137	0.213
-174.969	67.900	0.160	0.162
-173.954	23.177	0.272	0.221
-172.939	25.991	0.307	0.253
-171.925	-200.000	0.035	0.274
-170.910	800.000	-0.085	0.269
-169.896	219.876	0.249	-0.395
-168.881	-91.728	0.063	-0.018
-167.866	138.498	0.105	-0.136
-166.852	-48.681	0.510	-0.242
-165.837	-76.134	0.108	-0.038
-164.823	28.184	0.179	-0.149
-163.808	-15.976	-0.297	0.187
-162.793	162.295	-0.102	0.141
-161.779	163.735	0.149	0.207
-160.764	-115.591	0.186	-0.035
-159.750	438.955	-0.018	0.038
-158.735	74.321	-0.140	0.145
-157.720	255.661	-0.136	-0.230
-156.706	800.000	-0.028	-0.110
-155.691	-200.000	0.042	0.278
-154.677	35.803	0.154	0.133
-153.662	-93.808	0.162	0.044
-152.647	-88.953	-0.315	0.092
-151.633	-40.311	0.232	-0.119
-150.618	87.110	-0.040	-0.043
-149.604	-58.862	-0.280	0.120
-148.589	-71.403	0.268	-0.099
-147.574	89.307	-0.123	0.136
-146.560	26.650	0.119	0.098
-145.545	800.000	-0.060	-0.228
-144.531	427.204	0.101	-0.215
-143.516	-147.382	-0.212	-0.018
-142.502	-91.361	0.050	0.014
-141.487	-92.054	0.254	0.071
-140.472	10.493	0.213	-0.160
-139.458	-30.740	0.108	-0.060
-138.443	800.000	0.133	-0.466
-137.429	-190.719	0.358	0.004
-136.414	-134.361	0.139	0.017
-135.399	150.963	-0.046	0.062
-134.385	8.775	-0.093	-0.069
-133.370	9.257	0.330	-0.246
-132.356	91.563	0.151	-0.168
-131.341	574.269	-0.120	-0.289
-130.326	-77.575	-0.112	-0.038
-129.312	221.516	-0.219	0.347
-128.297	18.318	0.250	0.197
-127.283	-68.643	-0.140	-0.054
-126.268	-90.461	-0.315	0.090
-125.253	-38.728	0.240	-0.125
-124.239	-46.033	0.159	0.077
-123.224	-102.567	0.097	-0.023
-122.210	800.000	-0.089	-0.249
-121.195	-200.000	0.046	0.242
-120.180	630.240	-0.063	-0.157
-119.166	-91.708	-0.274	0.077
-118.151	51.030	0.292	0.273
-117.137	800.000	0.079	0.239
-116.122	42.023	-0.101	0.090
-115.107	-65.641	-0.186	-0.074
-114.093	30.355	0.139	-0.117
-113.078	-26.999	-0.131	0.075
-112.064	92.368	0.047	-0.053
-111.049	-71.207	0.142	0.053
-110.034	-23.518	0.110	0.065
-109.020	-135.486	0.383	-0.045
-108.005	-179.947	0.283	-0.006
-106.991	-121.714	-0.426	0.070
-105.976	125.881	-0.117	0.146
-104.962	-52.919	0.264	0.120
-103.947	-100.390	-0.223	0.055
-102.932	633.418	-0.061	-0.151
-101.918	757.487	0.033	0.088
-100.903	11.802	-0.173	0.131
-99.889	24.125	0.161	-0.131
-98.874	100.943	-0.081	0.093
-97.859	-200.000	0.006	0.154
-96.845	712.543	-0.164	0.428
-95.830	26.114	0.331	0.272
-94.816	-200.000	0.044	0.324
-93.801	136.051	0.257	0.330
-92.786	-59.872	0.042	-0.018
-91.772	800.000	-0.045	0.146
-90.757	-200.000	0.021	-0.313
-89.743	-148.615	-0.305	-0.025
-88.728	-37.932	-0.172	0.090
-87.713	-200.000	0.027	0.213
-86.699	445.940	-0.160	-0.347
-85.684	800.000	-0.090	-0.285
-84.670	-200.000	0.080	0.501
-83.655	31.154	-0.140	0.118
-82.640	-200.000	-0.001	-0.227
-81.626	-76.247	0.321	0.111
-80.611	-144.614	0.030	0.003
-79.597	800.000	0.040	0.139
-78.582	-79.361	0.064	0.021
-77.567	589.169	0.077	0.187
-76.553	-141.315	0.102	-0.010
-75.538	-28.519	0.301	-0.171
-74.524	-179.406	0.413	0.009
-73.509	-25.505	-0.144	-0.084
-72.494	-59.470	-0.041	-0.017
-71.480	-50.429	0.248	0.115
-70.465	-200.000	0.005	0.327
-69.451	47.918	-0.075	-0.069
-68.436	276.169	0.088	0.154
-67.422	68.178	0.182	0.184
-66.407	-2.852	-0.070	-0.048
-65.392	-69.396	0.301	0.114
-64.378	394.783	0.126	0.259
-63.363	-26.240	0.204	0.118
-62.349	165.921	0.327	0.455
-61.334	76.678	-0.962	-1.005
-60.319	286.001	0.249	0.442
-59.305	-200.000	-0.163	-0.747
-58.290	369.704	0.497	0.992
-57.276	174.422	1.092	1.554
-56.261	-200.000	93.476	557.825
-55.246	513.468	1411.540	3240.174
-54.232	153.250	2604.928	3509.233
-53.217	110.119	2215.547	2618.208
-52.203	42.867	1745.853	1566.223
-51.188	35.319	1554.652	1342.069
-50.173	32.862	1527.715	1301.843
-49.159	51.852	1575.049	1475.505
-48.144	53.387	1592.100	1502.162
-47.130	35.569	1553.234	1342.378
-46.115	32.559	1538.190	1308.453
-45.100	32.242	1535.231	1303.685
-44.086	32.231	1533.323	1301.940
-43.071	32.183	1531.400	1299.922
-42.057	32.193	1529.943	1298.703
-41.042	32.170	1528.348	1297.136
-40.027	32.158	1526.278	1295.250
-39.013	32.197	1524.850	1294.252
-37.998	32.033	1524.490	1292.770
-36.984	32.103	1522.868	1291.821
-35.969	32.197	1521.550	1291.299
-34.954	32.246	1519.847	1290.137
-33.940	32.170	1518.613	1288.519
-32.925	32.199	1517.015	1287.310
-31.911	32.237	1515.357	1286.111
-30.896	32.229	1514.157	1284.988
-29.881	32.233	1512.766	1283.781
-28.867	32.236	1511.433	1282.618
-27.852	32.199	1509.833	1280.958
-26.838	32.226	1508.349	1279.831
-25.823	32.129	1507.186	1278.135
-24.809	32.173	1505.132	1276.644
-23.794	32.166	1503.425	1275.100
-22.779	32.182	1502.427	1274.310
-21.765	32.164	1501.143	1273.050
-20.750	32.239	1499.794	1272.361
-19.736	32.171	1498.896	1271.085
-18.721	32.039	1498.494	1269.806
-17.706	32.056	1497.345	1268.895
-16.692	32.087	1495.813	1267.758
-15.677	32.128	1495.260	1267.511
-14.663	32.052	1494.052	1265.923
-13.648	32.134	1492.978	1265.521
-12.633	32.055	1491.846	1263.979
-11.619	32.142	1490.851	1263.669
-10.604	32.127	1489.852	1262.675
-9.590	32.069	1489.472	1261.911
-8.575	32.073	1488.539	1261.098
-7.560	32.103	1487.383	1260.269
-6.546	32.100	1486.889	1259.777
-5.531	32.122	1485.986	1259.114
-4.517	32.053	1484.700	1257.509
-3.502	32.100	1483.618	1256.855
-2.487	32.048	1482.796	1255.762
-1.473	32.073	1481.411	1254.705
-0.458	32.163	1480.157	1254.198
0.556	31.015	1471.539	1245.538
1.571	28.534	1445.157	1206.802
2.586	25.030	1382.840	1132.555
3.600	22.929	1298.478	1050.887
4.615	21.005	1252.403	1002.458
5.629	17.891	1194.072	938.588
6.644	9.086	1105.654	823.994
7.659	1.794	1063.649	756.508
8.673	0.690	1057.671	746.740
9.688	0.540	1054.623	743.783
10.702	0.417	1053.678	742.443
11.717	0.443	1051.658	741.083
12.731	3.003	1054.239	755.430
13.746	11.280	1065.022	804.054
14.761	16.940	1072.377	837.568
15.775	17.275	1071.617	838.550
16.790	16.696	1070.048	834.396
17.804	15.747	1067.725	827.843
18.819	14.807	1065.910	821.742
19.834	14.339	1064.940	818.621
20.848	13.995	1063.764	815.955
21.863	13.864	1062.957	814.623
22.877	13.589	1061.699	812.239
23.892	13.309	1061.147	810.370
24.907	13.337	1060.006	809.568
25.921	13.210	1059.475	808.468
26.936	13.343	1058.690	808.446
27.950	13.372	1058.388	808.286
28.965	13.285	1057.417	807.051
29.980	13.353	1056.874	806.893
30.994	13.529	1055.767	806.835
32.009	13.491	1055.005	805.999
33.023	13.591	1053.990	805.635
34.038	13.567	1053.430	805.021
35.053	13.496	1052.393	803.812
36.067	13.525	1051.636	803.301
37.082	13.440	1051.144	802.445
38.096	13.470	1050.195	801.793
39.111	13.480	1049.248	801.048
40.126	13.527	1048.579	800.696
41.140	13.397	1047.178	798.927
42.155	13.371	1046.013	797.843
43.169	13.261	1045.831	797.099
44.184	13.391	1044.247	796.451
45.199	13.318	1043.138	795.184
46.213	13.206	1042.629	794.184
47.228	13.247	1041.526	793.472
48.242	13.422	1040.255	793.271
49.257	13.518	1038.942	792.658
50.271	13.392	1038.251	791.459
51.286	13.386	1037.174	790.541
52.301	13.462	1036.549	790.356
53.315	13.425	1035.860	789.585
54.330	13.301	1035.205	788.425
55.344	13.460	1034.224	788.368
56.359	13.379	1032.991	786.972
57.374	13.325	1032.021	785.908
58.388	13.398	1031.394	785.706
59.403	13.317	1030.621	784.664
60.417	13.303	1029.628	783.771
61.432	13.217	1029.180	782.952
62.447	13.340	1027.937	782.522
63.461	13.249	1027.778	781.900
64.476	13.277	1026.560	781.035
65.490	13.221	1026.074	780.332
66.505	13.277	1024.526	779.349
67.520	13.254	1024.441	779.108
68.534	13.331	1023.422	778.628
69.549	13.202	1022.980	777.612
70.563	13.202	1022.367	777.080
71.578	13.222	1021.605	776.525
72.593	13.249	1020.222	775.533
73.607	13.206	1019.282	774.547
74.622	13.216	1018.453	773.896
75.636	13.172	1017.208	772.676
76.651	13.225	1016.502	772.321
77.666	13.176	1015.778	771.473
78.680	13.217	1015.167	771.132
79.695	13.199	1014.743	770.658
80.709	13.217	1014.228	770.281
81.724	13.443	1012.879	770.240
82.739	13.323	1012.516	769.339
83.753	13.380	1011.410	768.696
84.768	13.374	1010.576	767.965
85.782	13.267	1010.191	767.109
86.797	13.458	1009.393	767.321
87.812	13.463	1008.746	766.780
88.826	13.315	1007.941	765.418
89.841	13.596	1006.394	765.475
90.855	13.367	1006.225	764.219
91.870	13.454	1005.375	763.906
92.884	13.446	1004.737	763.319
93.899	13.588	1003.639	763.070
94.914	13.429	1003.127	761.883
95.928	13.565	1002.631	762.063
96.943	13.444	1002.011	760.970
97.957	13.560	1000.813	760.524
98.972	13.552	999.808	759.655
99.987	13.578	998.935	759.045
101.001	13.570	998.991	758.984
102.016	13.414	998.207	757.606
103.030	13.428	997.307	756.923
104.045	13.500	996.220	756.360
105.060	13.532	995.456	755.859
106.074	13.507	994.045	754.604
107.089	13.484	993.363	753.914
108.103	13.383	992.573	752.792
109.118	13.270	991.750	751.586
110.133	13.395	990.833	751.393
111.147	13.457	989.857	750.865
112.162	13.317	989.241	749.699
113.176	13.352	988.496	749.228
114.191	13.411	987.623	748.766
115.206	13.344	986.805	747.777
116.220	13.502	985.690	747.576
117.235	13.361	985.245	746.540
118.249	13.323	984.537	745.766
119.264	13.360	983.410	745.010
120.279	13.379	982.194	744.108
121.293	13.431	981.300	743.598
122.308	13.410	980.791	743.056
123.322	13.408	979.694	742.149
124.337	13.463	978.654	741.539
125.352	13.404	977.636	740.438
126.366	13.475	976.523	739.847
127.381	13.396	975.799	738.882
128.395	13.378	974.676	737.887
129.410	13.416	973.432	737.047
130.424	13.357	972.918	736.330
131.439	13.513	971.916	736.202
132.454	13.438	971.101	735.187
133.468	13.436	970.503	734.660
134.483	13.562	969.690	734.538
135.497	13.529	969.069	733.857
136.512	13.475	967.916	732.680
137.527	13.378	967.650	731.982
138.541	13.535	966.660	731.863
139.556	13.550	965.907	731.295
140.570	13.551	964.993	730.544
141.585	13.435	964.527	729.615
142.600	13.642	963.732	729.858
143.614	13.606	962.717	728.868
144.629	13.538	962.482	728.326
145.643	13.589	961.185	727.505
146.658	13.594	960.559	726.989
147.673	13.543	959.708	726.058
148.687	13.642	958.840	725.769
149.702	13.584	957.983	724.801
150.716	13.458	957.674	723.955
151.731	13.522	956.488	723.271
152.746	13.521	955.485	722.446
153.760	13.499	955.038	721.949
154.775	13.477	954.272	721.210
155.789	13.650	953.375	721.219
156.804	13.690	952.852	720.933
157.819	13.598	951.960	719.797
158.833	13.731	951.115	719.669
159.848	13.741	950.357	719.078
160.862	13.609	949.876	718.076
161.877	13.778	949.292	718.307
162.892	13.722	948.449	717.362
163.906	13.523	947.490	715.710
164.921	13.608	946.656	715.387
165.935	13.559	945.622	714.331
166.950	13.691	944.468	713.963
167.964	13.620	943.499	712.862
168.979	13.680	942.732	712.480
169.994	13.649	941.696	711.498
171.008	13.675	941.238	711.201
172.023	13.769	940.055	710.647
173.037	13.815	939.514	710.371
174.052	13.821	938.245	709.376
175.067	13.689	938.287	708.780
176.081	13.766	936.995	708.070
177.096	13.686	936.561	707.340
178.110	13.811	935.731	707.183
179.125	13.710	934.864	706.032
180.140	13.844	934.149	705.999
181.154	13.671	933.674	704.843
182.169	13.724	933.343	704.757
183.183	13.807	932.485	704.399
184.198	13.820	931.655	703.765
185.213	13.826	931.057	703.275
186.227	13.896	930.516	703.104
187.242	14.038	929.772	703.081
188.256	13.944	928.897	701.958
189.271	13.899	928.267	701.231
190.286	13.888	927.674	700.674
191.300	14.115	926.160	700.424
192.315	13.808	926.181	699.085
193.329	13.828	925.587	698.657
194.344	13.917	924.620	698.240
195.359	13.886	924.126	697.677
196.373	13.924	923.845	697.559
197.388	13.918	923.294	697.059
198.402	14.079	922.640	697.178
199.417	14.066	921.854	696.468
200.432	14.123	921.652	696.494
201.446	14.212	921.228	696.485
202.461	14.067	920.824	695.511
203.475	14.196	920.207	695.522
204.490	14.228	919.387	694.973
205.504	14.240	918.713	694.454
206.519	14.158	918.075	693.565
207.534	14.139	917.244	692.800
208.548	14.201	916.064	692.104
209.563	14.142	915.483	691.359
210.577	14.097	914.991	690.739
211.592	14.165	914.318	690.450
212.607	14.203	913.797	690.156
213.621	14.317	913.380	690.252
214.636	14.360	912.596	689.776
215.650	14.267	912.026	688.900
216.665	14.260	911.222	688.201
217.680	14.382	910.687	688.241
218.694	14.352	910.209	687.697
219.709	14.451	909.709	687.666
220.723	14.473	908.729	686.955
221.738	14.453	908.242	686.442
222.753	14.453	907.137	685.549
223.767	14.303	906.778	684.599
224.782	14.440	905.958	684.483
225.796	14.604	904.988	684.359
226.811	14.529	904.777	683.832
227.826	14.492	903.699	682.808
228.840	14.384	903.691	682.298
229.855	14.342	902.733	681.341
230.869	14.321	902.173	680.772
231.884	14.492	901.560	680.950
232.899	14.549	900.561	680.368
233.913	14.485	899.951	679.586
234.928	14.423	899.444	678.891
235.942	14.562	898.473	678.663
236.957	14.490	897.861	677.848
237.972	14.561	897.015	677.435
238.986	14.437	896.947	676.823
240.001	14.579	895.894	676.544
241.015	14.609	895.450	676.270
242.030	14.612	894.623	675.597
243.045	14.579	894.102	675.012
244.059	14.760	893.213	675.012
245.074	14.595	892.950	674.086
246.088	14.896	891.699	674.297
247.103	14.767	891.742	673.747
248.117	14.729	891.294	673.196
249.132	14.597	890.858	672.278
250.147	14.751	889.987	672.178
251.161	14.842	889.258	671.937
252.176	14.864	888.512	671.400
253.190	14.934	887.791	671.077
254.205	15.035	887.413	671.138
255.220	15.074	886.824	670.790
256.234	14.997	885.970	669.774
257.249	15.109	885.014	669.442
258.263	15.132	885.092	669.534
259.278	15.117	884.140	668.694
260.293	15.094	883.838	668.315
261.307	15.147	882.921	667.772
262.322	15.171	882.511	667.498
263.336	15.173	881.953	667.028
264.351	15.223	881.273	666.653
265.366	15.205	880.433	665.885
266.380	15.209	879.677	665.270
267.395	15.132	879.450	664.734
268.409	15.223	878.416	664.254
269.424	15.242	877.732	663.756
270.439	15.213	876.783	662.864
271.453	15.280	876.045	662.512
272.468	15.247	875.331	661.781
273.482	15.271	874.839	661.445
274.497	15.262	874.372	660.999
275.512	15.242	873.468	660.179
276.526	15.372	872.853	660.168
277.541	15.278	872.421	659.413
278.555	15.321	872.028	659.227
279.570	15.392	871.162	658.792
280.585	15.405	870.752	658.477
281.599	15.440	870.199	658.137
282.614	15.399	869.854	657.657
283.628	15.439	868.708	656.886
284.643	15.399	868.687	656.659
285.657	15.454	868.260	656.490
286.672	15.500	867.426	655.984
287.687	15.401	866.899	655.139
288.701	15.519	866.348	655.125
289.716	15.555	865.944	654.903
290.730	15.545	865.331	654.340
291.745	15.468	864.807	653.586
292.760	15.559	863.683	653.032
293.774	15.566	863.060	652.534
294.789	15.548	862.835	652.233
295.803	15.621	862.110	651.912
296.818	15.634	861.552	651.483
297.833	15.537	860.910	650.564
298.847	15.754	859.855	650.549
299.862	15.684	859.421	649.892
300.876	15.655	859.072	649.458
301.891	15.637	858.141	648.628
302.906	15.704	857.383	648.256
303.920	15.640	856.769	647.487
304.935	15.760	856.310	647.547
305.949	15.850	855.405	647.150
306.964	15.881	855.014	646.917
307.979	15.901	854.175	646.301
308.993	15.778	854.258	645.832
310.008	15.851	853.571	645.536
311.022	15.995	852.616	645.309
312.037	15.906	852.240	644.627
313.052	15.851	851.810	644.037
314.066	15.754	851.307	643.228
315.081	15.804	850.507	642.756
316.095	15.809	850.323	642.582
317.110	15.972	849.514	642.532
318.125	15.792	849.616	641.868
319.139	15.804	848.807	641.246
320.154	15.893	847.805	640.769
321.168	15.902	847.435	640.468
322.183	15.913	846.859	640.018
323.197	15.870	846.578	639.585
324.212	15.983	845.643	639.249
325.227	16.034	845.333	639.153
326.241	15.913	844.879	638.295
327.256	16.169	843.830	638.414
328.270	15.954	843.339	637.174
329.285	16.158	842.919	637.572
330.300	15.894	842.632	636.299
331.314	16.015	842.048	636.259
332.329	16.101	841.029	635.757
333.343	16.122	840.835	635.635
334.358	16.064	840.611	635.188
335.373	16.076	840.007	634.723
336.387	16.239	838.916	634.455
337.402	16.116	838.771	633.826
338.416	16.116	837.936	633.138
339.431	16.294	837.185	633.183
340.446	16.304	836.658	632.765
341.460	16.383	836.304	632.739
342.475	16.299	835.955	632.103
343.489	16.448	835.036	631.910
344.504	16.402	834.381	631.185
345.519	16.336	834.024	630.613
346.533	16.367	833.523	630.295
347.548	16.347	833.213	629.931
348.562	16.458	832.599	629.826
349.577	16.368	831.909	628.911
350.592	16.493	831.224	628.803
351.606	16.388	830.838	628.065
352.621	16.372	830.528	627.716
353.635	16.354	830.069	627.247
354.650	16.535	829.408	627.365
355.665	16.509	829.213	627.064
356.679	16.532	828.629	626.653
357.694	16.611	828.263	626.613
358.708	16.521	828.004	626.029
359.723	16.626	826.843	625.483
360.738	16.606	826.616	625.182
361.752	16.548	825.989	624.440
362.767	16.525	825.851	624.195
363.781	16.680	825.349	624.330
364.796	16.654	824.657	623.655
365.810	16.576	824.685	623.335
366.825	16.733	824.134	623.440
367.840	16.763	823.765	623.218
368.854	16.650	823.724	622.717
369.869	16.814	822.552	622.377
370.883	16.844	821.989	622.004
371.898	16.786	821.709	621.525
372.913	16.768	821.403	621.174
373.927	16.811	820.306	620.448
374.942	16.855	819.855	620.211
375.956	16.903	819.170	619.814
376.971	16.928	818.554	619.383
377.986	16.930	818.216	619.079
379.000	17.014	817.448	618.750
380.015	17.035	817.088	618.500
381.029	17.003	816.714	618.047
382.044	17.150	816.297	618.211
383.059	17.059	815.159	616.963
384.073	17.019	814.931	616.592
385.088	16.910	814.747	616.003
386.102	17.017	814.046	615.806
387.117	16.940	813.546	615.095
388.132	17.041	812.968	614.968
389.146	16.999	812.524	614.428
390.161	17.012	812.558	614.443
391.175	17.021	811.896	613.923
392.190	17.174	811.623	614.216
393.205	17.110	810.678	613.212
394.219	17.089	810.506	612.952
395.234	17.005	809.870	612.116
396.248	17.090	809.253	611.901
397.263	17.062	808.781	611.390
398.278	16.918	808.679	610.740
399.292	17.067	808.236	610.888
400.307	17.035	807.583	610.224
401.321	17.059	807.526	610.213
402.336	17.115	807.086	610.028
403.350	17.132	806.498	609.589
404.365	17.299	806.127	609.855
405.380	17.306	805.140	609.080
406.394	17.400	804.843	609.137
407.409	17.339	804.551	608.645
408.423	17.345	804.052	608.234
409.438	17.420	803.537	608.058
410.453	17.383	803.387	607.759
411.467	17.317	802.879	607.085
412.482	17.448	802.165	606.959
413.496	17.515	801.629	606.738
414.511	17.540	801.482	606.665
415.526	17.507	801.246	606.314
416.540	17.524	800.832	606.008
417.555	17.548	800.356	605.680
418.569	17.425	800.017	604.930
419.584	17.532	799.090	604.556
420.599	17.519	798.764	604.209
421.613	107.730	1289.381	1461.216
422.628	92.638	1360.832	1461.351
