DTS Sentinel unit serial number:	SN413079Multiplexer serial number:	ORYXHardware model number:	OX4-SRSoftware version number:	ORYX F/W v4.00 Oryx Data Collector v3.7.2.0data status	okinstallation	princeton_trtdifferential loss correction	single-endedforward channel	channel 3reverse channel	N/Adate	2019/09/19time	09:00:35forward acquisition time	60.00reverse acquisition time	0.00gamma	496.2192k internal	0.2346k external	0.2346temperature offset calibration	0.9971default loss term (dB/km)	0.3790temperature slope calibration	1.0000multiplexer offset coefficient	1.0000multiplexer slope coefficient	1.0000fibre end	0.00T internal ref (°C)	21.50T ext. ref 1 (°C)	0.59T ext. ref 2 (°C)	17.93length (m)	temperature (°C)	Stokes	anti-Stokes-747.200	-64.794	0.197	0.080
-746.185	-89.236	0.311	-0.092
-745.171	-200.000	-0.000	0.366
-744.156	11.588	0.255	0.195
-743.142	-53.259	-0.228	-0.104
-742.127	-40.354	-0.302	0.157
-741.112	-100.180	0.166	0.041
-740.098	-99.001	0.086	0.022
-739.083	800.000	0.059	-0.198
-738.069	74.581	-0.060	0.063
-737.054	-7.144	-0.214	0.145
-736.039	-200.000	0.018	-0.088
-735.025	-200.000	0.002	0.359
-734.010	218.342	-0.134	-0.214
-732.996	-200.000	0.010	0.048
-731.981	123.568	0.148	-0.185
-730.966	94.965	0.151	-0.172
-729.952	-8.217	-0.306	0.206
-728.937	800.000	0.050	-0.148
-727.923	108.658	-0.137	-0.164
-726.908	44.273	0.076	0.070
-725.894	-200.000	-0.007	-0.157
-724.879	474.323	0.144	0.324
-723.864	800.000	0.039	0.156
-722.850	13.916	-0.147	-0.114
-721.835	800.000	-0.072	-0.243
-720.821	-200.000	0.005	-0.336
-719.806	152.036	-0.230	-0.314
-718.791	517.471	0.060	0.140
-717.777	-49.215	-0.198	0.094
-716.762	-58.147	-0.361	-0.157
-715.748	36.610	0.207	-0.182
-714.733	-163.996	-0.375	-0.017
-713.718	-39.724	0.230	-0.120
-712.704	54.802	-0.062	-0.060
-711.689	800.000	0.040	0.169
-710.675	-200.000	0.000	0.088
-709.660	-88.039	0.237	-0.071
-708.645	-83.523	-0.200	0.064
-707.631	-200.000	0.039	-0.197
-706.616	580.631	0.133	-0.326
-705.602	-133.061	-0.135	-0.017
-704.587	-58.772	-0.510	-0.221
-703.572	-4.195	-0.338	-0.233
-702.558	-95.305	0.095	-0.025
-701.543	-46.803	-0.354	-0.173
-700.529	-30.363	-0.132	-0.075
-699.514	-83.402	-0.234	-0.075
-698.499	21.203	0.277	-0.224
-697.485	214.892	-0.041	0.064
-696.470	-36.321	-0.426	-0.229
-695.456	-6.652	-0.410	0.279
-694.441	-22.679	-0.517	-0.312
-693.426	355.138	0.071	-0.142
-692.412	501.574	-0.025	-0.057
-691.397	101.348	-0.232	0.270
-690.383	23.797	0.098	-0.081
-689.368	-115.550	0.389	-0.073
-688.354	504.860	0.124	0.285
-687.339	407.331	0.072	-0.152
-686.324	345.495	0.111	-0.218
-685.310	-200.000	0.015	-0.126
-684.295	52.370	-0.201	-0.191
-683.281	32.740	-0.315	-0.272
-682.266	-6.838	-0.062	0.042
-681.251	41.512	0.143	-0.129
-680.237	-98.672	-0.472	0.120
-679.222	800.000	-0.006	-0.027
-678.208	-146.118	-0.128	0.011
-677.193	-166.105	-0.048	0.002
-676.178	-56.026	-0.466	-0.207
-675.164	-200.000	0.080	-0.451
-674.149	-3.029	-0.139	0.097
-673.135	-31.373	0.361	-0.202
-672.120	-105.125	-0.373	0.085
-671.105	-200.000	0.004	-0.071
-670.091	-120.166	-0.358	-0.061
-669.076	800.000	0.015	0.043
-668.062	127.646	-0.073	-0.092
-667.047	-46.115	0.223	-0.110
-666.032	800.000	-0.094	-0.273
-665.018	-191.182	0.047	-0.000
-664.003	149.782	-0.109	0.147
-662.989	-200.000	-0.006	-0.187
-661.974	-155.698	-0.171	-0.011
-660.959	-128.239	-0.169	0.024
-659.945	66.696	-0.168	-0.170
-658.930	118.219	-0.031	-0.038
-657.916	38.177	-0.204	0.181
-656.901	-65.633	-0.111	0.044
-655.886	-107.929	0.096	-0.021
-654.872	741.102	0.034	0.090
-653.857	-91.972	-0.190	0.054
-652.843	800.000	-0.099	0.343
-651.828	-33.293	-0.035	-0.019
-650.814	338.035	0.099	-0.192
-649.799	0.276	0.127	0.090
-648.784	-53.475	0.403	-0.184
-647.770	35.650	-0.161	-0.141
-646.755	105.760	-0.147	-0.173
-645.741	800.000	0.136	0.426
-644.726	-10.968	0.193	-0.127
-643.711	-39.434	-0.179	0.094
-642.697	800.000	-0.041	0.170
-641.682	440.692	-0.159	-0.346
-640.668	63.735	0.303	-0.303
-639.653	-144.056	-0.277	0.026
-638.638	246.843	0.025	-0.042
-637.624	-64.870	0.135	-0.055
-636.609	552.111	0.101	-0.242
-635.595	419.957	-0.155	-0.331
-634.580	800.000	0.098	0.350
-633.565	-8.135	0.188	0.126
-632.551	-200.000	-0.081	-0.375
-631.536	483.744	-0.063	-0.144
-630.522	-65.495	-0.009	-0.003
-629.507	323.236	0.143	-0.270
-628.492	2.043	-0.113	-0.081
-627.478	-200.000	-0.042	0.188
-626.463	-129.686	-0.144	-0.020
-625.449	-200.000	-0.022	-0.171
-624.434	23.801	-0.100	-0.082
-623.419	-200.000	0.009	-0.166
-622.405	-155.380	-0.143	-0.009
-621.390	-200.000	0.019	0.215
-620.376	-13.408	-0.398	0.257
-619.361	800.000	-0.035	0.128
-618.346	519.207	-0.110	-0.257
-617.332	-105.721	0.090	-0.020
-616.317	88.199	-0.295	0.325
-615.303	-2.543	0.159	0.111
-614.288	88.138	0.046	0.050
-613.273	110.183	-0.082	0.097
-612.259	128.588	0.163	-0.206
-611.244	220.972	0.313	0.500
-610.230	-200.000	0.011	-0.235
-609.215	-1.539	0.324	0.227
-608.201	-200.000	-0.050	0.250
-607.186	-57.756	0.179	0.078
-606.171	-9.605	-0.002	0.001
-605.157	155.446	-0.366	-0.502
-604.142	73.220	0.104	0.108
-603.128	-107.256	0.187	0.041
-602.113	-156.167	-0.242	-0.015
-601.098	-55.154	-0.083	-0.037
-600.084	-200.000	-0.055	0.303
-599.069	-101.130	-0.238	0.058
-598.055	284.246	-0.081	0.145
-597.040	271.618	-0.103	-0.180
-596.025	-181.363	0.078	-0.002
-595.011	-169.165	-0.155	-0.006
-593.996	-68.250	-0.271	0.105
-592.982	-23.119	0.372	-0.223
-591.967	99.923	-0.023	-0.026
-590.952	-200.000	0.015	0.295
-589.938	-200.000	0.028	-0.153
-588.923	284.599	-0.093	0.167
-587.909	61.024	-0.086	-0.085
-586.894	-125.666	-0.307	-0.046
-585.879	269.076	0.049	-0.086
-584.865	42.306	-0.098	-0.089
-583.850	551.864	0.056	0.134
-582.836	-43.782	-0.096	0.048
-581.821	190.567	0.264	-0.394
-580.806	-122.516	0.151	-0.024
-579.792	-200.000	-0.022	-0.370
-578.777	-88.130	0.045	-0.013
-577.763	-67.402	0.280	-0.109
-576.748	-103.540	-0.265	0.062
-575.733	-200.000	-0.040	0.287
-574.719	-81.712	-0.042	-0.014
-573.704	664.229	-0.076	0.195
-572.690	201.178	0.130	0.199
-571.675	683.085	0.104	0.269
-570.661	-9.127	-0.170	-0.113
-569.646	355.973	0.142	0.281
-568.631	-74.741	0.395	0.141
-567.617	-93.635	-0.335	0.092
-566.602	-200.000	0.070	-0.334
-565.588	800.000	-0.039	0.161
-564.573	-149.353	-0.082	-0.006
-563.558	334.037	0.111	0.213
-562.544	-63.227	0.255	-0.104
-561.529	-44.906	0.238	-0.118
-560.515	-46.768	-0.041	-0.020
-559.500	800.000	0.025	-0.080
-558.485	281.775	-0.178	-0.317
-557.471	24.793	-0.281	-0.231
-556.456	-63.863	0.268	0.109
-555.442	800.000	0.026	-0.090
-554.427	268.779	0.042	0.073
-553.412	-143.499	-0.612	-0.058
-552.398	-104.257	-0.193	0.044
-551.383	-109.406	-0.152	-0.032
-550.369	241.041	0.058	-0.096
-549.354	-120.172	-0.245	-0.042
-548.339	77.083	-0.164	-0.173
-547.325	-88.151	-0.312	0.093
-546.310	-42.035	0.320	0.163
-545.296	-200.000	0.011	-0.177
-544.281	34.579	0.183	-0.159
-543.266	-133.541	-0.195	0.024
-542.252	-105.521	0.132	0.030
-541.237	-166.775	0.180	0.007
-540.223	-170.425	0.126	0.004
-539.208	800.000	-0.055	-0.179
-538.193	-200.000	0.004	-0.309
-537.179	-88.428	0.110	0.032
-536.164	-168.174	0.288	0.011
-535.150	329.499	-0.092	0.176
-534.135	458.243	-0.086	-0.189
-533.121	441.088	-0.167	0.363
-532.106	75.058	0.067	0.070
-531.091	288.695	0.103	-0.185
-530.077	154.225	0.178	0.243
-529.062	-161.083	0.242	0.013
-528.048	75.379	0.056	0.058
-527.033	-107.886	0.360	-0.078
-526.018	-33.243	-0.099	0.054
-525.004	-46.624	0.206	-0.100
-523.989	-200.000	-0.062	-0.305
-522.975	-200.000	-0.021	0.311
-521.960	15.170	0.123	-0.095
-520.945	-44.510	0.057	0.028
-519.931	-38.455	0.278	0.146
-518.916	128.057	-0.434	-0.547
-517.902	-200.000	-0.015	0.158
-516.887	-171.097	0.165	-0.006
-515.872	-125.251	-0.327	-0.050
-514.858	96.129	0.119	-0.135
-513.843	-200.000	-0.021	-0.103
-512.829	109.271	-0.140	-0.166
-511.814	179.853	-0.124	0.181
-510.799	-200.000	-0.004	0.059
-509.785	-181.181	-0.343	0.007
-508.770	800.000	-0.036	-0.150
-507.756	-100.438	0.124	-0.030
-506.741	17.895	-0.216	0.170
-505.726	-2.540	0.316	0.219
-504.712	800.000	-0.023	-0.067
-503.697	462.099	-0.060	0.133
-502.683	-6.441	-0.086	0.058
-501.668	-200.000	-0.080	-0.380
-500.653	-81.840	0.222	0.072
-499.639	514.648	-0.062	-0.143
-498.624	-200.000	-0.018	0.100
-497.610	228.646	0.163	-0.264
-496.595	-56.292	0.388	0.171
-495.581	186.407	0.090	-0.133
-494.566	-79.149	-0.198	0.066
-493.551	147.179	0.158	0.210
-492.537	49.727	0.179	0.167
-491.522	31.337	-0.210	0.179
-490.508	-91.885	0.278	-0.078
-489.493	-200.000	-0.044	0.234
-488.478	609.970	0.078	0.193
-487.464	-6.791	-0.216	0.145
-486.449	800.000	-0.116	-0.434
-485.435	-42.606	-0.247	-0.125
-484.420	-200.000	0.002	-0.119
-483.405	-200.000	0.004	0.142
-482.391	-43.387	-0.117	-0.058
-481.376	-30.310	-0.142	0.080
-480.362	13.611	-0.351	-0.270
-479.347	238.697	-0.145	-0.239
-478.332	-122.756	-0.180	-0.029
-477.318	9.272	0.158	-0.118
-476.303	10.739	-0.147	0.111
-475.289	-70.623	0.102	-0.038
-474.274	137.775	0.327	0.423
-473.259	-47.006	-0.270	0.130
-472.245	800.000	-0.098	-0.371
-471.230	533.832	-0.031	-0.072
-470.216	-92.437	-0.065	0.018
-469.201	-200.000	-0.001	0.051
-468.186	-45.785	0.317	-0.155
-467.172	77.627	-0.181	0.191
-466.157	-200.000	-0.044	0.389
-465.143	-88.173	-0.257	0.076
-464.128	800.000	0.083	0.260
-463.113	-200.000	0.087	0.390
-462.099	9.792	-0.276	-0.207
-461.084	148.491	0.237	-0.316
-460.070	281.351	-0.090	0.160
-459.055	800.000	-0.040	0.128
-458.040	253.934	0.020	0.033
-457.026	-107.685	0.179	-0.039
-456.011	-120.659	0.066	0.011
-454.997	-200.000	-0.008	-0.090
-453.982	751.872	-0.066	-0.175
-452.968	800.000	-0.045	0.123
-451.953	-52.525	0.221	0.101
-450.938	122.006	-0.095	-0.117
-449.924	110.990	-0.118	-0.140
-448.909	-200.000	-0.007	-0.176
-447.895	-200.000	0.024	0.277
-446.880	800.000	-0.104	0.294
-445.865	-200.000	-0.054	0.538
-444.851	800.000	-0.070	-0.204
-443.836	-200.000	0.030	-0.139
-442.822	800.000	-0.072	-0.276
-441.807	12.304	-0.222	-0.169
-440.792	-72.669	-0.171	0.062
-439.778	800.000	0.103	-0.384
-438.763	-200.000	-0.007	-0.259
-437.749	-32.071	-0.198	0.109
-436.734	1.583	-0.189	0.134
-435.719	-75.317	-0.085	-0.030
-434.705	800.000	0.123	0.391
-433.690	266.638	-0.235	-0.406
-432.676	195.468	0.148	-0.222
-431.661	-85.486	0.323	0.099
-430.646	213.813	-0.139	0.217
-429.632	-23.358	-0.373	0.221
-428.617	39.076	-0.207	-0.183
-427.603	800.000	-0.145	-0.405
-426.588	-68.452	0.125	0.048
-425.573	-94.997	0.153	0.041
-424.559	-200.000	-0.017	-0.078
-423.544	-106.610	0.243	-0.053
-422.530	800.000	0.134	0.372
-421.515	63.425	-0.198	-0.196
-420.500	-140.865	-0.156	0.016
-419.486	-8.580	0.272	0.180
-418.471	-136.952	0.127	0.014
-417.457	-106.500	0.098	0.022
-416.442	63.299	0.110	0.109
-415.428	-200.000	-0.026	-0.125
-414.413	60.100	-0.196	-0.191
-413.398	132.937	0.242	0.308
-412.384	-200.000	-0.003	-0.262
-411.369	67.375	-0.096	0.097
-410.355	-136.472	-0.125	0.014
-409.340	800.000	-0.114	-0.361
-408.325	-114.649	-0.012	-0.002
-407.311	39.814	-0.220	-0.195
-406.296	800.000	0.119	-0.403
-405.282	-164.733	-0.273	0.012
-404.267	-31.183	0.267	-0.148
-403.252	24.318	0.038	0.031
-402.238	800.000	0.074	-0.222
-401.223	-133.707	0.261	-0.032
-400.209	-200.000	-0.023	-0.159
-399.194	-153.837	-0.031	-0.002
-398.179	564.525	0.157	0.375
-397.165	282.737	-0.090	-0.160
-396.150	-12.454	0.284	-0.183
-395.136	460.741	0.113	-0.248
-394.121	-200.000	-0.014	0.135
-393.106	800.000	0.061	0.222
-392.092	-200.000	-0.029	0.143
-391.077	-200.000	0.054	0.359
-390.063	-200.000	0.000	-0.049
-389.048	70.062	0.146	-0.149
-388.033	11.327	-0.312	0.236
-387.019	297.305	0.114	-0.207
-386.004	7.767	0.148	-0.109
-384.990	50.355	0.113	0.105
-383.975	200.878	0.124	0.188
-382.960	800.000	0.111	0.346
-381.946	-3.745	-0.214	-0.147
-380.931	-200.000	0.008	-0.187
-379.917	-200.000	0.029	-0.290
-378.902	203.810	0.281	0.429
-377.888	-9.922	0.200	0.131
-376.873	-125.148	0.194	0.029
-375.858	-12.450	-0.075	-0.049
-374.844	-200.000	0.043	0.380
-373.829	734.114	0.022	0.058
-372.815	572.805	-0.048	0.115
-371.800	-78.347	-0.126	0.043
-370.785	800.000	-0.103	0.305
-369.771	800.000	-0.049	-0.174
-368.756	-108.812	-0.167	0.035
-367.742	72.711	-0.246	-0.253
-366.727	384.950	-0.088	0.180
-365.712	-200.000	-0.034	-0.366
-364.698	-178.447	0.407	0.009
-363.683	-82.088	0.132	0.042
-362.669	-200.000	-0.027	0.143
-361.654	800.000	0.036	-0.122
-360.639	-150.036	0.107	-0.008
-359.625	52.224	-0.344	-0.323
-358.610	-50.821	0.351	-0.162
-357.596	-56.660	0.108	-0.047
-356.581	-171.998	-0.189	0.006
-355.566	-200.000	-0.001	-0.282
-354.552	-106.622	-0.172	0.038
-353.537	-200.000	0.010	0.274
-352.523	-200.000	-0.039	0.313
-351.508	-200.000	0.025	0.419
-350.493	699.693	0.033	0.086
-349.479	12.536	0.068	0.052
-348.464	165.091	-0.133	-0.185
-347.450	106.599	-0.210	0.245
-346.435	99.832	0.215	0.245
-345.420	157.932	0.095	-0.130
-344.406	-106.118	-0.102	-0.022
-343.391	-133.171	-0.045	0.006
-342.377	-200.000	-0.012	-0.227
-341.362	23.744	0.124	0.101
-340.348	153.231	0.069	-0.092
-339.333	-77.614	-0.039	0.013
-338.318	800.000	0.067	0.181
-337.304	-92.380	-0.218	0.060
-336.289	344.975	0.153	-0.296
-335.275	-123.206	0.195	0.031
-334.260	158.455	-0.167	0.228
-333.245	800.000	0.055	-0.207
-332.231	-55.331	0.230	0.101
-331.216	280.176	0.206	0.361
-330.202	66.676	0.169	0.169
-329.187	340.233	0.138	0.265
-328.172	-200.000	-0.051	-0.373
-327.158	800.000	-0.045	-0.129
-326.143	-200.000	-0.049	-0.317
-325.129	-200.000	0.010	0.360
-324.114	800.000	-0.038	0.124
-323.099	26.000	-0.315	0.258
-322.085	-200.000	-0.008	0.176
-321.070	-127.832	-0.195	-0.028
-320.056	-119.016	-0.303	-0.052
-319.041	7.973	-0.155	-0.114
-318.026	-89.444	0.135	-0.039
-317.012	-79.061	-0.397	-0.133
-315.997	-25.999	0.089	0.052
-314.983	200.018	-0.118	0.178
-313.968	172.547	-0.110	-0.155
-312.953	95.228	-0.052	-0.058
-311.939	-158.518	0.198	0.011
-310.924	156.569	0.151	-0.205
-309.910	187.958	-0.110	-0.161
-308.895	800.000	0.011	-0.037
-307.880	-68.375	-0.455	-0.174
-306.866	-74.929	-0.162	0.057
-305.851	-80.156	-0.406	0.134
-304.837	-200.000	0.018	-0.173
-303.822	280.683	-0.142	0.250
-302.807	11.720	0.262	0.198
-301.793	1.307	-0.239	-0.169
-300.778	800.000	0.080	-0.256
-299.764	-200.000	-0.056	-0.278
-298.749	-200.000	0.018	-0.093
-297.735	512.672	-0.057	-0.130
-296.720	130.959	0.066	-0.083
-295.705	-200.000	0.003	-0.227
-294.691	72.687	-0.176	0.181
-293.676	-200.000	-0.034	-0.169
-292.662	-115.431	0.243	0.045
-291.647	-200.000	0.038	-0.252
-290.632	-18.576	0.205	-0.126
-289.618	2.550	-0.058	0.042
-288.603	141.069	-0.278	0.361
-287.589	-61.338	-0.109	0.045
-286.574	-133.126	-0.243	-0.030
-285.559	-200.000	0.017	0.133
-284.545	-22.750	-0.265	-0.157
-283.530	112.424	-0.236	-0.281
-282.516	800.000	0.115	-0.380
-281.501	-200.000	0.003	-0.482
-280.486	15.773	-0.162	-0.125
-279.472	-12.340	0.162	0.104
-278.457	609.411	-0.042	0.103
-277.443	-200.000	0.027	0.185
-276.428	-97.143	0.260	0.067
-275.413	16.905	0.039	0.030
-274.399	307.680	-0.104	0.190
-273.384	484.622	-0.109	0.242
-272.370	-140.049	0.318	0.033
-271.355	-200.000	0.036	0.255
-270.340	189.289	-0.114	-0.168
-269.326	-200.000	0.064	0.336
-268.311	89.633	-0.118	-0.129
-267.297	713.324	-0.122	0.317
-266.282	-91.084	0.208	0.059
-265.267	-200.000	-0.022	0.115
-264.253	-200.000	0.013	0.074
-263.238	-106.756	-0.145	-0.031
-262.224	800.000	-0.040	-0.125
-261.209	-200.000	0.075	-0.482
-260.195	35.642	-0.102	0.088
-259.180	-108.321	0.169	0.036
-258.165	-174.091	0.349	-0.010
-257.151	-95.662	0.352	0.092
-256.136	-144.714	-0.177	-0.016
-255.122	186.605	-0.261	0.381
-254.107	243.295	0.121	-0.199
-253.092	125.701	0.168	-0.208
-252.078	50.026	-0.158	0.146
-251.063	-113.504	0.464	0.089
-250.049	-200.000	-0.048	0.256
-249.034	800.000	-0.071	0.227
-248.019	10.096	0.291	0.217
-247.005	165.891	0.084	-0.117
-245.990	-25.229	-0.156	0.091
-244.976	-98.820	0.234	0.058
-243.961	574.518	0.060	0.144
-242.946	781.885	0.072	-0.194
-241.932	776.120	0.073	-0.195
-240.917	800.000	0.154	-0.459
-239.903	621.097	0.058	-0.143
-238.888	-37.377	-0.130	0.068
-237.873	-74.057	-0.215	0.076
-236.859	-200.000	-0.027	0.272
-235.844	274.659	0.114	-0.197
-234.830	6.265	-0.035	0.025
-233.815	-149.126	0.494	-0.039
-232.800	-116.083	0.317	0.058
-231.786	406.186	-0.050	0.104
-230.771	122.015	-0.268	0.327
-229.757	-200.000	-0.011	0.131
-228.742	-103.877	0.079	0.018
-227.727	-200.000	-0.039	0.305
-226.713	122.869	0.088	-0.107
-225.698	800.000	-0.084	-0.339
-224.684	316.028	-0.091	-0.167
-223.669	-119.048	0.139	0.024
-222.655	144.844	0.257	-0.336
-221.640	-200.000	0.006	-0.255
-220.625	88.581	0.340	0.370
-219.611	-173.779	0.191	-0.006
-218.596	21.801	0.259	-0.207
-217.582	-65.250	-0.093	-0.037
-216.567	521.748	0.026	0.061
-215.552	99.077	0.052	0.059
-214.538	-28.232	0.330	0.187
-213.523	83.572	-0.107	0.114
-212.509	125.682	-0.134	-0.165
-211.494	800.000	0.026	0.072
-210.479	-39.420	-0.179	0.092
-209.465	127.731	-0.133	-0.165
-208.450	-111.279	-0.095	-0.019
-207.436	-45.447	0.218	0.106
-206.421	537.617	0.080	-0.187
-205.406	800.000	-0.075	-0.214
-204.392	-200.000	-0.026	0.117
-203.377	800.000	-0.061	0.232
-202.363	-161.590	0.118	0.006
-201.348	-17.899	0.342	0.210
-200.333	-178.956	-0.123	-0.003
-199.319	-200.000	0.005	-0.051
-198.304	-12.983	-0.350	0.223
-197.290	800.000	0.045	0.151
-196.275	252.475	0.121	-0.202
-195.260	-178.347	-0.185	0.004
-194.246	165.249	-0.060	0.083
-193.231	800.000	-0.012	-0.035
-192.217	-136.663	0.150	-0.017
-191.202	800.000	-0.085	0.252
-190.187	-200.000	-0.015	-0.127
-189.173	-189.437	-0.085	0.001
-188.158	-174.440	-0.104	0.003
-187.144	-122.097	0.303	0.049
-186.129	74.599	0.239	-0.246
-185.114	-200.000	0.042	-0.228
-184.100	-200.000	0.044	-0.231
-183.085	19.833	-0.220	0.174
-182.071	4.381	0.072	0.052
-181.056	-175.925	0.293	-0.008
-180.042	261.083	-0.115	0.194
-179.027	62.156	-0.280	0.273
-178.012	153.472	-0.100	0.134
-176.998	-21.341	-0.041	-0.025
-175.983	124.979	0.270	-0.332
-174.969	-200.000	0.004	-0.270
-173.954	620.481	-0.017	0.042
-172.939	-20.206	0.105	-0.063
-171.925	-138.301	0.191	0.021
-170.910	71.865	-0.149	-0.151
-169.896	91.139	0.063	0.069
-168.881	-52.310	-0.120	0.055
-167.866	-77.493	-0.237	-0.080
-166.852	243.754	-0.092	0.151
-165.837	28.959	0.136	-0.112
-164.823	-138.752	-0.276	0.029
-163.808	184.372	-0.146	0.211
-162.793	-43.650	0.364	-0.179
-161.779	-14.921	-0.337	0.211
-160.764	800.000	0.043	0.141
-159.750	-69.365	-0.151	-0.057
-158.735	-200.000	-0.014	-0.093
-157.720	431.914	-0.070	0.147
-156.706	-124.900	0.259	-0.039
-155.691	-20.250	0.270	-0.162
-154.677	402.660	0.101	0.208
-153.662	698.712	-0.134	0.344
-152.647	800.000	-0.073	0.303
-151.633	-114.862	0.160	-0.030
-150.618	-47.669	-0.141	0.067
-149.604	-9.409	-0.125	-0.081
-148.589	507.258	-0.051	-0.116
-147.574	-200.000	0.011	-0.092
-146.560	48.971	-0.068	0.063
-145.545	294.916	0.116	0.207
-144.531	-200.000	0.053	0.373
-143.516	-153.860	0.227	-0.015
-142.502	73.980	-0.295	-0.303
-141.487	-103.039	0.302	-0.070
-140.472	401.085	0.050	-0.103
-139.458	-151.540	-0.271	-0.020
-138.443	684.155	-0.085	-0.215
-137.429	323.911	0.077	0.143
-136.414	43.412	0.078	-0.070
-135.399	-139.692	0.353	0.037
-134.385	-29.186	-0.291	-0.163
-133.370	-4.771	0.174	-0.117
-132.356	800.000	0.076	-0.206
-131.341	-200.000	0.002	-0.085
-130.326	-98.157	0.364	-0.091
-129.312	-200.000	0.034	0.227
-128.297	25.346	0.082	0.066
-127.283	-71.970	0.163	0.059
-126.268	162.319	0.104	-0.142
-125.253	151.395	0.196	-0.261
-124.239	-38.759	0.290	-0.149
-123.224	800.000	0.154	0.418
-122.210	-65.166	0.178	0.070
-121.195	-200.000	-0.004	0.226
-120.180	-34.221	0.232	0.124
-119.166	800.000	-0.091	0.301
-118.151	101.742	0.185	-0.211
-117.137	-200.000	-0.044	-0.393
-116.122	2.441	-0.064	0.045
-115.107	-200.000	0.033	0.232
-114.093	201.280	-0.041	0.062
-113.078	-200.000	-0.023	-0.183
-112.064	-51.365	0.190	0.087
-111.049	-155.044	0.114	-0.007
-110.034	-135.800	-0.210	-0.024
-109.020	448.485	-0.104	0.224
-108.005	130.418	0.051	-0.064
-106.991	-166.857	0.524	0.021
-105.976	43.714	0.183	-0.164
-104.962	-60.483	-0.243	0.101
-103.947	800.000	-0.011	-0.043
-102.932	197.637	-0.149	-0.221
-101.918	-95.557	-0.200	-0.052
-100.903	-157.703	-0.122	0.007
-99.889	-97.721	-0.153	-0.038
-98.874	800.000	0.095	0.295
-97.859	-149.481	-0.055	0.004
-96.845	-131.569	0.178	-0.023
-95.830	88.403	0.225	0.244
-94.816	800.000	-0.046	0.185
-93.801	-112.460	0.281	-0.055
-92.786	-76.315	0.146	0.050
-91.772	53.839	0.274	0.257
-90.757	57.183	-0.241	-0.229
-89.743	236.405	0.092	-0.149
-88.728	-200.000	0.008	0.069
-87.713	17.871	0.122	0.094
-86.699	800.000	0.110	-0.296
-85.684	-200.000	0.015	0.388
-84.670	517.442	-0.025	0.056
-83.655	-158.390	-0.059	-0.003
-82.640	-57.376	-0.306	-0.131
-81.626	187.146	0.095	-0.138
-80.611	116.364	-0.182	-0.217
-79.597	78.143	-0.101	-0.105
-78.582	-200.000	0.007	0.161
-77.567	65.587	0.346	-0.341
-76.553	-197.091	0.196	-0.001
-75.538	623.054	-0.082	-0.201
-74.524	-27.456	-0.070	-0.040
-73.509	-86.943	-0.119	-0.035
-72.494	20.462	-0.221	-0.174
-71.480	73.066	-0.215	-0.218
-70.465	63.364	-0.063	-0.061
-69.451	87.553	0.143	-0.154
-68.436	-64.466	-0.254	0.100
-67.422	800.000	-0.070	0.190
-66.407	-139.372	0.069	-0.007
-65.392	-98.308	0.263	0.066
-64.378	-200.000	-0.006	-0.382
-63.363	-200.000	-0.016	-0.334
-62.349	-200.000	0.102	-0.454
-61.334	97.639	-1.243	-1.391
-60.319	213.336	0.514	0.791
-59.305	534.885	-0.516	-1.190
-58.290	285.873	0.715	1.256
-57.276	246.534	0.848	1.392
-56.261	-200.000	131.938	654.382
-55.246	341.636	1662.834	3163.396
-54.232	132.316	2819.740	3536.170
-53.217	88.741	2215.130	2397.221
-52.203	31.904	1723.928	1444.976
-51.188	24.492	1541.943	1241.077
-50.173	22.705	1519.028	1210.334
-49.159	46.803	1594.261	1441.268
-48.144	43.760	1605.633	1430.037
-47.130	24.643	1552.771	1250.652
-46.115	21.820	1536.372	1217.820
-45.100	21.599	1533.159	1213.691
-44.086	21.515	1531.281	1211.572
-43.071	21.505	1528.833	1209.522
-42.057	21.414	1527.514	1207.799
-41.042	21.384	1526.483	1206.728
-40.027	21.472	1524.611	1205.809
-39.013	21.381	1522.742	1203.657
-37.998	21.395	1521.675	1202.865
-36.984	21.513	1520.685	1202.846
-35.969	21.492	1519.354	1201.598
-34.954	21.496	1517.611	1200.201
-33.940	21.498	1516.228	1199.074
-32.925	21.470	1515.243	1198.055
-31.911	21.486	1513.977	1197.112
-30.896	21.492	1512.831	1196.204
-29.881	21.583	1511.085	1195.398
-28.867	21.499	1510.120	1194.008
-27.852	21.511	1508.336	1192.635
-26.838	21.516	1507.047	1191.599
-25.823	21.546	1505.885	1190.840
-24.809	21.549	1503.907	1189.248
-23.794	21.565	1502.343	1188.073
-22.779	21.549	1501.271	1187.074
-21.765	21.519	1500.642	1186.325
-20.750	21.608	1499.374	1185.878
-19.736	21.605	1497.898	1184.640
-18.721	21.548	1496.789	1183.330
-17.706	21.511	1496.335	1182.674
-16.692	21.416	1494.992	1180.929
-15.677	21.418	1493.996	1180.103
-14.663	21.565	1492.878	1180.168
-13.648	21.495	1492.601	1179.430
-12.633	21.574	1490.830	1178.517
-11.619	21.490	1490.753	1177.844
-10.604	21.441	1489.375	1176.377
-9.590	21.453	1488.981	1176.098
-8.575	21.458	1487.870	1175.206
-7.560	21.593	1486.732	1175.169
-6.546	21.565	1485.974	1174.336
-5.531	21.429	1485.175	1172.745
-4.517	21.496	1483.857	1172.109
-3.502	21.610	1482.682	1171.897
-2.487	21.529	1481.756	1170.578
-1.473	21.501	1480.812	1169.596
-0.458	21.502	1479.101	1168.204
0.556	20.395	1470.098	1158.840
1.571	17.806	1446.769	1123.322
2.586	15.030	1385.139	1057.855
3.600	13.627	1300.337	984.670
4.615	12.570	1255.975	944.929
5.629	11.106	1198.370	893.480
6.644	5.702	1116.589	804.740
7.659	1.290	1081.484	757.392
8.673	0.661	1076.151	750.465
9.688	0.586	1072.708	747.629
10.702	0.598	1071.384	746.699
11.717	0.525	1069.177	744.735
12.731	2.296	1069.860	753.881
13.746	8.110	1078.058	788.411
14.761	14.157	1085.554	823.852
15.775	16.834	1088.564	839.340
16.790	16.901	1087.361	838.674
17.804	15.828	1085.156	831.599
18.819	14.910	1083.435	825.674
19.834	14.579	1082.111	822.961
20.848	14.343	1081.092	820.950
21.863	14.110	1080.254	819.094
22.877	13.765	1079.880	817.039
23.892	13.583	1078.800	815.254
24.907	13.561	1077.668	814.215
25.921	13.521	1076.910	813.373
26.936	13.589	1076.003	812.954
27.950	13.543	1075.726	812.444
28.965	13.552	1075.306	812.102
29.980	13.576	1074.463	811.509
30.994	13.567	1073.475	810.647
32.009	13.749	1072.042	810.382
33.023	13.727	1071.471	809.770
34.038	13.704	1070.824	809.101
35.053	13.677	1070.160	808.396
36.067	13.716	1068.674	807.389
37.082	13.551	1068.362	806.278
38.096	13.575	1067.475	805.656
39.111	13.838	1066.387	806.040
40.126	13.776	1065.719	805.162
41.140	13.609	1064.681	803.497
42.155	13.587	1063.728	802.602
43.169	13.533	1062.594	801.415
44.184	13.619	1061.484	800.921
45.199	13.499	1060.694	799.673
46.213	13.603	1059.281	799.041
47.228	13.484	1058.583	797.870
48.242	13.542	1057.624	797.356
49.257	13.617	1056.767	797.002
50.271	13.665	1055.357	796.098
51.286	13.639	1054.290	795.097
52.301	13.645	1053.975	794.817
53.315	13.776	1053.011	794.648
54.330	13.571	1052.137	792.938
55.344	13.603	1051.072	792.217
56.359	13.606	1049.975	791.334
57.374	13.676	1049.249	791.049
58.388	13.654	1048.253	790.128
59.403	13.557	1047.767	789.228
60.417	13.496	1047.182	788.425
61.432	13.509	1046.703	788.056
62.447	13.498	1045.828	787.278
63.461	13.572	1044.739	786.739
64.476	13.446	1043.835	785.392
65.490	13.539	1042.459	784.728
66.505	13.454	1041.762	783.732
67.520	13.510	1041.372	783.631
68.534	13.541	1040.649	783.167
69.549	13.433	1040.036	782.124
70.563	13.527	1039.206	781.876
71.578	13.486	1038.330	780.952
72.593	13.459	1037.250	779.944
73.607	13.438	1036.415	779.148
74.622	13.313	1035.753	777.992
75.636	13.517	1034.548	777.978
76.651	13.450	1033.863	777.082
77.666	13.378	1033.113	776.111
78.680	13.484	1031.954	775.667
79.695	13.392	1032.215	775.365
80.709	13.467	1030.942	774.689
81.724	13.550	1030.054	774.343
82.739	13.687	1028.556	773.785
83.753	13.587	1028.541	773.239
84.768	13.675	1027.612	772.884
85.782	13.526	1027.478	772.021
86.797	13.613	1026.283	771.458
87.812	13.645	1025.227	770.745
88.826	13.685	1024.281	770.152
89.841	13.557	1023.779	769.112
90.855	13.592	1023.084	768.684
91.870	13.650	1022.301	768.299
92.884	13.631	1021.567	767.590
93.899	13.726	1020.674	767.293
94.914	13.704	1019.913	766.549
95.928	13.802	1018.898	766.171
96.943	13.832	1018.454	765.905
97.957	13.716	1017.358	764.481
98.972	13.739	1016.621	763.966
99.987	13.741	1016.235	763.618
101.001	13.787	1015.005	762.835
102.016	13.711	1014.471	762.017
103.030	13.725	1013.517	761.299
104.045	13.808	1012.053	760.514
105.060	13.617	1011.535	759.180
106.074	13.682	1010.577	758.689
107.089	13.647	1009.856	757.922
108.103	13.698	1008.761	757.265
109.118	13.543	1007.764	755.746
110.133	13.588	1007.151	755.424
111.147	13.657	1006.474	755.162
112.162	13.577	1005.363	753.897
113.176	13.645	1004.634	753.596
114.191	13.771	1003.272	753.080
115.206	13.791	1002.405	752.452
116.220	13.667	1002.024	751.536
117.235	13.754	1000.773	750.925
118.249	13.742	999.873	750.132
119.264	13.715	999.356	749.554
120.279	13.576	998.251	748.031
121.293	13.647	997.338	747.602
122.308	13.608	997.340	747.359
123.322	13.457	996.484	745.973
124.337	13.651	994.987	745.659
125.352	13.634	993.839	744.658
126.366	13.513	992.933	743.369
127.381	13.717	991.352	743.034
128.395	13.589	990.810	741.987
129.410	13.510	990.101	741.037
130.424	13.477	989.069	740.050
131.439	13.766	987.962	740.450
132.454	13.620	987.270	739.215
133.468	13.664	986.968	739.118
134.483	13.708	985.855	738.414
135.497	13.762	985.163	738.071
136.512	13.668	984.297	736.939
137.527	13.702	983.729	736.600
138.541	13.638	983.330	735.953
139.556	13.608	982.198	734.907
140.570	13.714	981.685	734.928
141.585	13.644	980.753	733.853
142.600	13.845	980.028	734.136
143.614	13.840	979.513	733.664
144.629	13.836	978.387	732.739
145.643	14.012	977.590	732.853
146.658	13.936	976.776	731.844
147.673	13.844	975.862	730.688
148.687	13.759	975.135	729.703
149.702	13.745	973.894	728.650
150.716	13.889	973.144	728.658
151.731	13.808	972.373	727.662
152.746	13.816	971.519	726.991
153.760	13.831	970.872	726.509
154.775	13.927	970.066	726.261
155.789	13.977	969.334	725.868
156.804	13.934	968.818	725.231
157.819	13.952	967.658	724.373
158.833	13.900	967.216	723.752
159.848	13.834	966.586	722.932
160.862	13.992	965.744	722.926
161.877	13.924	965.087	722.074
162.892	14.003	963.873	721.444
163.906	13.882	963.067	720.253
164.921	13.994	962.012	719.885
165.935	14.027	961.317	719.441
166.950	14.013	960.033	718.360
167.964	13.874	959.288	717.136
168.979	14.006	958.377	716.961
169.994	13.898	957.288	715.619
171.008	14.062	956.679	715.805
172.023	14.070	955.598	714.966
173.037	14.092	955.027	714.573
174.052	14.027	954.591	713.902
175.067	14.085	953.553	713.313
176.081	14.066	952.933	712.704
177.096	13.924	951.877	711.244
178.110	14.012	951.205	711.056
179.125	14.011	950.684	710.599
180.140	14.086	949.334	709.846
181.154	14.135	948.955	709.708
182.169	13.976	948.392	708.549
183.183	14.203	947.530	708.807
184.198	14.126	946.945	707.980
185.213	14.143	946.269	707.483
186.227	14.144	945.752	707.038
187.242	14.197	945.361	706.910
188.256	14.306	944.204	706.443
189.271	14.226	943.858	705.784
190.286	14.223	943.081	705.128
191.300	14.189	942.035	704.139
192.315	14.288	941.610	704.180
193.329	14.222	940.563	703.054
194.344	14.226	940.357	702.857
195.359	14.219	939.315	701.985
196.373	14.233	938.927	701.691
197.388	14.363	938.243	701.665
198.402	14.321	938.214	701.405
199.417	14.382	937.379	700.975
200.432	14.413	936.864	700.660
201.446	14.339	936.877	700.296
202.461	14.433	935.946	699.933
203.475	14.505	935.618	699.927
204.490	14.523	934.907	699.408
205.504	14.589	933.778	698.780
206.519	14.429	933.530	697.861
207.534	14.361	932.864	697.019
208.548	14.465	931.760	696.564
209.563	14.478	930.964	695.961
210.577	14.591	930.084	695.713
211.592	14.578	929.513	695.173
212.607	14.685	928.755	694.988
213.621	14.693	928.288	694.610
214.636	14.628	927.670	693.816
215.650	14.647	926.761	693.155
216.665	14.746	926.268	693.135
217.680	14.605	926.180	692.421
218.694	14.716	925.679	692.449
219.709	14.848	924.773	692.257
220.723	14.775	924.404	691.617
221.738	14.716	923.362	690.531
222.753	14.692	922.513	689.737
223.767	14.726	922.149	689.541
224.782	14.713	921.509	688.948
225.796	14.770	920.469	688.346
226.811	14.859	919.595	687.997
227.826	14.850	919.099	687.531
228.840	14.897	917.967	686.816
229.855	14.817	917.846	686.332
230.869	14.919	916.800	685.912
231.884	14.760	916.578	685.032
232.899	14.847	915.643	684.628
233.913	14.789	914.968	683.825
234.928	14.639	914.516	682.815
235.942	14.736	913.870	682.668
236.957	14.802	912.595	681.923
237.972	14.923	911.809	681.769
238.986	14.920	911.112	681.175
240.001	14.958	910.509	680.820
241.015	14.885	909.734	679.883
242.030	14.763	909.542	679.184
243.045	14.902	908.724	679.079
244.059	15.019	908.063	678.998
245.074	15.022	907.739	678.707
246.088	14.947	906.740	677.595
247.103	15.117	906.421	677.986
248.117	15.079	905.733	677.258
249.132	15.193	905.318	677.350
250.147	15.156	903.964	676.125
251.161	15.204	903.739	676.092
252.176	15.206	903.112	675.571
253.190	15.192	902.226	674.791
254.205	15.245	901.849	674.665
255.220	15.356	900.804	674.268
256.234	15.193	900.724	673.495
257.249	15.393	899.702	673.473
258.263	15.523	899.045	673.445
259.278	15.414	898.156	672.281
260.293	15.460	898.041	672.318
261.307	15.414	897.573	671.725
262.322	15.524	896.950	671.639
263.336	15.522	896.315	671.099
264.351	15.610	895.557	670.820
265.366	15.568	895.195	670.325
266.380	15.525	894.611	669.655
267.395	15.533	893.614	668.882
268.409	15.553	892.800	668.292
269.424	15.416	892.293	667.310
270.439	15.537	891.548	667.176
271.453	15.623	890.769	666.873
272.468	15.460	889.784	665.430
273.482	15.548	889.339	665.388
274.497	15.556	888.623	664.825
275.512	15.602	887.836	664.360
276.526	15.569	887.143	663.652
277.541	15.519	886.672	663.041
278.555	15.592	885.783	662.608
279.570	15.676	885.318	662.532
280.585	15.567	884.962	661.776
281.599	15.716	884.361	661.856
282.614	15.640	883.708	661.011
283.628	15.716	882.980	660.706
284.643	15.725	882.127	660.045
285.657	15.750	881.853	659.881
286.672	15.892	881.304	659.967
287.687	15.750	880.552	658.790
288.701	15.950	879.992	659.095
289.716	15.813	879.781	658.342
290.730	15.821	879.162	657.851
291.745	15.821	878.412	657.233
292.760	15.867	877.549	656.707
293.774	15.894	876.697	656.119
294.789	15.949	876.365	656.024
295.803	16.016	875.905	655.884
296.818	15.972	875.379	655.262
297.833	15.986	874.562	654.646
298.847	15.978	873.971	654.114
299.862	15.868	872.959	652.873
300.876	16.119	872.180	653.205
301.891	15.963	871.851	652.297
302.906	16.111	871.326	652.417
303.920	16.077	870.634	651.712
304.935	16.100	869.809	651.122
305.949	16.201	869.256	651.041
306.964	16.154	868.774	650.443
307.979	16.199	868.175	650.109
308.993	16.233	867.216	649.465
310.008	16.249	866.967	649.281
311.022	16.267	866.308	648.801
312.037	16.156	866.141	648.191
313.052	16.210	865.620	647.954
314.066	16.091	864.989	646.966
315.081	16.268	863.989	646.839
316.095	16.172	863.421	645.988
317.110	16.306	863.032	646.153
318.125	16.253	862.240	645.299
319.139	16.243	861.961	644.996
320.154	16.272	861.285	644.543
321.168	16.309	860.735	644.218
322.183	16.325	860.463	644.017
323.197	16.348	859.933	643.653
324.212	16.407	858.804	642.975
325.227	16.405	858.444	642.639
326.241	16.398	858.302	642.451
327.256	16.462	857.212	641.821
328.270	16.453	856.887	641.488
329.285	16.300	856.324	640.429
330.300	16.446	855.751	640.496
331.314	16.285	855.562	639.689
332.329	16.426	854.526	639.389
333.343	16.506	853.981	639.230
334.358	16.461	853.431	638.591
335.373	16.494	852.954	638.302
336.387	16.475	852.370	637.735
337.402	16.481	851.555	637.093
338.416	16.571	851.153	637.076
339.431	16.488	850.951	636.553
340.446	16.634	849.874	636.239
341.460	16.618	849.491	635.837
342.475	16.653	848.610	635.252
343.489	16.640	848.299	634.917
344.504	16.784	847.723	634.967
345.519	16.811	847.116	634.559
346.533	16.783	846.449	633.898
347.548	16.766	846.598	633.891
348.562	16.741	845.735	633.093
349.577	16.767	845.309	632.816
350.592	16.668	844.763	631.982
351.606	16.829	844.159	632.076
352.621	16.792	843.494	631.382
353.635	16.694	843.515	630.978
354.650	16.742	842.951	630.679
355.665	16.901	842.514	630.889
356.679	16.693	842.193	629.817
357.694	16.907	841.572	630.094
358.708	16.960	840.548	629.466
359.723	16.858	840.299	628.848
360.738	16.801	839.997	628.353
361.752	16.864	839.671	628.289
362.767	17.045	838.633	628.125
363.781	16.915	838.633	627.589
364.796	16.979	837.808	627.153
365.810	17.080	837.507	627.243
366.825	17.101	836.858	626.782
367.840	17.139	836.485	626.586
368.854	17.145	836.466	626.538
369.869	17.220	835.925	626.354
370.883	17.226	835.283	625.838
371.898	17.074	834.225	624.433
372.913	17.166	834.117	624.633
373.927	17.040	833.627	623.749
374.942	17.205	832.875	623.738
375.956	17.265	832.105	623.325
376.971	17.317	831.424	622.949
377.986	17.157	830.866	621.894
379.000	17.299	830.417	622.021
380.015	17.280	830.099	621.658
381.029	17.306	829.767	621.449
382.044	17.353	828.907	620.923
383.059	17.397	828.094	620.417
384.073	17.439	827.853	620.338
385.088	17.235	827.430	619.220
386.102	17.242	827.090	618.938
387.117	17.411	826.214	618.843
388.132	17.404	825.818	618.465
389.146	17.287	825.427	617.693
390.161	17.437	824.917	617.801
391.175	17.445	824.131	617.187
392.190	17.552	824.006	617.425
393.205	17.467	823.876	616.964
394.219	17.452	823.422	616.518
395.234	17.506	822.497	615.965
396.248	17.417	822.112	615.300
397.263	17.334	822.172	614.990
398.278	17.390	821.574	614.690
399.292	17.400	820.684	614.007
400.307	17.511	820.006	613.845
401.321	17.479	820.107	613.750
402.336	17.442	819.666	613.233
403.350	17.578	819.301	613.396
404.365	17.733	818.182	613.062
405.380	17.590	818.169	612.482
406.394	17.700	817.724	612.493
407.409	17.497	817.491	611.533
408.423	17.662	816.928	611.651
409.438	17.879	816.451	612.016
410.453	17.783	816.110	611.363
411.467	17.750	815.835	610.986
412.482	17.810	814.685	610.283
413.496	17.689	814.518	609.672
414.511	17.755	814.331	609.716
415.526	17.892	813.610	609.609
416.540	17.786	813.476	609.078
417.555	17.939	812.917	609.149
418.569	17.934	812.303	608.617
419.584	17.989	811.743	608.343
420.599	17.968	811.322	607.898
421.613	114.747	1299.447	1489.539
422.628	99.283	1370.531	1489.619
