DTS Sentinel unit serial number:	SN413079Multiplexer serial number:	ORYXHardware model number:	OX4-SRSoftware version number:	ORYX F/W v4.00 Oryx Data Collector v3.7.2.0data status	okinstallation	princeton_trtdifferential loss correction	single-endedforward channel	channel 3reverse channel	N/Adate	2019/09/18time	18:20:34forward acquisition time	60.00reverse acquisition time	0.00gamma	496.2192k internal	0.2293k external	0.2293temperature offset calibration	0.9993default loss term (dB/km)	0.3790temperature slope calibration	1.0000multiplexer offset coefficient	1.0000multiplexer slope coefficient	1.0000fibre end	0.00T internal ref (°C)	38.75T ext. ref 1 (°C)	0.92T ext. ref 2 (°C)	31.91length (m)	temperature (°C)	Stokes	anti-Stokes-747.200	446.345	0.193	-0.435
-746.185	-200.000	-0.017	0.168
-745.171	28.812	0.138	0.119
-744.156	266.636	-0.046	0.083
-743.142	240.867	-0.126	-0.215
-742.127	20.740	0.166	0.137
-741.112	-200.000	-0.010	0.081
-740.098	-27.115	-0.546	0.326
-739.083	800.000	-0.059	-0.196
-738.069	112.173	-0.166	-0.206
-737.054	-35.541	-0.097	0.054
-736.039	800.000	-0.021	0.078
-735.025	-31.780	-0.293	0.168
-734.010	-117.627	-0.189	-0.035
-732.996	119.280	-0.121	0.154
-731.981	540.557	-0.049	-0.119
-730.966	139.295	-0.266	-0.358
-729.952	-33.297	-0.139	-0.079
-728.937	105.932	0.211	-0.256
-727.923	-74.135	-0.215	-0.079
-726.908	530.028	0.090	0.217
-725.894	380.567	-0.090	0.189
-724.879	-200.000	0.002	0.049
-723.864	800.000	-0.052	0.154
-722.850	-44.011	-0.253	-0.130
-721.835	-107.370	0.103	-0.023
-720.821	-118.168	0.035	0.006
-719.806	343.563	-0.033	-0.067
-718.791	5.453	0.231	0.174
-717.777	59.276	-0.189	0.190
-716.762	-200.000	0.021	0.221
-715.748	12.316	-0.195	-0.153
-714.733	-87.648	0.146	0.045
-713.718	-39.318	-0.081	-0.043
-712.704	-76.599	-0.124	0.045
-711.689	-200.000	0.049	-0.264
-710.675	648.117	0.062	-0.163
-709.660	-74.421	0.159	0.059
-708.645	-21.507	-0.172	-0.107
-707.631	161.339	0.270	-0.386
-706.616	-85.336	0.113	0.036
-705.602	-133.490	-0.075	-0.010
-704.587	800.000	0.051	-0.170
-703.572	389.831	0.041	0.087
-702.558	800.000	-0.017	-0.051
-701.543	-90.691	0.038	-0.011
-700.529	-88.599	0.229	-0.070
-699.514	-132.209	-0.357	0.047
-698.499	121.345	-0.152	-0.193
-697.485	28.803	-0.120	-0.104
-696.470	-149.329	0.135	-0.011
-695.456	158.363	-0.143	-0.202
-694.441	319.941	0.119	-0.231
-693.426	-67.080	-0.276	-0.111
-692.412	-84.915	-0.168	0.054
-691.397	-55.748	0.298	-0.136
-690.383	-40.347	0.118	-0.062
-689.368	-200.000	-0.003	-0.154
-688.354	-200.000	0.057	-0.255
-687.339	-200.000	0.038	0.287
-686.324	-200.000	0.032	-0.210
-685.310	361.047	-0.079	0.161
-684.295	182.971	-0.109	0.165
-683.281	-200.000	0.056	0.416
-682.266	797.978	-0.026	0.072
-681.251	-200.000	-0.008	0.086
-680.237	-200.000	-0.051	-0.235
-679.222	-200.000	0.016	-0.090
-678.208	-142.605	0.195	0.019
-677.193	41.700	0.293	0.271
-676.178	99.883	0.179	-0.212
-675.164	-200.000	-0.021	-0.245
-674.149	166.774	0.176	-0.255
-673.135	800.000	0.071	-0.249
-672.120	-200.000	-0.057	-0.264
-671.105	-155.532	-0.017	-0.001
-670.091	470.406	-0.136	0.312
-669.076	-200.000	0.009	-0.152
-668.062	159.520	0.289	-0.410
-667.047	-6.419	0.200	0.139
-666.032	-78.111	-0.144	-0.051
-665.018	-200.000	-0.052	-0.298
-664.003	-5.334	-0.245	-0.172
-662.989	-200.000	-0.002	-0.257
-661.974	1.261	0.173	0.127
-660.959	-117.196	-0.054	-0.010
-659.945	114.793	-0.197	-0.245
-658.930	-200.000	-0.010	0.465
-657.916	117.484	-0.216	-0.271
-656.901	40.116	-0.280	0.257
-655.886	-6.740	0.259	-0.179
-654.872	228.372	0.134	-0.223
-653.857	91.621	-0.306	-0.350
-652.843	212.928	0.064	-0.103
-651.828	19.228	-0.227	-0.186
-650.814	-125.951	-0.153	-0.024
-649.799	-200.000	-0.003	-0.014
-648.784	-200.000	0.022	0.396
-647.770	246.278	0.128	0.219
-646.755	295.431	-0.035	-0.065
-645.741	426.262	0.070	-0.154
-644.726	230.279	0.152	-0.254
-643.711	80.172	0.179	-0.196
-642.697	66.505	-0.212	0.219
-641.682	207.826	-0.106	0.168
-640.668	-88.532	0.056	-0.017
-639.653	-150.048	-0.232	-0.018
-638.638	165.198	-0.113	-0.162
-637.624	-100.798	-0.286	-0.072
-636.609	-200.000	-0.046	-0.259
-635.595	-89.071	0.348	-0.105
-634.580	-108.882	-0.181	-0.039
-633.565	-148.185	0.388	0.033
-632.551	800.000	0.042	-0.171
-631.536	123.426	0.248	-0.317
-630.522	26.840	-0.281	0.240
-629.507	-69.298	-0.393	0.154
-628.492	800.000	0.046	0.176
-627.478	99.989	0.188	-0.222
-626.463	-15.186	-0.113	0.074
-625.449	-84.498	-0.283	0.091
-624.434	-200.000	-0.003	-0.170
-623.419	-200.000	0.016	-0.330
-622.405	28.986	-0.053	-0.046
-621.390	599.143	0.163	-0.411
-620.376	-102.620	-0.340	-0.083
-619.361	-200.000	0.016	-0.159
-618.346	-10.647	-0.143	0.096
-617.332	800.000	0.036	0.149
-616.317	-48.304	-0.299	0.147
-615.303	800.000	-0.064	-0.194
-614.288	171.713	-0.137	-0.200
-613.273	207.175	-0.176	-0.280
-612.259	-200.000	-0.009	0.040
-611.244	-42.951	-0.150	-0.078
-610.230	-42.116	0.080	-0.042
-609.215	-133.988	0.117	-0.015
-608.201	753.534	-0.121	-0.334
-607.186	-76.900	0.103	0.037
-606.171	8.209	0.207	-0.158
-605.157	76.956	0.058	0.062
-604.142	-121.458	0.367	0.062
-603.128	-77.042	-0.327	0.116
-602.113	-50.607	-0.322	0.154
-601.098	766.269	0.075	0.207
-600.084	278.335	-0.181	0.327
-599.069	800.000	-0.053	-0.231
-598.055	119.649	0.071	0.089
-597.040	434.451	-0.168	-0.370
-596.025	304.877	-0.239	-0.452
-595.011	-200.000	0.026	0.309
-593.996	35.188	-0.198	-0.176
-592.982	-200.000	-0.000	0.422
-591.967	-200.000	-0.007	-0.344
-590.952	-55.106	0.196	0.089
-589.938	-200.000	0.014	-0.110
-588.923	-32.558	0.126	-0.071
-587.909	48.170	-0.206	-0.196
-586.894	-5.967	-0.083	0.058
-585.879	56.431	0.206	0.204
-584.865	-105.791	0.366	-0.084
-583.850	18.020	-0.208	-0.169
-582.836	800.000	-0.062	-0.271
-581.821	172.042	-0.083	-0.121
-580.806	128.758	0.055	0.072
-579.792	-28.020	-0.185	-0.109
-578.777	171.288	0.121	0.177
-577.763	205.338	-0.054	-0.086
-576.748	491.337	-0.096	-0.224
-575.733	-97.249	-0.478	-0.127
-574.719	-172.334	-0.211	0.007
-573.704	-25.962	-0.144	0.086
-572.690	-54.010	-0.195	-0.090
-571.675	-169.473	-0.153	-0.006
-570.661	59.261	0.072	0.072
-569.646	-51.316	-0.032	-0.015
-568.631	-200.000	-0.034	-0.232
-567.617	199.109	0.185	0.288
-566.602	-200.000	-0.001	0.162
-565.588	27.491	0.121	0.104
-564.573	164.144	-0.089	-0.127
-563.558	-142.018	-0.325	-0.033
-562.544	272.631	0.262	-0.469
-561.529	-200.000	0.035	0.163
-560.515	76.765	0.065	-0.070
-559.500	800.000	0.112	-0.399
-558.485	124.143	-0.055	-0.070
-557.471	276.985	0.049	-0.088
-556.456	-90.095	-0.106	0.031
-555.442	-200.000	-0.003	-0.019
-554.427	206.014	-0.115	-0.181
-553.412	-66.357	0.131	0.053
-552.398	-32.201	0.263	0.149
-551.383	50.526	0.177	-0.170
-550.369	4.540	0.315	-0.235
-549.354	247.293	0.267	0.459
-548.339	-7.082	0.097	-0.067
-547.325	47.700	-0.048	-0.045
-546.310	-8.313	-0.215	0.147
-545.296	-9.951	-0.165	0.112
-544.281	-159.935	-0.040	-0.002
-543.266	-200.000	-0.046	-0.386
-542.252	800.000	0.033	-0.094
-541.237	266.821	0.293	-0.519
-540.223	-92.440	-0.166	0.047
-539.208	5.802	-0.268	0.201
-538.193	-99.161	-0.234	-0.060
-537.179	187.783	0.107	-0.162
-536.164	107.689	0.210	0.253
-535.150	143.930	0.208	0.281
-534.135	-124.761	0.276	-0.043
-533.121	305.467	0.140	0.264
-532.106	-51.501	0.206	0.098
-531.091	-128.683	-0.096	0.014
-530.077	800.000	-0.031	0.115
-529.062	48.261	0.126	0.119
-528.048	-200.000	0.007	-0.082
-527.033	-29.963	-0.256	-0.148
-526.018	-108.982	-0.256	-0.055
-525.004	141.212	-0.263	0.352
-523.989	800.000	0.076	0.267
-522.975	691.353	-0.058	-0.153
-521.960	58.586	-0.217	-0.216
-520.945	-73.189	-0.151	0.056
-519.931	218.206	0.123	0.199
-518.916	800.000	0.086	0.294
-517.902	14.026	0.141	0.111
-516.887	800.000	-0.080	0.270
-515.872	-15.928	0.175	-0.113
-514.858	-200.000	0.011	0.172
-513.843	-200.000	-0.051	-0.276
-512.829	50.600	-0.171	-0.164
-511.814	-154.116	0.138	-0.009
-510.799	-159.553	0.104	0.006
-509.785	432.002	0.067	0.148
-508.770	-25.852	-0.115	0.069
-507.756	154.347	0.163	0.227
-506.741	800.000	-0.072	-0.234
-505.726	-162.109	0.387	-0.020
-504.712	-21.756	0.218	-0.134
-503.697	-200.000	0.041	0.187
-502.683	-11.739	0.053	0.035
-501.668	30.201	0.166	0.143
-500.653	-200.000	0.055	0.341
-499.639	-73.685	0.104	-0.038
-498.624	128.897	0.237	0.306
-497.610	-2.549	-0.219	0.155
-496.595	800.000	-0.029	0.118
-495.581	400.170	0.030	-0.064
-494.566	-169.011	0.371	0.014
-493.551	-200.000	0.009	-0.155
-492.537	113.295	0.145	-0.178
-491.522	-115.790	-0.099	-0.019
-490.508	800.000	0.010	-0.037
-489.493	173.534	-0.228	0.334
-488.478	800.000	0.132	-0.449
-487.464	800.000	-0.043	-0.184
-486.449	-102.076	0.261	-0.064
-485.435	110.320	0.079	-0.096
-484.420	43.432	-0.414	-0.383
-483.405	-18.207	-0.179	0.113
-482.391	-70.088	-0.268	0.103
-481.376	-200.000	-0.014	0.185
-480.362	142.265	0.030	0.041
-479.347	70.529	0.108	0.113
-478.332	40.807	-0.193	-0.176
-477.318	-118.371	-0.140	0.025
-476.303	-132.346	0.063	-0.008
-475.289	-78.825	-0.052	-0.018
-474.274	-91.751	0.392	-0.113
-473.259	48.797	-0.100	0.095
-472.245	-63.893	0.054	-0.022
-471.230	-17.340	-0.301	-0.192
-470.216	-48.022	0.236	-0.115
-469.201	-87.714	0.050	-0.015
-468.186	-200.000	-0.017	0.171
-467.172	-106.090	0.104	0.024
-466.157	87.443	0.247	-0.277
-465.143	443.905	0.099	-0.219
-464.128	14.682	-0.217	-0.172
-463.113	472.199	-0.138	0.314
-462.099	800.000	0.079	0.226
-461.084	-82.860	-0.372	-0.122
-460.070	-200.000	0.066	0.432
-459.055	-143.213	-0.203	-0.020
-458.040	-200.000	0.017	0.101
-457.026	-125.151	-0.211	-0.033
-456.011	174.687	0.150	0.220
-454.997	221.876	-0.089	0.145
-453.982	99.443	-0.060	0.070
-452.968	-136.534	-0.422	-0.050
-451.953	201.338	0.202	0.315
-450.938	800.000	-0.025	-0.085
-449.924	177.487	0.119	0.175
-448.909	-151.665	0.227	0.017
-447.895	38.388	0.261	0.235
-446.880	594.693	-0.121	-0.302
-445.865	800.000	-0.060	0.196
-444.851	-97.208	-0.137	0.036
-443.836	-29.580	0.216	-0.125
-442.822	527.635	-0.114	0.272
-441.807	302.276	0.040	-0.075
-440.792	-95.097	-0.274	-0.075
-439.778	24.992	0.333	-0.279
-438.763	-43.625	0.059	-0.030
-437.749	300.455	-0.071	0.133
-436.734	142.107	0.094	0.126
-435.719	-124.048	-0.262	-0.042
-434.705	154.334	-0.169	-0.234
-433.690	-5.397	0.041	0.028
-432.676	-200.000	-0.001	0.041
-431.661	-54.875	0.195	-0.089
-430.646	71.505	-0.149	-0.157
-429.632	-157.384	0.101	-0.006
-428.617	-53.010	0.266	-0.123
-427.603	8.496	0.103	0.078
-426.588	45.518	-0.274	0.256
-425.573	236.726	-0.064	0.108
-424.559	-93.728	0.158	-0.044
-423.544	-68.722	0.216	-0.084
-422.530	-50.525	-0.229	-0.109
-421.515	775.256	0.053	0.145
-420.500	189.481	0.063	-0.095
-419.486	-54.584	-0.209	-0.095
-418.471	-200.000	0.037	-0.186
-417.457	703.283	-0.058	0.155
-416.442	-125.209	-0.216	-0.033
-415.428	-119.005	-0.203	0.036
-414.413	-200.000	0.035	-0.221
-413.398	-200.000	-0.045	0.382
-412.384	-122.685	-0.294	0.048
-411.369	595.827	-0.111	0.278
-410.355	-61.986	-0.184	0.078
-409.340	-116.392	-0.121	-0.023
-408.325	-4.221	-0.112	-0.078
-407.311	800.000	0.035	-0.124
-406.296	-55.164	0.205	0.093
-405.282	800.000	0.044	-0.188
-404.267	-68.642	0.106	0.042
-403.252	800.000	0.039	-0.153
-402.238	221.593	-0.212	-0.344
-401.223	-200.000	0.014	-0.154
-400.209	-148.447	0.448	-0.037
-399.194	-162.621	0.270	-0.013
-398.179	-200.000	-0.024	0.239
-397.165	-130.805	-0.138	-0.019
-396.150	-140.610	0.265	0.028
-395.136	283.833	0.084	0.153
-394.121	654.850	0.062	0.162
-393.106	-151.999	-0.346	0.025
-392.092	-41.133	-0.079	0.041
-391.077	-107.709	0.149	0.033
-390.063	87.613	0.328	-0.366
-389.048	-44.011	-0.079	-0.040
-388.033	-118.930	0.246	0.043
-387.019	-81.486	-0.233	0.077
-386.004	302.664	0.131	0.245
-384.990	604.872	0.139	0.349
-383.975	-200.000	0.080	-0.382
-382.960	66.188	-0.162	0.166
-381.946	-62.129	0.141	0.059
-380.931	30.757	-0.162	0.140
-379.917	800.000	0.025	0.083
-378.902	800.000	0.113	-0.343
-377.888	-27.112	-0.239	0.141
-376.873	-200.000	-0.017	0.136
-375.858	4.183	0.454	0.335
-374.844	214.838	0.035	-0.057
-373.829	39.451	-0.327	-0.296
-372.815	-200.000	-0.003	-0.050
-371.800	107.787	0.281	0.337
-370.785	169.790	0.159	0.229
-369.771	-118.989	-0.332	-0.059
-368.756	215.281	-0.035	0.056
-367.742	71.925	-0.067	0.070
-366.727	-85.897	0.062	-0.019
-365.712	-20.954	0.181	0.112
-364.698	-2.317	-0.263	0.186
-363.683	-16.842	0.222	-0.141
-362.669	42.200	-0.088	-0.080
-361.654	348.707	-0.204	0.405
-360.639	32.978	0.269	-0.235
-359.625	35.108	0.015	0.013
-358.610	295.055	0.091	-0.168
-357.596	81.320	0.179	0.195
-356.581	-40.911	0.183	-0.095
-355.566	127.312	-0.222	0.284
-354.552	-133.530	0.132	0.017
-353.537	-91.671	-0.079	-0.023
-352.523	800.000	-0.093	0.271
-351.508	196.312	-0.156	-0.239
-350.493	159.630	-0.325	0.455
-349.479	25.235	-0.126	0.106
-348.464	800.000	0.072	-0.282
-347.450	-57.676	0.269	-0.119
-346.435	-200.000	0.084	-0.503
-345.420	355.951	-0.043	-0.087
-344.406	90.340	-0.159	0.180
-343.391	492.129	-0.130	0.301
-342.377	494.942	0.086	0.198
-341.362	800.000	0.076	0.294
-340.348	25.241	-0.187	-0.156
-339.333	-86.289	0.196	-0.061
-338.318	-95.569	-0.169	0.045
-337.304	371.042	-0.034	-0.069
-336.289	-111.664	0.313	0.064
-335.275	800.000	-0.037	0.109
-334.260	182.521	0.112	-0.166
-333.245	-21.781	0.045	0.028
-332.231	-109.843	-0.215	0.045
-331.216	73.564	-0.155	-0.163
-330.202	120.316	0.163	-0.203
-329.187	64.201	0.173	0.175
-328.172	-200.000	-0.037	-0.170
-327.158	-55.384	0.500	0.226
-326.143	147.827	0.103	-0.139
-325.129	-200.000	0.206	0.000
-324.114	-200.000	-0.005	-0.299
-323.099	-41.000	0.369	-0.192
-322.085	-125.779	0.161	-0.025
-321.070	-200.000	-0.037	-0.468
-320.056	-176.649	-0.217	0.006
-319.041	-200.000	0.016	-0.206
-318.026	-51.971	0.172	-0.080
-317.012	-24.777	0.186	-0.111
-315.997	499.330	0.050	0.116
-314.983	527.754	-0.135	0.321
-313.968	-200.000	0.010	-0.501
-312.953	-200.000	0.011	0.377
-311.939	3.809	0.220	-0.162
-310.924	8.206	0.257	-0.194
-309.910	-86.029	0.194	-0.060
-308.895	-135.963	-0.428	0.051
-307.880	-200.000	0.007	-0.176
-306.866	-172.216	-0.156	-0.005
-305.851	535.944	-0.141	0.337
-304.837	-200.000	-0.039	0.301
-303.822	-85.997	-0.298	0.093
-302.807	72.469	0.160	-0.167
-301.793	118.725	0.113	0.140
-300.778	78.722	0.064	0.068
-299.764	-62.732	0.169	0.070
-298.749	800.000	0.084	-0.327
-297.735	162.642	0.182	0.257
-296.720	69.053	-0.282	0.291
-295.705	249.043	0.076	0.129
-294.691	-157.265	0.198	0.012
-293.676	-80.112	0.170	0.057
-292.662	-51.967	-0.368	-0.172
-291.647	156.321	0.173	-0.240
-290.632	-42.001	-0.234	0.120
-289.618	77.247	0.076	0.081
-288.603	-146.494	-0.134	0.012
-287.589	-63.226	0.123	0.051
-286.574	-115.155	-0.338	-0.064
-285.559	-15.480	-0.383	0.246
-284.545	239.192	0.148	-0.247
-283.530	584.754	0.164	0.406
-282.516	179.656	-0.164	0.241
-281.501	198.619	-0.159	-0.244
-280.486	-76.261	0.247	-0.088
-279.472	84.618	-0.191	-0.210
-278.457	194.190	0.120	-0.183
-277.443	58.725	0.239	-0.236
-276.428	-96.111	0.201	-0.054
-275.413	-137.203	-0.056	-0.006
-274.399	800.000	0.071	0.237
-273.384	675.468	-0.080	-0.209
-272.370	103.383	0.019	0.023
-271.355	-125.273	-0.236	0.036
-270.340	-200.000	-0.019	-0.154
-269.326	83.269	-0.219	-0.240
-268.311	-200.000	-0.017	0.119
-267.297	-31.783	0.064	0.036
-266.282	20.196	0.279	-0.226
-265.267	-200.000	0.033	-0.278
-264.253	102.053	-0.233	0.273
-263.238	-162.626	-0.172	-0.009
-262.224	-63.750	0.075	-0.031
-261.209	-171.046	-0.198	-0.007
-260.195	-200.000	0.004	0.027
-259.180	-109.155	0.220	-0.047
-258.165	135.042	0.181	-0.236
-257.151	256.092	0.044	-0.075
-256.136	14.163	0.241	0.188
-255.122	800.000	0.108	0.328
-254.107	-200.000	-0.025	0.189
-253.092	-98.116	-0.213	-0.055
-252.078	-157.033	0.169	-0.010
-251.063	474.018	0.216	0.489
-250.049	800.000	-0.033	-0.130
-249.034	-175.084	0.253	0.007
-248.019	-91.437	-0.123	-0.035
-247.005	-200.000	0.018	-0.432
-245.990	-172.562	0.388	-0.012
-244.976	234.109	-0.240	-0.396
-243.961	68.737	-0.129	-0.132
-242.946	-200.000	-0.018	-0.152
-241.932	48.015	-0.271	0.254
-240.917	-140.655	-0.229	0.024
-239.903	-180.616	0.200	-0.004
-238.888	800.000	-0.068	-0.198
-237.873	-129.732	-0.306	-0.042
-236.859	-110.537	-0.097	-0.020
-235.844	296.629	-0.047	0.087
-234.830	-200.000	0.004	0.363
-233.815	-107.089	0.293	0.065
-232.800	-200.000	0.013	-0.115
-231.786	800.000	-0.096	-0.343
-230.771	-58.336	0.288	0.126
-229.757	-32.296	-0.112	0.063
-228.742	-200.000	0.014	0.237
-227.727	-200.000	-0.011	-0.076
-226.713	-89.900	0.242	0.071
-225.698	-87.350	-0.116	-0.035
-224.684	800.000	-0.083	-0.329
-223.669	192.248	-0.050	-0.076
-222.655	472.556	0.115	-0.259
-221.640	-200.000	0.036	-0.201
-220.625	-200.000	0.029	-0.318
-219.611	19.123	-0.105	0.085
-218.596	6.154	-0.189	-0.141
-217.582	-200.000	0.010	-0.415
-216.567	800.000	0.061	0.180
-215.552	530.797	-0.113	0.268
-214.538	800.000	-0.088	0.245
-213.523	-200.000	0.014	0.114
-212.509	-200.000	-0.008	0.114
-211.494	-200.000	-0.033	0.317
-210.479	-87.072	-0.113	0.034
-209.465	221.457	-0.224	0.360
-208.450	-103.929	0.250	-0.059
-207.436	-200.000	0.031	0.147
-206.421	-32.517	-0.103	0.058
-205.406	-200.000	-0.012	-0.409
-204.392	-88.234	0.112	-0.033
-203.377	-200.000	-0.012	-0.222
-202.363	-0.101	0.247	-0.176
-201.348	8.097	-0.179	0.134
-200.333	-33.969	-0.214	0.118
-199.319	185.704	0.173	-0.257
-198.304	-200.000	0.013	-0.155
-197.290	655.360	0.032	0.083
-196.275	129.131	0.184	0.235
-195.260	-22.533	-0.061	-0.037
-194.246	-103.620	0.289	0.068
-193.231	12.233	-0.244	-0.188
-192.217	113.036	0.132	-0.161
-191.202	-181.287	-0.044	-0.001
-190.187	800.000	0.071	0.245
-189.173	32.808	-0.056	0.048
-188.158	20.389	0.264	0.214
-187.144	-119.685	-0.365	-0.063
-186.129	-200.000	0.026	-0.117
-185.114	-4.730	0.043	-0.030
-184.100	-200.000	0.042	-0.208
-183.085	377.203	0.045	0.091
-182.071	-91.939	0.212	0.060
-181.056	302.295	-0.038	0.070
-180.042	-22.798	-0.172	0.104
-179.027	-151.019	0.231	0.017
-178.012	-169.754	-0.385	0.014
-176.998	112.295	-0.187	0.227
-175.983	-41.025	0.119	-0.061
-174.969	800.000	0.072	0.256
-173.954	-99.748	0.232	-0.058
-172.939	-124.511	0.265	0.041
-171.925	22.794	-0.204	0.167
-170.910	269.212	-0.050	0.089
-169.896	-166.006	-0.210	-0.009
-168.881	-200.000	0.005	0.120
-167.866	-200.000	-0.014	0.201
-166.852	-62.225	-0.140	0.058
-165.837	106.788	-0.242	-0.287
-164.823	-6.894	0.113	0.077
-163.808	800.000	-0.151	0.429
-162.793	800.000	0.101	0.381
-161.779	800.000	0.092	0.290
-160.764	178.177	-0.135	0.197
-159.750	486.809	0.120	0.274
-158.735	-24.437	0.412	-0.245
-157.720	800.000	0.063	-0.257
-156.706	372.985	-0.105	0.213
-155.691	-129.180	-0.312	0.044
-154.677	-200.000	-0.002	-0.014
-153.662	289.162	0.104	0.189
-152.647	102.889	-0.142	-0.166
-151.633	-132.026	0.063	-0.008
-150.618	68.554	0.008	0.008
-149.604	-168.478	0.441	0.017
-148.589	-12.141	0.108	0.071
-147.574	-107.389	-0.226	0.049
-146.560	-200.000	0.047	-0.412
-145.545	75.083	-0.165	0.174
-144.531	800.000	-0.164	0.570
-143.516	40.596	0.188	-0.169
-142.502	-200.000	-0.039	0.301
-141.487	-200.000	0.003	0.116
-140.472	256.097	0.108	0.186
-139.458	-7.881	0.123	-0.083
-138.443	-108.409	-0.054	-0.012
-137.429	-92.832	0.032	-0.009
-136.414	-156.535	-0.230	0.014
-135.399	-40.183	-0.233	-0.121
-134.385	-200.000	0.046	0.217
-133.370	-83.076	0.306	-0.098
-132.356	-161.578	0.269	-0.014
-131.341	309.663	-0.059	0.109
-130.326	237.702	-0.140	0.231
-129.312	450.720	-0.062	-0.137
-128.297	218.286	-0.175	0.279
-127.283	181.913	-0.164	-0.242
-126.268	-200.000	0.026	-0.168
-125.253	-137.300	-0.130	-0.015
-124.239	-130.266	-0.198	-0.027
-123.224	266.629	0.182	-0.317
-122.210	-97.624	0.293	-0.076
-121.195	-104.154	0.227	0.053
-120.180	162.187	0.086	0.120
-119.166	-200.000	0.039	0.206
-118.151	233.111	-0.110	-0.180
-117.137	-83.177	-0.130	0.042
-116.122	-110.051	0.410	-0.086
-115.107	603.929	0.069	0.171
-114.093	-200.000	-0.011	-0.080
-113.078	472.900	0.093	-0.209
-112.064	-92.802	-0.056	-0.016
-111.049	-55.738	0.187	0.083
-110.034	-47.888	0.212	-0.102
-109.020	800.000	0.025	0.090
-108.005	-24.311	0.203	0.121
-106.991	76.137	0.132	-0.139
-105.976	800.000	0.053	0.189
-104.962	-30.851	-0.131	0.074
-103.947	318.789	0.070	-0.133
-102.932	-178.277	-0.245	0.006
-101.918	27.571	-0.184	0.154
-100.903	-200.000	0.028	0.130
-99.889	-88.110	0.289	0.086
-98.874	-200.000	-0.041	-0.245
-97.859	4.715	-0.228	0.167
-96.845	-66.724	-0.198	0.078
-95.830	-200.000	0.016	-0.157
-94.816	-113.776	0.152	-0.030
-93.801	-43.181	0.158	-0.080
-92.786	7.329	0.243	-0.181
-91.772	-157.284	0.113	-0.007
-90.757	-117.225	0.145	-0.026
-89.743	-200.000	0.032	0.427
-88.728	19.310	-0.171	-0.137
-87.713	-200.000	-0.029	-0.133
-86.699	-31.209	0.135	-0.076
-85.684	-117.397	0.226	-0.041
-84.670	7.187	-0.066	0.049
-83.655	39.037	0.307	0.273
-82.640	-80.422	-0.291	0.097
-81.626	800.000	0.044	0.120
-80.611	684.420	-0.073	-0.190
-79.597	63.046	0.223	0.223
-78.582	345.807	0.058	-0.113
-77.567	538.965	0.089	-0.210
-76.553	239.773	0.293	0.487
-75.538	-155.456	-0.348	0.022
-74.524	143.419	0.124	-0.165
-73.509	77.901	0.098	-0.104
-72.494	251.879	0.108	0.182
-71.480	-200.000	-0.004	0.176
-70.465	-59.874	-0.133	0.057
-69.451	800.000	0.073	0.233
-68.436	505.113	0.104	-0.240
-67.422	-98.970	-0.166	0.042
-66.407	74.041	0.283	-0.296
-65.392	-139.155	-0.189	0.020
-64.378	-31.221	-0.166	0.093
-63.363	56.282	-0.075	-0.073
-62.349	-200.000	0.005	-0.172
-61.334	144.792	-0.593	-0.790
-60.319	-200.000	-0.041	0.528
-59.305	-200.000	-0.234	-1.026
-58.290	111.552	0.693	0.832
-57.276	266.695	0.845	1.471
-56.261	-200.000	84.425	511.937
-55.246	493.760	1361.093	3109.564
-54.232	147.003	2581.668	3457.631
-53.217	111.452	2252.968	2705.224
-52.203	48.602	1780.771	1661.827
-51.188	41.754	1584.967	1430.258
-50.173	39.344	1556.305	1387.380
-49.159	55.183	1600.636	1540.439
-48.144	59.399	1620.708	1589.861
-47.130	42.440	1578.920	1429.467
-46.115	39.091	1563.673	1391.932
-45.100	38.922	1560.179	1387.575
-44.086	38.848	1558.127	1385.171
-43.071	38.723	1556.511	1382.793
-42.057	38.749	1554.629	1381.252
-41.042	38.685	1553.020	1379.321
-40.027	38.702	1552.036	1378.507
-39.013	38.714	1550.215	1376.918
-37.998	38.702	1548.927	1375.639
-36.984	38.819	1546.976	1374.668
-35.969	38.792	1546.345	1373.869
-34.954	38.739	1545.028	1372.275
-33.940	38.748	1543.347	1370.785
-32.925	38.721	1542.252	1369.568
-31.911	38.894	1540.294	1368.984
-30.896	38.835	1539.234	1367.579
-29.881	38.872	1537.770	1366.477
-28.867	38.786	1537.027	1365.169
-27.852	38.753	1535.419	1363.452
-26.838	38.814	1533.788	1362.378
-25.823	38.845	1531.986	1360.936
-24.809	38.798	1530.132	1358.912
-23.794	38.790	1528.760	1357.580
-22.779	38.726	1527.975	1356.386
-21.765	38.719	1526.654	1355.116
-20.750	38.788	1525.685	1354.674
-19.736	38.729	1524.615	1353.267
-18.721	38.790	1522.867	1352.078
-17.706	38.834	1521.724	1351.312
-16.692	38.841	1520.436	1350.168
-15.677	38.710	1520.169	1348.971
-14.663	38.759	1518.288	1347.587
-13.648	38.768	1516.967	1346.426
-12.633	38.632	1516.731	1345.227
-11.619	38.592	1515.977	1344.231
-10.604	38.649	1515.023	1343.722
-9.590	38.721	1513.885	1343.156
-8.575	38.734	1512.293	1341.774
-7.560	38.739	1511.592	1341.138
-6.546	38.700	1510.799	1340.115
-5.531	38.701	1509.993	1339.347
-4.517	38.684	1509.241	1338.512
-3.502	38.636	1508.197	1337.206
-2.487	38.743	1507.070	1336.883
-1.473	38.692	1506.341	1335.834
-0.458	38.730	1504.544	1334.448
0.556	37.806	1494.807	1322.434
1.571	34.123	1465.282	1271.640
2.586	28.529	1397.329	1176.790
3.600	24.957	1307.442	1079.503
4.615	22.275	1256.951	1022.161
5.629	18.483	1199.155	954.005
6.644	9.579	1110.685	837.444
7.659	2.324	1066.028	767.401
8.673	1.084	1059.699	756.590
9.688	0.868	1057.397	753.802
10.702	0.852	1055.768	752.495
11.717	0.886	1053.770	751.171
12.731	3.293	1055.568	764.344
13.746	10.714	1066.833	809.546
14.761	16.854	1073.752	845.441
15.775	17.773	1074.247	850.340
16.790	17.118	1072.557	845.665
17.804	16.230	1070.490	839.544
18.819	15.234	1068.813	833.208
19.834	14.756	1067.126	829.445
20.848	14.463	1066.056	827.088
21.863	14.193	1065.274	825.067
22.877	13.920	1064.598	823.121
23.892	13.829	1063.438	821.699
24.907	13.664	1062.768	820.291
25.921	13.644	1061.985	819.515
26.936	13.697	1061.405	819.256
27.950	13.764	1060.725	818.991
28.965	13.822	1059.949	818.606
29.980	13.777	1059.433	817.911
30.994	13.846	1058.181	817.214
32.009	13.921	1057.307	816.836
33.023	13.907	1056.966	816.429
34.038	13.927	1055.865	815.606
35.053	13.906	1055.080	814.826
36.067	13.771	1054.264	813.460
37.082	13.901	1053.298	813.280
38.096	13.720	1052.948	812.052
39.111	13.828	1051.997	811.774
40.126	13.931	1050.916	811.373
41.140	13.784	1050.032	809.900
42.155	13.834	1048.765	809.096
43.169	13.695	1048.125	807.854
44.184	13.641	1046.932	806.598
45.199	13.570	1046.032	805.489
46.213	13.767	1044.461	805.164
47.228	13.797	1043.860	804.775
48.242	13.791	1043.036	804.037
49.257	13.772	1041.742	802.877
50.271	13.683	1040.807	801.658
51.286	13.687	1040.271	801.191
52.301	13.803	1039.183	800.843
53.315	13.723	1038.741	800.047
54.330	13.680	1037.532	798.836
55.344	13.688	1037.122	798.488
56.359	13.762	1035.570	797.577
57.374	13.613	1034.872	796.256
58.388	13.824	1033.536	796.172
59.403	13.752	1033.050	795.378
60.417	13.650	1032.467	794.370
61.432	13.482	1032.199	793.289
62.447	13.705	1030.884	793.274
63.461	13.606	1030.282	792.271
64.476	13.733	1028.943	791.776
65.490	13.631	1028.283	790.712
66.505	13.545	1027.614	789.715
67.520	13.672	1026.641	789.505
68.534	13.730	1026.144	789.329
69.549	13.686	1024.950	788.132
70.563	13.670	1024.550	787.679
71.578	13.675	1023.606	786.906
72.593	13.587	1023.021	785.968
73.607	13.568	1022.017	785.038
74.622	13.582	1020.981	784.238
75.636	13.636	1020.081	783.732
76.651	13.474	1019.654	782.570
77.666	13.539	1019.060	782.351
78.680	13.504	1018.057	781.348
79.695	13.537	1017.401	780.932
80.709	13.548	1017.064	780.656
81.724	13.603	1015.691	779.794
82.739	13.604	1015.218	779.364
83.753	13.686	1014.165	778.871
84.768	13.752	1013.302	778.447
85.782	13.713	1012.460	777.549
86.797	13.777	1011.963	777.398
87.812	13.814	1010.987	776.757
88.826	13.726	1010.362	775.793
89.841	13.778	1009.345	775.187
90.855	13.730	1008.636	774.349
91.870	13.594	1008.182	773.297
92.884	13.713	1007.176	773.016
93.899	13.743	1006.673	772.699
94.914	13.872	1005.364	772.225
95.928	13.922	1004.643	771.834
96.943	13.903	1004.344	771.452
97.957	13.910	1003.024	770.403
98.972	13.833	1002.635	769.676
99.987	13.789	1002.000	768.917
101.001	13.865	1001.135	768.539
102.016	13.859	1000.223	767.740
103.030	13.786	999.426	766.724
104.045	13.784	998.721	766.106
105.060	13.822	997.622	765.372
106.074	13.791	996.228	764.090
107.089	13.753	995.929	763.621
108.103	13.709	995.009	762.644
109.118	13.627	994.311	761.665
110.133	13.669	993.269	760.991
111.147	13.709	991.906	760.063
112.162	13.833	991.338	760.126
113.176	13.620	990.987	758.819
114.191	13.707	989.687	758.152
115.206	13.671	989.078	757.453
116.220	13.732	987.958	756.807
117.235	13.759	987.251	756.324
118.249	13.825	986.381	755.889
119.264	13.814	985.727	755.272
120.279	13.717	984.943	754.162
121.293	13.590	984.124	752.893
122.308	13.706	983.056	752.536
123.322	13.766	982.225	752.106
124.337	13.679	981.348	750.972
125.352	13.755	980.104	750.297
126.366	13.667	979.013	748.997
127.381	13.700	977.986	748.295
128.395	13.654	976.772	747.094
129.410	13.622	976.053	746.334
130.424	13.628	975.423	745.813
131.439	13.703	974.218	745.160
132.454	13.791	973.823	745.191
133.468	13.804	973.106	744.634
134.483	13.777	972.434	743.933
135.497	13.931	971.351	743.728
136.512	13.745	970.998	742.558
137.527	13.706	970.038	741.582
138.541	13.833	968.959	741.260
139.556	13.775	968.334	740.458
140.570	13.730	967.704	739.710
141.585	13.766	966.972	739.246
142.600	13.804	966.262	738.808
143.614	13.831	965.220	738.066
144.629	13.915	964.282	737.655
145.643	13.955	963.766	737.371
146.658	13.949	962.934	736.643
147.673	13.875	961.869	735.435
148.687	13.770	961.187	734.388
149.702	13.785	960.370	733.764
150.716	13.841	959.288	733.117
151.731	13.847	958.424	732.417
152.746	13.769	957.955	731.654
153.760	13.833	957.080	731.201
154.775	13.924	955.859	730.603
155.789	13.969	955.273	730.289
156.804	13.983	954.602	729.773
157.819	13.972	953.682	728.957
158.833	13.917	953.291	728.351
159.848	13.974	953.155	728.433
160.862	13.917	951.952	727.201
161.877	14.004	951.064	726.837
162.892	14.021	950.422	726.358
163.906	13.962	949.382	725.241
164.921	13.974	948.501	724.558
165.935	13.852	947.691	723.344
166.950	13.981	946.547	722.968
167.964	13.903	945.782	721.982
168.979	14.099	944.586	721.853
169.994	13.898	944.206	720.627
171.008	14.037	943.313	720.483
172.023	13.984	942.491	719.564
173.037	14.068	941.464	719.078
174.052	14.261	940.600	719.188
175.067	14.125	939.804	717.931
176.081	13.999	939.451	717.053
177.096	14.106	938.674	716.856
178.110	14.044	937.589	715.700
179.125	14.014	936.728	714.849
180.140	14.102	936.321	714.855
181.154	14.020	935.548	713.848
182.169	14.153	934.916	713.874
183.183	13.943	934.719	712.757
184.198	14.225	933.590	713.044
185.213	14.204	932.907	712.366
186.227	14.184	932.107	711.607
187.242	14.105	931.953	711.091
188.256	14.312	931.083	711.248
189.271	14.268	930.484	710.539
190.286	14.293	929.295	709.675
191.300	14.163	928.600	708.529
192.315	14.140	928.006	707.913
193.329	14.063	927.501	707.139
194.344	14.017	926.560	706.162
195.359	14.286	925.568	706.486
196.373	14.252	925.454	706.191
197.388	14.270	925.065	705.912
198.402	14.304	924.719	705.729
199.417	14.473	923.776	705.659
200.432	14.395	923.639	705.162
201.446	14.402	922.966	704.617
202.461	14.463	922.516	704.469
203.475	14.614	922.099	704.724
204.490	14.561	921.388	703.898
205.504	14.356	920.758	702.490
206.519	14.432	919.917	702.104
207.534	14.486	918.847	701.454
208.548	14.459	918.159	700.754
209.563	14.362	917.637	699.884
210.577	14.520	916.584	699.681
211.592	14.527	916.084	699.270
212.607	14.595	915.396	698.965
213.621	14.591	915.247	698.775
214.636	14.533	914.251	697.711
215.650	14.580	913.625	697.364
216.665	14.714	913.133	697.489
217.680	14.533	912.800	696.415
218.694	14.604	912.546	696.457
219.709	14.640	911.787	695.966
220.723	14.790	910.647	695.661
221.738	14.694	910.168	694.833
222.753	14.756	909.565	694.568
223.767	14.765	908.706	693.890
224.782	14.784	907.902	693.292
225.796	14.724	907.162	692.416
226.811	14.771	906.596	692.118
227.826	14.739	906.126	691.564
228.840	14.850	904.986	691.094
229.855	14.800	904.456	690.422
230.869	14.696	903.990	689.575
231.884	14.727	903.301	689.115
232.899	14.710	902.550	688.410
233.913	14.693	901.984	687.851
234.928	14.771	901.071	687.414
235.942	14.777	900.223	686.729
236.957	14.820	899.628	686.391
237.972	14.814	899.260	686.025
238.986	14.942	898.493	685.907
240.001	14.716	897.988	684.531
241.015	14.878	896.999	684.381
242.030	14.849	896.539	683.853
243.045	14.964	895.781	683.684
244.059	14.968	895.132	683.143
245.074	14.904	894.622	682.432
246.088	14.909	894.109	682.001
247.103	14.972	893.555	681.775
248.117	14.983	892.601	681.031
249.132	14.951	892.034	680.408
250.147	15.115	891.602	680.685
251.161	15.101	890.890	680.024
252.176	15.199	890.198	679.833
253.190	15.365	889.334	679.787
254.205	15.150	888.920	678.539
255.220	15.409	888.253	679.017
256.234	15.420	887.337	678.303
257.249	15.247	886.897	677.208
258.263	15.409	886.694	677.645
259.278	15.237	886.146	676.473
260.293	15.312	885.697	676.373
261.307	15.304	884.820	675.612
262.322	15.607	883.914	676.078
263.336	15.407	883.970	675.257
264.351	15.463	882.969	674.661
265.366	15.521	882.130	674.190
266.380	15.486	881.846	673.774
267.395	15.701	880.864	673.826
268.409	15.602	880.181	672.846
269.424	15.431	879.565	671.634
270.439	15.457	878.874	671.149
271.453	15.569	878.242	671.053
272.468	15.411	877.571	669.850
273.482	15.419	877.162	669.511
274.497	15.424	876.340	668.845
275.512	15.502	875.465	668.428
276.526	15.396	874.959	667.562
277.541	15.455	874.356	667.278
278.555	15.526	873.762	667.047
279.570	15.648	873.120	666.982
280.585	15.667	872.682	666.664
281.599	15.703	871.870	666.125
282.614	15.700	871.308	665.628
283.628	15.653	870.713	664.928
284.643	15.879	870.072	665.272
285.657	15.685	870.129	664.491
286.672	15.768	869.431	664.227
287.687	15.714	868.840	663.502
288.701	15.883	868.205	663.628
289.716	15.793	867.779	662.887
290.730	15.766	867.090	662.196
291.745	15.818	866.359	661.782
292.760	15.817	865.474	661.046
293.774	15.888	865.144	661.011
294.789	16.127	864.435	661.351
295.803	15.977	863.698	660.139
296.818	15.922	863.483	659.701
297.833	15.959	862.864	659.314
298.847	15.967	862.170	658.757
299.862	15.894	861.322	657.766
300.876	15.887	860.837	657.312
301.891	16.021	859.943	657.094
302.906	16.004	859.060	656.294
303.920	16.143	858.408	656.276
304.935	16.069	857.891	655.538
305.949	16.163	857.113	655.251
306.964	16.112	856.846	654.789
307.979	16.023	856.457	654.088
308.993	16.078	855.616	653.600
310.008	16.205	855.239	653.747
311.022	16.345	854.458	653.636
312.037	16.103	854.296	652.518
313.052	16.248	853.739	652.594
314.066	16.059	853.224	651.412
315.081	16.124	852.342	650.933
316.095	16.076	852.007	650.434
317.110	16.034	851.580	649.890
318.125	16.089	851.058	649.643
319.139	16.140	850.110	649.061
320.154	16.159	849.677	648.743
321.168	16.206	849.739	648.917
322.183	16.129	848.869	647.896
323.197	16.259	848.119	647.767
324.212	16.210	847.462	647.022
325.227	16.338	846.964	647.073
326.241	16.149	846.745	646.123
327.256	16.190	845.847	645.540
328.270	16.446	845.180	645.952
329.285	16.299	844.719	644.980
330.300	16.261	844.057	644.273
331.314	16.256	843.744	643.957
332.329	16.158	843.078	643.017
333.343	16.433	842.170	643.314
334.358	16.339	842.010	642.779
335.373	16.360	841.438	642.365
336.387	16.505	840.505	642.148
337.402	16.472	839.967	641.554
338.416	16.345	839.911	640.974
339.431	16.497	839.218	640.965
340.446	16.520	838.536	640.473
341.460	16.668	837.572	640.239
342.475	16.633	837.168	639.742
343.489	16.551	837.050	639.285
344.504	16.678	836.182	639.047
345.519	16.624	835.845	638.528
346.533	16.666	834.881	637.894
347.548	16.721	834.714	637.916
348.562	16.745	834.131	637.505
349.577	16.648	833.700	636.754
350.592	16.610	832.980	636.004
351.606	16.620	832.629	635.718
352.621	16.756	831.869	635.593
353.635	16.647	831.693	634.991
354.650	16.712	831.179	634.786
355.665	16.766	830.858	634.690
356.679	16.851	830.110	634.377
357.694	16.762	829.840	633.785
358.708	16.686	829.132	632.904
359.723	16.985	828.177	633.236
360.738	16.689	828.113	632.022
361.752	16.898	827.207	632.057
362.767	16.830	827.087	631.655
363.781	16.714	826.882	631.010
364.796	16.850	826.438	631.121
365.810	16.855	826.091	630.819
366.825	16.972	825.313	630.604
367.840	17.060	825.197	630.789
368.854	17.047	824.615	630.238
369.869	17.086	824.149	629.970
370.883	16.976	823.513	629.020
371.898	16.988	823.506	629.003
372.913	17.057	822.205	628.211
373.927	17.087	821.617	627.818
374.942	17.081	820.872	627.172
375.956	17.182	820.161	626.945
376.971	17.231	819.827	626.813
377.986	17.112	819.564	626.118
379.000	17.323	818.523	626.047
380.015	17.194	818.393	625.415
381.029	17.241	817.741	625.033
382.044	17.314	817.431	625.012
383.059	17.334	816.598	624.391
384.073	17.210	816.146	623.535
385.088	17.219	815.861	623.296
386.102	17.254	815.106	622.792
387.117	17.471	814.446	623.025
388.132	17.285	814.229	622.124
389.146	17.231	813.830	621.570
390.161	17.439	812.945	621.596
391.175	17.463	812.758	621.485
392.190	17.443	812.583	621.225
393.205	17.326	812.122	620.391
394.219	17.299	811.863	620.039
395.234	17.353	811.414	619.840
396.248	17.329	810.710	619.159
397.263	17.244	810.151	618.367
398.278	17.364	809.608	618.336
399.292	17.427	809.071	618.100
400.307	17.326	808.845	617.505
401.321	17.294	808.375	616.974
402.336	17.507	807.857	617.298
403.350	17.509	807.606	617.057
404.365	17.597	807.001	616.862
405.380	17.602	806.421	616.378
406.394	17.609	806.136	616.131
407.409	17.605	805.405	615.506
408.423	17.591	805.288	615.310
409.438	17.549	804.810	614.741
410.453	17.647	804.332	614.673
411.467	17.619	803.933	614.212
412.482	17.875	803.343	614.629
413.496	17.796	802.967	614.002
414.511	17.807	802.321	613.496
415.526	17.683	802.666	613.257
416.540	17.649	802.147	612.685
417.555	17.685	801.637	612.371
418.569	17.793	801.196	612.367
419.584	17.860	800.405	611.948
420.599	17.677	799.958	610.898
421.613	98.302	1274.659	1409.599
422.628	84.210	1343.840	1409.719
