DTS Sentinel unit serial number:	SN413079Multiplexer serial number:	ORYXHardware model number:	OX4-SRSoftware version number:	ORYX F/W v4.00 Oryx Data Collector v3.7.2.0data status	okinstallation	princeton_trtdifferential loss correction	single-endedforward channel	channel 3reverse channel	N/Adate	2019/09/18time	05:44:35forward acquisition time	60.00reverse acquisition time	0.00gamma	496.2192k internal	0.2343k external	0.2343temperature offset calibration	0.9949default loss term (dB/km)	0.3790temperature slope calibration	1.0000multiplexer offset coefficient	1.0000multiplexer slope coefficient	1.0000fibre end	0.00T internal ref (°C)	23.31T ext. ref 1 (°C)	0.18T ext. ref 2 (°C)	16.88length (m)	temperature (°C)	Stokes	anti-Stokes-747.200	-11.339	-0.265	-0.175
-746.185	-100.535	0.124	0.031
-745.171	516.638	0.085	0.198
-744.156	-94.872	-0.208	-0.057
-743.142	61.977	-0.117	0.117
-742.127	82.905	-0.138	0.150
-741.112	71.220	-0.168	0.175
-740.098	280.403	0.012	0.022
-739.083	-18.775	-0.300	0.187
-738.069	800.000	-0.040	0.115
-737.054	800.000	0.047	0.159
-736.039	189.792	-0.231	-0.347
-735.025	-200.000	0.010	-0.059
-734.010	800.000	0.108	-0.373
-732.996	-128.465	-0.225	-0.032
-731.981	-200.000	0.000	-0.169
-730.966	-94.162	-0.106	0.029
-729.952	513.121	-0.096	0.224
-728.937	-60.683	-0.135	-0.057
-727.923	140.711	-0.061	-0.080
-726.908	-200.000	-0.064	0.382
-725.894	-200.000	-0.000	-0.147
-724.879	24.774	0.308	-0.255
-723.864	-200.000	-0.010	0.056
-722.850	-200.000	-0.062	-0.343
-721.835	800.000	0.028	-0.104
-720.821	-17.549	-0.075	0.047
-719.806	-63.806	-0.370	-0.152
-718.791	237.089	0.079	-0.131
-717.777	-187.980	-0.312	0.004
-716.762	-200.000	-0.156	0.001
-715.748	-200.000	-0.054	0.270
-714.733	111.887	0.202	0.244
-713.718	800.000	-0.098	0.293
-712.704	-63.079	0.167	-0.069
-711.689	-82.457	-0.084	-0.027
-710.675	-18.593	-0.181	-0.113
-709.660	-137.126	0.187	-0.021
-708.645	-200.000	-0.011	-0.162
-707.631	596.518	0.083	-0.207
-706.616	355.105	-0.138	0.274
-705.602	86.062	0.085	0.093
-704.587	173.772	0.153	0.220
-703.572	-150.468	0.155	-0.012
-702.558	10.267	0.281	0.214
-701.543	-200.000	0.007	0.279
-700.529	-35.728	-0.251	-0.136
-699.514	26.999	0.056	0.047
-698.499	520.533	-0.055	-0.130
-697.485	-13.691	-0.315	0.204
-696.470	-200.000	0.030	-0.237
-695.456	17.773	-0.263	-0.209
-694.441	-59.477	0.094	0.040
-693.426	754.544	0.063	0.171
-692.412	-179.750	0.052	-0.001
-691.397	-121.686	-0.117	-0.019
-690.383	-39.794	-0.400	-0.209
-689.368	-145.724	0.133	-0.012
-688.354	357.228	-0.054	-0.108
-687.339	194.098	0.057	-0.087
-686.324	-129.306	0.137	-0.019
-685.310	374.846	0.120	-0.244
-684.295	-117.925	0.051	-0.009
-683.281	-200.000	-0.002	-0.064
-682.266	-33.592	0.343	-0.189
-681.251	-46.046	0.220	-0.108
-680.237	4.422	0.378	-0.277
-679.222	-57.331	-0.156	0.068
-678.208	-122.298	-0.284	-0.046
-677.193	800.000	0.057	0.175
-676.178	70.293	0.140	0.144
-675.164	-200.000	-0.009	0.305
-674.149	-200.000	-0.024	0.164
-673.135	219.629	-0.163	0.260
-672.120	334.097	0.059	-0.114
-671.105	121.134	0.088	-0.109
-670.091	77.590	-0.105	-0.111
-669.076	-78.632	-0.274	-0.094
-668.062	-115.101	-0.233	-0.044
-667.047	800.000	0.066	-0.244
-666.032	-23.382	0.321	-0.193
-665.018	-200.000	0.006	0.038
-664.003	-200.000	-0.005	0.112
-662.989	5.341	-0.253	0.186
-661.974	800.000	0.048	0.205
-660.959	416.031	0.071	-0.151
-659.945	93.700	-0.162	-0.183
-658.930	-42.037	-0.029	0.015
-657.916	-98.008	-0.217	-0.056
-656.901	-200.000	0.009	-0.218
-655.886	78.892	-0.156	0.167
-654.872	-35.669	0.187	-0.101
-653.857	-118.265	-0.036	-0.006
-652.843	127.408	-0.230	-0.291
-651.828	262.148	0.154	0.267
-650.814	233.472	-0.189	-0.311
-649.799	265.808	-0.161	-0.280
-648.784	395.615	-0.138	-0.288
-647.770	-64.304	0.260	-0.105
-646.755	153.490	-0.173	0.236
-645.741	-23.492	0.166	0.099
-644.726	-119.630	-0.239	0.041
-643.711	-200.000	0.061	0.385
-642.697	463.476	0.075	0.168
-641.682	-200.000	-0.020	0.125
-640.668	209.371	-0.136	0.212
-639.653	800.000	-0.055	-0.178
-638.638	230.051	-0.200	0.327
-637.624	104.582	0.237	0.279
-636.609	-135.224	-0.092	-0.011
-635.595	91.761	0.056	0.063
-634.580	185.300	-0.190	-0.281
-633.565	-188.722	0.430	0.005
-632.551	29.437	-0.187	0.158
-631.536	-73.901	0.243	0.088
-630.522	-200.000	-0.116	0.571
-629.507	-52.309	0.362	-0.167
-628.492	-200.000	-0.045	-0.224
-627.478	-200.000	-0.018	-0.118
-626.463	-101.517	0.196	0.047
-625.449	278.993	-0.032	-0.057
-624.434	-121.086	0.262	0.044
-623.419	-86.334	-0.140	-0.043
-622.405	237.437	-0.075	-0.124
-621.390	122.357	0.043	-0.053
-620.376	304.029	0.143	-0.264
-619.361	-58.262	0.106	-0.046
-618.346	-123.307	-0.142	0.023
-617.332	-200.000	-0.000	0.210
-616.317	-62.690	-0.082	-0.034
-615.303	5.614	0.115	0.085
-614.288	-150.579	-0.124	-0.009
-613.273	800.000	-0.039	0.140
-612.259	164.639	-0.072	-0.102
-611.244	-200.000	-0.009	-0.062
-610.230	-31.113	-0.186	0.104
-609.215	280.042	0.223	-0.398
-608.201	-82.826	-0.152	0.049
-607.186	306.263	0.103	-0.191
-606.171	-115.768	-0.291	-0.054
-605.157	-48.807	0.245	-0.117
-604.142	-92.040	0.376	-0.106
-603.128	124.155	-0.100	-0.124
-602.113	-43.715	-0.065	-0.033
-601.098	-200.000	0.064	-0.282
-600.084	49.406	-0.120	-0.113
-599.069	72.777	-0.168	-0.175
-598.055	233.362	-0.094	-0.154
-597.040	-47.465	-0.296	0.143
-596.025	-31.457	0.162	-0.090
-595.011	9.812	-0.164	0.123
-593.996	800.000	0.107	0.299
-592.982	-200.000	-0.002	-0.039
-591.967	409.457	0.062	-0.131
-590.952	-101.422	0.416	-0.101
-589.938	-200.000	0.022	-0.232
-588.923	-19.186	-0.096	-0.059
-587.909	139.394	0.215	0.281
-586.894	-127.002	0.159	-0.023
-585.879	92.949	-0.123	0.139
-584.865	-39.103	0.202	0.106
-583.850	800.000	0.137	-0.597
-582.836	-57.124	-0.261	-0.115
-581.821	74.432	-0.044	-0.046
-580.806	-105.415	-0.094	0.021
-579.792	-147.247	0.114	0.010
-578.777	-174.204	-0.229	-0.007
-577.763	-86.202	-0.384	0.118
-576.748	-200.000	-0.058	-0.334
-575.733	182.631	0.149	0.218
-574.719	-118.481	0.322	-0.057
-573.704	36.042	0.088	-0.077
-572.690	-200.000	0.039	-0.263
-571.675	-200.000	0.053	-0.363
-570.661	-169.950	-0.369	0.013
-569.646	-53.184	-0.417	-0.190
-568.631	800.000	0.004	0.014
-567.617	-32.339	-0.136	-0.075
-566.602	800.000	-0.070	0.202
-565.588	-105.371	-0.070	0.016
-564.573	-79.108	0.076	0.026
-563.558	800.000	0.012	0.045
-562.544	-65.832	-0.010	-0.004
-561.529	-87.463	-0.132	0.040
-560.515	-161.080	0.284	0.015
-559.500	-162.559	0.384	-0.019
-558.485	-120.471	0.092	0.016
-557.471	-23.973	-0.214	-0.127
-556.456	-81.270	-0.116	-0.038
-555.442	-200.000	0.011	0.140
-554.427	-73.895	0.055	-0.020
-553.412	-61.944	-0.112	0.047
-552.398	-84.391	-0.180	-0.056
-551.383	-37.781	0.185	0.098
-550.369	-109.496	0.150	-0.031
-549.354	128.342	-0.096	-0.121
-548.339	-61.049	0.254	-0.107
-547.325	47.652	-0.220	-0.204
-546.310	572.459	-0.149	-0.362
-545.296	-37.703	0.227	0.120
-544.281	597.294	0.122	0.301
-543.266	-200.000	-0.081	-0.400
-542.252	394.680	0.076	-0.158
-541.237	-143.797	0.158	0.015
-540.223	34.345	-0.193	0.168
-539.208	136.417	0.174	-0.225
-538.193	281.962	0.144	0.257
-537.179	-34.769	0.248	-0.135
-536.164	322.760	0.105	-0.198
-535.150	352.122	-0.235	-0.463
-534.135	19.309	-0.154	0.123
-533.121	532.664	0.156	0.366
-532.106	-122.621	0.280	0.045
-531.091	-19.607	0.110	-0.068
-530.077	156.538	-0.125	-0.172
-529.062	-200.000	0.019	-0.258
-528.048	527.801	0.072	-0.169
-527.033	77.328	-0.068	-0.072
-526.018	800.000	-0.048	0.176
-525.004	-58.765	0.253	-0.109
-523.989	87.634	0.290	0.319
-522.975	-23.841	-0.136	-0.081
-521.960	230.506	0.182	0.295
-520.945	330.642	-0.127	-0.243
-519.931	-42.009	-0.310	-0.157
-518.916	800.000	0.065	-0.188
-517.902	384.102	-0.109	-0.224
-516.887	-33.770	-0.101	0.055
-515.872	-42.640	-0.173	0.087
-514.858	-80.348	0.169	0.056
-513.843	-200.000	-0.003	0.350
-512.829	-22.345	0.370	0.222
-511.814	191.658	0.102	0.152
-510.799	-200.000	-0.009	0.290
-509.785	-128.433	0.144	-0.020
-508.770	-200.000	0.019	0.176
-507.756	800.000	0.062	0.208
-506.741	800.000	0.090	-0.292
-505.726	-32.334	0.035	-0.019
-504.712	788.510	-0.068	0.186
-503.697	-81.755	-0.343	0.111
-502.683	-51.137	0.187	0.087
-501.668	150.822	0.250	0.337
-500.653	-35.005	0.299	0.162
-499.639	-100.816	0.235	-0.057
-498.624	-150.726	-0.358	-0.027
-497.610	800.000	0.028	0.083
-496.595	-12.972	0.216	0.139
-495.581	44.326	-0.252	-0.229
-494.566	-29.693	0.229	-0.129
-493.551	271.783	0.119	-0.209
-492.537	33.589	0.237	-0.204
-491.522	200.700	-0.235	-0.358
-490.508	-200.000	-0.087	0.414
-489.493	-104.160	-0.127	-0.029
-488.478	-200.000	0.019	-0.120
-487.464	-116.340	-0.062	-0.011
-486.449	96.627	-0.052	-0.060
-485.435	-101.821	0.214	-0.051
-484.420	718.417	0.064	0.167
-483.405	465.223	-0.102	-0.226
-482.391	4.114	0.292	0.212
-481.376	-116.329	0.056	0.010
-480.362	-200.000	-0.027	0.173
-479.347	-200.000	-0.051	-0.226
-478.332	676.771	0.067	-0.173
-477.318	-200.000	0.000	-0.111
-476.303	-102.864	-0.442	0.104
-475.289	-109.869	-0.069	0.014
-474.274	193.686	0.194	-0.292
-473.259	-24.642	0.102	0.060
-472.245	-200.000	0.032	-0.178
-471.230	-130.266	-0.163	0.022
-470.216	14.364	0.233	0.180
-469.201	43.327	0.162	-0.147
-468.186	-62.186	0.127	0.052
-467.172	-200.000	-0.017	0.123
-466.157	88.021	-0.142	0.156
-465.143	800.000	-0.121	0.356
-464.128	-200.000	0.007	0.255
-463.113	-134.050	0.169	0.021
-462.099	-1.455	-0.221	-0.155
-461.084	130.040	0.115	-0.146
-460.070	-104.278	-0.188	-0.043
-459.055	-186.045	-0.209	0.003
-458.040	68.078	0.184	0.187
-457.026	323.956	-0.122	0.231
-456.011	-52.981	-0.096	-0.044
-454.997	-22.119	-0.253	0.152
-453.982	-61.739	-0.230	0.095
-452.968	47.078	0.076	-0.070
-451.953	800.000	-0.072	-0.217
-450.938	-72.654	-0.315	0.115
-449.924	800.000	0.058	0.212
-448.909	158.971	0.181	-0.249
-447.895	-200.000	0.019	-0.319
-446.880	193.061	-0.045	0.068
-445.865	-200.000	0.002	-0.060
-444.851	-75.128	-0.223	-0.079
-443.836	-45.372	-0.302	-0.148
-442.822	-68.255	-0.359	0.138
-441.807	-36.147	-0.151	-0.081
-440.792	-200.000	-0.013	-0.303
-439.778	-200.000	-0.041	0.181
-438.763	274.147	0.115	-0.202
-437.749	-34.083	0.322	-0.175
-436.734	67.887	0.240	0.243
-435.719	-157.444	-0.187	-0.011
-434.705	78.325	0.065	-0.069
-433.690	-64.964	0.151	0.060
-432.676	-200.000	-0.069	-0.308
-431.661	293.785	-0.162	0.293
-430.646	-114.352	-0.089	-0.017
-429.632	27.493	-0.135	0.112
-428.617	-97.336	0.239	0.062
-427.603	-13.512	0.151	-0.097
-426.588	25.540	-0.348	0.286
-425.573	-91.851	-0.237	-0.066
-424.559	-3.058	-0.094	0.065
-423.544	-34.866	-0.178	-0.096
-422.530	-93.118	-0.284	0.078
-421.515	-200.000	-0.027	-0.262
-420.500	-108.362	0.167	0.036
-419.486	550.368	-0.016	0.038
-418.471	-31.629	-0.054	0.030
-417.457	385.001	0.081	0.165
-416.442	-71.643	-0.244	-0.090
-415.428	-83.324	-0.063	0.020
-414.413	800.000	-0.055	-0.228
-413.398	-106.262	0.465	0.103
-412.384	-9.153	-0.294	0.194
-411.369	-37.564	0.154	-0.081
-410.355	91.656	-0.102	0.113
-409.340	-19.563	0.162	0.099
-408.325	27.004	0.109	0.090
-407.311	193.921	0.021	0.031
-406.296	114.223	0.354	0.426
-405.282	581.088	-0.144	0.350
-404.267	66.576	0.313	0.315
-403.252	-200.000	0.004	-0.056
-402.238	226.950	0.104	-0.167
-401.223	-94.732	-0.076	0.021
-400.209	-200.000	-0.025	0.151
-399.194	12.457	-0.097	0.074
-398.179	-200.000	0.018	-0.083
-397.165	-126.065	0.060	0.009
-396.150	-51.968	0.168	0.077
-395.136	-75.287	-0.466	0.164
-394.121	-87.012	0.351	-0.106
-393.106	800.000	-0.072	-0.239
-392.092	226.391	-0.132	-0.211
-391.077	114.270	-0.189	-0.228
-390.063	-200.000	0.010	0.229
-389.048	-74.594	-0.059	0.021
-388.033	-47.323	-0.016	-0.008
-387.019	-135.899	-0.398	0.046
-386.004	-200.000	-0.030	-0.210
-384.990	-200.000	0.038	-0.327
-383.975	-200.000	0.023	0.111
-382.960	-48.287	0.255	0.121
-381.946	299.341	0.074	0.135
-380.931	-200.000	-0.001	-0.421
-379.917	147.491	-0.053	0.071
-378.902	-167.575	0.184	-0.007
-377.888	-87.878	-0.398	-0.118
-376.873	-200.000	0.023	-0.236
-375.858	800.000	-0.049	-0.146
-374.844	-33.904	-0.179	-0.097
-373.829	-12.021	-0.076	0.049
-372.815	411.028	0.187	0.392
-371.800	-101.560	-0.103	0.025
-370.785	-66.913	-0.252	0.098
-369.771	-115.965	0.322	-0.059
-368.756	-200.000	0.004	0.123
-367.742	800.000	0.039	0.139
-366.727	-46.314	-0.186	0.090
-365.712	-200.000	0.004	0.243
-364.698	86.111	0.069	-0.075
-363.683	27.070	0.272	-0.225
-362.669	72.080	-0.106	0.109
-361.654	-4.768	0.168	-0.114
-360.639	-200.000	-0.066	0.294
-359.625	-71.568	-0.086	0.032
-358.610	31.934	-0.029	-0.025
-357.596	-200.000	-0.018	0.182
-356.581	-96.593	-0.224	-0.058
-355.566	-200.000	-0.023	-0.169
-354.552	129.843	-0.219	-0.277
-353.537	-70.329	-0.364	-0.136
-352.523	10.099	0.383	0.287
-351.508	32.123	-0.088	0.075
-350.493	-10.204	-0.218	-0.142
-349.479	-67.514	0.222	0.086
-348.464	-66.616	-0.123	-0.048
-347.450	800.000	-0.135	0.383
-346.435	160.188	-0.088	0.121
-345.420	276.765	-0.103	-0.180
-344.406	51.429	0.074	0.069
-343.391	-200.000	-0.028	0.301
-342.377	-164.548	-0.435	0.019
-341.362	387.056	-0.053	0.109
-340.348	327.713	0.146	-0.276
-339.333	-73.572	-0.082	0.030
-338.318	1.168	0.156	-0.110
-337.304	-97.401	-0.292	0.075
-336.289	-136.453	-0.120	0.014
-335.275	-200.000	0.040	0.293
-334.260	-15.439	-0.327	0.206
-333.245	287.419	0.149	-0.265
-332.231	-48.017	0.164	0.078
-331.216	-200.000	0.008	-0.055
-330.202	62.481	0.278	-0.273
-329.187	-78.066	-0.274	0.093
-328.172	-95.040	0.178	-0.047
-327.158	87.262	-0.090	-0.099
-326.143	398.691	-0.079	0.162
-325.129	-144.878	-0.184	-0.017
-324.114	-48.570	0.295	-0.140
-323.099	145.520	0.033	-0.043
-322.085	230.227	-0.117	-0.189
-321.070	-6.228	-0.238	0.160
-320.056	800.000	-0.090	-0.262
-319.041	93.339	-0.201	-0.224
-318.026	-59.352	-0.205	-0.087
-317.012	89.025	0.140	-0.154
-315.997	-37.310	-0.462	-0.243
-314.983	-64.236	0.154	0.062
-313.968	569.299	-0.152	-0.364
-312.953	-200.000	0.005	0.214
-311.939	-26.123	0.177	-0.102
-310.924	-114.938	-0.288	0.054
-309.910	260.368	-0.216	0.367
-308.895	70.330	-0.177	0.180
-307.880	-200.000	0.071	0.483
-306.866	-128.521	-0.152	0.021
-305.851	-96.564	0.188	-0.049
-304.837	-155.315	-0.280	0.018
-303.822	349.278	0.093	-0.180
-302.807	-31.074	0.135	0.075
-301.793	172.528	0.116	0.164
-300.778	4.736	0.229	-0.165
-299.764	101.142	-0.062	-0.071
-298.749	-86.641	0.234	0.071
-297.735	-200.000	0.013	0.079
-296.720	72.640	-0.238	0.245
-295.705	256.255	0.187	0.316
-294.691	243.961	0.051	-0.085
-293.676	-200.000	0.042	-0.260
-292.662	-134.869	-0.098	-0.012
-291.647	-200.000	0.023	0.412
-290.632	648.663	-0.105	0.264
-289.618	-7.621	-0.170	0.113
-288.603	132.583	-0.132	-0.167
-287.589	-200.000	-0.073	-0.321
-286.574	-169.298	-0.162	0.006
-285.559	523.363	0.077	-0.178
-284.545	-118.455	0.326	0.057
-283.530	-115.364	-0.436	-0.081
-282.516	44.577	-0.095	-0.086
-281.501	83.114	0.152	0.162
-280.486	-74.113	0.272	0.097
-279.472	631.292	0.073	-0.182
-278.457	800.000	0.065	-0.205
-277.443	-70.260	-0.386	0.144
-276.428	-105.592	-0.337	0.075
-275.413	126.467	-0.042	-0.053
-274.399	-200.000	-0.009	0.160
-273.384	-72.270	-0.084	-0.031
-272.370	-200.000	-0.031	-0.216
-271.355	-32.891	0.257	-0.140
-270.340	116.467	-0.159	0.191
-269.326	-75.530	-0.101	-0.035
-268.311	-200.000	-0.009	-0.215
-267.297	720.316	-0.101	0.264
-266.282	26.167	0.143	0.118
-265.267	-200.000	-0.062	-0.000
-264.253	47.994	0.318	-0.292
-263.238	108.754	0.246	-0.289
-262.224	261.493	0.128	0.218
-261.209	-67.390	0.315	0.121
-260.195	60.095	-0.106	0.103
-259.180	-154.988	0.186	-0.012
-258.165	-89.948	0.466	-0.134
-257.151	-19.784	-0.360	0.218
-256.136	-132.474	0.206	0.026
-255.122	-66.161	-0.212	-0.083
-254.107	178.232	0.086	0.124
-253.092	-71.127	0.204	-0.075
-252.078	800.000	-0.122	-0.349
-251.063	-67.026	-0.129	0.050
-250.049	-63.571	-0.258	-0.104
-249.034	107.597	-0.179	-0.209
-248.019	505.389	-0.117	0.266
-247.005	-182.100	-0.095	-0.002
-245.990	-93.986	0.159	0.043
-244.976	313.111	0.082	0.151
-243.961	-200.000	0.003	0.173
-242.946	217.692	0.052	0.082
-241.932	-108.250	-0.176	0.037
-240.917	-35.188	0.294	0.157
-239.903	-200.000	0.059	-0.255
-238.888	800.000	0.050	-0.157
-237.873	227.100	-0.134	0.214
-236.859	-146.796	-0.151	0.013
-235.844	345.078	-0.098	0.188
-234.830	-93.468	0.292	-0.079
-233.815	21.737	-0.265	0.212
-232.800	131.029	0.168	-0.211
-231.786	103.150	-0.123	0.141
-230.771	-102.663	0.294	0.069
-229.757	-144.175	0.124	0.011
-228.742	-200.000	-0.017	0.262
-227.727	228.577	0.306	-0.489
-226.713	-200.000	-0.033	0.276
-225.698	-83.482	-0.308	0.097
-224.684	-25.542	0.145	0.084
-223.669	-200.000	0.051	0.245
-222.655	129.212	0.238	0.297
-221.640	-96.714	-0.064	-0.016
-220.625	277.216	0.079	0.138
-219.611	-15.959	0.254	-0.158
-218.596	430.696	0.158	-0.336
-217.582	-70.483	-0.009	0.003
-216.567	800.000	0.086	0.251
-215.552	800.000	0.092	-0.288
-214.538	800.000	0.048	0.140
-213.523	309.881	0.167	-0.306
-212.509	-53.478	0.172	0.077
-211.494	585.671	0.143	-0.344
-210.479	-200.000	-0.030	-0.431
-209.465	-37.351	-0.024	0.013
-208.450	200.928	-0.055	-0.084
-207.436	-75.286	-0.199	0.070
-206.421	647.405	-0.073	0.184
-205.406	53.035	-0.187	-0.175
-204.392	-135.327	0.138	-0.016
-203.377	-134.008	-0.240	-0.029
-202.363	141.704	0.183	0.237
-201.348	17.089	-0.082	0.063
-200.333	535.279	0.055	-0.129
-199.319	-200.000	-0.019	-0.256
-198.304	-200.000	-0.028	-0.364
-197.290	-200.000	-0.038	-0.197
-196.275	29.578	0.122	0.102
-195.260	19.051	0.301	0.236
-194.246	-200.000	0.009	-0.272
-193.231	758.355	0.097	-0.258
-192.217	-66.317	0.144	0.056
-191.202	-200.000	-0.013	0.174
-190.187	-125.037	0.133	0.020
-189.173	428.435	-0.119	0.252
-188.158	-200.000	0.003	0.122
-187.144	376.646	0.055	-0.109
-186.129	47.025	-0.053	0.049
-185.114	-2.629	0.179	-0.123
-184.100	142.448	0.147	0.191
-183.085	800.000	0.095	0.369
-182.071	45.743	0.177	0.160
-181.056	92.854	0.273	-0.302
-180.042	-200.000	-0.227	0.001
-179.027	126.385	0.044	-0.054
-178.012	-64.384	0.205	0.082
-176.998	-105.358	-0.297	-0.066
-175.983	688.622	-0.055	0.142
-174.969	-200.000	0.005	0.219
-173.954	-76.464	0.076	0.026
-172.939	-200.000	-0.059	-0.425
-171.925	-172.711	-0.077	-0.002
-170.910	800.000	-0.051	0.142
-169.896	528.866	-0.094	-0.217
-168.881	-49.262	-0.254	-0.119
-167.866	-200.000	-0.046	0.344
-166.852	800.000	-0.023	0.092
-165.837	-23.314	0.037	0.022
-164.823	-200.000	0.036	0.219
-163.808	121.163	-0.028	-0.034
-162.793	-60.491	0.147	-0.061
-161.779	-200.000	-0.060	0.361
-160.764	281.896	0.119	-0.208
-159.750	21.087	0.172	0.136
-158.735	-200.000	-0.064	0.290
-157.720	-105.777	0.265	0.059
-156.706	-25.811	-0.089	0.051
-155.691	-92.125	-0.233	-0.064
-154.677	-77.633	0.171	0.058
-153.662	-46.666	0.405	-0.194
-152.647	187.441	0.081	-0.118
-151.633	112.041	0.129	0.153
-150.618	-165.417	-0.238	-0.010
-149.604	159.033	-0.052	0.071
-148.589	-56.433	0.393	-0.171
-147.574	-120.748	-0.465	0.077
-146.560	-49.372	0.193	-0.090
-145.545	-68.921	0.277	0.105
-144.531	66.818	-0.122	0.122
-143.516	-96.490	0.264	-0.068
-142.502	-200.000	0.001	-0.240
-141.487	266.419	0.103	-0.175
-140.472	-200.000	-0.060	-0.295
-139.458	-127.647	-0.410	-0.058
-138.443	-200.000	-0.005	0.249
-137.429	-31.813	0.237	0.130
-136.414	213.155	0.178	-0.275
-135.399	-200.000	-0.016	0.145
-134.385	-200.000	0.017	-0.169
-133.370	-117.651	-0.407	0.072
-132.356	800.000	-0.055	0.163
-131.341	-106.726	0.023	-0.005
-130.326	-81.963	-0.056	-0.018
-129.312	-44.837	-0.254	-0.124
-128.297	-135.266	-0.195	0.023
-127.283	-67.587	-0.469	0.180
-126.268	15.850	-0.186	0.143
-125.253	-79.459	-0.244	0.080
-124.239	800.000	-0.094	0.260
-123.224	-170.823	-0.336	-0.011
-122.210	-66.682	0.261	-0.101
-121.195	298.817	-0.078	-0.139
-120.180	422.544	-0.094	0.198
-119.166	8.660	0.118	-0.087
-118.151	-102.101	-0.373	-0.088
-117.137	-200.000	0.022	-0.154
-116.122	-43.379	-0.385	0.190
-115.107	-129.939	0.228	-0.031
-114.093	-200.000	0.000	0.066
-113.078	-105.869	0.273	-0.060
-112.064	800.000	-0.038	0.133
-111.049	-112.865	-0.120	-0.023
-110.034	-200.000	0.025	-0.296
-109.020	95.506	-0.068	0.076
-108.005	800.000	-0.062	0.222
-106.991	458.175	0.065	-0.140
-105.976	510.565	0.080	-0.181
-104.962	-65.881	-0.172	0.067
-103.947	-111.447	-0.073	0.014
-102.932	-86.278	-0.198	0.059
-101.918	-28.842	0.264	-0.148
-100.903	-151.895	-0.316	0.023
-99.889	-5.863	-0.037	-0.025
-98.874	383.166	-0.063	-0.126
-97.859	-122.889	0.080	0.013
-96.845	-20.981	-0.098	-0.058
-95.830	8.097	0.369	0.271
-94.816	800.000	0.039	-0.145
-93.801	-200.000	0.049	0.224
-92.786	29.181	-0.070	0.058
-91.772	-96.651	0.233	-0.060
-90.757	-70.935	-0.194	0.071
-89.743	-23.490	0.228	-0.134
-88.728	590.730	-0.048	-0.116
-87.713	-14.088	-0.293	-0.184
-86.699	135.260	0.063	-0.080
-85.684	267.668	0.193	-0.330
-84.670	634.989	0.034	-0.084
-83.655	-89.260	0.160	-0.046
-82.640	-136.715	-0.279	-0.031
-81.626	515.688	0.116	-0.263
-80.611	725.841	-0.111	0.290
-79.597	477.797	-0.054	0.119
-78.582	-86.035	0.047	0.014
-77.567	523.224	0.131	0.301
-76.553	-90.566	0.293	0.083
-75.538	800.000	0.056	0.181
-74.524	-13.786	0.116	-0.073
-73.509	800.000	0.029	0.097
-72.494	8.528	0.195	0.143
-71.480	52.437	-0.184	0.171
-70.465	631.001	0.077	-0.190
-69.451	45.859	-0.090	0.081
-68.436	-28.623	0.382	-0.214
-67.422	800.000	-0.062	-0.179
-66.407	61.576	0.223	-0.216
-65.392	44.489	-0.083	-0.075
-64.378	-200.000	0.030	0.317
-63.363	394.416	0.110	-0.223
-62.349	-200.000	-0.025	0.192
-61.334	100.232	-0.775	-0.877
-60.319	6.755	0.699	0.507
-59.305	800.000	-0.460	-1.371
-58.290	302.721	0.809	1.459
-57.276	621.516	0.552	1.353
-56.261	-200.000	125.652	656.312
-55.246	409.933	1580.409	3263.530
-54.232	141.414	2739.512	3533.683
-53.217	94.642	2188.607	2424.363
-52.203	33.859	1704.937	1445.814
-51.188	26.265	1522.634	1239.307
-50.173	24.297	1499.665	1207.251
-49.159	49.177	1570.523	1437.993
-48.144	45.940	1583.634	1427.467
-47.130	26.423	1532.415	1248.161
-46.115	23.551	1516.127	1215.202
-45.100	23.468	1512.362	1211.572
-44.086	23.442	1510.346	1209.729
-43.071	23.255	1509.051	1207.368
-42.057	23.263	1507.373	1206.037
-41.042	23.318	1505.314	1204.712
-40.027	23.372	1504.147	1204.099
-39.013	23.359	1502.795	1202.882
-37.998	23.273	1501.697	1201.369
-36.984	23.248	1500.773	1200.412
-35.969	23.220	1499.262	1198.969
-34.954	23.326	1497.009	1197.836
-33.940	23.228	1495.929	1196.261
-32.925	23.275	1494.829	1195.655
-31.911	23.250	1493.688	1194.520
-30.896	23.360	1492.362	1194.159
-29.881	23.420	1490.744	1193.218
-28.867	23.298	1489.820	1191.610
-27.852	23.368	1488.573	1191.035
-26.838	23.355	1487.031	1189.670
-25.823	23.433	1485.098	1188.595
-24.809	23.397	1483.307	1186.878
-23.794	23.344	1482.352	1185.713
-22.779	23.396	1480.840	1184.799
-21.765	23.298	1480.120	1183.525
-20.750	23.386	1478.453	1182.732
-19.736	23.387	1477.596	1182.005
-18.721	23.413	1476.327	1181.115
-17.706	23.347	1475.498	1179.970
-16.692	23.379	1474.301	1179.175
-15.677	23.368	1473.260	1178.224
-14.663	23.314	1472.547	1177.248
-13.648	23.252	1471.761	1176.159
-12.633	23.222	1470.693	1175.058
-11.619	23.181	1470.210	1174.354
-10.604	23.364	1468.672	1174.296
-9.590	23.212	1468.171	1172.841
-8.575	23.353	1467.068	1172.848
-7.560	23.291	1466.151	1171.656
-6.546	23.254	1465.741	1171.036
-5.531	23.269	1465.061	1170.548
-4.517	23.249	1463.721	1169.299
-3.502	23.234	1462.709	1168.340
-2.487	23.324	1461.773	1168.143
-1.473	23.305	1460.905	1167.280
-0.458	23.247	1459.590	1165.798
0.556	21.520	1449.465	1153.987
1.571	18.266	1424.915	1113.213
2.586	14.894	1363.009	1043.737
3.600	13.352	1278.386	969.819
4.615	12.387	1235.691	931.874
5.629	10.935	1178.803	881.032
6.644	5.470	1097.625	792.663
7.659	0.921	1062.378	744.792
8.673	0.328	1056.655	737.814
9.688	0.117	1053.556	734.557
10.702	0.158	1052.173	733.726
11.717	0.107	1049.976	731.880
12.731	1.992	1050.681	741.476
13.746	8.027	1059.325	777.009
14.761	14.190	1067.054	812.805
15.775	16.562	1069.221	825.979
16.790	16.319	1068.277	823.989
17.804	15.398	1066.959	818.407
18.819	14.569	1064.512	812.425
19.834	14.249	1062.566	809.312
20.848	13.875	1062.112	807.080
21.863	13.701	1061.198	805.467
22.877	13.424	1060.485	803.508
23.892	13.190	1059.809	801.793
24.907	13.111	1058.894	800.645
25.921	13.151	1057.881	800.003
26.936	13.138	1057.717	799.745
27.950	13.279	1056.789	799.653
28.965	13.306	1056.071	799.172
29.980	13.326	1054.761	798.207
30.994	13.525	1053.857	798.410
32.009	13.308	1053.337	796.897
33.023	13.336	1052.691	796.476
34.038	13.454	1051.762	796.267
35.053	13.323	1051.013	795.002
36.067	13.407	1049.973	794.549
37.082	13.262	1049.586	793.487
38.096	13.324	1048.639	793.001
39.111	13.369	1048.079	792.720
40.126	13.343	1046.927	791.658
41.140	13.252	1046.098	790.523
42.155	13.257	1045.093	789.719
43.169	13.210	1044.157	788.719
44.184	13.238	1042.999	787.904
45.199	13.055	1042.182	786.349
46.213	13.287	1040.952	786.452
47.228	13.131	1040.269	785.128
48.242	13.159	1039.221	784.401
49.257	13.201	1038.070	783.661
50.271	13.331	1037.008	783.406
51.286	13.218	1036.326	782.283
52.301	13.303	1035.545	782.029
53.315	13.355	1034.893	781.715
54.330	13.286	1033.616	780.353
55.344	13.288	1032.972	779.805
56.359	13.352	1031.617	779.015
57.374	13.193	1031.208	777.892
58.388	13.181	1030.361	777.127
59.403	13.164	1029.914	776.640
60.417	13.207	1028.677	775.843
61.432	13.179	1028.267	775.330
62.447	13.170	1027.258	774.462
63.461	13.181	1026.560	773.916
64.476	13.166	1025.468	772.955
65.490	13.129	1024.444	771.943
66.505	13.072	1024.071	771.326
67.520	13.089	1023.199	770.680
68.534	13.207	1022.054	770.299
69.549	13.285	1021.331	770.049
70.563	13.256	1020.828	769.467
71.578	13.275	1019.778	768.696
72.593	13.151	1019.162	767.590
73.607	13.179	1018.413	767.084
74.622	13.181	1017.209	766.123
75.636	13.047	1016.804	765.127
76.651	12.959	1016.024	764.066
77.666	13.022	1015.036	763.547
78.680	13.097	1014.100	763.123
79.695	13.134	1014.083	763.213
80.709	13.124	1013.025	762.300
81.724	13.156	1012.107	761.691
82.739	13.205	1011.198	761.167
83.753	13.231	1010.814	760.927
84.768	13.325	1009.893	760.598
85.782	13.233	1009.395	759.734
86.797	13.373	1008.214	759.421
87.812	13.435	1007.222	758.889
88.826	13.290	1007.064	758.041
89.841	13.273	1005.777	756.927
90.855	13.331	1004.774	756.369
91.870	13.411	1004.270	756.291
92.884	13.357	1003.348	755.280
93.899	13.404	1002.909	755.097
94.914	13.331	1002.173	754.145
95.928	13.368	1001.448	753.702
96.943	13.463	1000.652	753.466
97.957	13.441	999.398	752.358
98.972	13.361	998.927	751.572
99.987	13.579	997.943	751.753
101.001	13.286	997.502	750.026
102.016	13.429	996.936	750.182
103.030	13.463	995.640	749.296
104.045	13.407	994.524	748.135
105.060	13.503	993.746	747.917
106.074	13.270	993.151	746.354
107.089	13.349	992.034	745.806
108.103	13.307	990.925	744.715
109.118	13.388	990.105	744.399
110.133	13.230	989.671	743.294
111.147	13.185	988.824	742.392
112.162	13.285	987.978	742.140
113.176	13.385	986.631	741.511
114.191	13.267	986.146	740.551
115.206	13.377	985.219	740.282
116.220	13.403	984.493	739.786
117.235	13.269	983.713	738.537
118.249	13.471	982.282	738.296
119.264	13.319	982.202	737.496
120.279	13.342	980.827	736.499
121.293	13.247	980.532	735.789
122.308	13.274	979.533	735.093
123.322	13.205	978.329	733.820
124.337	13.317	977.594	733.701
125.352	13.259	976.518	732.569
126.366	13.266	975.177	731.532
127.381	13.267	974.174	730.717
128.395	13.177	973.334	729.628
129.410	13.284	971.819	728.899
130.424	13.306	971.147	728.426
131.439	13.177	970.818	727.547
132.454	13.284	969.625	727.061
133.468	13.349	968.604	726.515
134.483	13.343	968.400	726.273
135.497	13.402	967.562	725.838
136.512	13.251	966.970	724.666
137.527	13.271	966.483	724.323
138.541	13.441	965.296	724.118
139.556	13.345	964.501	723.037
140.570	13.319	963.957	722.451
141.585	13.352	962.974	721.793
142.600	13.461	962.864	722.125
143.614	13.480	961.894	721.414
144.629	13.484	961.137	720.801
145.643	13.644	960.256	720.772
146.658	13.466	959.547	719.403
147.673	13.449	958.591	718.549
148.687	13.565	957.303	718.021
149.702	13.365	957.074	716.921
150.716	13.441	956.039	716.410
151.731	13.370	955.440	715.591
152.746	13.446	954.289	714.995
153.760	13.442	953.861	714.592
154.775	13.469	953.032	714.023
155.789	13.453	952.236	713.298
156.804	13.605	951.262	713.158
157.819	13.551	950.626	712.387
158.833	13.552	949.866	711.758
159.848	13.648	949.175	711.588
160.862	13.661	948.960	711.419
161.877	13.704	947.902	710.747
162.892	13.592	947.007	709.536
163.906	13.470	946.617	708.656
164.921	13.560	945.347	708.030
165.935	13.570	944.467	707.352
166.950	13.637	943.509	706.856
167.964	13.513	942.680	705.643
168.979	13.749	941.548	705.736
169.994	13.561	940.619	704.180
171.008	13.545	939.960	703.554
172.023	13.728	939.355	703.817
173.037	13.672	938.302	702.729
174.052	13.921	937.259	702.939
175.067	13.762	936.939	701.967
176.081	13.689	936.361	701.163
177.096	13.573	935.374	699.871
178.110	13.704	934.351	699.596
179.125	13.768	933.425	699.108
180.140	13.743	932.746	698.433
181.154	13.721	932.195	697.870
182.169	13.736	931.426	697.293
183.183	13.827	930.844	697.178
184.198	13.926	930.051	696.938
185.213	13.807	929.697	696.112
186.227	13.808	929.133	695.632
187.242	13.845	928.351	695.140
188.256	13.946	927.627	694.959
189.271	13.951	926.940	694.405
190.286	14.056	926.034	694.101
191.300	13.882	925.422	692.856
192.315	13.751	924.712	691.715
193.329	13.779	924.149	691.353
194.344	13.758	922.888	690.260
195.359	13.899	922.570	690.546
196.373	13.917	922.335	690.383
197.388	13.930	921.604	689.829
198.402	13.907	921.085	689.286
199.417	14.027	920.618	689.372
200.432	14.044	920.347	689.180
201.446	14.125	919.746	689.002
202.461	14.081	919.348	688.462
203.475	14.231	918.833	688.636
204.490	14.232	917.878	687.863
205.504	14.247	916.953	687.172
206.519	14.052	916.366	685.866
207.534	14.158	915.889	685.885
208.548	14.146	914.910	685.043
209.563	14.198	913.962	684.486
210.577	14.229	913.399	684.132
211.592	14.144	912.938	683.376
212.607	14.262	912.502	683.474
213.621	14.246	911.829	682.843
214.636	14.399	911.000	682.791
215.650	14.244	910.700	681.870
216.665	14.324	909.878	681.520
217.680	14.376	909.320	681.254
218.694	14.435	908.942	681.155
219.709	14.459	908.293	680.704
220.723	14.393	907.621	679.869
221.738	14.403	907.025	679.405
222.753	14.501	905.994	678.974
223.767	14.408	905.629	678.259
224.782	14.377	905.120	677.694
225.796	14.504	903.840	677.191
226.811	14.559	903.061	676.768
227.826	14.473	902.702	676.092
228.840	14.479	901.815	675.391
229.855	14.474	901.297	674.926
230.869	14.459	900.642	674.315
231.884	14.373	900.599	673.873
232.899	14.533	899.201	673.416
233.913	14.402	899.149	672.787
234.928	14.434	897.942	671.954
235.942	14.444	897.069	671.281
236.957	14.488	896.229	670.771
237.972	14.511	896.140	670.738
238.986	14.427	895.654	669.975
240.001	14.607	894.672	669.905
241.015	14.669	894.119	669.681
242.030	14.567	893.464	668.722
243.045	14.626	892.823	668.418
244.059	14.696	892.145	668.132
245.074	14.674	891.737	667.680
246.088	14.737	891.109	667.403
247.103	14.496	890.665	666.048
248.117	14.737	889.754	666.271
249.132	14.807	889.050	665.960
250.147	14.836	888.704	665.759
251.161	14.763	887.792	664.729
252.176	14.896	887.238	664.780
253.190	14.939	886.080	664.027
254.205	14.997	885.891	664.058
255.220	14.967	885.096	663.282
256.234	14.919	885.022	662.979
257.249	14.940	884.428	662.558
258.263	15.016	883.614	662.188
259.278	15.088	883.093	662.027
260.293	15.139	882.489	661.717
261.307	15.101	882.068	661.193
262.322	15.215	881.312	661.014
263.336	15.255	880.456	660.475
264.351	15.229	880.042	660.003
265.366	15.158	879.355	659.150
266.380	15.095	879.498	658.948
267.395	15.290	878.232	658.709
268.409	15.221	877.585	657.893
269.424	15.133	876.399	656.603
270.439	15.335	876.219	657.201
271.453	15.218	874.947	655.729
272.468	15.259	874.561	655.544
273.482	15.096	874.057	654.469
274.497	15.295	873.028	654.421
275.512	15.209	872.861	653.900
276.526	15.244	871.699	653.110
277.541	15.276	871.366	652.925
278.555	15.313	870.300	652.213
279.570	15.295	870.102	651.938
280.585	15.461	869.201	651.850
281.599	15.424	869.267	651.699
282.614	15.361	868.297	650.670
283.628	15.390	867.743	650.308
284.643	15.351	867.453	649.882
285.657	15.490	866.484	649.638
286.672	15.376	866.407	649.080
287.687	15.400	865.572	648.490
288.701	15.464	865.039	648.279
289.716	15.351	864.810	647.616
290.730	15.540	863.827	647.551
291.745	15.672	862.965	647.356
292.760	15.517	862.654	646.466
293.774	15.586	861.860	646.081
294.789	15.792	861.165	646.294
295.803	15.712	860.525	645.451
296.818	15.625	860.116	644.753
297.833	15.643	859.262	644.122
298.847	15.472	859.180	643.351
299.862	15.596	858.147	642.994
300.876	15.626	857.360	642.464
301.891	15.741	856.839	642.454
302.906	15.749	856.075	641.856
303.920	15.856	855.177	641.532
304.935	15.818	854.734	641.000
305.949	15.842	854.168	640.609
306.964	15.825	853.723	640.153
307.979	15.702	853.362	639.358
308.993	15.903	852.624	639.512
310.008	15.999	852.014	639.365
311.022	16.036	851.263	638.885
312.037	15.806	851.152	637.873
313.052	15.904	850.675	637.830
314.066	15.785	850.340	637.070
315.081	15.720	849.588	636.203
316.095	15.770	849.137	636.001
317.110	15.720	849.036	635.681
318.125	16.000	847.443	635.486
319.139	15.813	847.225	634.564
320.154	15.910	847.046	634.736
321.168	16.015	845.949	634.256
322.183	16.063	845.232	633.842
323.197	16.019	845.030	633.467
324.212	16.088	844.344	633.158
325.227	16.012	843.697	632.330
326.241	16.040	843.394	632.152
327.256	16.037	842.668	631.541
328.270	15.845	842.606	630.720
329.285	16.029	841.677	630.657
330.300	15.918	841.115	629.764
331.314	16.067	840.416	629.744
332.329	16.007	840.037	629.178
333.343	16.038	839.598	628.910
334.358	16.240	838.529	628.806
335.373	16.203	838.198	628.366
336.387	16.139	837.581	627.608
337.402	16.254	837.329	627.792
338.416	16.203	836.322	626.791
339.431	16.268	835.865	626.637
340.446	16.395	835.445	626.735
341.460	16.469	835.205	626.775
342.475	16.379	834.466	625.831
343.489	16.346	834.058	625.349
344.504	16.386	833.384	624.937
345.519	16.514	832.716	624.851
346.533	16.392	832.347	624.069
347.548	16.623	831.825	624.475
348.562	16.623	830.776	623.632
349.577	16.325	830.900	622.571
350.592	16.432	830.170	622.364
351.606	16.391	829.587	621.721
352.621	16.410	829.286	621.509
353.635	16.427	829.003	621.307
354.650	16.466	828.585	621.080
355.665	16.440	828.125	620.587
356.679	16.510	827.464	620.291
357.694	16.555	827.143	620.160
358.708	16.594	826.466	619.743
359.723	16.468	826.290	619.094
360.738	16.544	825.408	618.654
361.752	16.559	824.958	618.320
362.767	16.652	824.204	618.038
363.781	16.648	824.209	617.972
364.796	16.652	823.400	617.328
365.810	16.822	822.739	617.396
366.825	16.752	822.659	617.027
367.840	16.680	822.375	616.498
368.854	16.870	821.724	616.643
369.869	16.883	821.243	616.278
370.883	16.729	821.080	615.540
371.898	16.908	819.966	615.302
372.913	16.791	819.615	614.559
373.927	16.746	819.594	614.324
374.942	16.897	818.559	614.040
375.956	16.764	817.882	612.997
376.971	16.926	817.584	613.307
377.986	17.004	816.749	612.907
379.000	17.046	816.098	612.518
380.015	16.952	815.746	611.858
381.029	17.009	815.382	611.737
382.044	16.928	814.937	611.056
383.059	17.011	813.872	610.503
384.073	17.041	813.456	610.245
385.088	17.008	813.101	609.805
386.102	16.937	812.709	609.204
387.117	16.952	812.128	608.767
388.132	17.012	811.886	608.748
389.146	17.041	811.536	608.537
390.161	17.055	811.113	608.214
391.175	17.183	810.193	607.929
392.190	17.171	810.202	607.839
393.205	17.098	809.302	606.850
394.219	17.133	809.206	606.849
395.234	17.012	808.490	605.825
396.248	17.111	808.217	605.922
397.263	17.182	807.582	605.644
398.278	17.118	807.361	605.196
399.292	17.221	806.674	604.996
400.307	17.108	806.667	604.535
401.321	17.047	805.915	603.699
402.336	17.121	805.367	603.501
403.350	17.138	805.225	603.401
404.365	17.065	804.792	602.761
405.380	17.332	804.071	603.115
406.394	17.250	803.696	602.489
407.409	17.287	803.297	602.268
408.423	17.427	802.621	602.206
409.438	17.508	802.033	601.995
410.453	17.442	801.966	601.660
411.467	17.403	801.444	601.077
412.482	17.539	801.044	601.206
413.496	17.411	800.596	600.362
414.511	17.429	800.387	600.216
415.526	17.569	799.773	600.195
416.540	17.586	799.009	599.632
417.555	17.427	799.272	599.216
418.569	17.498	798.779	599.043
419.584	17.538	798.100	598.620
420.599	17.540	797.502	598.126
421.613	113.510	1297.568	1486.480
422.628	97.771	1370.404	1486.583
