DTS Sentinel unit serial number:	SN413079Multiplexer serial number:	ORYXHardware model number:	OX4-SRSoftware version number:	ORYX F/W v4.00 Oryx Data Collector v3.7.2.0data status	okinstallation	princeton_trtdifferential loss correction	single-endedforward channel	channel 3reverse channel	N/Adate	2019/09/12time	20:48:35forward acquisition time	60.00reverse acquisition time	0.00gamma	496.2192k internal	0.2324k external	0.2324temperature offset calibration	1.0125default loss term (dB/km)	0.3790temperature slope calibration	1.0000multiplexer offset coefficient	1.0000multiplexer slope coefficient	1.0000fibre end	0.00T internal ref (°C)	31.02T ext. ref 1 (°C)	3.56T ext. ref 2 (°C)	25.59length (m)	temperature (°C)	Stokes	anti-Stokes-747.200	190.281	-0.053	0.081
-746.185	-114.630	0.236	0.046
-745.171	-8.287	-0.371	-0.252
-744.156	-59.864	0.206	0.089
-743.142	14.399	0.140	0.110
-742.127	-91.339	-0.346	-0.100
-741.112	800.000	-0.132	0.397
-740.098	-121.203	-0.148	-0.025
-739.083	-28.548	-0.154	-0.089
-738.069	171.012	-0.126	-0.182
-737.054	-52.596	-0.417	0.194
-736.039	800.000	-0.098	-0.276
-735.025	25.525	0.031	0.026
-734.010	58.454	-0.330	-0.327
-732.996	164.186	-0.147	-0.210
-731.981	-166.049	-0.191	-0.008
-730.966	111.663	-0.253	-0.308
-729.952	800.000	-0.170	-0.617
-728.937	124.702	-0.105	0.133
-727.923	-200.000	-0.019	-0.216
-726.908	-200.000	0.025	-0.270
-725.894	800.000	-0.112	-0.375
-724.879	-94.683	-0.238	-0.065
-723.864	-157.857	-0.277	0.017
-722.850	220.818	0.152	-0.246
-721.835	-22.865	-0.442	-0.269
-720.821	-162.171	0.394	0.020
-719.806	-128.595	-0.427	-0.061
-718.791	-115.874	-0.227	-0.043
-717.777	-16.443	-0.193	0.123
-716.762	-18.722	0.162	-0.102
-715.748	-123.036	0.186	-0.030
-714.733	-47.309	-0.303	-0.148
-713.718	-200.000	-0.015	0.160
-712.704	434.995	0.154	0.337
-711.689	17.851	-0.285	0.229
-710.675	40.546	-0.126	-0.115
-709.660	641.493	0.195	-0.501
-708.645	1.993	-0.092	-0.067
-707.631	-200.000	-0.004	0.055
-706.616	-200.000	-0.028	0.514
-705.602	-200.000	0.038	-0.209
-704.587	2.805	0.296	0.216
-703.572	-200.000	-0.027	0.246
-702.558	800.000	0.093	-0.386
-701.543	-144.703	0.174	0.016
-700.529	-101.169	0.083	-0.020
-699.514	-125.493	-0.458	0.070
-698.499	135.705	-0.194	0.255
-697.485	-60.852	0.194	-0.083
-696.470	-15.546	-0.081	-0.052
-695.456	-97.820	0.239	-0.062
-694.441	329.873	0.160	-0.310
-693.426	-64.789	-0.251	0.102
-692.412	-200.000	-0.003	-0.160
-691.397	-31.619	-0.286	-0.162
-690.383	-86.354	0.266	0.082
-689.368	235.180	0.078	-0.130
-688.354	-160.983	0.252	-0.013
-687.339	143.864	-0.152	-0.204
-686.324	-189.596	0.041	0.000
-685.310	335.126	-0.113	0.220
-684.295	800.000	-0.056	0.208
-683.281	-129.306	-0.131	-0.018
-682.266	340.159	0.114	-0.224
-681.251	-128.571	0.418	-0.060
-680.237	246.108	0.129	-0.219
-679.222	278.721	-0.086	0.154
-678.208	298.594	-0.051	-0.095
-677.193	-200.000	0.029	-0.277
-676.178	245.269	-0.170	0.288
-675.164	-200.000	-0.037	-0.513
-674.149	-200.000	0.005	-0.086
-673.135	-8.017	-0.191	0.130
-672.120	786.970	0.032	0.088
-671.105	80.527	0.249	-0.269
-670.091	153.063	0.115	0.158
-669.076	-115.336	-0.187	-0.036
-668.062	217.296	0.089	-0.143
-667.047	541.660	-0.123	0.296
-666.032	800.000	-0.050	-0.174
-665.018	157.787	0.242	0.337
-664.003	-200.000	-0.020	0.135
-662.989	40.225	-0.125	-0.113
-661.974	-114.231	0.107	-0.021
-660.959	-152.592	0.096	-0.007
-659.945	-34.958	-0.400	0.219
-658.930	254.806	0.130	0.223
-657.916	125.345	0.140	0.178
-656.901	112.478	-0.122	0.149
-655.886	633.869	0.166	-0.423
-654.872	-47.884	0.077	-0.037
-653.857	-200.000	0.023	0.343
-652.843	-200.000	-0.022	-0.124
-651.828	-200.000	0.020	-0.694
-650.814	-200.000	0.027	0.151
-649.799	-200.000	-0.016	0.277
-648.784	800.000	0.017	-0.069
-647.770	-177.448	-0.260	0.006
-646.755	560.902	-0.068	0.166
-645.741	42.385	-0.115	0.106
-644.726	-161.845	0.136	0.007
-643.711	-3.284	0.125	0.087
-642.697	-113.200	0.226	-0.045
-641.682	35.999	0.145	0.129
-640.668	-128.353	-0.098	-0.014
-639.653	-200.000	-0.008	0.185
-638.638	800.000	0.053	-0.163
-637.624	27.227	-0.149	0.126
-636.609	-74.674	0.098	-0.036
-635.595	-200.000	-0.003	0.082
-634.580	-105.444	-0.090	0.021
-633.565	800.000	-0.071	0.202
-632.551	-200.000	-0.017	0.082
-631.536	166.841	0.135	0.193
-630.522	800.000	0.050	0.216
-629.507	-200.000	0.027	-0.173
-628.492	-104.526	0.255	0.059
-627.478	800.000	0.047	-0.133
-626.463	800.000	0.022	0.078
-625.449	-132.151	-0.123	-0.016
-624.434	-57.736	-0.040	0.018
-623.419	111.575	0.201	-0.243
-622.405	-95.435	-0.308	-0.083
-621.390	-173.858	0.081	0.002
-620.376	97.296	0.064	0.074
-619.361	-120.479	0.182	0.031
-618.346	43.401	-0.237	-0.218
-617.332	-97.178	-0.404	-0.106
-616.317	-200.000	0.023	-0.117
-615.303	20.096	-0.146	-0.119
-614.288	-200.000	-0.038	-0.262
-613.273	-150.701	-0.056	-0.004
-612.259	27.352	-0.075	0.063
-611.244	-200.000	0.003	-0.197
-610.230	-200.000	0.054	0.363
-609.215	-38.667	-0.249	-0.132
-608.201	72.001	-0.148	-0.155
-607.186	386.415	0.018	-0.037
-606.171	179.706	-0.188	0.277
-605.157	34.535	-0.071	-0.062
-604.142	296.048	0.057	-0.104
-603.128	-146.449	0.154	0.014
-602.113	-21.628	0.351	-0.214
-601.098	23.697	0.176	0.146
-600.084	-49.613	-0.066	-0.032
-599.069	-200.000	0.031	-0.308
-598.055	297.134	0.031	-0.057
-597.040	241.298	0.043	-0.072
-596.025	153.056	0.179	0.245
-595.011	800.000	-0.056	0.223
-593.996	-200.000	0.009	0.080
-592.982	3.285	-0.208	0.152
-591.967	132.101	0.077	0.100
-590.952	-43.133	-0.166	-0.084
-589.938	-154.723	0.043	-0.003
-588.923	-93.655	-0.141	-0.039
-587.909	-127.699	-0.217	-0.032
-586.894	-73.470	0.228	-0.083
-585.879	173.261	0.160	-0.232
-584.865	17.282	0.160	-0.128
-583.850	599.214	-0.130	0.324
-582.836	-136.787	0.065	-0.008
-581.821	-152.413	-0.213	0.015
-580.806	-43.397	-0.223	-0.113
-579.792	543.654	0.105	-0.252
-578.777	-49.289	-0.248	0.119
-577.763	-46.660	0.154	0.076
-576.748	-19.074	-0.179	-0.112
-575.733	-63.426	0.184	0.076
-574.719	-182.868	-0.224	0.004
-573.704	-71.004	0.194	-0.073
-572.690	463.556	0.033	0.073
-571.675	-163.575	0.111	-0.005
-570.661	343.058	0.081	0.159
-569.646	-69.223	0.117	0.045
-568.631	-200.000	-0.002	-0.109
-567.617	557.769	-0.049	-0.119
-566.602	-10.107	-0.212	-0.141
-565.588	-162.190	0.422	0.021
-564.573	-23.939	0.085	-0.051
-563.558	-2.048	0.155	-0.109
-562.544	-200.000	-0.024	-0.303
-561.529	-12.068	-0.073	-0.048
-560.515	8.974	-0.070	0.053
-559.500	10.881	-0.230	-0.176
-558.485	-200.000	-0.018	-0.084
-557.471	4.594	-0.114	0.084
-556.456	208.432	0.049	-0.077
-555.442	-106.523	-0.152	-0.034
-554.427	425.704	0.157	-0.339
-553.412	800.000	0.150	0.436
-552.398	-200.000	0.013	0.374
-551.383	-114.310	-0.071	0.014
-550.369	367.419	0.076	-0.154
-549.354	70.530	-0.127	-0.131
-548.339	-125.824	-0.066	-0.010
-547.325	107.651	-0.200	-0.238
-546.310	27.626	0.462	-0.390
-545.296	174.628	0.103	0.149
-544.281	-4.637	0.099	0.068
-543.266	-200.000	-0.021	-0.193
-542.252	800.000	-0.026	-0.087
-541.237	-82.960	0.140	0.045
-540.223	-71.105	-0.202	-0.076
-539.208	111.590	0.101	-0.122
-538.193	-109.480	-0.182	0.038
-537.179	433.743	0.122	-0.266
-536.164	-200.000	0.020	0.249
-535.150	-73.966	-0.276	0.100
-534.135	-47.273	0.213	0.104
-533.121	-32.241	0.159	0.089
-532.106	165.475	0.119	0.169
-531.091	-101.004	-0.613	-0.151
-530.077	-123.373	0.170	-0.027
-529.062	-31.706	0.292	0.164
-528.048	-49.821	0.114	0.054
-527.033	-200.000	0.007	0.099
-526.018	249.152	0.123	-0.208
-525.004	256.872	-0.048	-0.082
-523.989	800.000	0.017	0.048
-522.975	68.906	-0.096	0.098
-521.960	72.677	-0.206	0.215
-520.945	-200.000	0.068	-0.620
-519.931	474.642	0.034	0.077
-518.916	-109.633	-0.280	-0.059
-517.902	193.296	0.150	0.227
-516.887	-182.329	-0.171	-0.003
-515.872	-95.627	0.336	0.090
-514.858	182.881	-0.121	-0.178
-513.843	-82.082	-0.198	0.065
-512.829	-200.000	-0.013	-0.115
-511.814	385.011	-0.017	-0.034
-510.799	-34.088	0.125	0.069
-509.785	-153.270	0.248	-0.017
-508.770	791.278	0.102	0.280
-507.756	76.035	0.113	0.119
-506.741	-17.965	0.299	0.187
-505.726	-86.878	-0.135	0.041
-504.712	-200.000	-0.037	-0.356
-503.697	-103.648	0.105	-0.025
-502.683	-191.303	-0.311	-0.003
-501.668	-200.000	0.021	0.146
-500.653	650.559	-0.035	-0.090
-499.639	-83.925	0.171	0.054
-498.624	308.221	0.246	-0.460
-497.610	186.568	0.082	0.122
-496.595	78.753	-0.068	-0.073
-495.581	-200.000	-0.030	0.358
-494.566	-200.000	0.007	0.273
-493.551	-200.000	-0.024	-0.391
-492.537	-200.000	-0.049	0.492
-491.522	-12.517	0.319	-0.208
-490.508	-133.352	-0.362	-0.046
-489.493	800.000	-0.042	0.155
-488.478	-196.759	-0.193	0.001
-487.464	-132.543	-0.458	0.059
-486.449	177.633	0.291	0.424
-485.435	-180.285	0.289	-0.006
-484.420	45.778	-0.080	-0.074
-483.405	-23.277	0.164	-0.099
-482.391	-173.655	-0.236	0.007
-481.376	-200.000	0.020	0.319
-480.362	-178.720	-0.197	-0.005
-479.347	631.380	0.186	-0.469
-478.332	-103.005	-0.301	0.071
-477.318	164.224	0.138	0.194
-476.303	258.052	-0.156	-0.268
-475.289	-200.000	-0.003	-0.357
-474.274	-200.000	0.022	-0.172
-473.259	-132.432	-0.227	0.029
-472.245	-155.107	0.224	0.015
-471.230	-200.000	0.001	0.077
-470.216	-3.566	-0.096	-0.067
-469.201	-174.331	0.117	-0.003
-468.186	-200.000	0.018	-0.130
-467.172	-59.203	0.213	-0.092
-466.157	447.216	-0.138	0.303
-465.143	800.000	-0.045	-0.128
-464.128	-31.993	0.286	-0.160
-463.113	388.058	0.127	-0.261
-462.099	156.011	-0.097	0.133
-461.084	-145.325	-0.156	-0.014
-460.070	-28.852	-0.357	-0.205
-459.055	-85.637	-0.161	0.050
-458.040	305.437	-0.024	-0.044
-457.026	-144.335	-0.215	-0.020
-456.011	-90.987	-0.112	-0.032
-454.997	263.758	0.093	0.161
-453.982	208.951	0.204	-0.318
-452.968	381.214	0.076	-0.155
-451.953	2.313	-0.154	-0.111
-450.938	800.000	-0.029	0.103
-449.924	168.028	0.075	-0.106
-448.909	-31.612	-0.258	-0.144
-447.895	81.633	-0.116	0.125
-446.880	-65.816	-0.385	0.154
-445.865	127.992	-0.125	-0.158
-444.851	-200.000	0.006	-0.099
-443.836	-62.927	0.292	-0.121
-442.822	84.907	0.287	0.314
-441.807	800.000	-0.127	0.470
-440.792	-200.000	0.018	0.106
-439.778	554.956	0.031	-0.075
-438.763	146.336	0.214	-0.286
-437.749	6.548	-0.087	-0.065
-436.734	-200.000	-0.011	-0.215
-435.719	45.753	-0.116	-0.107
-434.705	-116.837	-0.168	0.031
-433.690	38.860	-0.102	-0.091
-432.676	-108.415	-0.120	-0.026
-431.661	-140.098	0.182	0.019
-430.646	800.000	-0.064	-0.192
-429.632	710.617	-0.163	-0.430
-428.617	157.449	0.136	-0.188
-427.603	-187.601	0.117	-0.002
-426.588	773.072	0.110	0.299
-425.573	800.000	-0.154	0.461
-424.559	486.943	-0.108	-0.245
-423.544	-39.942	-0.072	0.037
-422.530	154.965	-0.044	0.060
-421.515	157.045	0.188	0.259
-420.500	-200.000	-0.029	0.164
-419.486	-14.652	0.217	0.139
-418.471	-5.468	0.186	0.127
-417.457	385.243	0.078	0.161
-416.442	122.803	0.068	0.085
-415.428	800.000	0.033	-0.112
-414.413	-74.924	-0.136	0.049
-413.398	-109.160	-0.463	0.098
-412.384	-149.892	-0.055	-0.004
-411.369	69.922	0.125	0.128
-410.355	-200.000	-0.025	-0.161
-409.340	-180.153	0.109	-0.002
-408.325	-117.322	0.308	-0.056
-407.311	480.515	0.109	-0.245
-406.296	-200.000	-0.022	-0.154
-405.282	204.930	0.099	0.154
-404.267	-87.354	0.234	0.071
-403.252	196.616	0.088	-0.134
-402.238	444.862	0.054	0.118
-401.223	281.302	-0.174	0.311
-400.209	-105.317	-0.250	-0.057
-399.194	-55.942	0.272	-0.121
-398.179	41.137	-0.038	0.034
-397.165	-72.756	-0.190	0.070
-396.150	177.994	0.157	0.228
-395.136	105.061	0.142	0.167
-394.121	473.364	0.129	-0.289
-393.106	197.659	-0.111	-0.169
-392.092	459.383	0.065	-0.144
-391.077	800.000	-0.020	-0.055
-390.063	-43.424	-0.232	0.117
-389.048	-112.584	0.463	-0.092
-388.033	-200.000	-0.006	-0.218
-387.019	-7.398	0.044	-0.030
-386.004	-105.325	-0.215	-0.049
-384.990	672.671	-0.078	-0.202
-383.975	-112.154	-0.097	0.019
-382.960	267.808	0.052	-0.091
-381.946	331.396	-0.113	0.217
-380.931	-200.000	-0.052	0.333
-379.917	-39.129	0.209	0.110
-378.902	-95.911	-0.107	-0.028
-377.888	195.881	-0.229	-0.347
-376.873	18.157	0.349	0.277
-375.858	-200.000	-0.032	0.239
-374.844	155.267	0.026	0.035
-373.829	465.812	-0.078	-0.174
-372.815	-200.000	-0.034	0.155
-371.800	-200.000	0.012	0.155
-370.785	-116.805	-0.097	-0.018
-369.771	-200.000	0.043	-0.297
-368.756	179.475	-0.235	0.341
-367.742	151.132	0.128	-0.173
-366.727	-28.318	0.277	0.159
-365.712	151.804	-0.064	0.087
-364.698	-107.124	-0.296	-0.065
-363.683	800.000	-0.048	-0.168
-362.669	-146.464	-0.117	-0.010
-361.654	800.000	-0.168	0.520
-360.639	83.712	-0.059	0.064
-359.625	-24.837	-0.219	-0.129
-358.610	800.000	-0.025	-0.102
-357.596	-159.003	-0.178	-0.010
-356.581	412.999	0.078	0.166
-355.566	-65.691	0.110	-0.044
-354.552	-200.000	0.000	-0.329
-353.537	157.838	0.089	-0.123
-352.523	-65.062	0.107	0.043
-351.508	22.906	-0.267	0.218
-350.493	608.289	-0.058	0.143
-349.479	77.368	-0.172	0.182
-348.464	-166.557	-0.155	-0.006
-347.450	136.808	-0.179	0.233
-346.435	122.400	0.087	-0.108
-345.420	-39.664	0.248	-0.129
-344.406	800.000	0.070	-0.270
-343.391	-174.176	-0.083	0.002
-342.377	238.961	-0.067	0.110
-341.362	-200.000	0.089	-0.000
-340.348	594.103	0.050	0.123
-339.333	-37.012	0.028	0.015
-338.318	-80.194	0.303	0.101
-337.304	800.000	-0.116	0.415
-336.289	-127.058	0.084	-0.012
-335.275	-123.110	-0.156	0.025
-334.260	116.266	0.166	0.202
-333.245	800.000	-0.095	0.281
-332.231	-107.151	-0.271	-0.059
-331.216	-74.687	0.199	-0.071
-330.202	-200.000	0.008	0.198
-329.187	505.046	-0.096	0.221
-328.172	-200.000	0.002	-0.067
-327.158	-167.381	0.423	-0.017
-326.143	-93.945	-0.314	-0.086
-325.129	800.000	0.117	-0.369
-324.114	-153.420	0.098	0.007
-323.099	-138.649	0.168	0.018
-322.085	-100.605	0.184	-0.045
-321.070	-200.000	0.029	-0.199
-320.056	428.154	-0.073	-0.157
-319.041	800.000	0.041	-0.166
-318.026	-200.000	-0.010	-0.058
-317.012	-68.872	0.294	-0.113
-315.997	-200.000	0.045	0.226
-314.983	71.053	-0.167	0.171
-313.968	278.336	-0.049	0.087
-312.953	444.223	-0.119	-0.258
-311.939	-200.000	0.001	0.209
-310.924	800.000	0.114	0.365
-309.910	113.943	-0.057	0.069
-308.895	38.455	-0.176	0.155
-307.880	147.932	-0.244	-0.326
-306.866	-119.304	0.210	-0.036
-305.851	237.397	-0.214	-0.352
-304.837	162.348	-0.079	0.110
-303.822	595.846	-0.105	-0.259
-302.807	138.900	-0.161	-0.209
-301.793	33.347	0.072	0.062
-300.778	-200.000	-0.005	0.042
-299.764	-80.412	-0.223	0.074
-298.749	-195.367	0.285	0.002
-297.735	-103.225	-0.102	-0.024
-296.720	-71.640	0.383	-0.142
-295.705	800.000	0.076	0.275
-294.691	304.715	-0.102	-0.188
-293.676	530.257	0.056	-0.132
-292.662	-125.915	0.375	-0.056
-291.647	50.036	0.281	0.263
-290.632	-121.262	-0.307	0.051
-289.618	-176.983	-0.205	-0.005
-288.603	-34.982	0.364	0.197
-287.589	45.749	-0.219	0.201
-286.574	20.364	0.214	-0.171
-285.559	302.645	0.095	-0.174
-284.545	-200.000	0.050	0.263
-283.530	800.000	-0.009	0.040
-282.516	-147.538	-0.288	0.024
-281.501	146.083	0.047	0.062
-280.486	251.869	-0.065	0.110
-279.472	-200.000	-0.057	0.330
-278.457	16.399	0.143	-0.112
-277.443	-90.757	0.192	0.055
-276.428	-100.403	0.107	-0.026
-275.413	-58.891	-0.238	-0.102
-274.399	-2.881	-0.315	-0.218
-273.384	4.696	0.365	0.265
-272.370	-200.000	-0.004	0.540
-271.355	-121.582	0.147	0.024
-270.340	-200.000	0.075	0.355
-269.326	-17.703	-0.253	-0.157
-268.311	-145.658	-0.242	0.021
-267.297	-140.099	-0.153	0.016
-266.282	-62.343	0.199	-0.082
-265.267	-183.073	-0.056	0.001
-264.253	504.410	-0.045	0.104
-263.238	-156.438	0.357	0.022
-262.224	105.293	0.223	-0.261
-261.209	-98.855	0.255	-0.064
-260.195	5.539	-0.099	-0.072
-259.180	477.694	0.078	-0.175
-258.165	61.663	-0.178	-0.176
-257.151	-74.878	-0.154	0.055
-256.136	561.722	0.022	0.052
-255.122	10.003	-0.377	-0.284
-254.107	-131.764	0.352	0.046
-253.092	-88.379	0.258	0.076
-252.078	253.387	-0.062	0.104
-251.063	-200.000	0.004	0.047
-250.049	-80.313	0.114	0.038
-249.034	-115.121	-0.098	0.018
-248.019	258.963	-0.130	0.221
-247.005	-75.740	0.281	0.099
-245.990	-190.909	-0.359	0.004
-244.976	136.138	-0.056	0.072
-243.961	71.589	-0.159	0.164
-242.946	-32.517	-0.053	-0.029
-241.932	-18.690	0.227	0.140
-240.917	62.729	0.186	-0.184
-239.903	320.012	0.138	-0.260
-238.888	-200.000	0.098	0.555
-237.873	-29.829	0.035	0.020
-236.859	-66.181	0.206	-0.081
-235.844	339.689	-0.063	-0.122
-234.830	-46.108	0.065	0.032
-233.815	190.412	0.112	-0.166
-232.800	75.153	0.284	-0.296
-231.786	152.868	-0.131	-0.178
-230.771	346.872	-0.142	0.277
-229.757	208.288	0.148	-0.229
-228.742	-200.000	-0.024	-0.352
-227.727	-200.000	-0.003	-0.247
-226.713	152.741	0.191	-0.258
-225.698	-200.000	0.003	0.066
-224.684	-200.000	0.018	0.088
-223.669	-200.000	-0.047	0.399
-222.655	-65.123	0.072	-0.029
-221.640	126.705	0.027	-0.034
-220.625	17.944	-0.269	-0.212
-219.611	83.718	0.055	0.059
-218.596	-10.578	0.244	-0.160
-217.582	800.000	0.130	0.386
-216.567	-156.256	0.178	0.011
-215.552	35.913	0.163	-0.142
-214.538	75.357	0.083	-0.087
-213.523	-133.860	0.085	0.010
-212.509	591.526	-0.088	-0.214
-211.494	-23.419	-0.159	0.095
-210.479	800.000	-0.078	0.216
-209.465	-110.318	0.173	0.035
-208.450	-200.000	-0.001	-0.073
-207.436	800.000	-0.042	-0.136
-206.421	46.182	-0.127	0.116
-205.406	44.949	-0.315	-0.287
-204.392	-105.109	-0.084	0.019
-203.377	235.622	-0.092	-0.150
-202.363	-200.000	0.002	0.039
-201.348	214.550	-0.110	0.172
-200.333	800.000	0.098	-0.353
-199.319	39.370	-0.202	0.179
-198.304	-68.329	-0.171	-0.065
-197.290	-0.337	-0.093	-0.065
-196.275	-110.491	-0.118	0.024
-195.260	424.134	-0.088	0.188
-194.246	330.998	-0.154	0.293
-193.231	-200.000	0.034	0.213
-192.217	127.659	-0.180	-0.226
-191.202	754.438	-0.107	-0.286
-190.187	-117.201	0.468	0.084
-189.173	-11.390	-0.144	-0.094
-188.158	89.200	-0.081	0.089
-187.144	-200.000	-0.009	-0.219
-186.129	13.984	0.260	-0.199
-185.114	-85.513	-0.178	-0.055
-184.100	633.333	-0.060	-0.151
-183.085	-62.160	-0.038	0.015
-182.071	-45.376	-0.065	-0.032
-181.056	800.000	-0.044	0.151
-180.042	103.050	-0.181	0.209
-179.027	114.312	0.253	0.304
-178.012	-200.000	-0.025	0.332
-176.998	131.675	0.209	-0.265
-175.983	-169.772	-0.298	-0.011
-174.969	-118.853	-0.409	0.071
-173.954	109.008	-0.081	-0.096
-172.939	800.000	0.032	-0.115
-171.925	800.000	-0.021	-0.059
-170.910	-51.865	0.194	-0.089
-169.896	-13.396	0.227	0.145
-168.881	-44.401	-0.229	-0.113
-167.866	-105.931	0.266	0.059
-166.852	252.004	0.022	0.037
-165.837	37.168	-0.209	0.183
-164.823	-200.000	0.017	-0.145
-163.808	-91.116	-0.148	0.042
-162.793	-104.234	0.196	0.045
-161.779	-35.843	0.339	0.181
-160.764	-200.000	0.026	-0.137
-159.750	-28.680	0.317	-0.180
-158.735	48.325	-0.201	0.185
-157.720	-23.844	-0.187	-0.110
-156.706	52.464	0.238	0.225
-155.691	511.084	-0.027	-0.062
-154.677	-52.899	-0.380	0.172
-153.662	-134.257	0.404	0.049
-152.647	-200.000	-0.034	-0.252
-151.633	82.336	-0.127	0.136
-150.618	-200.000	0.035	0.158
-149.604	800.000	0.047	0.142
-148.589	800.000	-0.109	0.334
-147.574	79.595	0.028	-0.030
-146.560	151.025	0.110	0.147
-145.545	114.560	-0.018	0.022
-144.531	-40.179	-0.052	0.027
-143.516	-55.066	0.331	-0.147
-142.502	-19.709	-0.253	0.154
-141.487	88.105	-0.155	-0.169
-140.472	-18.228	-0.132	0.081
-139.458	-200.000	0.018	0.123
-138.443	27.735	-0.175	0.146
-137.429	-118.871	0.277	-0.048
-136.414	135.048	0.156	-0.200
-135.399	800.000	0.071	-0.213
-134.385	71.290	0.014	0.014
-133.370	743.447	0.068	-0.179
-132.356	-81.952	-0.145	-0.047
-131.341	-200.000	0.012	0.277
-130.326	197.068	0.055	0.082
-129.312	-200.000	0.056	-0.326
-128.297	-95.530	0.432	-0.114
-127.283	8.362	0.230	0.171
-126.268	-115.695	-0.238	-0.044
-125.253	553.792	-0.000	-0.001
-124.239	109.347	0.181	0.214
-123.224	-200.000	0.032	-0.196
-122.210	-200.000	-0.079	0.369
-121.195	174.333	-0.301	-0.428
-120.180	-200.000	-0.034	0.160
-119.166	176.447	-0.134	0.191
-118.151	-112.360	0.051	-0.010
-117.137	-200.000	-0.004	0.197
-116.122	14.768	0.100	-0.077
-115.107	-108.621	-0.258	0.055
-114.093	-61.656	0.227	0.094
-113.078	-95.529	-0.549	-0.145
-112.064	239.326	-0.041	-0.067
-111.049	-92.058	0.168	-0.047
-110.034	-200.000	0.007	-0.056
-109.020	-200.000	-0.048	0.398
-108.005	26.106	0.126	0.104
-106.991	-200.000	0.029	0.126
-105.976	105.263	0.220	0.256
-104.962	55.936	-0.225	-0.215
-103.947	23.358	0.219	-0.177
-102.932	-83.237	-0.329	-0.104
-101.918	1.890	0.196	0.139
-100.903	358.487	-0.096	-0.188
-99.889	800.000	-0.144	0.459
-98.874	60.862	-0.089	-0.087
-97.859	-200.000	0.013	0.069
-96.845	9.468	-0.183	0.136
-95.830	-102.215	0.172	0.041
-94.816	-200.000	0.001	0.223
-93.801	-31.891	-0.116	0.064
-92.786	220.401	-0.084	-0.132
-91.772	-90.693	-0.205	0.058
-90.757	-200.000	0.003	-0.323
-89.743	22.555	0.077	-0.062
-88.728	-136.757	0.140	0.016
-87.713	81.428	0.215	0.229
-86.699	-45.593	-0.258	0.126
-85.684	-94.521	-0.161	0.043
-84.670	-34.625	0.174	0.094
-83.655	-26.481	-0.341	0.196
-82.640	-200.000	0.070	0.352
-81.626	-72.037	-0.038	0.014
-80.611	584.551	-0.017	-0.042
-79.597	4.108	0.271	-0.195
-78.582	393.869	0.075	0.153
-77.567	-95.443	-0.319	0.084
-76.553	-159.364	-0.069	-0.004
-75.538	58.111	-0.136	0.131
-74.524	-113.582	0.248	0.048
-73.509	-200.000	0.028	-0.175
-72.494	-200.000	0.038	0.283
-71.480	330.119	-0.100	0.190
-70.465	17.842	0.231	0.181
-69.451	-91.880	-0.205	0.057
-68.436	-103.660	-0.273	-0.063
-67.422	48.696	0.195	0.180
-66.407	52.251	0.200	0.188
-65.392	45.913	0.198	0.180
-64.378	137.779	0.091	-0.118
-63.363	800.000	-0.017	0.070
-62.349	493.967	0.201	0.454
-61.334	62.000	-0.861	-0.843
-60.319	-32.926	0.581	0.317
-59.305	800.000	-0.329	-0.929
-58.290	800.000	0.415	1.146
-57.276	419.706	0.793	1.669
-56.261	-200.000	101.285	602.227
-55.246	586.086	1409.355	3405.537
-54.232	193.003	2587.864	3842.326
-53.217	117.044	2151.297	2596.205
-52.203	41.581	1689.240	1502.753
-51.188	34.097	1500.570	1284.562
-50.173	31.820	1473.494	1246.213
-49.159	52.303	1526.216	1429.943
-48.144	53.720	1543.477	1455.646
-47.130	34.382	1501.552	1287.125
-46.115	31.284	1487.052	1253.886
-45.100	31.078	1483.443	1249.413
-44.086	30.951	1481.754	1247.091
-43.071	31.121	1478.891	1245.765
-42.057	31.060	1477.374	1244.035
-41.042	30.972	1476.340	1242.526
-40.027	31.002	1475.401	1241.890
-39.013	30.938	1473.670	1239.953
-37.998	30.950	1472.179	1238.729
-36.984	30.998	1470.793	1237.833
-35.969	30.953	1469.866	1236.709
-34.954	30.927	1468.365	1235.222
-33.940	30.981	1467.134	1234.493
-32.925	30.998	1465.519	1233.201
-31.911	31.039	1464.502	1232.565
-30.896	31.057	1462.915	1231.302
-29.881	31.184	1461.594	1230.979
-28.867	31.154	1460.291	1229.636
-27.852	31.100	1458.848	1228.016
-26.838	31.099	1458.047	1227.282
-25.823	30.973	1456.463	1225.074
-24.809	31.083	1454.533	1224.126
-23.794	31.224	1452.470	1223.261
-22.779	31.072	1452.275	1222.052
-21.765	30.947	1451.339	1220.402
-20.750	30.974	1449.685	1219.137
-19.736	31.026	1448.505	1218.438
-18.721	30.982	1447.629	1217.362
-17.706	31.013	1446.618	1216.667
-16.692	30.988	1445.621	1215.619
-15.677	31.084	1444.299	1215.084
-14.663	30.952	1444.031	1213.949
-13.648	30.905	1442.684	1212.466
-12.633	30.998	1441.443	1211.976
-11.619	31.088	1440.423	1211.657
-10.604	30.939	1439.837	1210.151
-9.590	31.079	1438.731	1210.082
-8.575	31.071	1438.205	1209.537
-7.560	30.971	1437.353	1208.125
-6.546	31.007	1436.314	1207.434
-5.531	31.018	1435.288	1206.596
-4.517	30.915	1434.893	1205.549
-3.502	30.890	1433.557	1204.217
-2.487	31.129	1431.931	1204.350
-1.473	31.019	1431.719	1203.412
-0.458	30.880	1430.127	1201.130
0.556	32.355	1421.317	1190.089
1.571	29.334	1396.177	1150.126
2.586	25.569	1338.639	1080.068
3.600	23.811	1258.056	1005.024
4.615	22.360	1212.307	960.482
5.629	19.487	1156.436	901.155
6.644	11.254	1073.390	796.301
7.659	4.731	1034.000	736.233
8.673	3.816	1028.668	728.064
9.688	3.619	1025.411	724.771
10.702	3.323	1023.627	722.061
11.717	3.482	1022.242	721.763
12.731	6.400	1025.070	737.373
13.746	14.931	1036.564	785.813
14.761	22.163	1045.769	826.875
15.775	24.064	1047.314	836.970
16.790	23.829	1045.964	834.718
17.804	23.228	1044.464	830.625
18.819	22.706	1043.321	827.196
19.834	22.586	1042.575	825.969
20.848	22.572	1041.943	825.331
21.863	22.514	1041.986	825.018
22.877	22.590	1041.139	824.633
23.892	22.574	1040.246	823.776
24.907	22.294	1039.524	821.825
25.921	22.285	1038.254	820.704
26.936	22.139	1038.063	819.802
27.950	22.101	1036.933	818.659
28.965	22.070	1035.623	817.407
29.980	22.085	1034.331	816.385
30.994	22.285	1033.584	816.651
32.009	22.380	1032.732	816.348
33.023	22.323	1032.661	815.953
34.038	22.435	1031.397	815.402
35.053	22.419	1030.342	814.420
36.067	22.273	1029.536	813.036
37.082	22.138	1028.899	811.839
38.096	22.163	1027.784	811.001
39.111	22.336	1027.098	811.186
40.126	22.350	1026.180	810.453
41.140	22.267	1025.022	809.089
42.155	21.859	1024.240	806.524
43.169	21.598	1023.052	804.317
44.184	21.512	1021.672	802.765
45.199	21.728	1020.419	802.700
46.213	21.549	1019.761	801.291
47.228	21.565	1019.396	801.008
48.242	21.982	1018.977	802.514
49.257	22.263	1018.130	803.057
50.271	22.333	1017.368	802.706
51.286	22.340	1016.717	802.155
52.301	22.505	1016.266	802.479
53.315	22.459	1015.516	801.605
54.330	22.359	1014.904	800.598
55.344	22.191	1014.005	799.052
56.359	22.090	1012.720	797.514
57.374	22.053	1011.579	796.375
58.388	21.946	1011.276	795.583
59.403	21.804	1010.243	794.054
60.417	21.549	1009.825	792.504
61.432	21.662	1008.646	792.020
62.447	21.577	1008.050	791.094
63.461	21.593	1007.489	790.655
64.476	21.528	1006.508	789.523
65.490	21.375	1005.561	788.024
66.505	21.428	1004.763	787.564
67.520	21.419	1003.785	786.687
68.534	21.644	1003.600	787.484
69.549	21.505	1002.524	785.949
70.563	21.254	1002.345	784.609
71.578	21.305	1000.670	783.457
72.593	21.016	999.678	781.320
73.607	20.863	998.079	779.316
74.622	20.901	997.365	778.856
75.636	20.966	996.725	778.579
76.651	21.115	996.494	778.996
77.666	20.975	995.523	777.541
78.680	21.146	995.320	778.076
79.695	21.131	994.987	777.680
80.709	21.172	993.692	776.783
81.724	21.373	993.133	777.174
82.739	21.502	992.376	777.083
83.753	21.561	991.852	776.866
84.768	21.974	991.599	778.430
85.782	22.515	991.186	780.438
86.797	22.824	990.582	781.258
87.812	22.880	990.134	781.086
88.826	22.447	989.242	778.399
89.841	22.416	988.089	777.284
90.855	22.699	987.323	777.863
91.870	22.594	986.560	776.727
92.884	22.717	986.190	776.910
93.899	22.765	985.060	776.162
94.914	22.563	984.412	774.697
95.928	22.653	983.764	774.513
96.943	22.724	982.998	774.151
97.957	22.483	982.156	772.364
98.972	22.331	980.888	770.634
99.987	22.342	980.311	770.160
101.001	22.472	979.590	770.095
102.016	22.352	979.378	769.334
103.030	22.346	977.912	768.090
104.045	22.436	977.393	768.006
105.060	22.467	976.216	767.149
106.074	22.516	974.886	766.246
107.089	22.340	973.857	764.608
108.103	21.932	972.931	762.041
109.118	21.765	972.176	760.656
110.133	21.609	970.448	758.561
111.147	21.446	969.728	757.225
112.162	21.332	968.996	756.092
113.176	21.383	968.043	755.505
114.191	21.479	967.457	755.397
115.206	21.689	966.724	755.661
116.220	21.759	966.167	755.461
117.235	21.539	965.107	753.617
118.249	21.516	964.477	752.960
119.264	21.316	963.830	751.530
120.279	21.086	963.003	749.829
121.293	21.086	962.187	749.126
122.308	21.099	961.419	748.517
123.322	20.970	960.324	747.046
124.337	20.953	959.170	746.011
125.352	20.901	957.919	744.750
126.366	21.003	957.094	744.478
127.381	20.913	956.075	743.237
128.395	21.096	955.152	743.233
129.410	21.307	954.371	743.457
130.424	21.309	953.477	742.705
131.439	21.384	952.898	742.503
132.454	21.618	952.440	743.077
133.468	21.685	951.864	742.845
134.483	21.643	950.819	741.786
135.497	21.620	950.417	741.306
136.512	21.681	949.719	740.955
137.527	21.710	949.076	740.512
138.541	21.593	948.583	739.568
139.556	21.790	947.487	739.477
140.570	21.867	946.911	739.289
141.585	21.978	946.320	739.230
142.600	22.187	946.290	740.021
143.614	22.430	945.508	740.364
144.629	22.576	944.823	740.377
145.643	22.598	944.447	740.110
146.658	22.707	942.715	739.142
147.673	22.323	941.800	736.754
148.687	22.152	940.656	735.077
149.702	21.828	939.251	732.560
150.716	21.800	938.365	731.688
151.731	21.852	937.295	731.006
152.746	21.765	936.961	730.318
153.760	21.986	936.083	730.490
154.775	21.954	935.341	729.711
155.789	22.046	934.926	729.705
156.804	22.174	934.170	729.582
157.819	22.271	932.913	728.939
158.833	22.131	932.764	728.176
159.848	22.388	932.140	728.692
160.862	22.545	931.920	729.101
161.877	22.515	931.180	728.336
162.892	22.172	929.561	725.590
163.906	21.811	928.500	723.208
164.921	21.629	927.618	721.707
165.935	21.658	926.295	720.732
166.950	21.662	925.863	720.352
167.964	21.707	925.369	720.087
168.979	21.905	924.123	719.868
169.994	21.789	922.817	718.312
171.008	21.775	921.763	717.369
172.023	21.956	921.162	717.576
173.037	22.243	920.770	718.381
174.052	22.408	920.396	718.701
175.067	22.259	919.838	717.592
176.081	21.920	918.297	714.947
177.096	21.541	917.250	712.523
178.110	21.326	916.469	710.980
179.125	21.477	915.604	710.858
180.140	21.559	914.843	710.538
181.154	21.682	914.233	710.499
182.169	21.867	914.313	711.252
183.183	22.079	913.659	711.540
184.198	22.358	913.282	712.310
185.213	22.247	912.141	710.911
186.227	22.160	911.885	710.295
187.242	22.212	911.530	710.167
188.256	22.208	911.068	709.729
189.271	22.387	910.338	709.816
190.286	22.588	909.447	709.871
191.300	22.337	908.319	707.915
192.315	21.650	907.364	704.346
193.329	21.297	906.281	702.026
194.344	21.348	905.262	701.382
195.359	21.620	904.868	702.106
196.373	21.742	904.743	702.435
197.388	21.821	904.484	702.486
198.402	22.186	903.848	703.390
199.417	22.546	903.836	704.761
200.432	22.671	903.693	705.084
201.446	22.944	903.343	705.840
202.461	22.922	903.029	705.446
203.475	22.993	902.620	705.347
204.490	22.874	901.721	704.109
205.504	22.549	899.703	701.176
206.519	22.197	899.474	699.537
207.534	22.243	898.728	699.076
208.548	22.232	898.213	698.569
209.563	22.201	897.802	698.067
210.577	22.303	896.913	697.719
211.592	22.294	896.084	696.974
212.607	22.488	896.235	697.799
213.621	22.800	896.080	698.852
214.636	22.766	895.364	698.099
215.650	22.678	894.366	696.911
216.665	22.576	894.058	696.207
217.680	22.562	893.848	695.926
218.694	22.632	893.547	695.905
219.709	22.649	893.066	695.536
220.723	22.617	891.819	694.377
221.738	22.442	891.143	693.103
222.753	22.413	890.275	692.250
223.767	22.404	889.852	691.827
224.782	22.537	889.190	691.772
225.796	22.590	888.855	691.657
226.811	22.755	887.947	691.537
227.826	22.803	887.036	690.954
228.840	22.381	885.983	688.422
229.855	22.166	885.307	686.997
230.869	22.314	884.577	686.945
231.884	22.159	884.303	686.067
232.899	22.071	883.652	685.159
233.913	22.157	882.929	684.875
234.928	22.069	882.407	684.066
235.942	21.840	881.505	682.413
236.957	21.811	880.536	681.490
237.972	21.647	879.995	680.374
238.986	21.717	879.223	679.989
240.001	21.747	878.953	679.835
241.015	21.779	878.315	679.408
242.030	21.944	877.121	679.060
243.045	22.015	877.341	679.446
244.059	22.267	876.459	679.678
245.074	22.330	876.227	679.680
246.088	22.322	875.810	679.268
247.103	22.395	875.101	678.936
248.117	22.640	874.894	679.660
249.132	22.822	874.741	680.185
250.147	23.368	874.773	682.254
251.161	23.690	874.389	683.130
252.176	23.805	873.913	683.140
253.190	23.701	873.292	682.195
254.205	23.730	873.278	682.234
255.220	23.931	872.326	682.201
256.234	23.707	871.933	680.978
257.249	23.537	871.153	679.653
258.263	23.542	870.551	679.144
259.278	23.587	869.421	678.373
260.293	23.403	869.238	677.468
261.307	23.618	868.768	677.864
262.322	23.468	868.594	677.095
263.336	23.681	867.737	677.181
264.351	23.585	867.175	676.316
265.366	23.580	866.035	675.348
266.380	23.543	865.519	674.745
267.395	23.726	864.815	674.830
268.409	23.591	864.514	674.022
269.424	23.616	863.464	673.241
270.439	23.407	862.883	671.937
271.453	23.411	862.106	671.288
272.468	23.255	861.426	670.105
273.482	23.169	860.864	669.286
274.497	23.203	860.174	668.818
275.512	23.142	859.957	668.359
276.526	23.152	858.908	667.525
277.541	23.339	857.669	667.207
278.555	23.392	857.548	667.254
279.570	23.449	857.746	667.564
280.585	23.778	857.419	668.486
281.599	23.936	856.544	668.338
282.614	23.629	855.903	666.624
283.628	23.210	854.816	664.149
284.643	23.104	854.312	663.303
285.657	23.170	854.040	663.278
286.672	23.032	853.711	662.447
287.687	23.180	852.691	662.151
288.701	23.271	852.408	662.213
289.716	23.284	852.062	661.937
290.730	23.286	851.460	661.415
291.745	23.296	850.718	660.819
292.760	23.388	850.052	660.584
293.774	23.376	849.723	660.225
294.789	23.774	849.748	661.671
295.803	23.893	849.149	661.587
296.818	23.569	848.226	659.607
297.833	23.345	847.096	657.838
298.847	23.309	846.400	657.105
299.862	23.315	845.913	656.689
300.876	23.373	845.435	656.476
301.891	23.575	845.079	656.891
302.906	23.815	844.588	657.339
303.920	24.029	844.263	657.816
304.935	24.107	843.919	657.782
305.949	24.255	843.464	657.913
306.964	24.113	842.785	656.802
307.979	23.725	842.050	654.741
308.993	23.739	841.013	653.928
310.008	23.773	840.860	653.878
311.022	23.890	840.442	653.924
312.037	23.822	839.922	653.211
313.052	23.656	839.216	651.996
314.066	23.420	837.981	650.111
315.081	23.150	837.122	648.401
316.095	23.080	836.900	647.912
317.110	23.253	836.263	647.995
318.125	23.228	835.981	647.629
319.139	23.248	834.991	646.878
320.154	22.927	834.896	645.573
321.168	22.825	834.016	644.462
322.183	23.022	833.841	644.990
323.197	23.247	833.074	645.161
324.212	23.305	832.648	644.985
325.227	23.134	832.751	644.385
326.241	23.181	832.143	644.029
327.256	23.187	830.846	642.990
328.270	23.021	830.802	642.296
329.285	22.932	830.411	641.612
330.300	22.953	829.473	640.908
331.314	22.827	828.811	639.881
332.329	22.970	828.557	640.147
333.343	23.335	827.656	640.714
334.358	23.621	827.381	641.480
335.373	23.547	827.238	641.045
336.387	23.693	826.180	640.693
337.402	23.815	825.819	640.799
338.416	23.734	825.783	640.422
339.431	24.028	825.575	641.263
340.446	24.338	825.015	641.887
341.460	24.473	824.792	642.141
342.475	24.545	824.162	641.856
343.489	24.354	824.074	641.043
344.504	24.537	823.162	640.932
345.519	24.666	822.718	640.992
346.533	24.771	822.301	640.989
347.548	24.617	821.759	639.956
348.562	24.536	820.717	638.800
349.577	24.102	820.184	636.777
350.592	23.914	819.411	635.448
351.606	23.810	818.729	634.493
352.621	23.731	818.354	633.862
353.635	23.670	817.879	633.220
354.650	23.729	817.633	633.185
355.665	23.741	817.286	632.904
356.679	23.658	816.604	632.024
357.694	23.868	816.059	632.294
358.708	24.050	815.729	632.629
359.723	23.950	815.021	631.668
360.738	23.866	814.262	630.728
361.752	23.857	814.165	630.563
362.767	23.785	814.012	630.135
363.781	24.102	813.806	631.043
364.796	24.665	813.460	632.711
365.810	24.496	813.215	631.867
366.825	24.797	813.103	632.788
367.840	24.761	812.819	632.385
368.854	24.726	812.038	631.597
369.869	24.545	811.007	630.102
370.883	24.278	810.660	628.836
371.898	24.268	809.783	628.061
372.913	24.355	809.668	628.225
373.927	24.720	808.726	628.722
374.942	24.570	807.917	627.511
375.956	24.353	807.533	626.393
376.971	24.661	806.880	626.912
377.986	24.814	806.595	627.173
379.000	24.829	806.452	627.057
380.015	24.984	805.642	626.917
381.029	24.774	805.499	626.012
382.044	24.689	804.709	625.047
383.059	24.734	804.451	624.947
384.073	24.964	803.484	624.945
385.088	24.892	802.935	624.212
386.102	24.503	801.962	622.046
387.117	24.078	801.213	619.931
388.132	24.121	800.508	619.480
389.146	24.060	800.004	618.823
390.161	24.063	799.815	618.631
391.175	24.378	799.478	619.411
392.190	24.678	799.535	620.442
393.205	24.759	798.723	620.038
394.219	24.392	798.058	618.194
395.234	24.074	797.130	616.319
396.248	23.872	796.691	615.228
397.263	23.948	796.491	615.280
398.278	24.017	796.006	615.089
399.292	23.927	795.148	614.064
400.307	23.732	794.736	613.016
401.321	23.605	794.756	612.538
402.336	23.636	794.302	612.243
403.350	23.836	794.106	612.727
404.365	24.253	793.511	613.651
405.380	24.555	793.819	614.874
406.394	24.939	793.279	615.721
407.409	25.362	792.819	616.763
408.423	25.216	792.570	616.011
409.438	25.309	791.945	615.793
410.453	25.175	791.900	615.243
411.467	25.254	791.623	615.245
412.482	25.316	790.519	614.542
413.496	25.227	790.101	613.859
414.511	25.319	790.382	614.340
415.526	25.366	789.950	614.108
416.540	25.185	789.026	612.717
417.555	25.178	788.626	612.329
418.569	25.119	788.531	612.002
419.584	25.190	787.671	611.521
420.599	25.095	787.049	610.661
421.613	162.457	1369.352	1795.264
422.628	140.675	1454.188	1795.373
