DTS Sentinel unit serial number:	SN413079Multiplexer serial number:	ORYXHardware model number:	OX4-SRSoftware version number:	ORYX F/W v4.00 Oryx Data Collector v3.7.2.0data status	okinstallation	princeton_trtdifferential loss correction	single-endedforward channel	channel 3reverse channel	N/Adate	2019/09/18time	22:20:34forward acquisition time	60.00reverse acquisition time	0.00gamma	496.2192k internal	0.2345k external	0.2345temperature offset calibration	0.9992default loss term (dB/km)	0.3790temperature slope calibration	1.0000multiplexer offset coefficient	1.0000multiplexer slope coefficient	1.0000fibre end	0.00T internal ref (°C)	24.31T ext. ref 1 (°C)	0.80T ext. ref 2 (°C)	18.06length (m)	temperature (°C)	Stokes	anti-Stokes-747.200	-200.000	0.032	-0.143
-746.185	-200.000	0.004	-0.169
-745.171	800.000	-0.077	-0.212
-744.156	-36.102	0.108	0.059
-743.142	-21.498	-0.136	0.083
-742.127	619.349	-0.011	-0.027
-741.112	172.271	0.168	-0.242
-740.098	-59.249	0.028	0.012
-739.083	-146.415	0.157	0.014
-738.069	27.929	-0.125	-0.105
-737.054	800.000	0.083	0.260
-736.039	-17.267	-0.185	-0.117
-735.025	132.237	0.136	0.175
-734.010	308.518	-0.108	-0.201
-732.996	582.604	0.025	0.062
-731.981	-200.000	-0.034	0.292
-730.966	800.000	0.017	-0.060
-729.952	800.000	-0.132	-0.483
-728.937	125.540	-0.167	0.211
-727.923	-200.000	0.021	0.397
-726.908	16.015	-0.089	-0.070
-725.894	-27.442	0.281	0.163
-724.879	-200.000	0.030	-0.232
-723.864	22.451	-0.124	-0.102
-722.850	-89.906	-0.182	0.053
-721.835	-82.307	-0.217	0.071
-720.821	-25.393	-0.259	-0.153
-719.806	393.222	-0.036	0.075
-718.791	-133.742	-0.114	-0.014
-717.777	683.700	-0.037	-0.097
-716.762	-143.317	-0.437	0.042
-715.748	-45.031	-0.261	-0.130
-714.733	-93.782	0.075	0.021
-713.718	378.503	0.045	-0.091
-712.704	-61.184	0.462	0.194
-711.689	58.835	-0.125	0.123
-710.675	31.998	-0.311	-0.268
-709.660	179.564	-0.122	0.178
-708.645	215.265	0.043	-0.068
-707.631	-82.738	-0.338	0.109
-706.616	800.000	0.073	0.253
-705.602	702.273	0.146	0.384
-704.587	-184.908	0.352	0.006
-703.572	-119.277	-0.182	-0.032
-702.558	21.038	0.045	-0.036
-701.543	-114.071	0.060	-0.012
-700.529	-24.504	0.261	0.155
-699.514	-81.517	-0.016	-0.005
-698.499	-114.586	-0.560	0.107
-697.485	432.666	0.148	0.321
-696.470	571.988	0.076	-0.184
-695.456	-39.512	0.114	-0.060
-694.441	-200.000	0.003	-0.328
-693.426	-90.849	0.234	0.067
-692.412	-200.000	-0.061	0.000
-691.397	48.722	-0.219	0.205
-690.383	131.822	-0.100	-0.129
-689.368	-39.407	0.147	-0.077
-688.354	-170.637	-0.500	0.017
-687.339	-200.000	-0.232	-0.001
-686.324	-0.591	-0.081	0.058
-685.310	-22.065	0.123	-0.074
-684.295	-200.000	0.043	0.197
-683.281	-77.899	-0.202	-0.070
-682.266	708.047	0.079	0.209
-681.251	-108.003	0.136	-0.029
-680.237	-47.161	0.014	-0.007
-679.222	800.000	-0.154	-0.555
-678.208	315.974	-0.182	-0.344
-677.193	800.000	0.035	0.120
-676.178	316.850	-0.196	0.370
-675.164	-200.000	-0.007	0.070
-674.149	-160.838	-0.137	-0.007
-673.135	-163.696	0.137	0.006
-672.120	-200.000	-0.013	0.117
-671.105	154.276	-0.060	0.082
-670.091	180.149	0.163	0.239
-669.076	-19.920	0.144	-0.088
-668.062	-200.000	0.031	-0.146
-667.047	-200.000	0.007	0.192
-666.032	-114.026	0.120	0.023
-665.018	-91.637	0.263	-0.075
-664.003	-28.187	-0.390	-0.225
-662.989	-200.000	-0.006	0.127
-661.974	65.813	0.040	0.041
-660.959	45.531	-0.155	-0.143
-659.945	21.663	0.091	-0.074
-658.930	-75.865	-0.190	0.067
-657.916	128.469	-0.304	0.386
-656.901	53.628	-0.118	0.112
-655.886	-78.728	-0.205	-0.070
-654.872	125.987	0.014	0.017
-653.857	192.568	-0.136	-0.205
-652.843	202.782	0.080	0.123
-651.828	-6.873	0.187	-0.127
-650.814	139.328	0.167	0.219
-649.799	-35.085	0.085	-0.046
-648.784	-17.980	-0.164	-0.102
-647.770	-200.000	-0.025	-0.216
-646.755	130.413	0.267	-0.340
-645.741	-114.020	-0.465	0.090
-644.726	-200.000	-0.017	0.158
-643.711	-109.130	0.324	0.069
-642.697	447.227	-0.077	-0.170
-641.682	192.904	-0.138	0.208
-640.668	-200.000	0.081	0.377
-639.653	-114.095	0.042	0.008
-638.638	10.808	-0.326	0.248
-637.624	-21.554	0.354	-0.215
-636.609	-98.440	-0.311	-0.079
-635.595	-21.631	0.088	0.053
-634.580	84.671	0.232	-0.253
-633.565	180.307	0.053	0.077
-632.551	-30.988	0.121	0.068
-631.536	70.428	-0.190	-0.195
-630.522	-28.558	0.298	0.171
-629.507	-75.994	-0.340	0.120
-628.492	-200.000	0.023	-0.183
-627.478	63.389	-0.273	-0.273
-626.463	-200.000	-0.001	-0.137
-625.449	800.000	-0.067	-0.280
-624.434	756.990	0.052	-0.141
-623.419	50.893	-0.068	0.064
-622.405	-17.830	0.077	-0.048
-621.390	-110.296	0.012	0.002
-620.376	-116.600	-0.156	0.029
-619.361	-113.613	-0.270	-0.052
-618.346	-82.177	-0.330	-0.107
-617.332	-22.470	0.190	0.115
-616.317	-200.000	0.029	0.160
-615.303	0.046	-0.120	0.085
-614.288	9.550	0.101	0.076
-613.273	-9.095	-0.205	0.137
-612.259	-178.024	0.021	0.001
-611.244	31.248	-0.216	-0.184
-610.230	104.233	-0.187	-0.219
-609.215	69.761	0.080	-0.082
-608.201	25.861	0.177	-0.146
-607.186	72.402	0.246	0.256
-606.171	-100.945	0.252	-0.061
-605.157	-200.000	-0.008	-0.351
-604.142	-200.000	-0.029	-0.314
-603.128	-150.523	0.322	-0.025
-602.113	47.251	-0.339	0.314
-601.098	-42.296	-0.170	-0.087
-600.084	800.000	-0.083	-0.353
-599.069	205.884	0.098	-0.152
-598.055	46.965	0.097	0.090
-597.040	16.583	-0.126	0.099
-596.025	-200.000	-0.009	0.180
-595.011	489.717	0.061	-0.139
-593.996	-200.000	-0.005	-0.369
-592.982	-144.149	0.221	-0.021
-591.967	297.025	0.151	-0.277
-590.952	100.485	-0.071	-0.082
-589.938	13.268	0.142	0.109
-588.923	509.087	0.029	-0.067
-587.909	-200.000	-0.035	-0.269
-586.894	-20.517	0.090	0.055
-585.879	786.994	-0.032	0.086
-584.865	-141.601	0.378	-0.038
-583.850	-95.171	-0.555	0.149
-582.836	193.112	-0.067	-0.100
-581.821	-12.357	0.203	-0.132
-580.806	123.868	0.265	-0.330
-579.792	-200.000	-0.014	-0.231
-578.777	3.616	-0.229	0.166
-577.763	447.145	-0.057	-0.124
-576.748	55.962	0.104	-0.100
-575.733	800.000	-0.016	0.056
-574.719	-130.041	-0.446	0.061
-573.704	-157.495	-0.086	-0.005
-572.690	-39.468	-0.158	-0.082
-571.675	107.418	0.185	-0.219
-570.661	800.000	0.122	0.394
-569.646	-57.853	-0.156	0.068
-568.631	-104.839	-0.317	-0.072
-567.617	-200.000	0.010	-0.313
-566.602	-54.210	0.205	-0.093
-565.588	153.613	0.250	0.340
-564.573	-200.000	-0.020	0.088
-563.558	800.000	0.043	0.182
-562.544	-101.754	-0.185	-0.044
-561.529	-200.000	-0.045	0.207
-560.515	-200.000	0.044	-0.233
-559.500	-141.947	-0.276	-0.027
-558.485	-115.231	0.113	-0.021
-557.471	-0.779	0.330	0.232
-556.456	451.629	-0.090	-0.198
-555.442	800.000	-0.065	-0.199
-554.427	64.473	-0.186	0.186
-553.412	-33.119	-0.046	0.025
-552.398	-68.471	-0.300	-0.116
-551.383	800.000	0.018	0.078
-550.369	-200.000	-0.024	0.183
-549.354	-111.994	0.125	-0.025
-548.339	422.213	-0.122	0.259
-547.325	-143.262	-0.284	0.027
-546.310	496.892	0.143	-0.326
-545.296	-150.959	0.148	-0.011
-544.281	-122.280	-0.286	0.046
-543.266	-17.598	-0.242	0.151
-542.252	333.570	0.023	-0.045
-541.237	-40.878	0.189	-0.097
-540.223	2.982	-0.048	-0.034
-539.208	-19.655	0.342	0.210
-538.193	-132.482	-0.138	0.018
-537.179	-45.692	-0.308	-0.151
-536.164	-97.211	0.226	0.059
-535.150	-176.843	-0.157	-0.004
-534.135	-25.348	-0.383	-0.225
-533.121	-145.703	0.334	-0.030
-532.106	-126.795	0.244	0.036
-531.091	-58.109	-0.059	0.026
-530.077	800.000	0.085	-0.316
-529.062	800.000	-0.008	-0.029
-528.048	-126.052	-0.086	0.013
-527.033	106.532	-0.304	0.358
-526.018	20.649	0.209	-0.168
-525.004	500.665	-0.020	-0.047
-523.989	454.534	0.047	0.103
-522.975	-116.092	-0.161	-0.030
-521.960	20.084	0.050	0.040
-520.945	800.000	-0.054	-0.158
-519.931	506.436	-0.025	0.056
-518.916	37.958	0.146	0.128
-517.902	-49.123	0.183	-0.087
-516.887	-173.213	-0.111	-0.003
-515.872	391.771	0.137	0.282
-514.858	-20.735	0.227	-0.138
-513.843	1.216	-0.317	-0.225
-512.829	-200.000	0.043	0.263
-511.814	-59.536	-0.293	0.125
-510.799	800.000	0.051	0.152
-509.785	-168.629	-0.211	-0.008
-508.770	-12.947	-0.262	-0.169
-507.756	-9.676	0.370	-0.244
-506.741	-130.940	-0.094	0.013
-505.726	77.023	-0.039	-0.041
-504.712	-200.000	0.034	-0.362
-503.697	-153.979	0.339	-0.023
-502.683	-200.000	-0.035	-0.262
-501.668	-191.300	0.081	-0.001
-500.653	527.989	-0.156	0.364
-499.639	-168.501	0.166	0.006
-498.624	-140.010	-0.331	0.035
-497.610	-104.177	0.429	0.099
-496.595	224.205	0.087	-0.139
-495.581	800.000	0.096	0.274
-494.566	106.492	-0.050	-0.059
-493.551	4.814	-0.180	-0.131
-492.537	-42.494	0.129	-0.065
-491.522	800.000	-0.017	-0.057
-490.508	252.177	0.026	0.045
-489.493	-200.000	0.021	0.154
-488.478	583.040	-0.124	-0.302
-487.464	293.707	0.147	0.266
-486.449	800.000	-0.074	0.321
-485.435	-54.210	0.028	0.012
-484.420	45.858	0.171	-0.157
-483.405	-200.000	-0.036	-0.176
-482.391	-200.000	-0.006	-0.076
-481.376	-116.648	0.180	0.033
-480.362	299.123	-0.027	-0.049
-479.347	87.115	0.198	0.216
-478.332	7.422	0.131	-0.097
-477.318	394.418	0.046	0.094
-476.303	-19.169	0.088	0.054
-475.289	297.465	-0.129	0.235
-474.274	-77.842	-0.154	0.053
-473.259	-140.527	-0.048	0.005
-472.245	92.724	0.286	0.320
-471.230	-140.447	0.099	-0.010
-470.216	800.000	-0.073	0.244
-469.201	68.108	-0.045	-0.046
-468.186	-59.951	0.405	0.171
-467.172	41.138	-0.265	-0.237
-466.157	-10.270	0.259	-0.170
-465.143	-145.583	-0.170	0.015
-464.128	67.477	0.271	0.274
-463.113	-122.050	0.175	-0.028
-462.099	-200.000	-0.015	0.151
-461.084	-200.000	-0.024	0.116
-460.070	61.458	-0.026	-0.026
-459.055	-149.773	0.072	0.006
-458.040	-31.063	-0.363	0.203
-457.026	-15.410	-0.032	0.020
-456.011	28.683	0.201	-0.168
-454.997	63.458	-0.337	0.334
-453.982	129.471	0.144	-0.182
-452.968	-100.639	-0.462	0.113
-451.953	-200.000	-0.019	-0.107
-450.938	28.793	-0.118	0.099
-449.924	168.812	0.080	-0.112
-448.909	-64.995	0.095	-0.038
-447.895	519.532	-0.034	0.079
-446.880	-103.193	0.147	-0.034
-445.865	-28.515	-0.336	-0.191
-444.851	95.196	-0.182	0.205
-443.836	91.363	-0.061	-0.067
-442.822	399.829	0.036	0.074
-441.807	-84.311	0.118	0.037
-440.792	-95.797	-0.314	0.083
-439.778	-200.000	-0.019	0.123
-438.763	216.051	0.194	-0.304
-437.749	164.191	-0.037	-0.052
-436.734	202.968	0.165	-0.252
-435.719	113.314	0.149	0.178
-434.705	-200.000	0.020	-0.550
-433.690	-200.000	-0.017	-0.235
-432.676	238.276	-0.117	-0.192
-431.661	-19.223	0.180	-0.110
-430.646	800.000	-0.094	-0.282
-429.632	-172.395	0.149	-0.005
-428.617	-153.717	0.165	-0.011
-427.603	78.877	-0.167	0.177
-426.588	800.000	-0.071	-0.284
-425.573	-200.000	0.006	0.112
-424.559	-166.139	0.278	0.012
-423.544	20.999	-0.169	-0.135
-422.530	98.551	-0.180	0.205
-421.515	-65.402	-0.245	-0.097
-420.500	-200.000	0.056	0.305
-419.486	82.756	-0.143	0.153
-418.471	-200.000	-0.002	-0.034
-417.457	63.623	-0.073	0.073
-416.442	-130.907	0.271	0.036
-415.428	45.997	-0.387	0.354
-414.413	596.990	-0.028	0.069
-413.398	-200.000	-0.054	0.253
-412.384	199.403	0.054	0.082
-411.369	-80.421	0.100	0.033
-410.355	242.353	-0.157	0.260
-409.340	-26.883	-0.259	0.149
-408.325	-200.000	-0.010	0.173
-407.311	99.650	0.084	-0.096
-406.296	108.246	0.166	0.195
-405.282	-160.868	-0.368	0.019
-404.267	-53.326	0.413	0.187
-403.252	-43.900	0.172	0.085
-402.238	161.291	-0.251	0.347
-401.223	94.331	0.186	0.209
-400.209	27.595	0.255	0.212
-399.194	212.991	-0.085	-0.132
-398.179	-200.000	0.000	0.048
-397.165	-161.289	-0.152	-0.008
-396.150	-87.179	0.159	0.048
-395.136	-54.984	-0.127	0.057
-394.121	-124.122	-0.287	-0.044
-393.106	-200.000	0.038	-0.538
-392.092	-122.797	-0.124	-0.020
-391.077	-84.572	-0.258	0.080
-390.063	10.921	0.270	0.203
-389.048	800.000	0.052	0.208
-388.033	-200.000	-0.031	-0.444
-387.019	788.364	0.055	0.148
-386.004	-131.875	-0.328	-0.042
-384.990	-75.374	0.368	-0.129
-383.975	77.393	0.275	0.289
-382.960	369.472	0.175	-0.349
-381.946	-151.879	0.163	0.012
-380.931	-97.569	-0.147	-0.038
-379.917	165.706	-0.097	0.136
-378.902	-81.942	-0.186	-0.060
-377.888	-46.287	-0.239	-0.116
-376.873	-185.545	-0.132	0.002
-375.858	-200.000	-0.017	0.189
-374.844	50.705	-0.262	0.244
-373.829	223.307	0.166	0.264
-372.815	-69.104	0.200	-0.076
-371.800	22.292	0.103	-0.083
-370.785	-94.908	0.485	-0.129
-369.771	-200.000	0.048	0.236
-368.756	470.531	-0.085	-0.189
-367.742	14.382	0.232	-0.178
-366.727	-150.941	-0.124	0.009
-365.712	-129.134	0.030	0.004
-364.698	610.442	-0.091	-0.224
-363.683	194.172	0.207	-0.309
-362.669	303.160	-0.175	-0.319
-361.654	800.000	-0.022	0.084
-360.639	147.469	-0.198	0.263
-359.625	-118.752	0.190	0.033
-358.610	332.099	-0.200	0.380
-357.596	-200.000	-0.000	-0.048
-356.581	-200.000	-0.066	-0.292
-355.566	148.038	-0.162	-0.216
-354.552	-103.944	0.039	0.009
-353.537	-200.000	0.001	-0.256
-352.523	38.057	0.102	-0.089
-351.508	-158.938	-0.086	-0.005
-350.493	-200.000	0.044	-0.333
-349.479	380.014	0.141	-0.284
-348.464	-77.237	-0.075	-0.026
-347.450	800.000	0.024	-0.092
-346.435	19.324	0.270	-0.213
-345.420	-200.000	-0.034	-0.199
-344.406	43.140	0.038	-0.034
-343.391	-139.632	0.160	-0.017
-342.377	-18.215	-0.163	-0.100
-341.362	623.323	0.042	-0.104
-340.348	-112.503	-0.020	-0.004
-339.333	-15.949	-0.392	0.246
-338.318	-200.000	-0.011	0.272
-337.304	-84.592	-0.100	0.031
-336.289	800.000	-0.044	0.145
-335.275	-96.928	0.133	-0.034
-334.260	-200.000	-0.047	0.240
-333.245	511.637	0.057	-0.131
-332.231	129.223	-0.152	0.192
-331.216	-68.732	0.209	-0.079
-330.202	20.743	0.099	0.079
-329.187	99.168	0.031	-0.036
-328.172	-200.000	0.005	-0.043
-327.158	-200.000	0.009	-0.260
-326.143	800.000	-0.111	-0.338
-325.129	-200.000	0.001	-0.123
-324.114	-130.707	0.119	0.016
-323.099	154.019	-0.072	-0.097
-322.085	-22.981	-0.188	0.111
-321.070	800.000	-0.111	0.411
-320.056	130.049	0.175	0.221
-319.041	-77.919	0.281	0.095
-318.026	181.816	-0.069	0.100
-317.012	589.033	-0.079	-0.192
-315.997	-173.137	0.164	0.005
-314.983	-200.000	-0.052	-0.257
-313.968	172.414	-0.145	0.206
-312.953	103.687	0.158	0.182
-311.939	-9.517	-0.095	-0.063
-310.924	80.677	-0.091	0.096
-309.910	-200.000	0.038	-0.283
-308.895	3.381	0.099	-0.071
-307.880	-91.921	-0.216	0.060
-306.866	168.802	-0.055	0.077
-305.851	142.391	-0.285	0.372
-304.837	-81.848	-0.101	0.032
-303.822	384.824	-0.140	0.283
-302.807	-169.367	0.191	0.007
-301.793	-10.866	0.091	-0.059
-300.778	79.706	-0.130	-0.138
-299.764	-200.000	0.012	0.246
-298.749	-200.000	0.069	-0.437
-297.735	474.188	0.153	0.339
-296.720	73.705	0.186	0.191
-295.705	-53.126	-0.178	-0.080
-294.691	800.000	-0.035	0.144
-293.676	58.077	-0.092	0.089
-292.662	-13.575	0.264	-0.168
-291.647	-200.000	-0.046	-0.371
-290.632	45.623	-0.106	-0.097
-289.618	118.758	0.115	-0.140
-288.603	-24.578	0.214	0.125
-287.589	-200.000	-0.025	-0.234
-286.574	-200.000	-0.007	-0.160
-285.559	16.102	0.201	0.155
-284.545	-200.000	-0.023	0.278
-283.530	159.812	0.109	0.149
-282.516	-200.000	-0.032	-0.178
-281.501	-200.000	0.053	-0.391
-280.486	-19.633	-0.232	0.141
-279.472	-118.660	0.256	0.044
-278.457	-43.479	-0.087	0.043
-277.443	222.498	0.129	-0.204
-276.428	-53.903	0.381	-0.170
-275.413	83.024	-0.249	-0.266
-274.399	223.390	-0.180	-0.285
-273.384	111.836	-0.125	0.148
-272.370	152.367	0.100	0.134
-271.355	348.311	-0.170	0.329
-270.340	-183.666	0.481	-0.008
-269.326	-64.704	0.198	-0.079
-268.311	-131.252	-0.342	0.045
-267.297	-62.899	0.165	0.067
-266.282	-35.077	0.365	-0.195
-265.267	800.000	-0.041	-0.125
-264.253	110.491	-0.047	-0.055
-263.238	-123.026	0.329	-0.052
-262.224	-200.000	0.048	0.497
-261.209	-200.000	0.008	0.101
-260.195	-32.182	0.238	0.131
-259.180	119.574	0.334	-0.406
-258.165	-30.698	0.251	0.140
-257.151	-151.284	0.293	-0.021
-256.136	365.687	-0.064	-0.126
-255.122	43.770	-0.205	0.184
-254.107	-148.003	-0.152	0.012
-253.092	-200.000	0.032	0.239
-252.078	-130.492	0.075	0.010
-251.063	7.181	-0.111	-0.082
-250.049	481.534	0.072	0.161
-249.034	800.000	0.113	0.371
-248.019	-75.260	-0.061	0.021
-247.005	-50.179	-0.064	0.030
-245.990	-19.545	-0.156	-0.095
-244.976	-200.000	-0.018	0.188
-243.961	-200.000	0.009	-0.066
-242.946	314.548	-0.104	-0.191
-241.932	-200.000	0.009	-0.057
-240.917	-200.000	0.032	0.223
-239.903	800.000	-0.028	0.105
-238.888	419.331	0.202	0.424
-237.873	356.294	-0.130	-0.254
-236.859	-42.156	0.130	-0.065
-235.844	354.724	0.085	0.165
-234.830	-88.278	-0.278	-0.082
-233.815	-200.000	-0.006	0.292
-232.800	800.000	-0.082	-0.260
-231.786	800.000	-0.033	-0.096
-230.771	442.984	-0.132	0.283
-229.757	-140.679	-0.300	-0.030
-228.742	800.000	-0.031	-0.111
-227.727	183.573	-0.021	-0.031
-226.713	-200.000	0.059	-0.436
-225.698	800.000	-0.135	0.368
-224.684	21.383	-0.306	-0.244
-223.669	28.230	0.190	0.157
-222.655	245.530	-0.120	0.198
-221.640	-8.085	-0.316	0.209
-220.625	-30.639	0.245	0.136
-219.611	471.879	-0.129	0.285
-218.596	-123.039	0.174	0.027
-217.582	-83.053	-0.415	-0.131
-216.567	-107.105	-0.332	0.072
-215.552	-200.000	0.008	-0.097
-214.538	-40.461	0.232	0.118
-213.523	-39.483	-0.030	-0.016
-212.509	-200.000	0.025	0.295
-211.494	-134.237	-0.438	-0.053
-210.479	-115.381	-0.174	0.032
-209.465	-95.443	0.052	0.014
-208.450	-54.574	-0.245	-0.109
-207.436	-130.704	-0.250	-0.033
-206.421	170.522	0.230	0.322
-205.406	238.911	0.362	0.589
-204.392	-18.152	0.183	0.112
-203.377	-29.465	-0.214	0.120
-202.363	-200.000	0.084	-0.472
-201.348	-85.505	0.228	-0.069
-200.333	-142.578	0.198	0.019
-199.319	-112.143	0.039	0.008
-198.304	-18.250	0.058	-0.035
-197.290	-125.908	-0.383	-0.057
-196.275	-200.000	-0.040	0.229
-195.260	-59.782	0.101	-0.042
-194.246	233.112	0.092	0.149
-193.231	92.731	0.193	0.213
-192.217	-77.656	0.161	-0.055
-191.202	-109.695	0.233	0.048
-190.187	-200.000	-0.013	0.122
-189.173	98.416	-0.104	-0.117
-188.158	167.732	-0.199	-0.277
-187.144	-124.385	0.213	0.033
-186.129	-200.000	-0.010	0.174
-185.114	-178.165	-0.318	0.007
-184.100	714.411	0.114	-0.295
-183.085	800.000	-0.007	-0.024
-182.071	-122.729	0.191	0.030
-181.056	30.404	-0.048	-0.040
-180.042	-200.000	0.306	-0.000
-179.027	-145.487	0.092	0.008
-178.012	-200.000	-0.001	0.217
-176.998	-141.501	0.133	0.013
-175.983	112.888	-0.146	-0.173
-174.969	304.266	-0.073	0.133
-173.954	800.000	-0.057	0.184
-172.939	-22.924	-0.206	-0.122
-171.925	-200.000	0.028	-0.322
-170.910	-158.477	-0.077	-0.004
-169.896	-11.249	-0.085	-0.055
-168.881	223.015	-0.018	-0.028
-167.866	114.685	0.009	-0.010
-166.852	89.223	-0.167	0.182
-165.837	4.667	0.185	-0.133
-164.823	49.167	0.154	0.142
-163.808	-177.158	0.241	-0.006
-162.793	-76.791	-0.099	-0.034
-161.779	800.000	0.100	0.359
-160.764	380.304	0.154	-0.308
-159.750	-133.746	0.225	0.027
-158.735	704.420	-0.110	-0.284
-157.720	-200.000	-0.029	0.152
-156.706	367.096	0.094	0.185
-155.691	-193.862	0.246	-0.002
-154.677	1.349	0.084	-0.059
-153.662	-159.331	-0.167	-0.009
-152.647	-200.000	-0.007	0.046
-151.633	367.184	0.199	-0.393
-150.618	15.358	0.168	0.129
-149.604	326.403	-0.133	0.249
-148.589	-106.592	-0.333	-0.073
-147.574	112.720	0.085	0.100
-146.560	122.863	0.068	0.083
-145.545	231.064	0.111	0.178
-144.531	16.377	0.317	0.245
-143.516	-135.568	-0.142	-0.017
-142.502	207.288	-0.136	-0.207
-141.487	354.792	0.176	0.342
-140.472	800.000	-0.188	0.560
-139.458	-197.352	-0.250	0.002
-138.443	13.465	-0.202	-0.153
-137.429	61.613	0.123	-0.119
-136.414	-72.593	-0.027	-0.010
-135.399	164.103	0.285	-0.392
-134.385	-200.000	-0.029	0.231
-133.370	27.690	0.196	0.161
-132.356	-124.052	0.057	0.009
-131.341	-111.161	0.331	0.066
-130.326	-111.602	0.216	-0.043
-129.312	-41.208	0.312	0.157
-128.297	-200.000	0.067	0.389
-127.283	-4.456	0.112	0.076
-126.268	-49.449	0.074	-0.035
-125.253	-142.690	0.293	-0.028
-124.239	-77.349	-0.050	-0.017
-123.224	-29.493	0.280	0.156
-122.210	27.007	-0.141	-0.115
-121.195	484.202	0.183	0.407
-120.180	39.481	-0.204	0.178
-119.166	-75.461	0.313	0.109
-118.151	-200.000	-0.013	-0.321
-117.137	-14.143	0.266	-0.167
-116.122	115.611	-0.248	0.296
-115.107	-38.300	0.229	-0.118
-114.093	800.000	-0.127	0.370
-113.078	-23.457	-0.227	0.133
-112.064	-79.070	-0.182	0.060
-111.049	439.086	0.075	-0.161
-110.034	-200.000	0.006	0.048
-109.020	134.742	0.201	-0.255
-108.005	28.738	0.110	0.091
-106.991	800.000	-0.017	0.060
-105.976	-200.000	-0.020	0.095
-104.962	-25.070	-0.182	0.105
-103.947	45.849	-0.233	0.210
-102.932	67.102	-0.157	-0.157
-101.918	30.739	-0.193	-0.161
-100.903	-177.138	0.382	-0.009
-99.889	36.506	0.235	0.202
-98.874	130.242	0.071	0.088
-97.859	66.004	0.229	-0.227
-96.845	46.084	-0.412	-0.372
-95.830	202.688	0.085	-0.128
-94.816	-16.336	0.219	0.135
-93.801	67.282	0.031	0.031
-92.786	-200.000	0.032	0.222
-91.772	715.701	-0.041	0.107
-90.757	-32.764	0.245	-0.133
-89.743	-30.916	0.178	-0.098
-88.728	24.088	0.195	-0.157
-87.713	-163.323	0.313	-0.015
-86.699	-133.090	-0.339	0.042
-85.684	800.000	0.055	-0.166
-84.670	112.545	-0.188	0.221
-83.655	800.000	0.031	-0.128
-82.640	800.000	0.123	-0.443
-81.626	-52.694	-0.149	-0.067
-80.611	-110.917	0.124	0.025
-79.597	-133.175	-0.127	0.016
-78.582	-153.354	-0.125	0.009
-77.567	219.387	0.185	-0.288
-76.553	-200.000	-0.001	0.019
-75.538	168.795	0.192	0.267
-74.524	288.489	0.124	0.218
-73.509	111.113	-0.219	0.257
-72.494	2.240	-0.171	0.121
-71.480	500.993	0.117	0.264
-70.465	-200.000	-0.100	0.545
-69.451	373.596	-0.079	-0.157
-68.436	-157.691	0.277	0.016
-67.422	-54.583	0.183	0.081
-66.407	0.901	0.205	-0.143
-65.392	583.480	0.029	-0.070
-64.378	-154.804	0.153	0.010
-63.363	57.811	-0.231	0.220
-62.349	358.286	-0.060	-0.118
-61.334	29.472	-1.133	-0.938
-60.319	-68.669	0.568	0.214
-59.305	343.590	-0.685	-1.308
-58.290	299.512	0.627	1.125
-57.276	224.732	0.853	1.344
-56.261	-200.000	121.687	648.507
-55.246	437.931	1537.737	3265.769
-54.232	149.042	2684.386	3536.339
-53.217	98.858	2156.141	2423.872
-52.203	34.902	1682.417	1433.764
-51.188	27.500	1501.524	1229.802
-50.173	25.430	1478.074	1196.776
-49.159	49.078	1547.787	1415.729
-48.144	46.599	1561.298	1411.083
-47.130	27.416	1510.943	1236.753
-46.115	24.622	1495.266	1205.058
-45.100	24.475	1491.398	1200.901
-44.086	24.392	1489.849	1199.048
-43.071	24.334	1487.946	1197.085
-42.057	24.230	1486.359	1195.059
-41.042	24.302	1484.856	1194.289
-40.027	24.273	1483.661	1193.084
-39.013	24.400	1481.254	1191.951
-37.998	24.245	1480.668	1190.398
-36.984	24.266	1479.331	1189.415
-35.969	24.322	1477.552	1188.310
-34.954	24.262	1476.609	1187.101
-33.940	24.245	1475.385	1185.960
-32.925	24.224	1474.114	1184.755
-31.911	24.275	1472.461	1183.716
-30.896	24.335	1470.976	1182.869
-29.881	24.401	1470.238	1182.672
-28.867	24.282	1468.704	1180.602
-27.852	24.348	1467.559	1180.071
-26.838	24.412	1465.752	1178.993
-25.823	24.356	1464.722	1177.746
-24.809	24.406	1462.534	1176.274
-23.794	24.344	1461.546	1175.022
-22.779	24.463	1460.356	1174.801
-21.765	24.358	1459.488	1173.366
-20.750	24.335	1458.401	1172.297
-19.736	24.318	1457.212	1171.180
-18.721	24.255	1456.295	1169.985
-17.706	24.319	1455.426	1169.658
-16.692	24.266	1454.210	1168.286
-15.677	24.295	1452.997	1167.455
-14.663	24.302	1452.341	1166.926
-13.648	24.349	1450.931	1166.057
-12.633	24.335	1449.828	1165.035
-11.619	24.357	1449.381	1164.769
-10.604	24.317	1448.543	1163.793
-9.590	24.256	1447.795	1162.746
-8.575	24.304	1446.607	1162.061
-7.560	24.220	1446.229	1161.163
-6.546	24.256	1445.537	1160.791
-5.531	24.413	1444.151	1160.658
-4.517	24.429	1442.915	1159.721
-3.502	24.281	1442.724	1158.558
-2.487	24.324	1441.510	1157.819
-1.473	24.241	1440.684	1156.570
-0.458	24.342	1439.042	1155.863
0.556	23.299	1429.089	1143.814
1.571	20.049	1404.881	1103.673
2.586	16.489	1342.912	1033.181
3.600	14.960	1260.257	960.725
4.615	13.916	1217.239	922.055
5.629	12.325	1161.702	871.474
6.644	6.437	1081.469	782.055
7.659	1.569	1045.042	732.250
8.673	0.852	1040.234	725.382
9.688	0.741	1036.872	722.444
10.702	0.760	1035.606	721.589
11.717	0.826	1033.132	720.115
12.731	2.783	1034.459	730.296
13.746	9.070	1042.438	765.944
14.761	15.112	1050.831	801.026
15.775	17.232	1052.784	812.589
16.790	16.960	1051.321	810.091
17.804	16.022	1049.557	804.184
18.819	15.190	1047.331	798.444
19.834	14.815	1045.949	795.535
20.848	14.496	1045.441	793.559
21.863	14.331	1044.776	792.200
22.877	13.994	1043.756	789.758
23.892	13.839	1042.738	788.182
24.907	13.871	1041.828	787.576
25.921	13.767	1041.088	786.454
26.936	13.739	1040.849	786.067
27.950	13.753	1039.841	785.306
28.965	13.872	1039.667	785.669
29.980	13.864	1038.199	784.450
30.994	13.837	1037.680	783.860
32.009	13.989	1036.407	783.549
33.023	13.992	1035.772	783.009
34.038	14.054	1034.869	782.552
35.053	13.953	1034.233	781.526
36.067	13.979	1033.318	780.889
37.082	13.862	1032.813	779.888
38.096	13.916	1031.934	779.406
39.111	13.989	1031.261	779.172
40.126	13.955	1030.441	778.326
41.140	13.833	1029.394	776.897
42.155	13.821	1028.285	775.934
43.169	13.790	1027.734	775.302
44.184	13.708	1027.134	774.402
45.199	13.710	1025.519	773.122
46.213	13.770	1024.364	772.463
47.228	13.870	1023.392	772.126
48.242	13.777	1022.831	771.205
49.257	13.764	1021.972	770.426
50.271	13.925	1020.682	770.131
51.286	13.883	1020.068	769.409
52.301	13.863	1019.131	768.541
53.315	13.807	1018.663	767.861
54.330	13.954	1017.315	767.456
55.344	13.790	1016.541	766.048
56.359	13.897	1015.173	765.441
57.374	13.890	1014.667	764.957
58.388	13.855	1014.045	764.263
59.403	13.801	1013.102	763.236
60.417	13.643	1012.537	762.016
61.432	13.755	1011.614	761.765
62.447	13.669	1010.619	760.556
63.461	13.859	1009.413	760.453
64.476	13.713	1009.184	759.545
65.490	13.647	1008.181	758.417
66.505	13.709	1007.417	758.060
67.520	13.815	1006.612	757.871
68.534	13.687	1006.172	756.890
69.549	13.817	1004.975	756.513
70.563	13.781	1004.535	755.951
71.578	13.648	1004.017	754.892
72.593	13.809	1002.708	754.569
73.607	13.836	1001.777	753.926
74.622	13.766	1000.701	752.731
75.636	13.751	1000.256	752.262
76.651	13.773	999.515	751.738
77.666	13.789	998.792	751.202
78.680	13.805	997.500	750.235
79.695	13.682	997.544	749.645
80.709	13.625	997.030	748.934
81.724	13.726	996.194	748.698
82.739	13.805	995.110	748.171
83.753	13.763	994.234	747.261
84.768	13.901	993.852	747.526
85.782	14.018	992.593	747.039
86.797	13.986	992.019	746.397
87.812	13.882	991.555	745.515
88.826	13.956	990.397	744.910
89.841	13.776	990.023	743.758
90.855	13.885	988.495	743.029
91.870	14.013	987.810	743.022
92.884	13.993	987.211	742.416
93.899	13.975	986.445	741.693
94.914	13.944	985.963	741.131
95.928	14.081	985.233	741.125
96.943	14.017	984.380	740.131
97.957	13.990	983.637	739.389
98.972	13.949	982.966	738.637
99.987	13.844	982.698	737.902
101.001	14.039	981.392	737.723
102.016	14.109	980.515	737.309
103.030	13.961	979.990	736.193
104.045	14.131	978.602	735.836
105.060	13.990	977.735	734.495
106.074	14.047	976.716	733.918
107.089	13.913	976.160	732.846
108.103	13.935	975.319	732.244
109.118	13.943	974.319	731.463
110.133	13.870	973.592	730.534
111.147	13.873	972.862	729.931
112.162	13.869	971.945	729.164
113.176	13.872	971.110	728.486
114.191	13.894	970.140	727.791
115.206	13.903	969.547	727.319
116.220	14.018	968.462	726.943
117.235	13.951	967.667	725.991
118.249	13.950	966.619	725.136
119.264	14.032	965.554	724.631
120.279	13.989	965.326	724.209
121.293	13.844	964.579	722.951
122.308	13.911	963.850	722.635
123.322	13.895	963.057	721.904
124.337	13.923	961.979	721.156
125.352	13.970	960.525	720.207
126.366	13.808	959.513	718.679
127.381	13.803	958.628	717.931
128.395	13.862	957.455	717.245
129.410	13.785	956.597	716.207
130.424	13.869	955.780	715.893
131.439	13.929	954.762	715.326
132.454	13.936	954.005	714.728
133.468	13.882	953.686	714.192
134.483	13.993	952.531	713.739
135.497	14.024	952.080	713.473
136.512	13.953	951.186	712.435
137.527	14.045	950.198	712.025
138.541	14.083	949.433	711.551
139.556	13.873	949.562	710.688
140.570	13.892	948.187	709.678
141.585	14.063	947.245	709.640
142.600	14.042	946.799	709.154
143.614	14.077	946.325	708.886
144.629	14.145	945.235	708.294
145.643	14.108	944.607	707.605
146.658	14.084	944.055	707.024
147.673	13.913	943.207	705.603
148.687	14.034	942.362	705.422
149.702	14.066	941.433	704.796
150.716	14.063	940.179	703.786
151.731	14.016	939.917	703.326
152.746	14.074	938.933	702.773
153.760	13.974	938.408	701.898
154.775	14.145	937.457	701.844
155.789	14.092	937.086	701.280
156.804	14.114	936.277	700.707
157.819	14.184	935.304	700.212
158.833	14.154	935.087	699.859
159.848	14.109	934.385	699.082
160.862	14.220	933.718	698.988
161.877	14.268	932.597	698.287
162.892	14.339	931.784	697.916
163.906	14.193	930.969	696.632
164.921	14.122	930.422	695.866
165.935	14.199	929.104	695.141
166.950	14.260	928.283	694.718
167.964	14.377	927.219	694.348
168.979	14.236	926.506	693.165
169.994	14.221	925.297	692.135
171.008	14.187	925.075	691.769
172.023	14.297	923.977	691.344
173.037	14.237	923.643	690.782
174.052	14.331	922.607	690.338
175.067	14.364	922.060	690.003
176.081	14.314	921.130	689.040
177.096	14.195	920.804	688.243
178.110	14.288	919.242	687.399
179.125	14.269	918.825	686.949
180.140	14.381	917.779	686.566
181.154	14.305	917.420	685.923
182.169	14.499	916.273	685.803
183.183	14.442	915.987	685.292
184.198	14.398	915.547	684.724
185.213	14.476	914.797	684.421
186.227	14.540	913.691	683.797
187.242	14.441	913.710	683.346
188.256	14.570	912.961	683.254
189.271	14.585	912.384	682.822
190.286	14.471	911.604	681.712
191.300	14.486	910.780	681.097
192.315	14.416	910.287	680.379
193.329	14.291	909.679	679.356
194.344	14.429	908.497	678.974
195.359	14.547	908.294	679.245
196.373	14.460	907.927	678.557
197.388	14.475	907.195	678.008
198.402	14.630	906.596	678.132
199.417	14.480	906.723	677.556
200.432	14.561	905.917	677.222
201.446	14.770	905.153	677.440
202.461	14.840	904.857	677.444
203.475	14.754	904.431	676.716
204.490	14.870	903.396	676.348
205.504	14.775	902.358	675.128
206.519	14.680	901.874	674.325
207.534	14.733	901.310	674.057
208.548	14.771	900.624	673.638
209.563	14.902	899.569	673.317
210.577	14.694	899.259	672.187
211.592	14.698	898.924	671.893
212.607	14.827	898.205	671.814
213.621	14.992	897.147	671.625
214.636	14.905	896.957	671.077
215.650	14.905	896.332	670.550
216.665	14.822	895.829	669.780
217.680	14.770	895.275	669.097
218.694	14.887	894.636	669.029
219.709	14.997	894.043	668.969
220.723	15.114	893.484	668.959
221.738	15.113	892.425	668.103
222.753	15.082	891.765	667.425
223.767	15.084	891.223	666.967
224.782	14.933	890.244	665.577
225.796	15.072	889.844	665.768
226.811	15.046	889.075	665.031
227.826	15.080	888.508	664.685
228.840	15.043	888.022	664.116
229.855	15.182	886.806	663.697
230.869	15.093	886.615	663.143
231.884	15.152	886.069	662.910
232.899	15.044	885.214	661.787
233.913	15.072	884.387	661.219
234.928	15.178	883.826	661.159
235.942	15.076	883.443	660.413
236.957	15.042	882.656	659.629
237.972	15.001	881.994	658.915
238.986	15.150	881.341	658.956
240.001	15.053	880.857	658.156
241.015	15.236	879.926	658.119
242.030	15.159	879.668	657.565
243.045	15.228	878.547	656.941
244.059	15.206	878.291	656.605
245.074	15.169	877.812	656.044
246.088	15.323	876.495	655.602
247.103	15.380	876.149	655.511
248.117	15.318	875.470	654.699
249.132	15.354	874.851	654.321
250.147	15.439	874.453	654.295
251.161	15.544	873.943	654.266
252.176	15.363	873.265	652.998
253.190	15.430	872.504	652.630
254.205	15.329	872.289	652.020
255.220	15.603	871.592	652.504
256.234	15.527	870.985	651.696
257.249	15.749	869.996	651.760
258.263	15.604	869.181	650.531
259.278	15.601	869.112	650.411
260.293	15.678	868.891	650.483
261.307	15.660	867.430	649.264
262.322	15.754	867.396	649.544
263.336	15.822	866.564	649.127
264.351	15.684	866.368	648.389
265.366	15.868	865.640	648.494
266.380	15.820	864.634	647.499
267.395	15.784	864.153	646.944
268.409	15.812	863.684	646.644
269.424	15.899	862.874	646.312
270.439	15.820	862.312	645.532
271.453	15.752	861.711	644.765
272.468	15.701	860.659	643.725
273.482	15.804	860.437	643.896
274.497	15.784	859.538	643.091
275.512	15.758	858.696	642.304
276.526	15.860	858.155	642.232
277.541	15.885	857.510	641.786
278.555	15.858	857.139	641.349
279.570	15.849	856.488	640.772
280.585	15.940	856.192	640.839
281.599	16.007	855.429	640.468
282.614	15.903	854.926	639.638
283.628	16.018	854.234	639.502
284.643	16.047	853.461	638.976
285.657	15.988	852.823	638.219
286.672	16.113	852.403	638.319
287.687	16.064	851.700	637.552
288.701	16.054	851.592	637.376
289.716	16.038	851.081	636.876
290.730	16.140	850.210	636.555
291.745	16.199	849.449	636.151
292.760	16.126	849.170	635.612
293.774	16.222	848.226	635.209
294.789	16.070	847.870	634.316
295.803	16.150	847.680	634.416
296.818	16.298	846.478	634.019
297.833	16.106	846.076	632.939
298.847	16.192	845.439	632.730
299.862	16.250	844.599	632.261
300.876	16.276	843.977	631.837
301.891	16.218	843.303	631.062
302.906	16.382	842.461	630.987
303.920	16.271	842.041	630.205
304.935	16.308	841.632	629.978
305.949	16.405	840.774	629.644
306.964	16.553	840.186	629.696
307.979	16.411	839.688	628.741
308.993	16.451	839.260	628.512
310.008	16.547	838.709	628.400
311.022	16.471	838.317	627.772
312.037	16.495	837.672	627.322
313.052	16.439	837.597	626.999
314.066	16.458	836.702	626.345
315.081	16.464	835.880	625.698
316.095	16.481	835.368	625.321
317.110	16.497	834.778	624.883
318.125	16.522	833.896	624.262
319.139	16.460	833.711	623.839
320.154	16.572	833.062	623.710
321.168	16.467	832.738	623.026
322.183	16.571	832.180	622.935
323.197	16.661	831.592	622.770
324.212	16.653	831.078	622.301
325.227	16.548	830.744	621.612
326.241	16.548	830.117	621.088
327.256	16.521	829.693	620.614
328.270	16.590	829.359	620.564
329.285	16.533	828.703	619.810
330.300	16.656	827.889	619.597
331.314	16.700	827.061	619.082
332.329	16.675	826.769	618.717
333.343	16.664	826.223	618.213
334.358	16.713	825.602	617.874
335.373	16.734	825.119	617.535
336.387	16.742	824.511	617.054
337.402	16.826	824.218	617.086
338.416	16.785	823.732	616.519
339.431	16.822	823.192	616.194
340.446	16.871	822.534	615.824
341.460	16.789	821.867	614.973
342.475	16.988	821.149	615.101
343.489	16.936	820.621	614.465
344.504	16.937	820.432	614.274
345.519	16.968	819.992	614.000
346.533	17.034	819.225	613.610
347.548	17.105	818.772	613.475
348.562	16.968	818.390	612.638
349.577	17.045	817.708	612.352
350.592	17.045	817.155	611.882
351.606	17.044	817.352	611.974
352.621	16.854	816.621	610.689
353.635	17.258	815.770	611.451
354.650	17.092	815.519	610.612
355.665	16.935	815.252	609.794
356.679	17.205	814.715	610.306
357.694	17.106	814.337	609.614
358.708	17.080	813.300	608.692
359.723	17.166	812.936	608.671
360.738	17.140	812.618	608.288
361.752	17.127	811.734	607.525
362.767	17.118	811.745	607.450
363.781	17.149	811.318	607.185
364.796	17.418	810.583	607.543
365.810	17.264	810.387	606.792
366.825	17.320	810.178	606.781
367.840	17.442	809.653	606.770
368.854	17.443	809.142	606.338
369.869	17.359	808.582	605.564
370.883	17.305	808.339	605.137
371.898	17.375	807.379	604.612
372.913	17.578	806.365	604.522
373.927	17.377	806.192	603.624
374.942	17.348	806.102	603.401
375.956	17.467	805.231	603.117
376.971	17.490	804.417	602.535
377.986	17.527	803.852	602.188
379.000	17.691	803.583	602.514
380.015	17.673	803.070	602.013
381.029	17.652	802.559	601.502
382.044	17.607	802.140	600.977
383.059	17.562	801.624	600.378
384.073	17.577	801.225	600.080
385.088	17.717	800.432	599.926
386.102	17.597	799.636	598.855
387.117	17.499	799.464	598.326
388.132	17.771	798.532	598.532
389.146	17.674	798.556	598.156
390.161	17.585	798.062	597.419
391.175	17.619	797.893	597.362
392.190	17.714	797.615	597.434
393.205	17.619	797.403	596.889
394.219	17.528	797.196	596.363
395.234	17.781	795.975	596.280
396.248	17.618	795.776	595.507
397.263	17.704	795.186	595.315
398.278	17.841	794.582	595.288
399.292	17.839	794.219	594.956
400.307	17.755	793.825	594.315
401.321	17.769	793.519	594.084
402.336	17.685	793.255	593.541
403.350	17.710	792.500	593.008
404.365	17.802	792.081	592.964
405.380	17.801	791.601	592.547
406.394	17.925	791.346	592.736
407.409	17.854	791.066	592.228
408.423	18.033	790.643	592.477
409.438	18.008	789.790	591.700
410.453	18.091	789.137	591.447
411.467	17.995	789.263	591.156
412.482	18.167	788.547	591.162
413.496	18.069	788.001	590.360
414.511	18.090	787.689	590.149
415.526	18.049	787.681	589.948
416.540	18.145	787.157	589.835
417.555	18.198	786.197	589.247
418.569	18.232	785.966	589.138
419.584	18.150	785.776	588.661
420.599	18.222	785.232	588.447
421.613	115.834	1296.054	1489.006
422.628	99.568	1370.461	1489.100
