DTS Sentinel unit serial number:	SN413079Multiplexer serial number:	ORYXHardware model number:	OX4-SRSoftware version number:	ORYX F/W v4.00 Oryx Data Collector v3.7.2.0data status	okinstallation	princeton_trtdifferential loss correction	single-endedforward channel	channel 3reverse channel	N/Adate	2019/09/13time	17:48:34forward acquisition time	60.00reverse acquisition time	0.00gamma	496.2192k internal	0.2303k external	0.2303temperature offset calibration	1.0140default loss term (dB/km)	0.3790temperature slope calibration	1.0000multiplexer offset coefficient	1.0000multiplexer slope coefficient	1.0000fibre end	0.00T internal ref (°C)	35.55T ext. ref 1 (°C)	5.10T ext. ref 2 (°C)	29.03length (m)	temperature (°C)	Stokes	anti-Stokes-747.200	183.180	0.039	0.059
-746.185	-49.611	0.307	0.149
-745.171	-149.437	-0.051	0.004
-744.156	-200.000	-0.002	-0.065
-743.142	-102.245	0.127	0.031
-742.127	-75.047	-0.271	0.099
-741.112	-74.131	-0.220	0.081
-740.098	800.000	-0.035	0.151
-739.083	-54.332	-0.339	-0.157
-738.069	800.000	-0.036	-0.158
-737.054	33.883	0.255	-0.226
-736.039	-200.000	-0.063	-0.660
-735.025	-200.000	0.015	0.210
-734.010	-48.458	-0.127	-0.062
-732.996	-52.986	-0.315	-0.148
-731.981	-134.227	-0.495	-0.062
-730.966	-177.616	0.048	-0.001
-729.952	-25.984	-0.180	0.108
-728.937	-200.000	-0.018	0.237
-727.923	462.546	-0.060	0.136
-726.908	165.114	-0.199	-0.286
-725.894	800.000	0.069	-0.203
-724.879	-72.610	-0.258	-0.097
-723.864	423.555	-0.053	0.116
-722.850	-96.008	0.110	0.030
-721.835	-124.554	-0.424	-0.067
-720.821	-156.124	0.189	0.012
-719.806	33.604	-0.217	-0.192
-718.791	260.979	0.117	-0.206
-717.777	157.030	-0.167	-0.236
-716.762	2.585	-0.199	-0.147
-715.748	-64.072	-0.101	-0.042
-714.733	-47.990	-0.085	-0.042
-713.718	-150.211	-0.274	-0.022
-712.704	-68.741	-0.141	-0.055
-711.689	-4.523	-0.137	-0.097
-710.675	-122.689	-0.119	-0.020
-709.660	197.295	0.131	0.203
-708.645	114.104	0.024	-0.030
-707.631	49.757	0.152	-0.146
-706.616	688.886	0.022	-0.059
-705.602	-43.292	0.165	0.085
-704.587	-200.000	-0.026	0.187
-703.572	-200.000	-0.003	0.178
-702.558	-200.000	-0.009	0.532
-701.543	-130.122	-0.217	0.030
-700.529	362.393	-0.052	0.105
-699.514	-85.260	0.139	-0.044
-698.499	273.162	-0.035	-0.063
-697.485	-31.053	-0.103	-0.059
-696.470	800.000	-0.079	0.267
-695.456	-200.000	0.007	-0.130
-694.441	-37.899	-0.103	0.056
-693.426	800.000	-0.081	-0.233
-692.412	-200.000	0.024	-0.212
-691.397	616.472	-0.083	-0.211
-690.383	800.000	0.140	-0.441
-689.368	-55.291	0.095	-0.043
-688.354	-18.900	0.279	0.177
-687.339	-200.000	-0.014	-0.231
-686.324	183.150	-0.136	-0.205
-685.310	-200.000	0.004	-0.040
-684.295	-200.000	0.013	0.369
-683.281	800.000	-0.055	-0.169
-682.266	29.213	0.194	0.167
-681.251	-200.000	-0.017	0.284
-680.237	-161.374	-0.082	-0.004
-679.222	56.781	-0.125	0.123
-678.208	213.290	0.156	-0.250
-677.193	302.810	0.073	0.138
-676.178	-66.173	-0.334	0.135
-675.164	-200.000	-0.013	-0.094
-674.149	-200.000	0.018	0.143
-673.135	-200.000	-0.088	0.498
-672.120	-126.771	-0.061	-0.009
-671.105	-112.721	-0.238	-0.048
-670.091	489.339	-0.078	-0.181
-669.076	421.241	0.075	-0.163
-668.062	-100.399	-0.157	0.039
-667.047	-200.000	0.019	-0.174
-666.032	88.193	0.227	-0.256
-665.018	639.845	0.054	-0.140
-664.003	-20.913	0.250	0.155
-662.989	-126.492	-0.044	-0.007
-661.974	676.251	0.097	0.255
-660.959	-178.235	-0.259	-0.006
-659.945	800.000	0.028	-0.110
-658.930	379.338	-0.168	-0.350
-657.916	-29.034	-0.214	0.124
-656.901	-11.184	0.246	0.165
-655.886	138.015	-0.178	0.236
-654.872	196.110	-0.083	0.128
-653.857	-200.000	0.277	-0.001
-652.843	284.713	0.148	0.271
-651.828	-93.038	-0.061	-0.017
-650.814	-109.305	0.235	0.051
-649.799	800.000	-0.057	-0.188
-648.784	-49.235	-0.170	0.082
-647.770	42.648	-0.115	0.106
-646.755	-130.236	0.151	-0.021
-645.741	143.668	0.242	0.328
-644.726	171.756	0.274	-0.399
-643.711	800.000	0.052	-0.175
-642.697	-96.707	0.192	0.051
-641.682	94.302	0.208	-0.240
-640.668	-46.738	-0.061	-0.030
-639.653	-200.000	0.082	-0.476
-638.638	-99.121	0.190	-0.049
-637.624	-89.430	-0.313	0.093
-636.609	-82.314	-0.155	0.051
-635.595	465.960	0.072	0.163
-634.580	-200.000	0.000	-0.015
-633.565	-200.000	-0.061	-0.399
-632.551	-200.000	0.004	-0.186
-631.536	106.301	-0.079	0.096
-630.522	-64.930	-0.285	-0.117
-629.507	-118.800	-0.138	-0.025
-628.492	-85.889	-0.202	-0.063
-627.478	-15.926	-0.090	0.058
-626.463	800.000	0.088	-0.364
-625.449	418.994	-0.055	0.120
-624.434	41.704	-0.107	0.099
-623.419	-200.000	-0.012	0.125
-622.405	588.665	-0.075	-0.186
-621.390	103.073	-0.263	0.312
-620.376	-200.000	0.023	0.254
-619.361	232.504	0.020	0.033
-618.346	139.970	-0.138	0.185
-617.332	-45.340	0.170	0.085
-616.317	-33.993	-0.092	0.051
-615.303	-131.311	0.217	-0.029
-614.288	425.455	-0.060	-0.130
-613.273	-48.985	-0.279	0.135
-612.259	-200.000	0.077	-0.357
-611.244	-38.799	-0.265	-0.142
-610.230	800.000	0.058	-0.180
-609.215	800.000	0.051	-0.205
-608.201	800.000	-0.167	0.519
-607.186	-157.931	0.151	0.009
-606.171	155.250	0.083	0.116
-605.157	-119.903	0.067	-0.012
-604.142	108.496	0.204	-0.247
-603.128	191.630	-0.243	0.371
-602.113	48.020	-0.298	0.283
-601.098	-200.000	0.032	0.205
-600.084	316.438	0.126	0.241
-599.069	699.083	-0.155	-0.412
-598.055	717.693	-0.037	0.099
-597.040	-200.000	0.001	-0.230
-596.025	90.206	0.135	-0.153
-595.011	-96.949	-0.186	-0.049
-593.996	-200.000	0.031	0.182
-592.982	80.988	-0.148	-0.162
-591.967	-200.000	-0.026	0.215
-590.952	-144.977	-0.202	0.019
-589.938	-6.598	0.151	-0.104
-588.923	312.826	0.086	0.163
-587.909	-47.202	0.075	-0.037
-586.894	-200.000	-0.011	0.161
-585.879	-169.226	0.256	-0.010
-584.865	75.716	-0.071	0.075
-583.850	2.278	-0.171	-0.125
-582.836	-200.000	0.078	-0.421
-581.821	-200.000	0.002	0.151
-580.806	-45.707	0.235	-0.118
-579.792	121.802	-0.168	-0.212
-578.777	-37.113	0.251	0.136
-577.763	-200.000	0.013	-0.131
-576.748	-7.672	0.160	-0.110
-575.733	57.924	0.099	-0.099
-574.719	148.548	-0.042	-0.057
-573.704	-87.269	-0.153	-0.047
-572.690	-72.389	-0.096	-0.036
-571.675	-49.215	0.142	-0.069
-570.661	80.907	0.176	0.192
-569.646	12.424	-0.419	0.327
-568.631	94.358	-0.036	0.041
-567.617	-164.869	0.256	0.012
-566.602	82.903	0.164	-0.180
-565.588	55.186	-0.205	-0.200
-564.573	800.000	0.042	-0.172
-563.558	-14.824	0.309	-0.201
-562.544	-23.031	0.285	-0.174
-561.529	-77.146	0.124	0.044
-560.515	-200.000	-0.008	0.098
-559.500	-40.654	-0.366	0.192
-558.485	-200.000	0.016	0.144
-557.471	-119.512	-0.378	0.066
-556.456	5.581	-0.094	0.070
-555.442	-186.560	-0.271	0.004
-554.427	100.935	-0.083	0.097
-553.412	800.000	-0.081	0.272
-552.398	17.086	0.252	0.202
-551.383	76.658	-0.082	0.088
-550.369	-124.397	-0.084	0.013
-549.354	800.000	-0.014	-0.059
-548.339	-200.000	0.020	0.374
-547.325	6.972	0.165	0.124
-546.310	-54.449	-0.103	-0.047
-545.296	22.601	0.160	0.133
-544.281	158.241	0.178	-0.250
-543.266	92.867	-0.241	-0.276
-542.252	4.620	0.139	-0.103
-541.237	-200.000	0.011	0.079
-540.223	397.536	-0.097	-0.206
-539.208	-200.000	0.027	-0.171
-538.193	179.171	0.160	-0.236
-537.179	-92.471	-0.314	0.089
-536.164	-200.000	0.017	0.213
-535.150	-59.634	-0.136	0.059
-534.135	-162.321	0.068	-0.003
-533.121	800.000	-0.041	-0.120
-532.106	-16.026	-0.195	-0.126
-531.091	224.951	-0.081	-0.132
-530.077	37.250	0.044	-0.039
-529.062	-200.000	0.305	-0.000
-528.048	30.317	0.100	-0.086
-527.033	204.323	-0.139	-0.218
-526.018	-200.000	-0.056	-0.267
-525.004	35.548	-0.104	-0.092
-523.989	6.257	0.076	0.057
-522.975	-37.000	0.104	0.056
-521.960	554.956	0.092	-0.223
-520.945	0.040	0.050	0.036
-519.931	-145.729	0.191	-0.017
-518.916	-153.029	0.309	0.022
-517.902	106.327	0.128	-0.153
-516.887	215.342	0.055	0.088
-515.872	626.021	0.132	-0.336
-514.858	54.127	-0.136	-0.132
-513.843	-26.473	0.140	-0.083
-512.829	504.072	0.123	0.287
-511.814	-71.155	-0.179	0.068
-510.799	68.963	0.221	0.229
-509.785	-64.143	0.057	-0.023
-508.770	-200.000	-0.006	-0.067
-507.756	119.530	0.078	-0.097
-506.741	-31.207	0.193	-0.110
-505.726	-200.000	0.080	0.354
-504.712	-67.354	-0.359	0.142
-503.697	-148.821	0.258	-0.021
-502.683	800.000	-0.032	0.113
-501.668	-200.000	-0.006	0.195
-500.653	-200.000	-0.054	0.299
-499.639	-155.359	0.172	-0.011
-498.624	-58.696	-0.270	-0.118
-497.610	-127.669	-0.300	-0.044
-496.595	-200.000	0.002	-0.196
-495.581	407.578	0.123	-0.261
-494.566	201.409	0.062	-0.096
-493.551	-200.000	0.019	0.105
-492.537	476.516	-0.219	0.498
-491.522	-175.713	-0.147	-0.004
-490.508	-69.632	0.054	0.021
-489.493	-52.780	0.210	-0.098
-488.478	715.927	-0.070	0.187
-487.464	47.282	0.127	0.120
-486.449	-101.994	0.375	-0.091
-485.435	63.154	0.168	0.170
-484.420	-154.072	0.085	0.006
-483.405	-150.436	-0.370	0.029
-482.391	305.866	0.202	0.379
-481.376	-41.428	0.105	0.054
-480.362	-200.000	0.041	0.217
-479.347	-72.193	-0.467	-0.175
-478.332	756.305	0.081	-0.220
-477.318	-165.015	0.294	0.013
-476.303	-70.942	0.466	-0.177
-475.289	-157.106	-0.317	0.019
-474.274	-176.827	0.097	-0.002
-473.259	-49.027	-0.132	-0.064
-472.245	44.818	0.075	0.070
-471.230	1.763	0.364	0.264
-470.216	-200.000	-0.017	0.111
-469.201	500.035	0.039	0.091
-468.186	-200.000	0.014	-0.163
-467.172	252.064	-0.088	0.151
-466.157	-200.000	-0.023	0.243
-465.143	15.698	0.147	-0.116
-464.128	-20.954	-0.100	0.062
-463.113	31.756	-0.037	-0.032
-462.099	-40.813	-0.296	-0.154
-461.084	-93.038	-0.087	-0.024
-460.070	560.063	0.096	0.234
-459.055	-37.814	-0.283	0.152
-458.040	97.100	-0.261	0.302
-457.026	254.550	0.143	-0.246
-456.011	800.000	0.049	-0.212
-454.997	-200.000	-0.012	-0.189
-453.982	-143.070	-0.625	0.061
-452.968	-30.397	-0.070	-0.040
-451.953	-23.780	0.059	0.036
-450.938	246.866	-0.123	-0.209
-449.924	-95.935	-0.566	-0.152
-448.909	-200.000	-0.040	-0.220
-447.895	-36.018	0.091	0.050
-446.880	800.000	0.124	0.431
-445.865	800.000	-0.044	-0.125
-444.851	-72.842	0.049	-0.018
-443.836	800.000	-0.073	-0.317
-442.822	310.032	-0.074	0.139
-441.807	56.315	0.378	-0.370
-440.792	24.657	0.097	-0.081
-439.778	230.515	0.007	0.011
-438.763	93.192	-0.219	0.249
-437.749	-184.514	0.143	-0.002
-436.734	-24.107	-0.329	0.198
-435.719	-137.405	0.335	0.038
-434.705	-37.733	0.174	0.093
-433.690	800.000	0.121	-0.345
-432.676	-112.469	-0.273	0.055
-431.661	249.840	0.123	-0.210
-430.646	-134.895	-0.054	-0.007
-429.632	248.326	0.112	-0.190
-428.617	768.552	-0.137	0.376
-427.603	-200.000	-0.018	0.137
-426.588	91.052	-0.083	-0.094
-425.573	-165.645	0.178	0.008
-424.559	-29.493	-0.106	0.061
-423.544	-200.000	-0.001	0.089
-422.530	-200.000	0.016	0.083
-421.515	-145.014	-0.247	-0.023
-420.500	-19.018	-0.089	-0.055
-419.486	-4.365	-0.307	0.214
-418.471	423.462	-0.024	0.052
-417.457	47.580	0.085	0.080
-416.442	166.307	-0.086	0.123
-415.428	-200.000	-0.039	0.261
-414.413	-57.308	0.175	-0.077
-413.398	-36.884	-0.051	-0.028
-412.384	-200.000	0.001	0.271
-411.369	-130.969	0.155	-0.021
-410.355	-200.000	0.027	0.340
-409.340	276.307	0.060	-0.108
-408.325	450.058	0.093	-0.207
-407.311	-30.969	-0.214	0.122
-406.296	-39.794	-0.105	-0.055
-405.282	-34.167	-0.111	0.061
-404.267	204.587	0.110	-0.171
-403.252	565.650	-0.101	-0.247
-402.238	-48.230	0.066	-0.032
-401.223	800.000	-0.085	0.296
-400.209	-89.899	0.073	-0.021
-399.194	800.000	0.072	0.205
-398.179	-145.374	-0.258	-0.023
-397.165	-200.000	0.012	0.091
-396.150	-174.340	0.358	0.010
-395.136	-108.311	0.092	0.020
-394.121	70.200	-0.169	0.176
-393.106	339.775	-0.069	0.135
-392.092	-31.039	0.225	0.128
-391.077	-50.080	0.175	-0.083
-390.063	-47.283	-0.082	0.040
-389.048	-69.111	0.167	0.065
-388.033	175.180	-0.209	0.304
-387.019	-200.000	-0.049	-0.245
-386.004	800.000	-0.034	0.148
-384.990	-17.443	0.077	-0.049
-383.975	-55.753	-0.229	-0.103
-382.960	-200.000	0.003	0.275
-381.946	-200.000	0.007	-0.182
-380.931	-156.786	-0.154	0.010
-379.917	800.000	0.074	-0.257
-378.902	800.000	-0.073	-0.313
-377.888	29.558	0.370	0.316
-376.873	492.389	0.027	0.063
-375.858	-154.064	-0.096	0.007
-374.844	-5.182	0.213	0.147
-373.829	-200.000	0.026	0.467
-372.815	158.208	0.124	0.173
-371.800	-163.705	0.116	-0.005
-370.785	549.681	-0.049	-0.119
-369.771	-69.390	0.212	-0.082
-368.756	-133.039	0.426	-0.054
-367.742	-32.432	0.209	0.117
-366.727	-130.188	-0.315	0.043
-365.712	-200.000	0.004	-0.375
-364.698	-79.299	0.228	-0.078
-363.683	-156.690	0.239	0.015
-362.669	-29.058	0.058	0.034
-361.654	87.421	-0.124	-0.137
-360.639	800.000	-0.033	-0.133
-359.625	2.720	0.156	-0.114
-358.610	-200.000	-0.006	-0.065
-357.596	800.000	0.129	-0.385
-356.581	-200.000	0.037	0.179
-355.566	-56.974	0.257	0.114
-354.552	-108.276	-0.004	0.001
-353.537	800.000	-0.069	0.230
-352.523	210.076	-0.248	0.390
-351.508	-111.067	-0.153	-0.031
-350.493	-49.325	-0.289	0.139
-349.479	-115.485	0.333	0.063
-348.464	-142.042	0.174	0.017
-347.450	-200.000	0.035	0.159
-346.435	12.055	0.161	0.124
-345.420	-200.000	-0.012	0.124
-344.406	800.000	-0.035	-0.108
-343.391	646.015	-0.149	0.381
-342.377	-74.077	0.128	0.047
-341.362	742.492	-0.019	-0.051
-340.348	102.067	0.097	-0.114
-339.333	-18.884	0.048	-0.030
-338.318	-143.111	0.068	0.007
-337.304	39.781	0.233	-0.209
-336.289	17.316	0.264	-0.210
-335.275	800.000	0.083	-0.293
-334.260	-200.000	-0.031	-0.182
-333.245	-69.708	-0.399	0.153
-332.231	-200.000	0.000	-0.340
-331.216	-200.000	0.016	-0.313
-330.202	-200.000	-0.038	-0.203
-329.187	-125.298	-0.298	-0.046
-328.172	-128.723	-0.180	-0.025
-327.158	-36.713	0.102	-0.055
-326.143	800.000	-0.069	-0.244
-325.129	-60.182	-0.193	-0.082
-324.114	93.197	-0.150	-0.170
-323.099	-83.597	-0.156	-0.050
-322.085	42.632	-0.197	-0.179
-321.070	-200.000	-0.005	0.201
-320.056	800.000	0.088	0.265
-319.041	397.869	-0.089	0.186
-318.026	-51.484	-0.173	0.081
-317.012	-56.537	-0.057	-0.025
-315.997	52.103	-0.073	-0.070
-314.983	194.952	0.155	-0.236
-313.968	23.689	-0.007	0.006
-312.953	-200.000	-0.045	-0.262
-311.939	-200.000	0.068	-0.328
-310.924	-143.591	-0.240	0.023
-309.910	-200.000	0.031	-0.182
-308.895	-132.711	0.113	-0.015
-307.880	62.156	-0.290	0.290
-306.866	-13.824	0.076	-0.049
-305.851	-200.000	0.017	0.138
-304.837	-200.000	-0.009	0.218
-303.822	-84.234	-0.093	0.030
-302.807	-127.870	-0.268	0.039
-301.793	-91.575	0.098	0.028
-300.778	-74.779	0.452	0.162
-299.764	-200.000	0.071	0.353
-298.749	329.369	0.066	0.127
-297.735	383.879	0.108	-0.223
-296.720	270.676	-0.192	-0.338
-295.705	800.000	0.011	0.035
-294.691	253.313	0.103	0.176
-293.676	800.000	0.009	-0.029
-292.662	-10.516	-0.172	-0.114
-291.647	-130.658	-0.071	0.010
-290.632	164.275	0.084	-0.119
-289.618	-38.250	0.390	0.207
-288.603	148.887	-0.198	-0.268
-287.589	-200.000	-0.046	0.266
-286.574	-86.818	0.126	-0.039
-285.559	8.694	-0.053	-0.040
-284.545	-85.738	-0.082	-0.026
-283.530	-200.000	0.004	0.257
-282.516	61.610	-0.134	-0.134
-281.501	156.584	0.166	-0.230
-280.486	-68.267	-0.111	-0.043
-279.472	274.110	0.047	0.083
-278.457	-110.419	-0.410	-0.085
-277.443	29.760	0.150	-0.128
-276.428	232.947	-0.160	-0.262
-275.413	180.284	0.089	0.130
-274.399	314.042	-0.012	-0.023
-273.384	-160.043	0.199	0.011
-272.370	-150.579	0.089	0.007
-271.355	-133.354	-0.126	0.016
-270.340	-44.157	0.109	-0.055
-269.326	-25.751	0.147	-0.087
-268.311	67.563	0.222	0.227
-267.297	799.968	-0.056	-0.154
-266.282	-200.000	0.000	0.084
-265.267	-56.755	-0.191	-0.084
-264.253	215.407	0.103	-0.164
-263.238	-32.180	0.090	-0.050
-262.224	564.343	0.068	0.166
-261.209	159.779	-0.100	-0.140
-260.195	361.283	-0.132	-0.264
-259.180	71.276	-0.043	-0.044
-258.165	800.000	-0.043	0.126
-257.151	-26.010	0.103	-0.061
-256.136	800.000	0.066	0.275
-255.122	33.191	-0.091	-0.079
-254.107	-48.875	-0.303	-0.145
-253.092	269.643	0.092	-0.162
-252.078	-138.581	-0.036	-0.004
-251.063	800.000	-0.074	-0.250
-250.049	-20.678	0.033	0.020
-249.034	183.870	0.104	-0.154
-248.019	-161.692	-0.175	0.009
-247.005	-34.646	0.154	0.084
-245.990	-200.000	-0.005	0.043
-244.976	339.799	-0.145	-0.282
-243.961	82.973	0.039	0.043
-242.946	-150.240	-0.137	0.011
-241.932	-121.262	-0.236	-0.039
-240.917	492.668	0.038	0.087
-239.903	509.309	-0.091	-0.211
-238.888	800.000	0.018	0.066
-237.873	-200.000	-0.005	-0.221
-236.859	-160.760	0.251	-0.013
-235.844	90.936	-0.058	-0.065
-234.830	-108.508	-0.522	0.112
-233.815	-200.000	-0.003	-0.112
-232.800	88.226	-0.061	0.067
-231.786	-43.128	0.170	-0.086
-230.771	-63.407	-0.178	-0.073
-229.757	-200.000	-0.039	-0.409
-228.742	-51.642	-0.099	-0.046
-227.727	800.000	-0.042	0.130
-226.713	108.103	-0.163	0.194
-225.698	37.787	-0.145	-0.129
-224.684	607.984	-0.054	0.134
-223.669	-70.983	0.120	0.045
-222.655	187.092	0.095	0.141
-221.640	-200.000	-0.016	-0.192
-220.625	332.097	-0.078	-0.149
-219.611	-62.393	-0.282	-0.117
-218.596	-200.000	-0.012	0.090
-217.582	-86.477	-0.332	0.102
-216.567	-141.507	-0.360	-0.036
-215.552	-25.186	0.146	-0.086
-214.538	67.570	0.119	0.121
-213.523	78.950	0.282	0.302
-212.509	-132.312	0.301	-0.039
-211.494	345.806	-0.037	0.072
-210.479	-200.000	0.010	0.120
-209.465	415.128	-0.027	-0.058
-208.450	-12.989	-0.076	0.050
-207.436	52.039	0.168	0.159
-206.421	-49.765	0.242	-0.115
-205.406	-131.786	0.201	0.026
-204.392	800.000	-0.073	-0.264
-203.377	-200.000	0.012	-0.119
-202.363	-127.021	0.317	0.046
-201.348	339.078	-0.130	-0.252
-200.333	-200.000	-0.025	0.130
-199.319	-200.000	-0.035	0.255
-198.304	139.279	0.099	-0.130
-197.290	800.000	-0.018	-0.064
-196.275	22.503	-0.264	0.215
-195.260	-160.398	0.260	-0.014
-194.246	10.862	-0.143	0.109
-193.231	-160.683	0.215	-0.011
-192.217	800.000	-0.038	0.129
-191.202	55.116	-0.198	0.191
-190.187	800.000	-0.090	0.320
-189.173	153.749	-0.152	0.208
-188.158	8.915	0.143	-0.108
-187.144	-55.029	0.101	-0.045
-186.129	148.095	-0.188	0.253
-185.114	-138.831	-0.139	-0.015
-184.100	75.493	0.059	-0.062
-183.085	619.201	-0.066	0.166
-182.071	800.000	-0.106	0.330
-181.056	-200.000	-0.024	-0.194
-180.042	-79.796	0.289	-0.097
-179.027	-134.555	0.483	-0.059
-178.012	422.697	-0.154	0.329
-176.998	-180.665	-0.262	0.005
-175.983	-200.000	0.074	-0.387
-174.969	-99.446	-0.190	0.048
-173.954	41.840	0.116	0.105
-172.939	11.464	-0.366	0.279
-171.925	-200.000	0.003	-0.096
-170.910	-53.709	0.396	0.180
-169.896	-44.017	0.197	-0.099
-168.881	-200.000	-0.021	0.242
-167.866	-149.412	0.213	-0.017
-166.852	-111.907	0.219	0.044
-165.837	-53.998	-0.138	0.062
-164.823	58.312	0.273	0.267
-163.808	136.934	0.238	-0.310
-162.793	-84.742	0.272	0.085
-161.779	-200.000	-0.002	0.059
-160.764	-200.000	0.007	0.232
-159.750	-82.635	0.023	0.007
-158.735	44.762	-0.167	0.153
-157.720	-107.709	0.090	-0.020
-156.706	279.307	-0.055	-0.098
-155.691	-200.000	0.018	-0.380
-154.677	-200.000	0.008	0.107
-153.662	-140.182	0.060	0.006
-152.647	-50.216	0.079	0.037
-151.633	245.288	-0.041	-0.068
-150.618	800.000	-0.104	-0.320
-149.604	-126.854	-0.344	0.050
-148.589	-48.550	0.258	0.124
-147.574	50.383	0.369	-0.347
-146.560	-200.000	0.010	-0.318
-145.545	198.904	-0.129	-0.197
-144.531	-8.059	0.285	0.191
-143.516	-94.437	-0.165	0.045
-142.502	-200.000	-0.002	-0.069
-141.487	-60.236	0.224	0.095
-140.472	-200.000	-0.002	-0.132
-139.458	800.000	0.042	-0.154
-138.443	63.819	0.133	-0.133
-137.429	-47.266	-0.223	0.108
-136.414	145.928	-0.055	0.073
-135.399	800.000	-0.102	0.433
-134.385	-124.370	-0.413	0.064
-133.370	-141.412	0.240	0.024
-132.356	-200.000	-0.003	-0.044
-131.341	149.326	-0.261	0.351
-130.326	95.530	0.235	-0.266
-129.312	-200.000	-0.010	-0.094
-128.297	152.613	0.097	0.131
-127.283	-127.331	0.140	0.020
-126.268	115.518	-0.046	0.056
-125.253	-119.955	-0.180	-0.031
-124.239	-200.000	0.031	0.245
-123.224	-63.469	0.241	-0.098
-122.210	-200.000	0.008	0.051
-121.195	112.115	-0.200	-0.240
-120.180	-65.094	0.342	-0.137
-119.166	-86.697	0.536	-0.163
-118.151	-200.000	-0.020	0.110
-117.137	-54.542	0.076	0.034
-116.122	-181.016	-0.081	-0.002
-115.107	228.349	0.028	-0.045
-114.093	-22.280	-0.125	0.075
-113.078	-200.000	0.025	0.266
-112.064	163.266	0.125	0.175
-111.049	34.599	0.042	0.037
-110.034	-200.000	-0.006	-0.056
-109.020	88.902	-0.132	0.146
-108.005	328.918	-0.037	0.071
-106.991	153.518	0.203	0.276
-105.976	-133.595	0.273	-0.034
-104.962	-28.226	0.248	-0.142
-103.947	475.885	-0.099	0.222
-102.932	-200.000	-0.001	0.113
-101.918	45.645	0.201	0.184
-100.903	58.781	0.266	0.260
-99.889	-136.849	0.125	-0.014
-98.874	360.798	0.023	0.046
-97.859	796.973	0.083	-0.228
-96.845	172.998	0.030	0.043
-95.830	230.573	-0.061	0.099
-94.816	-123.137	0.179	-0.029
-93.801	-105.896	0.210	-0.047
-92.786	-200.000	-0.030	-0.193
-91.772	-200.000	0.051	-0.405
-90.757	-200.000	-0.008	-0.122
-89.743	-200.000	0.010	0.178
-88.728	-104.919	0.247	0.056
-87.713	-75.455	0.203	0.072
-86.699	-112.567	0.309	0.061
-85.684	-114.725	-0.227	-0.043
-84.670	-133.174	-0.112	-0.014
-83.655	368.689	0.143	-0.287
-82.640	93.845	0.186	-0.209
-81.626	-86.987	0.258	-0.078
-80.611	-158.956	-0.357	-0.020
-79.597	800.000	-0.051	0.196
-78.582	-200.000	0.010	0.200
-77.567	-176.579	0.192	0.005
-76.553	-178.942	-0.293	0.007
-75.538	-200.000	-0.028	-0.190
-74.524	-157.870	-0.102	0.006
-73.509	206.256	-0.043	0.066
-72.494	-200.000	-0.052	-0.250
-71.480	800.000	-0.129	-0.449
-70.465	32.520	0.079	0.068
-69.451	22.481	0.135	0.110
-68.436	800.000	-0.044	0.189
-67.422	93.256	0.238	-0.267
-66.407	-200.000	0.071	-0.418
-65.392	196.908	-0.090	-0.137
-64.378	-133.398	0.110	-0.014
-63.363	-81.393	0.215	-0.070
-62.349	-200.000	-0.008	0.094
-61.334	20.183	-1.180	-0.945
-60.319	-32.287	0.616	0.341
-59.305	-200.000	-0.112	-0.915
-58.290	24.115	0.668	0.547
-57.276	385.724	0.780	1.596
-56.261	-200.000	95.758	573.233
-55.246	648.305	1382.465	3505.940
-54.232	186.924	2596.088	3836.304
-53.217	122.929	2203.159	2734.887
-52.203	46.214	1737.668	1596.410
-51.188	38.523	1548.519	1369.074
-50.173	36.091	1520.399	1327.431
-49.159	54.501	1570.250	1500.248
-48.144	58.627	1589.209	1547.167
-47.130	39.108	1544.243	1369.149
-46.115	35.770	1529.054	1332.551
-45.100	35.669	1525.567	1328.765
-44.086	35.634	1523.692	1326.831
-43.071	35.481	1522.382	1324.585
-42.057	35.589	1520.223	1323.399
-41.042	35.458	1519.005	1321.381
-40.027	35.480	1517.408	1320.096
-39.013	35.542	1515.467	1318.780
-37.998	35.521	1514.549	1317.784
-36.984	35.486	1513.311	1316.413
-35.969	35.480	1512.694	1315.784
-34.954	35.489	1511.243	1314.533
-33.940	35.516	1509.319	1312.988
-32.925	35.579	1508.120	1312.322
-31.911	35.536	1507.047	1311.043
-30.896	35.589	1505.298	1309.830
-29.881	35.586	1504.091	1308.711
-28.867	35.673	1502.333	1307.724
-27.852	35.583	1501.194	1306.067
-26.838	35.664	1499.642	1305.215
-25.823	35.633	1497.850	1303.395
-24.809	35.594	1496.416	1301.826
-23.794	35.521	1495.343	1300.351
-22.779	35.647	1493.537	1299.577
-21.765	35.582	1492.813	1298.456
-20.750	35.617	1491.288	1297.319
-19.736	35.630	1490.555	1296.718
-18.721	35.637	1489.451	1295.753
-17.706	35.583	1488.222	1294.266
-16.692	35.642	1486.935	1293.495
-15.677	35.518	1486.340	1292.090
-14.663	35.461	1485.522	1290.940
-13.648	35.457	1484.921	1290.343
-12.633	35.581	1483.253	1289.674
-11.619	35.539	1482.703	1288.861
-10.604	35.511	1481.813	1287.854
-9.590	35.505	1480.793	1286.873
-8.575	35.475	1480.701	1286.542
-7.560	35.408	1479.690	1285.161
-6.546	35.568	1478.371	1285.040
-5.531	35.478	1477.516	1283.642
-4.517	35.499	1476.696	1283.017
-3.502	35.456	1475.515	1281.654
-2.487	35.558	1474.110	1281.064
-1.473	35.458	1473.498	1279.811
-0.458	35.465	1471.605	1278.168
0.556	37.414	1461.450	1266.428
1.571	33.422	1433.938	1216.896
2.586	28.511	1368.767	1131.282
3.600	25.884	1284.033	1045.930
4.615	23.721	1236.503	995.022
5.629	19.932	1179.030	928.404
6.644	12.052	1095.006	822.765
7.659	6.147	1054.437	763.599
8.673	5.153	1048.859	754.689
9.688	5.076	1046.003	752.197
10.702	4.940	1044.775	750.590
11.717	5.241	1042.670	750.459
12.731	6.995	1044.060	759.824
13.746	14.204	1053.966	801.818
14.761	20.605	1062.248	839.033
15.775	21.727	1062.920	844.902
16.790	21.284	1060.864	841.061
17.804	20.008	1059.180	833.514
18.819	19.231	1056.658	827.722
19.834	18.788	1055.498	824.615
20.848	18.584	1054.934	823.122
21.863	18.458	1054.293	821.945
22.877	18.261	1053.569	820.365
23.892	18.081	1052.880	818.893
24.907	17.987	1052.023	817.702
25.921	18.106	1050.861	817.299
26.936	18.066	1050.480	816.738
27.950	18.101	1049.392	815.986
28.965	17.993	1048.264	814.523
29.980	18.009	1047.028	813.564
30.994	18.132	1045.903	813.203
32.009	18.337	1045.594	813.869
33.023	18.322	1044.849	813.142
34.038	18.300	1044.152	812.427
35.053	18.299	1042.858	811.342
36.067	18.245	1041.790	810.185
37.082	18.063	1041.088	808.706
38.096	18.155	1040.875	808.900
39.111	18.124	1040.074	808.064
40.126	18.353	1038.709	808.010
41.140	18.075	1037.664	805.818
42.155	17.972	1036.236	804.151
43.169	17.780	1035.326	802.468
44.184	17.645	1034.452	801.087
45.199	17.635	1033.083	799.908
46.213	17.602	1032.075	798.904
47.228	17.668	1031.356	798.585
48.242	17.970	1030.438	799.216
49.257	18.222	1029.446	799.555
50.271	18.157	1028.406	798.371
51.286	18.102	1027.459	797.309
52.301	18.193	1027.217	797.475
53.315	18.212	1026.198	796.702
54.330	18.116	1025.492	795.638
55.344	17.961	1024.712	794.244
56.359	17.893	1023.646	793.031
57.374	18.017	1022.695	792.798
58.388	17.974	1021.670	791.735
59.403	17.830	1020.975	790.459
60.417	17.772	1020.185	789.506
61.432	17.757	1019.590	788.910
62.447	17.734	1018.907	788.203
63.461	17.604	1018.164	786.957
64.476	17.581	1016.774	785.709
65.490	17.601	1016.325	785.385
66.505	17.602	1015.268	784.503
67.520	17.537	1014.932	783.874
68.534	17.688	1013.971	783.757
69.549	17.617	1013.105	782.694
70.563	17.709	1011.913	782.126
71.578	17.516	1011.919	781.176
72.593	17.518	1010.588	780.086
73.607	17.357	1009.607	778.522
74.622	17.269	1009.330	777.838
75.636	17.412	1007.768	777.219
76.651	17.304	1007.619	776.542
77.666	17.387	1006.527	776.010
78.680	17.544	1005.750	776.058
79.695	17.568	1004.884	775.433
80.709	17.649	1004.461	775.404
81.724	17.688	1003.781	774.988
82.739	17.681	1003.237	774.468
83.753	17.860	1002.743	774.829
84.768	18.039	1002.030	775.024
85.782	18.328	1001.211	775.630
86.797	18.312	1000.744	775.129
87.812	18.449	1000.131	775.206
88.826	18.096	999.250	772.859
89.841	18.187	997.832	772.103
90.855	18.228	997.416	771.897
91.870	18.250	997.229	771.783
92.884	18.379	995.821	771.206
93.899	18.298	995.762	770.726
94.914	18.357	994.390	769.865
95.928	18.241	993.960	768.939
96.943	18.308	993.536	768.846
97.957	18.289	992.327	767.756
98.972	18.298	991.116	766.794
99.987	18.270	990.766	766.328
101.001	18.263	989.910	765.566
102.016	18.230	989.195	764.798
103.030	18.225	988.510	764.178
104.045	18.328	987.319	763.651
105.060	18.306	986.259	762.663
106.074	18.165	985.215	761.163
107.089	17.987	984.712	759.913
108.103	17.877	983.123	758.134
109.118	17.710	982.313	756.700
110.133	17.504	981.755	755.291
111.147	17.616	980.989	755.131
112.162	17.631	979.752	754.176
113.176	17.701	979.020	753.856
114.191	17.769	977.931	753.250
115.206	17.834	977.920	753.462
116.220	17.919	976.315	752.535
117.235	17.767	976.087	751.624
118.249	17.703	975.327	750.690
119.264	17.580	974.586	749.510
120.279	17.657	973.635	749.052
121.293	17.693	972.702	748.425
122.308	17.780	971.508	747.821
123.322	17.468	971.280	746.212
124.337	17.436	970.022	745.040
125.352	17.656	968.256	744.581
126.366	17.405	967.705	742.996
127.381	17.453	966.934	742.546
128.395	17.476	965.641	741.587
129.410	17.502	965.021	741.159
130.424	17.619	964.168	740.948
131.439	17.703	963.218	740.517
132.454	17.825	962.723	740.602
133.468	17.936	961.904	740.386
134.483	17.852	961.039	739.288
135.497	17.817	961.041	739.076
136.512	17.806	960.086	738.228
137.527	17.652	959.727	737.222
138.541	17.918	958.543	737.393
139.556	17.909	957.538	736.516
140.570	17.943	956.907	736.112
141.585	18.027	956.558	736.143
142.600	18.089	956.073	735.971
143.614	18.224	955.014	735.671
144.629	18.166	954.634	735.062
145.643	18.447	953.273	735.155
146.658	18.246	952.718	733.800
147.673	18.146	951.754	732.565
148.687	18.014	950.391	730.885
149.702	18.096	949.206	730.261
150.716	17.817	948.772	728.670
151.731	17.707	947.982	727.529
152.746	17.892	946.909	727.429
153.760	17.898	946.328	726.947
154.775	17.904	945.596	726.345
155.789	18.014	944.724	726.078
156.804	18.106	944.103	725.927
157.819	17.996	943.456	724.901
158.833	18.081	942.943	724.802
159.848	17.985	942.718	724.156
160.862	18.226	941.928	724.505
161.877	18.418	940.862	724.434
162.892	18.089	939.705	722.089
163.906	17.986	938.744	720.853
164.921	17.827	938.020	719.565
165.935	17.871	936.890	718.818
166.950	17.846	935.970	717.944
167.964	18.042	935.424	718.288
168.979	18.040	933.968	717.096
169.994	17.946	933.024	715.915
171.008	17.898	932.367	715.147
172.023	17.965	931.314	714.555
173.037	18.192	930.525	714.834
174.052	18.288	930.339	715.030
175.067	18.268	929.170	713.985
176.081	18.102	928.264	712.532
177.096	18.053	927.254	711.491
178.110	17.992	926.475	710.575
179.125	18.007	925.740	710.011
180.140	18.001	925.058	709.401
181.154	17.956	924.394	708.641
182.169	18.036	924.119	708.699
183.183	18.261	923.381	709.005
184.198	18.414	922.925	709.224
185.213	18.216	922.440	707.969
186.227	18.272	921.939	707.753
187.242	18.288	921.434	707.370
188.256	18.445	920.732	707.418
189.271	18.419	920.098	706.762
190.286	18.657	919.180	706.974
191.300	18.294	918.663	705.019
192.315	17.918	917.198	702.285
193.329	17.873	916.109	701.202
194.344	17.823	915.701	700.624
195.359	17.923	915.605	700.901
196.373	18.110	915.149	701.257
197.388	18.136	914.591	700.873
198.402	18.397	913.973	701.405
199.417	18.484	913.918	701.656
200.432	18.550	913.463	701.515
201.446	18.676	912.933	701.560
202.461	18.842	912.590	701.914
203.475	18.932	912.201	701.923
204.490	18.794	911.686	700.901
205.504	18.666	910.166	699.146
206.519	18.471	909.020	697.412
207.534	18.489	908.543	697.057
208.548	18.474	907.851	696.405
209.563	18.365	907.322	695.494
210.577	18.528	906.313	695.319
211.592	18.490	906.096	694.939
212.607	18.622	905.913	695.269
213.621	18.756	905.222	695.223
214.636	18.727	904.403	694.413
215.650	18.651	903.838	693.613
216.665	18.666	903.354	693.239
217.680	18.801	902.720	693.237
218.694	18.869	902.379	693.188
219.709	18.838	901.966	692.682
220.723	18.809	901.402	692.073
221.738	18.848	900.402	691.400
222.753	18.788	899.708	690.565
223.767	18.760	898.748	689.656
224.782	18.904	898.062	689.646
225.796	19.025	897.104	689.332
226.811	19.011	896.911	689.069
227.826	18.897	896.009	687.858
228.840	18.745	895.368	686.699
229.855	18.712	894.631	685.939
230.869	18.810	894.167	685.914
231.884	18.906	893.324	685.589
232.899	18.714	892.602	684.211
233.913	18.713	892.232	683.861
234.928	18.599	891.532	682.813
235.942	18.588	890.227	681.708
236.957	18.561	890.154	681.482
237.972	18.622	889.464	681.138
238.986	18.481	888.856	680.051
240.001	18.582	888.516	680.133
241.015	18.672	887.405	679.578
242.030	18.797	886.645	679.430
243.045	18.604	886.530	678.518
244.059	18.941	885.713	679.163
245.074	18.912	885.127	678.541
246.088	18.862	884.570	677.857
247.103	18.955	884.088	677.792
248.117	19.063	883.262	677.527
249.132	19.143	882.923	677.521
250.147	19.437	882.335	678.165
251.161	19.454	882.243	678.100
252.176	19.655	881.378	678.165
253.190	19.670	880.748	677.679
254.205	19.698	880.389	677.455
255.220	19.711	879.506	676.764
256.234	19.685	879.190	676.359
257.249	19.561	878.252	675.096
258.263	19.658	878.160	675.341
259.278	19.719	877.430	674.961
260.293	19.678	876.435	673.973
261.307	19.644	875.829	673.316
262.322	19.774	875.649	673.624
263.336	19.692	875.110	672.833
264.351	19.836	874.149	672.594
265.366	19.840	873.697	672.201
266.380	19.767	873.393	671.623
267.395	19.694	872.501	670.596
268.409	19.846	871.548	670.394
269.424	19.733	870.699	669.242
270.439	19.644	869.914	668.236
271.453	19.709	869.393	668.030
272.468	19.587	868.456	666.779
273.482	19.663	867.813	666.519
274.497	19.580	867.239	665.699
275.512	19.524	866.687	664.999
276.526	19.645	866.133	664.982
277.541	19.492	865.475	663.829
278.555	19.696	864.833	664.061
279.570	19.744	864.367	663.832
280.585	19.853	864.187	664.052
281.599	19.910	863.281	663.517
282.614	19.826	862.641	662.642
283.628	19.763	861.957	661.817
284.643	19.761	861.413	661.335
285.657	19.723	860.850	660.698
286.672	19.794	860.519	660.658
287.687	19.762	859.790	659.915
288.701	19.673	859.304	659.146
289.716	19.842	858.904	659.424
290.730	19.848	858.203	658.853
291.745	19.919	857.608	658.607
292.760	19.865	857.084	657.942
293.774	20.011	856.280	657.821
294.789	20.062	855.777	657.568
295.803	20.082	855.517	657.386
296.818	19.944	854.752	656.218
297.833	19.820	854.244	655.300
298.847	19.763	853.519	654.468
299.862	20.001	852.663	654.656
300.876	19.924	852.279	654.013
301.891	20.011	851.405	653.610
302.906	20.202	850.840	653.838
303.920	20.052	850.548	652.993
304.935	20.220	849.959	653.116
305.949	20.345	849.366	653.074
306.964	20.378	848.554	652.513
307.979	20.223	848.082	651.511
308.993	20.176	847.402	650.754
310.008	20.247	846.806	650.506
311.022	20.223	846.790	650.347
312.037	20.272	846.256	650.061
313.052	20.115	845.583	648.898
314.066	19.966	844.920	647.774
315.081	19.889	844.112	646.812
316.095	19.873	843.698	646.378
317.110	19.891	843.089	645.919
318.125	19.859	842.281	645.123
319.139	19.819	841.997	644.700
320.154	19.998	841.428	644.875
321.168	20.024	840.696	644.355
322.183	20.000	840.236	643.853
323.197	20.027	839.762	643.536
324.212	20.018	839.271	643.067
325.227	19.968	838.932	642.566
326.241	20.127	838.025	642.405
327.256	20.098	837.621	641.929
328.270	20.025	837.136	641.233
329.285	19.994	836.449	640.532
330.300	19.983	835.971	640.069
331.314	20.044	835.157	639.616
332.329	20.105	834.583	639.345
333.343	20.176	834.321	639.349
334.358	20.303	833.883	639.424
335.373	20.337	833.430	639.146
336.387	20.384	832.544	638.584
337.402	20.390	832.108	638.215
338.416	20.490	831.640	638.167
339.431	20.473	831.525	637.958
340.446	20.651	830.782	637.983
341.460	20.706	829.921	637.468
342.475	20.713	829.675	637.248
343.489	20.862	829.074	637.278
344.504	20.794	828.884	636.824
345.519	20.895	827.999	636.458
346.533	20.945	827.833	636.456
347.548	21.032	826.924	636.018
348.562	20.861	826.544	635.048
349.577	20.562	826.221	633.652
350.592	20.508	825.233	632.641
351.606	20.385	824.713	631.739
352.621	20.390	824.168	631.286
353.635	20.328	823.911	630.808
354.650	20.505	823.693	631.226
355.665	20.562	823.202	631.001
356.679	20.716	822.755	631.164
357.694	20.616	822.142	630.274
358.708	20.721	821.500	630.104
359.723	20.634	821.141	629.459
360.738	20.728	820.548	629.290
361.752	20.688	819.736	628.467
362.767	20.594	819.843	628.155
363.781	20.863	819.299	628.653
364.796	20.979	818.836	628.659
365.810	21.211	818.287	629.020
366.825	21.253	818.194	629.044
367.840	21.228	817.760	628.563
368.854	21.202	817.342	628.093
369.869	21.043	816.853	627.090
370.883	21.089	816.265	626.748
371.898	20.991	815.763	625.956
372.913	21.175	815.149	626.089
373.927	21.175	814.792	625.759
374.942	21.208	813.983	625.200
375.956	21.060	813.249	624.054
376.971	21.271	812.394	624.095
377.986	21.241	812.150	623.743
379.000	21.401	812.004	624.150
380.015	21.364	811.307	623.425
381.029	21.399	810.717	623.042
382.044	21.365	810.362	622.591
383.059	21.291	809.386	621.526
384.073	21.331	809.137	621.421
385.088	21.338	808.535	620.928
386.102	21.255	807.680	619.924
387.117	21.124	807.001	618.881
388.132	21.009	806.865	618.315
389.146	21.004	806.594	618.035
390.161	21.058	806.382	618.009
391.175	21.210	805.846	618.082
392.190	21.323	805.513	618.172
393.205	21.423	804.495	617.690
394.219	21.184	804.290	616.632
395.234	21.114	803.832	615.979
396.248	21.119	803.113	615.392
397.263	21.107	802.402	614.750
398.278	21.126	801.477	614.053
399.292	20.956	801.502	613.422
400.307	21.132	801.058	613.646
401.321	21.081	800.535	613.011
402.336	21.026	800.599	612.814
403.350	21.186	799.644	612.590
404.365	21.205	799.712	612.653
405.380	21.106	799.658	612.211
406.394	21.448	799.174	612.985
407.409	21.477	798.675	612.648
408.423	21.581	798.072	612.498
409.438	21.749	797.594	612.663
410.453	21.798	797.138	612.429
411.467	21.816	796.732	612.126
412.482	21.744	796.529	611.664
413.496	21.702	796.308	611.294
414.511	21.926	795.802	611.633
415.526	21.918	795.384	611.229
416.540	21.839	794.756	610.419
417.555	21.825	794.146	609.848
418.569	21.820	793.399	609.202
419.584	21.673	793.403	608.639
420.599	21.703	793.110	608.467
421.613	158.487	1367.855	1788.628
422.628	137.325	1451.608	1788.758
