DTS Sentinel unit serial number:	SN413079Multiplexer serial number:	ORYXHardware model number:	OX4-SRSoftware version number:	ORYX F/W v4.00 Oryx Data Collector v3.7.2.0data status	okinstallation	princeton_trtdifferential loss correction	single-endedforward channel	channel 3reverse channel	N/Adate	2019/09/12time	07:10:10forward acquisition time	60.00reverse acquisition time	0.00gamma	496.2192k internal	0.2320k external	0.2320temperature offset calibration	1.0034default loss term (dB/km)	0.3790temperature slope calibration	1.0000multiplexer offset coefficient	1.0000multiplexer slope coefficient	1.0000fibre end	0.00T internal ref (°C)	32.19T ext. ref 1 (°C)	1.62T ext. ref 2 (°C)	27.88length (m)	temperature (°C)	Stokes	anti-Stokes-747.200	-0.333	-0.087	-0.063
-746.185	20.246	-0.174	-0.142
-745.171	-200.000	-0.047	0.208
-744.156	800.000	0.055	0.234
-743.142	627.283	-0.044	0.113
-742.127	-63.329	-0.391	0.163
-741.112	-200.000	-0.081	0.428
-740.098	-119.260	-0.470	0.083
-739.083	-200.000	0.083	-0.372
-738.069	12.342	-0.086	0.067
-737.054	-141.555	0.461	0.047
-736.039	123.490	0.137	-0.174
-735.025	12.071	0.323	-0.251
-734.010	800.000	-0.083	-0.256
-732.996	-200.000	0.020	-0.161
-731.981	593.208	0.061	-0.152
-730.966	-200.000	0.067	0.000
-729.952	-200.000	-0.043	0.194
-728.937	800.000	-0.080	0.270
-727.923	150.218	-0.111	-0.152
-726.908	239.693	-0.036	-0.061
-725.894	97.084	0.276	-0.320
-724.879	0.453	0.203	-0.147
-723.864	-100.779	-0.297	0.074
-722.850	-25.321	0.061	0.036
-721.835	364.655	-0.092	0.187
-720.821	-54.894	-0.025	-0.012
-719.806	-158.526	-0.126	-0.007
-718.791	-89.520	-0.165	-0.049
-717.777	-155.053	0.205	0.014
-716.762	608.270	-0.145	-0.366
-715.748	-5.601	0.146	0.101
-714.733	210.376	-0.054	0.085
-713.718	59.340	0.008	-0.008
-712.704	-30.692	-0.038	0.022
-711.689	27.035	0.172	-0.146
-710.675	115.094	-0.267	-0.329
-709.660	-65.533	-0.279	-0.113
-708.645	384.068	0.107	-0.223
-707.631	158.251	-0.165	0.231
-706.616	-200.000	0.021	0.141
-705.602	488.057	-0.125	-0.287
-704.587	-103.823	-0.257	-0.061
-703.572	-200.000	-0.009	0.191
-702.558	-192.874	-0.121	0.001
-701.543	288.405	-0.248	-0.454
-700.529	-200.000	-0.053	0.356
-699.514	-135.455	-0.169	-0.020
-698.499	15.705	0.142	-0.113
-697.485	-162.162	0.177	-0.009
-696.470	211.811	-0.154	-0.245
-695.456	-200.000	0.003	0.275
-694.441	-153.361	-0.324	0.023
-693.426	-200.000	0.061	0.419
-692.412	-74.989	0.311	0.112
-691.397	-16.861	-0.235	-0.150
-690.383	511.315	0.095	-0.224
-689.368	-200.000	0.010	-0.062
-688.354	-69.372	-0.209	-0.081
-687.339	-34.013	-0.101	0.056
-686.324	389.613	-0.096	-0.201
-685.310	-200.000	-0.042	-0.562
-684.295	-200.000	-0.068	-0.476
-683.281	-131.290	0.293	-0.039
-682.266	800.000	0.081	-0.231
-681.251	-16.500	-0.222	-0.142
-680.237	55.402	-0.085	0.083
-679.222	800.000	0.076	-0.278
-678.208	-169.134	-0.204	-0.008
-677.193	749.291	0.061	0.165
-676.178	-70.423	-0.217	-0.083
-675.164	509.399	-0.033	-0.077
-674.149	198.057	-0.042	-0.065
-673.135	90.092	-0.139	0.157
-672.120	56.255	0.157	0.153
-671.105	-159.738	0.199	-0.011
-670.091	480.590	-0.053	0.120
-669.076	-200.000	0.020	0.135
-668.062	-57.460	-0.158	-0.070
-667.047	-104.060	0.302	0.071
-666.032	465.133	0.076	0.171
-665.018	-94.080	-0.294	-0.081
-664.003	800.000	0.059	-0.208
-662.989	393.789	0.058	-0.123
-661.974	115.533	0.183	0.225
-660.959	532.389	0.098	-0.233
-659.945	288.890	-0.130	-0.237
-658.930	-149.162	0.054	-0.004
-657.916	800.000	-0.062	-0.176
-656.901	-138.800	-0.210	-0.023
-655.886	47.708	-0.241	-0.227
-654.872	1.283	0.231	0.167
-653.857	-117.601	-0.105	-0.019
-652.843	634.172	-0.094	0.241
-651.828	135.908	-0.320	-0.420
-650.814	-200.000	0.016	-0.205
-649.799	-101.620	-0.197	0.048
-648.784	-200.000	0.044	-0.264
-647.770	-105.506	0.111	-0.025
-646.755	102.103	0.192	-0.226
-645.741	-84.749	-0.129	0.041
-644.726	114.282	0.084	-0.103
-643.711	45.132	-0.107	-0.099
-642.697	-200.000	0.002	0.196
-641.682	-94.246	-0.211	0.058
-640.668	-151.238	-0.174	0.013
-639.653	-94.781	0.214	-0.059
-638.638	-186.280	0.309	-0.005
-637.624	-106.676	-0.100	0.022
-636.609	-200.000	-0.011	0.055
-635.595	-113.504	-0.030	0.006
-634.580	-92.960	0.209	0.059
-633.565	-49.466	0.078	0.037
-632.551	800.000	0.092	-0.283
-631.536	-80.941	-0.480	0.160
-630.522	-107.522	-0.290	0.064
-629.507	-200.000	-0.042	-0.220
-628.492	179.929	0.161	-0.238
-627.478	-43.865	-0.076	0.038
-626.463	336.099	-0.189	0.369
-625.449	661.550	0.081	-0.210
-624.434	-91.781	-0.211	-0.060
-623.419	-156.029	0.217	0.014
-622.405	-27.525	0.134	-0.078
-621.390	-200.000	-0.003	-0.110
-620.376	-159.747	0.186	-0.010
-619.361	-200.000	0.002	0.012
-618.346	-98.260	-0.335	-0.087
-617.332	571.092	0.068	-0.167
-616.317	-148.959	-0.326	0.026
-615.303	6.714	-0.108	0.081
-614.288	-57.575	-0.109	0.048
-613.273	800.000	0.091	0.360
-612.259	-200.000	-0.015	-0.108
-611.244	-0.227	-0.113	-0.081
-610.230	-24.279	-0.247	-0.148
-609.215	-200.000	0.042	-0.304
-608.201	-200.000	0.005	0.111
-607.186	-141.445	-0.283	0.029
-606.171	-80.468	0.215	-0.072
-605.157	-8.510	-0.188	0.127
-604.142	-200.000	0.009	0.106
-603.128	-200.000	-0.018	0.397
-602.113	-8.048	-0.074	0.051
-601.098	-70.174	0.135	0.052
-600.084	-12.913	-0.038	-0.025
-599.069	-93.510	-0.194	-0.054
-598.055	-200.000	-0.017	-0.398
-597.040	3.474	-0.046	-0.034
-596.025	228.840	0.153	0.251
-595.011	552.670	0.047	0.114
-593.996	-24.302	0.258	-0.155
-592.982	223.122	0.074	-0.120
-591.967	800.000	-0.051	-0.149
-590.952	140.541	-0.067	-0.089
-589.938	-58.085	0.314	-0.138
-588.923	260.582	0.194	-0.337
-587.909	-200.000	0.025	-0.275
-586.894	-18.446	-0.153	-0.096
-585.879	-117.552	0.187	-0.034
-584.865	225.352	-0.147	-0.239
-583.850	42.322	0.174	-0.159
-582.836	-125.267	0.090	-0.014
-581.821	438.856	0.035	0.078
-580.806	-200.000	-0.021	-0.288
-579.792	-159.040	-0.418	0.024
-578.777	-142.637	-0.119	-0.012
-577.763	800.000	0.066	-0.244
-576.748	-42.613	-0.461	-0.236
-575.733	-3.670	-0.129	0.090
-574.719	-167.720	0.106	-0.004
-573.704	-200.000	-0.024	-0.217
-572.690	-26.812	-0.088	-0.051
-571.675	554.434	0.051	-0.124
-570.661	60.847	-0.068	0.067
-569.646	-200.000	0.006	-0.068
-568.631	800.000	-0.031	0.086
-567.617	111.667	-0.111	-0.135
-566.602	143.685	0.134	-0.179
-565.588	302.823	-0.135	-0.251
-564.573	-60.710	0.180	-0.077
-563.558	55.073	0.211	-0.205
-562.544	-200.000	0.021	-0.111
-561.529	-15.426	0.155	0.100
-560.515	-200.000	-0.025	0.231
-559.500	18.377	-0.204	-0.164
-558.485	-89.909	-0.153	0.045
-557.471	309.462	-0.193	0.363
-556.456	621.739	0.238	0.602
-555.442	-41.638	-0.289	-0.149
-554.427	124.855	0.230	-0.291
-553.412	234.432	0.120	0.198
-552.398	452.328	-0.071	0.158
-551.383	1.221	-0.235	0.169
-550.369	800.000	-0.079	0.222
-549.354	800.000	-0.050	-0.151
-548.339	-21.841	0.323	0.197
-547.325	-52.428	-0.063	0.029
-546.310	800.000	-0.022	0.082
-545.296	-200.000	0.033	0.150
-544.281	120.862	0.100	0.125
-543.266	537.263	-0.071	-0.169
-542.252	-113.248	0.047	-0.009
-541.237	270.162	0.162	0.286
-540.223	239.083	0.108	-0.181
-539.208	209.127	-0.117	0.184
-538.193	800.000	-0.065	-0.248
-537.179	296.724	0.099	0.182
-536.164	800.000	-0.044	-0.156
-535.150	-91.525	-0.269	-0.077
-534.135	800.000	-0.043	0.145
-533.121	25.984	-0.031	-0.026
-532.106	15.017	0.295	0.232
-531.091	617.736	-0.056	0.142
-530.077	101.117	-0.126	-0.147
-529.062	-26.049	-0.024	0.014
-528.048	66.485	-0.133	-0.135
-527.033	1.063	0.313	0.225
-526.018	153.128	0.093	-0.127
-525.004	-53.135	0.103	-0.048
-523.989	-82.757	-0.195	0.063
-522.975	228.137	0.071	-0.117
-521.960	-151.875	-0.385	0.028
-520.945	-200.000	-0.066	0.491
-519.931	37.321	0.099	0.088
-518.916	-158.268	0.460	-0.027
-517.902	471.769	-0.072	0.163
-516.887	511.157	-0.075	0.176
-515.872	-72.096	0.320	0.119
-514.858	-41.141	-0.049	-0.026
-513.843	-200.000	0.028	0.220
-512.829	-128.594	0.055	-0.008
-511.814	-80.337	-0.101	0.034
-510.799	-97.992	0.284	-0.073
-509.785	-200.000	-0.042	0.407
-508.770	-16.324	0.165	0.105
-507.756	-11.308	0.162	-0.107
-506.741	-113.962	-0.173	0.034
-505.726	-150.732	0.131	0.010
-504.712	434.980	0.047	0.102
-503.697	-43.459	0.222	-0.112
-502.683	-52.414	0.221	0.103
-501.668	91.651	0.211	-0.238
-500.653	-174.753	-0.280	-0.008
-499.639	592.066	-0.165	0.408
-498.624	184.374	-0.131	0.195
-497.610	-61.876	-0.160	-0.067
-496.595	-125.838	-0.213	0.032
-495.581	800.000	-0.119	-0.416
-494.566	-200.000	0.012	-0.086
-493.551	247.540	0.110	-0.186
-492.537	-66.090	0.147	0.059
-491.522	-134.527	0.249	-0.030
-490.508	5.436	-0.173	-0.128
-489.493	313.622	-0.038	0.072
-488.478	564.036	0.155	-0.375
-487.464	-94.543	-0.269	0.073
-486.449	-68.448	-0.244	-0.095
-485.435	-103.885	-0.086	0.020
-484.420	77.205	-0.095	0.101
-483.405	613.790	0.039	0.097
-482.391	-200.000	0.021	0.158
-481.376	295.786	0.032	0.059
-480.362	28.469	-0.365	0.309
-479.347	79.566	0.235	0.253
-478.332	115.803	-0.075	-0.092
-477.318	102.150	-0.154	-0.180
-476.303	800.000	-0.028	-0.098
-475.289	220.115	-0.021	-0.034
-474.274	800.000	-0.014	-0.041
-473.259	-200.000	0.014	-0.121
-472.245	195.420	0.086	-0.130
-471.230	-35.666	0.197	-0.107
-470.216	-6.593	-0.285	0.194
-469.201	-139.703	0.353	-0.038
-468.186	-1.439	-0.117	-0.083
-467.172	-200.000	-0.006	0.046
-466.157	-48.483	0.171	0.082
-465.143	-149.231	0.504	0.040
-464.128	-20.563	0.093	0.057
-463.113	53.930	0.197	-0.189
-462.099	-63.093	-0.254	0.105
-461.084	-60.607	0.152	-0.064
-460.070	-33.163	-0.034	-0.019
-459.055	-44.986	0.035	0.017
-458.040	693.543	0.093	-0.243
-457.026	800.000	-0.030	0.089
-456.011	330.721	-0.128	-0.246
-454.997	800.000	-0.047	0.192
-453.982	5.123	-0.243	-0.179
-452.968	-4.458	0.493	-0.341
-451.953	87.579	-0.147	-0.163
-450.938	-82.305	-0.096	-0.031
-449.924	1.855	0.034	-0.024
-448.909	-5.404	0.049	0.034
-447.895	-15.101	0.193	0.123
-446.880	-17.195	0.330	-0.208
-445.865	-200.000	-0.419	-0.001
-444.851	800.000	-0.135	0.412
-443.836	-200.000	-0.026	0.499
-442.822	-200.000	0.036	0.273
-441.807	-47.208	0.187	0.091
-440.792	-48.343	0.275	0.133
-439.778	-200.000	-0.033	0.241
-438.763	130.634	0.046	0.058
-437.749	28.793	-0.238	0.202
-436.734	-200.000	-0.012	-0.297
-435.719	54.361	-0.144	0.139
-434.705	319.515	0.027	-0.051
-433.690	-106.923	0.222	-0.049
-432.676	-200.000	0.000	0.128
-431.661	47.348	0.093	-0.086
-430.646	80.063	0.085	0.091
-429.632	419.849	-0.049	0.105
-428.617	256.867	0.155	-0.266
-427.603	-45.151	-0.095	-0.047
-426.588	-200.000	0.032	0.413
-425.573	-107.835	0.114	-0.025
-424.559	-83.796	-0.085	-0.027
-423.544	-111.326	0.187	-0.038
-422.530	-128.579	-0.073	0.010
-421.515	-200.000	-0.082	-0.365
-420.500	-36.568	0.407	-0.219
-419.486	-69.739	-0.224	-0.086
-418.471	256.303	-0.107	-0.183
-417.457	82.261	-0.204	-0.221
-416.442	241.916	-0.133	0.222
-415.428	-200.000	0.003	0.221
-414.413	-156.798	0.192	-0.012
-413.398	126.037	0.175	0.221
-412.384	-200.000	-0.019	0.089
-411.369	-132.348	-0.119	-0.015
-410.355	-200.000	-0.004	0.328
-409.340	-200.000	0.035	0.181
-408.325	-23.905	0.209	-0.125
-407.311	-167.846	0.224	-0.009
-406.296	114.473	-0.019	0.024
-405.282	129.134	-0.085	-0.108
-404.267	223.322	-0.309	-0.497
-403.252	-171.512	-0.136	-0.005
-402.238	-65.664	0.058	-0.023
-401.223	8.256	-0.165	-0.123
-400.209	-200.000	-0.053	0.303
-399.194	-49.138	0.151	0.072
-398.179	800.000	-0.037	-0.103
-397.165	800.000	-0.068	-0.286
-396.150	-44.323	-0.147	0.073
-395.136	-200.000	-0.008	-0.191
-394.121	-65.182	-0.090	-0.036
-393.106	-149.657	-0.380	-0.030
-392.092	-126.677	-0.097	0.014
-391.077	800.000	0.088	0.263
-390.063	800.000	-0.058	0.203
-389.048	-170.117	0.296	0.010
-388.033	-23.517	0.237	0.142
-387.019	-200.000	-0.012	-0.076
-386.004	228.457	-0.123	0.199
-384.990	800.000	-0.048	0.144
-383.975	-20.963	-0.192	0.117
-382.960	800.000	0.080	-0.251
-381.946	133.653	0.087	-0.112
-380.931	-4.973	0.008	0.006
-379.917	167.342	0.083	0.117
-378.902	17.816	-0.226	0.179
-377.888	-200.000	0.021	0.162
-376.873	800.000	0.015	-0.054
-375.858	9.936	-0.112	-0.085
-374.844	800.000	0.067	0.218
-373.829	-69.644	0.425	0.162
-372.815	-86.528	0.297	0.091
-371.800	111.845	0.172	-0.208
-370.785	-200.000	-0.076	-0.358
-369.771	800.000	0.031	0.128
-368.756	-98.247	-0.135	-0.035
-367.742	800.000	-0.012	-0.043
-366.727	356.716	0.115	0.229
-365.712	246.409	0.026	0.044
-364.698	-200.000	0.011	0.063
-363.683	-14.917	0.124	0.079
-362.669	800.000	0.044	0.165
-361.654	-20.327	-0.165	0.101
-360.639	-58.374	0.079	-0.034
-359.625	-200.000	0.012	-0.061
-358.610	-120.398	0.023	0.004
-357.596	-137.272	0.196	0.022
-356.581	28.235	0.103	0.087
-355.566	261.403	-0.205	0.354
-354.552	-200.000	-0.015	0.074
-353.537	-181.135	0.153	0.003
-352.523	-78.964	-0.374	0.127
-351.508	-92.279	-0.110	-0.031
-350.493	800.000	0.096	0.309
-349.479	664.937	0.075	0.192
-348.464	69.265	0.090	0.093
-347.450	232.962	-0.123	-0.201
-346.435	800.000	-0.049	-0.176
-345.420	-3.911	0.178	-0.123
-344.406	410.605	-0.151	-0.320
-343.391	-30.095	0.177	0.100
-342.377	-200.000	-0.005	-0.065
-341.362	-200.000	0.008	-0.131
-340.348	-155.748	0.236	-0.015
-339.333	-200.000	-0.030	0.234
-338.318	70.342	-0.110	0.113
-337.304	90.750	-0.117	0.131
-336.289	-61.823	0.263	0.110
-335.275	-49.546	-0.366	0.174
-334.260	-138.125	0.168	-0.019
-333.245	-200.000	0.026	-0.256
-332.231	-200.000	0.038	0.245
-331.216	800.000	-0.056	-0.232
-330.202	41.342	0.033	-0.030
-329.187	-97.553	0.086	-0.022
-328.172	182.069	0.067	0.098
-327.158	-200.000	-0.083	-0.615
-326.143	-73.524	0.529	-0.192
-325.129	-200.000	-0.074	0.378
-324.114	426.729	-0.123	-0.264
-323.099	-32.135	-0.181	-0.100
-322.085	30.695	-0.264	0.225
-321.070	256.449	-0.042	0.071
-320.056	-43.112	0.310	-0.156
-319.041	127.874	-0.149	-0.188
-318.026	3.004	0.262	-0.189
-317.012	362.712	0.012	0.025
-315.997	-137.412	-0.323	-0.036
-314.983	372.566	0.078	-0.157
-313.968	-200.000	0.034	0.186
-312.953	-200.000	0.000	0.045
-311.939	-109.451	-0.328	0.069
-310.924	43.196	-0.065	0.059
-309.910	4.071	-0.059	0.043
-308.895	40.868	-0.083	0.075
-307.880	-150.268	-0.287	0.022
-306.866	784.274	0.071	-0.192
-305.851	144.569	-0.088	0.117
-304.837	-19.009	-0.313	0.193
-303.822	131.768	-0.184	0.235
-302.807	-71.549	-0.136	0.050
-301.793	-133.501	-0.110	0.014
-300.778	800.000	-0.068	-0.282
-299.764	81.780	0.154	-0.165
-298.749	-50.850	-0.130	0.061
-297.735	-200.000	0.091	0.424
-296.720	-200.000	0.072	0.342
-295.705	249.798	-0.112	-0.190
-294.691	-200.000	0.040	-0.199
-293.676	-90.023	-0.121	0.035
-292.662	-200.000	0.249	-0.001
-291.647	120.575	-0.070	0.087
-290.632	316.031	-0.183	-0.343
-289.618	123.079	0.021	0.026
-288.603	68.773	-0.107	0.109
-287.589	-0.064	0.124	-0.088
-286.574	39.413	-0.086	0.076
-285.559	52.933	0.185	0.176
-284.545	45.476	0.043	-0.040
-283.530	-200.000	-0.008	-0.034
-282.516	-200.000	0.018	-0.300
-281.501	-200.000	0.026	-0.118
-280.486	173.269	0.159	-0.227
-279.472	-31.483	-0.120	-0.067
-278.457	-77.585	0.269	0.092
-277.443	291.963	-0.084	-0.151
-276.428	800.000	0.046	0.184
-275.413	800.000	0.092	0.286
-274.399	37.987	0.024	-0.022
-273.384	745.122	-0.007	-0.020
-272.370	-154.637	-0.100	-0.007
-271.355	-93.654	0.325	0.089
-270.340	-16.392	-0.151	-0.095
-269.326	-112.324	-0.130	-0.026
-268.311	-80.044	-0.128	0.043
-267.297	69.378	-0.111	-0.113
-266.282	-200.000	0.022	0.407
-265.267	-95.951	0.101	-0.027
-264.253	-4.409	0.272	0.186
-263.238	-117.032	0.063	0.011
-262.224	-148.001	-0.172	0.014
-261.209	262.969	-0.019	0.033
-260.195	89.855	-0.068	-0.075
-259.180	800.000	-0.067	-0.225
-258.165	27.123	-0.178	0.148
-257.151	136.276	-0.062	0.080
-256.136	-200.000	-0.022	-0.258
-255.122	-118.451	-0.164	0.029
-254.107	152.166	-0.079	0.107
-253.092	-200.000	0.030	-0.178
-252.078	-200.000	-0.069	-0.400
-251.063	481.841	-0.084	0.190
-250.049	19.921	-0.142	0.113
-249.034	189.076	-0.009	0.014
-248.019	-55.246	0.130	-0.058
-247.005	-119.057	-0.196	0.034
-245.990	491.783	-0.066	0.149
-244.976	468.790	-0.066	-0.147
-243.961	-200.000	0.073	-0.337
-242.946	-129.715	0.469	0.064
-241.932	-157.603	0.467	-0.028
-240.917	-56.451	0.345	0.152
-239.903	45.805	0.172	-0.158
-238.888	-38.213	0.230	0.121
-237.873	4.129	0.074	0.054
-236.859	-200.000	-0.009	0.147
-235.844	252.138	-0.123	0.207
-234.830	407.136	-0.044	0.092
-233.815	207.733	-0.152	0.236
-232.800	83.840	0.085	-0.092
-231.786	-138.871	-0.108	-0.012
-230.771	-200.000	-0.007	-0.283
-229.757	36.021	0.249	-0.217
-228.742	-200.000	0.010	0.244
-227.727	-117.209	0.200	-0.036
-226.713	800.000	-0.012	0.038
-225.698	501.700	0.125	0.286
-224.684	305.065	-0.161	0.297
-223.669	-200.000	-0.007	-0.256
-222.655	-101.727	0.224	0.054
-221.640	448.519	0.040	0.088
-220.625	-24.980	-0.085	-0.050
-219.611	-19.131	-0.412	0.254
-218.596	51.015	0.083	0.078
-217.582	-141.173	-0.359	0.036
-216.567	-103.318	0.275	-0.064
-215.552	800.000	0.043	-0.184
-214.538	-200.000	-0.024	-0.227
-213.523	-24.581	0.103	0.061
-212.509	138.467	-0.119	-0.154
-211.494	274.256	-0.179	-0.314
-210.479	-80.204	0.234	-0.077
-209.465	800.000	0.001	-0.005
-208.450	800.000	0.064	0.178
-207.436	52.797	0.068	-0.064
-206.421	255.822	-0.100	0.170
-205.406	-185.723	-0.094	0.001
-204.392	-38.889	0.130	-0.068
-203.377	103.983	-0.121	0.141
-202.363	-34.383	0.298	0.162
-201.348	-200.000	0.014	0.148
-200.333	-124.434	-0.535	0.083
-199.319	800.000	-0.061	0.168
-198.304	-200.000	0.006	-0.031
-197.290	-97.771	0.042	0.011
-196.275	-73.904	0.208	0.075
-195.260	-200.000	0.035	-0.182
-194.246	33.971	0.243	-0.210
-193.231	800.000	0.067	-0.193
-192.217	511.081	0.097	-0.223
-191.202	-200.000	-0.257	0.001
-190.187	27.070	-0.188	-0.156
-189.173	6.611	0.068	0.050
-188.158	400.282	-0.205	0.425
-187.144	210.020	-0.208	0.323
-186.129	800.000	0.091	-0.289
-185.114	340.447	0.134	-0.259
-184.100	-74.144	-0.237	-0.085
-183.085	227.955	-0.112	-0.180
-182.071	-6.920	0.274	-0.184
-181.056	-171.808	0.350	0.011
-180.042	-31.367	0.272	-0.151
-179.027	479.555	-0.096	0.215
-178.012	-50.463	-0.068	0.032
-176.998	-164.974	-0.183	-0.008
-175.983	-120.150	0.215	-0.036
-174.969	780.085	-0.086	-0.232
-173.954	322.109	0.035	-0.067
-172.939	-110.264	0.166	0.034
-171.925	-33.856	-0.034	0.019
-170.910	1.598	-0.350	-0.249
-169.896	-18.299	-0.198	-0.123
-168.881	11.895	0.149	-0.113
-167.866	-149.478	0.133	-0.010
-166.852	-88.087	-0.044	0.013
-165.837	136.152	0.187	-0.241
-164.823	-146.617	0.047	0.004
-163.808	34.503	0.071	-0.061
-162.793	800.000	-0.024	0.095
-161.779	-136.778	-0.136	0.016
-160.764	800.000	0.019	-0.070
-159.750	480.770	0.092	0.206
-158.735	-93.910	0.143	0.039
-157.720	17.368	-0.093	0.073
-156.706	7.210	-0.162	0.120
-155.691	19.372	0.084	0.067
-154.677	-93.780	-0.078	-0.021
-153.662	159.291	0.141	-0.194
-152.647	-48.356	-0.175	-0.083
-151.633	-59.746	-0.140	0.059
-150.618	-134.115	-0.510	-0.062
-149.604	-90.167	-0.361	0.104
-148.589	-200.000	-0.008	0.213
-147.574	800.000	-0.023	0.069
-146.560	-81.367	-0.223	0.073
-145.545	800.000	0.045	0.138
-144.531	716.241	-0.004	-0.010
-143.516	-200.000	0.038	-0.258
-142.502	-122.526	0.295	0.047
-141.487	0.328	-0.222	0.157
-140.472	800.000	0.079	0.269
-139.458	397.760	-0.041	0.084
-138.443	261.031	0.073	0.125
-137.429	-48.942	0.026	0.013
-136.414	525.906	-0.081	0.188
-135.399	800.000	-0.029	0.082
-134.385	-100.318	-0.240	-0.059
-133.370	52.695	-0.091	0.086
-132.356	-43.714	-0.162	0.081
-131.341	169.832	0.029	-0.042
-130.326	86.141	0.253	0.275
-129.312	41.611	0.082	-0.073
-128.297	263.046	0.057	0.097
-127.283	385.826	0.076	-0.155
-126.268	-188.308	0.114	-0.001
-125.253	138.636	-0.085	0.110
-124.239	-200.000	-0.032	0.285
-123.224	62.144	-0.046	0.045
-122.210	142.644	-0.126	0.165
-121.195	-200.000	0.022	0.127
-120.180	800.000	-0.087	0.242
-119.166	-161.612	-0.245	-0.012
-118.151	-9.006	-0.064	-0.042
-117.137	-123.615	0.275	0.043
-116.122	-149.717	-0.324	0.025
-115.107	46.673	-0.054	0.050
-114.093	18.254	-0.257	0.202
-113.078	195.612	0.177	0.265
-112.064	-47.561	-0.218	0.105
-111.049	270.762	-0.095	-0.164
-110.034	800.000	-0.129	0.358
-109.020	-10.748	0.024	-0.016
-108.005	-142.849	0.240	0.023
-106.991	-200.000	-0.011	-0.338
-105.976	-182.713	-0.194	0.003
-104.962	-0.874	-0.392	0.274
-103.947	28.534	-0.199	0.166
-102.932	-200.000	-0.054	-0.372
-101.918	29.166	0.033	-0.028
-100.903	-200.000	-0.052	0.263
-99.889	800.000	0.086	-0.237
-98.874	-200.000	0.048	0.244
-97.859	56.356	0.215	0.206
-96.845	-146.185	-0.194	0.017
-95.830	-69.908	0.273	-0.103
-94.816	-126.672	0.158	0.023
-93.801	-147.189	-0.190	0.016
-92.786	697.721	-0.155	-0.403
-91.772	63.153	-0.201	-0.199
-90.757	434.522	0.150	0.321
-89.743	800.000	-0.075	0.225
-88.728	-122.877	-0.307	-0.049
-87.713	532.508	0.171	-0.399
-86.699	-200.000	0.001	0.157
-85.684	-182.316	0.353	-0.006
-84.670	87.460	0.143	-0.156
-83.655	-200.000	-0.001	0.201
-82.640	-64.556	-0.053	0.021
-81.626	-31.975	-0.305	-0.168
-80.611	800.000	0.026	-0.072
-79.597	-200.000	-0.004	-0.031
-78.582	-55.178	-0.247	-0.110
-77.567	-200.000	-0.016	-0.125
-76.553	-200.000	0.055	0.427
-75.538	410.788	-0.098	-0.205
-74.524	800.000	-0.004	0.018
-73.509	63.056	0.171	0.169
-72.494	108.636	-0.154	-0.181
-71.480	-200.000	0.004	-0.310
-70.465	800.000	0.083	0.226
-69.451	394.465	-0.097	-0.199
-68.436	800.000	0.111	0.400
-67.422	-200.000	-0.045	-0.221
-66.407	300.855	0.079	-0.144
-65.392	524.969	-0.111	0.257
-64.378	586.734	-0.032	0.078
-63.363	-200.000	0.099	0.449
-62.349	5.757	-0.187	0.136
-61.334	141.649	-0.640	-0.835
-60.319	-104.488	0.574	0.131
-59.305	352.345	-0.419	-0.817
-58.290	385.057	0.452	0.917
-57.276	800.000	0.378	1.531
-56.261	-200.000	95.807	590.701
-55.246	560.725	1377.634	3277.486
-54.232	159.898	2557.444	3507.414
-53.217	112.064	2165.623	2576.032
-52.203	42.819	1709.417	1533.188
-51.188	35.423	1522.872	1315.368
-50.173	33.033	1495.913	1275.912
-49.159	52.189	1545.056	1449.716
-48.144	54.062	1562.373	1478.760
-47.130	35.644	1522.233	1316.119
-46.115	32.448	1507.835	1281.893
-45.100	32.281	1504.184	1277.604
-44.086	32.331	1502.156	1276.173
-43.071	32.224	1500.646	1274.109
-42.057	32.243	1498.794	1272.616
-41.042	32.156	1497.724	1271.070
-40.027	32.135	1496.565	1269.890
-39.013	32.077	1494.602	1267.784
-37.998	32.083	1493.556	1266.889
-36.984	32.048	1492.867	1266.017
-35.969	32.324	1490.247	1265.603
-34.954	32.229	1489.470	1264.252
-33.940	32.247	1487.474	1262.630
-32.925	32.171	1486.501	1261.242
-31.911	32.265	1485.068	1260.609
-30.896	32.287	1483.537	1259.404
-29.881	32.224	1482.564	1258.107
-28.867	32.204	1481.321	1256.867
-27.852	32.266	1479.620	1255.793
-26.838	32.208	1478.246	1254.186
-25.823	32.323	1476.507	1253.426
-24.809	32.265	1474.832	1251.569
-23.794	32.292	1473.264	1250.368
-22.779	32.219	1472.373	1249.079
-21.765	32.213	1471.306	1248.083
-20.750	32.242	1470.011	1247.127
-19.736	32.238	1468.975	1246.176
-18.721	32.179	1468.224	1245.101
-17.706	32.148	1467.008	1243.811
-16.692	32.159	1465.940	1242.932
-15.677	32.211	1464.718	1242.186
-14.663	32.133	1464.105	1241.104
-13.648	32.075	1463.317	1240.003
-12.633	32.057	1461.855	1238.599
-11.619	32.176	1461.298	1238.857
-10.604	32.088	1460.357	1237.431
-9.590	32.185	1459.186	1237.031
-8.575	32.274	1458.278	1236.794
-7.560	32.155	1457.676	1235.457
-6.546	32.145	1456.735	1234.541
-5.531	32.196	1455.393	1233.693
-4.517	32.110	1454.833	1232.602
-3.502	32.148	1453.602	1231.761
-2.487	31.975	1452.806	1229.906
-1.473	32.071	1451.585	1229.451
-0.458	32.148	1449.996	1228.557
0.556	32.088	1440.900	1218.134
1.571	29.312	1415.562	1178.884
2.586	26.112	1359.981	1112.803
3.600	24.649	1281.230	1039.770
4.615	23.254	1233.943	993.481
5.629	19.507	1175.883	926.577
6.644	9.705	1089.015	809.086
7.659	2.765	1047.335	744.463
8.673	1.883	1042.157	736.458
9.688	1.700	1038.973	733.261
10.702	1.426	1037.528	730.861
11.717	1.463	1035.420	729.486
12.731	4.331	1038.769	745.577
13.746	14.055	1052.443	802.473
14.761	22.370	1063.033	850.848
15.775	24.832	1064.924	864.195
16.790	25.115	1065.259	865.755
17.804	24.805	1064.555	863.611
18.819	24.711	1063.618	862.321
19.834	24.812	1062.687	861.977
20.848	24.865	1063.176	862.554
21.863	25.141	1062.742	863.453
22.877	25.092	1062.065	862.589
23.892	25.043	1061.116	861.509
24.907	24.755	1061.067	860.008
25.921	24.944	1060.060	860.022
26.936	25.012	1058.965	859.385
27.950	24.953	1058.040	858.274
28.965	24.954	1056.817	857.213
29.980	24.804	1055.487	855.341
30.994	24.707	1054.662	854.132
32.009	25.002	1053.705	854.690
33.023	25.205	1052.781	854.831
34.038	24.959	1051.968	852.926
35.053	24.843	1050.792	851.346
36.067	24.859	1050.673	851.250
37.082	24.986	1049.678	850.969
38.096	24.914	1048.921	849.938
39.111	25.183	1048.057	850.437
40.126	25.254	1047.448	850.208
41.140	25.256	1045.780	848.788
42.155	24.924	1044.294	845.938
43.169	24.646	1043.264	843.715
44.184	24.443	1042.531	842.092
45.199	24.483	1041.710	841.542
46.213	24.578	1040.398	840.854
47.228	24.537	1039.871	840.161
48.242	24.670	1039.161	840.140
49.257	24.874	1038.593	840.564
50.271	25.045	1037.282	840.231
51.286	25.055	1036.919	839.909
52.301	25.168	1036.061	839.669
53.315	25.103	1035.766	839.052
54.330	24.999	1034.862	837.759
55.344	24.887	1033.921	836.400
56.359	24.995	1033.176	836.226
57.374	24.972	1032.376	835.399
58.388	24.810	1031.603	833.944
59.403	24.779	1030.536	832.862
60.417	24.689	1030.402	832.259
61.432	24.621	1029.275	830.960
62.447	24.605	1028.476	830.169
63.461	24.812	1027.915	830.603
64.476	24.726	1027.424	829.733
65.490	24.809	1026.141	829.009
66.505	24.644	1025.180	827.394
67.520	24.620	1024.658	826.789
68.534	24.788	1023.723	826.736
69.549	24.593	1023.136	825.292
70.563	24.237	1022.054	822.702
71.578	24.145	1021.052	821.400
72.593	24.338	1019.873	821.265
73.607	24.202	1018.678	819.607
74.622	24.334	1017.457	819.159
75.636	24.377	1017.729	819.502
76.651	24.591	1016.719	819.597
77.666	24.373	1016.109	818.035
78.680	24.318	1015.160	816.945
79.695	24.379	1014.589	816.693
80.709	24.398	1014.400	816.555
81.724	24.660	1013.042	816.586
82.739	24.657	1012.406	815.988
83.753	24.597	1011.529	814.934
84.768	24.866	1010.828	815.524
85.782	25.230	1010.368	816.737
86.797	25.444	1009.619	817.035
87.812	25.159	1008.858	815.049
88.826	25.080	1007.772	813.743
89.841	25.152	1007.113	813.465
90.855	25.350	1006.152	813.516
91.870	25.292	1005.147	812.367
92.884	25.335	1004.184	811.713
93.899	25.076	1003.808	810.167
94.914	25.025	1002.671	808.947
95.928	24.973	1002.468	808.475
96.943	25.057	1001.404	807.925
97.957	25.041	999.790	806.479
98.972	24.608	999.055	803.866
99.987	24.562	997.282	802.164
101.001	24.656	997.177	802.429
102.016	25.018	996.162	803.167
103.030	24.946	996.069	802.696
104.045	24.878	994.874	801.357
105.060	24.749	993.566	799.657
106.074	24.610	992.527	798.127
107.089	24.668	991.664	797.622
108.103	24.841	991.636	798.304
109.118	25.060	990.740	798.486
110.133	24.843	989.362	796.337
111.147	24.752	988.777	795.392
112.162	24.583	987.280	793.366
113.176	24.291	986.584	791.444
114.191	24.603	985.931	792.231
115.206	24.523	985.277	791.283
116.220	24.301	983.955	789.167
117.235	24.204	982.701	787.663
118.249	24.378	982.118	787.897
119.264	24.217	981.955	786.983
120.279	24.281	980.371	785.926
121.293	24.271	979.945	785.471
122.308	24.377	979.013	785.124
123.322	24.405	978.129	784.466
124.337	24.461	977.165	783.872
125.352	24.291	975.914	782.052
126.366	23.796	974.652	778.804
127.381	23.527	973.010	776.246
128.395	24.160	972.938	778.888
129.410	24.746	972.817	781.283
130.424	24.750	972.219	780.750
131.439	24.868	970.978	780.198
132.454	24.681	970.418	778.867
133.468	24.855	969.147	778.534
134.483	24.826	968.494	777.815
135.497	24.809	967.857	777.159
136.512	25.048	967.123	777.539
137.527	25.056	966.590	777.077
138.541	25.110	965.386	776.272
139.556	24.969	965.181	775.430
140.570	25.185	964.123	775.444
141.585	25.166	963.707	774.961
142.600	25.172	963.008	774.354
143.614	25.130	962.240	773.485
144.629	25.298	961.023	773.164
145.643	25.279	960.693	772.746
146.658	25.398	959.595	772.309
147.673	25.007	958.688	769.829
148.687	25.063	957.445	769.006
149.702	24.859	956.548	767.340
150.716	24.835	955.091	766.001
151.731	24.833	954.492	765.444
152.746	24.852	953.847	764.943
153.760	25.132	953.307	765.636
154.775	25.301	952.498	765.639
155.789	25.261	951.553	764.644
156.804	25.295	951.042	764.309
157.819	25.132	949.853	762.593
158.833	25.268	948.632	762.120
159.848	25.306	948.555	762.154
160.862	25.521	947.240	761.940
161.877	25.182	946.685	759.992
162.892	25.170	945.513	758.934
163.906	25.289	944.486	758.543
164.921	25.212	944.252	757.965
165.935	25.112	943.062	756.519
166.950	25.211	941.931	755.962
167.964	25.294	941.123	755.597
168.979	25.260	940.119	754.580
169.994	25.183	938.965	753.265
171.008	25.132	937.735	751.998
172.023	25.207	937.381	751.961
173.037	25.482	936.317	752.192
174.052	25.325	935.092	750.487
175.067	25.085	934.497	748.938
176.081	24.806	934.071	747.366
177.096	25.001	933.220	747.430
178.110	25.094	932.508	747.185
179.125	24.838	931.461	745.212
180.140	24.642	929.853	743.045
181.154	24.628	929.639	742.750
182.169	24.808	929.241	743.114
183.183	24.964	929.137	743.615
184.198	25.248	928.693	744.369
185.213	25.040	927.889	742.797
186.227	24.994	927.263	742.041
187.242	25.102	926.597	741.891
188.256	25.439	925.380	742.240
189.271	25.303	925.207	741.475
190.286	25.296	924.591	740.889
191.300	25.175	923.354	739.331
192.315	24.518	922.438	735.826
193.329	23.916	920.766	731.951
194.344	23.354	919.838	728.836
195.359	24.077	919.966	731.847
196.373	25.020	919.919	735.619
197.388	25.189	919.952	736.275
198.402	24.974	919.885	735.272
199.417	25.061	919.170	734.992
200.432	25.219	918.424	734.979
201.446	25.052	917.856	733.777
202.461	24.682	917.234	731.701
203.475	24.998	916.029	731.964
204.490	24.418	914.869	728.607
205.504	23.244	912.880	722.169
206.519	23.569	912.699	723.288
207.534	24.559	913.298	727.734
208.548	24.805	912.063	727.687
209.563	25.118	912.420	729.182
210.577	25.128	911.612	728.513
211.592	24.836	910.994	726.770
212.607	25.284	910.685	728.276
213.621	25.425	910.130	728.340
214.636	25.256	909.550	727.124
215.650	25.280	909.158	726.845
216.665	25.302	908.256	726.151
217.680	25.316	907.838	725.807
218.694	25.577	907.028	726.151
219.709	25.285	906.162	724.215
220.723	24.661	905.806	721.346
221.738	24.898	905.148	721.717
222.753	25.010	904.787	721.816
223.767	25.126	903.756	721.394
224.782	25.169	903.254	721.105
225.796	25.238	903.239	721.305
226.811	25.300	902.582	720.968
227.826	25.051	900.505	718.245
228.840	24.236	899.239	713.909
229.855	24.137	898.670	712.999
230.869	24.371	898.795	713.972
231.884	24.202	897.280	712.027
232.899	24.050	897.032	711.160
233.913	24.873	897.370	714.653
234.928	25.021	896.393	714.403
235.942	25.162	895.606	714.275
236.957	25.155	895.042	713.733
237.972	24.731	894.258	711.357
238.986	24.672	893.665	710.589
240.001	24.779	893.234	710.610
241.015	24.816	892.462	710.080
242.030	24.836	891.803	709.571
243.045	25.073	891.236	709.996
244.059	25.127	891.093	710.032
245.074	25.258	890.282	709.841
246.088	25.176	889.831	709.095
247.103	24.868	888.598	706.832
248.117	24.835	888.432	706.511
249.132	25.419	888.481	708.792
250.147	25.693	888.428	709.767
251.161	25.815	887.511	709.453
252.176	26.063	886.917	709.891
253.190	26.086	886.404	709.508
254.205	25.938	886.290	708.772
255.220	26.108	885.947	709.103
256.234	26.280	884.930	708.902
257.249	26.062	883.969	707.214
258.263	25.946	883.759	706.529
259.278	25.950	883.144	705.991
260.293	25.983	882.973	705.919
261.307	26.078	882.306	705.696
262.322	26.049	881.328	704.736
263.336	25.919	880.874	703.804
264.351	25.490	879.487	700.962
265.366	24.414	877.157	694.855
266.380	23.801	876.849	692.162
267.395	24.783	877.252	696.243
268.409	25.534	877.216	699.076
269.424	25.540	876.528	698.487
270.439	25.709	876.196	698.817
271.453	25.727	875.567	698.325
272.468	25.823	874.870	698.077
273.482	26.028	874.229	698.300
274.497	26.061	874.200	698.340
275.512	25.938	872.741	696.640
276.526	25.328	871.724	693.409
277.541	25.559	871.344	693.938
278.555	25.922	871.157	695.128
279.570	25.730	870.565	693.856
280.585	25.496	869.819	692.296
281.599	25.513	869.411	691.977
282.614	25.750	869.007	692.504
283.628	25.331	867.521	689.651
284.643	24.911	866.939	687.517
285.657	25.313	866.943	688.999
286.672	25.236	865.826	687.756
287.687	24.740	864.788	684.974
288.701	25.116	864.633	686.229
289.716	25.413	864.710	687.364
290.730	25.137	863.875	685.586
291.745	25.038	862.981	684.436
292.760	24.809	862.214	682.894
293.774	24.939	861.701	682.925
294.789	25.832	862.001	686.505
295.803	26.420	862.159	688.811
296.818	26.356	861.743	688.174
297.833	26.471	861.355	688.239
298.847	26.211	860.316	686.362
299.862	25.857	859.148	684.025
300.876	25.978	858.907	684.232
301.891	26.228	858.670	684.933
302.906	26.380	858.040	684.945
303.920	25.893	857.218	682.385
304.935	25.856	856.056	681.257
305.949	26.346	855.616	682.697
306.964	26.440	854.968	682.477
307.979	26.105	854.961	681.147
308.993	26.012	854.249	680.167
310.008	26.407	853.859	681.286
311.022	26.647	853.332	681.710
312.037	26.334	853.109	680.291
313.052	26.107	852.285	678.720
314.066	25.934	851.424	677.325
315.081	25.357	849.828	673.833
316.095	24.526	848.906	669.923
317.110	25.107	849.017	672.133
318.125	25.932	849.453	675.509
319.139	25.531	848.452	673.155
320.154	24.393	846.245	667.090
321.168	24.064	845.063	664.873
322.183	24.566	845.857	667.314
323.197	25.528	846.201	671.118
324.212	25.882	845.823	672.082
325.227	26.040	845.912	672.680
326.241	26.018	845.353	672.094
327.256	26.016	844.450	671.311
328.270	25.920	843.874	670.436
329.285	25.844	843.237	669.589
330.300	25.729	842.498	668.515
331.314	25.599	841.605	667.267
332.329	25.504	841.353	666.654
333.343	26.037	840.764	668.104
334.358	26.226	840.715	668.703
335.373	26.214	840.019	668.047
336.387	26.256	839.423	667.670
337.402	26.447	839.282	668.205
338.416	26.631	838.831	668.464
339.431	26.684	838.105	668.023
340.446	26.440	838.158	667.106
341.460	26.847	837.244	667.817
342.475	26.890	836.673	667.460
343.489	26.546	835.805	665.444
344.504	26.588	835.445	665.254
345.519	26.811	834.853	665.543
346.533	27.073	834.641	666.275
347.548	27.211	834.249	666.411
348.562	26.946	834.153	665.305
349.577	27.045	833.385	664.995
350.592	27.172	832.745	664.890
351.606	26.863	832.632	663.611
352.621	26.771	832.256	662.917
353.635	26.944	831.088	662.556
354.650	26.848	830.363	661.571
355.665	26.459	829.712	659.576
356.679	25.367	828.243	654.372
357.694	25.355	827.563	653.736
358.708	26.021	827.833	656.315
359.723	25.912	827.123	655.296
360.738	26.085	826.850	655.653
361.752	26.501	826.981	657.210
362.767	26.722	825.980	657.157
363.781	26.920	826.159	657.961
364.796	27.058	826.296	658.511
365.810	27.348	825.666	659.002
366.825	27.411	825.298	658.875
367.840	27.340	824.906	658.247
368.854	27.094	824.213	656.749
369.869	26.716	823.163	654.486
370.883	26.605	822.626	653.601
371.898	26.721	822.079	653.528
372.913	26.609	821.695	652.761
373.927	26.698	820.712	652.243
374.942	26.904	820.339	652.632
375.956	26.993	819.700	652.385
376.971	27.119	819.108	652.308
377.986	27.145	819.215	652.428
379.000	27.367	818.316	652.451
380.015	27.280	818.174	651.968
381.029	27.170	817.462	650.949
382.044	27.062	816.833	650.005
383.059	27.136	816.241	649.740
384.073	27.301	815.717	649.854
385.088	27.315	815.040	649.309
386.102	27.342	814.547	648.954
387.117	27.161	813.785	647.646
388.132	26.988	813.344	646.618
389.146	26.951	812.369	645.656
390.161	26.344	811.354	642.634
391.175	26.356	811.511	642.746
392.190	26.933	811.592	644.803
393.205	26.988	811.085	644.538
394.219	25.947	809.235	639.321
395.234	24.320	807.089	631.810
396.248	23.551	806.266	628.387
397.263	24.429	807.026	632.036
398.278	26.442	808.427	640.211
399.292	26.877	808.208	641.519
400.307	26.578	807.071	639.503
401.321	26.457	806.935	638.910
402.336	26.573	806.771	639.133
403.350	26.974	806.447	640.236
404.365	27.406	806.393	641.659
405.380	27.602	806.242	642.173
406.394	28.072	805.665	643.310
407.409	28.075	805.724	643.311
408.423	28.035	805.155	642.662
409.438	27.929	804.562	641.759
410.453	27.934	803.928	641.213
411.467	28.063	803.482	641.252
412.482	28.032	802.987	640.693
413.496	28.003	802.442	640.098
414.511	28.075	802.380	640.246
415.526	28.004	802.095	639.713
416.540	27.988	801.786	639.355
417.555	28.042	800.998	638.857
418.569	27.655	800.394	636.966
419.584	27.741	799.982	636.883
420.599	27.693	799.061	635.926
421.613	110.237	1285.783	1459.438
422.628	95.012	1356.703	1459.546
