DTS Sentinel unit serial number:	SN413079Multiplexer serial number:	ORYXHardware model number:	OX4-SRSoftware version number:	ORYX F/W v4.00 Oryx Data Collector v3.7.2.0data status	okinstallation	princeton_trtdifferential loss correction	single-endedforward channel	channel 3reverse channel	N/Adate	2019/09/12time	10:58:11forward acquisition time	60.00reverse acquisition time	0.00gamma	496.2192k internal	0.2295k external	0.2295temperature offset calibration	1.0036default loss term (dB/km)	0.3790temperature slope calibration	1.0000multiplexer offset coefficient	1.0000multiplexer slope coefficient	1.0000fibre end	0.00T internal ref (°C)	38.33T ext. ref 1 (°C)	1.95T ext. ref 2 (°C)	36.42length (m)	temperature (°C)	Stokes	anti-Stokes-747.200	800.000	0.024	-0.085
-746.185	-200.000	-0.016	0.300
-745.171	98.160	0.127	0.149
-744.156	55.397	0.188	0.186
-743.142	-200.000	0.005	0.184
-742.127	-76.347	0.235	0.085
-741.112	-200.000	0.048	0.294
-740.098	-105.529	-0.143	0.033
-739.083	-200.000	0.012	-0.072
-738.069	-129.737	0.126	0.018
-737.054	-13.340	-0.133	-0.088
-736.039	-126.787	-0.210	0.032
-735.025	-84.573	0.203	0.065
-734.010	-172.518	-0.170	-0.005
-732.996	-38.946	-0.115	-0.062
-731.981	258.479	0.134	-0.236
-730.966	-100.318	0.161	0.041
-729.952	-26.823	-0.271	-0.162
-728.937	69.977	-0.266	0.280
-727.923	-128.955	0.317	0.045
-726.908	-66.123	-0.255	0.104
-725.894	-47.971	-0.182	-0.090
-724.879	800.000	0.038	-0.156
-723.864	-26.334	-0.091	0.054
-722.850	8.043	-0.148	-0.113
-721.835	46.167	0.170	0.161
-720.821	524.830	0.025	-0.061
-719.806	-30.782	-0.154	-0.089
-718.791	-200.000	-0.012	-0.175
-717.777	124.315	0.228	-0.293
-716.762	-169.470	-0.217	0.008
-715.748	83.344	0.140	0.156
-714.733	-97.473	0.055	-0.015
-713.718	-200.000	-0.015	0.257
-712.704	-200.000	-0.030	0.148
-711.689	-154.338	0.104	-0.007
-710.675	-63.204	0.025	0.011
-709.660	141.631	-0.101	-0.137
-708.645	-200.000	-0.015	-0.088
-707.631	-167.848	-0.273	-0.011
-706.616	-84.816	0.207	0.066
-705.602	-200.000	0.011	0.173
-704.587	71.584	-0.149	-0.158
-703.572	-200.000	-0.039	-0.358
-702.558	800.000	0.171	-0.485
-701.543	800.000	0.051	0.186
-700.529	-200.000	-0.004	0.106
-699.514	237.598	0.045	0.076
-698.499	643.434	0.117	0.304
-697.485	206.608	-0.104	0.165
-696.470	800.000	-0.055	0.160
-695.456	-200.000	0.015	0.089
-694.441	103.110	-0.236	0.283
-693.426	-41.182	-0.120	0.063
-692.412	-200.000	0.004	0.113
-691.397	-77.150	-0.305	0.109
-690.383	-65.741	0.183	-0.075
-689.368	72.686	-0.117	-0.124
-688.354	74.749	-0.173	-0.185
-687.339	-160.576	0.136	0.007
-686.324	180.769	0.089	0.134
-685.310	-86.534	0.430	0.135
-684.295	117.619	-0.150	-0.188
-683.281	317.584	-0.043	0.083
-682.266	-94.716	-0.526	0.146
-681.251	-200.000	0.025	0.176
-680.237	75.265	0.099	0.106
-679.222	6.598	0.054	-0.041
-678.208	-19.403	-0.219	0.139
-677.193	42.223	0.166	0.154
-676.178	800.000	-0.032	0.107
-675.164	366.004	0.098	-0.202
-674.149	97.104	0.112	-0.131
-673.135	800.000	-0.010	0.037
-672.120	-35.608	0.088	0.049
-671.105	45.658	-0.192	0.181
-670.091	-160.757	-0.097	-0.005
-669.076	394.926	0.030	0.065
-668.062	94.235	-0.098	0.114
-667.047	139.251	-0.227	0.304
-666.032	-120.889	0.305	0.052
-665.018	-109.306	0.124	-0.027
-664.003	-79.656	0.262	-0.090
-662.989	-52.030	0.205	-0.097
-661.974	400.633	0.079	-0.169
-660.959	-18.885	-0.158	-0.100
-659.945	-99.735	0.132	-0.034
-658.930	800.000	0.048	0.209
-657.916	-10.644	0.160	0.108
-656.901	-167.314	0.155	-0.006
-655.886	-127.140	-0.268	0.040
-654.872	-73.812	-0.171	-0.063
-653.857	162.523	0.077	0.110
-652.843	-56.213	0.144	-0.065
-651.828	57.000	0.117	0.117
-650.814	173.488	-0.174	0.255
-649.799	-110.881	-0.125	-0.026
-648.784	-200.000	0.055	0.275
-647.770	-184.809	-0.262	0.004
-646.755	369.229	0.094	0.193
-645.741	-14.392	-0.173	-0.113
-644.726	800.000	0.063	-0.278
-643.711	340.597	0.114	-0.226
-642.697	-78.749	-0.160	-0.055
-641.682	800.000	-0.067	-0.221
-640.668	512.659	-0.212	-0.503
-639.653	-70.191	-0.172	-0.066
-638.638	-36.699	0.317	0.174
-637.624	-200.000	-0.273	-0.000
-636.609	-200.000	0.044	0.291
-635.595	140.360	-0.129	-0.173
-634.580	-200.000	0.032	0.154
-633.565	79.478	-0.125	-0.137
-632.551	159.734	-0.160	-0.227
-631.536	478.298	-0.203	-0.467
-630.522	-122.903	-0.303	0.050
-629.507	63.352	-0.137	0.140
-628.492	126.783	-0.106	0.137
-627.478	20.161	0.076	-0.062
-626.463	-69.630	0.190	0.074
-625.449	126.956	-0.131	-0.169
-624.434	546.525	0.099	-0.241
-623.419	800.000	-0.021	-0.087
-622.405	493.055	-0.100	-0.232
-621.390	-141.350	0.030	0.003
-620.376	-19.612	-0.093	-0.059
-619.361	800.000	-0.115	-0.350
-618.346	9.871	0.269	-0.208
-617.332	44.420	0.186	0.174
-616.317	800.000	-0.041	-0.156
-615.303	67.645	-0.150	-0.156
-614.288	800.000	-0.092	0.345
-613.273	543.307	-0.026	-0.063
-612.259	-112.266	-0.324	0.066
-611.244	-54.131	0.260	-0.120
-610.230	800.000	0.109	0.338
-609.215	-119.910	-0.229	0.040
-608.201	80.254	-0.182	0.199
-607.186	-2.339	-0.104	-0.074
-606.171	-108.382	0.135	0.030
-605.157	-200.000	0.031	0.238
-604.142	-53.840	0.161	-0.074
-603.128	-200.000	0.026	0.120
-602.113	-200.000	0.046	-0.409
-601.098	-8.056	0.240	-0.165
-600.084	-96.290	-0.378	0.102
-599.069	-200.000	-0.001	0.107
-598.055	95.121	-0.220	0.255
-597.040	800.000	-0.025	0.085
-596.025	-200.000	0.050	0.247
-595.011	-188.246	-0.061	-0.001
-593.996	-0.890	0.125	0.090
-592.982	-200.000	-0.036	0.233
-591.967	290.721	-0.195	0.361
-590.952	800.000	-0.068	0.277
-589.938	-200.000	-0.000	-0.151
-588.923	800.000	0.048	0.194
-587.909	32.223	0.175	-0.154
-586.894	-200.000	0.034	0.189
-585.879	800.000	0.063	-0.211
-584.865	-200.000	-0.009	-0.058
-583.850	17.887	-0.029	0.023
-582.836	151.117	-0.040	0.055
-581.821	-115.829	-0.233	0.044
-580.806	36.106	0.224	0.201
-579.792	800.000	-0.053	0.192
-578.777	800.000	-0.062	0.194
-577.763	-200.000	-0.006	-0.111
-576.748	307.714	-0.057	-0.109
-575.733	800.000	-0.132	-0.407
-574.719	-95.392	0.224	0.061
-573.704	72.068	0.199	0.210
-572.690	-50.548	0.196	0.094
-571.675	261.179	0.153	-0.268
-570.661	690.450	0.106	-0.281
-569.646	97.305	0.150	-0.175
-568.631	160.972	-0.041	0.059
-567.617	-136.891	-0.265	0.031
-566.602	-106.840	0.046	-0.010
-565.588	-65.856	0.470	0.191
-564.573	800.000	-0.071	-0.283
-563.558	-54.539	0.055	-0.025
-562.544	-133.030	-0.230	0.030
-561.529	148.402	-0.034	-0.047
-560.515	-116.346	-0.091	0.017
-559.500	174.191	-0.247	-0.362
-558.485	412.414	0.199	-0.429
-557.471	-200.000	0.012	0.110
-556.456	800.000	0.032	0.139
-555.442	80.002	0.195	-0.212
-554.427	-46.911	0.145	0.072
-553.412	-157.812	0.246	0.015
-552.398	11.578	-0.367	0.286
-551.383	-76.720	0.146	-0.052
-550.369	296.060	-0.016	-0.029
-549.354	-200.000	-0.068	-0.390
-548.339	-42.843	-0.207	-0.107
-547.325	794.860	0.064	0.178
-546.310	-103.099	0.104	0.025
-545.296	-27.622	-0.091	-0.054
-544.281	-125.862	0.196	0.030
-543.266	-180.259	0.105	0.002
-542.252	-101.448	-0.196	0.048
-541.237	-200.000	0.053	-0.268
-540.223	-95.103	-0.268	-0.073
-539.208	-70.589	0.197	0.076
-538.193	-17.209	-0.418	-0.267
-537.179	-84.206	0.203	0.065
-536.164	-180.249	0.309	-0.007
-535.150	-1.005	0.292	-0.209
-534.135	28.121	0.076	0.065
-533.121	-119.147	-0.300	0.053
-532.106	-41.610	0.109	0.057
-531.091	735.882	-0.014	-0.037
-530.077	800.000	-0.022	0.073
-529.062	-200.000	-0.038	0.196
-528.048	-164.061	-0.307	-0.014
-527.033	-200.000	-0.037	-0.223
-526.018	-110.448	0.115	-0.024
-525.004	-24.820	-0.199	-0.120
-523.989	-13.804	0.231	0.151
-522.975	-90.714	0.026	-0.008
-521.960	-200.000	-0.070	-0.325
-520.945	-200.000	-0.032	-0.211
-519.931	64.645	0.232	0.237
-518.916	-142.370	0.252	-0.025
-517.902	-200.000	0.000	-0.130
-516.887	-200.000	0.001	0.180
-515.872	-22.977	-0.240	-0.147
-514.858	-60.228	0.250	0.108
-513.843	-153.327	0.101	-0.007
-512.829	-191.494	0.087	-0.001
-511.814	800.000	0.095	-0.354
-510.799	191.858	-0.196	0.300
-509.785	-76.233	0.358	-0.128
-508.770	-11.689	0.050	-0.034
-507.756	-23.419	-0.250	0.152
-506.741	534.454	0.024	0.057
-505.726	-200.000	0.029	0.220
-504.712	-152.079	-0.324	0.024
-503.697	-200.000	-0.020	-0.299
-502.683	710.144	0.046	0.124
-501.668	330.389	-0.138	0.269
-500.653	31.713	-0.075	0.066
-499.639	-58.617	0.182	-0.080
-498.624	-6.713	-0.409	-0.282
-497.610	83.123	0.090	-0.099
-496.595	31.194	0.122	0.106
-495.581	-200.000	0.016	0.080
-494.566	568.186	0.134	0.330
-493.551	-133.651	-0.282	0.036
-492.537	209.214	-0.076	-0.121
-491.522	118.407	-0.123	0.154
-490.508	77.717	-0.216	-0.233
-489.493	-3.903	-0.102	-0.072
-488.478	-102.198	-0.136	-0.033
-487.464	-75.636	0.299	0.108
-486.449	-117.453	-0.139	-0.026
-485.435	-29.502	-0.242	0.140
-484.420	44.714	-0.215	0.200
-483.405	230.475	0.142	-0.235
-482.391	-45.935	0.263	-0.131
-481.376	269.917	0.158	-0.281
-480.362	-50.036	-0.262	0.126
-479.347	119.065	0.396	-0.496
-478.332	659.852	0.065	-0.169
-477.318	-50.382	0.194	0.093
-476.303	78.257	0.073	0.079
-475.289	220.980	0.114	-0.185
-474.274	-200.000	-0.023	-0.342
-473.259	649.821	-0.169	-0.437
-472.245	-177.613	-0.145	0.004
-471.230	-68.071	-0.240	-0.095
-470.216	-89.513	-0.193	0.057
-469.201	-98.384	-0.374	-0.097
-468.186	124.761	0.243	0.309
-467.172	31.961	-0.254	0.221
-466.157	44.159	-0.130	-0.120
-465.143	-200.000	0.034	-0.301
-464.128	132.558	0.062	-0.081
-463.113	-120.565	-0.146	-0.025
-462.099	-4.864	-0.176	-0.122
-461.084	-185.976	0.354	0.005
-460.070	29.947	0.183	-0.158
-459.055	800.000	-0.040	0.161
-458.040	29.437	-0.132	0.113
-457.026	-200.000	-0.078	0.352
-456.011	800.000	0.072	-0.256
-454.997	-22.737	-0.233	-0.142
-453.982	-200.000	0.016	0.109
-452.968	61.249	0.119	0.120
-451.953	800.000	0.093	-0.295
-450.938	155.158	0.141	-0.197
-449.924	-82.747	0.090	-0.029
-448.909	-64.658	-0.270	-0.111
-447.895	-134.249	-0.063	0.008
-446.880	3.940	0.240	-0.177
-445.865	27.948	-0.162	0.138
-444.851	-200.000	-0.091	0.423
-443.836	506.848	0.080	-0.187
-442.822	173.770	0.292	0.426
-441.807	8.342	-0.071	-0.054
-440.792	-200.000	-0.061	-0.446
-439.778	-35.281	0.107	0.059
-438.763	-200.000	-0.050	-0.281
-437.749	-146.491	0.152	0.013
-436.734	-50.555	-0.206	-0.098
-435.719	448.458	0.172	-0.384
-434.705	24.898	-0.214	-0.179
-433.690	153.489	-0.072	-0.099
-432.676	146.768	0.096	0.130
-431.661	279.893	0.155	0.279
-430.646	-200.000	-0.010	-0.306
-429.632	-74.431	-0.281	-0.102
-428.617	118.155	0.269	-0.335
-427.603	-50.170	-0.128	0.061
-426.588	207.494	0.072	0.113
-425.573	800.000	-0.064	0.234
-424.559	-80.836	-0.206	0.069
-423.544	35.109	-0.067	0.059
-422.530	-26.438	0.276	0.163
-421.515	399.150	0.049	0.103
-420.500	171.470	-0.085	0.123
-419.486	247.668	0.140	0.238
-418.471	369.057	-0.064	0.132
-417.457	103.028	-0.249	0.295
-416.442	-200.000	-0.054	0.260
-415.428	800.000	0.039	-0.154
-414.413	800.000	-0.056	0.217
-413.398	-56.268	-0.201	-0.090
-412.384	-200.000	0.041	0.515
-411.369	-97.982	-0.079	0.021
-410.355	-79.783	-0.314	-0.107
-409.340	234.554	0.139	-0.231
-408.325	-80.553	0.115	-0.039
-407.311	95.800	0.100	-0.115
-406.296	800.000	0.031	0.093
-405.282	2.019	-0.192	0.140
-404.267	181.139	0.217	0.322
-403.252	-95.370	-0.135	0.036
-402.238	-123.303	-0.370	0.060
-401.223	800.000	0.050	0.183
-400.209	-39.187	-0.143	-0.076
-399.194	31.377	-0.222	-0.192
-398.179	286.132	-0.055	0.100
-397.165	-200.000	0.024	-0.247
-396.150	478.122	0.045	0.103
-395.136	533.702	0.049	0.117
-394.121	-200.000	-0.009	-0.285
-393.106	-129.105	0.232	0.033
-392.092	-22.225	-0.182	-0.111
-391.077	-89.412	-0.232	0.069
-390.063	-74.505	0.217	0.079
-389.048	-120.016	0.195	0.034
-388.033	-95.222	0.297	0.081
-387.019	-15.587	-0.283	0.182
-386.004	-200.000	0.013	-0.124
-384.990	-17.756	-0.058	-0.037
-383.975	329.135	0.105	0.203
-382.960	-95.890	-0.259	0.070
-381.946	-152.388	-0.334	-0.024
-380.931	-101.738	0.236	0.058
-379.917	780.759	-0.101	-0.280
-378.902	77.884	-0.055	-0.059
-377.888	178.184	-0.160	-0.235
-376.873	-98.696	0.039	-0.010
-375.858	57.055	0.017	-0.017
-374.844	20.406	0.108	-0.088
-373.829	70.967	0.211	0.220
-372.815	-37.557	-0.179	-0.096
-371.800	-126.946	0.287	0.043
-370.785	-87.638	-0.236	0.072
-369.771	800.000	-0.031	-0.108
-368.756	-66.830	-0.215	-0.086
-367.742	47.192	0.163	0.153
-366.727	-82.833	-0.295	0.096
-365.712	206.225	-0.121	-0.190
-364.698	-27.919	-0.330	0.193
-363.683	-14.462	0.125	-0.081
-362.669	-147.293	-0.256	0.022
-361.654	-146.286	0.092	0.008
-360.639	664.403	-0.024	0.063
-359.625	-155.164	0.270	0.018
-358.610	107.830	-0.105	-0.125
-357.596	152.658	0.073	0.101
-356.581	139.943	-0.122	0.162
-355.566	121.962	0.046	0.058
-354.552	91.443	-0.040	-0.046
-353.537	-41.313	-0.110	-0.057
-352.523	-200.000	0.013	0.446
-351.508	800.000	-0.060	-0.201
-350.493	-142.528	0.035	-0.003
-349.479	-95.686	0.361	0.097
-348.464	-44.312	-0.113	-0.057
-347.450	-200.000	-0.028	-0.220
-346.435	57.766	-0.079	-0.078
-345.420	-135.043	0.308	-0.037
-344.406	-47.702	0.204	-0.100
-343.391	76.822	-0.041	-0.043
-342.377	-116.072	0.146	0.027
-341.362	-200.000	0.015	0.208
-340.348	-115.214	0.354	-0.067
-339.333	-200.000	0.013	-0.197
-338.318	-18.107	-0.203	0.128
-337.304	-119.404	0.062	-0.011
-336.289	-0.943	-0.263	0.188
-335.275	93.953	0.099	-0.113
-334.260	-45.316	0.183	-0.091
-333.245	-12.431	-0.095	-0.063
-332.231	223.426	0.224	-0.364
-331.216	-200.000	0.024	-0.366
-330.202	-29.172	0.053	-0.031
-329.187	29.058	-0.134	-0.114
-328.172	49.413	-0.111	0.105
-327.158	-70.744	-0.082	0.031
-326.143	-50.061	0.306	0.146
-325.129	-20.243	-0.016	-0.010
-324.114	-148.358	0.192	-0.016
-323.099	800.000	-0.021	0.089
-322.085	-91.234	-0.068	-0.020
-321.070	419.412	0.027	0.059
-320.056	-200.000	-0.006	0.036
-319.041	-200.000	-0.096	-0.000
-318.026	101.520	0.180	-0.211
-317.012	-200.000	0.014	-0.405
-315.997	-85.669	-0.251	-0.078
-314.983	188.673	0.210	-0.316
-313.968	-200.000	0.001	-0.214
-312.953	-102.717	-0.092	0.022
-311.939	-90.433	-0.084	-0.024
-310.924	-65.043	0.322	0.131
-309.910	-200.000	0.058	0.300
-308.895	225.428	-0.136	-0.222
-307.880	39.514	0.276	-0.248
-306.866	295.636	0.121	-0.223
-305.851	689.514	-0.059	-0.156
-304.837	-169.812	0.132	-0.005
-303.822	-13.585	0.183	-0.119
-302.807	117.785	0.125	0.154
-301.793	-158.675	0.285	-0.016
-300.778	800.000	0.071	0.228
-299.764	-200.000	-0.006	-0.138
-298.749	-20.508	-0.101	0.062
-297.735	-143.785	0.248	0.024
-296.720	-65.890	-0.039	0.016
-295.705	522.062	-0.036	0.084
-294.691	-200.000	-0.012	0.300
-293.676	300.322	0.148	-0.275
-292.662	-134.145	-0.544	-0.067
-291.647	-200.000	0.037	-0.186
-290.632	54.695	0.183	0.177
-289.618	475.835	0.029	-0.066
-288.603	800.000	-0.052	-0.216
-287.589	215.202	0.184	0.293
-286.574	-36.350	-0.164	-0.089
-285.559	800.000	-0.053	-0.195
-284.545	-168.253	-0.087	0.003
-283.530	-25.467	0.254	0.151
-282.516	376.760	-0.220	0.451
-281.501	-200.000	0.036	-0.239
-280.486	246.213	0.204	0.345
-279.472	-200.000	0.028	0.136
-278.457	106.429	-0.194	0.231
-277.443	-22.116	-0.279	-0.170
-276.428	-200.000	0.005	0.269
-275.413	47.276	-0.051	0.047
-274.399	4.754	-0.033	0.025
-273.384	132.718	0.085	0.110
-272.370	-61.810	0.111	-0.047
-271.355	-150.648	0.182	-0.014
-270.340	-131.702	0.274	0.036
-269.326	-110.266	-0.145	0.030
-268.311	800.000	0.112	0.383
-267.297	-62.235	-0.113	0.047
-266.282	119.858	0.145	-0.181
-265.267	86.606	0.173	0.191
-264.253	-41.695	0.264	0.136
-263.238	-200.000	0.052	0.256
-262.224	-145.539	-0.209	0.019
-261.209	-200.000	-0.021	-0.196
-260.195	-62.381	0.357	-0.149
-259.180	41.671	0.009	-0.008
-258.165	116.750	-0.172	0.212
-257.151	-185.803	0.149	0.002
-256.136	-100.289	0.079	-0.020
-255.122	-68.399	0.054	0.021
-254.107	-50.271	0.238	-0.113
-253.092	-200.000	0.024	-0.112
-252.078	-3.033	0.179	0.125
-251.063	43.754	0.140	-0.129
-250.049	522.454	0.175	-0.411
-249.034	-153.613	-0.341	-0.024
-248.019	502.319	0.135	-0.313
-247.005	-200.000	0.034	0.192
-245.990	800.000	0.022	0.092
-244.976	800.000	-0.067	-0.241
-243.961	-90.884	-0.200	0.058
-242.946	13.713	0.171	-0.133
-241.932	-8.773	0.109	-0.073
-240.917	800.000	-0.070	-0.287
-239.903	180.372	-0.072	0.106
-238.888	-7.569	0.170	0.115
-237.873	421.180	-0.034	0.074
-236.859	119.080	0.157	-0.195
-235.844	99.964	-0.181	0.210
-234.830	69.298	-0.233	0.241
-233.815	101.415	-0.133	0.155
-232.800	545.712	0.065	0.155
-231.786	-99.327	-0.364	0.092
-230.771	800.000	-0.060	0.205
-229.757	-1.016	0.221	-0.156
-228.742	-92.912	0.431	0.121
-227.727	106.765	-0.155	0.185
-226.713	-200.000	0.073	-0.361
-225.698	-76.121	-0.166	-0.059
-224.684	210.395	-0.111	-0.175
-223.669	54.439	0.261	0.252
-222.655	287.707	0.100	-0.180
-221.640	-17.067	0.258	0.163
-220.625	-49.432	-0.041	-0.019
-219.611	-77.022	-0.270	0.094
-218.596	409.587	-0.066	0.141
-217.582	800.000	0.074	-0.265
-216.567	49.586	0.145	0.137
-215.552	-30.538	0.212	0.120
-214.538	733.536	-0.088	0.236
-213.523	570.273	0.118	-0.288
-212.509	193.839	-0.311	0.472
-211.494	800.000	-0.019	0.059
-210.479	-99.633	-0.309	-0.078
-209.465	-184.070	-0.361	0.006
-208.450	-200.000	-0.079	0.530
-207.436	-27.793	-0.172	0.100
-206.421	72.297	0.139	-0.145
-205.406	98.670	0.083	0.096
-204.392	175.122	0.152	0.221
-203.377	-34.111	-0.082	0.045
-202.363	32.541	0.128	-0.111
-201.348	-200.000	0.008	0.080
-200.333	689.632	-0.058	0.153
-199.319	540.430	-0.075	0.178
-198.304	-3.753	-0.130	0.090
-197.290	-124.239	-0.346	0.054
-196.275	800.000	-0.030	0.087
-195.260	49.228	0.154	0.145
-194.246	24.154	0.226	-0.186
-193.231	312.054	-0.062	-0.116
-192.217	331.697	-0.164	0.317
-191.202	-200.000	0.006	0.096
-190.187	-200.000	0.009	-0.106
-189.173	-85.887	0.381	0.118
-188.158	-200.000	0.013	0.087
-187.144	800.000	-0.016	-0.068
-186.129	-80.502	0.424	0.141
-185.114	-75.677	-0.116	-0.041
-184.100	-200.000	-0.008	-0.202
-183.085	-22.857	-0.064	0.038
-182.071	72.605	-0.212	-0.221
-181.056	-49.685	0.122	0.058
-180.042	3.515	0.403	0.294
-179.027	95.529	-0.153	0.175
-178.012	-50.662	0.206	0.097
-176.998	-188.907	0.412	0.005
-175.983	262.543	-0.142	0.246
-174.969	800.000	0.058	0.198
-173.954	-70.448	0.038	-0.015
-172.939	454.301	0.136	0.300
-171.925	-200.000	-0.028	-0.377
-170.910	37.262	-0.163	0.145
-169.896	-33.635	0.101	-0.056
-168.881	-200.000	0.033	0.267
-167.866	-147.011	0.133	0.011
-166.852	800.000	-0.037	-0.133
-165.837	-94.176	0.098	0.027
-164.823	-200.000	-0.021	-0.347
-163.808	-39.299	-0.301	0.158
-162.793	-200.000	-0.011	0.392
-161.779	3.068	-0.416	0.302
-160.764	-200.000	-0.004	-0.033
-159.750	-59.134	0.028	0.012
-158.735	-18.845	0.089	-0.056
-157.720	-200.000	0.009	-0.124
-156.706	-200.000	0.010	0.128
-155.691	16.174	-0.162	0.127
-154.677	46.020	-0.115	-0.106
-153.662	-84.308	0.403	0.128
-152.647	-89.837	0.197	-0.058
-151.633	-14.993	0.076	-0.048
-150.618	-132.956	-0.226	-0.029
-149.604	-59.090	0.165	0.071
-148.589	64.636	-0.249	0.251
-147.574	-64.996	-0.229	-0.092
-146.560	-99.870	-0.275	-0.069
-145.545	-200.000	0.019	0.088
-144.531	295.580	-0.166	-0.304
-143.516	64.784	-0.053	-0.053
-142.502	613.122	-0.106	0.265
-141.487	-85.567	-0.324	-0.101
-140.472	285.986	-0.044	-0.079
-139.458	95.322	-0.219	0.249
-138.443	-1.499	-0.354	-0.249
-137.429	-50.030	0.157	0.074
-136.414	800.000	-0.022	-0.093
-135.399	-151.957	-0.108	0.008
-134.385	800.000	-0.104	0.297
-133.370	371.698	-0.065	0.132
-132.356	800.000	-0.141	0.423
-131.341	-149.859	0.340	-0.027
-130.326	-200.000	-0.015	0.267
-129.312	-65.578	-0.167	0.067
-128.297	-200.000	-0.021	0.123
-127.283	16.724	0.033	0.026
-126.268	19.510	0.234	-0.188
-125.253	-41.611	0.088	-0.045
-124.239	73.075	0.052	-0.054
-123.224	-135.250	-0.060	0.007
-122.210	294.825	0.149	0.272
-121.195	-200.000	0.291	-0.000
-120.180	-15.375	0.306	0.195
-119.166	800.000	-0.039	0.111
-118.151	-200.000	0.038	0.178
-117.137	-200.000	-0.034	-0.221
-116.122	-40.679	0.145	-0.075
-115.107	10.783	-0.146	-0.111
-114.093	800.000	0.078	0.322
-113.078	-200.000	0.018	0.200
-112.064	168.313	0.210	0.298
-111.049	-164.537	-0.101	0.005
-110.034	-89.087	-0.282	-0.083
-109.020	6.020	-0.092	-0.068
-108.005	-200.000	0.028	0.316
-106.991	46.194	0.357	-0.330
-105.976	60.999	-0.099	0.098
-104.962	-68.270	0.242	-0.094
-103.947	-64.653	0.067	0.027
-102.932	220.232	0.158	-0.252
-101.918	-200.000	0.036	-0.168
-100.903	-115.534	-0.141	-0.026
-99.889	-200.000	0.038	0.259
-98.874	-160.605	0.131	0.007
-97.859	-62.844	-0.168	-0.069
-96.845	2.476	-0.234	-0.169
-95.830	106.013	0.174	0.206
-94.816	65.023	-0.148	-0.149
-93.801	800.000	0.050	0.216
-92.786	800.000	0.097	0.326
-91.772	-200.000	0.006	0.081
-90.757	800.000	0.092	0.330
-89.743	118.352	-0.049	0.060
-88.728	214.953	-0.064	0.102
-87.713	19.467	0.205	-0.164
-86.699	260.944	-0.080	0.138
-85.684	-103.763	-0.369	0.086
-84.670	-125.763	-0.122	-0.018
-83.655	-200.000	-0.023	-0.244
-82.640	-57.480	0.029	0.013
-81.626	8.147	0.171	-0.128
-80.611	50.719	-0.128	-0.121
-79.597	17.585	-0.180	0.143
-78.582	-166.821	-0.307	-0.013
-77.567	211.249	-0.173	0.271
-76.553	88.983	0.203	-0.225
-75.538	32.347	0.093	0.080
-74.524	-96.352	0.080	-0.021
-73.509	408.449	-0.037	0.077
-72.494	-90.566	0.194	-0.056
-71.480	639.432	0.106	-0.268
-70.465	170.417	-0.162	0.230
-69.451	463.441	0.173	0.384
-68.436	25.404	0.042	0.035
-67.422	-200.000	-0.032	-0.188
-66.407	-200.000	0.048	0.405
-65.392	-110.332	-0.361	-0.075
-64.378	378.339	-0.067	0.136
-63.363	69.182	0.078	0.080
-62.349	612.710	0.094	0.233
-61.334	29.621	-0.894	-0.757
-60.319	0.682	0.095	0.068
-59.305	-200.000	-0.152	-0.836
-58.290	8.525	0.618	0.463
-57.276	800.000	0.489	1.596
-56.261	-200.000	81.305	495.068
-55.246	471.505	1375.173	3079.321
-54.232	144.073	2602.505	3454.237
-53.217	110.169	2261.268	2701.530
-52.203	47.893	1788.105	1661.787
-51.188	41.383	1594.074	1434.761
-50.173	38.933	1566.466	1392.507
-49.159	54.628	1607.171	1541.650
-48.144	58.906	1627.433	1591.767
-47.130	41.938	1588.886	1433.848
-46.115	38.580	1574.355	1396.779
-45.100	38.404	1571.064	1392.552
-44.086	38.447	1568.690	1390.697
-43.071	38.285	1567.001	1387.997
-42.057	38.318	1565.143	1386.527
-41.042	38.394	1563.990	1385.988
-40.027	38.269	1562.520	1383.745
-39.013	38.326	1560.212	1382.053
-37.998	38.414	1558.418	1381.030
-36.984	38.277	1557.812	1379.468
-35.969	38.307	1556.438	1378.410
-34.954	38.411	1555.076	1377.879
-33.940	38.381	1553.416	1376.148
-32.925	38.305	1552.481	1374.730
-31.911	38.275	1551.217	1373.345
-30.896	38.313	1549.628	1372.151
-29.881	38.484	1547.800	1371.673
-28.867	38.439	1546.524	1370.172
-27.852	38.383	1545.534	1368.847
-26.838	38.431	1543.333	1367.182
-25.823	38.371	1541.951	1365.481
-24.809	38.336	1540.662	1364.047
-23.794	38.394	1539.036	1362.955
-22.779	38.425	1537.570	1361.821
-21.765	38.269	1537.340	1360.476
-20.750	38.403	1535.578	1359.795
-19.736	38.338	1534.492	1358.326
-18.721	38.321	1533.117	1356.935
-17.706	38.337	1532.364	1356.329
-16.692	38.290	1531.159	1354.879
-15.677	38.372	1529.928	1354.305
-14.663	38.328	1528.643	1352.811
-13.648	38.291	1527.870	1351.820
-12.633	38.323	1526.471	1350.748
-11.619	38.250	1526.035	1349.801
-10.604	38.285	1525.106	1349.167
-9.590	38.273	1523.673	1347.768
-8.575	38.258	1522.836	1346.867
-7.560	38.267	1522.192	1346.308
-6.546	38.255	1521.421	1345.488
-5.531	38.264	1520.254	1344.465
-4.517	38.278	1519.203	1343.575
-3.502	38.215	1518.440	1342.417
-2.487	38.227	1517.139	1341.297
-1.473	38.186	1516.386	1340.296
-0.458	38.384	1514.095	1339.575
0.556	38.562	1505.551	1330.382
1.571	36.096	1479.491	1290.747
2.586	32.718	1416.785	1214.223
3.600	30.958	1332.213	1130.975
4.615	29.051	1283.260	1078.159
5.629	24.022	1223.000	999.284
6.644	12.359	1128.924	861.516
7.659	3.499	1082.312	781.161
8.673	2.292	1075.856	770.355
9.688	2.073	1072.683	766.911
10.702	1.738	1071.499	764.315
11.717	1.689	1069.724	762.740
12.731	5.112	1073.943	782.875
13.746	15.952	1089.452	849.021
14.761	23.989	1100.147	898.022
15.775	25.352	1100.944	905.471
16.790	25.411	1100.344	905.193
17.804	25.237	1099.610	903.632
18.819	25.047	1098.845	901.967
19.834	25.228	1097.687	901.848
20.848	25.331	1097.329	901.992
21.863	25.311	1097.237	901.734
22.877	25.302	1097.021	901.433
23.892	25.236	1096.217	900.361
24.907	25.126	1095.378	899.041
25.921	25.272	1094.382	898.874
26.936	25.214	1093.730	897.969
27.950	25.165	1092.680	896.785
28.965	25.234	1091.020	895.688
29.980	25.140	1089.759	894.104
30.994	25.090	1088.331	892.602
32.009	25.357	1087.753	893.381
33.023	25.366	1087.564	893.190
34.038	25.203	1085.954	890.980
35.053	25.125	1085.372	890.033
36.067	25.260	1084.598	889.990
37.082	25.212	1083.971	889.161
38.096	25.296	1083.208	888.874
39.111	25.414	1082.854	889.086
40.126	25.547	1081.927	888.902
41.140	25.462	1080.679	887.379
42.155	25.152	1079.190	884.551
43.169	24.841	1077.733	881.748
44.184	24.850	1076.478	880.685
45.199	24.840	1075.871	880.064
46.213	24.746	1075.281	879.038
47.228	24.800	1074.025	878.201
48.242	24.986	1073.308	878.450
49.257	25.120	1072.574	878.424
50.271	25.292	1071.736	878.506
51.286	25.323	1071.157	878.102
52.301	25.367	1070.679	877.849
53.315	25.266	1070.351	877.008
54.330	25.250	1068.992	875.737
55.344	25.223	1068.295	874.960
56.359	25.206	1067.569	874.204
57.374	25.180	1066.822	873.388
58.388	25.002	1065.958	871.740
59.403	24.911	1065.078	870.498
60.417	25.101	1063.945	870.418
61.432	24.784	1063.607	868.528
62.447	24.851	1062.898	868.195
63.461	24.988	1062.219	868.230
64.476	25.007	1061.681	867.803
65.490	24.876	1060.621	866.227
66.505	24.868	1059.462	865.164
67.520	24.882	1058.461	864.337
68.534	24.968	1058.029	864.325
69.549	24.890	1056.919	862.965
70.563	24.517	1055.575	859.996
71.578	24.412	1055.028	858.970
72.593	24.452	1054.422	858.593
73.607	24.370	1052.934	856.907
74.622	24.393	1051.696	855.937
75.636	24.664	1051.444	856.956
76.651	24.760	1050.761	856.780
77.666	24.668	1049.711	855.411
78.680	24.682	1048.660	854.547
79.695	24.610	1048.241	853.784
80.709	24.685	1048.071	853.926
81.724	24.818	1046.978	853.599
82.739	24.871	1045.790	852.804
83.753	24.926	1044.853	852.229
84.768	25.201	1044.220	852.946
85.782	25.390	1044.370	853.888
86.797	25.536	1043.581	853.861
87.812	25.567	1042.667	853.188
88.826	25.429	1041.570	851.559
89.841	25.387	1040.543	850.447
90.855	25.364	1040.195	849.974
91.870	25.524	1039.332	849.954
92.884	25.531	1038.250	849.027
93.899	25.309	1037.300	847.125
94.914	25.283	1036.284	846.099
95.928	25.372	1035.663	845.935
96.943	25.446	1034.936	845.615
97.957	25.091	1033.725	842.880
98.972	25.023	1032.011	841.089
99.987	24.798	1031.279	839.363
101.001	24.800	1030.858	838.958
102.016	25.109	1030.060	839.680
103.030	25.280	1029.768	840.171
104.045	25.185	1028.234	838.399
105.060	25.073	1027.043	836.832
106.074	24.772	1026.238	834.696
107.089	24.862	1025.405	834.364
108.103	25.172	1025.126	835.508
109.118	25.378	1024.017	835.489
110.133	24.932	1022.988	832.502
111.147	24.882	1021.835	831.259
112.162	24.787	1020.897	829.983
113.176	24.539	1019.771	827.842
114.191	24.741	1018.862	827.968
115.206	24.941	1018.411	828.454
116.220	24.441	1017.453	825.290
117.235	24.304	1016.263	823.616
118.249	24.513	1015.757	824.101
119.264	24.591	1014.833	823.638
120.279	24.597	1013.956	822.878
121.293	24.448	1012.840	821.218
122.308	24.457	1012.557	820.955
123.322	24.631	1011.719	821.002
124.337	24.590	1010.389	819.664
125.352	24.359	1009.035	817.435
126.366	24.201	1007.097	815.069
127.381	23.696	1006.581	812.267
128.395	24.252	1005.931	814.213
129.410	24.896	1005.682	816.880
130.424	25.073	1005.272	817.279
131.439	25.020	1003.936	815.883
132.454	25.066	1002.997	815.257
133.468	25.161	1002.014	814.815
134.483	24.983	1000.949	813.068
135.497	25.187	1000.264	813.366
136.512	25.235	1000.302	813.544
137.527	25.299	999.439	813.058
138.541	25.328	998.438	812.303
139.556	25.398	997.639	811.899
140.570	25.355	997.072	811.170
141.585	25.393	995.908	810.323
142.600	25.543	994.979	810.172
143.614	25.486	994.096	809.124
144.629	25.444	993.373	808.277
145.643	25.665	993.060	808.944
146.658	25.560	992.194	807.694
147.673	25.473	990.607	805.942
148.687	25.298	989.515	804.197
149.702	25.263	988.433	803.089
150.716	24.962	987.636	801.025
151.731	24.961	986.658	800.155
152.746	25.106	985.688	799.945
153.760	25.317	985.270	800.480
154.775	25.373	984.556	800.074
155.789	25.538	983.579	799.946
156.804	25.444	982.769	798.801
157.819	25.412	981.700	797.719
158.833	25.351	981.233	796.998
159.848	25.492	980.138	796.663
160.862	25.603	979.149	796.277
161.877	25.494	978.276	795.015
162.892	25.405	977.341	793.793
163.906	25.535	976.441	793.566
164.921	25.549	975.196	792.545
165.935	25.451	974.529	791.502
166.950	25.384	974.114	790.801
167.964	25.453	972.911	790.058
168.979	25.495	971.616	789.118
169.994	25.312	970.545	787.378
171.008	25.234	969.556	786.164
172.023	25.465	968.731	786.435
173.037	25.554	968.385	786.473
174.052	25.385	967.371	784.841
175.067	25.149	966.339	782.906
176.081	25.209	965.002	782.013
177.096	25.268	964.449	781.753
178.110	25.293	963.805	781.273
179.125	25.136	962.621	779.561
180.140	24.839	961.570	777.351
181.154	24.926	960.785	777.025
182.169	25.012	960.585	777.169
183.183	25.069	960.027	776.893
184.198	25.460	959.598	778.172
185.213	25.395	959.071	777.397
186.227	25.333	957.990	776.183
187.242	25.265	957.741	775.617
188.256	25.564	957.192	776.395
189.271	25.563	956.232	775.543
190.286	25.516	955.568	774.734
191.300	25.493	954.522	773.719
192.315	24.795	953.194	769.570
193.329	24.056	951.052	764.602
194.344	23.761	950.318	762.678
195.359	24.312	950.928	765.465
196.373	25.230	951.048	769.433
197.388	25.435	950.603	769.883
198.402	25.216	950.523	768.812
199.417	25.194	949.833	768.091
200.432	25.277	949.177	767.851
201.446	25.120	948.802	766.806
202.461	24.908	947.648	764.901
203.475	25.112	947.300	765.421
204.490	24.579	945.605	761.712
205.504	23.513	942.905	754.937
206.519	23.850	943.373	756.677
207.534	24.804	943.560	760.820
208.548	24.961	943.128	761.071
209.563	25.200	943.098	761.995
210.577	25.188	942.312	761.243
211.592	24.952	941.265	759.329
212.607	25.332	941.356	760.948
213.621	25.523	940.752	761.199
214.636	25.501	939.986	760.419
215.650	25.351	939.575	759.386
216.665	25.378	939.087	759.039
217.680	25.377	938.840	758.768
218.694	25.694	937.731	759.141
219.709	25.177	937.083	756.370
220.723	24.956	935.982	754.481
221.738	25.146	935.412	754.756
222.753	25.254	935.198	754.971
223.767	25.142	934.425	753.812
224.782	25.369	933.824	754.212
225.796	25.418	933.143	753.799
226.811	25.590	932.710	754.106
227.826	25.244	931.003	751.210
228.840	24.499	929.264	746.629
229.855	24.340	928.906	745.609
230.869	24.665	928.707	746.741
231.884	24.292	927.725	744.328
232.899	24.178	927.388	743.515
233.913	25.191	927.548	747.804
234.928	25.174	927.183	747.372
235.942	25.138	926.345	746.483
236.957	25.173	925.962	746.252
237.972	24.988	924.430	744.185
238.986	24.784	923.749	742.724
240.001	24.995	923.198	743.088
241.015	24.869	922.731	742.125
242.030	24.932	922.164	741.862
243.045	25.089	922.040	742.349
244.059	25.224	921.383	742.313
245.074	25.337	921.323	742.665
246.088	25.396	919.680	741.521
247.103	25.064	919.195	739.692
248.117	25.069	918.285	738.915
249.132	25.468	918.712	740.838
250.147	25.939	918.736	742.736
251.161	26.123	917.783	742.656
252.176	26.219	917.378	742.657
253.190	26.198	916.325	741.651
254.205	26.335	915.921	741.820
255.220	26.307	915.981	741.688
256.234	26.402	914.881	741.122
257.249	26.375	913.995	740.230
258.263	26.220	913.491	739.120
259.278	26.131	913.206	738.462
260.293	26.221	912.576	738.255
261.307	26.221	912.448	738.086
262.322	26.188	911.576	737.181
263.336	26.149	910.678	736.230
264.351	25.678	909.338	733.161
265.366	24.456	907.576	726.706
266.380	24.172	906.132	724.332
267.395	25.040	906.821	728.347
268.409	25.674	907.048	731.042
269.424	25.645	906.333	730.282
270.439	25.964	905.195	730.594
271.453	26.108	904.970	730.930
272.468	26.097	904.436	730.390
273.482	26.209	903.784	730.253
274.497	26.300	903.643	730.443
275.512	26.077	902.587	728.624
276.526	25.473	901.257	725.050
277.541	25.722	900.589	725.453
278.555	25.957	900.664	726.394
279.570	25.797	900.055	725.193
280.585	25.610	899.241	723.724
281.599	25.734	899.282	724.191
282.614	25.862	898.772	724.229
283.628	25.374	897.322	721.037
284.643	25.116	896.278	719.101
285.657	25.564	895.768	720.425
286.672	25.337	895.855	719.520
287.687	24.854	894.807	716.682
288.701	25.245	894.105	717.621
289.716	25.648	894.415	719.419
290.730	25.320	893.174	717.045
291.745	25.219	892.513	716.046
292.760	25.164	891.068	714.605
293.774	24.916	890.940	713.453
294.789	25.887	891.362	717.594
295.803	26.441	891.781	720.076
296.818	26.549	891.022	719.829
297.833	26.616	890.403	719.532
298.847	26.211	889.573	717.187
299.862	25.961	888.461	715.236
300.876	26.087	888.209	715.470
301.891	26.370	887.873	716.256
302.906	26.484	887.141	716.055
303.920	26.376	885.419	714.175
304.935	25.983	885.157	712.348
305.949	26.434	885.109	714.029
306.964	26.498	884.713	713.899
307.979	26.313	883.810	712.375
308.993	26.259	883.242	711.644
310.008	26.531	883.110	712.546
311.022	26.590	882.902	712.545
312.037	26.455	882.393	711.540
313.052	26.233	881.401	709.804
314.066	26.185	880.381	708.732
315.081	25.328	879.632	704.707
316.095	24.713	877.971	700.902
317.110	25.298	878.069	703.212
318.125	26.171	878.203	706.677
319.139	25.752	877.016	704.019
320.154	24.507	875.339	697.747
321.168	24.097	874.352	695.302
322.183	24.809	874.222	697.913
323.197	25.660	874.965	701.765
324.212	25.888	875.014	702.631
325.227	26.115	874.779	703.266
326.241	26.367	873.881	703.463
327.256	26.086	873.466	701.974
328.270	26.064	873.055	701.496
329.285	25.946	872.337	700.399
330.300	25.869	870.822	698.819
331.314	25.650	870.209	697.418
332.329	25.613	870.244	697.242
333.343	26.187	869.670	698.943
334.358	26.469	869.200	699.592
335.373	26.285	868.991	698.652
336.387	26.389	868.386	698.507
337.402	26.658	867.867	699.066
338.416	26.836	867.689	699.546
339.431	26.811	867.058	698.879
340.446	26.859	866.749	698.754
341.460	26.968	866.254	698.712
342.475	26.971	865.612	698.145
343.489	26.690	864.834	696.375
344.504	26.863	863.845	696.179
345.519	27.102	863.612	696.847
346.533	27.272	863.419	697.281
347.548	27.241	863.027	696.787
348.562	27.296	862.413	696.438
349.577	27.211	861.915	695.648
350.592	27.305	860.870	695.102
351.606	27.015	860.966	694.011
352.621	27.070	860.411	693.713
353.635	27.163	859.245	693.064
354.650	26.992	859.101	692.234
355.665	26.684	858.042	690.150
356.679	25.724	856.473	685.173
357.694	25.313	856.202	683.332
358.708	26.052	856.273	686.141
359.723	26.086	855.674	685.729
360.738	26.182	855.242	685.686
361.752	26.788	854.984	687.716
362.767	26.673	854.795	687.068
363.781	27.024	854.722	688.281
364.796	27.480	854.238	689.558
365.810	27.522	853.796	689.298
366.825	27.544	853.537	689.109
367.840	27.572	853.265	688.936
368.854	27.493	852.452	687.922
369.869	27.032	851.608	685.438
370.883	26.939	850.824	684.394
371.898	26.864	850.407	683.718
372.913	26.958	849.466	683.256
373.927	26.909	849.058	682.680
374.942	27.029	848.523	682.642
375.956	27.152	847.933	682.569
376.971	27.291	847.409	682.607
377.986	27.140	846.864	681.544
379.000	27.588	846.190	682.618
380.015	27.550	846.020	682.277
381.029	27.402	845.355	681.128
382.044	27.152	844.613	679.538
383.059	27.263	844.513	679.809
384.073	27.552	843.758	680.222
385.088	27.469	842.907	679.165
386.102	27.417	842.394	678.499
387.117	27.354	841.604	677.565
388.132	27.091	841.414	676.373
389.146	26.911	840.731	675.095
390.161	26.338	839.634	672.025
391.175	26.453	839.381	672.192
392.190	27.070	839.322	674.378
393.205	27.114	839.121	674.319
394.219	26.133	836.667	668.655
395.234	24.560	834.710	661.215
396.248	23.611	833.826	656.945
397.263	24.635	834.431	661.153
398.278	26.600	835.771	669.428
399.292	27.154	835.622	671.299
400.307	26.700	835.027	669.083
401.321	26.796	834.429	668.900
402.336	26.942	834.213	669.207
403.350	27.123	834.167	669.776
404.365	27.485	833.965	670.890
405.380	27.805	833.842	671.911
406.394	28.041	833.683	672.591
407.409	28.281	833.269	673.079
408.423	28.171	832.755	672.199
409.438	28.091	832.237	671.431
410.453	28.139	831.912	671.285
411.467	28.463	831.030	671.701
412.482	28.092	831.287	670.489
413.496	28.038	829.835	669.058
414.511	28.138	830.068	669.554
415.526	28.391	829.264	669.773
416.540	28.236	828.970	668.908
417.555	28.071	828.688	668.018
418.569	27.906	827.499	666.398
419.584	27.814	827.025	665.623
420.599	27.851	826.665	665.409
421.613	99.169	1274.084	1406.248
422.628	85.769	1339.297	1406.348
