DTS Sentinel unit serial number:	SN413079Multiplexer serial number:	ORYXHardware model number:	OX4-SRSoftware version number:	ORYX F/W v4.00 Oryx Data Collector v3.7.2.0data status	okinstallation	princeton_trtdifferential loss correction	single-endedforward channel	channel 3reverse channel	N/Adate	2019/09/12time	08:50:10forward acquisition time	60.00reverse acquisition time	0.00gamma	496.2192k internal	0.2309k external	0.2309temperature offset calibration	1.0029default loss term (dB/km)	0.3790temperature slope calibration	1.0000multiplexer offset coefficient	1.0000multiplexer slope coefficient	1.0000fibre end	0.00T internal ref (°C)	34.00T ext. ref 1 (°C)	1.73T ext. ref 2 (°C)	30.75length (m)	temperature (°C)	Stokes	anti-Stokes-747.200	250.474	0.099	-0.171
-746.185	-79.460	-0.247	-0.085
-745.171	800.000	-0.017	0.055
-744.156	341.493	0.187	0.371
-743.142	-12.597	-0.225	-0.149
-742.127	227.232	-0.193	0.318
-741.112	257.978	0.145	0.254
-740.098	800.000	0.062	0.228
-739.083	182.006	-0.128	0.192
-738.069	470.635	-0.099	0.227
-737.054	86.813	0.118	-0.132
-736.039	800.000	-0.021	-0.078
-735.025	222.691	0.278	0.455
-734.010	-200.000	0.000	-0.129
-732.996	-151.626	-0.353	-0.026
-731.981	800.000	0.056	0.241
-730.966	-77.739	-0.125	0.044
-729.952	800.000	-0.032	-0.120
-728.937	-200.000	0.033	-0.194
-727.923	70.037	-0.199	-0.208
-726.908	-47.220	-0.107	0.053
-725.894	87.522	-0.214	0.240
-724.879	24.034	-0.170	0.142
-723.864	115.704	-0.138	-0.171
-722.850	-104.105	-0.219	-0.052
-721.835	-200.000	0.080	-0.478
-720.821	-200.000	0.016	-0.075
-719.806	219.040	0.135	-0.220
-718.791	-14.832	-0.180	0.117
-717.777	28.341	0.116	-0.099
-716.762	-152.867	-0.166	0.012
-715.748	279.448	0.082	-0.149
-714.733	228.970	-0.151	0.250
-713.718	-1.693	0.140	0.100
-712.704	-67.665	-0.111	-0.044
-711.689	-200.000	-0.009	0.144
-710.675	-90.253	-0.260	-0.077
-709.660	210.882	-0.213	-0.339
-708.645	-200.000	0.006	-0.063
-707.631	800.000	-0.101	0.319
-706.616	-106.343	-0.123	0.028
-705.602	-65.635	-0.298	0.121
-704.587	216.422	0.125	-0.201
-703.572	-18.834	0.181	0.115
-702.558	800.000	-0.050	-0.202
-701.543	67.013	0.143	0.148
-700.529	-17.745	0.094	-0.060
-699.514	95.966	0.149	0.173
-698.499	-23.099	-0.269	-0.165
-697.485	4.497	-0.250	0.186
-696.470	-98.772	-0.235	0.061
-695.456	800.000	0.052	0.154
-694.441	85.462	-0.102	0.113
-693.426	800.000	0.104	0.389
-692.412	-113.940	-0.454	-0.089
-691.397	46.042	0.172	-0.161
-690.383	-26.998	0.150	-0.089
-689.368	272.829	0.051	-0.092
-688.354	800.000	-0.033	0.143
-687.339	-200.000	0.025	0.128
-686.324	61.175	0.206	0.207
-685.310	644.429	-0.096	-0.249
-684.295	57.439	-0.193	-0.191
-683.281	50.921	0.083	-0.080
-682.266	-3.446	0.202	0.143
-681.251	43.502	0.038	0.035
-680.237	191.137	-0.134	-0.205
-679.222	-200.000	-0.043	-0.354
-678.208	205.047	-0.178	-0.280
-677.193	25.313	0.335	0.282
-676.178	-138.168	-0.073	-0.008
-675.164	17.708	0.291	-0.234
-674.149	-112.019	0.096	-0.019
-673.135	-180.889	0.020	0.000
-672.120	-200.000	-0.002	0.165
-671.105	-13.492	-0.156	-0.102
-670.091	800.000	-0.064	0.187
-669.076	-46.001	-0.223	-0.111
-668.062	488.236	0.092	-0.214
-667.047	118.769	-0.248	-0.310
-666.032	51.148	-0.099	-0.095
-665.018	-50.893	-0.372	0.177
-664.003	-200.000	0.037	0.420
-662.989	30.866	-0.186	0.162
-661.974	-56.700	0.086	0.039
-660.959	-200.000	0.002	-0.151
-659.945	-183.289	-0.155	-0.003
-658.930	339.689	0.113	-0.224
-657.916	-166.483	-0.247	0.010
-656.901	121.073	0.218	0.275
-655.886	800.000	0.025	-0.093
-654.872	-200.000	0.001	-0.359
-653.857	800.000	-0.124	-0.362
-652.843	137.836	0.070	-0.093
-651.828	67.884	0.018	0.018
-650.814	128.088	0.122	0.157
-649.799	608.939	0.043	0.110
-648.784	94.253	0.114	0.131
-647.770	-200.000	0.075	0.438
-646.755	741.930	-0.120	-0.326
-645.741	-71.333	-0.293	-0.111
-644.726	-142.543	-0.188	0.019
-643.711	800.000	-0.123	-0.356
-642.697	167.861	-0.018	-0.026
-641.682	353.027	-0.107	0.215
-640.668	553.171	0.160	0.389
-639.653	739.289	-0.038	-0.104
-638.638	800.000	-0.157	-0.508
-637.624	45.518	0.058	-0.054
-636.609	-94.261	0.253	-0.070
-635.595	-200.000	-0.050	-0.372
-634.580	65.718	0.067	0.068
-633.565	-75.060	0.182	0.066
-632.551	-93.216	-0.164	-0.046
-631.536	84.317	0.153	0.169
-630.522	-200.000	-0.026	0.246
-629.507	-40.605	0.014	0.007
-628.492	42.892	0.228	-0.210
-627.478	667.160	0.213	-0.556
-626.463	448.867	-0.111	-0.247
-625.449	68.530	0.238	-0.247
-624.434	800.000	-0.105	0.345
-623.419	-126.257	-0.371	0.056
-622.405	-57.560	-0.117	0.052
-621.390	-200.000	0.006	-0.104
-620.376	211.072	-0.063	0.100
-619.361	67.467	-0.315	0.325
-618.346	-36.723	-0.165	0.090
-617.332	6.512	0.267	-0.201
-616.317	-48.938	-0.132	0.064
-615.303	-97.577	-0.157	0.041
-614.288	-157.343	0.201	0.012
-613.273	-91.581	0.141	0.041
-612.259	44.667	0.113	0.105
-611.244	-80.056	-0.315	0.107
-610.230	80.372	0.177	-0.192
-609.215	6.686	0.112	0.084
-608.201	-200.000	0.067	-0.354
-607.186	650.012	0.155	-0.401
-606.171	234.285	0.058	-0.096
-605.157	669.512	-0.138	-0.361
-604.142	-76.578	-0.224	0.080
-603.128	800.000	0.033	-0.106
-602.113	-200.000	0.002	0.151
-601.098	350.573	-0.057	0.114
-600.084	105.121	-0.146	0.174
-599.069	-3.863	0.253	-0.178
-598.055	-164.095	0.123	0.006
-597.040	-144.699	-0.256	-0.024
-596.025	-200.000	-0.005	-0.101
-595.011	-136.920	0.305	0.035
-593.996	129.280	0.108	-0.140
-592.982	-3.660	-0.092	0.064
-591.967	424.123	-0.081	0.176
-590.952	29.377	-0.316	0.271
-589.938	-108.487	-0.389	-0.085
-588.923	-127.804	0.181	0.026
-587.909	-96.333	-0.183	0.049
-586.894	173.061	-0.176	-0.256
-585.879	38.649	0.296	0.266
-584.865	-79.361	0.148	-0.051
-583.850	241.625	-0.024	0.041
-582.836	-117.169	-0.215	-0.040
-581.821	118.536	-0.091	-0.113
-580.806	133.431	-0.095	-0.124
-579.792	119.090	-0.065	0.082
-578.777	112.059	0.244	0.298
-577.763	-82.717	0.071	-0.023
-576.748	-5.486	0.196	0.136
-575.733	-41.759	0.311	-0.161
-574.719	272.047	-0.078	0.139
-573.704	-145.400	0.172	0.016
-572.690	140.723	-0.227	-0.303
-571.675	113.157	-0.141	0.173
-570.661	800.000	0.064	0.234
-569.646	800.000	0.059	-0.208
-568.631	-141.877	0.061	-0.006
-567.617	11.473	0.244	0.189
-566.602	-96.489	0.110	-0.029
-565.588	176.320	-0.103	0.150
-564.573	-82.756	0.499	0.163
-563.558	-167.421	-0.104	-0.004
-562.544	-24.128	-0.064	0.038
-561.529	191.568	0.038	-0.058
-560.515	-8.082	-0.277	-0.188
-559.500	18.938	-0.068	-0.055
-558.485	800.000	0.054	-0.181
-557.471	52.608	0.157	0.151
-556.456	-200.000	-0.009	0.096
-555.442	-200.000	0.015	0.080
-554.427	-92.051	0.194	-0.055
-553.412	800.000	-0.061	0.216
-552.398	517.465	-0.111	-0.263
-551.383	-130.646	0.065	0.009
-550.369	-200.000	-0.048	-0.404
-549.354	59.795	0.221	-0.220
-548.339	-200.000	0.014	-0.226
-547.325	-89.412	0.250	0.074
-546.310	-200.000	-0.001	-0.206
-545.296	-200.000	-0.049	0.359
-544.281	226.269	0.202	0.330
-543.266	-109.989	-0.251	0.053
-542.252	-63.943	-0.148	-0.061
-541.237	800.000	0.016	-0.063
-540.223	291.270	-0.078	-0.143
-539.208	800.000	0.068	0.259
-538.193	-33.941	-0.152	0.084
-537.179	626.552	0.121	-0.308
-536.164	-67.390	0.130	0.051
-535.150	422.747	-0.095	-0.205
-534.135	800.000	-0.072	0.275
-533.121	-111.380	0.244	0.050
-532.106	318.588	0.104	0.198
-531.091	-200.000	-0.026	0.128
-530.077	480.696	-0.050	-0.114
-529.062	26.798	-0.150	-0.127
-528.048	140.890	-0.184	-0.245
-527.033	800.000	0.109	-0.335
-526.018	279.617	-0.184	-0.331
-525.004	-86.276	-0.105	0.033
-523.989	-134.325	-0.196	-0.024
-522.975	38.367	-0.155	-0.139
-521.960	3.554	0.280	0.206
-520.945	-2.551	-0.252	-0.178
-519.931	800.000	-0.036	0.106
-518.916	-55.521	0.406	0.183
-517.902	182.293	0.139	-0.206
-516.887	-154.851	-0.254	0.017
-515.872	-150.872	0.194	0.015
-514.858	55.690	0.207	-0.202
-513.843	-200.000	0.002	-0.135
-512.829	-200.000	-0.048	-0.238
-511.814	-32.093	-0.383	0.216
-510.799	-200.000	-0.062	-0.383
-509.785	531.997	-0.133	-0.318
-508.770	-128.240	-0.523	0.075
-507.756	800.000	0.155	0.441
-506.741	800.000	0.093	0.311
-505.726	800.000	-0.104	-0.348
-504.712	32.467	-0.245	0.213
-503.697	-115.745	0.192	0.036
-502.683	-200.000	-0.007	0.033
-501.668	-200.000	0.018	0.099
-500.653	-98.007	-0.192	0.050
-499.639	800.000	-0.066	-0.201
-498.624	17.638	-0.139	0.111
-497.610	-13.345	0.282	0.184
-496.595	-7.339	-0.229	-0.156
-495.581	-12.810	-0.043	0.028
-494.566	-200.000	0.010	-0.263
-493.551	-83.851	-0.185	0.059
-492.537	58.396	0.166	0.164
-491.522	-87.366	0.353	-0.108
-490.508	201.589	0.142	0.220
-489.493	-107.471	-0.179	0.040
-488.478	800.000	-0.056	-0.171
-487.464	100.717	-0.139	-0.162
-486.449	800.000	-0.122	-0.360
-485.435	202.507	-0.110	0.171
-484.420	-72.244	-0.283	-0.105
-483.405	-129.606	0.240	0.033
-482.391	800.000	0.097	-0.362
-481.376	-188.344	-0.205	0.003
-480.362	210.561	-0.074	-0.117
-479.347	-200.000	-0.004	-0.073
-478.332	-86.973	0.343	0.105
-477.318	-200.000	-0.001	0.162
-476.303	-200.000	0.037	0.270
-475.289	-56.804	0.224	0.100
-474.274	281.969	0.174	0.313
-473.259	37.541	-0.210	0.187
-472.245	250.917	0.077	0.132
-471.230	-65.144	-0.258	-0.105
-470.216	62.857	0.257	-0.259
-469.201	-20.074	0.190	0.118
-468.186	800.000	0.044	-0.153
-467.172	-171.749	0.074	0.002
-466.157	70.076	-0.224	0.233
-465.143	52.997	0.107	-0.103
-464.128	-80.240	0.336	-0.113
-463.113	800.000	0.004	-0.010
-462.099	64.420	0.131	-0.132
-461.084	288.087	0.074	-0.135
-460.070	-200.000	-0.001	-0.098
-459.055	30.854	0.140	0.120
-458.040	112.430	-0.312	-0.379
-457.026	-184.761	0.171	0.003
-456.011	-128.129	-0.425	0.061
-454.997	800.000	-0.068	0.271
-453.982	172.937	0.173	-0.251
-452.968	69.002	0.085	0.087
-451.953	-0.391	0.101	-0.072
-450.938	734.451	-0.165	-0.445
-449.924	29.048	-0.284	0.242
-448.909	5.478	0.170	0.126
-447.895	-20.411	-0.184	-0.113
-446.880	-122.799	-0.093	-0.015
-445.865	136.106	-0.244	-0.319
-444.851	-200.000	0.027	0.229
-443.836	51.621	-0.333	-0.318
-442.822	96.075	-0.090	0.104
-441.807	800.000	0.118	0.379
-440.792	-200.000	0.043	0.257
-439.778	-22.393	-0.165	0.100
-438.763	5.664	0.077	0.057
-437.749	-200.000	-0.011	-0.219
-436.734	122.792	0.212	0.266
-435.719	800.000	0.078	0.242
-434.705	-6.994	0.142	-0.097
-433.690	800.000	-0.045	0.190
-432.676	-95.530	0.138	0.037
-431.661	-200.000	-0.023	-0.336
-430.646	-155.674	-0.086	0.006
-429.632	68.374	0.111	0.114
-428.617	-35.249	0.106	-0.058
-427.603	-59.668	-0.297	-0.128
-426.588	128.164	0.075	0.095
-425.573	124.661	0.112	-0.141
-424.559	-81.759	-0.280	-0.092
-423.544	-114.163	0.325	0.063
-422.530	-122.586	-0.255	-0.041
-421.515	-44.065	0.231	0.116
-420.500	-99.628	0.099	0.025
-419.486	800.000	0.061	-0.220
-418.471	90.447	-0.065	-0.073
-417.457	273.717	-0.211	0.374
-416.442	-24.195	-0.276	0.165
-415.428	-200.000	-0.022	0.143
-414.413	-200.000	-0.012	-0.285
-413.398	-200.000	0.016	-0.268
-412.384	199.670	0.142	-0.218
-411.369	-12.140	-0.292	0.191
-410.355	-200.000	0.022	0.177
-409.340	-48.686	0.290	-0.140
-408.325	-128.689	-0.478	0.068
-407.311	-188.802	0.299	0.004
-406.296	259.220	-0.067	-0.116
-405.282	-56.991	-0.077	-0.034
-404.267	-200.000	0.058	0.318
-403.252	231.651	0.085	0.139
-402.238	275.185	-0.159	0.283
-401.223	292.289	-0.083	0.151
-400.209	411.712	0.020	-0.042
-399.194	-200.000	-0.004	0.253
-398.179	377.071	-0.104	-0.213
-397.165	-200.000	0.022	-0.471
-396.150	-72.762	-0.247	-0.091
-395.136	800.000	-0.062	0.220
-394.121	-200.000	-0.030	0.194
-393.106	372.322	-0.082	-0.166
-392.092	-64.754	-0.183	0.074
-391.077	420.037	0.092	0.198
-390.063	-200.000	-0.017	-0.228
-389.048	-123.943	-0.310	0.049
-388.033	10.487	0.141	0.108
-387.019	251.032	-0.059	-0.101
-386.004	800.000	0.109	-0.342
-384.990	490.507	0.021	-0.049
-383.975	800.000	0.057	0.227
-382.960	254.423	0.102	-0.174
-381.946	541.207	0.138	0.328
-380.931	-192.804	-0.135	-0.001
-379.917	-92.104	-0.227	-0.064
-378.902	-22.176	-0.229	0.139
-377.888	-6.898	0.357	-0.243
-376.873	-157.248	-0.202	0.012
-375.858	32.685	0.235	0.203
-374.844	-120.020	0.060	-0.010
-373.829	68.536	0.234	-0.240
-372.815	-1.598	0.168	0.118
-371.800	306.803	-0.068	-0.126
-370.785	81.950	-0.115	0.124
-369.771	-76.061	-0.252	0.089
-368.756	-113.936	0.032	0.006
-367.742	4.047	0.272	-0.199
-366.727	800.000	-0.012	-0.041
-365.712	-82.753	0.245	0.079
-364.698	-56.546	0.121	-0.054
-363.683	585.854	0.062	-0.152
-362.669	175.796	-0.044	-0.064
-361.654	-200.000	0.004	0.092
-360.639	-200.000	0.049	-0.225
-359.625	-200.000	-0.003	-0.307
-358.610	-128.217	0.259	0.037
-357.596	-42.593	-0.391	-0.199
-356.581	-200.000	0.025	0.172
-355.566	-148.072	-0.094	-0.008
-354.552	0.543	-0.113	-0.081
-353.537	800.000	-0.065	-0.237
-352.523	142.842	0.030	0.040
-351.508	-51.973	0.208	-0.097
-350.493	82.113	0.074	0.080
-349.479	142.090	-0.084	0.111
-348.464	-200.000	-0.011	-0.076
-347.450	-170.041	0.165	0.006
-346.435	-121.001	0.154	-0.026
-345.420	-100.420	-0.145	-0.036
-344.406	-200.000	0.007	0.204
-343.391	-8.602	-0.227	0.153
-342.377	112.033	0.138	0.166
-341.362	324.013	0.213	-0.406
-340.348	-149.128	-0.065	-0.005
-339.333	101.321	0.043	-0.051
-338.318	132.923	0.059	-0.076
-337.304	-200.000	0.000	0.123
-336.289	123.049	-0.227	-0.284
-335.275	-120.765	0.219	-0.037
-334.260	82.578	-0.163	-0.177
-333.245	-31.273	0.197	0.111
-332.231	-200.000	0.016	-0.151
-331.216	-183.637	-0.125	-0.002
-330.202	800.000	0.025	0.089
-329.187	-113.173	0.065	0.013
-328.172	-111.225	-0.007	0.001
-327.158	49.643	0.111	0.104
-326.143	-116.241	-0.319	0.059
-325.129	138.766	-0.372	0.488
-324.114	-200.000	-0.011	0.080
-323.099	-200.000	0.032	0.151
-322.085	318.393	-0.113	0.214
-321.070	-200.000	-0.014	-0.334
-320.056	53.391	-0.027	0.026
-319.041	-200.000	-0.006	0.167
-318.026	-65.909	-0.104	-0.042
-317.012	-200.000	0.028	-0.203
-315.997	800.000	-0.075	0.288
-314.983	-140.583	0.077	0.008
-313.968	-62.030	-0.318	-0.133
-312.953	-85.940	0.347	0.107
-311.939	-200.000	-0.030	-0.195
-310.924	193.137	-0.165	-0.249
-309.910	-132.314	-0.059	-0.008
-308.895	-102.178	-0.287	-0.069
-307.880	-145.102	0.138	-0.013
-306.866	187.767	0.245	-0.366
-305.851	-200.000	0.017	-0.256
-304.837	89.082	0.033	-0.037
-303.822	-75.704	-0.114	0.040
-302.807	-115.073	0.130	0.025
-301.793	-48.569	0.075	0.036
-300.778	-200.000	0.050	-0.333
-299.764	-86.004	0.317	-0.098
-298.749	8.557	-0.280	-0.210
-297.735	-99.540	-0.111	-0.028
-296.720	43.836	-0.106	-0.097
-295.705	231.308	-0.192	0.313
-294.691	83.218	0.213	-0.231
-293.676	-71.160	-0.266	0.100
-292.662	-200.000	0.033	-0.202
-291.647	-200.000	0.003	-0.249
-290.632	476.888	0.164	0.369
-289.618	-144.044	-0.265	-0.025
-288.603	-9.638	0.290	-0.193
-287.589	45.527	-0.049	0.045
-286.574	415.340	0.049	-0.104
-285.559	-2.450	0.187	-0.131
-284.545	-200.000	-0.042	0.359
-283.530	47.144	-0.077	-0.072
-282.516	-30.585	-0.430	-0.243
-281.501	-200.000	0.023	-0.126
-280.486	-62.480	-0.205	0.085
-279.472	-200.000	0.024	0.122
-278.457	800.000	-0.060	0.256
-277.443	100.685	0.032	-0.038
-276.428	800.000	-0.060	-0.250
-275.413	413.776	0.046	-0.098
-274.399	-27.966	-0.097	-0.056
-273.384	115.012	0.177	0.216
-272.370	800.000	-0.075	-0.216
-271.355	800.000	-0.089	-0.251
-270.340	800.000	0.066	-0.244
-269.326	800.000	0.079	-0.237
-268.311	-7.196	0.176	-0.119
-267.297	120.326	0.082	0.102
-266.282	-84.301	0.628	-0.198
-265.267	-144.476	0.017	-0.002
-264.253	-57.478	0.081	-0.036
-263.238	8.447	0.266	0.199
-262.224	-200.000	-0.032	-0.183
-261.209	-63.251	-0.168	0.069
-260.195	1.358	0.318	0.228
-259.180	-114.247	0.205	0.039
-258.165	102.900	0.154	-0.179
-257.151	-200.000	0.036	-0.176
-256.136	-167.256	0.193	-0.008
-255.122	-88.500	-0.282	0.084
-254.107	-153.270	-0.095	0.007
-253.092	45.223	-0.227	-0.208
-252.078	-200.000	0.150	0.689
-251.063	-118.355	0.162	0.029
-250.049	-30.464	-0.301	0.170
-249.034	800.000	-0.091	-0.251
-248.019	-200.000	-0.015	0.077
-247.005	-113.958	0.160	0.031
-245.990	800.000	0.073	-0.234
-244.976	174.522	0.123	-0.177
-243.961	-28.690	-0.120	0.069
-242.946	-11.851	0.158	-0.103
-241.932	-40.535	0.160	-0.083
-240.917	194.983	0.288	0.436
-239.903	693.360	0.081	-0.211
-238.888	304.239	-0.087	0.160
-237.873	28.356	0.281	-0.236
-236.859	-66.806	0.503	-0.198
-235.844	-3.092	-0.259	0.180
-234.830	-200.000	0.016	-0.246
-233.815	-33.200	0.117	0.065
-232.800	219.590	-0.155	0.247
-231.786	43.549	0.324	0.295
-230.771	122.959	-0.077	0.096
-229.757	455.653	-0.116	0.257
-228.742	45.807	-0.104	0.096
-227.727	-50.166	-0.249	0.117
-226.713	-33.460	0.112	-0.062
-225.698	800.000	0.114	0.316
-224.684	72.631	0.174	0.181
-223.669	800.000	0.037	-0.126
-222.655	-200.000	0.019	0.182
-221.640	800.000	0.042	0.165
-220.625	-200.000	0.005	-0.064
-219.611	-33.481	-0.264	-0.145
-218.596	160.809	-0.108	-0.150
-217.582	-68.035	-0.030	-0.011
-216.567	800.000	-0.049	0.202
-215.552	-200.000	-0.022	0.494
-214.538	-21.351	0.446	0.271
-213.523	147.645	0.104	-0.140
-212.509	-74.342	0.294	-0.106
-211.494	-200.000	0.022	0.122
-210.479	98.768	0.212	-0.244
-209.465	800.000	0.033	0.123
-208.450	6.894	0.205	0.152
-207.436	-200.000	0.066	0.363
-206.421	204.442	0.121	0.187
-205.406	163.753	-0.168	-0.235
-204.392	-200.000	0.027	0.147
-203.377	-105.363	-0.205	-0.046
-202.363	3.756	-0.202	0.147
-201.348	-200.000	-0.002	-0.169
-200.333	572.536	0.066	0.160
-199.319	25.454	-0.064	-0.053
-198.304	-17.165	-0.299	0.188
-197.290	295.262	-0.168	0.305
-196.275	61.342	0.099	0.098
-195.260	91.762	-0.187	0.209
-194.246	63.087	-0.097	0.096
-193.231	800.000	0.105	-0.295
-192.217	800.000	-0.143	-0.437
-191.202	34.314	-0.137	-0.118
-190.187	-78.738	0.154	0.052
-189.173	-42.203	-0.215	-0.109
-188.158	-200.000	0.027	-0.161
-187.144	121.421	-0.157	-0.194
-186.129	-200.000	0.028	0.340
-185.114	378.227	-0.163	0.331
-184.100	-200.000	-0.014	-0.064
-183.085	-200.000	-0.012	0.180
-182.071	-200.000	0.040	-0.235
-181.056	-108.766	-0.225	-0.048
-180.042	800.000	-0.135	0.378
-179.027	-200.000	0.008	0.095
-178.012	133.077	-0.141	0.181
-176.998	79.649	0.217	0.231
-175.983	-200.000	0.053	0.303
-174.969	-200.000	0.043	0.341
-173.954	60.065	-0.128	0.126
-172.939	800.000	-0.063	0.260
-171.925	-200.000	-0.010	-0.112
-170.910	-200.000	-0.020	0.207
-169.896	-129.950	0.564	0.077
-168.881	-163.643	0.036	-0.002
-167.866	-103.889	0.021	-0.005
-166.852	23.176	-0.205	0.167
-165.837	23.542	-0.015	0.012
-164.823	159.804	0.224	0.310
-163.808	478.320	-0.021	0.048
-162.793	40.141	0.096	0.086
-161.779	-51.228	-0.279	-0.130
-160.764	49.612	-0.064	-0.060
-159.750	500.126	0.128	0.292
-158.735	-55.861	-0.121	0.054
-157.720	132.022	0.045	-0.058
-156.706	800.000	0.121	0.364
-155.691	208.728	0.136	-0.212
-154.677	184.505	-0.173	0.254
-153.662	-200.000	0.023	0.184
-152.647	800.000	-0.080	-0.309
-151.633	90.906	0.259	-0.288
-150.618	-95.973	-0.071	0.019
-149.604	217.064	0.169	0.267
-148.589	416.572	-0.123	0.262
-147.574	800.000	0.036	0.126
-146.560	155.143	-0.207	-0.283
-145.545	-200.000	0.000	0.141
-144.531	17.480	0.081	-0.064
-143.516	521.994	0.037	-0.087
-142.502	800.000	-0.097	-0.388
-141.487	-200.000	-0.012	0.126
-140.472	-22.041	0.254	0.153
-139.458	-200.000	-0.016	-0.074
-138.443	-200.000	0.007	0.057
-137.429	-60.758	0.088	0.037
-136.414	-99.177	0.165	0.041
-135.399	-23.158	0.270	0.161
-134.385	770.804	0.041	-0.111
-133.370	-200.000	-0.043	0.255
-132.356	9.953	-0.132	0.099
-131.341	-200.000	-0.047	-0.282
-130.326	-176.506	-0.125	-0.003
-129.312	-142.986	0.230	0.022
-128.297	508.668	-0.090	0.206
-127.283	75.469	0.242	0.253
-126.268	-90.294	0.351	0.101
-125.253	-129.936	0.335	-0.046
-124.239	-69.234	-0.292	0.111
-123.224	800.000	0.102	0.357
-122.210	-200.000	0.056	-0.268
-121.195	-200.000	-0.007	-0.046
-120.180	-41.632	0.196	0.100
-119.166	-114.381	0.305	-0.058
-118.151	27.513	-0.250	0.208
-117.137	-92.738	-0.238	0.066
-116.122	-175.387	-0.178	-0.005
-115.107	-110.164	0.257	0.053
-114.093	-200.000	0.019	-0.330
-113.078	224.584	0.113	-0.181
-112.064	-200.000	-0.100	-0.509
-111.049	-145.301	0.121	-0.011
-110.034	-200.000	0.176	-0.001
-109.020	265.962	0.215	-0.372
-108.005	-84.315	-0.126	-0.040
-106.991	43.698	0.342	0.310
-105.976	-200.000	-0.015	0.340
-104.962	132.225	-0.125	0.159
-103.947	-187.536	0.230	0.003
-102.932	-106.987	-0.205	-0.045
-101.918	427.971	-0.048	-0.103
-100.903	486.562	-0.132	0.298
-99.889	-200.000	-0.046	-0.238
-98.874	-62.855	0.085	-0.035
-97.859	90.466	0.118	-0.130
-96.845	111.851	0.080	0.095
-95.830	57.159	0.148	0.143
-94.816	-52.755	-0.229	-0.105
-93.801	-152.002	0.135	0.010
-92.786	800.000	-0.057	-0.202
-91.772	800.000	0.151	-0.445
-90.757	-49.210	0.332	0.157
-89.743	-89.974	0.228	0.066
-88.728	-200.000	-0.010	-0.336
-87.713	-119.505	-0.368	0.063
-86.699	-25.613	0.160	0.093
-85.684	-200.000	-0.045	0.281
-84.670	-67.422	0.227	0.088
-83.655	61.974	0.342	0.338
-82.640	33.520	-0.263	0.227
-81.626	-200.000	-0.003	0.144
-80.611	110.707	0.230	0.273
-79.597	42.977	0.050	0.045
-78.582	-8.048	-0.222	0.148
-77.567	21.440	0.298	-0.240
-76.553	800.000	-0.142	0.415
-75.538	-130.372	0.217	-0.029
-74.524	800.000	-0.047	0.180
-73.509	23.216	-0.253	0.205
-72.494	-36.700	-0.204	-0.109
-71.480	-52.506	0.263	0.120
-70.465	192.841	-0.190	-0.284
-69.451	719.615	-0.102	0.268
-68.436	-200.000	-0.034	0.279
-67.422	-129.148	0.067	-0.009
-66.407	-200.000	0.006	0.168
-65.392	-9.346	0.241	-0.159
-64.378	-200.000	0.011	0.078
-63.363	539.030	-0.148	-0.347
-62.349	6.587	0.154	0.113
-61.334	-4.149	-0.990	-0.678
-60.319	800.000	0.169	0.552
-59.305	-200.000	-0.183	-0.842
-58.290	535.722	0.460	1.079
-57.276	275.147	0.893	1.566
-56.261	-200.000	97.687	582.837
-55.246	539.981	1400.007	3294.938
-54.232	149.306	2611.063	3494.809
-53.217	112.624	2198.666	2631.734
-52.203	44.495	1731.647	1572.931
-51.188	37.159	1543.546	1351.179
-50.173	34.716	1516.738	1310.919
-49.159	54.277	1567.787	1491.950
-48.144	58.037	1586.525	1535.921
-47.130	37.574	1541.960	1352.460
-46.115	34.200	1526.282	1315.396
-45.100	34.070	1522.851	1311.488
-44.086	34.064	1521.228	1309.995
-43.071	33.979	1518.994	1307.435
-42.057	34.011	1517.600	1306.408
-41.042	34.013	1516.247	1305.203
-40.027	34.042	1515.004	1304.281
-39.013	34.133	1513.163	1303.267
-37.998	34.062	1511.990	1301.716
-36.984	33.966	1511.022	1300.177
-35.969	34.016	1509.630	1299.270
-34.954	34.056	1507.970	1298.065
-33.940	33.973	1506.784	1296.424
-32.925	34.042	1505.193	1295.475
-31.911	34.035	1504.337	1294.640
-30.896	34.069	1502.959	1293.633
-29.881	34.086	1501.492	1292.436
-28.867	34.039	1500.369	1291.095
-27.852	34.042	1498.658	1289.595
-26.838	34.073	1497.367	1288.638
-25.823	34.010	1496.369	1287.307
-24.809	33.981	1494.188	1285.182
-23.794	34.069	1492.467	1284.240
-22.779	34.092	1491.433	1283.456
-21.765	34.068	1490.904	1282.789
-20.750	34.033	1489.256	1281.083
-19.736	33.987	1488.333	1279.932
-18.721	34.061	1486.547	1278.845
-17.706	33.981	1485.795	1277.604
-16.692	33.939	1485.128	1276.702
-15.677	33.957	1484.166	1275.943
-14.663	33.980	1483.103	1275.132
-13.648	33.875	1482.287	1273.678
-12.633	33.932	1481.196	1273.069
-11.619	34.010	1479.946	1272.465
-10.604	33.876	1479.210	1270.889
-9.590	33.936	1478.535	1270.658
-8.575	33.956	1477.669	1269.999
-7.560	34.111	1476.155	1269.681
-6.546	33.817	1476.108	1267.630
-5.531	33.979	1474.600	1267.360
-4.517	33.899	1474.443	1266.641
-3.502	33.933	1473.150	1265.708
-2.487	34.004	1472.155	1265.279
-1.473	33.943	1471.338	1264.120
-0.458	33.968	1469.958	1263.050
0.556	33.960	1460.725	1253.361
1.571	31.546	1435.362	1215.827
2.586	28.323	1377.780	1146.807
3.600	26.809	1297.575	1071.016
4.615	25.269	1250.119	1022.986
5.629	21.150	1191.118	952.194
6.644	10.690	1102.000	827.809
7.659	3.070	1058.642	757.729
8.673	1.924	1053.320	748.233
9.688	1.768	1050.050	745.081
10.702	1.644	1048.290	743.156
11.717	1.574	1046.505	741.488
12.731	4.801	1050.253	759.843
13.746	14.811	1064.625	819.484
14.761	22.996	1075.666	868.296
15.775	24.855	1076.995	878.426
16.790	25.186	1076.951	879.938
17.804	25.057	1076.068	878.507
18.819	24.809	1075.239	876.535
19.834	24.758	1074.801	875.852
20.848	25.054	1074.273	876.790
21.863	25.215	1073.634	876.980
22.877	25.110	1073.692	876.437
23.892	25.056	1072.719	875.298
24.907	24.981	1072.040	874.304
25.921	24.962	1071.403	873.613
26.936	24.987	1071.114	873.420
27.950	25.165	1069.306	872.734
28.965	24.940	1068.657	871.035
29.980	24.781	1066.990	868.826
30.994	24.752	1065.901	867.724
32.009	25.134	1064.992	868.759
33.023	24.941	1064.933	867.697
34.038	24.900	1063.177	865.992
35.053	24.870	1062.687	865.369
36.067	25.075	1061.595	865.393
37.082	25.093	1061.248	865.121
38.096	25.032	1060.489	864.132
39.111	25.177	1060.107	864.442
40.126	25.296	1058.944	863.993
41.140	25.343	1057.011	862.564
42.155	24.855	1056.656	859.854
43.169	24.626	1055.156	857.458
44.184	24.540	1053.923	855.968
45.199	24.685	1053.507	856.253
46.213	24.585	1052.391	854.790
47.228	24.622	1051.116	853.855
48.242	24.803	1050.341	854.013
49.257	24.929	1049.650	853.979
50.271	24.869	1049.079	853.149
51.286	25.148	1047.981	853.513
52.301	25.153	1047.809	853.320
53.315	25.153	1046.876	852.483
54.330	25.021	1046.353	851.357
55.344	24.993	1045.331	850.314
56.359	25.009	1044.295	849.474
57.374	24.964	1043.706	848.706
58.388	24.805	1042.771	847.116
59.403	24.723	1042.067	846.084
60.417	24.849	1041.275	845.958
61.432	24.608	1040.322	843.975
62.447	24.623	1039.945	843.661
63.461	24.658	1039.557	843.437
64.476	24.854	1038.806	843.677
65.490	24.844	1037.245	842.291
66.505	24.690	1036.553	840.931
67.520	24.744	1035.839	840.531
68.534	24.862	1034.939	840.278
69.549	24.683	1034.022	838.618
70.563	24.382	1032.810	836.153
71.578	24.213	1032.105	834.714
72.593	24.320	1031.380	834.555
73.607	24.181	1029.702	832.476
74.622	24.126	1029.185	831.727
75.636	24.559	1028.110	832.802
76.651	24.620	1027.770	832.738
77.666	24.426	1027.081	831.203
78.680	24.299	1025.817	829.517
79.695	24.387	1025.426	829.536
80.709	24.516	1024.539	829.346
81.724	24.671	1023.834	829.420
82.739	24.543	1023.357	828.368
83.753	24.545	1022.385	827.514
84.768	24.802	1021.777	828.139
85.782	25.319	1021.378	830.132
86.797	25.436	1020.501	829.890
87.812	25.275	1019.966	828.636
88.826	25.081	1019.080	826.948
89.841	25.168	1018.310	826.652
90.855	25.349	1017.254	826.556
91.870	25.257	1016.489	825.436
92.884	25.293	1015.482	824.711
93.899	25.119	1014.727	823.227
94.914	25.123	1013.618	822.273
95.928	25.144	1013.238	821.989
96.943	25.232	1012.438	821.671
97.957	24.894	1011.230	819.071
98.972	24.785	1009.957	817.469
99.987	24.714	1008.619	815.988
101.001	24.638	1008.049	815.109
102.016	24.940	1007.865	816.264
103.030	24.886	1007.592	815.725
104.045	24.918	1005.986	814.499
105.060	24.874	1004.313	812.872
106.074	24.612	1003.832	811.221
107.089	24.706	1003.021	810.921
108.103	25.072	1002.451	812.048
109.118	25.017	1002.004	811.365
110.133	24.818	1000.396	809.092
111.147	24.834	999.844	808.647
112.162	24.567	998.458	806.246
113.176	24.455	997.431	804.841
114.191	24.635	996.741	805.022
115.206	24.603	996.050	804.251
116.220	24.356	994.435	801.767
117.235	24.175	993.874	800.430
118.249	24.343	993.256	800.616
119.264	24.517	992.168	800.445
120.279	24.335	991.338	798.893
121.293	24.246	990.548	797.786
122.308	24.343	989.958	797.676
123.322	24.381	989.303	797.247
124.337	24.409	988.552	796.696
125.352	24.375	986.655	794.945
126.366	23.898	985.480	791.805
127.381	23.540	983.824	788.810
128.395	24.170	983.720	791.459
129.410	24.713	983.389	793.534
130.424	24.873	982.700	793.616
131.439	24.933	981.737	793.035
132.454	24.957	980.603	792.156
133.468	24.900	979.954	791.306
134.483	24.795	979.386	790.313
135.497	24.723	978.835	789.482
136.512	25.132	978.152	790.667
137.527	25.005	977.601	789.590
138.541	25.162	977.029	789.749
139.556	25.128	976.111	788.791
140.570	24.988	974.987	787.197
141.585	25.178	973.742	786.955
142.600	25.345	973.592	787.498
143.614	25.232	972.392	785.962
144.629	25.280	971.926	785.724
145.643	25.448	971.580	786.112
146.658	25.319	970.138	784.312
147.673	25.216	968.509	782.475
148.687	25.057	967.973	781.281
149.702	24.969	966.651	779.761
150.716	25.002	965.829	779.172
151.731	24.964	964.706	778.034
152.746	24.967	964.314	777.663
153.760	25.036	963.985	777.628
154.775	25.222	962.704	777.331
155.789	25.271	962.105	776.991
156.804	25.380	960.911	776.427
157.819	25.347	959.679	775.220
158.833	25.188	959.707	774.490
159.848	25.400	958.903	774.687
160.862	25.495	957.722	774.071
161.877	25.391	956.428	772.510
162.892	25.221	955.778	771.186
163.906	25.176	954.872	770.194
164.921	25.358	953.903	770.127
165.935	25.337	952.574	768.894
166.950	25.382	951.835	768.421
167.964	25.265	951.149	767.299
168.979	25.309	949.881	766.399
169.994	25.121	949.240	765.010
171.008	25.059	947.938	763.628
172.023	25.186	947.777	763.974
173.037	25.524	946.526	764.335
174.052	25.418	945.098	762.666
175.067	25.110	944.304	760.648
176.081	24.939	943.555	759.253
177.096	25.091	942.995	759.379
178.110	25.057	941.839	758.236
179.125	24.885	941.244	756.962
180.140	24.581	940.330	754.879
181.154	24.509	939.781	754.065
182.169	24.782	938.764	754.333
183.183	24.944	938.739	754.931
184.198	25.367	938.444	756.410
185.213	25.230	937.751	755.206
186.227	25.197	937.117	754.492
187.242	25.279	936.579	754.335
188.256	25.368	935.847	754.053
189.271	25.319	935.095	753.174
190.286	25.436	934.325	752.980
191.300	25.264	933.263	751.336
192.315	24.725	931.854	747.880
193.329	23.917	930.248	743.153
194.344	23.569	929.418	740.971
195.359	24.211	929.610	743.737
196.373	25.015	929.923	747.275
197.388	25.237	929.593	747.870
198.402	25.204	928.720	746.963
199.417	25.068	928.533	746.181
200.432	25.127	928.561	746.385
201.446	25.095	927.465	745.304
202.461	24.895	926.575	743.691
203.475	24.828	926.036	742.917
204.490	24.542	924.448	740.390
205.504	23.298	922.497	733.613
206.519	23.618	922.653	734.999
207.534	24.683	922.984	739.607
208.548	24.733	922.073	739.016
209.563	25.090	921.918	740.303
210.577	25.149	921.161	739.871
211.592	24.845	920.508	738.027
212.607	25.249	920.054	739.263
213.621	25.387	920.008	739.728
214.636	25.390	918.886	738.774
215.650	25.372	918.399	738.243
216.665	25.409	917.870	737.905
217.680	25.307	917.634	737.232
218.694	25.592	917.005	737.831
219.709	25.088	916.055	734.935
220.723	24.681	915.181	732.499
221.738	25.072	914.532	733.516
222.753	25.129	914.413	733.592
223.767	25.246	913.393	733.183
224.782	25.332	912.516	732.768
225.796	25.265	912.757	732.623
226.811	25.440	911.997	732.661
227.826	25.039	910.854	730.045
228.840	24.276	909.153	725.514
229.855	24.163	908.445	724.423
230.869	24.583	907.642	725.426
231.884	24.194	906.919	723.205
232.899	24.168	906.724	722.881
233.913	24.868	906.973	725.856
234.928	25.197	906.446	726.701
235.942	25.052	905.567	725.346
236.957	25.029	905.286	724.962
237.972	24.726	904.302	722.887
238.986	24.752	903.038	721.919
240.001	24.814	902.780	721.897
241.015	24.851	902.140	721.471
242.030	24.914	901.712	721.317
243.045	25.060	901.063	721.321
244.059	25.192	900.362	721.229
245.074	25.330	900.199	721.588
246.088	25.251	899.514	720.657
247.103	24.802	898.859	718.268
248.117	24.995	897.928	718.235
249.132	25.413	898.109	719.992
250.147	25.702	898.443	721.355
251.161	25.981	897.561	721.698
252.176	26.147	896.629	721.550
253.190	26.082	896.104	720.802
254.205	26.078	895.918	720.573
255.220	26.376	895.457	721.329
256.234	26.272	894.626	720.182
257.249	26.178	894.281	719.466
258.263	26.017	893.453	718.094
259.278	25.972	893.055	717.530
260.293	26.046	892.445	717.274
261.307	26.189	891.875	717.320
262.322	25.983	891.081	715.799
263.336	26.023	890.271	715.243
264.351	25.479	889.139	712.118
265.366	24.400	887.341	706.344
266.380	24.031	886.187	703.903
267.395	24.854	886.722	707.522
268.409	25.596	886.965	710.586
269.424	25.549	886.375	709.863
270.439	25.750	885.628	709.994
271.453	25.961	884.933	710.206
272.468	25.895	884.662	709.666
273.482	26.073	884.286	710.001
274.497	26.198	883.601	709.883
275.512	26.033	882.313	708.137
276.526	25.413	881.282	704.816
277.541	25.592	880.858	705.115
278.555	25.926	880.799	706.316
279.570	25.662	879.986	704.568
280.585	25.618	879.342	703.815
281.599	25.618	879.094	703.557
282.614	25.667	878.962	703.580
283.628	25.511	877.098	701.418
284.643	25.081	876.606	699.282
285.657	25.403	876.632	700.498
286.672	25.326	875.721	699.409
287.687	24.798	874.736	696.504
288.701	25.134	874.614	697.654
289.716	25.491	874.779	699.111
290.730	25.263	873.479	697.125
291.745	25.159	872.826	696.141
292.760	24.957	871.679	694.380
293.774	24.886	871.264	693.712
294.789	25.673	872.291	697.521
295.803	26.391	872.022	700.027
296.818	26.402	871.363	699.478
297.833	26.414	870.941	699.122
298.847	26.141	869.773	697.071
299.862	25.787	868.899	694.940
300.876	26.039	868.414	695.462
301.891	26.489	867.884	696.710
302.906	26.366	867.608	695.954
303.920	26.113	866.463	694.001
304.935	25.903	865.735	692.549
305.949	26.215	865.817	693.752
306.964	26.386	864.945	693.648
307.979	26.231	864.212	692.406
308.993	26.212	863.853	691.984
310.008	26.346	863.919	692.487
311.022	26.559	863.328	692.768
312.037	26.314	862.535	691.136
313.052	26.202	861.621	689.913
314.066	26.046	861.042	688.793
315.081	25.295	859.396	684.551
316.095	24.605	858.594	681.223
317.110	25.094	858.599	683.031
318.125	26.112	858.490	686.761
319.139	25.612	857.441	683.959
320.154	24.595	855.558	678.538
321.168	24.036	854.837	675.785
322.183	24.674	855.149	678.391
323.197	25.600	855.980	682.506
324.212	25.987	855.254	683.334
325.227	26.010	854.969	683.133
326.241	26.186	854.809	683.609
327.256	25.919	854.030	681.916
328.270	25.988	853.215	681.466
329.285	25.848	852.665	680.441
330.300	25.763	851.963	679.497
331.314	25.587	850.700	677.766
332.329	25.598	850.197	677.348
333.343	26.062	849.854	678.763
334.358	26.212	850.033	679.410
335.373	26.273	848.784	678.577
336.387	26.319	848.703	678.625
337.402	26.511	848.306	678.971
338.416	26.721	848.151	679.574
339.431	26.600	847.657	678.664
340.446	26.699	846.815	678.302
341.460	26.873	846.678	678.782
342.475	26.897	845.766	678.081
343.489	26.766	844.869	676.811
344.504	26.606	844.521	675.874
345.519	26.858	844.314	676.592
346.533	27.024	844.035	676.926
347.548	27.285	843.439	677.360
348.562	27.054	843.039	676.121
349.577	27.167	842.365	675.939
350.592	26.910	841.906	674.557
351.606	27.045	841.304	674.515
352.621	26.968	840.783	673.752
353.635	26.840	840.537	673.019
354.650	26.937	839.746	672.687
355.665	26.480	838.788	670.169
356.679	25.315	837.310	664.619
357.694	25.176	836.609	663.490
358.708	26.052	836.596	666.657
359.723	25.887	835.999	665.513
360.738	26.089	835.702	665.963
361.752	26.604	835.797	667.882
362.767	26.815	835.163	668.093
363.781	26.900	835.349	668.494
364.796	27.253	835.144	669.572
365.810	27.313	834.769	669.434
366.825	27.517	833.894	669.421
367.840	27.368	833.994	668.897
368.854	27.226	833.423	667.858
369.869	26.806	832.442	665.469
370.883	26.700	831.164	664.000
371.898	26.833	830.867	664.193
372.913	26.817	830.291	663.614
373.927	26.805	829.681	663.025
374.942	26.926	829.159	662.992
375.956	26.934	829.322	663.092
376.971	26.943	828.357	662.295
377.986	27.223	827.810	662.820
379.000	27.404	827.400	663.093
380.015	27.491	826.563	662.680
381.029	27.060	826.413	660.933
382.044	27.176	825.978	660.947
383.059	27.386	825.063	660.919
384.073	27.356	824.496	660.299
385.088	27.295	824.003	659.622
386.102	27.312	823.735	659.410
387.117	27.217	822.611	658.108
388.132	27.067	822.450	657.379
389.146	26.829	821.649	655.823
390.161	26.297	820.406	652.849
391.175	26.516	820.165	653.391
392.190	27.051	820.641	655.643
393.205	26.995	820.054	654.916
394.219	25.975	818.218	649.720
395.234	24.395	815.621	641.918
396.248	23.683	814.687	638.567
397.263	24.752	815.328	642.857
398.278	26.353	817.303	650.122
399.292	26.901	817.001	651.794
400.307	26.599	816.201	650.013
401.321	26.513	815.704	649.250
402.336	26.688	815.311	649.507
403.350	26.919	815.485	650.419
404.365	27.432	815.382	652.116
405.380	27.618	814.874	652.318
406.394	27.909	814.886	653.311
407.409	28.176	814.585	653.964
408.423	28.141	813.880	653.218
409.438	28.125	812.873	652.292
410.453	28.094	812.857	652.112
411.467	28.128	812.435	651.837
412.482	28.111	811.847	651.246
413.496	27.981	811.403	650.370
414.511	28.204	810.662	650.511
415.526	28.181	810.594	650.318
416.540	28.076	810.490	649.803
417.555	28.112	809.604	649.163
418.569	27.832	808.982	647.615
419.584	27.771	808.136	646.663
420.599	27.793	808.162	646.705
421.613	106.801	1283.307	1446.798
422.628	92.153	1352.538	1446.921
