DTS Sentinel unit serial number:	SN413079Multiplexer serial number:	ORYXHardware model number:	OX4-SRSoftware version number:	ORYX F/W v4.00 Oryx Data Collector v3.7.2.0data status	okinstallation	princeton_trtdifferential loss correction	single-endedforward channel	channel 3reverse channel	N/Adate	2019/09/13time	17:04:35forward acquisition time	60.00reverse acquisition time	0.00gamma	496.2192k internal	0.2298k external	0.2298temperature offset calibration	1.0130default loss term (dB/km)	0.3790temperature slope calibration	1.0000multiplexer offset coefficient	1.0000multiplexer slope coefficient	1.0000fibre end	0.00T internal ref (°C)	35.06T ext. ref 1 (°C)	4.82T ext. ref 2 (°C)	34.26length (m)	temperature (°C)	Stokes	anti-Stokes-747.200	800.000	0.061	-0.269
-746.185	-83.408	-0.169	-0.055
-745.171	800.000	0.020	-0.058
-744.156	259.946	-0.144	0.253
-743.142	627.024	-0.134	-0.345
-742.127	117.509	0.163	0.204
-741.112	-147.764	-0.250	-0.021
-740.098	22.359	-0.178	-0.148
-739.083	-79.862	-0.054	0.019
-738.069	-91.267	-0.148	0.043
-737.054	429.159	-0.064	0.141
-736.039	-157.039	-0.207	-0.013
-735.025	800.000	-0.020	-0.061
-734.010	139.292	-0.210	-0.283
-732.996	-160.100	-0.152	0.008
-731.981	-200.000	0.046	-0.436
-730.966	74.159	0.100	0.107
-729.952	-110.173	0.029	-0.006
-728.937	785.942	-0.097	0.271
-727.923	-29.493	-0.224	0.131
-726.908	-134.184	-0.168	-0.021
-725.894	60.679	-0.256	0.258
-724.879	-103.161	-0.325	-0.078
-723.864	167.105	0.093	-0.134
-722.850	-150.730	-0.258	-0.020
-721.835	-78.628	-0.191	-0.067
-720.821	-155.979	0.112	0.007
-719.806	-142.302	-0.263	0.027
-718.791	-16.144	0.103	-0.067
-717.777	93.807	-0.168	0.195
-716.762	-200.000	-0.024	0.246
-715.748	-169.248	0.051	0.002
-714.733	-63.216	-0.169	-0.071
-713.718	-103.974	0.226	-0.054
-712.704	-23.835	-0.323	-0.197
-711.689	136.788	0.109	0.145
-710.675	90.670	-0.240	0.274
-709.660	800.000	0.049	-0.152
-708.645	-200.000	-0.013	-0.276
-707.631	-200.000	-0.008	-0.193
-706.616	18.194	0.210	0.171
-705.602	17.815	-0.264	0.215
-704.587	51.007	0.088	0.085
-703.572	-133.302	-0.247	-0.032
-702.558	-200.000	0.010	-0.241
-701.543	-105.730	-0.107	0.025
-700.529	-200.000	-0.003	-0.066
-699.514	127.240	0.066	0.086
-698.499	-31.550	0.188	-0.108
-697.485	21.179	-0.181	0.150
-696.470	-118.483	-0.069	0.012
-695.456	-165.844	0.149	-0.007
-694.441	-96.424	0.237	0.064
-693.426	55.426	0.122	-0.121
-692.412	-74.918	-0.430	-0.157
-691.397	-157.701	0.098	-0.006
-690.383	89.116	0.323	0.367
-689.368	-52.967	-0.065	0.030
-688.354	18.458	0.035	-0.028
-687.339	407.949	0.051	0.109
-686.324	-200.000	0.003	-0.071
-685.310	84.734	0.115	-0.128
-684.295	79.496	0.253	-0.277
-683.281	44.558	-0.139	-0.130
-682.266	220.366	-0.044	0.071
-681.251	-128.179	0.378	0.055
-680.237	800.000	-0.025	0.095
-679.222	-79.372	-0.156	0.054
-678.208	-108.974	0.139	0.030
-677.193	-22.402	-0.113	-0.069
-676.178	128.848	0.095	-0.123
-675.164	-191.340	0.431	-0.004
-674.149	181.519	-0.174	-0.261
-673.135	190.788	-0.169	-0.259
-672.120	-131.997	-0.113	0.015
-671.105	316.156	-0.159	0.306
-670.091	-200.000	0.012	-0.333
-669.076	466.439	-0.081	-0.186
-668.062	219.962	0.154	-0.251
-667.047	800.000	0.089	-0.362
-666.032	-49.839	0.275	0.133
-665.018	-200.000	-0.005	0.038
-664.003	43.973	0.270	0.252
-662.989	-54.517	0.085	0.039
-661.974	166.517	0.121	-0.175
-660.959	238.904	-0.094	-0.159
-659.945	-20.221	0.039	-0.025
-658.930	-118.916	-0.198	-0.035
-657.916	-111.254	-0.222	0.046
-656.901	98.008	0.093	-0.109
-655.886	-200.000	-0.008	0.056
-654.872	-60.618	-0.225	0.097
-653.857	415.826	-0.076	-0.164
-652.843	-180.762	-0.215	-0.004
-651.828	198.017	0.170	0.264
-650.814	-200.000	-0.047	0.223
-649.799	-43.926	-0.241	-0.123
-648.784	-175.962	0.258	0.007
-647.770	-109.346	-0.176	0.038
-646.755	190.597	0.115	-0.176
-645.741	-200.000	0.001	-0.055
-644.726	800.000	-0.070	0.265
-643.711	136.559	-0.125	0.166
-642.697	-77.215	0.120	0.042
-641.682	585.321	0.065	-0.163
-640.668	791.759	0.133	-0.373
-639.653	697.075	0.109	-0.290
-638.638	-200.000	0.046	0.392
-637.624	-200.000	-0.018	0.124
-636.609	-200.000	0.024	-0.169
-635.595	-200.000	-0.007	0.033
-634.580	81.055	0.107	-0.118
-633.565	38.167	0.042	-0.038
-632.551	15.992	0.099	0.080
-631.536	800.000	0.109	-0.470
-630.522	86.314	0.183	-0.204
-629.507	-0.839	0.452	0.325
-628.492	116.324	-0.136	0.170
-627.478	-75.247	0.155	-0.056
-626.463	91.163	0.220	0.251
-625.449	-57.535	0.306	0.136
-624.434	-37.072	-0.160	-0.087
-623.419	-200.000	-0.004	0.199
-622.405	12.443	0.146	-0.114
-621.390	306.022	0.063	-0.119
-620.376	-200.000	-0.012	-0.116
-619.361	-71.113	0.115	-0.044
-618.346	74.775	-0.115	0.123
-617.332	-76.953	0.303	0.108
-616.317	-200.000	-0.027	0.230
-615.303	-167.257	-0.217	-0.009
-614.288	288.123	0.133	-0.245
-613.273	-200.000	0.058	-0.337
-612.259	800.000	0.085	-0.265
-611.244	800.000	-0.036	-0.136
-610.230	-10.570	-0.091	0.061
-609.215	-122.982	-0.476	0.078
-608.201	120.975	-0.119	-0.151
-607.186	-108.257	0.264	0.058
-606.171	99.281	-0.211	-0.247
-605.157	43.265	-0.227	-0.211
-604.142	279.250	0.161	-0.291
-603.128	135.210	0.074	-0.098
-602.113	515.660	0.132	0.312
-601.098	-65.797	0.135	0.055
-600.084	-51.280	-0.195	0.093
-599.069	-37.121	0.231	0.125
-598.055	1.809	-0.186	-0.136
-597.040	-200.000	-0.032	-0.183
-596.025	800.000	0.112	-0.386
-595.011	195.775	-0.086	-0.133
-593.996	23.838	0.138	0.116
-592.982	7.050	-0.335	0.254
-591.967	-200.000	-0.026	0.167
-590.952	-25.876	0.266	0.159
-589.938	-10.938	-0.132	-0.089
-588.923	482.715	-0.079	0.182
-587.909	-132.356	-0.224	-0.029
-586.894	438.851	0.055	-0.123
-585.879	70.081	0.083	-0.087
-584.865	-150.171	-0.664	-0.052
-583.850	200.578	-0.099	0.155
-582.836	-200.000	0.020	-0.280
-581.821	381.793	0.257	0.536
-580.806	186.745	-0.085	-0.128
-579.792	654.024	-0.136	-0.354
-578.777	-200.000	0.032	0.176
-577.763	355.287	-0.081	0.163
-576.748	-120.902	0.138	-0.024
-575.733	-8.301	0.163	-0.111
-574.719	710.463	-0.079	0.213
-573.704	-79.634	-0.516	0.177
-572.690	487.407	-0.144	-0.334
-571.675	-200.000	0.025	0.113
-570.661	33.722	-0.158	0.139
-569.646	29.020	0.271	0.233
-568.631	28.711	0.171	0.147
-567.617	-200.000	-0.052	-0.238
-566.602	-200.000	-0.014	0.143
-565.588	76.197	0.154	0.166
-564.573	-89.135	-0.061	-0.018
-563.558	-109.828	0.043	-0.009
-562.544	-61.286	-0.192	0.082
-561.529	-200.000	-0.068	0.304
-560.515	185.853	0.068	0.103
-559.500	221.530	0.183	-0.298
-558.485	-19.308	0.277	-0.174
-557.471	96.348	0.230	-0.266
-556.456	108.197	0.162	-0.196
-555.442	-139.078	-0.246	0.027
-554.427	471.020	-0.105	0.239
-553.412	767.091	0.074	0.203
-552.398	-52.493	0.151	0.071
-551.383	-63.937	-0.245	0.101
-550.369	-200.000	0.021	-0.191
-549.354	-54.119	-0.104	0.048
-548.339	378.791	0.067	0.138
-547.325	539.387	-0.091	0.218
-546.310	69.307	-0.159	-0.166
-545.296	76.979	-0.221	-0.238
-544.281	800.000	-0.125	0.359
-543.266	-200.000	0.004	-0.046
-542.252	-200.000	0.005	-0.148
-541.237	-63.448	-0.253	0.105
-540.223	-134.348	-0.300	-0.037
-539.208	-2.208	-0.114	-0.081
-538.193	-31.858	-0.061	0.035
-537.179	-200.000	-0.011	-0.071
-536.164	-114.640	-0.224	-0.043
-535.150	-88.660	-0.273	0.082
-534.135	-1.098	-0.086	0.062
-533.121	-90.601	-0.109	0.032
-532.106	-82.271	0.082	0.027
-531.091	-116.167	0.211	-0.040
-530.077	-146.619	0.058	-0.005
-529.062	-200.000	-0.016	0.199
-528.048	-66.909	-0.171	-0.068
-527.033	-82.107	-0.063	-0.021
-526.018	14.859	-0.102	-0.081
-525.004	-5.362	-0.190	0.132
-523.989	285.452	0.157	0.286
-522.975	-200.000	-0.028	0.158
-521.960	-200.000	0.004	-0.199
-520.945	54.172	0.162	0.158
-519.931	-118.887	-0.220	0.039
-518.916	-200.000	-0.049	0.270
-517.902	-98.480	0.390	-0.101
-516.887	370.729	0.094	-0.194
-515.872	-49.182	-0.374	-0.181
-514.858	-168.406	0.275	0.011
-513.843	-165.124	0.109	0.005
-512.829	-107.346	0.297	0.066
-511.814	-150.595	-0.186	-0.014
-510.799	-11.161	-0.093	0.062
-509.785	-106.367	-0.392	-0.089
-508.770	117.996	-0.281	-0.350
-507.756	800.000	-0.095	-0.302
-506.741	19.084	-0.253	0.205
-505.726	-145.334	0.138	-0.013
-504.712	-149.553	-0.169	-0.014
-503.697	-200.000	-0.033	0.241
-502.683	-200.000	-0.035	0.399
-501.668	-200.000	-0.009	0.124
-500.653	-113.509	0.047	-0.009
-499.639	-92.579	0.133	-0.038
-498.624	-135.561	-0.050	0.006
-497.610	-34.967	0.429	0.236
-496.595	276.612	-0.065	0.117
-495.581	-51.772	-0.176	0.083
-494.566	-200.000	-0.024	0.511
-493.551	10.841	0.274	-0.211
-492.537	-91.386	-0.326	0.094
-491.522	16.346	-0.278	-0.222
-490.508	45.397	0.059	0.055
-489.493	800.000	-0.058	0.173
-488.478	-164.039	0.339	-0.016
-487.464	36.121	0.120	-0.107
-486.449	-200.000	-0.024	-0.125
-485.435	-196.946	-0.272	-0.002
-484.420	199.219	-0.156	0.242
-483.405	-200.000	0.030	-0.133
-482.391	170.918	-0.112	-0.162
-481.376	-45.918	-0.260	0.129
-480.362	43.032	-0.053	-0.049
-479.347	800.000	-0.059	0.233
-478.332	69.995	0.214	0.223
-477.318	-37.049	-0.061	0.033
-476.303	273.650	-0.153	-0.274
-475.289	154.547	0.245	-0.340
-474.274	687.371	0.066	0.173
-473.259	-48.418	0.208	0.101
-472.245	-179.925	0.014	-0.000
-471.230	24.339	-0.182	-0.152
-470.216	-3.840	0.201	0.141
-469.201	248.590	-0.121	-0.207
-468.186	800.000	-0.012	0.044
-467.172	800.000	-0.088	-0.271
-466.157	800.000	-0.031	-0.097
-465.143	233.872	0.080	-0.134
-464.128	-123.177	0.654	-0.106
-463.113	752.551	0.141	-0.383
-462.099	-24.751	0.103	-0.062
-461.084	-108.215	0.361	-0.079
-460.070	-112.958	-0.178	0.036
-459.055	652.722	-0.079	-0.206
-458.040	216.104	-0.057	-0.091
-457.026	298.735	-0.146	-0.272
-456.011	593.303	-0.088	-0.221
-454.997	94.898	0.097	0.111
-453.982	-129.255	0.160	-0.023
-452.968	-73.954	-0.483	-0.177
-451.953	-82.271	0.159	-0.052
-450.938	-122.885	0.327	-0.053
-449.924	800.000	-0.052	-0.177
-448.909	182.271	0.125	-0.186
-447.895	-41.883	-0.120	-0.062
-446.880	-37.338	-0.019	0.010
-445.865	381.408	0.091	-0.188
-444.851	50.406	-0.320	0.306
-443.836	-200.000	-0.003	0.144
-442.822	72.510	0.163	0.171
-441.807	-200.000	-0.080	-0.391
-440.792	11.459	-0.301	0.232
-439.778	-151.213	0.240	-0.018
-438.763	243.435	0.121	0.204
-437.749	-89.297	0.406	0.121
-436.734	-114.417	0.057	-0.011
-435.719	513.836	-0.050	0.118
-434.705	-200.000	0.008	-0.056
-433.690	-173.626	-0.294	0.009
-432.676	421.511	-0.164	0.354
-431.661	106.477	0.041	-0.049
-430.646	172.299	-0.111	-0.162
-429.632	76.533	-0.187	0.200
-428.617	152.016	0.225	0.309
-427.603	371.796	0.049	-0.101
-426.588	-200.000	-0.035	-0.172
-425.573	287.778	0.122	-0.223
-424.559	-124.739	0.382	-0.060
-423.544	-200.000	0.019	-0.101
-422.530	700.585	0.078	0.207
-421.515	662.251	-0.041	-0.106
-420.500	800.000	0.085	0.329
-419.486	800.000	-0.129	0.463
-418.471	800.000	0.094	0.267
-417.457	800.000	-0.056	-0.177
-416.442	-55.362	0.048	0.022
-415.428	-63.352	0.089	0.037
-414.413	800.000	-0.077	-0.229
-413.398	800.000	0.114	-0.328
-412.384	-48.217	0.042	-0.020
-411.369	146.230	0.113	-0.153
-410.355	-157.586	-0.330	-0.020
-409.340	-77.088	-0.367	0.129
-408.325	-200.000	-0.013	-0.211
-407.311	350.268	-0.074	-0.148
-406.296	552.013	-0.032	0.078
-405.282	469.764	-0.154	-0.348
-404.267	-174.732	0.380	-0.011
-403.252	-166.993	-0.234	0.010
-402.238	-131.568	-0.398	-0.053
-401.223	-152.019	-0.079	0.006
-400.209	-55.221	-0.228	0.103
-399.194	174.725	0.080	-0.116
-398.179	-164.727	0.343	0.016
-397.165	800.000	-0.077	0.222
-396.150	-200.000	0.038	0.230
-395.136	-134.973	-0.101	-0.012
-394.121	-178.385	0.222	-0.005
-393.106	-73.140	0.481	0.178
-392.092	-178.832	0.025	0.001
-391.077	-53.404	-0.094	-0.043
-390.063	-146.404	-0.136	0.012
-389.048	141.185	-0.326	0.434
-388.033	-38.073	-0.147	0.078
-387.019	-200.000	-0.011	0.080
-386.004	405.095	0.135	0.286
-384.990	115.529	0.160	0.197
-383.975	-7.615	0.113	0.077
-382.960	-46.118	0.164	-0.081
-381.946	-48.032	0.325	0.158
-380.931	-143.336	0.195	-0.019
-379.917	3.051	-0.116	-0.085
-378.902	609.834	-0.009	0.024
-377.888	-200.000	-0.022	-0.187
-376.873	4.883	0.118	-0.087
-375.858	-159.971	0.221	0.012
-374.844	-200.000	0.007	0.058
-373.829	-53.872	0.234	-0.108
-372.815	-200.000	-0.047	-0.234
-371.800	-164.937	-0.118	0.005
-370.785	236.065	-0.133	-0.221
-369.771	-200.000	0.037	-0.199
-368.756	13.246	0.294	0.229
-367.742	-151.627	-0.124	-0.009
-366.727	800.000	-0.049	-0.210
-365.712	86.384	-0.112	-0.124
-364.698	218.692	0.103	-0.165
-363.683	26.053	0.101	0.084
-362.669	-112.339	-0.269	-0.054
-361.654	25.472	0.210	-0.176
-360.639	95.820	-0.162	0.186
-359.625	-37.563	-0.154	-0.083
-358.610	-200.000	0.080	-0.378
-357.596	-200.000	-0.006	-0.111
-356.581	-200.000	0.019	-0.375
-355.566	-1.410	-0.071	-0.050
-354.552	-127.103	0.231	-0.034
-353.537	209.956	-0.044	-0.070
-352.523	-28.286	-0.240	-0.140
-351.508	-75.522	-0.154	0.055
-350.493	356.964	-0.137	0.274
-349.479	-119.934	0.240	-0.041
-348.464	2.210	-0.203	0.147
-347.450	105.616	-0.095	0.113
-346.435	-75.587	0.137	-0.049
-345.420	-16.717	-0.279	-0.177
-344.406	-157.907	-0.050	0.003
-343.391	-156.048	0.401	-0.026
-342.377	800.000	0.014	-0.045
-341.362	-57.346	0.200	0.088
-340.348	171.267	0.212	0.305
-339.333	316.024	0.184	0.350
-338.318	249.367	-0.229	-0.390
-337.304	40.204	0.052	0.047
-336.289	-135.276	-0.236	0.028
-335.275	126.695	0.125	0.159
-334.260	-71.853	-0.206	-0.077
-333.245	-47.709	-0.076	0.037
-332.231	-48.956	0.311	0.150
-331.216	3.121	-0.153	-0.112
-330.202	-142.624	0.275	-0.027
-329.187	162.470	-0.050	0.071
-328.172	-88.658	0.324	0.097
-327.158	-171.930	0.127	0.004
-326.143	-133.156	0.192	0.024
-325.129	-138.040	-0.103	0.012
-324.114	-89.122	-0.048	0.014
-323.099	-98.689	-0.196	-0.050
-322.085	67.683	-0.103	-0.105
-321.070	-200.000	0.046	-0.233
-320.056	-200.000	0.010	0.087
-319.041	54.311	-0.116	0.112
-318.026	51.520	-0.149	0.142
-317.012	472.865	0.053	0.120
-315.997	800.000	0.015	-0.067
-314.983	-196.768	0.225	-0.001
-313.968	800.000	0.144	0.423
-312.953	-74.452	0.245	0.089
-311.939	29.473	-0.190	0.162
-310.924	-46.650	0.527	-0.259
-309.910	69.094	0.086	-0.089
-308.895	800.000	0.077	0.238
-307.880	-132.705	-0.105	-0.014
-306.866	3.933	-0.095	0.069
-305.851	-200.000	-0.072	-0.358
-304.837	32.884	-0.313	0.272
-303.822	-54.196	0.313	-0.143
-302.807	-200.000	-0.008	0.427
-301.793	220.146	-0.156	-0.251
-300.778	175.552	0.189	-0.275
-299.764	-200.000	-0.002	-0.146
-298.749	-200.000	0.022	-0.237
-297.735	428.985	0.051	-0.110
-296.720	-52.282	-0.280	0.130
-295.705	243.109	-0.175	0.294
-294.691	5.450	0.127	0.094
-293.676	652.844	-0.105	-0.270
-292.662	21.032	-0.105	-0.085
-291.647	402.550	-0.123	-0.259
-290.632	-79.149	0.428	-0.146
-289.618	-200.000	-0.025	-0.226
-288.603	337.147	0.083	-0.162
-287.589	60.850	-0.162	-0.162
-286.574	800.000	0.054	-0.229
-285.559	-146.969	0.105	-0.009
-284.545	290.421	0.119	0.216
-283.530	-157.320	0.049	0.003
-282.516	-58.231	0.079	-0.035
-281.501	391.670	0.104	-0.216
-280.486	23.099	-0.184	0.151
-279.472	128.709	0.123	0.158
-278.457	1.014	0.063	0.046
-277.443	228.583	-0.105	0.171
-276.428	-13.971	-0.127	-0.082
-275.413	-125.163	0.203	0.031
-274.399	103.885	-0.085	0.100
-273.384	800.000	-0.153	0.455
-272.370	319.096	0.040	-0.075
-271.355	128.013	0.145	0.185
-270.340	-106.597	-0.390	-0.087
-269.326	800.000	0.011	0.035
-268.311	800.000	-0.077	-0.230
-267.297	41.198	-0.117	0.106
-266.282	13.470	0.197	0.153
-265.267	31.307	0.245	0.211
-264.253	97.396	0.170	0.195
-263.238	-25.522	0.163	0.097
-262.224	-27.694	0.066	-0.038
-261.209	-26.196	-0.349	-0.205
-260.195	-11.631	0.119	-0.078
-259.180	112.532	-0.250	-0.303
-258.165	-86.054	-0.268	0.083
-257.151	5.984	-0.122	-0.090
-256.136	-3.799	0.296	-0.206
-255.122	-178.414	-0.255	-0.006
-254.107	-136.481	-0.164	0.019
-253.092	800.000	0.112	-0.346
-252.078	-104.692	-0.163	0.038
-251.063	-193.138	-0.452	-0.004
-250.049	-36.316	0.244	0.132
-249.034	-200.000	0.043	0.361
-248.019	-61.401	-0.352	-0.148
-247.005	54.481	0.107	-0.104
-245.990	-200.000	-0.033	0.174
-244.976	-129.860	0.118	-0.016
-243.961	140.063	-0.151	0.199
-242.946	-200.000	0.011	-0.293
-241.932	63.851	-0.231	-0.232
-240.917	-200.000	0.032	0.346
-239.903	349.195	-0.188	-0.371
-238.888	601.019	0.145	0.359
-237.873	402.290	0.121	0.254
-236.859	407.204	-0.051	0.108
-235.844	133.426	-0.185	0.240
-234.830	800.000	0.057	0.214
-233.815	336.149	-0.132	0.257
-232.800	-200.000	-0.014	0.240
-231.786	-48.246	0.343	0.165
-230.771	198.559	0.150	0.229
-229.757	106.294	-0.114	0.136
-228.742	83.240	-0.199	0.217
-227.727	473.499	-0.162	0.366
-226.713	-200.000	0.015	-0.117
-225.698	-45.711	0.188	-0.093
-224.684	800.000	-0.059	-0.198
-223.669	20.165	0.191	-0.155
-222.655	-200.000	-0.017	0.116
-221.640	142.157	0.083	0.111
-220.625	-29.590	-0.286	-0.163
-219.611	159.794	-0.055	-0.077
-218.596	44.696	0.103	0.095
-217.582	565.123	0.084	-0.203
-216.567	-88.856	0.199	0.059
-215.552	-200.000	0.034	0.201
-214.538	-80.256	-0.334	0.112
-213.523	-200.000	-0.247	0.001
-212.509	99.654	-0.211	-0.244
-211.494	800.000	-0.018	0.052
-210.479	-200.000	-0.002	-0.089
-209.465	-139.997	0.200	0.021
-208.450	800.000	0.023	0.093
-207.436	-88.501	-0.308	-0.092
-206.421	-122.506	0.215	0.035
-205.406	-102.990	-0.085	-0.020
-204.392	-200.000	0.002	-0.095
-203.377	-68.836	-0.084	-0.032
-202.363	253.708	0.241	0.411
-201.348	-60.461	-0.374	-0.159
-200.333	9.040	-0.106	-0.080
-199.319	-200.000	0.054	-0.322
-198.304	-200.000	-0.005	0.261
-197.290	-147.354	-0.158	-0.013
-196.275	3.262	-0.123	0.089
-195.260	110.688	-0.285	0.343
-194.246	-87.742	0.252	-0.076
-193.231	-117.835	0.151	0.027
-192.217	33.558	-0.114	-0.099
-191.202	6.951	-0.213	-0.159
-190.187	370.260	-0.240	-0.485
-189.173	-120.618	0.254	0.043
-188.158	11.298	-0.288	0.220
-187.144	237.189	0.145	0.241
-186.129	33.684	-0.089	-0.077
-185.114	800.000	0.050	-0.186
-184.100	342.236	0.107	0.210
-183.085	182.616	-0.246	-0.362
-182.071	800.000	-0.096	-0.411
-181.056	800.000	-0.081	0.331
-180.042	151.538	0.090	-0.122
-179.027	-105.116	0.491	-0.112
-178.012	-133.671	-0.337	-0.042
-176.998	-59.212	0.228	-0.098
-175.983	-52.854	0.167	-0.077
-174.969	273.297	0.007	0.012
-173.954	-191.593	0.281	0.003
-172.939	-200.000	0.008	-0.161
-171.925	107.056	-0.048	-0.057
-170.910	-200.000	-0.021	0.223
-169.896	-71.577	0.279	-0.104
-168.881	800.000	0.054	0.152
-167.866	159.805	-0.077	0.107
-166.852	49.753	0.090	0.085
-165.837	30.359	0.363	0.309
-164.823	-121.409	0.119	0.020
-163.808	113.782	0.237	0.288
-162.793	606.072	0.104	0.258
-161.779	80.725	0.252	-0.271
-160.764	-97.118	-0.300	0.078
-159.750	-121.711	0.277	0.046
-158.735	-46.285	-0.429	-0.211
-157.720	4.331	0.283	-0.207
-156.706	48.231	-0.029	0.027
-155.691	-169.126	-0.108	0.004
-154.677	-39.753	0.280	0.146
-153.662	394.077	0.028	-0.058
-152.647	67.399	0.217	-0.221
-151.633	800.000	-0.037	-0.156
-150.618	-200.000	-0.009	0.274
-149.604	-103.568	-0.167	-0.039
-148.589	-88.834	-0.456	0.135
-147.574	79.986	-0.140	-0.150
-146.560	-144.689	-0.077	0.007
-145.545	-75.000	0.029	0.010
-144.531	-63.130	-0.121	0.050
-143.516	-8.517	0.111	0.075
-142.502	-48.694	-0.320	0.153
-141.487	-200.000	-0.031	-0.159
-140.472	796.248	-0.096	0.264
-139.458	-200.000	-0.033	0.253
-138.443	-133.553	0.104	0.013
-137.429	-200.000	0.023	0.100
-136.414	-187.792	-0.079	0.001
-135.399	-89.163	0.090	0.027
-134.385	-96.122	-0.331	0.088
-133.370	345.565	-0.027	0.052
-132.356	6.393	0.216	0.160
-131.341	-59.938	-0.506	0.216
-130.326	48.917	0.276	0.258
-129.312	54.948	0.219	0.211
-128.297	85.763	-0.040	-0.044
-127.283	152.275	-0.216	0.293
-126.268	-122.848	-0.199	-0.032
-125.253	-47.024	0.123	-0.060
-124.239	-66.880	0.230	0.091
-123.224	-94.906	0.367	-0.099
-122.210	89.015	-0.133	-0.148
-121.195	-110.280	-0.395	0.082
-120.180	197.858	-0.065	-0.099
-119.166	50.428	-0.097	0.092
-118.151	56.846	-0.149	-0.144
-117.137	-147.920	0.025	-0.002
-116.122	7.671	0.259	0.193
-115.107	493.805	-0.082	0.188
-114.093	38.594	-0.275	-0.244
-113.078	-40.217	0.236	-0.122
-112.064	-16.130	0.303	-0.191
-111.049	390.010	-0.107	0.221
-110.034	-200.000	0.006	0.034
-109.020	-200.000	-0.017	-0.121
-108.005	-200.000	-0.045	0.349
-106.991	34.214	0.202	0.176
-105.976	184.647	0.076	0.113
-104.962	83.709	-0.222	0.241
-103.947	-27.837	0.135	0.078
-102.932	-200.000	-0.044	0.340
-101.918	63.748	0.126	0.126
-100.903	124.243	0.079	-0.098
-99.889	-68.490	0.056	0.022
-98.874	81.277	0.162	-0.174
-97.859	-200.000	-0.044	0.195
-96.845	28.949	-0.094	-0.079
-95.830	-101.935	0.272	-0.065
-94.816	-140.025	-0.510	0.054
-93.801	-200.000	-0.030	0.321
-92.786	800.000	0.045	-0.187
-91.772	-200.000	-0.029	0.170
-90.757	73.892	0.216	0.225
-89.743	221.024	-0.075	0.121
-88.728	-200.000	-0.022	0.235
-87.713	47.247	-0.091	0.084
-86.699	-200.000	0.041	0.261
-85.684	-39.041	0.353	-0.184
-84.670	381.178	0.126	0.257
-83.655	294.093	-0.082	-0.149
-82.640	202.251	0.149	0.229
-81.626	800.000	-0.148	0.508
-80.611	-200.000	-0.009	0.176
-79.597	-59.514	0.418	0.179
-78.582	800.000	0.039	-0.123
-77.567	-141.214	0.395	-0.040
-76.553	-99.249	-0.172	0.043
-75.538	47.027	0.105	0.097
-74.524	-110.546	0.251	-0.052
-73.509	202.250	-0.162	-0.248
-72.494	-57.117	-0.308	0.135
-71.480	800.000	0.129	0.515
-70.465	309.210	-0.216	0.401
-69.451	574.422	0.097	0.235
-68.436	118.326	0.108	-0.133
-67.422	692.106	0.089	0.232
-66.407	800.000	0.077	0.327
-65.392	142.915	0.086	-0.114
-64.378	-200.000	0.002	0.118
-63.363	-160.834	0.153	-0.008
-62.349	364.431	-0.222	0.445
-61.334	34.903	-0.945	-0.821
-60.319	130.769	0.474	0.604
-59.305	519.481	-0.401	-0.934
-58.290	215.321	0.522	0.822
-57.276	795.190	0.475	1.298
-56.261	-200.000	93.009	544.597
-55.246	598.364	1379.413	3398.237
-54.232	186.816	2591.470	3835.668
-53.217	120.621	2208.812	2726.937
-52.203	45.406	1741.504	1596.620
-51.188	38.060	1550.293	1369.950
-50.173	35.677	1522.562	1328.941
-49.159	53.688	1572.535	1499.576
-48.144	57.152	1591.884	1542.335
-47.130	38.655	1547.140	1371.115
-46.115	35.209	1531.906	1333.628
-45.100	35.133	1528.469	1330.056
-44.086	35.095	1526.567	1328.089
-43.071	35.002	1524.758	1325.813
-42.057	34.976	1523.765	1324.719
-41.042	35.054	1521.828	1323.524
-40.027	35.021	1520.529	1322.113
-39.013	35.009	1518.609	1320.306
-37.998	34.960	1517.944	1319.340
-36.984	35.005	1516.902	1318.687
-35.969	35.081	1514.899	1317.420
-34.954	35.146	1513.321	1316.439
-33.940	35.030	1512.170	1314.595
-32.925	35.122	1510.616	1313.819
-31.911	35.057	1509.774	1312.591
-30.896	35.162	1507.949	1311.672
-29.881	35.114	1506.765	1310.259
-28.867	35.204	1505.103	1309.378
-27.852	35.136	1503.852	1307.772
-26.838	35.107	1502.388	1306.249
-25.823	35.155	1501.133	1305.433
-24.809	35.137	1498.926	1303.341
-23.794	34.999	1498.120	1301.649
-22.779	35.215	1496.560	1301.713
-21.765	35.129	1495.760	1300.377
-20.750	35.104	1494.580	1299.131
-19.736	35.096	1493.517	1298.099
-18.721	35.084	1492.500	1297.084
-17.706	35.042	1491.364	1295.763
-16.692	34.974	1490.418	1294.429
-15.677	35.083	1489.076	1293.948
-14.663	35.097	1488.185	1293.219
-13.648	35.015	1487.734	1292.224
-12.633	35.004	1486.394	1290.928
-11.619	35.005	1485.458	1290.076
-10.604	34.989	1484.620	1289.185
-9.590	35.051	1483.654	1288.713
-8.575	34.963	1483.100	1287.588
-7.560	35.035	1481.923	1287.001
-6.546	34.964	1481.262	1285.897
-5.531	35.084	1480.206	1285.737
-4.517	34.977	1479.010	1283.926
-3.502	35.037	1478.447	1283.791
-2.487	35.064	1477.656	1283.235
-1.473	35.002	1476.228	1281.527
-0.458	35.022	1474.632	1280.228
0.556	37.352	1466.172	1273.688
1.571	35.315	1441.261	1238.792
2.586	31.797	1378.766	1163.186
3.600	29.521	1294.017	1078.314
4.615	26.499	1245.253	1020.570
5.629	21.876	1186.759	947.635
6.644	13.203	1100.498	835.035
7.659	6.192	1058.695	769.057
8.673	4.976	1052.889	758.858
9.688	4.795	1049.748	755.648
10.702	4.578	1047.720	753.067
11.717	4.932	1046.332	753.714
12.731	8.116	1049.719	771.518
13.746	16.238	1061.446	819.668
14.761	21.634	1067.498	850.551
15.775	21.870	1066.751	851.024
16.790	20.999	1064.637	845.040
17.804	19.905	1062.741	838.166
18.819	19.036	1060.833	832.388
19.834	18.634	1059.139	829.042
20.848	18.283	1058.827	827.028
21.863	18.316	1058.025	826.489
22.877	17.780	1057.885	823.717
23.892	17.846	1056.854	823.160
24.907	17.902	1055.485	822.290
25.921	17.877	1054.877	821.624
26.936	17.813	1054.205	820.718
27.950	17.901	1052.623	819.840
28.965	17.948	1052.049	819.543
29.980	17.969	1050.940	818.710
30.994	18.011	1050.075	818.166
32.009	18.187	1048.963	818.066
33.023	18.183	1048.292	817.451
34.038	18.277	1047.525	817.228
35.053	18.150	1046.690	815.902
36.067	17.972	1045.531	814.078
37.082	17.996	1044.233	813.109
38.096	17.935	1043.982	812.553
39.111	18.074	1043.579	812.826
40.126	18.118	1042.448	812.081
41.140	18.102	1040.839	810.682
42.155	17.932	1039.997	809.149
43.169	17.695	1038.850	807.065
44.184	17.507	1038.147	805.555
45.199	17.586	1036.638	804.685
46.213	17.702	1035.622	804.373
47.228	17.620	1035.246	803.622
48.242	17.928	1033.880	803.945
49.257	17.936	1033.526	803.633
50.271	17.904	1032.323	802.479
51.286	17.927	1031.629	801.977
52.301	17.981	1030.765	801.483
53.315	17.978	1030.117	800.899
54.330	17.921	1028.926	799.633
55.344	17.835	1028.174	798.574
56.359	17.738	1026.920	797.077
57.374	17.746	1026.239	796.515
58.388	17.741	1025.150	795.577
59.403	17.651	1024.445	794.541
60.417	17.659	1023.538	793.802
61.432	17.497	1023.149	792.677
62.447	17.568	1022.246	792.238
63.461	17.462	1021.430	791.045
64.476	17.406	1020.015	789.616
65.490	17.422	1019.276	789.048
66.505	17.446	1018.518	788.505
67.520	17.403	1017.987	787.822
68.534	17.427	1017.550	787.527
69.549	17.411	1016.154	786.302
70.563	17.406	1015.291	785.540
71.578	17.351	1015.134	785.097
72.593	17.200	1013.977	783.436
73.607	17.276	1012.791	782.799
74.622	17.114	1012.111	781.461
75.636	17.137	1011.436	780.974
76.651	17.222	1010.397	780.494
77.666	17.369	1009.630	780.507
78.680	17.378	1009.030	780.015
79.695	17.329	1008.738	779.500
80.709	17.271	1008.655	779.099
81.724	17.527	1007.509	779.316
82.739	17.609	1006.735	779.024
83.753	17.665	1006.235	778.825
84.768	17.928	1004.973	778.980
85.782	18.054	1004.957	779.470
86.797	18.128	1004.318	779.245
87.812	18.141	1003.309	778.450
88.826	18.104	1002.523	777.603
89.841	18.004	1001.592	776.357
90.855	18.020	1000.746	775.709
91.870	18.146	1000.042	775.664
92.884	18.114	999.842	775.297
93.899	18.144	998.555	774.367
94.914	18.198	997.745	773.912
95.928	18.179	997.808	773.808
96.943	18.167	996.921	772.998
97.957	18.170	995.566	771.889
98.972	17.951	994.843	770.273
99.987	17.983	994.128	769.799
101.001	17.999	993.398	769.235
102.016	18.096	992.253	768.718
103.030	18.028	991.333	767.633
104.045	17.965	990.667	766.767
105.060	18.087	989.383	766.251
106.074	18.112	988.052	765.264
107.089	17.738	987.566	763.147
108.103	17.513	986.534	761.274
109.118	17.505	985.757	760.574
110.133	17.424	984.833	759.429
111.147	17.533	983.830	759.073
112.162	17.486	982.873	758.062
113.176	17.512	982.071	757.490
114.191	17.604	981.644	757.504
115.206	17.626	980.881	756.947
116.220	17.604	980.115	756.189
117.235	17.614	978.859	755.196
118.249	17.578	978.332	754.567
119.264	17.491	977.380	753.379
120.279	17.460	976.665	752.624
121.293	17.260	976.277	751.374
122.308	17.336	974.863	750.556
123.322	17.342	974.213	750.016
124.337	17.348	972.604	748.738
125.352	17.313	971.631	747.768
126.366	17.350	970.549	747.029
127.381	17.205	969.584	745.587
128.395	17.163	969.052	744.928
129.410	17.379	967.751	744.807
130.424	17.424	966.885	744.270
131.439	17.387	966.680	743.886
132.454	17.571	965.685	743.857
133.468	17.683	965.224	743.925
134.483	17.603	964.576	743.010
135.497	17.624	963.604	742.288
136.512	17.636	963.171	741.941
137.527	17.668	962.127	741.211
138.541	17.577	961.377	740.171
139.556	17.614	960.909	739.906
140.570	17.668	959.970	739.352
141.585	17.783	959.254	739.232
142.600	17.786	959.066	739.037
143.614	18.143	957.839	739.571
144.629	18.071	957.292	738.769
145.643	18.112	956.636	738.377
146.658	18.209	955.172	737.600
147.673	17.949	954.753	736.091
148.687	17.789	953.488	734.362
149.702	17.762	952.707	733.579
150.716	17.550	952.264	732.262
151.731	17.575	951.101	731.411
152.746	17.664	950.315	731.123
153.760	17.768	949.519	730.890
154.775	17.616	948.981	729.759
155.789	17.799	948.178	729.861
156.804	17.763	947.625	729.219
157.819	17.895	946.698	729.006
158.833	17.955	946.048	728.693
159.848	18.031	945.969	728.895
160.862	18.038	945.526	728.516
161.877	18.271	944.104	728.351
162.892	17.859	943.016	725.692
163.906	17.708	942.158	724.328
164.921	17.577	941.392	723.120
165.935	17.638	940.252	722.440
166.950	17.664	939.431	721.852
167.964	17.930	938.085	721.879
168.979	17.836	937.516	720.981
169.994	17.864	936.217	720.038
171.008	17.805	935.244	718.977
172.023	17.817	934.354	718.280
173.037	18.005	934.149	718.848
174.052	18.051	933.466	718.453
175.067	18.060	932.965	718.042
176.081	17.834	932.210	716.448
177.096	17.827	930.840	715.304
178.110	17.725	930.011	714.173
179.125	17.548	929.873	713.266
180.140	17.742	928.585	713.026
181.154	17.871	928.081	713.115
182.169	17.904	927.274	712.568
183.183	18.144	926.987	713.288
184.198	18.181	926.519	713.019
185.213	18.160	925.512	712.092
186.227	18.094	925.072	711.417
187.242	18.250	924.333	711.432
188.256	18.182	924.356	711.104
189.271	18.258	923.431	710.645
190.286	18.384	922.879	710.682
191.300	18.186	921.681	708.873
192.315	17.745	920.944	706.419
193.329	17.470	919.610	704.196
194.344	17.680	918.743	704.337
195.359	17.668	918.873	704.323
196.373	17.788	918.387	704.386
197.388	18.071	917.847	705.075
198.402	18.114	917.653	705.044
199.417	18.348	916.848	705.325
200.432	18.458	916.605	705.530
201.446	18.540	916.153	705.456
202.461	18.453	916.201	705.074
203.475	18.621	915.668	705.291
204.490	18.649	915.055	704.871
205.504	18.489	913.791	703.180
206.519	18.186	913.006	701.271
207.534	18.266	912.358	701.038
208.548	18.363	910.778	700.159
209.563	18.239	910.535	699.406
210.577	18.215	910.106	698.916
211.592	18.299	909.175	698.482
212.607	18.434	908.900	698.756
213.621	18.620	908.509	699.154
214.636	18.529	907.616	698.032
215.650	18.501	907.009	697.392
216.665	18.521	906.514	697.029
217.680	18.425	906.522	696.585
218.694	18.680	905.480	696.759
219.709	18.795	905.305	697.027
220.723	18.663	904.638	695.919
221.738	18.677	903.452	695.001
222.753	18.595	903.271	694.465
223.767	18.548	902.381	693.534
224.782	18.599	901.675	693.135
225.796	18.750	901.081	693.227
226.811	18.839	900.453	693.039
227.826	18.834	899.599	692.301
228.840	18.711	898.744	691.086
229.855	18.550	898.477	690.172
230.869	18.637	897.456	689.679
231.884	18.546	897.178	689.037
232.899	18.415	896.077	687.605
233.913	18.450	895.393	687.159
234.928	18.435	894.721	686.524
235.942	18.431	893.828	685.761
236.957	18.357	893.477	685.133
237.972	18.334	892.753	684.428
238.986	18.453	891.885	684.176
240.001	18.438	891.596	683.832
241.015	18.288	891.137	682.821
242.030	18.380	890.048	682.293
243.045	18.518	889.874	682.651
244.059	18.572	889.413	682.452
245.074	18.527	888.711	681.673
246.088	18.773	887.857	681.936
247.103	18.625	887.508	681.020
248.117	18.808	887.112	681.382
249.132	18.937	886.595	681.436
250.147	19.167	886.283	682.046
251.161	19.204	885.494	681.523
252.176	19.405	884.735	681.675
253.190	19.435	883.889	681.082
254.205	19.315	883.793	680.472
255.220	19.464	883.270	680.600
256.234	19.466	882.305	679.802
257.249	19.390	881.809	679.063
258.263	19.460	881.269	678.861
259.278	19.487	880.768	678.518
260.293	19.394	880.393	677.805
261.307	19.369	879.758	677.159
262.322	19.559	878.951	677.224
263.336	19.595	878.605	677.036
264.351	19.566	877.878	676.302
265.366	19.544	877.269	675.689
266.380	19.682	876.566	675.629
267.395	19.604	875.638	674.548
268.409	19.594	874.858	673.846
269.424	19.565	873.978	672.998
270.439	19.372	873.919	672.140
271.453	19.330	872.824	671.073
272.468	19.272	872.118	670.248
273.482	19.377	871.421	670.059
274.497	19.285	871.055	669.364
275.512	19.296	870.260	668.735
276.526	19.467	869.086	668.435
277.541	19.379	869.107	668.052
278.555	19.340	868.508	667.382
279.570	19.375	868.043	667.101
280.585	19.594	867.838	667.731
281.599	19.814	867.237	668.061
282.614	19.781	866.174	667.055
283.628	19.634	865.492	665.903
284.643	19.443	864.959	664.700
285.657	19.580	864.651	664.931
286.672	19.505	864.272	664.290
287.687	19.426	863.868	663.619
288.701	19.492	863.057	663.190
289.716	19.506	862.254	662.570
290.730	19.459	861.984	662.124
291.745	19.571	861.442	662.076
292.760	19.663	860.170	661.391
293.774	19.640	859.807	660.968
294.789	19.824	859.509	661.382
295.803	19.791	858.833	660.678
296.818	19.702	857.831	659.511
297.833	19.715	857.211	659.022
298.847	19.552	856.804	658.031
299.862	19.693	855.618	657.600
300.876	19.750	855.050	657.322
301.891	19.814	854.742	657.269
302.906	19.945	854.321	657.385
303.920	19.965	853.784	656.987
304.935	20.001	853.186	656.606
305.949	20.121	852.640	656.584
306.964	20.124	851.936	655.994
307.979	19.998	851.301	654.973
308.993	19.867	850.884	654.098
310.008	20.044	850.108	654.110
311.022	20.033	850.160	654.052
312.037	19.920	849.838	653.320
313.052	19.977	848.926	652.775
314.066	19.768	848.052	651.258
315.081	19.821	846.986	650.583
316.095	19.745	846.781	650.080
317.110	19.750	845.839	649.319
318.125	19.743	845.988	649.352
319.139	19.712	845.478	648.786
320.154	19.609	845.063	648.024
321.168	19.839	843.762	647.830
322.183	19.780	843.528	647.371
323.197	19.923	843.058	647.488
324.212	19.930	842.481	647.015
325.227	19.967	841.835	646.597
326.241	20.009	841.604	646.522
327.256	19.851	840.760	645.226
328.270	19.931	840.084	644.947
329.285	19.871	839.732	644.397
330.300	19.817	839.091	643.648
331.314	19.865	838.538	643.346
332.329	19.943	837.972	643.144
333.343	19.983	837.403	642.799
334.358	20.133	837.019	643.002
335.373	20.051	836.805	642.478
336.387	20.104	836.048	642.035
337.402	20.240	835.242	641.864
338.416	20.263	834.949	641.667
339.431	20.412	834.438	641.768
340.446	20.587	833.831	641.891
341.460	20.696	833.338	641.857
342.475	20.623	832.824	641.134
343.489	20.586	832.409	640.621
344.504	20.649	831.792	640.324
345.519	20.736	831.345	640.243
346.533	20.803	831.260	640.367
347.548	20.728	830.355	639.338
348.562	20.557	830.024	638.396
349.577	20.432	829.085	637.161
350.592	20.381	828.181	636.221
351.606	20.165	827.830	635.104
352.621	20.191	827.218	634.674
353.635	20.348	826.655	634.760
354.650	20.500	826.403	635.066
355.665	20.301	826.451	634.318
356.679	20.359	825.830	633.999
357.694	20.462	825.506	634.071
358.708	20.657	824.783	634.170
359.723	20.542	824.201	633.248
360.738	20.417	823.825	632.448
361.752	20.507	823.064	632.134
362.767	20.727	822.463	632.414
363.781	20.802	822.289	632.498
364.796	20.803	822.080	632.284
365.810	20.798	821.553	631.805
366.825	21.006	821.263	632.281
367.840	20.987	821.094	632.027
368.854	21.118	820.728	632.162
369.869	20.959	819.909	630.900
370.883	21.020	818.963	630.337
371.898	20.760	819.024	629.390
372.913	20.920	818.188	629.268
373.927	20.918	817.976	629.043
374.942	20.809	817.159	627.966
375.956	20.701	816.387	626.928
376.971	20.896	816.108	627.360
377.986	21.039	815.449	627.314
379.000	21.227	815.074	627.643
380.015	21.260	814.502	627.268
381.029	21.162	813.726	626.263
382.044	21.241	812.992	625.925
383.059	21.081	812.781	625.134
384.073	21.148	812.347	624.985
385.088	21.276	811.332	624.605
386.102	20.975	811.095	623.291
387.117	20.931	810.332	622.492
388.132	20.987	809.800	622.231
389.146	20.848	809.604	621.530
390.161	20.985	809.283	621.717
391.175	21.052	808.856	621.572
392.190	21.205	808.544	621.821
393.205	20.961	808.140	620.588
394.219	20.868	807.487	619.701
395.234	20.966	806.699	619.389
396.248	20.843	806.427	618.688
397.263	20.679	805.928	617.666
398.278	20.651	805.437	617.136
399.292	20.758	804.867	617.027
400.307	20.821	804.281	616.745
401.321	20.758	803.628	615.967
402.336	20.935	803.099	616.131
403.350	20.869	803.384	616.064
404.365	21.066	802.696	616.179
405.380	21.064	802.445	615.923
406.394	21.262	802.071	616.280
407.409	21.259	801.658	615.897
408.423	21.260	801.803	615.957
409.438	21.401	800.883	615.693
410.453	21.575	800.202	615.728
411.467	21.634	799.739	615.524
412.482	21.543	799.615	615.056
413.496	21.664	798.990	614.945
414.511	21.708	798.648	614.781
415.526	21.631	798.649	614.455
416.540	21.667	798.350	614.299
417.555	21.480	797.764	613.138
418.569	21.533	797.161	612.807
419.584	21.485	796.504	612.079
420.599	21.563	796.187	612.053
421.613	157.359	1367.721	1788.086
422.628	136.412	1451.005	1788.215
