DTS Sentinel unit serial number:	SN413079Multiplexer serial number:	ORYXHardware model number:	OX4-SRSoftware version number:	ORYX F/W v4.00 Oryx Data Collector v3.7.2.0data status	okinstallation	princeton_trtdifferential loss correction	single-endedforward channel	channel 3reverse channel	N/Adate	2019/09/18time	12:00:35forward acquisition time	60.00reverse acquisition time	0.00gamma	496.2192k internal	0.2323k external	0.2323temperature offset calibration	0.9963default loss term (dB/km)	0.3790temperature slope calibration	1.0000multiplexer offset coefficient	1.0000multiplexer slope coefficient	1.0000fibre end	0.00T internal ref (°C)	31.55T ext. ref 1 (°C)	0.49T ext. ref 2 (°C)	27.71length (m)	temperature (°C)	Stokes	anti-Stokes-747.200	-5.510	-0.095	-0.066
-746.185	33.514	0.215	0.189
-745.171	90.733	-0.153	-0.173
-744.156	799.390	-0.079	0.220
-743.142	800.000	-0.057	0.221
-742.127	-42.880	0.300	0.154
-741.112	31.578	-0.146	0.127
-740.098	800.000	-0.031	0.095
-739.083	-121.757	0.209	0.035
-738.069	327.615	-0.099	0.192
-737.054	752.955	0.120	-0.329
-736.039	-27.366	-0.414	-0.243
-735.025	-127.703	0.283	-0.041
-734.010	-200.000	-0.049	-0.264
-732.996	231.674	-0.278	0.460
-731.981	-134.373	0.094	-0.012
-730.966	-110.889	0.264	0.055
-729.952	-200.000	-0.078	-0.387
-728.937	222.965	-0.149	0.243
-727.923	41.554	0.194	0.177
-726.908	-62.858	0.210	-0.088
-725.894	350.683	-0.199	0.397
-724.879	663.292	0.075	0.195
-723.864	-45.086	-0.162	0.081
-722.850	800.000	0.051	-0.141
-721.835	800.000	0.048	0.189
-720.821	-152.301	-0.152	0.011
-719.806	-127.359	0.086	0.013
-718.791	-200.000	0.005	0.073
-717.777	-147.848	-0.338	0.028
-716.762	-95.717	-0.087	-0.024
-715.748	-200.000	-0.021	-0.443
-714.733	335.092	-0.133	-0.259
-713.718	22.413	-0.092	-0.076
-712.704	-53.149	0.101	-0.047
-711.689	-76.551	-0.239	-0.085
-710.675	-49.502	-0.075	-0.036
-709.660	23.817	-0.254	0.211
-708.645	129.528	0.123	-0.159
-707.631	-54.188	-0.218	0.100
-706.616	146.664	-0.194	0.263
-705.602	7.770	0.090	0.068
-704.587	-200.000	-0.008	-0.220
-703.572	-200.000	-0.013	-0.096
-702.558	-200.000	-0.016	-0.388
-701.543	800.000	0.069	0.297
-700.529	-51.278	-0.175	0.083
-699.514	-115.070	-0.259	-0.050
-698.499	-152.544	0.338	0.024
-697.485	167.531	0.166	-0.238
-696.470	-200.000	-0.006	-0.102
-695.456	800.000	0.044	-0.189
-694.441	141.508	0.075	-0.100
-693.426	157.466	-0.194	-0.270
-692.412	-10.772	-0.059	-0.039
-691.397	-200.000	-0.047	-0.344
-690.383	-200.000	0.031	0.250
-689.368	57.837	0.082	0.081
-688.354	41.091	-0.226	0.206
-687.339	53.396	0.129	-0.125
-686.324	593.141	-0.046	0.114
-685.310	75.817	0.195	-0.207
-684.295	-145.879	0.067	0.006
-683.281	-131.062	0.129	-0.017
-682.266	-125.490	0.045	-0.007
-681.251	133.447	-0.345	-0.449
-680.237	800.000	-0.102	0.384
-679.222	-200.000	-0.016	-0.149
-678.208	-188.321	-0.495	-0.006
-677.193	-200.000	0.014	0.228
-676.178	155.709	-0.099	0.137
-675.164	53.023	-0.270	-0.260
-674.149	800.000	-0.083	0.277
-673.135	296.932	-0.177	0.327
-672.120	-106.334	-0.335	0.076
-671.105	-200.000	-0.044	-0.302
-670.091	800.000	0.029	-0.090
-669.076	471.000	0.122	0.276
-668.062	11.483	-0.057	0.044
-667.047	-43.921	-0.199	0.101
-666.032	712.444	-0.058	-0.154
-665.018	800.000	0.031	0.091
-664.003	-116.046	-0.055	-0.010
-662.989	-132.664	-0.186	-0.024
-661.974	12.223	0.203	0.158
-660.959	-200.000	0.041	-0.466
-659.945	800.000	0.074	-0.290
-658.930	-165.807	-0.397	-0.017
-657.916	-195.479	0.388	-0.003
-656.901	584.616	0.156	-0.386
-655.886	-200.000	-0.020	0.130
-654.872	800.000	-0.006	0.018
-653.857	-31.438	-0.134	0.076
-652.843	180.260	0.037	0.054
-651.828	-200.000	0.006	0.317
-650.814	-123.378	0.269	-0.043
-649.799	-53.407	0.201	-0.093
-648.784	-62.067	-0.264	0.111
-647.770	-154.352	-0.128	-0.009
-646.755	244.999	-0.134	-0.227
-645.741	-96.899	-0.210	-0.056
-644.726	-89.417	0.352	-0.104
-643.711	-14.177	-0.170	-0.110
-642.697	-69.473	0.158	0.061
-641.682	-133.301	0.263	0.033
-640.668	-84.225	-0.333	0.106
-639.653	-100.969	-0.119	0.029
-638.638	46.476	0.279	0.260
-637.624	12.985	0.492	0.383
-636.609	558.718	-0.121	-0.294
-635.595	95.994	-0.222	-0.255
-634.580	100.670	0.079	0.092
-633.565	800.000	-0.056	0.179
-632.551	194.479	0.139	-0.212
-631.536	-79.849	-0.162	-0.055
-630.522	355.751	-0.014	-0.027
-629.507	-200.000	0.011	-0.057
-628.492	-200.000	-0.069	-0.317
-627.478	-34.701	0.288	0.158
-626.463	32.101	-0.121	-0.105
-625.449	70.821	0.137	0.143
-624.434	344.569	0.191	0.377
-623.419	-78.107	-0.051	-0.018
-622.405	800.000	0.135	-0.388
-621.390	-80.589	-0.275	-0.092
-620.376	198.912	-0.045	-0.069
-619.361	258.519	0.167	-0.290
-618.346	11.960	-0.213	-0.165
-617.332	-61.660	-0.134	0.057
-616.317	74.502	0.135	0.142
-615.303	-2.017	0.237	-0.167
-614.288	-55.028	-0.260	0.117
-613.273	-131.964	-0.131	0.017
-612.259	-200.000	0.001	-0.267
-611.244	-149.564	-0.253	0.020
-610.230	191.626	-0.200	-0.302
-609.215	-44.188	-0.220	0.111
-608.201	518.916	0.042	-0.099
-607.186	414.281	-0.024	0.051
-606.171	800.000	0.036	0.133
-605.157	-88.856	-0.194	0.058
-604.142	-115.297	-0.052	0.010
-603.128	800.000	-0.050	-0.198
-602.113	209.599	-0.097	0.153
-601.098	-92.847	0.446	-0.125
-600.084	132.976	0.089	0.115
-599.069	-200.000	-0.006	0.127
-598.055	800.000	0.056	-0.169
-597.040	476.350	-0.076	0.172
-596.025	800.000	-0.172	0.485
-595.011	-200.000	0.022	0.096
-593.996	-199.939	-0.032	-0.000
-592.982	-200.000	0.056	0.395
-591.967	-45.056	-0.275	0.137
-590.952	83.653	0.173	0.190
-589.938	494.867	0.046	0.106
-588.923	-70.096	-0.206	-0.079
-587.909	-200.000	-0.000	0.147
-586.894	182.029	-0.207	0.305
-585.879	-91.881	-0.305	-0.087
-584.865	734.358	-0.104	-0.280
-583.850	-200.000	0.002	0.131
-582.836	-200.000	0.000	0.257
-581.821	800.000	0.046	0.193
-580.806	800.000	-0.061	0.189
-579.792	573.219	0.043	0.105
-578.777	-45.927	0.253	0.125
-577.763	-131.819	0.105	0.014
-576.748	550.750	-0.154	-0.372
-575.733	-184.391	-0.136	-0.002
-574.719	-81.493	-0.062	-0.021
-573.704	-200.000	-0.014	0.062
-572.690	-200.000	-0.011	-0.231
-571.675	245.350	-0.068	0.114
-570.661	81.588	0.172	0.187
-569.646	-134.740	0.071	-0.009
-568.631	182.758	-0.168	-0.248
-567.617	-139.267	0.293	-0.032
-566.602	-17.231	0.283	-0.179
-565.588	-200.000	0.056	0.251
-564.573	-69.347	0.402	0.155
-563.558	63.715	-0.114	-0.115
-562.544	-3.331	0.266	0.186
-561.529	-200.000	-0.007	-0.112
-560.515	296.205	0.118	0.217
-559.500	800.000	-0.068	0.220
-558.485	-200.000	-0.050	-0.294
-557.471	-200.000	0.009	0.121
-556.456	-145.561	-0.250	-0.022
-555.442	-127.312	0.270	-0.039
-554.427	-200.000	0.012	-0.073
-553.412	-101.445	0.031	0.008
-552.398	-58.776	-0.254	0.110
-551.383	7.494	0.080	0.060
-550.369	103.021	-0.106	0.124
-549.354	-200.000	0.220	0.001
-548.339	27.303	0.101	0.085
-547.325	-98.205	-0.218	0.056
-546.310	103.121	-0.074	-0.087
-545.296	-191.339	-0.132	-0.001
-544.281	23.700	0.093	0.076
-543.266	422.224	-0.091	0.196
-542.252	279.628	0.105	0.188
-541.237	16.073	0.396	-0.313
-540.223	-200.000	0.008	0.190
-539.208	-99.962	0.256	-0.064
-538.193	800.000	0.023	0.066
-537.179	800.000	0.095	0.375
-536.164	-200.000	0.025	0.128
-535.150	300.072	-0.104	-0.191
-534.135	660.993	0.103	-0.266
-533.121	-105.834	0.230	-0.052
-532.106	-113.057	0.200	0.040
-531.091	-69.610	-0.138	0.053
-530.077	-84.042	0.232	0.074
-529.062	208.995	-0.111	0.173
-528.048	-200.000	0.059	0.501
-527.033	550.461	-0.049	-0.117
-526.018	-117.840	-0.189	0.034
-525.004	-159.160	0.173	0.010
-523.989	-102.106	0.433	0.105
-522.975	297.056	0.049	-0.091
-521.960	-55.576	0.018	0.008
-520.945	110.243	0.170	-0.204
-519.931	-200.000	-0.031	-0.147
-518.916	-15.892	-0.231	-0.147
-517.902	-124.482	-0.359	0.056
-516.887	-98.881	0.289	0.073
-515.872	446.246	0.041	-0.091
-514.858	180.107	0.138	-0.203
-513.843	-72.774	0.091	0.034
-512.829	-135.071	0.188	-0.023
-511.814	-144.558	-0.222	-0.021
-510.799	-200.000	0.039	-0.382
-509.785	21.846	-0.061	-0.050
-508.770	219.659	-0.127	0.203
-507.756	-117.236	-0.256	-0.046
-506.741	800.000	-0.123	-0.359
-505.726	684.234	0.065	-0.169
-504.712	-200.000	0.151	0.001
-503.697	800.000	-0.081	-0.250
-502.683	133.508	0.217	-0.281
-501.668	800.000	0.014	0.054
-500.653	529.904	0.043	0.102
-499.639	-75.945	0.062	0.022
-498.624	101.263	0.028	-0.032
-497.610	166.294	-0.127	0.181
-496.595	237.404	-0.063	0.104
-495.581	44.772	0.045	0.041
-494.566	74.977	-0.115	0.121
-493.551	84.706	-0.239	0.262
-492.537	-125.349	0.046	-0.007
-491.522	-52.046	0.148	-0.069
-490.508	672.820	0.028	0.073
-489.493	61.524	-0.160	0.160
-488.478	72.595	0.080	0.084
-487.464	-200.000	0.000	-0.450
-486.449	-200.000	-0.018	0.140
-485.435	589.823	0.046	0.113
-484.420	-80.524	-0.140	-0.047
-483.405	-96.333	0.156	0.041
-482.391	800.000	0.075	-0.225
-481.376	-72.137	0.213	0.079
-480.362	-200.000	-0.013	0.101
-479.347	800.000	-0.082	-0.288
-478.332	-32.914	0.033	-0.018
-477.318	-106.118	-0.296	-0.067
-476.303	-200.000	0.097	0.484
-475.289	-141.848	0.165	-0.017
-474.274	-154.759	-0.372	-0.025
-473.259	-154.129	0.321	0.022
-472.245	11.268	0.212	-0.162
-471.230	-83.815	0.532	-0.169
-470.216	358.757	0.093	0.185
-469.201	-40.926	0.108	0.056
-468.186	-145.131	0.137	0.012
-467.172	-90.258	-0.226	0.066
-466.157	800.000	0.080	-0.336
-465.143	-18.104	-0.032	-0.020
-464.128	-11.703	-0.143	-0.094
-463.113	601.929	0.051	-0.127
-462.099	-119.462	0.236	0.041
-461.084	58.144	0.085	0.083
-460.070	-136.579	0.169	0.020
-459.055	-100.707	0.141	-0.035
-458.040	473.318	0.120	0.270
-457.026	-78.458	0.081	-0.028
-456.011	-152.837	0.231	-0.016
-454.997	-101.326	-0.311	0.076
-453.982	-200.000	-0.003	0.088
-452.968	85.437	-0.103	0.113
-451.953	154.667	0.035	-0.048
-450.938	-126.682	-0.140	-0.021
-449.924	617.420	-0.182	-0.455
-448.909	-109.698	-0.266	-0.056
-447.895	70.115	0.283	-0.292
-446.880	-200.000	-0.011	-0.055
-445.865	685.355	-0.114	0.298
-444.851	-200.000	0.005	-0.072
-443.836	-200.000	-0.030	0.265
-442.822	47.575	-0.085	0.079
-441.807	545.403	-0.104	0.248
-440.792	257.792	0.195	-0.336
-439.778	-200.000	-0.021	-0.152
-438.763	-24.951	-0.233	-0.138
-437.749	-115.500	0.378	-0.071
-436.734	25.667	0.257	0.214
-435.719	800.000	-0.055	0.155
-434.705	-200.000	0.027	0.134
-433.690	-62.527	0.204	0.084
-432.676	-159.887	0.226	-0.012
-431.661	-31.638	-0.189	-0.106
-430.646	-200.000	0.012	0.068
-429.632	800.000	-0.067	-0.286
-428.617	146.591	-0.215	-0.289
-427.603	-117.376	0.144	0.026
-426.588	576.916	-0.079	0.193
-425.573	-59.006	0.059	-0.026
-424.559	800.000	0.037	0.116
-423.544	800.000	-0.023	-0.085
-422.530	800.000	0.022	0.062
-421.515	-70.087	-0.057	0.022
-420.500	-51.171	0.113	0.053
-419.486	-200.000	-0.040	-0.261
-418.471	111.055	-0.108	-0.130
-417.457	800.000	-0.051	-0.190
-416.442	-125.589	-0.051	-0.008
-415.428	62.375	-0.149	-0.148
-414.413	-200.000	-0.029	-0.345
-413.398	-76.915	0.475	0.165
-412.384	103.152	0.097	0.113
-411.369	-39.295	0.075	-0.039
-410.355	29.517	-0.094	-0.080
-409.340	-200.000	-0.012	-0.125
-408.325	-200.000	0.044	0.210
-407.311	-92.626	0.230	0.064
-406.296	-65.923	0.082	0.033
-405.282	-200.000	0.058	-0.443
-404.267	15.297	-0.094	-0.074
-403.252	72.553	0.095	0.099
-402.238	330.209	-0.082	-0.158
-401.223	-35.833	-0.158	0.085
-400.209	-200.000	-0.019	0.114
-399.194	51.025	-0.375	-0.354
-398.179	29.678	0.093	-0.079
-397.165	-114.912	0.177	-0.034
-396.150	-200.000	-0.018	0.297
-395.136	-52.299	0.169	0.078
-394.121	-129.098	0.171	0.024
-393.106	62.017	-0.183	-0.181
-392.092	401.414	-0.010	-0.020
-391.077	260.535	-0.148	0.255
-390.063	-200.000	0.004	0.133
-389.048	68.692	-0.036	0.037
-388.033	141.482	0.106	0.140
-387.019	-75.556	-0.094	-0.033
-386.004	-130.292	0.530	0.072
-384.990	800.000	0.016	-0.056
-383.975	-149.002	-0.380	-0.030
-382.960	-200.000	-0.045	-0.309
-381.946	-22.100	-0.021	0.013
-380.931	800.000	0.019	0.071
-379.917	-54.656	-0.107	-0.048
-378.902	800.000	0.124	0.442
-377.888	136.000	-0.127	-0.165
-376.873	598.354	-0.041	0.102
-375.858	800.000	0.104	0.369
-374.844	660.853	-0.047	-0.121
-373.829	230.695	0.090	0.146
-372.815	37.837	-0.165	-0.146
-371.800	-200.000	-0.013	-0.199
-370.785	202.937	-0.129	0.199
-369.771	57.116	-0.165	0.161
-368.756	-123.131	-0.287	-0.046
-367.742	-200.000	-0.021	-0.198
-366.727	-28.608	-0.249	-0.143
-365.712	298.336	-0.053	0.097
-364.698	87.916	0.106	-0.117
-363.683	247.238	-0.228	-0.384
-362.669	-200.000	0.033	0.355
-361.654	134.609	0.155	0.200
-360.639	-89.668	-0.194	-0.057
-359.625	-99.542	0.243	0.061
-358.610	-73.353	0.102	-0.037
-357.596	160.641	-0.281	-0.390
-356.581	116.161	-0.067	0.081
-355.566	-142.020	-0.210	-0.021
-354.552	46.591	0.129	-0.119
-353.537	436.470	-0.126	0.273
-352.523	306.467	0.110	0.204
-351.508	-106.006	-0.221	0.049
-350.493	238.753	0.140	-0.231
-349.479	800.000	0.017	-0.064
-348.464	-200.000	0.035	-0.327
-347.450	-43.363	0.081	-0.041
-346.435	40.049	0.326	0.291
-345.420	-159.093	-0.300	0.017
-344.406	81.360	-0.218	-0.234
-343.391	-200.000	-0.056	-0.376
-342.377	-200.000	-0.028	0.168
-341.362	-10.146	0.150	-0.099
-340.348	245.571	-0.070	-0.118
-339.333	800.000	-0.123	0.438
-338.318	-200.000	0.009	0.116
-337.304	-144.409	-0.239	0.022
-336.289	-119.717	-0.061	-0.010
-335.275	104.144	-0.130	-0.152
-334.260	-200.000	0.001	0.287
-333.245	800.000	0.033	-0.107
-332.231	634.986	0.098	-0.247
-331.216	-39.376	-0.152	-0.079
-330.202	800.000	-0.068	0.226
-329.187	223.212	0.153	-0.245
-328.172	255.388	0.048	0.082
-327.158	25.276	-0.247	0.204
-326.143	-132.529	0.076	-0.010
-325.129	60.488	-0.054	-0.053
-324.114	163.603	0.246	0.344
-323.099	-200.000	-0.027	0.186
-322.085	-200.000	0.000	-0.143
-321.070	-51.653	-0.489	0.226
-320.056	-28.005	-0.259	-0.149
-319.041	68.896	0.085	-0.087
-318.026	259.342	0.088	0.150
-317.012	204.009	0.190	-0.293
-315.997	-114.758	0.075	0.014
-314.983	-128.716	0.106	0.015
-313.968	-87.772	0.165	0.050
-312.953	-200.000	-0.006	0.107
-311.939	137.295	-0.028	0.036
-310.924	181.812	0.215	-0.315
-309.910	34.518	0.141	-0.123
-308.895	55.937	0.098	-0.095
-307.880	80.458	-0.136	-0.146
-306.866	-93.268	-0.231	-0.064
-305.851	611.503	0.051	0.126
-304.837	219.567	0.197	-0.313
-303.822	-200.000	-0.012	0.061
-302.807	41.528	0.150	0.134
-301.793	-200.000	-0.049	-0.279
-300.778	-119.777	0.164	-0.028
-299.764	466.657	0.040	-0.090
-298.749	-19.694	0.142	-0.087
-297.735	-124.504	-0.167	0.026
-296.720	180.884	0.139	0.203
-295.705	-191.697	-0.409	-0.004
-294.691	-140.021	0.297	-0.031
-293.676	285.378	-0.192	-0.343
-292.662	298.655	-0.071	0.130
-291.647	-200.000	-0.062	0.395
-290.632	98.943	0.195	-0.223
-289.618	-200.000	0.001	0.090
-288.603	27.814	0.327	-0.273
-287.589	-127.685	0.356	-0.051
-286.574	164.216	0.129	0.180
-285.559	532.969	-0.129	0.304
-284.545	800.000	0.041	0.135
-283.530	-200.000	0.010	-0.181
-282.516	-200.000	-0.012	0.227
-281.501	13.391	0.081	0.063
-280.486	210.254	0.010	0.016
-279.472	-53.478	0.138	-0.062
-278.457	-200.000	-0.010	0.272
-277.443	-43.104	-0.217	-0.109
-276.428	353.056	-0.073	-0.144
-275.413	6.870	0.286	0.211
-274.399	-167.151	-0.108	-0.004
-273.384	-100.552	-0.151	0.037
-272.370	-200.000	-0.013	0.097
-271.355	-148.252	0.450	0.037
-270.340	-11.213	-0.234	0.153
-269.326	3.233	-0.316	0.228
-268.311	-200.000	0.006	-0.067
-267.297	-104.022	-0.152	0.035
-266.282	-31.195	-0.243	0.136
-265.267	-18.239	-0.247	0.153
-264.253	3.347	0.018	0.013
-263.238	-103.786	-0.141	0.033
-262.224	-25.291	0.206	0.121
-261.209	800.000	0.081	-0.233
-260.195	800.000	-0.050	-0.207
-259.180	-150.130	0.218	-0.017
-258.165	-168.771	-0.125	-0.005
-257.151	70.696	0.304	0.312
-256.136	-49.684	0.330	0.155
-255.122	-174.685	0.117	-0.003
-254.107	-22.542	-0.237	0.142
-253.092	304.107	0.081	0.148
-252.078	800.000	-0.157	0.429
-251.063	-200.000	-0.002	-0.059
-250.049	-200.000	-0.001	0.133
-249.034	-73.375	0.071	0.026
-248.019	218.872	-0.120	-0.191
-247.005	-75.021	-0.114	0.040
-245.990	-200.000	-0.027	0.123
-244.976	-160.412	-0.161	0.009
-243.961	-82.915	-0.175	0.056
-242.946	195.678	0.091	0.138
-241.932	-200.000	0.023	0.112
-240.917	-200.000	0.015	0.132
-239.903	800.000	-0.066	-0.249
-238.888	211.418	-0.160	0.249
-237.873	135.366	0.237	-0.306
-236.859	-81.769	-0.303	0.098
-235.844	233.966	0.221	0.361
-234.830	-53.000	-0.315	-0.143
-233.815	-34.556	0.277	-0.150
-232.800	-28.219	-0.052	0.030
-231.786	-101.079	-0.109	0.026
-230.771	800.000	0.063	-0.192
-229.757	-32.962	-0.350	-0.192
-228.742	115.646	-0.130	-0.158
-227.727	-140.435	0.234	-0.024
-226.713	-1.128	0.159	0.112
-225.698	-147.724	0.090	0.008
-224.684	-94.440	-0.335	-0.090
-223.669	-127.237	0.102	0.015
-222.655	-54.338	0.018	0.008
-221.640	-86.382	-0.332	0.101
-220.625	514.175	-0.055	0.128
-219.611	606.369	0.063	0.155
-218.596	-200.000	0.006	0.136
-217.582	193.507	-0.113	0.169
-216.567	-200.000	0.043	0.307
-215.552	-6.587	0.109	-0.073
-214.538	-6.291	-0.107	-0.072
-213.523	-60.008	-0.227	0.096
-212.509	431.287	0.136	-0.291
-211.494	-30.364	0.362	0.203
-210.479	-125.143	0.234	-0.035
-209.465	-62.721	0.379	-0.155
-208.450	-115.940	-0.125	-0.023
-207.436	-127.120	0.149	0.022
-206.421	800.000	-0.098	0.286
-205.406	-166.417	0.231	0.010
-204.392	-87.060	-0.368	0.111
-203.377	150.884	0.043	0.058
-202.363	-38.278	0.153	0.080
-201.348	-88.157	-0.292	0.087
-200.333	109.899	0.273	-0.324
-199.319	79.692	-0.237	-0.251
-198.304	-200.000	-0.015	-0.188
-197.290	-106.848	0.113	-0.025
-196.275	800.000	-0.057	0.178
-195.260	-74.094	0.197	-0.070
-194.246	-200.000	0.009	0.084
-193.231	-83.644	0.097	-0.031
-192.217	-142.690	-0.310	0.030
-191.202	369.052	0.125	-0.251
-190.187	293.711	-0.091	-0.164
-189.173	-6.092	-0.173	-0.117
-188.158	174.085	0.215	0.308
-187.144	-182.868	-0.379	-0.007
-186.129	-155.131	-0.092	0.006
-185.114	800.000	0.012	0.038
-184.100	-40.873	0.241	-0.123
-183.085	265.855	-0.299	-0.516
-182.071	-123.583	-0.313	-0.049
-181.056	236.111	0.128	-0.209
-180.042	-21.456	0.275	-0.166
-179.027	-200.000	-0.009	-0.042
-178.012	33.390	0.134	-0.115
-176.998	-130.968	-0.222	-0.029
-175.983	-128.418	-0.102	-0.014
-174.969	-91.078	0.255	-0.072
-173.954	24.582	-0.171	-0.140
-172.939	-200.000	-0.041	-0.212
-171.925	-200.000	0.013	0.251
-170.910	112.351	-0.204	-0.244
-169.896	71.160	0.089	0.091
-168.881	-200.000	-0.021	-0.137
-167.866	-200.000	0.037	0.209
-166.852	-142.929	0.171	-0.016
-165.837	-110.284	0.064	0.013
-164.823	17.432	-0.093	-0.073
-163.808	199.065	-0.292	-0.441
-162.793	-92.627	-0.126	0.035
-161.779	356.836	-0.138	-0.271
-160.764	-200.000	-0.060	-0.284
-159.750	19.061	0.106	-0.084
-158.735	70.940	-0.225	0.230
-157.720	207.148	-0.061	0.094
-156.706	-200.000	-0.006	0.052
-155.691	-62.260	-0.260	0.107
-154.677	-85.798	0.238	-0.073
-153.662	92.100	0.076	0.085
-152.647	-200.000	0.031	0.178
-151.633	12.509	-0.311	-0.237
-150.618	51.743	0.030	-0.028
-149.604	-79.175	-0.008	0.003
-148.589	-35.286	0.205	-0.110
-147.574	-200.000	-0.067	-0.408
-146.560	-167.077	0.348	-0.014
-145.545	57.396	-0.156	-0.150
-144.531	266.878	0.063	-0.108
-143.516	-148.652	0.194	-0.016
-142.502	181.571	0.104	0.151
-141.487	-200.000	-0.036	-0.232
-140.472	-200.000	0.071	0.344
-139.458	800.000	-0.067	0.238
-138.443	-200.000	-0.045	0.255
-137.429	-200.000	-0.027	-0.379
-136.414	-12.567	0.366	0.236
-135.399	-59.192	0.256	-0.109
-134.385	135.631	-0.348	0.447
-133.370	-31.334	0.096	0.053
-132.356	-59.138	0.057	0.024
-131.341	581.396	-0.117	0.282
-130.326	5.162	0.190	0.138
-129.312	-146.813	-0.119	-0.010
-128.297	-163.115	0.354	-0.017
-127.283	58.084	0.249	-0.240
-126.268	248.795	-0.149	0.249
-125.253	544.774	0.032	0.076
-124.239	-200.000	0.006	0.075
-123.224	-12.629	0.248	-0.160
-122.210	472.327	-0.039	0.087
-121.195	-37.907	-0.327	-0.172
-120.180	-61.282	0.097	-0.040
-119.166	-103.559	-0.319	0.074
-118.151	-41.704	0.111	-0.056
-117.137	-40.302	-0.216	-0.111
-116.122	455.879	0.063	0.138
-115.107	11.354	-0.062	-0.047
-114.093	29.013	0.289	0.242
-113.078	161.247	-0.077	0.106
-112.064	-84.202	-0.061	-0.019
-111.049	148.994	0.027	0.036
-110.034	-59.703	-0.246	0.104
-109.020	-32.786	0.330	-0.181
-108.005	-200.000	0.014	-0.201
-106.991	-200.000	0.037	0.201
-105.976	343.156	0.177	-0.342
-104.962	-200.000	-0.021	-0.274
-103.947	-200.000	-0.021	0.133
-102.932	52.198	0.140	0.132
-101.918	111.511	0.063	0.075
-100.903	-52.552	0.312	0.142
-99.889	-67.142	-0.225	0.087
-98.874	48.018	-0.211	-0.195
-97.859	-200.000	-0.017	-0.089
-96.845	-69.096	0.266	-0.101
-95.830	-200.000	0.024	-0.408
-94.816	-80.968	-0.331	-0.108
-93.801	491.197	0.035	-0.079
-92.786	561.935	0.052	0.125
-91.772	-81.344	0.079	0.026
-90.757	271.348	-0.079	0.136
-89.743	-115.217	-0.339	-0.063
-88.728	159.473	0.103	-0.141
-87.713	-16.230	0.192	0.120
-86.699	-88.021	0.087	-0.026
-85.684	-14.615	0.448	0.284
-84.670	-72.660	-0.344	0.125
-83.655	3.543	-0.178	0.128
-82.640	-2.501	0.211	-0.146
-81.626	106.210	-0.155	0.181
-80.611	800.000	0.093	-0.363
-79.597	-25.510	0.040	-0.023
-78.582	0.082	0.046	-0.032
-77.567	-144.423	0.095	0.009
-76.553	-54.858	-0.271	-0.120
-75.538	-200.000	0.001	0.006
-74.524	-87.884	-0.307	-0.091
-73.509	-40.030	0.200	-0.102
-72.494	-87.083	0.375	0.112
-71.480	657.603	-0.068	0.172
-70.465	-200.000	0.025	-0.287
-69.451	-64.231	-0.157	-0.063
-68.436	-62.563	-0.202	-0.082
-67.422	78.177	0.226	0.238
-66.407	189.110	-0.228	-0.335
-65.392	-45.034	-0.369	-0.181
-64.378	-200.000	0.052	0.291
-63.363	306.356	-0.060	-0.111
-62.349	8.795	0.271	0.201
-61.334	99.032	-0.859	-0.976
-60.319	1.940	0.564	0.400
-59.305	210.848	-0.422	-0.652
-58.290	219.685	0.897	1.412
-57.276	658.952	0.572	1.448
-56.261	-200.000	94.499	564.596
-55.246	510.528	1405.165	3213.678
-54.232	154.123	2603.415	3510.913
-53.217	109.721	2210.455	2605.243
-52.203	42.368	1739.813	1554.882
-51.188	34.759	1547.564	1330.291
-50.173	32.210	1521.004	1289.938
-49.159	51.751	1568.783	1467.007
-48.144	52.937	1586.490	1491.766
-47.130	34.962	1546.869	1330.895
-46.115	31.833	1532.491	1296.865
-45.100	31.683	1528.859	1292.706
-44.086	31.658	1527.033	1290.942
-43.071	31.608	1524.647	1288.526
-42.057	31.585	1523.231	1287.122
-41.042	31.549	1522.101	1285.866
-40.027	31.599	1520.550	1284.853
-39.013	31.519	1518.591	1282.596
-37.998	31.431	1517.611	1281.113
-36.984	31.555	1516.261	1280.772
-35.969	31.495	1515.207	1279.417
-34.954	31.573	1513.857	1278.761
-33.940	31.505	1512.297	1276.932
-32.925	31.588	1511.080	1276.420
-31.911	31.684	1509.010	1275.273
-30.896	31.687	1507.816	1274.236
-29.881	31.614	1506.872	1272.887
-28.867	31.582	1505.583	1271.535
-27.852	31.588	1503.811	1270.028
-26.838	31.649	1502.432	1269.222
-25.823	31.680	1501.205	1268.345
-24.809	31.609	1499.316	1266.221
-23.794	31.639	1497.827	1265.119
-22.779	31.636	1496.840	1264.209
-21.765	31.605	1495.309	1262.657
-20.750	31.579	1494.460	1261.714
-19.736	31.565	1493.383	1260.662
-18.721	31.519	1492.395	1259.469
-17.706	31.543	1490.933	1258.345
-16.692	31.540	1489.525	1257.089
-15.677	31.481	1488.915	1256.127
-14.663	31.499	1487.799	1255.258
-13.648	31.582	1486.641	1254.788
-12.633	31.583	1485.864	1254.086
-11.619	31.473	1485.400	1252.912
-10.604	31.478	1484.520	1252.149
-9.590	31.465	1483.505	1251.159
-8.575	31.444	1483.024	1250.560
-7.560	31.462	1481.581	1249.420
-6.546	31.421	1480.593	1248.258
-5.531	31.552	1479.309	1248.003
-4.517	31.425	1478.575	1246.486
-3.502	31.506	1477.502	1246.073
-2.487	31.484	1476.280	1244.847
-1.473	31.490	1475.672	1244.323
-0.458	31.500	1474.298	1243.183
0.556	30.191	1465.148	1233.253
1.571	27.415	1439.003	1192.977
2.586	23.812	1376.545	1118.471
3.600	21.912	1292.253	1038.650
4.615	20.063	1246.379	991.127
5.629	17.265	1188.918	930.058
6.644	8.924	1101.720	819.311
7.659	1.828	1060.064	753.279
8.673	0.633	1054.530	743.398
9.688	0.491	1051.363	740.406
10.702	0.412	1050.171	739.111
11.717	0.415	1048.305	737.750
12.731	3.034	1050.373	751.960
13.746	11.101	1061.512	799.619
14.761	16.739	1068.605	832.691
15.775	17.294	1068.292	835.097
16.790	16.719	1066.448	830.765
17.804	15.739	1064.300	824.215
18.819	14.794	1062.707	818.284
19.834	14.495	1060.736	815.233
20.848	14.095	1060.234	812.817
21.863	13.775	1059.640	810.730
22.877	13.659	1058.638	809.324
23.892	13.318	1057.799	806.949
24.907	13.273	1056.791	805.888
25.921	13.297	1056.185	805.470
26.936	13.211	1055.650	804.573
27.950	13.251	1055.198	804.353
28.965	13.356	1054.268	804.081
29.980	13.459	1052.784	803.378
30.994	13.619	1052.199	803.636
32.009	13.699	1051.147	803.151
33.023	13.565	1050.839	802.194
34.038	13.572	1049.940	801.474
35.053	13.540	1049.075	800.584
36.067	13.511	1047.881	799.462
37.082	13.460	1047.031	798.500
38.096	13.508	1046.423	798.196
39.111	13.498	1045.635	797.478
40.126	13.509	1044.914	796.907
41.140	13.578	1043.729	796.268
42.155	13.360	1043.054	794.632
43.169	13.321	1042.231	793.747
44.184	13.268	1041.199	792.637
45.199	13.278	1039.989	791.693
46.213	13.282	1038.828	790.760
47.228	13.383	1037.937	790.493
48.242	13.430	1036.902	789.860
49.257	13.413	1035.935	788.972
50.271	13.385	1035.765	788.640
51.286	13.366	1034.381	787.428
52.301	13.408	1033.516	786.897
53.315	13.405	1032.682	786.178
54.330	13.378	1032.117	785.552
55.344	13.492	1031.030	785.198
56.359	13.360	1030.059	783.763
57.374	13.412	1029.228	783.305
58.388	13.432	1028.499	782.777
59.403	13.289	1027.619	781.362
60.417	13.258	1027.241	780.861
61.432	13.411	1026.025	780.585
62.447	13.399	1025.278	779.892
63.461	13.215	1024.692	778.511
64.476	13.221	1023.839	777.824
65.490	13.317	1022.825	777.436
66.505	13.151	1021.874	775.862
67.520	13.218	1021.582	775.889
68.534	13.353	1020.192	775.397
69.549	13.361	1019.870	775.119
70.563	13.169	1019.620	773.961
71.578	13.239	1018.410	773.302
72.593	13.234	1017.223	772.311
73.607	13.127	1016.658	771.314
74.622	13.235	1015.391	770.787
75.636	13.236	1014.628	770.144
76.651	13.103	1014.164	769.107
77.666	13.262	1013.177	769.028
78.680	13.189	1012.412	768.041
79.695	13.215	1011.575	767.459
80.709	13.196	1011.446	767.202
81.724	13.209	1010.432	766.429
82.739	13.335	1009.337	766.114
83.753	13.308	1009.144	765.773
84.768	13.429	1007.943	765.354
85.782	13.531	1007.491	765.415
86.797	13.481	1006.617	764.449
87.812	13.452	1005.785	763.620
88.826	13.390	1005.309	762.905
89.841	13.335	1004.619	762.059
90.855	13.549	1003.301	761.974
91.870	13.556	1002.949	761.672
92.884	13.475	1002.606	760.973
93.899	13.612	1001.287	760.534
94.914	13.627	1000.640	760.043
95.928	13.598	1000.069	759.409
96.943	13.603	999.207	758.711
97.957	13.522	998.795	757.961
98.972	13.474	997.822	756.937
99.987	13.525	997.156	756.597
101.001	13.481	996.578	755.892
102.016	13.556	995.619	755.437
103.030	13.380	994.657	753.839
104.045	13.502	993.898	753.753
105.060	13.460	992.924	752.755
106.074	13.487	992.055	752.155
107.089	13.342	991.695	751.155
108.103	13.406	990.260	750.294
109.118	13.396	989.497	749.602
110.133	13.403	988.577	748.872
111.147	13.399	987.496	747.967
112.162	13.442	986.392	747.260
113.176	13.407	985.773	746.568
114.191	13.521	984.996	746.425
115.206	13.495	984.452	745.831
116.220	13.416	983.572	744.744
117.235	13.410	982.527	743.859
118.249	13.423	981.952	743.416
119.264	13.474	980.661	742.603
120.279	13.425	980.352	742.084
121.293	13.472	979.065	741.253
122.308	13.530	978.114	740.727
123.322	13.378	977.322	739.380
124.337	13.406	976.681	738.958
125.352	13.380	975.360	737.776
126.366	13.427	973.949	736.854
127.381	13.472	973.095	736.343
128.395	13.299	972.055	734.720
129.410	13.382	971.339	734.482
130.424	13.500	970.534	734.331
131.439	13.417	970.029	733.517
132.454	13.339	969.090	732.397
133.468	13.542	968.370	732.688
134.483	13.456	967.630	731.680
135.497	13.437	966.971	731.036
136.512	13.518	965.938	730.545
137.527	13.436	965.339	729.665
138.541	13.419	964.534	728.920
139.556	13.469	963.684	728.432
140.570	13.427	962.817	727.527
141.585	13.453	962.280	727.171
142.600	13.531	961.697	727.007
143.614	13.613	960.667	726.525
144.629	13.698	959.611	726.034
145.643	13.667	959.036	725.399
146.658	13.654	958.313	724.733
147.673	13.646	957.510	724.028
148.687	13.570	956.654	722.985
149.702	13.511	955.801	722.018
150.716	13.532	954.649	721.175
151.731	13.545	954.257	720.873
152.746	13.503	953.464	720.027
153.760	13.631	952.374	719.696
154.775	13.615	951.766	719.100
155.789	13.642	951.060	718.624
156.804	13.658	950.282	718.042
157.819	13.746	949.194	717.535
158.833	13.685	948.734	716.861
159.848	13.655	948.552	716.530
160.862	13.668	947.427	715.673
161.877	13.754	946.963	715.630
162.892	13.658	945.972	714.405
163.906	13.694	945.083	713.826
164.921	13.600	944.416	712.853
165.935	13.522	943.518	711.775
166.950	13.717	942.419	711.721
167.964	13.769	941.374	711.095
168.979	13.753	940.087	709.989
169.994	13.703	939.617	709.356
171.008	13.674	938.722	708.494
172.023	13.722	937.730	707.887
173.037	13.745	936.846	707.255
174.052	13.702	936.388	706.666
175.067	13.907	935.361	706.702
176.081	13.750	934.822	705.564
177.096	13.834	933.585	704.921
178.110	13.833	932.791	704.259
179.125	13.743	932.489	703.586
180.140	13.924	931.814	703.782
181.154	13.937	930.713	702.943
182.169	13.862	930.044	702.057
183.183	13.927	929.802	702.089
184.198	13.879	928.898	701.139
185.213	13.913	927.993	700.537
186.227	13.923	927.614	700.234
187.242	14.021	926.952	700.085
188.256	13.805	926.861	699.041
189.271	14.125	925.412	699.233
190.286	13.967	924.779	698.032
191.300	14.012	923.916	697.505
192.315	13.917	923.103	696.432
193.329	13.840	922.375	695.500
194.344	13.889	922.071	695.412
195.359	13.907	921.495	694.991
196.373	14.023	920.806	694.898
197.388	14.063	920.072	694.448
198.402	14.016	920.012	694.147
199.417	14.229	919.272	694.414
200.432	14.192	918.762	693.811
201.446	14.005	918.511	692.781
202.461	14.214	918.102	693.282
203.475	14.240	917.194	692.646
204.490	14.176	916.912	692.102
205.504	14.208	916.270	691.689
206.519	14.150	915.201	690.581
207.534	14.191	914.104	689.864
208.548	14.167	913.377	689.155
209.563	14.143	912.879	688.616
210.577	14.139	912.454	688.220
211.592	14.187	911.610	687.722
212.607	14.342	910.808	687.696
213.621	14.386	910.348	687.468
214.636	14.426	909.483	686.920
215.650	14.227	908.800	685.523
216.665	14.295	908.218	685.304
217.680	14.417	908.081	685.642
218.694	14.420	907.453	685.120
219.709	14.419	906.816	684.573
220.723	14.478	906.058	684.185
221.738	14.396	905.294	683.210
222.753	14.357	904.861	682.662
223.767	14.476	903.689	682.205
224.782	14.467	902.929	681.532
225.796	14.511	902.549	681.367
226.811	14.494	901.932	680.772
227.826	14.559	901.207	680.430
228.840	14.459	900.454	679.391
229.855	14.421	899.692	678.601
230.869	14.575	898.895	678.569
231.884	14.558	898.480	678.124
232.899	14.678	897.731	677.989
233.913	14.450	896.641	676.181
234.928	14.460	896.527	676.073
235.942	14.553	895.559	675.663
236.957	14.485	894.993	674.900
237.972	14.477	894.058	674.101
238.986	14.615	893.100	673.877
240.001	14.470	893.037	673.184
241.015	14.495	892.050	672.480
242.030	14.731	891.295	672.803
243.045	14.660	890.997	672.232
244.059	14.568	890.153	671.166
245.074	14.722	889.460	671.206
246.088	14.714	889.035	670.790
247.103	14.598	888.725	670.034
248.117	14.650	887.816	669.496
249.132	14.888	887.104	669.853
250.147	14.826	886.643	669.198
251.161	14.853	886.019	668.778
252.176	15.024	884.971	668.611
253.190	15.083	884.227	668.225
254.205	14.967	884.016	667.544
255.220	14.905	883.752	667.036
256.234	14.935	882.954	666.493
257.249	15.053	882.280	666.397
258.263	15.093	881.671	666.036
259.278	14.917	881.556	665.193
260.293	15.137	880.263	665.032
261.307	15.052	879.823	664.301
262.322	15.128	879.372	664.205
263.336	15.164	878.643	663.738
264.351	15.273	877.834	663.500
265.366	15.327	877.550	663.437
266.380	15.166	876.954	662.294
267.395	15.147	876.700	661.966
268.409	15.264	875.095	661.159
269.424	15.255	874.627	660.713
270.439	15.180	874.254	660.075
271.453	15.277	873.403	659.756
272.468	15.222	872.421	658.740
273.482	15.243	871.809	658.301
274.497	15.230	871.458	657.928
275.512	15.235	870.645	657.276
276.526	15.146	870.005	656.384
277.541	15.259	869.497	656.388
278.555	15.327	868.733	656.017
279.570	15.402	867.924	655.642
280.585	15.365	867.253	654.932
281.599	15.492	867.076	655.238
282.614	15.484	866.244	654.519
283.628	15.407	865.957	653.946
284.643	15.386	865.386	653.374
285.657	15.525	864.735	653.366
286.672	15.422	864.609	652.810
287.687	15.531	863.511	652.347
288.701	15.606	863.068	652.245
289.716	15.520	862.617	651.515
290.730	15.431	862.009	650.654
291.745	15.381	861.772	650.223
292.760	15.424	861.200	649.900
293.774	15.560	860.248	649.650
294.789	15.624	859.427	649.218
295.803	15.607	858.931	648.723
296.818	15.594	858.548	648.325
297.833	15.539	857.772	647.469
298.847	15.548	857.131	646.963
299.862	15.691	856.091	646.669
300.876	15.554	855.700	645.792
301.891	15.706	854.565	645.460
302.906	15.880	853.977	645.626
303.920	15.919	853.219	645.146
304.935	15.861	853.001	644.704
305.949	15.920	852.180	644.249
306.964	15.754	851.682	643.181
307.979	15.798	851.088	642.844
308.993	15.954	850.535	642.966
310.008	15.942	850.224	642.630
311.022	15.797	849.875	641.753
312.037	15.933	849.389	641.850
313.052	15.867	848.733	641.047
314.066	15.813	847.909	640.160
315.081	15.940	847.258	640.094
316.095	15.928	846.466	639.395
317.110	15.876	846.381	639.077
318.125	15.824	845.699	638.307
319.139	16.003	845.386	638.692
320.154	15.890	844.805	637.771
321.168	15.725	844.317	636.719
322.183	15.950	843.596	636.970
323.197	15.901	843.352	636.547
324.212	16.028	842.355	636.216
325.227	15.895	842.368	635.669
326.241	16.130	841.587	635.910
327.256	15.926	841.080	634.699
328.270	16.131	840.243	634.786
329.285	16.146	839.829	634.473
330.300	15.986	839.465	633.541
331.314	16.062	838.314	632.900
332.329	16.186	837.918	633.011
333.343	16.088	837.331	632.142
334.358	16.065	836.885	631.665
335.373	16.106	836.563	631.520
336.387	16.178	836.071	631.361
337.402	16.227	835.245	630.864
338.416	16.225	834.948	630.577
339.431	16.224	834.016	629.813
340.446	16.312	833.472	629.676
341.460	16.343	832.876	629.283
342.475	16.286	832.585	628.797
343.489	16.393	831.907	628.628
344.504	16.345	831.080	627.769
345.519	16.327	830.792	627.428
346.533	16.506	830.200	627.593
347.548	16.492	829.648	627.064
348.562	16.447	829.372	626.633
349.577	16.584	828.477	626.411
350.592	16.363	828.171	625.304
351.606	16.513	827.832	625.550
352.621	16.635	827.159	625.436
353.635	16.492	826.907	624.661
354.650	16.319	826.894	623.959
355.665	16.481	826.411	624.134
356.679	16.467	825.678	623.477
357.694	16.532	824.909	623.080
358.708	16.419	824.638	622.404
359.723	16.577	823.989	622.441
360.738	16.560	823.015	621.588
361.752	16.492	822.943	621.228
362.767	16.588	822.838	621.446
363.781	16.545	822.009	620.605
364.796	16.483	821.729	620.112
365.810	16.674	821.214	620.371
366.825	16.645	820.757	619.862
367.840	16.706	820.251	619.650
368.854	16.814	819.955	619.766
369.869	16.756	819.496	619.151
370.883	16.771	818.984	618.766
371.898	16.756	818.336	618.168
372.913	16.731	817.692	617.535
373.927	16.736	817.267	617.177
374.942	16.820	816.314	616.709
375.956	16.835	816.020	616.487
376.971	16.971	814.983	616.143
377.986	16.851	814.794	615.510
379.000	17.024	814.045	615.518
380.015	17.020	813.993	615.410
381.029	17.009	813.533	614.967
382.044	17.058	812.614	614.394
383.059	17.009	811.906	613.627
384.073	17.037	811.522	613.384
385.088	16.889	811.328	612.648
386.102	17.205	810.065	612.782
387.117	17.073	810.042	612.233
388.132	16.952	809.803	611.562
389.146	16.978	809.193	611.139
390.161	17.106	808.645	611.132
391.175	17.070	808.485	610.829
392.190	17.185	807.887	610.738
393.205	17.184	807.472	610.366
394.219	17.020	807.077	609.426
395.234	17.083	806.442	609.117
396.248	17.046	806.341	608.854
397.263	17.085	805.568	608.355
398.278	17.323	804.711	608.504
399.292	17.061	804.616	607.443
400.307	17.123	804.632	607.625
401.321	17.114	804.202	607.213
402.336	16.984	803.948	606.502
403.350	17.176	802.972	606.398
404.365	17.119	802.792	606.005
405.380	17.302	802.073	606.060
406.394	17.169	801.680	605.236
407.409	17.472	800.885	605.661
408.423	17.280	800.900	604.934
409.438	17.389	800.189	604.732
410.453	17.462	799.712	604.578
411.467	17.478	799.407	604.351
412.482	17.567	798.798	604.152
413.496	17.473	798.653	603.657
414.511	17.472	798.350	603.371
415.526	17.540	797.866	603.191
416.540	17.354	797.871	602.482
417.555	17.457	796.906	602.065
418.569	17.509	796.349	601.776
419.584	17.665	795.946	601.968
420.599	17.709	795.342	601.613
421.613	108.393	1289.449	1462.954
422.628	93.137	1361.425	1463.039
