DTS Sentinel unit serial number:	SN413079Multiplexer serial number:	ORYXHardware model number:	OX4-SRSoftware version number:	ORYX F/W v4.00 Oryx Data Collector v3.7.2.0data status	okinstallation	princeton_trtdifferential loss correction	single-endedforward channel	channel 3reverse channel	N/Adate	2019/09/12time	18:25:04forward acquisition time	15.00reverse acquisition time	0.00gamma	496.2192k internal	0.2317k external	0.2317temperature offset calibration	1.0091default loss term (dB/km)	0.3790temperature slope calibration	1.0000multiplexer offset coefficient	1.0000multiplexer slope coefficient	1.0000fibre end	0.00T internal ref (°C)	33.31T ext. ref 1 (°C)	2.86T ext. ref 2 (°C)	28.00length (m)	temperature (°C)	Stokes	anti-Stokes-747.200	419.350	-0.123	-0.267
-746.185	800.000	-0.197	0.599
-745.171	-130.311	-0.580	0.080
-744.156	109.199	-0.282	-0.342
-743.142	122.020	-0.431	0.544
-742.127	-139.789	0.396	0.042
-741.112	15.080	0.667	-0.529
-740.098	800.000	-0.229	0.711
-739.083	130.539	0.249	-0.323
-738.069	293.234	0.181	-0.334
-737.054	370.343	-0.634	-1.301
-736.039	95.900	-0.398	-0.460
-735.025	-50.053	0.291	-0.140
-734.010	-11.320	0.642	-0.428
-732.996	70.532	0.071	0.075
-731.981	-117.775	-0.211	-0.038
-730.966	-68.036	0.590	-0.233
-729.952	-146.530	-0.259	0.023
-728.937	-134.948	-0.485	-0.059
-727.923	-200.000	0.096	0.496
-726.908	154.127	0.161	-0.224
-725.894	-120.094	-0.569	-0.099
-724.879	747.279	0.250	-0.681
-723.864	-28.454	0.489	-0.285
-722.850	110.385	0.409	0.497
-721.835	494.769	-0.344	-0.800
-720.821	436.661	0.313	0.690
-719.806	307.506	0.070	-0.132
-718.791	7.476	-0.821	0.621
-717.777	347.312	-0.196	-0.391
-716.762	84.933	-0.472	0.523
-715.748	-200.000	-0.241	-1.133
-714.733	296.583	0.701	-1.300
-713.718	129.907	-0.360	-0.466
-712.704	364.649	0.545	1.109
-711.689	-200.000	0.035	-0.750
-710.675	800.000	0.241	0.883
-709.660	800.000	-0.102	0.359
-708.645	800.000	-0.303	-0.875
-707.631	60.312	0.365	0.365
-706.616	527.853	-0.359	-0.855
-705.602	-200.000	0.040	-0.607
-704.587	-41.006	0.212	-0.111
-703.572	202.972	-0.239	-0.373
-702.558	800.000	-0.150	0.656
-701.543	-200.000	-0.051	0.318
-700.529	-124.832	-0.615	0.096
-699.514	146.110	-0.363	-0.492
-698.499	-119.735	0.284	0.049
-697.485	800.000	0.023	-0.070
-696.470	800.000	0.194	0.541
-695.456	-200.000	-0.028	-0.602
-694.441	-200.000	-0.009	-0.776
-693.426	31.652	-0.232	-0.201
-692.412	-106.000	0.534	0.121
-691.397	-139.517	-0.327	0.035
-690.383	33.851	0.381	-0.335
-689.368	-200.000	0.080	0.481
-688.354	-160.887	-0.346	0.018
-687.339	40.083	0.370	-0.336
-686.324	494.057	-0.535	-1.240
-685.310	9.522	-0.911	-0.697
-684.295	-200.000	0.002	-0.832
-683.281	91.834	0.299	-0.340
-682.266	40.130	-0.439	-0.399
-681.251	332.001	0.433	-0.844
-680.237	-112.532	1.470	-0.296
-679.222	-76.024	-0.596	-0.213
-678.208	-143.808	-0.542	0.052
-677.193	-20.962	0.416	-0.257
-676.178	-200.000	-0.057	-0.569
-675.164	102.097	0.369	-0.435
-674.149	-200.000	0.058	0.976
-673.135	-114.078	1.158	-0.226
-672.120	657.506	-0.196	-0.509
-671.105	-200.000	0.132	-0.673
-670.091	800.000	0.108	-0.365
-669.076	134.247	-0.350	-0.458
-668.062	6.949	0.214	0.161
-667.047	-58.586	0.578	-0.253
-666.032	-169.647	0.385	-0.014
-665.018	-200.000	0.013	0.193
-664.003	-157.188	0.328	-0.020
-662.989	-80.978	-0.204	0.068
-661.974	42.012	-0.366	-0.336
-660.959	113.715	0.182	0.223
-659.945	26.717	-0.029	0.025
-658.930	179.472	0.089	-0.131
-657.916	-130.182	0.502	0.069
-656.901	114.746	-0.116	-0.143
-655.886	800.000	0.171	-0.510
-654.872	208.390	-0.472	-0.745
-653.857	-200.000	-0.110	0.546
-652.843	-60.412	-0.724	-0.310
-651.828	-24.150	0.405	-0.244
-650.814	320.689	-0.241	-0.462
-649.799	55.609	-0.693	-0.677
-648.784	-93.218	-0.227	-0.064
-647.770	469.939	0.039	0.089
-646.755	12.715	-0.396	-0.309
-645.741	311.876	-0.302	-0.572
-644.726	-100.626	0.080	0.020
-643.711	97.876	-0.109	-0.126
-642.697	674.949	0.194	0.507
-641.682	-93.470	-0.272	0.076
-640.668	-43.700	-0.007	0.004
-639.653	-133.166	0.244	0.031
-638.638	-116.971	0.143	-0.026
-637.624	74.750	0.395	-0.419
-636.609	526.886	-0.266	-0.632
-635.595	-200.000	-0.090	-0.678
-634.580	800.000	-0.218	-0.623
-633.565	-109.744	-0.906	0.192
-632.551	-157.066	-0.497	-0.031
-631.536	800.000	0.233	0.711
-630.522	-50.913	-0.237	-0.112
-629.507	-200.000	0.087	-0.404
-628.492	-117.374	0.728	-0.133
-627.478	-101.561	-0.571	-0.140
-626.463	76.736	-0.553	-0.591
-625.449	-200.000	-0.014	-0.750
-624.434	-35.626	0.558	0.305
-623.419	-35.832	-0.159	0.087
-622.405	-159.911	0.340	0.019
-621.390	-133.511	-0.903	-0.114
-620.376	-55.899	-0.552	-0.248
-619.361	-68.450	0.311	-0.122
-618.346	-63.511	0.312	0.129
-617.332	-200.000	-0.001	-0.043
-616.317	750.945	0.109	0.297
-615.303	-200.000	0.095	1.226
-614.288	-200.000	-0.013	-0.361
-613.273	-72.007	0.437	0.164
-612.259	-16.147	0.208	0.133
-611.244	-44.044	0.301	0.152
-610.230	-107.537	-0.350	0.077
-609.215	-200.000	0.062	1.564
-608.201	9.575	0.212	-0.162
-607.186	800.000	0.175	0.653
-606.171	800.000	-0.170	-0.507
-605.157	-98.817	0.794	-0.203
-604.142	-69.192	-0.799	0.309
-603.128	-131.740	-0.481	-0.064
-602.113	86.594	0.495	0.550
-601.098	-200.000	0.028	-0.762
-600.084	165.907	-0.600	-0.854
-599.069	46.234	0.463	0.432
-598.055	660.976	0.315	0.818
-597.040	-152.522	0.432	-0.031
-596.025	83.227	-0.263	0.288
-595.011	114.909	0.202	-0.248
-593.996	-76.629	-0.400	0.141
-592.982	-138.320	-0.368	0.041
-591.967	800.000	-0.083	0.277
-590.952	330.613	-0.318	-0.616
-589.938	260.110	0.054	0.095
-588.923	104.590	0.555	-0.658
-587.909	-26.372	0.634	-0.374
-586.894	655.473	-0.577	-1.490
-585.879	-120.503	-0.374	0.064
-584.865	-200.000	0.039	0.357
-583.850	262.145	-0.322	0.562
-582.836	800.000	-0.013	0.046
-581.821	396.012	0.301	0.632
-580.806	-131.462	0.377	-0.050
-579.792	800.000	0.139	0.464
-578.777	2.115	-0.715	0.520
-577.763	-200.000	-0.050	-0.616
-576.748	118.748	-0.129	-0.160
-575.733	57.277	0.463	-0.455
-574.719	-10.667	-0.321	0.213
-573.704	157.644	0.148	0.206
-572.690	-0.222	0.110	0.079
-571.675	330.567	-0.177	-0.344
-570.661	-119.942	0.355	-0.061
-569.646	-200.000	-0.033	-0.351
-568.631	-14.368	-0.233	-0.151
-567.617	41.277	-0.481	0.437
-566.602	29.122	0.269	0.229
-565.588	-83.062	0.520	0.168
-564.573	62.342	0.356	-0.357
-563.558	139.671	-0.337	-0.446
-562.544	73.483	-0.655	0.689
-561.529	-200.000	0.062	-0.287
-560.515	-1.766	-0.026	0.018
-559.500	-111.172	-0.304	-0.063
-558.485	309.179	0.135	-0.254
-557.471	-200.000	0.013	-0.334
-556.456	16.525	0.503	0.400
-555.442	-61.018	-0.363	-0.154
-554.427	-135.382	0.474	0.057
-553.412	197.673	0.362	-0.556
-552.398	-200.000	-0.372	0.000
-551.383	46.633	0.362	0.337
-550.369	-200.000	-0.087	-0.413
-549.354	800.000	-0.249	-0.752
-548.339	-13.716	0.587	0.381
-547.325	387.279	-0.359	0.744
-546.310	-200.000	-0.012	0.090
-545.296	-105.033	-0.323	0.074
-544.281	-133.280	0.846	0.107
-543.266	280.577	-0.100	-0.179
-542.252	-76.017	-0.991	-0.352
-541.237	-38.961	0.538	-0.284
-540.223	-200.000	0.194	-1.043
-539.208	29.796	0.415	0.355
-538.193	496.166	0.059	0.136
-537.179	150.353	0.259	-0.353
-536.164	-200.000	-0.064	-0.338
-535.150	22.009	0.228	0.187
-534.135	-200.000	0.065	-0.998
-533.121	-93.743	0.493	-0.137
-532.106	113.245	0.376	-0.458
-531.091	-159.660	0.695	0.039
-530.077	77.626	-0.300	-0.321
-529.062	-129.694	0.850	-0.118
-528.048	447.857	0.246	-0.543
-527.033	52.330	0.542	0.519
-526.018	-158.946	-0.461	0.026
-525.004	-26.897	-0.272	0.159
-523.989	-11.387	-0.407	0.269
-522.975	-31.108	-0.104	0.059
-521.960	-18.793	0.534	-0.334
-520.945	-5.552	0.566	0.389
-519.931	160.555	-0.158	0.221
-518.916	-200.000	0.057	-0.394
-517.902	-109.302	0.384	-0.082
-516.887	0.901	0.837	-0.602
-515.872	91.084	-0.393	0.442
-514.858	571.138	-0.152	0.372
-513.843	-200.000	-0.084	-0.474
-512.829	237.589	0.443	0.737
-511.814	-73.214	-0.396	0.145
-510.799	-75.018	0.542	0.195
-509.785	-101.014	0.309	-0.076
-508.770	800.000	0.365	-1.371
-507.756	-154.163	-0.934	-0.063
-506.741	-200.000	0.045	0.884
-505.726	-200.000	-0.083	-0.927
-504.712	-27.881	0.391	-0.227
-503.697	7.631	0.405	0.304
-502.683	-125.249	-0.672	0.103
-501.668	-23.345	0.234	-0.141
-500.653	83.406	-0.729	0.796
-499.639	102.134	0.290	0.340
-498.624	265.250	-0.265	-0.462
-497.610	29.251	0.295	0.251
-496.595	-200.000	0.022	0.307
-495.581	800.000	0.277	0.881
-494.566	-200.000	-0.166	0.876
-493.551	6.793	0.214	0.160
-492.537	-55.206	-0.292	-0.132
-491.522	10.340	0.463	0.354
-490.508	800.000	-0.095	0.408
-489.493	-200.000	-0.056	0.493
-488.478	-136.925	0.436	-0.050
-487.464	12.496	0.344	0.266
-486.449	379.217	0.270	0.554
-485.435	-200.000	-0.032	0.490
-484.420	112.774	0.340	-0.412
-483.405	69.100	0.118	-0.121
-482.391	50.693	-0.473	-0.449
-481.376	156.564	-0.392	0.543
-480.362	190.926	0.686	-1.035
-479.347	58.928	-0.514	-0.506
-478.332	18.491	-0.455	-0.365
-477.318	-111.952	0.212	-0.043
-476.303	-200.000	0.112	0.695
-475.289	15.702	-0.278	0.219
-474.274	73.733	-0.174	0.183
-473.259	141.949	0.389	0.517
-472.245	-85.936	-0.730	0.226
-471.230	135.105	-0.227	-0.295
-470.216	545.171	-0.152	-0.364
-469.201	52.012	-0.354	0.338
-468.186	161.949	-0.410	-0.576
-467.172	50.064	-0.146	-0.138
-466.157	7.540	0.478	-0.358
-465.143	270.365	0.213	-0.376
-464.128	204.018	-0.432	-0.670
-463.113	-123.656	0.649	-0.103
-462.099	-200.000	0.107	0.949
-461.084	800.000	-0.298	0.827
-460.070	-49.111	0.638	0.306
-459.055	-105.161	0.306	0.070
-458.040	-1.085	-0.774	0.548
-457.026	80.425	0.449	0.484
-456.011	800.000	0.273	0.867
-454.997	-72.313	0.456	-0.169
-453.982	-165.482	-0.463	0.020
-452.968	-33.457	0.329	-0.182
-451.953	800.000	-0.210	-0.749
-450.938	356.122	0.344	-0.686
-449.924	156.550	0.326	0.451
-448.909	-200.000	0.098	0.634
-447.895	-200.000	0.159	-0.736
-446.880	387.247	-0.580	-1.200
-445.865	10.905	0.308	0.236
-444.851	800.000	0.151	0.613
-443.836	-129.458	-0.163	0.023
-442.822	90.507	-0.573	-0.642
-441.807	-187.136	-0.572	-0.008
-440.792	135.288	-0.609	0.792
-439.778	6.423	0.469	0.348
-438.763	-200.000	-0.141	0.772
-437.749	736.275	0.176	0.473
-436.734	89.085	0.235	0.262
-435.719	-87.429	-0.246	-0.075
-434.705	188.068	-0.249	0.372
-433.690	6.011	0.111	0.082
-432.676	-144.278	0.379	0.035
-431.661	800.000	-0.154	-0.596
-430.646	-77.739	0.459	0.159
-429.632	-200.000	-0.020	0.145
-428.617	-31.016	-0.477	-0.269
-427.603	800.000	0.055	-0.197
-426.588	-200.000	-0.004	-0.112
-425.573	-59.480	-0.193	-0.083
-424.559	105.876	-0.356	0.421
-423.544	-200.000	0.105	-0.470
-422.530	-43.286	-0.890	-0.450
-421.515	800.000	-0.157	-0.502
-420.500	744.218	-0.167	-0.448
-419.486	774.260	0.285	-0.777
-418.471	-97.867	0.249	-0.064
-417.457	-35.070	-0.276	-0.150
-416.442	136.268	-1.023	1.333
-415.428	130.225	-0.311	-0.398
-414.413	-200.000	0.022	-0.193
-413.398	85.718	0.315	-0.346
-412.384	-114.116	-0.384	0.074
-411.369	137.135	0.049	0.064
-410.355	-200.000	-0.029	-0.132
-409.340	-118.996	0.964	0.169
-408.325	-200.000	0.018	-0.136
-407.311	-48.258	0.486	0.234
-406.296	-62.917	0.332	-0.137
-405.282	-18.496	1.097	0.684
-404.267	-200.000	0.052	-0.346
-403.252	-12.064	-0.638	0.417
-402.238	-139.654	-0.509	0.054
-401.223	-200.000	-0.021	0.375
-400.209	-64.648	0.139	0.056
-399.194	-143.142	-0.237	-0.023
-398.179	-59.498	-0.703	-0.302
-397.165	356.626	-0.116	0.231
-396.150	-1.604	-0.581	0.409
-395.136	-137.192	-0.365	-0.042
-394.121	-26.675	-0.788	-0.461
-393.106	-92.382	-0.190	0.053
-392.092	21.210	0.391	-0.317
-391.077	-194.382	0.447	-0.004
-390.063	-135.075	0.906	0.109
-389.048	377.664	0.066	0.135
-388.033	-1.384	0.438	0.309
-387.019	785.880	0.077	-0.211
-386.004	-121.162	0.253	0.042
-384.990	244.626	-0.101	-0.170
-383.975	-71.914	0.158	-0.059
-382.960	-45.705	-0.671	0.331
-381.946	52.817	-0.432	-0.412
-380.931	-167.805	0.706	0.028
-379.917	-20.800	-0.269	-0.165
-378.902	800.000	-0.071	0.284
-377.888	116.213	0.093	0.114
-376.873	-92.740	0.465	-0.130
-375.858	135.689	0.388	-0.504
-374.844	42.788	-0.436	-0.397
-373.829	252.529	0.211	-0.359
-372.815	176.599	-0.217	-0.315
-371.800	103.768	0.591	-0.692
-370.785	192.094	-0.402	-0.605
-369.771	143.548	0.107	-0.142
-368.756	78.280	-0.521	0.555
-367.742	-86.288	0.587	0.180
-366.727	-49.610	-0.143	-0.068
-365.712	-200.000	0.081	-0.838
-364.698	-123.715	-0.362	-0.057
-363.683	0.757	-0.503	0.359
-362.669	-200.000	-0.037	0.976
-361.654	-68.656	0.659	0.254
-360.639	132.402	-0.097	0.124
-359.625	-50.239	-0.556	-0.262
-358.610	-200.000	0.030	-0.303
-357.596	617.288	0.295	-0.738
-356.581	-166.753	-0.410	0.017
-355.566	-150.010	0.251	0.020
-354.552	120.517	0.347	0.429
-353.537	-171.358	0.202	-0.007
-352.523	-55.637	0.468	-0.209
-351.508	-7.154	0.108	0.073
-350.493	-13.153	-0.476	-0.309
-349.479	-200.000	0.054	0.551
-348.464	60.522	-0.289	-0.286
-347.450	168.230	0.236	0.335
-346.435	-150.692	-0.739	-0.056
-345.420	-110.903	-0.522	0.107
-344.406	326.427	-0.004	0.007
-343.391	-200.000	-0.180	1.081
-342.377	68.591	0.063	-0.065
-341.362	-49.522	-0.555	0.264
-340.348	-55.057	0.158	-0.071
-339.333	313.674	-0.390	0.731
-338.318	-144.818	0.705	-0.064
-337.304	-106.051	0.569	0.128
-336.289	32.715	0.718	-0.619
-335.275	-145.963	-0.578	-0.051
-334.260	19.614	-0.224	-0.180
-333.245	-105.294	0.204	0.046
-332.231	23.031	-0.393	-0.321
-331.216	495.975	-0.251	0.574
-330.202	71.537	0.527	-0.545
-329.187	-181.773	0.311	0.006
-328.172	649.203	-0.187	-0.478
-327.158	-200.000	-0.045	-0.684
-326.143	80.413	-0.391	-0.420
-325.129	-200.000	-0.005	0.426
-324.114	22.367	0.831	0.677
-323.099	-134.472	-0.190	0.023
-322.085	-11.065	-0.334	-0.219
-321.070	-148.847	0.740	-0.060
-320.056	-138.822	-0.146	-0.016
-319.041	-70.550	-0.252	0.095
-318.026	537.205	-0.133	-0.313
-317.012	47.101	0.795	-0.737
-315.997	-104.456	-1.054	-0.243
-314.983	1.064	-0.672	0.480
-313.968	20.272	0.528	-0.424
-312.953	800.000	0.186	-0.626
-311.939	-117.717	-0.660	-0.118
-310.924	-200.000	0.062	0.506
-309.910	27.075	-0.266	-0.222
-308.895	303.430	0.406	0.749
-307.880	-93.984	-0.526	0.144
-306.866	-34.745	-0.294	0.160
-305.851	174.836	0.313	0.451
-304.837	-37.036	-0.554	-0.295
-303.822	-62.803	-0.042	0.017
-302.807	-200.000	-0.050	0.616
-301.793	-44.519	-0.425	0.211
-300.778	800.000	-0.117	0.426
-299.764	-29.606	-0.460	0.262
-298.749	125.039	-0.310	0.389
-297.735	-200.000	0.070	0.318
-296.720	800.000	0.074	0.260
-295.705	-200.000	0.093	0.650
-294.691	492.243	-0.068	-0.154
-293.676	-35.713	0.811	-0.437
-292.662	-149.040	-0.773	0.062
-291.647	236.751	0.229	0.376
-290.632	69.465	0.527	0.540
-289.618	-200.000	-0.022	-0.340
-288.603	-40.883	-0.487	0.251
-287.589	454.780	0.224	0.495
-286.574	-51.552	-1.104	-0.513
-285.559	-86.406	0.278	-0.085
-284.545	115.710	0.548	0.667
-283.530	-200.000	0.058	0.831
-282.516	58.335	0.408	0.398
-281.501	-96.755	0.812	0.212
-280.486	-15.055	-0.243	-0.155
-279.472	-1.301	-0.136	0.095
-278.457	4.594	0.483	-0.352
-277.443	152.113	-0.152	0.206
-276.428	-62.837	0.725	0.298
-275.413	800.000	0.130	-0.376
-274.399	-200.000	0.013	-0.118
-273.384	55.597	0.337	0.324
-272.370	181.426	-0.307	-0.449
-271.355	432.054	0.115	0.249
-270.340	-200.000	-0.026	-0.132
-269.326	-112.153	0.763	-0.152
-268.311	-200.000	-0.156	0.818
-267.297	286.261	0.394	0.707
-266.282	50.769	0.325	0.306
-265.267	190.332	-0.204	-0.305
-264.253	-100.381	0.627	0.154
-263.238	-145.040	0.778	-0.070
-262.224	-200.000	0.027	0.564
-261.209	-20.095	-0.224	-0.138
-260.195	-117.328	0.196	0.035
-259.180	23.099	-0.234	0.191
-258.165	-135.882	-0.381	0.045
-257.151	18.577	0.507	0.403
-256.136	-28.219	-0.617	0.354
-255.122	217.170	-0.387	-0.612
-254.107	28.188	-0.118	-0.099
-253.092	-102.137	-0.904	-0.216
-252.078	277.809	0.399	-0.705
-251.063	-200.000	-0.089	0.556
-250.049	324.866	-0.214	-0.406
-249.034	642.301	-0.144	-0.364
-248.019	-60.785	0.332	0.140
-247.005	-59.259	-0.632	-0.270
-245.990	55.075	0.291	0.279
-244.976	-133.624	0.900	-0.112
-243.961	-40.879	0.733	-0.377
-242.946	123.576	-0.253	0.315
-241.932	-200.000	0.146	0.990
-240.917	119.195	-0.290	-0.357
-239.903	359.554	0.150	0.299
-238.888	-200.000	-0.017	0.421
-237.873	183.577	-0.408	-0.598
-236.859	57.958	-0.973	-0.945
-235.844	-111.485	0.765	0.155
-234.830	-98.381	-0.792	0.201
-233.815	-17.910	0.119	-0.074
-232.800	-200.000	-0.008	-0.193
-231.786	800.000	0.073	-0.301
-230.771	294.318	-0.125	-0.227
-229.757	779.823	-0.068	-0.184
-228.742	-100.235	0.072	0.018
-227.727	272.021	0.341	0.597
-226.713	10.442	0.716	-0.541
-225.698	-144.165	0.327	-0.030
-224.684	137.412	-0.176	-0.229
-223.669	41.179	0.287	-0.258
-222.655	94.173	-0.375	0.422
-221.640	800.000	-0.127	0.383
-220.625	-48.596	0.646	0.308
-219.611	800.000	0.525	-1.593
-218.596	-54.915	0.961	-0.430
-217.582	51.093	0.060	0.057
-216.567	-94.647	-0.359	-0.097
-215.552	-200.000	-0.046	0.371
-214.538	-200.000	0.061	0.396
-213.523	-67.670	0.016	-0.006
-212.509	161.939	-0.464	-0.645
-211.494	-28.200	-0.516	-0.296
-210.479	-113.962	-0.169	0.033
-209.465	49.893	-0.137	-0.128
-208.450	227.645	-0.280	0.451
-207.436	-200.000	0.025	-0.255
-206.421	-64.237	0.480	-0.194
-205.406	-51.742	-0.164	0.076
-204.392	186.684	-0.369	-0.544
-203.377	330.688	-0.186	-0.356
-202.363	52.992	0.380	0.361
-201.348	-174.810	-0.416	0.012
-200.333	-200.000	0.128	-0.680
-199.319	-53.130	-0.602	0.274
-198.304	-1.895	0.510	0.356
-197.290	-67.399	-0.316	-0.123
-196.275	391.127	-0.136	0.280
-195.260	370.172	0.221	-0.443
-194.246	132.606	-0.182	-0.232
-193.231	131.855	-0.232	0.296
-192.217	304.741	0.293	0.538
-191.202	-1.096	-0.156	0.109
-190.187	-116.981	0.293	-0.053
-189.173	313.835	0.174	0.325
-188.158	-156.869	0.175	0.011
-187.144	721.203	0.193	-0.509
-186.129	328.734	0.055	-0.105
-185.114	-4.913	-0.364	0.249
-184.100	-94.355	-0.268	-0.073
-183.085	-14.744	-0.318	-0.202
-182.071	85.412	-0.625	0.679
-181.056	59.668	-0.530	0.517
-180.042	-183.072	0.435	0.008
-179.027	-4.065	-0.748	-0.514
-178.012	-100.427	-0.175	0.043
-176.998	-121.643	-0.484	-0.079
-175.983	130.397	-0.110	0.140
-174.969	-145.557	-0.340	0.030
-173.954	-132.136	-0.314	-0.040
-172.939	66.323	0.443	-0.446
-171.925	23.465	-0.174	0.141
-170.910	13.923	-0.182	0.140
-169.896	202.283	0.068	0.103
-168.881	800.000	0.048	0.179
-167.866	33.175	0.257	0.221
-166.852	-90.724	0.739	-0.211
-165.837	44.689	-0.451	0.411
-164.823	-47.010	0.212	-0.102
-163.808	-200.000	-0.017	-0.201
-162.793	-164.686	0.691	-0.031
-161.779	-200.000	-0.051	0.321
-160.764	-39.923	0.877	-0.453
-159.750	246.659	-0.341	0.569
-158.735	25.176	-0.181	-0.149
-157.720	-61.201	0.415	0.173
-156.706	338.802	0.079	0.152
-155.691	460.768	-0.093	-0.206
-154.677	46.448	0.115	-0.106
-153.662	800.000	0.152	0.473
-152.647	-200.000	-0.115	-0.823
-151.633	-146.897	-0.620	-0.053
-150.618	49.136	0.556	0.517
-149.604	141.545	0.356	0.466
-148.589	37.980	-0.118	-0.104
-147.574	-200.000	-0.073	0.672
-146.560	-200.000	0.006	0.140
-145.545	541.611	0.323	-0.761
-144.531	-82.610	-0.852	-0.273
-143.516	456.798	-0.118	0.260
-142.502	800.000	0.197	0.647
-141.487	-109.909	0.289	-0.060
-140.472	-36.445	0.584	0.311
-139.458	-131.143	-1.443	0.190
-138.443	-200.000	0.080	0.359
-137.429	102.989	-0.425	0.492
-136.414	147.732	0.386	-0.515
-135.399	228.678	0.192	0.309
-134.385	-130.254	-0.174	0.023
-133.370	-200.000	-0.071	-0.504
-132.356	38.752	-0.494	-0.436
-131.341	97.406	-0.127	-0.144
-130.326	-200.000	0.023	0.398
-129.312	23.205	0.356	-0.289
-128.297	800.000	-0.117	-0.423
-127.283	24.094	0.356	-0.290
-126.268	-136.062	-0.367	-0.043
-125.253	49.766	0.315	-0.294
-124.239	642.167	-0.326	-0.820
-123.224	-200.000	0.031	0.163
-122.210	800.000	0.114	-0.444
-121.195	138.291	-0.202	0.262
-120.180	625.919	-0.335	0.835
-119.166	-166.190	0.380	0.016
-118.151	-54.667	-0.237	-0.106
-117.137	-128.411	-0.781	0.110
-116.122	-200.000	-0.012	-0.078
-115.107	800.000	-0.070	0.228
-114.093	800.000	-0.227	-0.636
-113.078	374.963	-0.328	-0.661
-112.064	-27.331	0.399	-0.230
-111.049	-34.864	-1.066	-0.575
-110.034	417.692	0.433	-0.914
-109.020	161.262	-0.011	-0.015
-108.005	800.000	0.097	-0.355
-106.991	57.244	0.724	-0.698
-105.976	-190.727	0.535	0.006
-104.962	-164.378	0.532	0.024
-103.947	16.697	-0.668	0.522
-102.932	-108.285	-1.138	-0.243
-101.918	-40.845	-0.473	0.242
-100.903	-200.000	-0.124	0.684
-99.889	71.336	-0.979	1.003
-98.874	220.930	-0.231	0.367
-97.859	-200.000	-0.031	0.317
-96.845	-77.518	0.480	-0.164
-95.830	14.693	0.682	-0.527
-94.816	-143.893	0.567	0.053
-93.801	-200.000	0.036	-0.494
-92.786	-101.944	1.093	0.261
-91.772	18.330	0.903	0.712
-90.757	0.161	-0.671	0.472
-89.743	89.757	0.420	0.463
-88.728	307.463	0.121	-0.223
-87.713	-102.428	-0.280	0.066
-86.699	-99.770	0.403	0.099
-85.684	5.314	0.296	0.216
-84.670	-200.000	0.025	0.341
-83.655	-133.525	-0.018	0.002
-82.640	-6.847	-0.618	0.415
-81.626	199.647	0.209	-0.316
-80.611	139.261	0.246	-0.319
-79.597	-200.000	-0.000	-0.450
-78.582	109.831	0.179	-0.212
-77.567	-200.000	0.161	-1.313
-76.553	25.891	-0.544	-0.448
-75.538	14.620	0.847	0.652
-74.524	-58.613	0.556	-0.238
-73.509	-123.867	0.694	0.108
-72.494	-200.000	0.169	-1.645
-71.480	-137.336	0.303	-0.034
-70.465	-161.188	-0.281	0.014
-69.451	-63.551	-0.291	0.118
-68.436	-16.351	0.361	-0.226
-67.422	-100.252	0.753	-0.185
-66.407	-87.840	-0.303	0.090
-65.392	6.235	0.179	-0.131
-64.378	-200.000	-0.003	-0.239
-63.363	-111.922	0.659	0.131
-62.349	676.588	-0.053	-0.136
-61.334	756.237	-0.450	-1.200
-60.319	800.000	0.384	1.047
-59.305	-200.000	0.182	-1.283
-58.290	-200.000	0.121	0.857
-57.276	-200.000	0.110	1.398
-56.261	-200.000	96.814	573.221
-55.246	634.538	1372.829	3431.718
-54.232	199.759	2538.675	3838.887
-53.217	116.598	2149.976	2598.854
-52.203	43.821	1699.007	1533.101
-51.188	36.345	1513.988	1315.399
-50.173	34.305	1486.625	1277.910
-49.159	54.349	1538.718	1459.952
-48.144	54.987	1555.974	1480.621
-47.130	36.700	1515.350	1318.796
-46.115	33.456	1500.799	1284.134
-45.100	33.285	1497.439	1280.050
-44.086	33.281	1495.427	1278.257
-43.071	33.312	1493.206	1276.513
-42.057	33.233	1491.603	1274.561
-41.042	33.445	1489.245	1273.922
-40.027	33.457	1488.269	1273.121
-39.013	33.266	1487.835	1271.410
-37.998	33.165	1486.623	1269.646
-36.984	33.071	1485.767	1268.235
-35.969	33.224	1482.916	1266.775
-34.954	33.126	1483.984	1266.982
-33.940	33.202	1480.654	1264.595
-32.925	33.487	1478.249	1264.396
-31.911	33.563	1477.529	1264.233
-30.896	33.471	1476.656	1262.823
-29.881	33.478	1475.713	1262.015
-28.867	33.538	1474.111	1260.997
-27.852	33.373	1472.049	1258.083
-26.838	33.356	1470.908	1256.949
-25.823	33.546	1469.623	1257.056
-24.809	33.227	1468.324	1253.786
-23.794	33.251	1466.273	1252.143
-22.779	33.331	1464.718	1251.291
-21.765	33.277	1464.857	1251.006
-20.750	33.215	1464.160	1249.952
-19.736	33.518	1461.621	1249.733
-18.721	33.207	1462.093	1248.033
-17.706	33.181	1460.587	1246.528
-16.692	33.240	1458.814	1245.354
-15.677	33.383	1457.997	1245.546
-14.663	33.387	1456.222	1244.006
-13.648	33.456	1455.862	1244.102
-12.633	33.441	1454.545	1242.829
-11.619	33.279	1453.680	1240.980
-10.604	33.358	1453.041	1240.900
-9.590	33.329	1452.218	1239.961
-8.575	33.112	1452.031	1238.332
-7.560	33.306	1451.447	1239.052
-6.546	33.202	1450.020	1237.104
-5.531	33.296	1449.304	1237.058
-4.517	33.290	1447.700	1235.602
-3.502	33.460	1445.976	1235.193
-2.487	33.255	1446.697	1234.421
-1.473	33.181	1445.310	1232.704
-0.458	33.139	1443.695	1231.008
0.556	34.144	1433.671	1219.692
1.571	30.695	1409.826	1177.513
2.586	27.363	1349.348	1106.680
3.600	25.518	1267.969	1029.295
4.615	23.986	1222.614	983.923
5.629	20.726	1165.138	920.373
6.644	11.661	1080.065	808.460
7.659	4.515	1037.326	742.353
8.673	3.077	1032.515	732.003
9.688	2.909	1030.050	729.394
10.702	2.643	1027.637	726.364
11.717	2.812	1025.303	725.445
12.731	5.979	1029.533	743.386
13.746	15.306	1042.397	797.137
14.761	23.090	1051.513	841.215
15.775	24.738	1056.434	852.947
16.790	25.263	1054.493	853.804
17.804	25.161	1054.320	853.100
18.819	24.961	1052.809	850.855
19.834	25.396	1051.753	851.989
20.848	25.192	1052.636	851.661
21.863	25.480	1051.059	851.675
22.877	25.356	1050.922	850.897
23.892	25.403	1049.910	850.225
24.907	25.388	1049.464	849.717
25.921	25.508	1048.346	849.308
26.936	25.495	1048.215	849.064
27.950	25.298	1046.699	846.831
28.965	25.224	1046.257	846.048
29.980	25.243	1044.214	844.412
30.994	25.386	1043.114	844.120
32.009	25.488	1042.306	843.871
33.023	25.433	1042.606	843.778
34.038	25.504	1041.259	842.950
35.053	25.328	1040.324	841.290
36.067	25.515	1040.600	842.317
37.082	25.306	1038.947	839.929
38.096	25.246	1038.838	839.484
39.111	25.429	1037.822	839.443
40.126	25.545	1036.502	838.845
41.140	25.605	1035.283	838.060
42.155	25.221	1033.440	834.709
43.169	25.060	1032.592	833.201
44.184	24.713	1032.461	831.410
45.199	25.216	1030.429	832.034
46.213	25.339	1029.404	831.704
47.228	25.271	1028.883	830.894
48.242	25.231	1028.882	830.634
49.257	25.166	1028.516	829.962
50.271	25.441	1027.809	830.590
51.286	25.296	1027.287	829.426
52.301	25.389	1026.033	828.768
53.315	25.329	1025.419	827.923
54.330	25.284	1024.739	827.095
55.344	25.423	1023.367	826.552
56.359	25.486	1022.899	826.389
57.374	25.540	1020.974	825.011
58.388	25.193	1022.390	824.487
59.403	24.989	1020.609	822.044
60.417	25.129	1019.970	822.095
61.432	25.237	1018.485	821.323
62.447	25.025	1018.546	820.328
63.461	25.269	1018.383	821.239
64.476	25.459	1016.431	820.462
65.490	25.448	1016.290	820.225
66.505	24.937	1016.392	817.900
67.520	24.895	1014.662	816.244
68.534	25.085	1013.209	815.867
69.549	25.146	1013.094	815.979
70.563	24.824	1011.611	813.251
71.578	24.333	1012.055	811.301
72.593	24.715	1009.923	811.255
73.607	24.528	1009.908	810.322
74.622	24.581	1009.477	810.145
75.636	24.914	1007.791	810.231
76.651	24.945	1006.980	809.647
77.666	24.849	1006.561	808.801
78.680	24.645	1006.429	807.706
79.695	24.916	1005.191	807.863
80.709	24.733	1005.236	807.003
81.724	25.047	1003.485	806.937
82.739	24.873	1003.588	806.166
83.753	24.990	1002.330	805.608
84.768	25.145	1002.151	806.091
85.782	25.388	1001.304	806.432
86.797	25.723	999.602	806.488
87.812	25.902	999.318	806.991
88.826	25.496	998.786	804.671
89.841	25.725	997.551	804.630
90.855	25.614	997.644	804.137
91.870	25.718	996.799	803.848
92.884	25.573	995.740	802.278
93.899	25.386	995.217	800.952
94.914	25.670	993.522	800.781
95.928	25.587	993.145	800.036
96.943	25.483	992.037	798.611
97.957	25.473	990.653	797.380
98.972	25.275	990.809	796.560
99.987	25.006	990.320	794.901
101.001	25.250	988.885	794.761
102.016	25.657	987.326	795.235
103.030	25.392	988.262	794.748
104.045	25.671	985.721	793.863
105.060	25.752	985.155	793.695
106.074	25.455	984.251	791.590
107.089	25.106	984.363	790.073
108.103	25.155	984.117	790.017
109.118	25.425	982.651	789.961
110.133	25.249	980.720	787.565
111.147	25.204	980.283	786.949
112.162	25.163	978.874	785.567
113.176	24.996	977.902	783.986
114.191	25.006	977.346	783.515
115.206	25.588	974.916	784.037
116.220	25.035	974.533	781.250
117.235	24.820	975.160	780.745
118.249	25.141	973.842	781.019
119.264	24.929	972.820	779.207
120.279	24.823	971.710	777.787
121.293	24.777	971.203	777.115
122.308	24.973	970.687	777.482
123.322	24.708	971.100	776.592
124.337	24.644	968.985	774.556
125.352	24.951	967.380	774.532
126.366	24.533	966.568	772.007
127.381	24.140	965.512	769.400
128.395	24.593	964.575	770.537
129.410	25.297	964.907	773.770
130.424	25.339	964.445	773.512
131.439	25.523	962.411	772.604
132.454	25.320	962.495	771.731
133.468	25.305	961.912	771.131
134.483	25.324	960.655	770.137
135.497	25.525	959.605	770.089
136.512	25.826	958.675	770.562
137.527	25.711	958.260	769.667
138.541	25.660	956.927	768.312
139.556	25.691	956.892	768.346
140.570	25.690	956.094	767.635
141.585	25.776	955.875	767.756
142.600	25.727	956.179	767.725
143.614	25.887	953.511	766.197
144.629	26.100	953.231	766.808
145.643	25.949	952.781	765.737
146.658	25.698	951.808	763.823
147.673	25.651	950.553	762.549
148.687	25.409	949.128	760.313
149.702	25.546	947.966	759.893
150.716	25.550	947.449	759.428
151.731	25.338	947.133	758.213
152.746	25.661	946.261	758.809
153.760	25.679	945.958	758.575
154.775	25.730	944.906	757.882
155.789	25.536	943.987	756.259
156.804	25.913	943.746	757.584
157.819	25.571	942.205	754.846
158.833	25.962	941.024	755.474
159.848	26.056	940.197	755.135
160.862	26.095	939.945	755.028
161.877	25.926	939.611	753.988
162.892	25.822	938.172	752.329
163.906	25.808	937.064	751.318
164.921	25.625	936.440	749.987
165.935	25.797	935.713	750.053
166.950	25.952	934.666	749.796
167.964	25.869	933.981	748.833
168.979	25.727	933.132	747.497
169.994	25.680	932.446	746.686
171.008	25.603	930.355	744.626
172.023	25.699	930.174	744.815
173.037	25.983	929.243	745.177
174.052	25.777	928.476	743.645
175.067	25.854	926.961	742.683
176.081	25.703	926.654	741.751
177.096	25.476	926.344	740.499
178.110	25.874	925.281	741.220
179.125	25.392	925.084	739.017
180.140	25.446	922.654	737.231
181.154	25.382	922.498	736.781
182.169	25.277	923.698	737.239
183.183	25.695	922.354	737.817
184.198	26.122	921.450	738.775
185.213	25.860	920.827	737.141
186.227	25.808	920.069	736.256
187.242	25.705	920.567	736.167
188.256	25.755	920.158	735.978
189.271	26.027	917.738	735.090
190.286	26.233	917.468	735.644
191.300	26.006	916.762	734.089
192.315	25.368	915.211	730.190
193.329	24.766	915.035	727.537
194.344	24.283	913.756	724.495
195.359	24.854	913.483	726.533
196.373	25.704	913.973	730.309
197.388	26.065	913.590	731.399
198.402	26.189	911.990	730.557
199.417	26.154	911.799	730.199
200.432	26.090	911.653	729.757
201.446	26.035	910.802	728.788
202.461	25.462	910.785	726.396
203.475	25.878	910.266	727.598
204.490	25.341	909.189	724.507
205.504	24.316	907.502	718.968
206.519	24.811	906.833	720.369
207.534	25.362	907.064	722.706
208.548	25.757	906.159	723.508
209.563	26.135	904.893	723.951
210.577	26.019	904.986	723.493
211.592	25.817	904.731	722.417
212.607	26.134	904.943	723.795
213.621	26.451	904.647	724.762
214.636	26.022	904.038	722.494
215.650	25.848	902.296	720.343
216.665	26.253	901.210	721.028
217.680	25.816	902.719	720.426
218.694	26.574	900.595	721.687
219.709	25.911	900.569	718.958
220.723	25.564	899.704	716.822
221.738	26.100	897.696	717.290
222.753	26.000	898.420	717.406
223.767	25.665	898.247	715.875
224.782	25.906	896.748	715.574
225.796	26.051	896.447	715.844
226.811	26.293	895.075	715.645
227.826	25.738	894.375	712.825
228.840	25.217	893.308	709.849
229.855	25.115	893.004	709.143
230.869	25.541	892.522	710.379
231.884	25.104	892.184	708.320
232.899	25.225	891.016	707.811
233.913	25.432	891.260	708.755
234.928	25.920	890.790	710.245
235.942	25.614	890.375	708.646
236.957	25.641	889.891	708.302
237.972	25.701	888.197	707.127
238.986	25.502	887.336	705.600
240.001	25.483	887.161	705.325
241.015	25.620	886.424	705.213
242.030	25.436	886.156	704.214
243.045	25.817	886.398	705.839
244.059	25.829	886.047	705.543
245.074	26.099	884.906	705.627
246.088	26.210	883.829	705.139
247.103	25.888	883.560	703.607
248.117	25.975	883.157	703.563
249.132	26.474	883.073	705.381
250.147	26.482	883.053	705.333
251.161	26.875	882.103	706.040
252.176	26.939	880.869	705.239
253.190	26.819	880.170	704.152
254.205	26.731	880.144	703.727
255.220	27.336	879.141	705.209
256.234	27.113	878.798	704.008
257.249	26.747	879.478	703.070
258.263	26.586	878.848	701.880
259.278	26.888	876.949	701.470
260.293	26.844	876.961	701.246
261.307	26.911	876.417	701.007
262.322	27.113	874.550	700.233
263.336	26.694	875.114	699.006
264.351	26.405	874.304	697.184
265.366	25.344	872.541	691.630
266.380	25.064	871.342	689.544
267.395	25.768	871.889	692.623
268.409	26.852	871.468	696.390
269.424	26.521	871.301	694.925
270.439	26.698	870.768	695.117
271.453	26.731	870.092	694.643
272.468	26.492	869.573	693.250
273.482	26.799	869.032	693.936
274.497	27.280	868.352	695.171
275.512	26.579	867.529	691.770
276.526	26.617	866.005	690.641
277.541	26.850	865.382	690.971
278.555	26.844	865.203	690.742
279.570	26.816	864.728	690.197
280.585	26.676	864.212	689.190
281.599	26.833	863.487	689.146
282.614	26.511	864.064	688.324
283.628	26.375	862.051	686.142
284.643	25.892	861.645	683.927
285.657	26.489	860.537	685.247
286.672	26.359	860.750	684.864
287.687	26.047	859.470	682.606
288.701	26.220	859.593	683.298
289.716	26.647	858.995	684.375
290.730	26.392	858.069	682.614
291.745	26.379	858.023	682.467
292.760	26.212	857.286	681.193
293.774	26.298	856.400	680.751
294.789	26.947	857.388	683.924
295.803	27.344	856.679	684.792
296.818	27.140	855.982	683.407
297.833	27.313	856.042	684.044
298.847	27.033	854.612	681.790
299.862	26.951	854.282	681.160
300.876	26.927	853.474	680.364
301.891	26.989	854.109	681.042
302.906	27.365	852.746	681.304
303.920	27.031	851.655	679.122
304.935	26.979	851.200	678.507
305.949	26.880	852.254	678.913
306.964	27.247	850.826	679.088
307.979	26.818	850.155	676.893
308.993	26.667	849.298	675.587
310.008	27.340	848.369	677.292
311.022	27.139	849.162	677.117
312.037	27.343	847.813	676.741
313.052	26.780	847.696	674.494
314.066	26.956	846.607	674.221
315.081	26.628	844.560	671.314
316.095	25.968	843.663	668.100
317.110	26.251	843.922	669.294
318.125	26.945	844.019	671.881
319.139	26.572	843.622	670.125
320.154	25.981	841.662	666.327
321.168	25.072	841.039	662.418
322.183	25.810	841.379	665.354
323.197	26.515	841.420	667.930
324.212	26.888	841.444	669.267
325.227	27.164	840.481	669.457
326.241	27.352	839.626	669.409
327.256	27.214	838.484	667.930
328.270	26.406	839.590	665.780
329.285	26.471	839.275	665.712
330.300	26.584	838.001	665.056
331.314	26.346	837.128	663.430
332.329	26.340	836.553	662.893
333.343	27.056	835.358	664.511
334.358	27.227	835.671	665.327
335.373	27.647	834.626	665.970
336.387	27.773	834.055	665.915
337.402	27.698	834.625	666.039
338.416	27.585	834.251	665.268
339.431	27.463	832.984	663.755
340.446	27.736	833.083	664.769
341.460	27.787	833.086	664.898
342.475	27.659	832.046	663.545
343.489	27.714	830.176	662.193
344.504	27.698	831.009	662.741
345.519	27.762	831.229	663.091
346.533	28.284	829.562	663.594
347.548	28.007	829.613	662.573
348.562	28.240	828.955	662.832
349.577	27.930	828.885	661.595
350.592	27.759	828.002	660.212
351.606	28.085	827.013	660.544
352.621	27.929	826.313	659.364
353.635	27.817	826.185	658.799
354.650	27.301	826.643	657.242
355.665	27.351	824.766	655.872
356.679	26.544	823.158	651.630
357.694	26.473	823.086	651.262
358.708	27.120	822.100	652.748
359.723	26.948	822.175	652.131
360.738	27.202	821.466	652.422
361.752	27.548	821.694	653.788
362.767	27.404	821.724	653.236
363.781	27.870	820.539	653.906
364.796	28.117	820.745	654.898
365.810	28.222	820.145	654.736
366.825	28.433	819.950	655.279
367.840	28.035	819.957	653.804
368.854	27.839	819.328	652.541
369.869	27.830	818.706	651.957
370.883	27.444	818.157	650.086
371.898	27.707	817.517	650.457
372.913	27.674	817.232	650.056
373.927	27.908	815.768	649.664
374.942	27.717	815.861	649.001
375.956	27.688	815.334	648.423
376.971	28.172	814.160	649.150
377.986	28.073	813.709	648.381
379.000	28.322	812.081	647.908
380.015	28.302	813.122	648.610
381.029	27.709	813.273	646.570
382.044	27.663	812.285	645.567
383.059	28.465	810.672	647.057
384.073	28.197	811.159	646.444
385.088	28.261	810.480	646.070
386.102	27.960	809.620	644.266
387.117	27.640	808.619	642.286
388.132	27.537	808.264	641.583
389.146	27.231	808.083	640.307
390.161	26.777	808.134	638.692
391.175	27.411	806.834	639.837
392.190	28.109	806.756	642.172
393.205	28.085	805.665	641.162
394.219	27.316	804.259	637.294
395.234	25.809	802.822	630.824
396.248	24.667	802.036	626.153
397.263	26.098	801.884	630.985
398.278	27.394	803.056	636.387
399.292	27.263	803.274	636.046
400.307	26.898	802.763	634.309
401.321	26.951	801.966	633.808
402.336	27.366	801.281	634.658
403.350	27.310	801.382	634.488
404.365	27.535	801.752	635.508
405.380	28.071	801.105	636.805
406.394	28.371	801.808	638.354
407.409	27.982	801.344	636.573
408.423	28.774	799.696	637.962
409.438	28.219	799.639	635.930
410.453	28.464	799.039	636.246
411.467	28.337	799.181	635.863
412.482	27.937	798.211	633.650
413.496	28.207	796.520	633.185
414.511	28.475	796.136	633.749
415.526	28.441	796.926	634.203
416.540	28.136	796.104	632.441
417.555	28.240	795.916	632.594
418.569	28.096	794.890	631.225
419.584	27.901	794.793	630.421
420.599	27.801	793.686	629.143
421.613	159.260	1370.345	1793.039
422.628	137.991	1454.342	1793.106
