DTS Sentinel unit serial number:	SN413079Multiplexer serial number:	ORYXHardware model number:	OX4-SRSoftware version number:	ORYX F/W v4.00 Oryx Data Collector v3.7.2.0data status	okinstallation	princeton_trtdifferential loss correction	single-endedforward channel	channel 3reverse channel	N/Adate	2019/09/16time	06:16:35forward acquisition time	60.00reverse acquisition time	0.00gamma	496.2192k internal	0.2335k external	0.2335temperature offset calibration	0.9960default loss term (dB/km)	0.3790temperature slope calibration	1.0000multiplexer offset coefficient	1.0000multiplexer slope coefficient	1.0000fibre end	0.00T internal ref (°C)	27.44T ext. ref 1 (°C)	11.31T ext. ref 2 (°C)	21.71length (m)	temperature (°C)	Stokes	anti-Stokes-747.200	169.033	0.148	-0.213
-746.185	-200.000	0.010	0.280
-745.171	-200.000	0.019	0.129
-744.156	-111.374	0.194	-0.040
-743.142	-26.504	-0.188	-0.111
-742.127	-200.000	0.012	0.188
-741.112	3.703	-0.050	0.037
-740.098	264.973	-0.298	0.521
-739.083	-177.700	0.212	-0.005
-738.069	-40.240	-0.183	0.096
-737.054	-87.626	-0.322	-0.098
-736.039	-131.236	0.242	0.032
-735.025	27.151	0.287	0.242
-734.010	-136.978	-0.297	-0.034
-732.996	-200.000	0.063	-0.303
-731.981	-110.079	-0.239	0.050
-730.966	741.953	-0.048	0.130
-729.952	-55.233	-0.402	-0.182
-728.937	-200.000	-0.016	-0.173
-727.923	194.165	0.050	-0.076
-726.908	-69.739	-0.290	0.111
-725.894	99.116	-0.062	-0.072
-724.879	590.456	0.102	-0.252
-723.864	200.257	0.227	0.350
-722.850	-24.928	-0.083	0.050
-721.835	-200.000	0.034	-0.362
-720.821	800.000	-0.103	-0.448
-719.806	-179.414	-0.380	-0.008
-718.791	-200.000	-0.026	-0.241
-717.777	800.000	0.041	-0.168
-716.762	273.310	-0.087	-0.154
-715.748	-200.000	0.007	-0.067
-714.733	344.659	-0.027	0.054
-713.718	-27.146	-0.393	-0.230
-712.704	-200.000	0.330	0.002
-711.689	800.000	-0.143	-0.431
-710.675	-49.463	-0.214	-0.102
-709.660	-85.550	0.283	-0.088
-708.645	-200.000	0.027	-0.261
-707.631	-188.144	0.434	-0.006
-706.616	117.801	-0.158	0.196
-705.602	-113.955	0.262	-0.051
-704.587	-200.000	-0.035	-0.220
-703.572	141.359	-0.060	0.080
-702.558	506.659	-0.235	-0.548
-701.543	110.753	0.229	0.277
-700.529	-43.261	-0.161	0.082
-699.514	7.858	0.216	0.162
-698.499	-69.834	-0.214	0.082
-697.485	-200.000	-0.027	-0.187
-696.470	-37.422	-0.031	0.016
-695.456	164.621	0.053	-0.075
-694.441	384.349	-0.135	-0.278
-693.426	-200.000	-0.001	-0.097
-692.412	-9.430	0.136	0.091
-691.397	203.380	0.177	0.274
-690.383	800.000	0.059	-0.247
-689.368	800.000	-0.091	0.354
-688.354	182.953	-0.240	0.355
-687.339	160.673	0.062	-0.087
-686.324	269.469	0.080	0.141
-685.310	137.550	-0.128	0.168
-684.295	-200.000	-0.064	-0.284
-683.281	90.680	-0.018	0.020
-682.266	78.587	-0.203	-0.217
-681.251	800.000	-0.054	-0.219
-680.237	-151.987	-0.293	0.021
-679.222	292.716	0.097	0.177
-678.208	26.455	-0.092	0.077
-677.193	-76.679	-0.086	-0.030
-676.178	-200.000	0.008	-0.312
-675.164	-36.413	-0.230	-0.124
-674.149	123.693	-0.126	-0.159
-673.135	-200.000	-0.001	0.094
-672.120	-131.035	-0.150	-0.020
-671.105	99.860	0.077	-0.089
-670.091	-28.503	-0.335	0.194
-669.076	-200.000	-0.005	0.024
-668.062	-200.000	0.005	-0.033
-667.047	-95.584	0.107	0.029
-666.032	12.021	-0.144	-0.111
-665.018	4.761	0.256	0.188
-664.003	482.202	0.045	0.103
-662.989	-145.858	-0.511	-0.045
-661.974	-50.067	-0.217	-0.103
-660.959	-70.727	0.338	0.128
-659.945	4.435	-0.240	0.176
-658.930	86.113	0.078	-0.086
-657.916	172.477	-0.197	0.283
-656.901	-65.331	-0.197	-0.079
-655.886	471.133	0.085	0.192
-654.872	800.000	-0.071	-0.237
-653.857	200.866	0.078	-0.120
-652.843	-62.715	-0.200	0.083
-651.828	444.649	0.071	0.157
-650.814	91.489	0.127	-0.143
-649.799	-135.358	-0.147	-0.018
-648.784	125.013	0.011	0.014
-647.770	-109.896	0.271	-0.057
-646.755	19.296	-0.197	-0.159
-645.741	0.531	0.089	0.063
-644.726	-50.287	0.120	-0.057
-643.711	511.604	-0.101	-0.235
-642.697	30.923	0.053	0.046
-641.682	33.448	0.216	-0.188
-640.668	-200.000	0.009	-0.156
-639.653	-50.160	-0.173	-0.082
-638.638	800.000	0.035	-0.141
-637.624	685.987	-0.026	-0.068
-636.609	-200.000	-0.074	0.456
-635.595	-100.963	0.189	0.046
-634.580	115.537	0.236	0.289
-633.565	25.989	0.082	0.069
-632.551	800.000	-0.047	0.190
-631.536	-6.899	-0.093	0.064
-630.522	38.794	-0.261	-0.233
-629.507	49.824	-0.185	-0.175
-628.492	-72.335	0.112	-0.042
-627.478	-200.000	0.031	-0.413
-626.463	51.849	-0.192	0.183
-625.449	640.934	0.097	-0.247
-624.434	54.481	0.196	0.189
-623.419	-200.000	0.042	-0.253
-622.405	117.085	-0.027	-0.033
-621.390	-135.095	0.279	0.034
-620.376	-99.936	-0.328	-0.082
-619.361	-126.622	-0.140	-0.021
-618.346	181.359	-0.097	-0.142
-617.332	-200.000	-0.003	-0.218
-616.317	-59.494	-0.159	0.068
-615.303	-200.000	0.005	-0.168
-614.288	0.817	-0.130	0.093
-613.273	362.571	0.119	-0.239
-612.259	40.556	-0.216	-0.195
-611.244	139.044	-0.164	-0.215
-610.230	11.508	-0.137	0.105
-609.215	-78.861	0.205	-0.070
-608.201	-200.000	0.002	0.011
-607.186	-63.973	0.518	0.212
-606.171	122.814	-0.147	-0.184
-605.157	-51.204	-0.155	0.072
-604.142	-108.132	-0.247	-0.053
-603.128	11.319	-0.211	-0.161
-602.113	-200.000	-0.013	0.117
-601.098	-200.000	0.039	0.323
-600.084	182.092	-0.115	-0.169
-599.069	123.886	-0.207	0.260
-598.055	-200.000	-0.010	-0.250
-597.040	-200.000	0.001	-0.108
-596.025	453.414	-0.165	-0.366
-595.011	136.908	-0.129	-0.168
-593.996	-162.080	-0.214	0.011
-592.982	30.947	0.104	-0.089
-591.967	-87.548	-0.322	0.097
-590.952	243.401	0.045	0.075
-589.938	18.289	0.196	-0.156
-588.923	-36.413	0.137	0.074
-587.909	120.694	0.122	-0.151
-586.894	800.000	0.067	0.208
-585.879	39.780	-0.120	-0.107
-584.865	-48.053	-0.169	-0.081
-583.850	800.000	-0.045	0.129
-582.836	144.709	-0.155	0.206
-581.821	105.278	-0.189	0.223
-580.806	-33.835	-0.306	-0.168
-579.792	-200.000	0.004	0.056
-578.777	-200.000	0.042	-0.511
-577.763	-92.969	0.225	-0.063
-576.748	-18.780	-0.115	0.071
-575.733	199.292	0.045	0.069
-574.719	-4.972	-0.110	-0.076
-573.704	800.000	-0.041	0.155
-572.690	-83.598	-0.172	-0.055
-571.675	319.961	-0.037	-0.070
-570.661	-77.824	0.070	-0.024
-569.646	-200.000	0.056	-0.401
-568.631	-39.202	0.148	-0.077
-567.617	317.897	0.115	0.218
-566.602	129.404	-0.236	0.300
-565.588	-28.293	0.332	-0.191
-564.573	379.834	-0.135	-0.277
-563.558	718.460	0.045	0.119
-562.544	-49.232	0.263	0.125
-561.529	367.584	0.073	0.148
-560.515	-200.000	0.000	0.347
-559.500	109.840	0.121	-0.145
-558.485	-34.347	0.210	0.115
-557.471	-46.066	-0.409	0.201
-556.456	20.400	0.448	0.361
-555.442	92.734	-0.224	0.252
-554.427	-81.966	0.162	-0.053
-553.412	-39.329	-0.278	-0.145
-552.398	74.922	-0.081	0.085
-551.383	-42.706	-0.156	0.079
-550.369	45.375	0.136	-0.125
-549.354	-108.387	-0.084	0.018
-548.339	16.294	0.091	-0.072
-547.325	147.663	0.032	-0.043
-546.310	354.944	0.038	-0.076
-545.296	800.000	0.030	0.104
-544.281	800.000	-0.083	0.315
-543.266	-198.899	0.012	0.000
-542.252	-76.803	-0.231	0.081
-541.237	-180.768	0.216	-0.004
-540.223	473.195	-0.023	-0.053
-539.208	-81.779	0.141	-0.046
-538.193	-97.776	-0.052	-0.013
-537.179	29.313	-0.246	-0.208
-536.164	-42.297	-0.071	-0.036
-535.150	-200.000	-0.017	-0.250
-534.135	-75.411	-0.401	-0.142
-533.121	0.603	0.211	0.150
-532.106	-168.535	-0.297	0.011
-531.091	133.319	0.097	0.125
-530.077	-200.000	-0.000	-0.058
-529.062	80.187	-0.124	-0.133
-528.048	88.044	-0.286	-0.316
-527.033	800.000	-0.053	0.149
-526.018	-7.568	0.086	0.058
-525.004	-124.805	0.179	-0.028
-523.989	-86.392	0.124	-0.038
-522.975	57.158	-0.174	0.169
-521.960	-104.672	-0.331	-0.076
-520.945	-92.400	-0.086	0.024
-519.931	800.000	0.065	0.268
-518.916	-200.000	0.017	-0.104
-517.902	-200.000	0.001	-0.213
-516.887	-60.007	0.345	-0.147
-515.872	-200.000	-0.117	-0.000
-514.858	-11.762	0.127	-0.083
-513.843	800.000	0.008	-0.026
-512.829	138.136	-0.230	0.300
-511.814	-200.000	-0.108	-0.558
-510.799	97.029	-0.146	0.167
-509.785	165.207	0.212	0.299
-508.770	-30.889	0.257	-0.144
-507.756	-68.654	0.146	0.056
-506.741	-76.232	0.165	-0.058
-505.726	579.779	0.124	0.303
-504.712	-63.345	0.214	0.088
-503.697	-200.000	-0.028	-0.384
-502.683	800.000	-0.092	0.261
-501.668	703.997	-0.058	-0.151
-500.653	800.000	-0.130	0.390
-499.639	-200.000	0.076	0.425
-498.624	430.633	0.082	-0.177
-497.610	57.525	0.061	-0.059
-496.595	-160.719	0.173	0.009
-495.581	-27.278	0.184	-0.107
-494.566	278.401	0.205	-0.364
-493.551	-64.002	0.280	-0.114
-492.537	134.449	-0.153	-0.197
-491.522	-200.000	0.007	-0.135
-490.508	-35.724	0.117	-0.063
-489.493	-200.000	-0.008	-0.410
-488.478	-89.535	0.170	0.050
-487.464	-151.415	0.230	-0.017
-486.449	-86.157	-0.418	-0.128
-485.435	46.611	-0.121	0.112
-484.420	-186.773	-0.111	0.002
-483.405	471.989	-0.083	-0.186
-482.391	-44.629	0.200	-0.099
-481.376	-200.000	0.033	0.448
-480.362	-200.000	-0.003	0.177
-479.347	-40.211	-0.023	-0.012
-478.332	-142.971	-0.255	0.025
-477.318	-44.488	-0.273	0.136
-476.303	-168.915	0.070	-0.003
-475.289	-200.000	0.007	-0.206
-474.274	-67.730	0.065	0.025
-473.259	307.998	0.159	-0.295
-472.245	-200.000	0.061	-0.421
-471.230	-12.352	-0.245	-0.159
-470.216	-200.000	-0.014	0.356
-469.201	-200.000	-0.028	-0.245
-468.186	-200.000	0.001	0.082
-467.172	-81.997	-0.094	0.030
-466.157	264.910	-0.109	-0.188
-465.143	800.000	0.034	0.107
-464.128	-122.389	-0.123	-0.020
-463.113	-65.177	-0.021	0.008
-462.099	-124.650	0.192	0.030
-461.084	32.135	0.108	-0.093
-460.070	800.000	-0.065	0.233
-459.055	-200.000	-0.047	0.494
-458.040	106.665	-0.119	0.141
-457.026	583.100	0.107	-0.260
-456.011	40.982	-0.196	-0.176
-454.997	-146.068	-0.184	-0.016
-453.982	-104.376	0.280	-0.064
-452.968	-35.115	-0.290	-0.157
-451.953	-175.355	0.477	-0.013
-450.938	-200.000	-0.020	0.175
-449.924	131.992	-0.097	0.124
-448.909	800.000	0.074	0.219
-447.895	487.875	-0.035	0.079
-446.880	-200.000	-0.010	-0.119
-445.865	-150.486	0.131	0.010
-444.851	-147.950	0.227	0.019
-443.836	-39.334	-0.069	-0.036
-442.822	-110.246	-0.036	0.007
-441.807	-56.562	-0.469	-0.206
-440.792	194.842	-0.083	0.125
-439.778	-51.085	0.074	-0.035
-438.763	285.862	-0.173	0.311
-437.749	-124.344	0.457	0.071
-436.734	-200.000	0.014	0.086
-435.719	-200.000	0.016	-0.148
-434.705	39.148	0.096	-0.085
-433.690	-200.000	-0.013	-0.214
-432.676	188.625	0.109	0.161
-431.661	-87.807	0.347	-0.104
-430.646	2.687	-0.176	-0.127
-429.632	800.000	-0.036	0.113
-428.617	-132.168	0.360	0.046
-427.603	800.000	-0.054	0.175
-426.588	95.878	-0.195	0.221
-425.573	-177.335	0.464	-0.011
-424.559	-127.428	-0.288	-0.042
-423.544	-146.825	-0.160	-0.014
-422.530	439.141	-0.093	-0.201
-421.515	800.000	-0.149	-0.561
-420.500	442.164	0.119	0.258
-419.486	-101.816	0.294	-0.071
-418.471	-59.364	-0.214	-0.091
-417.457	64.557	0.070	-0.070
-416.442	-200.000	0.016	-0.381
-415.428	-200.000	-0.003	0.215
-414.413	153.653	-0.095	0.129
-413.398	37.031	0.068	-0.060
-412.384	53.983	0.324	-0.309
-411.369	-2.297	0.350	-0.244
-410.355	173.108	0.071	0.102
-409.340	310.699	-0.117	-0.218
-408.325	-200.000	-0.009	0.041
-407.311	-200.000	0.059	-0.291
-406.296	669.306	0.026	0.066
-405.282	-17.178	-0.335	0.210
-404.267	-91.676	-0.216	-0.061
-403.252	647.163	0.053	0.136
-402.238	-200.000	-0.013	0.411
-401.223	-155.745	-0.195	0.012
-400.209	9.911	0.268	-0.201
-399.194	-191.663	0.338	0.003
-398.179	-136.964	0.498	-0.057
-397.165	779.671	-0.152	0.411
-396.150	9.955	0.037	-0.028
-395.136	-200.000	0.042	0.249
-394.121	601.346	-0.057	0.141
-393.106	800.000	-0.016	-0.061
-392.092	-200.000	0.016	-0.092
-391.077	-200.000	-0.045	0.199
-390.063	10.660	0.306	0.231
-389.048	298.107	0.086	0.157
-388.033	315.183	-0.095	0.178
-387.019	789.001	0.059	-0.159
-386.004	-41.792	-0.316	0.160
-384.990	-79.964	-0.097	0.032
-383.975	309.370	0.019	0.035
-382.960	-44.884	-0.040	-0.020
-381.946	499.924	-0.045	-0.102
-380.931	104.587	0.106	0.123
-379.917	-88.187	0.385	-0.114
-378.902	-138.373	-0.374	0.041
-377.888	-145.151	0.176	-0.016
-376.873	426.146	-0.046	-0.098
-375.858	-99.460	-0.103	-0.026
-374.844	34.903	0.090	-0.078
-373.829	-200.000	0.042	0.218
-372.815	66.425	0.093	-0.094
-371.800	-95.666	0.277	0.073
-370.785	117.808	0.249	0.303
-369.771	382.382	-0.101	-0.205
-368.756	188.964	0.095	-0.141
-367.742	-17.991	-0.226	-0.140
-366.727	800.000	-0.140	0.429
-365.712	307.702	0.184	0.340
-364.698	-200.000	-0.021	-0.162
-363.683	35.753	-0.164	0.143
-362.669	-80.239	0.185	-0.061
-361.654	-142.321	0.369	0.036
-360.639	374.421	0.137	-0.276
-359.625	69.961	0.130	-0.133
-358.610	-17.645	-0.272	0.169
-357.596	5.035	-0.213	-0.155
-356.581	726.507	0.037	-0.099
-355.566	119.052	0.116	0.142
-354.552	-108.558	-0.194	-0.041
-353.537	168.518	0.094	-0.132
-352.523	-26.407	0.112	0.065
-351.508	33.074	-0.135	0.116
-350.493	-19.121	-0.076	0.047
-349.479	-200.000	0.090	-0.526
-348.464	75.958	-0.058	-0.060
-347.450	-161.438	0.171	-0.009
-346.435	-14.973	0.183	0.116
-345.420	-180.713	-0.178	0.004
-344.406	41.635	0.377	-0.338
-343.391	-83.963	-0.288	-0.090
-342.377	229.704	-0.185	-0.299
-341.362	-21.326	0.234	-0.141
-340.348	24.066	0.202	0.165
-339.333	-200.000	0.011	-0.166
-338.318	2.663	0.216	-0.155
-337.304	602.012	0.051	0.126
-336.289	-200.000	0.014	-0.066
-335.275	77.476	0.292	0.308
-334.260	-98.689	-0.407	-0.103
-333.245	-200.000	-0.036	-0.159
-332.231	-4.144	-0.067	-0.046
-331.216	-34.887	-0.156	-0.084
-330.202	47.589	0.175	0.162
-329.187	-200.000	0.016	0.120
-328.172	4.725	-0.142	0.103
-327.158	721.419	-0.076	0.201
-326.143	254.677	0.116	0.196
-325.129	3.398	0.346	-0.249
-324.114	-0.995	-0.271	0.189
-323.099	-130.831	0.199	-0.026
-322.085	258.318	-0.036	0.061
-321.070	-200.000	-0.006	-0.031
-320.056	800.000	0.076	0.260
-319.041	-40.258	0.065	-0.033
-318.026	-40.663	0.195	0.100
-317.012	-14.054	0.145	0.092
-315.997	16.017	-0.064	-0.049
-314.983	-29.568	0.104	0.059
-313.968	457.013	-0.169	-0.371
-312.953	-12.620	0.170	-0.109
-311.939	-159.309	-0.170	-0.009
-310.924	51.051	0.196	-0.183
-309.910	-11.829	0.135	0.088
-308.895	275.196	-0.145	0.253
-307.880	-72.564	0.376	0.137
-306.866	-46.383	-0.108	0.052
-305.851	-124.772	0.201	-0.031
-304.837	97.198	0.213	0.241
-303.822	790.284	-0.105	0.284
-302.807	-30.149	0.264	-0.148
-301.793	-200.000	0.039	-0.272
-300.778	-200.000	0.007	0.107
-299.764	146.239	-0.114	-0.151
-298.749	-200.000	0.020	0.098
-297.735	-21.967	-0.359	0.215
-296.720	301.058	-0.208	-0.379
-295.705	-41.060	0.227	-0.116
-294.691	-102.354	0.373	-0.088
-293.676	388.043	0.061	-0.125
-292.662	34.561	0.274	0.236
-291.647	-200.000	-0.002	-0.179
-290.632	-81.738	-0.062	0.020
-289.618	-200.000	0.012	-0.347
-288.603	29.174	-0.267	-0.224
-287.589	-200.000	-0.041	-0.437
-286.574	-64.332	0.043	-0.017
-285.559	-64.040	0.090	0.036
-284.545	-89.545	-0.148	0.043
-283.530	-36.719	0.298	0.158
-282.516	-200.000	-0.078	0.353
-281.501	800.000	0.022	-0.096
-280.486	68.319	0.157	-0.159
-279.472	-86.027	-0.082	-0.025
-278.457	800.000	-0.094	0.324
-277.443	24.186	-0.254	0.207
-276.428	157.320	0.141	0.192
-275.413	276.090	0.058	0.102
-274.399	570.977	-0.031	0.074
-273.384	-44.685	-0.176	0.087
-272.370	625.918	0.047	-0.117
-271.355	-200.000	0.011	0.185
-270.340	-61.518	-0.202	-0.084
-269.326	-71.337	-0.161	-0.059
-268.311	-61.483	-0.242	0.100
-267.297	141.054	-0.077	-0.101
-266.282	257.612	-0.123	-0.209
-265.267	-200.000	0.015	0.112
-264.253	-48.905	0.021	-0.010
-263.238	-77.633	0.208	-0.071
-262.224	800.000	-0.035	-0.143
-261.209	-72.326	0.255	-0.093
-260.195	-37.569	0.192	0.101
-259.180	800.000	-0.104	0.362
-258.165	-130.843	0.147	0.019
-257.151	-41.802	0.288	0.146
-256.136	333.900	0.111	-0.212
-255.122	-200.000	0.007	0.062
-254.107	10.203	-0.181	0.136
-253.092	-117.174	-0.061	0.011
-252.078	124.807	-0.108	0.134
-251.063	-91.924	-0.027	-0.008
-250.049	-200.000	-0.033	0.421
-249.034	150.630	-0.057	-0.077
-248.019	204.474	-0.132	0.202
-247.005	-37.945	-0.243	0.127
-245.990	-200.000	-0.048	-0.318
-244.976	-200.000	-0.012	-0.068
-243.961	57.128	-0.164	-0.158
-242.946	-116.113	-0.216	0.040
-241.932	335.527	-0.243	0.464
-240.917	-52.689	0.079	-0.036
-239.903	35.180	-0.090	-0.078
-238.888	800.000	0.091	-0.329
-237.873	332.966	0.128	-0.245
-236.859	32.940	-0.109	-0.093
-235.844	596.231	-0.058	-0.143
-234.830	-200.000	-0.016	-0.218
-233.815	100.598	0.188	0.215
-232.800	-41.366	-0.178	-0.090
-231.786	-200.000	0.003	0.143
-230.771	-134.527	0.215	-0.026
-229.757	800.000	0.078	0.324
-228.742	-95.503	-0.171	0.045
-227.727	-200.000	0.004	-0.101
-226.713	-164.777	-0.290	0.013
-225.698	-133.386	0.449	0.056
-224.684	-35.102	0.171	0.092
-223.669	-200.000	0.039	0.310
-222.655	-200.000	0.008	0.312
-221.640	-83.284	-0.285	0.090
-220.625	16.936	0.021	-0.016
-219.611	39.186	-0.135	-0.118
-218.596	7.836	0.035	0.026
-217.582	-200.000	0.006	0.089
-216.567	159.776	0.160	0.219
-215.552	93.536	-0.158	-0.176
-214.538	-108.058	-0.064	-0.014
-213.523	-188.516	-0.197	0.002
-212.509	-47.483	-0.232	0.111
-211.494	800.000	-0.058	0.212
-210.479	167.692	0.128	0.178
-209.465	-141.875	-0.367	0.036
-208.450	135.397	-0.171	-0.219
-207.436	-68.235	-0.277	-0.106
-206.421	626.593	0.061	0.153
-205.406	-47.608	0.294	-0.140
-204.392	800.000	0.069	0.274
-203.377	-150.798	-0.113	-0.008
-202.363	-200.000	-0.021	-0.173
-201.348	198.426	-0.027	-0.040
-200.333	241.649	-0.111	-0.182
-199.319	-200.000	-0.053	0.256
-198.304	104.408	-0.138	0.160
-197.290	0.400	-0.126	-0.089
-196.275	-85.304	-0.245	0.075
-195.260	39.202	-0.126	0.111
-194.246	641.888	0.074	0.186
-193.231	-124.335	-0.270	-0.042
-192.217	92.869	0.110	-0.122
-191.202	-6.910	0.228	-0.152
-190.187	-200.000	-0.010	0.052
-189.173	-130.167	0.216	0.029
-188.158	800.000	0.126	0.461
-187.144	-6.438	-0.101	-0.068
-186.129	466.638	0.053	0.117
-185.114	12.197	0.183	0.138
-184.100	526.416	0.155	0.360
-183.085	10.997	0.231	0.173
-182.071	-71.632	0.082	0.030
-181.056	70.207	-0.189	0.192
-180.042	-107.902	0.372	-0.080
-179.027	-62.563	-0.226	-0.092
-178.012	800.000	0.075	-0.303
-176.998	16.688	-0.210	-0.163
-175.983	-200.000	-0.002	0.087
-174.969	-200.000	0.019	0.191
-173.954	14.963	0.169	-0.130
-172.939	-111.529	0.137	0.027
-171.925	-48.727	-0.190	-0.090
-170.910	-38.357	-0.204	-0.106
-169.896	476.109	0.052	0.114
-168.881	-9.225	0.172	0.113
-167.866	19.877	0.022	-0.017
-166.852	74.869	0.102	-0.105
-165.837	405.098	0.064	-0.132
-164.823	277.430	-0.104	0.183
-163.808	-73.092	-0.239	-0.086
-162.793	-60.681	-0.329	0.137
-161.779	286.299	0.103	0.183
-160.764	125.498	-0.037	-0.046
-159.750	43.895	-0.090	-0.081
-158.735	-200.000	-0.046	0.266
-157.720	-200.000	-0.011	0.160
-156.706	-200.000	-0.022	-0.160
-155.691	-200.000	-0.016	-0.200
-154.677	-136.352	-0.276	-0.032
-153.662	248.658	0.123	-0.204
-152.647	170.815	0.143	0.202
-151.633	676.827	-0.024	-0.061
-150.618	72.746	-0.107	-0.110
-149.604	-24.174	0.285	0.167
-148.589	226.026	0.124	-0.197
-147.574	115.989	-0.168	-0.202
-146.560	184.451	0.155	-0.226
-145.545	800.000	-0.065	0.238
-144.531	-17.973	-0.096	-0.059
-143.516	-0.480	-0.149	0.104
-142.502	40.423	0.311	0.275
-141.487	800.000	-0.133	0.400
-140.472	-71.095	0.202	-0.074
-139.458	-40.929	0.164	-0.083
-138.443	184.418	0.145	-0.211
-137.429	290.367	0.079	-0.140
-136.414	-112.230	-0.235	0.046
-135.399	-200.000	0.006	0.045
-134.385	-200.000	0.033	-0.207
-133.370	-93.739	0.124	-0.034
-132.356	77.262	0.197	0.205
-131.341	-200.000	0.022	0.099
-130.326	330.999	0.125	-0.237
-129.312	-200.000	0.024	0.152
-128.297	16.490	0.062	-0.048
-127.283	56.499	0.322	-0.307
-126.268	284.817	-0.062	-0.109
-125.253	44.734	-0.136	-0.123
-124.239	413.723	0.120	0.250
-123.224	-142.622	0.177	0.017
-122.210	800.000	-0.060	-0.178
-121.195	104.426	0.111	0.129
-120.180	39.667	0.184	-0.162
-119.166	-200.000	0.000	0.220
-118.151	800.000	-0.149	0.461
-117.137	366.036	0.029	0.057
-116.122	-123.340	-0.366	0.057
-115.107	221.063	-0.078	-0.122
-114.093	41.076	-0.216	0.191
-113.078	10.484	-0.312	0.233
-112.064	-94.253	-0.078	-0.021
-111.049	134.488	0.142	0.181
-110.034	14.508	0.282	0.216
-109.020	35.803	-0.091	0.079
-108.005	237.143	-0.015	0.024
-106.991	8.191	-0.280	-0.206
-105.976	800.000	-0.076	0.210
-104.962	260.574	0.141	0.238
-103.947	274.469	0.057	0.098
-102.932	-200.000	-0.104	0.462
-101.918	-200.000	-0.012	-0.500
-100.903	-200.000	0.040	0.301
-99.889	355.205	-0.073	-0.142
-98.874	-127.394	0.161	-0.023
-97.859	-158.663	0.173	-0.010
-96.845	73.596	-0.029	-0.029
-95.830	-200.000	-0.057	-0.269
-94.816	-10.280	0.094	0.061
-93.801	-62.328	0.461	-0.188
-92.786	170.180	-0.235	-0.329
-91.772	-48.941	-0.197	-0.092
-90.757	-78.970	0.143	0.048
-89.743	114.310	-0.289	0.345
-88.728	337.602	-0.156	0.297
-87.713	-109.199	0.174	0.036
-86.699	68.413	0.120	-0.121
-85.684	800.000	0.087	-0.259
-84.670	-45.224	0.051	-0.025
-83.655	-200.000	0.042	0.243
-82.640	-42.484	0.121	-0.060
-81.626	80.781	0.262	-0.277
-80.611	-200.000	0.065	0.294
-79.597	-42.449	0.256	0.128
-78.582	44.456	0.188	-0.170
-77.567	-200.000	-0.004	-0.073
-76.553	329.715	-0.094	0.176
-75.538	-125.159	0.442	0.066
-74.524	-190.112	-0.294	-0.003
-73.509	-28.840	0.238	0.134
-72.494	-73.093	0.396	0.142
-71.480	-1.483	0.132	-0.091
-70.465	-10.478	-0.299	-0.194
-69.451	6.471	0.193	0.140
-68.436	351.379	-0.136	0.264
-67.422	-7.499	0.077	-0.051
-66.407	48.168	0.250	0.229
-65.392	-112.714	0.521	-0.101
-64.378	-135.524	-0.094	0.011
-63.363	77.366	-0.072	-0.075
-62.349	90.116	-0.057	0.062
-61.334	103.763	-0.982	-1.128
-60.319	289.543	0.178	0.315
-59.305	800.000	-0.309	-1.118
-58.290	107.888	0.885	1.031
-57.276	800.000	0.456	1.613
-56.261	-200.000	113.845	642.349
-55.246	465.134	1511.736	3308.340
-54.232	146.870	2679.654	3523.812
-53.217	102.788	2178.719	2494.333
-52.203	37.713	1706.665	1482.119
-51.188	30.492	1524.198	1274.301
-50.173	28.366	1499.436	1239.190
-49.159	52.754	1556.513	1454.891
-48.144	51.194	1572.533	1459.083
-47.130	30.785	1529.120	1280.230
-46.115	27.760	1514.560	1247.347
-45.100	27.463	1510.874	1242.237
-44.086	27.543	1508.278	1240.594
-43.071	27.395	1507.042	1238.520
-42.057	27.407	1505.717	1237.469
-41.042	27.438	1504.191	1236.377
-40.027	27.365	1502.539	1234.470
-39.013	27.434	1500.768	1233.439
-37.998	27.328	1500.204	1232.202
-36.984	27.418	1498.252	1231.165
-35.969	27.353	1497.222	1229.827
-34.954	27.429	1495.702	1229.041
-33.940	27.479	1494.297	1228.180
-32.925	27.541	1492.750	1227.277
-31.911	27.387	1491.807	1225.412
-30.896	27.523	1490.121	1224.897
-29.881	27.500	1489.124	1223.874
-28.867	27.472	1487.889	1222.617
-27.852	27.380	1487.133	1221.333
-26.838	27.463	1485.383	1220.407
-25.823	27.446	1483.582	1218.763
-24.809	27.513	1481.960	1217.829
-23.794	27.429	1480.778	1216.251
-22.779	27.439	1479.706	1215.387
-21.765	27.431	1478.790	1214.536
-20.750	27.479	1477.399	1213.659
-19.736	27.491	1476.411	1212.879
-18.721	27.384	1475.667	1211.510
-17.706	27.444	1474.529	1210.929
-16.692	27.466	1473.003	1209.772
-15.677	27.455	1471.973	1208.807
-14.663	27.409	1471.152	1207.779
-13.648	27.430	1470.367	1207.225
-12.633	27.446	1469.517	1206.586
-11.619	27.573	1468.422	1206.477
-10.604	27.469	1467.947	1205.350
-9.590	27.397	1466.919	1203.986
-8.575	27.470	1466.190	1203.822
-7.560	27.498	1465.176	1203.126
-6.546	27.368	1464.426	1201.603
-5.531	27.351	1463.545	1200.720
-4.517	27.411	1462.000	1199.799
-3.502	27.541	1460.933	1199.736
-2.487	27.384	1460.527	1198.317
-1.473	27.453	1458.822	1197.324
-0.458	27.391	1457.992	1196.189
0.556	25.898	1448.045	1184.736
1.571	22.997	1422.637	1145.076
2.586	19.610	1363.284	1076.143
3.600	18.070	1280.362	1001.578
4.615	17.023	1235.911	960.799
5.629	16.512	1182.829	916.680
6.644	13.955	1107.518	845.242
7.659	11.761	1073.406	808.306
8.673	11.365	1068.101	802.295
9.688	11.382	1065.583	800.417
10.702	11.298	1063.710	798.525
11.717	11.205	1062.434	797.042
12.731	12.171	1060.858	800.506
13.746	14.833	1063.745	815.619
14.761	17.218	1066.742	829.501
15.775	17.757	1066.826	832.125
16.790	17.124	1065.242	827.730
17.804	16.076	1062.922	820.755
18.819	15.088	1061.019	814.412
19.834	14.601	1059.686	810.948
20.848	14.262	1058.270	808.150
21.863	14.117	1057.691	806.929
22.877	13.848	1056.614	804.734
23.892	13.737	1055.481	803.264
24.907	13.658	1054.966	802.417
25.921	13.552	1054.441	801.434
26.936	13.569	1053.700	800.882
27.950	13.750	1052.390	800.690
28.965	13.692	1051.937	799.992
29.980	13.861	1049.797	799.109
30.994	13.799	1049.410	798.445
32.009	13.879	1048.119	797.777
33.023	13.878	1047.557	797.276
34.038	13.939	1046.720	796.857
35.053	13.797	1046.090	795.627
36.067	13.781	1044.798	794.499
37.082	13.796	1043.920	793.831
38.096	13.798	1043.467	793.426
39.111	13.859	1042.404	792.838
40.126	13.763	1041.970	791.980
41.140	13.735	1040.961	791.011
42.155	13.674	1039.304	789.391
43.169	13.588	1038.786	788.522
44.184	13.569	1037.357	787.272
45.199	13.627	1036.074	786.506
46.213	13.493	1035.290	785.208
47.228	13.611	1034.585	785.160
48.242	13.610	1033.909	784.576
49.257	13.835	1032.531	784.523
50.271	13.687	1031.478	782.952
51.286	13.793	1030.774	782.850
52.301	13.823	1029.922	782.273
53.315	13.752	1029.024	781.189
54.330	13.605	1028.820	780.272
55.344	13.705	1027.327	779.545
56.359	13.661	1026.320	778.502
57.374	13.657	1025.246	777.602
58.388	13.706	1024.557	777.239
59.403	13.624	1023.865	776.260
60.417	13.552	1023.444	775.535
61.432	13.531	1022.556	774.699
62.447	13.538	1021.744	774.047
63.461	13.473	1020.994	773.105
64.476	13.454	1019.836	772.072
65.490	13.495	1018.579	771.241
66.505	13.444	1018.069	770.552
67.520	13.542	1017.282	770.341
68.534	13.537	1016.663	769.782
69.549	13.496	1015.777	768.855
70.563	13.520	1015.042	768.339
71.578	13.589	1014.346	768.066
72.593	13.591	1013.093	767.057
73.607	13.444	1012.171	765.614
74.622	13.379	1011.510	764.742
75.636	13.424	1010.530	764.143
76.651	13.387	1009.967	763.479
77.666	13.438	1009.204	763.072
78.680	13.384	1008.469	762.197
79.695	13.453	1007.712	761.876
80.709	13.511	1007.139	761.642
81.724	13.521	1006.365	761.035
82.739	13.641	1005.386	760.777
83.753	13.566	1004.821	759.938
84.768	13.579	1004.254	759.502
85.782	13.660	1003.452	759.199
86.797	13.849	1002.511	759.286
87.812	13.806	1001.709	758.413
88.826	13.714	1000.844	757.270
89.841	13.584	1000.246	756.160
90.855	13.757	999.327	756.187
91.870	13.697	998.940	755.553
92.884	13.917	997.916	755.715
93.899	13.735	997.070	754.180
94.914	13.758	996.434	753.735
95.928	13.820	995.310	753.101
96.943	13.965	994.475	753.060
97.957	13.882	993.630	751.975
98.972	13.707	993.298	750.866
99.987	13.800	992.357	750.508
101.001	13.743	991.742	749.720
102.016	13.849	990.635	749.294
103.030	13.783	989.898	748.374
104.045	13.744	988.760	747.274
105.060	13.892	987.705	747.074
106.074	13.832	986.635	745.930
107.089	13.727	986.123	745.007
108.103	13.606	985.421	743.865
109.118	13.581	984.411	742.925
110.133	13.576	983.284	741.987
111.147	13.647	982.518	741.661
112.162	13.602	981.556	740.666
113.176	13.681	980.682	740.297
114.191	13.566	980.002	739.202
115.206	13.669	978.983	738.828
116.220	13.774	978.154	738.605
117.235	13.736	977.176	737.633
118.249	13.795	975.985	736.931
119.264	13.612	976.030	736.084
120.279	13.658	975.172	735.579
121.293	13.647	974.390	734.872
122.308	13.606	973.672	734.083
123.322	13.595	972.747	733.277
124.337	13.600	971.616	732.381
125.352	13.539	970.224	730.994
126.366	13.511	969.454	730.230
127.381	13.508	968.169	729.183
128.395	13.651	966.839	728.744
129.410	13.501	966.401	727.691
130.424	13.661	965.206	727.428
131.439	13.678	964.280	726.742
132.454	13.720	963.665	726.396
133.468	13.676	962.973	725.618
134.483	13.693	962.261	725.092
135.497	13.691	961.528	724.469
136.512	13.671	960.946	723.877
137.527	13.606	960.364	723.092
138.541	13.607	959.418	722.320
139.556	13.692	958.532	721.960
140.570	13.674	958.163	721.537
141.585	13.762	957.411	721.292
142.600	13.674	956.827	720.403
143.614	13.805	955.962	720.259
144.629	13.740	955.594	719.636
145.643	13.942	954.536	719.649
146.658	13.782	954.037	718.519
147.673	13.880	952.473	717.700
148.687	13.968	951.844	717.540
149.702	13.723	951.539	716.191
150.716	13.632	950.550	714.993
151.731	13.717	949.363	714.399
152.746	13.733	948.753	713.946
153.760	13.679	947.950	713.046
154.775	13.833	947.106	713.013
155.789	13.712	946.599	712.048
156.804	13.855	945.750	711.960
157.819	14.072	944.736	712.064
158.833	13.869	944.165	710.701
159.848	14.096	943.231	710.905
160.862	13.994	942.918	710.171
161.877	13.888	942.330	709.212
162.892	13.884	941.251	708.318
163.906	13.855	940.173	707.324
164.921	13.729	939.751	706.403
165.935	13.782	938.814	705.862
166.950	13.817	937.345	704.845
167.964	13.921	936.172	704.341
168.979	13.998	935.534	704.124
169.994	13.974	934.630	703.280
171.008	13.898	934.235	702.601
172.023	13.928	932.828	701.607
173.037	13.938	932.575	701.400
174.052	14.143	931.342	701.271
175.067	14.134	930.927	700.862
176.081	13.992	930.129	699.598
177.096	14.034	929.121	698.955
178.110	13.964	928.470	698.111
179.125	14.126	927.706	698.154
180.140	14.085	927.102	697.466
181.154	13.982	926.308	696.376
182.169	14.008	925.947	696.152
183.183	14.166	925.194	696.186
184.198	14.073	924.739	695.391
185.213	14.307	923.253	695.190
186.227	14.295	923.146	694.997
187.242	14.169	922.758	694.118
188.256	14.346	921.876	694.129
189.271	14.345	921.177	693.538
190.286	14.420	920.283	693.117
191.300	14.294	919.604	692.022
192.315	14.137	918.531	690.499
193.329	14.043	917.855	689.543
194.344	13.950	917.705	688.980
195.359	14.035	916.885	688.656
196.373	14.175	916.339	688.765
197.388	14.151	915.946	688.309
198.402	14.250	915.449	688.287
199.417	14.321	914.887	688.094
200.432	14.445	914.036	687.907
201.446	14.370	914.074	687.563
202.461	14.544	913.355	687.678
203.475	14.648	912.659	687.524
204.490	14.506	912.454	686.721
205.504	14.589	910.992	685.902
206.519	14.403	910.921	685.025
207.534	14.338	910.245	684.190
208.548	14.486	908.982	683.786
209.563	14.234	908.822	682.571
210.577	14.388	907.655	682.263
211.592	14.454	907.315	682.218
212.607	14.466	907.101	682.047
213.621	14.517	905.911	681.302
214.636	14.673	905.269	681.394
215.650	14.662	904.648	680.820
216.665	14.612	904.060	680.117
217.680	14.676	903.446	679.855
218.694	14.669	903.448	679.768
219.709	14.618	902.206	678.563
220.723	14.749	901.804	678.736
221.738	14.610	901.004	677.510
222.753	14.642	900.168	676.951
223.767	14.649	900.013	676.801
224.782	14.713	898.743	676.047
225.796	14.824	898.032	675.899
226.811	14.786	897.294	675.131
227.826	14.782	896.877	674.742
228.840	14.841	896.061	674.305
229.855	14.686	895.423	673.141
230.869	14.805	894.917	673.179
231.884	14.712	894.065	672.107
232.899	14.648	893.644	671.471
233.913	14.759	893.006	671.378
234.928	14.743	892.267	670.699
235.942	14.847	891.225	670.276
236.957	14.825	890.527	669.602
237.972	14.761	890.516	669.277
238.986	14.746	889.508	668.401
240.001	14.798	888.820	668.033
241.015	14.809	887.846	667.285
242.030	14.847	887.079	666.804
243.045	14.735	887.035	666.262
244.059	14.799	885.815	665.542
245.074	14.927	885.205	665.534
246.088	14.916	884.796	665.127
247.103	14.943	884.146	664.686
248.117	15.060	883.959	664.950
249.132	14.904	883.567	663.979
250.147	15.074	882.696	663.940
251.161	15.254	881.912	664.004
252.176	15.206	881.142	663.173
253.190	15.313	880.759	663.252
254.205	15.314	880.130	662.724
255.220	15.336	879.309	662.133
256.234	15.467	878.467	661.956
257.249	15.386	878.369	661.503
258.263	15.340	877.509	660.617
259.278	15.425	876.798	660.358
260.293	15.402	876.487	659.974
261.307	15.423	875.920	659.574
262.322	15.367	875.530	659.001
263.336	15.588	874.312	658.890
264.351	15.411	874.218	658.070
265.366	15.542	873.259	657.802
266.380	15.389	872.545	656.607
267.395	15.413	872.379	656.518
268.409	15.603	871.521	656.558
269.424	15.505	870.463	655.318
270.439	15.489	870.000	654.850
271.453	15.373	869.430	653.910
272.468	15.462	869.030	653.898
273.482	15.455	867.702	652.816
274.497	15.575	867.031	652.720
275.512	15.550	866.498	652.161
276.526	15.395	866.118	651.218
277.541	15.625	865.044	651.243
278.555	15.622	864.484	650.753
279.570	15.584	864.330	650.432
280.585	15.676	863.520	650.121
281.599	15.796	862.880	650.047
282.614	15.783	862.207	649.429
283.628	15.691	861.827	648.732
284.643	15.636	861.164	647.963
285.657	15.648	860.876	647.736
286.672	15.725	860.220	647.481
287.687	15.780	859.804	647.323
288.701	15.691	859.341	646.575
289.716	15.879	858.758	646.801
290.730	15.792	858.177	645.972
291.745	15.735	857.585	645.249
292.760	15.934	856.574	645.195
293.774	15.909	856.297	644.834
294.789	15.876	855.957	644.394
295.803	15.907	854.936	643.686
296.818	15.846	854.488	643.061
297.833	15.948	853.761	642.845
298.847	15.694	853.208	641.402
299.862	15.931	852.301	641.566
300.876	15.914	851.786	641.058
301.891	15.913	851.277	640.613
302.906	16.058	850.539	640.552
303.920	16.096	849.665	639.983
304.935	16.020	849.061	639.181
305.949	16.209	848.562	639.468
306.964	16.108	848.050	638.642
307.979	16.063	847.481	637.986
308.993	16.059	847.178	637.688
310.008	16.276	846.414	637.877
311.022	16.345	845.567	637.440
312.037	16.077	845.332	636.198
313.052	16.271	844.720	636.413
314.066	16.211	844.302	635.813
315.081	16.093	843.835	634.961
316.095	16.097	843.191	634.436
317.110	16.159	842.447	634.055
318.125	16.136	842.058	633.619
319.139	16.038	841.910	633.081
320.154	16.220	840.987	633.016
321.168	16.011	841.065	632.234
322.183	16.129	840.276	632.027
323.197	16.267	839.283	631.741
324.212	16.231	838.897	631.258
325.227	16.250	838.511	630.985
326.241	16.221	838.083	630.496
327.256	16.085	837.291	629.338
328.270	16.276	836.608	629.481
329.285	16.302	836.170	629.194
330.300	16.308	835.497	628.652
331.314	16.263	834.978	628.040
332.329	16.350	834.496	627.946
333.343	16.391	833.657	627.411
334.358	16.473	833.180	627.301
335.373	16.316	832.915	626.462
336.387	16.476	832.082	626.373
337.402	16.480	831.842	626.153
338.416	16.369	831.170	625.179
339.431	16.521	830.575	625.240
340.446	16.594	830.009	625.030
341.460	16.754	829.431	625.128
342.475	16.602	829.254	624.378
343.489	16.722	828.421	624.137
344.504	16.541	828.242	623.281
345.519	16.641	827.605	623.113
346.533	16.722	827.335	623.156
347.548	16.777	826.547	622.708
348.562	16.764	825.886	622.109
349.577	16.713	825.186	621.339
350.592	16.664	824.326	620.457
351.606	16.589	824.194	620.027
352.621	16.734	823.474	619.962
353.635	16.693	823.321	619.641
354.650	16.610	823.323	619.285
355.665	16.680	822.895	619.165
356.679	16.545	822.404	618.245
357.694	16.669	822.167	618.466
358.708	16.780	821.130	618.038
359.723	16.690	820.698	617.329
360.738	16.750	820.033	616.993
361.752	16.721	819.521	616.444
362.767	16.949	818.680	616.590
363.781	16.823	818.695	616.087
364.796	16.805	818.839	616.075
365.810	16.881	818.128	615.760
366.825	17.065	817.279	615.735
367.840	16.973	817.102	615.215
368.854	17.144	816.680	615.462
369.869	17.039	816.074	614.571
370.883	17.048	815.673	614.247
371.898	17.014	814.716	613.348
372.913	17.024	814.838	613.422
373.927	17.232	813.715	613.273
374.942	17.206	813.211	612.746
375.956	16.994	812.567	611.442
376.971	17.266	811.829	611.813
377.986	17.253	811.499	611.462
379.000	17.274	811.083	611.169
380.015	17.293	810.722	610.912
381.029	17.406	809.769	610.546
382.044	17.257	809.265	609.578
383.059	17.235	808.860	609.140
384.073	17.357	808.152	608.989
385.088	17.328	807.572	608.395
386.102	17.248	807.463	607.974
387.117	17.231	806.759	607.327
388.132	17.226	806.536	607.090
389.146	17.239	805.890	606.595
390.161	17.285	805.476	606.392
391.175	17.354	805.143	606.335
392.190	17.333	804.890	606.016
393.205	17.437	804.233	605.838
394.219	17.179	804.015	604.701
395.234	17.365	803.433	604.871
396.248	17.305	802.664	604.027
397.263	17.321	802.297	603.753
398.278	17.212	802.135	603.191
399.292	17.286	801.597	602.997
400.307	17.253	801.154	602.492
401.321	17.288	800.558	602.115
402.336	17.456	800.205	602.390
403.350	17.369	799.796	601.723
404.365	17.357	799.046	601.061
405.380	17.514	798.899	601.453
406.394	17.511	798.623	601.182
407.409	17.529	798.089	600.791
408.423	17.523	797.763	600.470
409.438	17.757	796.772	600.496
410.453	17.483	796.616	599.358
411.467	17.750	795.995	599.779
412.482	17.785	795.366	599.373
413.496	17.818	795.177	599.294
414.511	17.914	794.756	599.261
415.526	17.620	794.952	598.322
416.540	17.728	794.337	598.187
417.555	17.751	793.793	597.807
418.569	17.826	793.198	597.567
419.584	17.845	793.002	597.433
420.599	17.857	792.263	596.866
421.613	111.515	1293.710	1476.094
422.628	95.847	1366.759	1476.189
