DTS Sentinel unit serial number:	SN413079Multiplexer serial number:	ORYXHardware model number:	OX4-SRSoftware version number:	ORYX F/W v4.00 Oryx Data Collector v3.7.2.0data status	okinstallation	princeton_trtdifferential loss correction	single-endedforward channel	channel 3reverse channel	N/Adate	2019/09/12time	19:41:04forward acquisition time	15.00reverse acquisition time	0.00gamma	496.2192k internal	0.2322k external	0.2322temperature offset calibration	1.0121default loss term (dB/km)	0.3790temperature slope calibration	1.0000multiplexer offset coefficient	1.0000multiplexer slope coefficient	1.0000fibre end	0.00T internal ref (°C)	32.06T ext. ref 1 (°C)	3.41T ext. ref 2 (°C)	26.70length (m)	temperature (°C)	Stokes	anti-Stokes-747.200	-200.000	-0.030	-0.540
-746.185	39.614	0.710	-0.644
-745.171	-28.773	0.561	0.326
-744.156	-200.000	-0.013	-0.068
-743.142	111.748	-0.587	-0.716
-742.127	313.221	-0.764	-1.451
-741.112	0.535	-0.544	-0.393
-740.098	-18.931	0.378	-0.238
-739.083	42.087	-0.446	-0.409
-738.069	730.832	-0.200	0.539
-737.054	-29.628	0.299	-0.173
-736.039	-25.576	-0.867	-0.517
-735.025	272.041	-0.178	0.317
-734.010	800.000	0.271	-0.907
-732.996	25.542	0.594	-0.500
-731.981	-112.607	-0.965	-0.194
-730.966	-27.786	-0.343	0.201
-729.952	-200.000	-0.048	0.541
-728.937	-200.000	-0.299	-1.588
-727.923	478.509	-0.365	-0.835
-726.908	-200.000	-0.075	-1.234
-725.894	-144.362	0.423	-0.040
-724.879	-105.175	0.849	0.196
-723.864	-11.857	-0.562	-0.373
-722.850	-135.774	-0.384	0.046
-721.835	800.000	-0.138	-0.392
-720.821	800.000	0.041	-0.156
-719.806	-50.599	-0.447	0.213
-718.791	663.256	0.400	-1.043
-717.777	-130.749	0.283	-0.038
-716.762	8.676	0.324	-0.246
-715.748	-200.000	-0.003	0.325
-714.733	32.610	-0.277	0.242
-713.718	-100.369	-0.464	-0.116
-712.704	-200.000	0.037	-0.217
-711.689	377.746	0.169	-0.349
-710.675	763.614	0.310	-0.850
-709.660	74.967	0.425	0.452
-708.645	71.178	0.446	0.466
-707.631	-162.818	-0.413	-0.020
-706.616	655.210	-0.102	0.264
-705.602	-33.198	-0.238	0.133
-704.587	-200.000	0.146	0.760
-703.572	182.098	-0.244	-0.362
-702.558	800.000	-0.144	-0.419
-701.543	-30.355	0.177	0.101
-700.529	222.850	-0.183	-0.297
-699.514	7.643	0.461	-0.348
-698.499	482.566	0.287	0.657
-697.485	-61.356	-0.573	-0.243
-696.470	432.267	0.126	-0.276
-695.456	-200.000	-0.032	0.435
-694.441	800.000	0.061	0.252
-693.426	-75.598	-0.593	-0.212
-692.412	-15.976	0.197	0.127
-691.397	175.215	-0.320	-0.467
-690.383	-191.465	0.314	-0.003
-689.368	164.297	0.256	-0.363
-688.354	180.535	-0.150	0.222
-687.339	-9.801	-0.787	-0.528
-686.324	-63.620	-0.587	-0.243
-685.310	311.989	0.355	-0.672
-684.295	-129.705	0.848	-0.118
-683.281	-141.765	-0.865	-0.088
-682.266	-31.904	-0.385	0.218
-681.251	-200.000	0.018	0.439
-680.237	103.922	-0.249	-0.295
-679.222	800.000	0.117	-0.447
-678.208	81.022	0.358	-0.389
-677.193	800.000	-0.030	0.127
-676.178	-15.614	0.497	-0.320
-675.164	-79.406	-0.647	0.221
-674.149	-12.308	0.428	-0.282
-673.135	60.891	-0.730	0.729
-672.120	-87.965	-0.251	0.076
-671.105	5.422	0.320	-0.238
-670.091	-200.000	0.011	-0.614
-669.076	150.120	-0.519	-0.709
-668.062	-99.746	0.223	0.056
-667.047	62.788	0.478	-0.481
-666.032	516.725	-0.393	-0.925
-665.018	386.282	-0.136	-0.282
-664.003	-200.000	0.066	0.304
-662.989	-148.470	0.333	0.027
-661.974	183.062	-0.608	0.904
-660.959	111.979	0.255	0.310
-659.945	167.659	0.239	-0.342
-658.930	10.176	0.496	-0.380
-657.916	37.820	-0.547	0.489
-656.901	-117.814	0.658	-0.119
-655.886	248.813	-0.104	-0.178
-654.872	-200.000	-0.054	-0.292
-653.857	-111.610	0.691	-0.141
-652.843	610.027	0.270	0.680
-651.828	-117.635	-0.416	-0.075
-650.814	2.060	-0.068	-0.049
-649.799	-105.903	0.348	-0.079
-648.784	-11.231	-0.310	0.206
-647.770	-200.000	-0.155	0.716
-646.755	-138.373	0.963	-0.107
-645.741	334.171	-0.175	-0.341
-644.726	800.000	-0.092	0.274
-643.711	-76.218	-0.579	-0.205
-642.697	17.283	-0.302	0.241
-641.682	6.956	0.570	0.427
-640.668	279.537	0.441	0.792
-639.653	-114.409	-0.528	0.102
-638.638	-56.498	-0.492	0.219
-637.624	-200.000	-0.010	0.215
-636.609	-120.909	-0.550	-0.093
-635.595	-52.753	-0.812	-0.377
-634.580	26.872	-0.164	0.138
-633.565	3.545	0.522	0.383
-632.551	-153.420	0.499	0.035
-631.536	41.086	0.532	-0.483
-630.522	764.604	0.015	-0.041
-629.507	15.554	-0.243	0.192
-628.492	-61.682	-0.275	-0.116
-627.478	144.300	0.248	-0.333
-626.463	-79.395	-0.032	0.011
-625.449	-200.000	0.011	0.183
-624.434	-102.608	0.122	-0.029
-623.419	74.782	0.298	0.315
-622.405	-200.000	-0.025	-0.321
-621.390	-200.000	0.014	-0.231
-620.376	-200.000	0.049	0.378
-619.361	-200.000	0.019	0.438
-618.346	-200.000	-0.072	-0.539
-617.332	511.962	0.294	-0.688
-616.317	687.873	-0.236	-0.619
-615.303	-200.000	0.005	0.169
-614.288	130.274	0.658	0.848
-613.273	361.901	-0.296	0.596
-612.259	-34.735	0.432	-0.237
-611.244	800.000	-0.104	-0.351
-610.230	-126.470	-0.105	0.016
-609.215	-119.375	-0.145	-0.025
-608.201	-200.000	-0.109	-0.616
-607.186	-110.606	-0.439	-0.091
-606.171	33.254	0.727	0.634
-605.157	-184.046	-0.264	-0.004
-604.142	213.917	-0.228	-0.362
-603.128	604.902	0.169	-0.422
-602.113	-183.162	0.483	-0.009
-601.098	172.666	0.494	-0.715
-600.084	275.811	0.045	-0.080
-599.069	-103.294	-0.554	-0.131
-598.055	-22.394	0.583	0.355
-597.040	212.863	-0.215	0.340
-596.025	-150.469	0.940	0.072
-595.011	-200.000	0.176	-0.815
-593.996	-200.000	0.070	0.551
-592.982	-191.678	0.130	0.001
-591.967	455.530	-0.096	-0.214
-590.952	2.967	-0.194	0.141
-589.938	-53.124	0.164	-0.075
-588.923	-69.943	0.266	0.102
-587.909	236.247	-0.571	0.948
-586.894	-200.000	0.009	-0.187
-585.879	-200.000	0.067	0.544
-584.865	-200.000	-0.069	0.814
-583.850	572.331	0.129	0.315
-582.836	800.000	-0.120	-0.426
-581.821	-200.000	0.113	-0.615
-580.806	800.000	-0.326	-1.033
-579.792	3.285	-0.386	0.282
-578.777	-200.000	0.052	-0.484
-577.763	-138.218	-0.392	0.044
-576.748	522.340	-0.052	0.122
-575.733	-200.000	0.004	0.273
-574.719	160.343	0.272	0.381
-573.704	-12.573	-0.096	0.063
-572.690	293.705	0.422	0.774
-571.675	-138.200	0.727	0.081
-570.661	-129.405	0.754	-0.105
-569.646	800.000	0.139	-0.485
-568.631	-126.809	0.799	-0.118
-567.617	800.000	0.119	-0.424
-566.602	518.873	0.310	0.729
-565.588	-6.637	0.579	-0.396
-564.573	800.000	-0.238	0.852
-563.558	-80.956	-0.416	-0.138
-562.544	72.651	-0.437	-0.457
-561.529	-80.221	-0.197	0.066
-560.515	-200.000	0.028	0.378
-559.500	96.094	-0.111	-0.127
-558.485	192.753	0.517	-0.783
-557.471	-20.418	0.320	0.197
-556.456	800.000	0.054	0.194
-555.442	235.005	-0.231	0.383
-554.427	17.867	-0.676	-0.540
-553.412	221.720	0.518	-0.835
-552.398	36.277	0.785	-0.694
-551.383	-169.276	-0.666	-0.025
-550.369	128.969	0.374	-0.478
-549.354	10.864	-0.720	-0.551
-548.339	-94.025	0.440	0.121
-547.325	-99.055	-0.792	-0.201
-546.310	-15.121	-0.558	-0.358
-545.296	91.997	0.426	-0.480
-544.281	59.444	-0.176	-0.174
-543.266	-200.000	-0.001	0.889
-542.252	470.333	0.197	0.443
-541.237	382.680	0.382	0.787
-540.223	51.014	-0.540	-0.514
-539.208	34.562	-0.069	0.060
-538.193	-89.435	0.709	-0.209
-537.179	-134.302	0.341	0.042
-536.164	-200.000	-0.020	-0.818
-535.150	-200.000	-0.018	0.406
-534.135	83.821	-0.083	0.091
-533.121	-99.083	0.421	0.107
-532.106	-169.916	-0.746	0.027
-531.091	-155.921	0.376	0.024
-530.077	-102.436	-0.433	0.104
-529.062	163.352	0.251	0.354
-528.048	557.292	-0.157	0.380
-527.033	459.322	-0.099	-0.222
-526.018	-37.981	0.957	-0.510
-525.004	452.662	0.344	0.763
-523.989	76.063	-0.495	0.524
-522.975	800.000	0.243	-0.992
-521.960	-173.196	-1.563	0.048
-520.945	-13.788	-0.554	0.359
-519.931	172.930	-0.184	0.265
-518.916	760.206	-0.087	-0.237
-517.902	50.308	0.181	0.172
-516.887	-64.186	-1.008	-0.412
-515.872	54.833	0.487	-0.470
-514.858	86.573	0.298	0.329
-513.843	46.514	0.390	-0.362
-512.829	-136.023	-0.267	-0.031
-511.814	-58.325	0.209	0.091
-510.799	-112.459	-0.740	0.148
-509.785	121.487	0.116	0.144
-508.770	-78.711	-0.242	-0.083
-507.756	504.260	0.268	-0.622
-506.741	-141.934	-0.804	-0.080
-505.726	4.445	-0.117	-0.086
-504.712	100.429	0.337	-0.391
-503.697	-200.000	-0.155	-0.890
-502.683	-57.408	0.472	-0.207
-501.668	-200.000	-0.089	-0.459
-500.653	800.000	0.210	0.726
-499.639	514.647	0.313	0.731
-498.624	-74.424	0.132	0.048
-497.610	259.075	0.566	0.977
-496.595	62.435	-0.152	-0.152
-495.581	474.092	-0.277	0.624
-494.566	-141.775	-0.669	-0.067
-493.551	-200.000	0.127	-0.673
-492.537	-87.712	0.691	0.208
-491.522	-13.070	0.383	0.249
-490.508	-27.976	0.190	-0.110
-489.493	19.861	-0.426	-0.343
-488.478	-112.822	0.460	-0.091
-487.464	-200.000	-0.016	0.235
-486.449	-174.035	0.770	-0.023
-485.435	800.000	0.177	0.626
-484.420	-138.148	-0.634	-0.070
-483.405	321.131	-0.205	0.389
-482.391	-89.417	-0.728	-0.214
-481.376	-110.655	1.112	0.230
-480.362	577.615	-0.667	-1.632
-479.347	145.944	-0.051	-0.069
-478.332	800.000	0.203	0.774
-477.318	205.671	-0.429	0.667
-476.303	517.666	0.309	0.723
-475.289	-200.000	0.084	-0.631
-474.274	-200.000	-0.174	-0.924
-473.259	-200.000	-0.003	0.330
-472.245	232.033	-0.224	-0.368
-471.230	-114.453	-0.707	-0.136
-470.216	120.479	0.466	0.579
-469.201	-20.151	-0.853	-0.526
-468.186	263.475	0.250	0.435
-467.172	97.682	0.578	-0.664
-466.157	800.000	-0.307	-0.900
-465.143	-132.555	-0.318	0.041
-464.128	756.104	0.306	0.826
-463.113	-200.000	0.002	0.254
-462.099	457.818	0.315	0.701
-461.084	-95.472	-0.909	0.244
-460.070	-58.391	-1.610	0.700
-459.055	53.380	0.151	-0.145
-458.040	316.664	0.309	-0.583
-457.026	-119.874	0.625	-0.107
-456.011	-200.000	-0.097	-0.885
-454.997	286.713	-0.259	-0.468
-453.982	-46.364	0.843	-0.414
-452.968	-32.674	0.340	0.189
-451.953	-161.816	0.262	0.013
-450.938	146.158	0.199	-0.266
-449.924	-122.428	0.241	0.039
-448.909	-151.610	-0.907	-0.067
-447.895	-145.666	-1.077	0.096
-446.880	800.000	0.141	0.485
-445.865	484.580	-0.129	-0.294
-444.851	-32.265	-0.761	-0.424
-443.836	-173.082	0.178	0.005
-442.822	214.361	-0.258	-0.407
-441.807	-57.320	-0.691	0.303
-440.792	-104.205	0.265	0.061
-439.778	619.875	-0.193	-0.485
-438.763	173.185	0.533	0.767
-437.749	-200.000	-0.024	-0.145
-436.734	-100.519	-0.374	0.092
-435.719	-200.000	-0.084	1.201
-434.705	800.000	-0.164	-0.678
-433.690	31.573	0.364	0.312
-432.676	-94.359	0.814	-0.222
-431.661	-73.862	-0.463	-0.168
-430.646	-139.879	-0.877	0.093
-429.632	-131.639	1.032	-0.135
-428.617	800.000	0.028	-0.097
-427.603	193.457	0.271	0.410
-426.588	575.914	-0.266	-0.648
-425.573	800.000	0.182	-0.537
-424.559	-200.000	-0.048	0.362
-423.544	226.668	-0.251	0.407
-422.530	124.171	-0.319	0.400
-421.515	800.000	0.031	0.127
-420.500	-5.471	0.385	-0.263
-419.486	-79.325	-0.400	-0.135
-418.471	506.128	0.228	0.528
-417.457	800.000	-0.303	1.090
-416.442	74.682	0.792	-0.831
-415.428	-50.180	-0.308	0.145
-414.413	-0.684	0.412	0.292
-413.398	-200.000	0.211	-0.001
-412.384	489.174	-0.175	0.400
-411.369	800.000	0.057	0.201
-410.355	-178.315	0.738	-0.017
-409.340	-200.000	-0.014	-0.352
-408.325	-84.229	0.517	0.163
-407.311	800.000	0.106	-0.302
-406.296	-45.266	0.704	-0.349
-405.282	-200.000	-0.088	-0.960
-404.267	-200.000	-0.152	0.733
-403.252	-200.000	-0.018	-0.626
-402.238	-73.616	-0.859	-0.312
-401.223	-87.014	-0.555	-0.169
-400.209	321.232	0.173	-0.328
-399.194	186.084	-0.381	-0.565
-398.179	390.197	-0.269	0.556
-397.165	11.571	0.076	0.058
-396.150	-200.000	0.283	1.439
-395.136	-112.752	-0.330	-0.065
-394.121	1.940	0.061	-0.044
-393.106	-200.000	-0.014	-1.060
-392.092	-173.629	-0.619	-0.018
-391.077	-200.000	-0.069	-0.310
-390.063	800.000	-0.071	0.211
-389.048	-21.078	-0.163	0.099
-388.033	-200.000	0.017	-0.127
-387.019	-14.956	-0.634	-0.405
-386.004	136.105	-0.724	-0.940
-384.990	28.969	-0.325	0.275
-383.975	-41.935	0.501	0.256
-382.960	-23.016	0.632	-0.380
-381.946	6.029	0.825	-0.609
-380.931	29.122	-0.872	-0.737
-379.917	-88.782	-0.475	0.141
-378.902	70.199	-0.159	0.163
-377.888	-103.210	-0.461	0.109
-376.873	332.487	0.248	-0.477
-375.858	182.195	-0.456	0.669
-374.844	15.125	0.710	-0.554
-373.829	30.079	-0.484	-0.411
-372.815	-74.240	0.300	-0.108
-371.800	189.856	-0.357	0.533
-370.785	338.562	0.304	0.590
-369.771	-78.850	0.930	0.316
-368.756	800.000	0.028	0.094
-367.742	-200.000	0.306	-0.001
-366.727	-28.751	0.458	-0.262
-365.712	-32.045	-0.076	-0.042
-364.698	-82.927	-1.056	-0.339
-363.683	-69.821	-0.238	-0.091
-362.669	298.610	-0.182	-0.334
-361.654	107.934	0.202	-0.240
-360.639	42.221	0.062	-0.056
-359.625	2.403	0.167	-0.120
-358.610	-167.635	0.499	0.020
-357.596	339.082	0.077	-0.150
-356.581	-200.000	0.011	-0.598
-355.566	-89.972	0.572	-0.166
-354.552	62.578	-0.510	0.508
-353.537	185.807	0.490	0.725
-352.523	-152.522	0.289	0.021
-351.508	384.628	-0.179	-0.366
-350.493	800.000	0.109	0.319
-349.479	-84.439	1.115	-0.351
-348.464	790.613	-0.099	0.272
-347.450	800.000	0.262	0.777
-346.435	40.372	-0.260	-0.232
-345.420	12.110	-0.375	-0.287
-344.406	-50.066	-0.261	-0.123
-343.391	12.565	-1.190	-0.913
-342.377	-167.046	0.256	-0.010
-341.362	800.000	-0.134	0.504
-340.348	11.775	0.892	0.681
-339.333	472.161	0.083	0.185
-338.318	-147.830	0.895	0.074
-337.304	57.248	-0.650	-0.631
-336.289	21.439	0.403	0.326
-335.275	800.000	-0.429	-1.274
-334.260	-26.945	0.636	0.369
-333.245	-18.112	0.543	0.338
-332.231	-200.000	-0.102	-0.607
-331.216	-66.168	0.274	0.109
-330.202	567.317	0.195	0.472
-329.187	-37.606	-0.565	-0.299
-328.172	800.000	0.114	-0.459
-327.158	-105.322	-0.596	-0.135
-326.143	-126.862	-0.452	0.066
-325.129	279.641	0.523	0.928
-324.114	-90.609	0.597	-0.172
-323.099	-200.000	0.078	-0.474
-322.085	359.236	0.314	-0.624
-321.070	800.000	-0.048	-0.158
-320.056	157.610	-0.230	-0.316
-319.041	-144.729	0.857	-0.078
-318.026	-200.000	0.000	-0.355
-317.012	-36.802	0.221	0.118
-315.997	-200.000	-0.013	0.491
-314.983	-200.000	0.044	-0.720
-313.968	-43.114	-0.305	0.153
-312.953	-46.161	-0.363	-0.178
-311.939	-190.113	-0.697	0.008
-310.924	-54.280	-0.330	-0.149
-309.910	257.736	-0.518	0.885
-308.895	102.745	-0.454	0.528
-307.880	331.031	0.406	0.777
-306.866	-54.579	0.472	0.212
-305.851	91.369	-0.155	-0.173
-304.837	-200.000	0.010	-0.714
-303.822	645.571	0.203	0.515
-302.807	-16.606	-0.056	0.035
-301.793	10.235	-0.646	-0.488
-300.778	330.997	0.271	-0.519
-299.764	-187.833	-0.456	0.006
-298.749	-200.000	-0.019	-0.260
-297.735	-67.457	0.347	0.135
-296.720	-28.941	0.168	0.096
-295.705	-109.662	0.238	-0.050
-294.691	-109.845	0.528	0.110
-293.676	493.656	0.103	-0.235
-292.662	800.000	-0.091	-0.394
-291.647	42.819	-0.222	0.200
-290.632	96.063	-0.252	0.286
-289.618	107.203	0.552	0.652
-288.603	206.134	-0.304	-0.469
-287.589	800.000	0.204	0.778
-286.574	-32.534	-0.400	-0.221
-285.559	299.877	0.202	0.369
-284.545	-107.381	-0.600	0.131
-283.530	202.695	-0.323	0.495
-282.516	800.000	-0.213	0.663
-281.501	-44.093	-0.652	0.325
-280.486	-130.792	1.129	-0.150
-279.472	-131.672	-0.810	-0.106
-278.457	-200.000	-0.167	-0.903
-277.443	-126.606	0.682	0.100
-276.428	14.130	-0.668	0.516
-275.413	145.831	-0.354	0.471
-274.399	1.897	0.172	0.123
-273.384	-41.034	-0.186	-0.096
-272.370	-113.082	0.769	0.151
-271.355	-200.000	-0.016	0.568
-270.340	-140.667	0.186	0.019
-269.326	98.334	-0.795	-0.908
-268.311	-133.230	0.312	0.039
-267.297	61.044	-0.244	-0.240
-266.282	55.670	0.335	-0.322
-265.267	-124.564	-0.112	-0.017
-264.253	-37.505	-1.175	0.622
-263.238	51.708	0.368	-0.347
-262.224	65.319	-0.062	0.062
-261.209	-91.040	-0.210	-0.060
-260.195	89.721	-0.134	0.148
-259.180	11.750	-0.269	0.205
-258.165	88.483	0.566	0.624
-257.151	-81.831	-1.120	0.364
-256.136	-134.381	-0.167	0.020
-255.122	-200.000	0.039	0.855
-254.107	-28.058	0.747	-0.428
-253.092	-200.000	0.012	0.596
-252.078	634.448	-0.038	0.096
-251.063	-200.000	0.062	0.345
-250.049	-79.485	-0.154	0.051
-249.034	454.702	0.076	0.168
-248.019	410.332	-0.093	0.195
-247.005	76.673	0.240	0.252
-245.990	127.841	0.199	-0.250
-244.976	-53.685	-0.439	-0.199
-243.961	-117.827	-0.686	-0.122
-242.946	-138.787	0.212	0.023
-241.932	19.058	0.169	0.134
-240.917	22.815	-0.057	0.047
-239.903	-200.000	0.005	0.357
-238.888	240.768	-0.284	0.470
-237.873	262.915	-0.204	-0.351
-236.859	-200.000	0.014	0.599
-235.844	24.367	0.858	0.702
-234.830	-61.683	0.109	-0.045
-233.815	-170.599	0.302	-0.010
-232.800	-51.303	0.818	-0.379
-231.786	-19.221	-0.405	-0.249
-230.771	13.622	-0.345	0.265
-229.757	258.508	0.258	-0.441
-228.742	-200.000	-0.070	-0.948
-227.727	-200.000	0.021	-0.490
-226.713	180.519	-0.521	-0.758
-225.698	-200.000	0.052	0.595
-224.684	-200.000	0.009	-0.228
-223.669	-167.434	0.409	0.016
-222.655	79.201	0.428	0.454
-221.640	-70.622	-0.128	0.048
-220.625	-200.000	0.027	0.261
-219.611	-200.000	0.061	0.687
-218.596	-200.000	-0.218	-1.060
-217.582	-68.798	-0.750	-0.287
-216.567	557.604	0.185	0.442
-215.552	-15.674	0.413	-0.261
-214.538	374.651	0.080	0.161
-213.523	-36.011	-0.274	-0.146
-212.509	-60.982	-0.317	-0.133
-211.494	-165.326	-0.257	0.011
-210.479	377.279	-0.319	0.645
-209.465	-200.000	0.021	0.388
-208.450	-102.906	-0.735	0.173
-207.436	800.000	-0.216	-0.722
-206.421	-94.380	0.907	0.245
-205.406	193.819	0.161	-0.241
-204.392	-200.000	0.027	0.558
-203.377	139.632	0.481	0.627
-202.363	-180.257	-0.577	0.012
-201.348	-200.000	0.009	0.621
-200.333	-31.894	0.642	-0.356
-199.319	64.691	-0.531	0.530
-198.304	107.820	0.564	-0.664
-197.290	-59.981	-0.896	0.379
-196.275	342.144	-0.185	0.357
-195.260	82.157	-0.673	0.722
-194.246	800.000	0.285	-0.808
-193.231	800.000	0.138	-0.532
-192.217	108.303	0.297	-0.351
-191.202	-42.108	-0.324	-0.164
-190.187	47.574	0.482	-0.444
-189.173	-167.277	-0.302	-0.012
-188.158	272.976	-0.296	-0.518
-187.144	-15.930	-0.450	0.283
-186.129	116.174	0.673	-0.815
-185.114	-127.798	-0.278	-0.040
-184.100	-200.000	-0.037	-0.530
-183.085	-62.531	0.671	-0.276
-182.071	-105.929	0.352	-0.079
-181.056	146.668	0.243	0.323
-180.042	75.154	0.698	-0.727
-179.027	106.954	0.403	0.473
-178.012	-74.999	-0.335	0.119
-176.998	12.916	0.239	0.183
-175.983	115.132	-0.510	-0.616
-174.969	-200.000	0.068	-0.648
-173.954	-144.331	-0.742	0.068
-172.939	-200.000	-0.069	0.532
-171.925	106.642	0.470	-0.551
-170.910	800.000	0.198	-0.557
-169.896	-9.536	-0.414	0.273
-168.881	800.000	0.058	0.239
-167.866	187.373	0.366	0.540
-166.852	-200.000	-0.096	0.601
-165.837	241.609	-0.141	-0.233
-164.823	-37.680	-0.637	0.335
-163.808	222.962	0.352	0.561
-162.793	33.665	0.397	-0.341
-161.779	250.116	0.140	0.236
-160.764	291.049	0.590	1.059
-159.750	536.180	-0.160	0.375
-158.735	480.526	0.108	-0.241
-157.720	3.211	0.836	0.601
-156.706	-111.937	-0.249	0.050
-155.691	339.541	0.442	-0.851
-154.677	-44.375	0.348	0.172
-153.662	550.767	-0.200	0.473
-152.647	53.062	-0.666	0.630
-151.633	-30.269	0.156	-0.087
-150.618	-62.511	-0.561	0.230
-149.604	-200.000	0.036	-0.503
-148.589	128.838	-0.257	-0.324
-147.574	-12.764	-0.524	-0.337
-146.560	800.000	-0.071	-0.298
-145.545	-66.570	-0.350	-0.137
-144.531	96.196	-0.702	-0.792
-143.516	-200.000	-0.004	0.018
-142.502	-88.235	0.106	0.031
-141.487	-8.830	0.218	0.144
-140.472	-145.617	0.285	0.025
-139.458	-100.417	-0.866	0.212
-138.443	-89.149	-0.232	-0.068
-137.429	-145.118	-1.241	-0.111
-136.414	153.516	0.041	-0.056
-135.399	492.071	0.140	0.317
-134.385	-32.166	-0.688	0.379
-133.370	-160.165	-0.392	0.021
-132.356	-200.000	0.084	0.663
-131.341	587.970	-0.043	-0.104
-130.326	-33.485	-0.709	0.387
-129.312	800.000	-0.266	0.771
-128.297	515.458	0.053	0.123
-127.283	-56.011	0.300	-0.132
-126.268	606.901	0.064	-0.158
-125.253	-200.000	-0.060	-0.462
-124.239	800.000	0.060	0.208
-123.224	-157.978	0.599	-0.035
-122.210	-200.000	-0.162	0.834
-121.195	33.454	-0.583	0.499
-120.180	257.661	0.129	0.218
-119.166	-56.103	0.478	0.210
-118.151	-177.498	1.249	-0.030
-117.137	800.000	-0.085	-0.343
-116.122	-200.000	0.027	0.251
-115.107	170.951	-0.183	0.259
-114.093	525.932	0.229	-0.531
-113.078	-102.907	0.294	0.069
-112.064	-200.000	0.084	0.682
-111.049	800.000	0.306	-0.881
-110.034	-82.777	0.418	0.133
-109.020	-200.000	-0.043	-0.242
-108.005	-114.289	0.687	0.131
-106.991	-200.000	-0.005	-0.531
-105.976	66.131	0.711	0.711
-104.962	-200.000	0.009	0.454
-103.947	-86.429	0.393	-0.119
-102.932	19.632	0.621	-0.493
-101.918	211.793	0.180	-0.279
-100.903	-184.355	-0.760	-0.012
-99.889	-42.293	0.276	-0.139
-98.874	-73.729	0.543	0.195
-97.859	-181.065	0.322	0.006
-96.845	-110.545	-0.562	-0.115
-95.830	117.199	-0.263	0.319
-94.816	800.000	0.106	-0.436
-93.801	-29.648	-0.256	-0.144
-92.786	800.000	-0.101	0.370
-91.772	148.771	0.278	0.370
-90.757	17.113	-1.027	0.802
-89.743	426.613	-0.373	0.791
-88.728	800.000	0.188	0.620
-87.713	92.599	-0.148	0.164
-86.699	-63.687	-0.367	0.148
-85.684	514.239	-0.306	-0.704
-84.670	391.491	0.070	-0.143
-83.655	-66.969	0.402	0.156
-82.640	-128.506	-0.328	0.046
-81.626	28.647	0.249	-0.208
-80.611	-115.585	-0.103	0.019
-79.597	-30.034	-0.517	0.290
-78.582	-200.000	-0.028	0.150
-77.567	-27.160	0.376	-0.216
-76.553	126.041	-0.281	0.350
-75.538	-28.303	0.499	0.284
-74.524	33.050	0.247	-0.210
-73.509	77.801	-0.346	-0.362
-72.494	-167.748	-0.524	0.020
-71.480	799.218	-0.121	-0.329
-70.465	32.415	0.287	-0.244
-69.451	-200.000	-0.108	0.723
-68.436	232.007	-0.446	0.720
-67.422	37.811	0.511	0.447
-66.407	-110.734	0.448	-0.091
-65.392	266.905	0.454	0.781
-64.378	26.015	-0.547	-0.449
-63.363	122.133	0.505	-0.620
-62.349	-200.000	0.024	-0.268
-61.334	294.711	-0.351	-0.632
-60.319	-3.305	0.675	0.462
-59.305	598.705	-0.638	-1.557
-58.290	135.993	0.895	1.147
-57.276	-50.249	0.516	0.240
-56.261	-200.000	96.886	601.721
-55.246	660.361	1357.564	3438.699
-54.232	203.702	2522.172	3839.836
-53.217	118.691	2137.951	2596.993
-52.203	42.990	1688.675	1514.630
-51.188	35.238	1503.759	1296.540
-50.173	33.021	1477.814	1259.358
-49.159	53.521	1529.987	1443.350
-48.144	53.798	1547.312	1461.512
-47.130	35.294	1506.881	1299.402
-46.115	32.303	1492.111	1266.506
-45.100	32.171	1487.159	1261.364
-44.086	31.973	1486.950	1259.811
-43.071	32.047	1483.471	1257.310
-42.057	32.154	1482.562	1257.206
-41.042	32.134	1480.387	1255.177
-40.027	32.158	1479.850	1254.831
-39.013	32.323	1476.910	1253.387
-37.998	31.920	1476.836	1250.590
-36.984	32.188	1475.010	1250.779
-35.969	31.999	1473.628	1248.298
-34.954	31.936	1473.296	1247.552
-33.940	32.182	1471.138	1247.305
-32.925	31.870	1471.128	1245.177
-31.911	32.016	1467.732	1243.218
-30.896	32.039	1468.210	1243.729
-29.881	32.096	1465.297	1241.588
-28.867	32.238	1464.675	1241.948
-27.852	32.143	1462.457	1239.390
-26.838	32.119	1461.798	1238.626
-25.823	32.240	1460.822	1238.546
-24.809	32.083	1458.326	1235.350
-23.794	32.101	1456.900	1234.213
-22.779	32.330	1455.053	1234.102
-21.765	32.226	1453.905	1232.396
-20.750	31.991	1454.458	1231.278
-19.736	32.260	1452.759	1231.549
-18.721	31.815	1452.276	1228.177
-17.706	32.106	1450.269	1228.336
-16.692	32.138	1448.907	1227.341
-15.677	31.914	1448.477	1225.463
-14.663	31.978	1447.495	1225.005
-13.648	31.949	1447.008	1224.350
-12.633	32.001	1446.020	1223.807
-11.619	32.114	1445.235	1223.828
-10.604	31.963	1443.619	1221.434
-9.590	32.166	1442.667	1221.900
-8.575	32.013	1442.082	1220.362
-7.560	31.914	1442.459	1219.987
-6.546	32.007	1439.405	1217.956
-5.531	31.975	1439.789	1218.028
-4.517	31.978	1438.055	1216.532
-3.502	31.881	1437.320	1215.232
-2.487	31.862	1436.683	1214.522
-1.473	32.015	1434.774	1213.848
-0.458	31.875	1435.169	1213.233
0.556	33.346	1425.856	1202.127
1.571	30.340	1399.765	1161.257
2.586	26.978	1340.850	1092.093
3.600	24.614	1262.409	1014.710
4.615	23.215	1215.590	969.333
5.629	20.585	1159.055	910.419
6.644	11.733	1074.782	800.979
7.659	4.718	1034.964	738.057
8.673	3.696	1029.163	729.033
9.688	3.509	1026.367	726.107
10.702	3.193	1025.450	723.912
11.717	3.244	1022.534	722.025
12.731	6.265	1026.143	738.713
13.746	15.258	1038.204	789.879
14.761	22.928	1046.735	832.594
15.775	24.606	1049.228	842.421
16.790	24.203	1048.924	840.202
17.804	23.869	1047.143	837.131
18.819	23.292	1045.410	832.960
19.834	23.155	1044.738	831.703
20.848	23.415	1044.662	832.794
21.863	23.530	1043.374	832.231
22.877	23.584	1042.850	831.995
23.892	23.527	1041.552	830.618
24.907	23.206	1042.557	829.842
25.921	23.136	1041.027	828.221
26.936	23.101	1041.103	828.044
27.950	22.852	1039.818	825.785
28.965	23.184	1036.976	825.003
29.980	23.151	1036.847	824.673
30.994	23.482	1035.805	825.315
32.009	23.394	1035.193	824.344
33.023	23.560	1033.659	823.820
34.038	23.676	1033.451	824.118
35.053	23.166	1032.611	821.012
36.067	23.347	1032.222	821.467
37.082	23.145	1031.438	819.837
38.096	23.351	1030.281	819.799
39.111	23.323	1029.511	818.981
40.126	23.559	1027.642	818.512
41.140	23.370	1027.385	817.365
42.155	23.152	1026.087	815.254
43.169	22.581	1025.090	811.761
44.184	22.476	1024.602	810.818
45.199	22.761	1022.774	810.610
46.213	22.556	1022.481	809.365
47.228	22.816	1021.071	809.370
48.242	23.095	1021.625	811.018
49.257	23.335	1021.064	811.598
50.271	23.573	1019.353	811.257
51.286	23.547	1019.147	810.899
52.301	23.410	1018.754	809.890
53.315	23.768	1017.664	810.586
54.330	23.640	1016.006	808.612
55.344	23.551	1016.779	808.748
56.359	23.341	1014.768	806.123
57.374	22.953	1014.294	803.910
58.388	23.149	1013.291	803.935
59.403	22.679	1013.215	801.666
60.417	22.757	1012.603	801.467
61.432	22.637	1011.522	799.997
62.447	22.569	1011.345	799.475
63.461	22.817	1010.142	799.575
64.476	22.948	1007.923	798.343
65.490	22.554	1007.597	796.234
66.505	22.435	1006.949	795.114
67.520	22.913	1005.496	796.050
68.534	22.784	1006.468	796.166
69.549	22.623	1005.650	794.723
70.563	22.482	1003.584	792.385
71.578	22.324	1003.006	791.148
72.593	22.264	1001.148	789.345
73.607	22.075	999.560	787.176
74.622	21.757	1000.087	786.096
75.636	22.032	999.390	786.710
76.651	22.437	997.439	786.916
77.666	22.312	997.630	786.439
78.680	22.042	998.066	785.505
79.695	22.366	997.263	786.252
80.709	22.315	994.929	784.113
81.724	22.296	995.455	784.375
82.739	22.393	994.327	783.848
83.753	22.623	993.598	784.227
84.768	22.795	994.067	785.293
85.782	23.618	993.257	788.243
86.797	23.864	992.931	789.004
87.812	23.552	992.394	787.124
88.826	23.306	992.322	785.906
89.841	23.615	990.273	785.584
90.855	23.608	989.809	785.113
91.870	23.380	989.652	783.910
92.884	23.761	988.009	784.219
93.899	23.770	987.763	783.996
94.914	23.505	986.685	781.904
95.928	23.758	984.517	781.228
96.943	23.791	984.240	781.087
97.957	23.286	984.398	778.922
98.972	23.394	982.293	777.661
99.987	23.372	982.205	777.427
101.001	23.553	981.376	777.493
102.016	23.489	979.367	775.555
103.030	23.221	978.613	773.715
104.045	23.444	978.387	774.444
105.060	23.633	977.440	774.449
106.074	23.668	976.403	773.715
107.089	23.633	974.803	772.223
108.103	23.046	974.491	769.356
109.118	22.879	973.794	768.010
110.133	22.633	972.436	765.805
111.147	22.693	970.830	764.729
112.162	22.386	970.662	763.202
113.176	22.210	970.130	761.950
114.191	22.692	969.322	763.335
115.206	22.879	968.056	763.080
116.220	22.645	968.877	762.647
117.235	22.702	966.384	760.863
118.249	22.411	966.031	759.265
119.264	22.616	964.215	758.652
120.279	22.199	964.643	757.126
121.293	22.224	963.837	756.535
122.308	22.113	961.694	754.306
123.322	22.122	961.563	754.176
124.337	22.202	960.132	753.333
125.352	21.934	959.116	751.320
126.366	22.097	957.581	750.749
127.381	21.821	957.990	749.820
128.395	22.135	957.332	750.579
129.410	22.596	956.479	751.815
130.424	22.483	955.981	750.872
131.439	22.671	954.627	750.544
132.454	22.794	953.941	750.460
133.468	22.658	953.957	749.828
134.483	22.617	953.419	749.167
135.497	22.967	952.020	749.486
136.512	22.805	950.733	747.721
137.527	22.884	950.789	748.031
138.541	22.645	950.671	746.858
139.556	22.980	948.876	746.802
140.570	23.143	947.625	746.436
141.585	23.092	947.497	746.057
142.600	23.558	947.571	748.012
143.614	23.384	946.345	746.245
144.629	23.666	945.953	747.057
145.643	23.774	944.577	746.358
146.658	23.834	944.332	746.351
147.673	23.477	943.581	744.193
148.687	23.439	940.965	741.907
149.702	23.238	941.921	741.753
150.716	22.929	939.703	738.649
151.731	23.144	939.474	739.302
152.746	23.349	937.817	738.787
153.760	23.160	938.027	738.100
154.775	23.343	936.683	737.739
155.789	23.446	936.605	738.040
156.804	23.520	934.937	736.967
157.819	23.054	935.231	735.196
158.833	23.572	933.668	736.053
159.848	23.889	933.779	737.389
160.862	23.434	933.325	735.078
161.877	23.694	932.571	735.497
162.892	23.607	930.206	733.206
163.906	23.163	930.163	731.274
164.921	22.874	928.882	729.011
165.935	22.727	928.098	727.725
166.950	23.086	927.451	728.630
167.964	22.822	927.343	727.395
168.979	23.110	925.686	727.214
169.994	22.634	924.643	724.376
171.008	22.909	923.622	724.640
172.023	22.994	922.830	724.305
173.037	23.567	922.107	726.017
174.052	23.826	920.835	726.008
175.067	23.751	919.885	724.890
176.081	23.079	919.917	722.108
177.096	22.657	918.709	719.373
178.110	22.654	917.551	718.392
179.125	22.350	916.767	716.477
180.140	22.591	915.913	716.727
181.154	22.783	914.355	716.223
182.169	22.728	915.320	716.691
183.183	23.282	914.519	718.249
184.198	23.382	914.499	718.574
185.213	23.105	914.779	717.610
186.227	23.128	912.750	716.048
187.242	23.284	912.670	716.553
188.256	23.521	911.434	716.474
189.271	23.803	910.735	717.002
190.286	23.779	910.007	716.268
191.300	23.445	909.265	714.273
192.315	22.621	908.886	710.595
193.329	22.251	906.691	707.325
194.344	22.648	906.846	708.984
195.359	22.832	905.770	708.817
196.373	22.814	906.485	709.240
197.388	22.957	906.503	709.766
198.402	23.426	905.060	710.456
199.417	23.783	905.020	711.793
200.432	23.760	905.233	711.803
201.446	23.898	904.529	711.739
202.461	24.043	903.931	711.785
203.475	23.920	903.586	710.957
204.490	24.094	902.986	711.119
205.504	23.404	901.237	706.928
206.519	22.765	901.867	704.809
207.534	23.095	899.810	704.451
208.548	23.061	899.710	704.177
209.563	23.571	899.426	705.921
210.577	23.312	898.484	704.091
211.592	23.265	897.581	703.132
212.607	23.599	897.320	704.194
213.621	23.737	897.119	704.520
214.636	23.816	897.507	705.077
215.650	23.707	896.038	703.427
216.665	23.447	895.655	702.034
217.680	23.808	894.581	702.560
218.694	23.849	894.250	702.397
219.709	23.390	894.860	701.002
220.723	24.074	892.234	701.578
221.738	23.864	891.808	700.354
222.753	23.499	891.718	698.783
223.767	23.489	890.754	697.926
224.782	23.585	888.967	696.841
225.796	23.439	889.909	696.944
226.811	23.603	889.459	697.174
227.826	24.108	887.395	697.473
228.840	23.242	887.294	693.939
229.855	23.295	886.788	693.688
230.869	23.417	885.871	693.388
231.884	23.215	885.035	691.883
232.899	23.104	884.539	691.000
233.913	23.171	884.378	691.075
234.928	23.364	882.880	690.597
235.942	22.670	883.158	688.044
236.957	22.667	881.726	686.857
237.972	22.617	881.244	686.226
238.986	22.283	881.741	685.252
240.001	22.646	880.851	685.912
241.015	23.001	878.286	685.232
242.030	22.961	878.716	685.352
243.045	23.067	877.729	684.932
244.059	23.211	878.358	685.918
245.074	23.420	877.661	686.122
246.088	23.331	876.455	684.776
247.103	23.124	876.588	684.018
248.117	23.722	876.135	685.914
249.132	23.666	876.667	686.052
250.147	24.234	875.689	687.420
251.161	24.809	875.394	689.343
252.176	25.102	874.247	689.506
253.190	24.733	874.094	687.906
254.205	24.808	873.450	687.627
255.220	24.833	873.843	687.970
256.234	24.657	872.170	685.918
257.249	24.266	871.255	683.640
258.263	24.263	871.257	683.569
259.278	24.264	870.658	683.041
260.293	24.149	870.008	682.030
261.307	24.376	869.603	682.521
262.322	24.596	868.553	682.478
263.336	24.751	867.536	682.209
264.351	24.471	866.955	680.624
265.366	24.405	866.551	679.994
266.380	24.238	865.982	678.851
267.395	24.541	865.714	679.737
268.409	24.366	865.550	678.882
269.424	24.485	865.138	678.952
270.439	24.548	864.098	678.312
271.453	24.182	862.945	675.960
272.468	24.413	861.574	675.700
273.482	24.554	861.304	675.963
274.497	24.208	861.401	674.671
275.512	24.356	859.909	674.002
276.526	24.323	859.332	673.363
277.541	24.214	859.494	673.020
278.555	24.581	857.247	672.585
279.570	24.898	858.043	674.341
280.585	25.043	857.758	674.605
281.599	24.821	857.541	673.538
282.614	24.465	856.660	671.448
283.628	24.298	855.047	669.497
284.643	23.644	855.260	667.150
285.657	24.154	854.879	668.709
286.672	23.861	854.491	667.247
287.687	24.139	853.622	667.551
288.701	24.323	853.812	668.329
289.716	24.588	852.338	668.107
290.730	24.503	851.371	666.974
291.745	24.619	851.155	667.179
292.760	24.765	850.218	666.927
293.774	24.333	850.430	665.425
294.789	24.757	850.311	666.852
295.803	25.013	849.685	667.255
296.818	24.722	849.146	665.691
297.833	24.161	848.578	663.098
298.847	24.317	847.419	662.713
299.862	24.450	846.337	662.305
300.876	24.336	846.804	662.187
301.891	24.749	845.978	663.014
302.906	24.530	846.250	662.358
303.920	24.806	846.075	663.186
304.935	25.217	844.784	663.632
305.949	24.959	844.440	662.350
306.964	24.997	843.706	661.856
307.979	24.632	843.405	660.216
308.993	24.673	842.288	659.434
310.008	24.291	842.231	657.921
311.022	25.153	841.046	660.112
312.037	24.777	841.351	658.909
313.052	24.389	841.856	657.813
314.066	24.523	839.697	656.562
315.081	24.013	838.850	653.967
316.095	23.714	838.492	652.534
317.110	24.007	837.840	653.042
318.125	23.965	837.651	652.682
319.139	24.058	836.847	652.341
320.154	23.794	835.466	650.241
321.168	23.689	834.505	649.052
322.183	23.544	834.979	648.832
323.197	24.207	834.283	650.657
324.212	24.232	833.174	649.823
325.227	24.375	833.101	650.231
326.241	23.754	833.291	648.057
327.256	23.927	831.216	647.015
328.270	23.837	831.338	646.725
329.285	23.836	831.185	646.546
330.300	23.677	830.941	645.722
331.314	24.058	828.965	645.511
332.329	23.741	829.287	644.552
333.343	24.357	828.517	646.131
334.358	24.480	829.181	647.035
335.373	24.637	827.937	646.577
336.387	24.600	827.823	646.296
337.402	24.863	826.778	646.373
338.416	24.675	827.099	645.888
339.431	24.926	827.318	646.910
340.446	25.392	825.756	647.310
341.460	25.422	824.987	646.759
342.475	25.513	825.568	647.483
343.489	25.454	823.783	645.813
344.504	25.448	824.461	646.269
345.519	25.500	824.345	646.307
346.533	25.860	823.144	646.601
347.548	25.599	822.988	645.483
348.562	25.194	822.313	643.445
349.577	25.189	820.690	642.099
350.592	25.037	820.382	641.260
351.606	24.839	820.504	640.589
352.621	24.922	818.921	639.592
353.635	24.583	817.754	637.415
354.650	24.882	818.422	638.948
355.665	25.266	817.257	639.350
356.679	24.186	817.779	635.848
357.694	24.491	817.499	636.662
358.708	24.929	816.157	637.121
359.723	24.809	815.801	636.358
360.738	24.544	815.959	635.483
361.752	24.623	814.990	634.952
362.767	24.489	813.979	633.634
363.781	24.886	813.870	634.901
364.796	25.213	814.822	636.747
365.810	25.378	813.852	636.520
366.825	25.629	813.784	637.299
367.840	25.528	813.567	636.715
368.854	25.634	812.190	635.955
369.869	25.417	812.225	635.158
370.883	25.068	811.467	633.276
371.898	24.860	810.946	632.080
372.913	25.403	811.019	633.999
373.927	25.326	811.442	633.999
374.942	25.324	808.991	632.023
375.956	25.330	807.902	631.136
376.971	24.928	808.909	630.452
377.986	25.326	807.993	631.083
379.000	25.833	807.078	632.092
380.015	25.470	806.836	630.571
381.029	25.503	806.383	630.279
382.044	25.435	805.988	629.676
383.059	25.656	804.628	629.330
384.073	25.876	804.257	629.755
385.088	25.551	804.264	628.567
386.102	25.195	802.781	626.111
387.117	24.936	801.419	624.091
388.132	25.157	800.935	624.426
389.146	24.840	800.957	623.286
390.161	24.987	800.312	623.241
391.175	25.202	800.872	624.370
392.190	25.642	800.966	625.919
393.205	25.454	800.383	624.754
394.219	25.314	798.885	623.044
395.234	24.446	798.438	619.627
396.248	24.539	798.054	619.596
397.263	24.448	797.438	618.750
398.278	25.043	796.861	620.305
399.292	24.537	796.649	618.335
400.307	24.647	796.121	618.253
401.321	24.319	795.394	616.500
402.336	24.356	794.927	616.208
403.350	24.869	794.144	617.318
404.365	24.974	794.561	617.952
405.380	25.028	795.671	618.945
406.394	25.462	794.721	619.649
407.409	26.230	793.753	621.481
408.423	25.927	793.527	620.207
409.438	26.445	792.313	620.984
410.453	25.880	793.575	619.975
411.467	26.453	791.092	619.943
412.482	25.914	790.742	617.768
413.496	26.255	790.477	618.673
414.511	25.871	790.702	617.481
415.526	25.816	790.229	616.869
416.540	25.637	790.339	616.285
417.555	25.684	789.497	615.736
418.569	25.748	788.673	615.257
419.584	26.009	787.845	615.448
420.599	26.124	787.489	615.507
421.613	161.489	1369.037	1793.218
422.628	139.821	1453.743	1793.297
