DTS Sentinel unit serial number:	SN413079Multiplexer serial number:	ORYXHardware model number:	OX4-SRSoftware version number:	ORYX F/W v4.00 Oryx Data Collector v3.7.2.0data status	okinstallation	princeton_trtdifferential loss correction	single-endedforward channel	channel 3reverse channel	N/Adate	2019/09/16time	04:16:35forward acquisition time	60.00reverse acquisition time	0.00gamma	496.2192k internal	0.2336k external	0.2336temperature offset calibration	0.9956default loss term (dB/km)	0.3790temperature slope calibration	1.0000multiplexer offset coefficient	1.0000multiplexer slope coefficient	1.0000fibre end	0.00T internal ref (°C)	27.37T ext. ref 1 (°C)	10.78T ext. ref 2 (°C)	21.41length (m)	temperature (°C)	Stokes	anti-Stokes-747.200	-200.000	-0.035	0.238
-746.185	382.172	0.095	0.196
-745.171	-114.036	-0.090	0.017
-744.156	800.000	-0.090	0.334
-743.142	240.715	0.156	-0.262
-742.127	126.129	-0.118	0.149
-741.112	61.416	-0.328	0.327
-740.098	284.902	0.249	0.450
-739.083	130.450	-0.231	0.298
-738.069	260.862	-0.051	0.088
-737.054	640.095	0.065	-0.167
-736.039	-62.205	-0.421	-0.176
-735.025	-5.151	-0.079	-0.054
-734.010	46.145	-0.312	-0.290
-732.996	-61.118	-0.222	-0.094
-731.981	-60.908	-0.202	0.086
-730.966	-28.617	-0.002	-0.001
-729.952	177.344	-0.198	-0.289
-728.937	354.640	0.031	-0.063
-727.923	-60.761	-0.347	-0.148
-726.908	540.232	-0.080	-0.191
-725.894	293.022	0.072	0.132
-724.879	531.863	0.135	-0.321
-723.864	800.000	0.010	-0.031
-722.850	101.159	-0.362	0.423
-721.835	800.000	0.017	0.061
-720.821	164.918	0.069	-0.098
-719.806	-200.000	0.016	-0.282
-718.791	-200.000	-0.607	-0.002
-717.777	190.311	-0.039	-0.059
-716.762	-200.000	0.007	0.073
-715.748	-86.414	0.079	-0.024
-714.733	-102.399	0.330	0.079
-713.718	-21.157	-0.294	0.181
-712.704	-200.000	-0.040	-0.421
-711.689	145.083	-0.100	-0.134
-710.675	800.000	0.041	-0.127
-709.660	-28.109	0.272	-0.158
-708.645	800.000	-0.017	0.049
-707.631	-200.000	-0.075	0.356
-706.616	-85.824	-0.070	-0.022
-705.602	-88.856	0.168	-0.050
-704.587	-10.788	-0.422	0.280
-703.572	52.022	-0.273	-0.261
-702.558	88.606	-0.200	-0.223
-701.543	-200.000	-0.043	0.246
-700.529	-200.000	-0.041	0.477
-699.514	-200.000	0.010	0.133
-698.499	51.975	-0.259	-0.247
-697.485	31.393	0.165	-0.142
-696.470	415.643	0.081	-0.173
-695.456	-200.000	-0.038	-0.377
-694.441	598.162	0.162	-0.404
-693.426	-16.988	0.046	-0.029
-692.412	-143.043	-0.316	-0.031
-691.397	-82.404	0.220	-0.072
-690.383	-82.934	0.363	0.117
-689.368	96.202	-0.188	-0.215
-688.354	-87.723	-0.145	-0.044
-687.339	240.112	-0.084	-0.140
-686.324	-7.997	-0.239	-0.161
-685.310	-200.000	-0.023	-0.203
-684.295	67.329	-0.302	-0.308
-683.281	76.909	0.117	-0.124
-682.266	800.000	0.048	0.143
-681.251	55.857	-0.153	-0.149
-680.237	-9.895	0.074	0.049
-679.222	-114.789	0.121	-0.023
-678.208	-200.000	0.018	0.205
-677.193	119.338	0.175	0.217
-676.178	247.806	-0.070	0.119
-675.164	-103.723	0.090	-0.021
-674.149	-24.006	-0.114	0.069
-673.135	-200.000	-0.004	0.270
-672.120	-52.288	0.173	0.080
-671.105	-56.994	-0.264	-0.117
-670.091	16.287	-0.285	0.225
-669.076	7.866	-0.105	-0.079
-668.062	226.644	-0.117	0.190
-667.047	314.349	-0.189	-0.357
-666.032	309.963	-0.136	-0.254
-665.018	-86.106	-0.104	0.032
-664.003	397.056	0.087	0.183
-662.989	-80.115	0.294	0.099
-661.974	-98.999	-0.381	-0.097
-660.959	-24.918	-0.284	-0.169
-659.945	-30.589	0.155	0.088
-658.930	799.217	-0.092	-0.254
-657.916	-200.000	-0.068	-0.350
-656.901	216.806	0.066	-0.106
-655.886	-30.568	-0.126	-0.071
-654.872	43.937	-0.324	0.298
-653.857	-200.000	-0.003	-0.050
-652.843	-27.699	-0.278	0.161
-651.828	-114.031	-0.422	0.082
-650.814	-169.452	-0.201	0.007
-649.799	800.000	-0.079	-0.311
-648.784	-71.292	0.228	-0.086
-647.770	-133.493	0.322	0.040
-646.755	280.130	0.130	-0.232
-645.741	800.000	0.059	-0.164
-644.726	800.000	0.066	0.212
-643.711	-117.336	-0.255	0.046
-642.697	-46.126	-0.170	0.084
-641.682	-200.000	0.025	0.210
-640.668	42.712	0.155	0.141
-639.653	-2.781	0.096	-0.067
-638.638	225.193	-0.045	-0.073
-637.624	82.239	0.163	-0.177
-636.609	-84.409	-0.177	-0.056
-635.595	-81.461	-0.189	0.062
-634.580	248.106	0.110	-0.186
-633.565	68.046	-0.104	-0.106
-632.551	50.018	0.358	0.337
-631.536	-200.000	-0.035	0.260
-630.522	-87.900	0.057	-0.017
-629.507	-71.098	0.320	-0.120
-628.492	535.914	0.092	0.217
-627.478	-88.457	-0.277	0.083
-626.463	-108.531	-0.190	0.041
-625.449	-200.000	-0.008	-0.216
-624.434	-5.510	-0.187	0.128
-623.419	1.716	-0.131	0.094
-622.405	800.000	0.138	0.532
-621.390	-154.866	0.080	0.005
-620.376	56.202	0.034	-0.033
-619.361	25.314	0.121	0.101
-618.346	800.000	-0.100	0.304
-617.332	743.838	-0.050	-0.134
-616.317	-200.000	-0.028	-0.275
-615.303	-200.000	-0.011	-0.070
-614.288	-99.690	0.364	0.091
-613.273	278.570	-0.172	0.306
-612.259	-115.397	-0.189	-0.036
-611.244	4.696	0.254	0.186
-610.230	-63.820	0.305	-0.125
-609.215	-16.086	-0.156	-0.099
-608.201	108.666	-0.261	0.312
-607.186	-200.000	-0.250	0.001
-606.171	800.000	0.056	-0.176
-605.157	252.300	0.110	0.187
-604.142	-30.514	-0.415	0.235
-603.128	-92.925	-0.322	-0.090
-602.113	-24.868	0.235	0.139
-601.098	-87.175	-0.050	-0.015
-600.084	-116.968	-0.569	0.104
-599.069	12.700	-0.299	0.231
-598.055	-51.184	0.332	-0.155
-597.040	-7.349	0.100	0.068
-596.025	514.909	-0.043	-0.099
-595.011	166.137	0.268	-0.379
-593.996	-31.666	0.147	-0.082
-592.982	-26.185	0.155	0.091
-591.967	-18.698	-0.315	-0.196
-590.952	90.892	-0.209	0.234
-589.938	150.468	-0.102	0.138
-588.923	-200.000	0.054	-0.287
-587.909	114.271	-0.092	-0.111
-586.894	-138.819	-0.187	-0.020
-585.879	-4.797	0.265	-0.182
-584.865	-200.000	-0.014	0.355
-583.850	352.884	0.139	0.275
-582.836	-134.977	0.303	-0.037
-581.821	340.953	0.067	0.131
-580.806	190.202	0.051	0.077
-579.792	5.024	-0.157	0.116
-578.777	-104.967	0.203	-0.046
-577.763	153.778	0.197	-0.270
-576.748	8.263	0.345	-0.258
-575.733	67.526	-0.116	-0.118
-574.719	34.674	0.135	-0.117
-573.704	131.923	0.053	0.068
-572.690	-2.647	-0.255	-0.178
-571.675	21.912	-0.159	-0.130
-570.661	-51.434	-0.238	-0.111
-569.646	-83.855	0.095	0.030
-568.631	-105.674	0.042	0.009
-567.617	-200.000	0.019	0.215
-566.602	194.374	-0.116	-0.175
-565.588	-18.431	0.121	0.075
-564.573	-200.000	0.011	-0.416
-563.558	50.881	-0.036	0.034
-562.544	58.807	-0.263	0.257
-561.529	-200.000	-0.026	0.215
-560.515	-200.000	0.064	-0.358
-559.500	-32.527	-0.119	0.066
-558.485	800.000	-0.059	0.252
-557.471	800.000	0.075	0.326
-556.456	75.611	0.304	0.320
-555.442	-200.000	0.027	0.291
-554.427	-138.639	-0.236	0.026
-553.412	61.159	0.177	-0.175
-552.398	-144.422	0.200	0.019
-551.383	245.740	0.207	-0.347
-550.369	-17.361	0.340	-0.213
-549.354	-200.000	-0.041	0.345
-548.339	-149.018	-0.195	-0.016
-547.325	-200.000	0.030	0.507
-546.310	-200.000	-0.008	0.239
-545.296	-200.000	-0.033	0.190
-544.281	-95.605	-0.377	0.101
-543.266	314.369	-0.032	-0.061
-542.252	-200.000	-0.017	-0.197
-541.237	327.256	0.030	0.057
-540.223	-105.420	0.366	-0.083
-539.208	-4.007	-0.297	-0.205
-538.193	271.136	-0.057	0.101
-537.179	110.206	0.234	-0.280
-536.164	-20.590	0.481	0.294
-535.150	800.000	-0.053	-0.192
-534.135	81.987	-0.240	-0.259
-533.121	-77.208	0.239	0.083
-532.106	-167.931	-0.316	-0.012
-531.091	-15.536	-0.051	0.033
-530.077	30.174	-0.123	-0.105
-529.062	1.287	-0.127	-0.091
-528.048	-84.229	0.296	0.093
-527.033	146.709	0.015	-0.020
-526.018	-200.000	0.035	0.193
-525.004	-19.555	0.321	-0.198
-523.989	1.758	-0.308	-0.221
-522.975	-79.157	-0.273	0.092
-521.960	256.992	-0.036	0.062
-520.945	-15.711	0.389	0.247
-519.931	-148.214	-0.046	0.004
-518.916	26.807	0.076	-0.063
-517.902	-82.905	0.355	-0.114
-516.887	45.162	0.320	0.294
-515.872	-200.000	-0.006	-0.288
-514.858	-200.000	-0.006	0.179
-513.843	-200.000	-0.071	0.369
-512.829	347.266	0.022	-0.044
-511.814	497.315	-0.123	0.282
-510.799	463.295	-0.132	0.294
-509.785	-200.000	-0.026	0.299
-508.770	-136.479	0.340	0.039
-507.756	-112.121	-0.169	-0.034
-506.741	115.981	0.148	-0.181
-505.726	800.000	-0.130	-0.375
-504.712	-79.425	0.264	-0.089
-503.697	-200.000	-0.036	-0.295
-502.683	133.761	-0.078	-0.100
-501.668	-57.522	0.119	0.052
-500.653	-200.000	-0.027	0.172
-499.639	-120.359	0.235	0.040
-498.624	376.372	-0.161	-0.326
-497.610	-200.000	0.003	0.062
-496.595	-27.968	0.100	-0.058
-495.581	80.773	-0.173	-0.185
-494.566	209.372	0.215	-0.335
-493.551	54.543	-0.062	0.059
-492.537	800.000	0.092	-0.299
-491.522	-94.985	-0.200	0.054
-490.508	799.237	-0.115	-0.316
-489.493	-200.000	-0.000	-0.106
-488.478	-27.961	-0.070	-0.040
-487.464	82.106	0.110	0.118
-486.449	-200.000	0.002	0.322
-485.435	359.949	0.071	-0.142
-484.420	-133.108	-0.082	0.010
-483.405	-22.021	-0.128	0.077
-482.391	-60.528	-0.143	0.060
-481.376	-80.598	-0.276	0.091
-480.362	677.892	0.045	0.117
-479.347	40.877	0.409	-0.367
-478.332	-97.691	0.374	-0.096
-477.318	-84.292	-0.342	0.108
-476.303	-116.552	0.430	-0.079
-475.289	-200.000	0.018	-0.192
-474.274	-89.512	-0.446	0.130
-473.259	25.973	-0.140	0.116
-472.245	447.424	0.102	0.222
-471.230	-71.044	0.148	0.055
-470.216	-114.833	-0.058	-0.011
-469.201	-18.401	-0.333	0.207
-468.186	-90.187	0.334	-0.097
-467.172	-125.640	0.259	0.039
-466.157	69.887	-0.214	-0.220
-465.143	120.629	-0.225	-0.278
-464.128	105.449	-0.183	0.215
-463.113	-110.330	0.118	0.024
-462.099	62.498	0.192	0.190
-461.084	-76.587	-0.288	-0.100
-460.070	89.634	-0.093	-0.103
-459.055	-84.379	0.063	-0.020
-458.040	-137.186	0.140	0.016
-457.026	15.981	-0.169	-0.132
-456.011	-72.527	0.616	0.226
-454.997	-94.775	-0.114	0.031
-453.982	11.673	0.372	-0.284
-452.968	86.261	0.336	0.367
-451.953	251.241	0.211	0.356
-450.938	87.306	-0.107	0.118
-449.924	95.489	0.017	-0.019
-448.909	347.500	0.126	0.247
-447.895	-143.497	-0.248	0.024
-446.880	-16.050	0.119	0.075
-445.865	-53.743	0.016	0.007
-444.851	-200.000	0.034	-0.206
-443.836	-118.416	-0.172	0.030
-442.822	449.190	-0.026	-0.056
-441.807	143.363	0.101	-0.134
-440.792	-158.188	-0.318	-0.018
-439.778	14.153	-0.190	0.147
-438.763	-103.659	-0.064	-0.015
-437.749	-200.000	-0.031	-0.223
-436.734	160.849	-0.140	0.193
-435.719	531.831	0.111	0.261
-434.705	800.000	-0.023	-0.081
-433.690	-132.009	-0.176	0.023
-432.676	-200.000	0.019	-0.090
-431.661	-98.077	0.046	0.012
-430.646	-145.575	0.258	-0.023
-429.632	0.828	0.167	-0.118
-428.617	322.829	0.146	0.276
-427.603	1.221	-0.038	-0.027
-426.588	165.586	-0.047	-0.066
-425.573	-170.142	0.205	-0.007
-424.559	800.000	0.115	-0.351
-423.544	145.318	-0.183	-0.243
-422.530	-61.958	-0.231	0.096
-421.515	274.750	-0.154	-0.270
-420.500	-178.195	0.231	-0.005
-419.486	174.176	0.052	0.074
-418.471	217.299	-0.111	-0.176
-417.457	13.174	-0.394	-0.302
-416.442	267.868	-0.202	-0.352
-415.428	206.349	0.152	-0.234
-414.413	-144.283	0.172	-0.016
-413.398	-127.541	-0.271	-0.039
-412.384	-106.596	0.160	-0.035
-411.369	83.695	-0.056	0.061
-410.355	-122.276	-0.141	0.023
-409.340	-83.108	-0.410	0.131
-408.325	339.491	-0.082	-0.159
-407.311	-200.000	-0.007	0.097
-406.296	-200.000	0.051	-0.286
-405.282	-200.000	0.056	0.243
-404.267	21.865	-0.019	0.016
-403.252	-200.000	0.005	-0.183
-402.238	-93.869	0.208	-0.057
-401.223	124.737	-0.174	0.217
-400.209	-31.253	0.226	0.126
-399.194	-63.886	-0.204	0.083
-398.179	-61.224	0.038	0.016
-397.165	-153.058	-0.284	0.020
-396.150	-200.000	0.017	-0.101
-395.136	191.208	0.116	0.173
-394.121	-146.821	0.038	0.003
-393.106	578.917	0.094	-0.228
-392.092	-74.225	-0.294	0.105
-391.077	-146.745	-0.029	0.002
-390.063	-127.292	0.111	0.016
-389.048	596.688	-0.110	-0.269
-388.033	-163.945	0.422	-0.019
-387.019	-75.751	-0.257	-0.090
-386.004	-33.436	0.216	-0.118
-384.990	-28.095	0.171	-0.098
-383.975	-120.001	-0.185	0.031
-382.960	-166.150	0.143	0.006
-381.946	7.075	-0.099	0.073
-380.931	-109.698	0.308	0.064
-379.917	-3.007	0.154	-0.107
-378.902	800.000	0.028	0.101
-377.888	-200.000	-0.005	-0.028
-376.873	29.646	0.144	-0.121
-375.858	-69.276	0.197	0.075
-374.844	800.000	0.048	0.136
-373.829	164.962	-0.153	0.214
-372.815	484.369	0.182	-0.410
-371.800	-43.509	-0.158	0.079
-370.785	-124.576	-0.169	0.026
-369.771	100.621	0.094	-0.108
-368.756	-109.723	-0.140	0.029
-367.742	-46.738	0.325	0.158
-366.727	-200.000	-0.032	-0.245
-365.712	11.818	-0.072	-0.054
-364.698	384.552	-0.034	0.070
-363.683	800.000	-0.067	0.196
-362.669	469.770	0.084	-0.186
-361.654	-200.000	0.042	-0.242
-360.639	-200.000	0.024	-0.487
-359.625	-61.494	-0.378	0.157
-358.610	-124.953	0.244	-0.037
-357.596	-5.095	-0.161	-0.110
-356.581	19.162	-0.205	0.162
-355.566	320.030	0.101	-0.189
-354.552	50.118	-0.315	-0.294
-353.537	-83.572	0.166	0.053
-352.523	-48.538	-0.180	-0.086
-351.508	-93.501	-0.266	-0.073
-350.493	148.470	-0.130	-0.174
-349.479	71.725	-0.114	-0.117
-348.464	165.867	0.229	-0.321
-347.450	283.538	0.035	-0.061
-346.435	-118.303	-0.187	-0.033
-345.420	-154.133	-0.115	0.008
-344.406	-47.087	-0.130	-0.063
-343.391	61.741	0.081	0.080
-342.377	2.660	-0.313	-0.224
-341.362	-200.000	0.018	0.178
-340.348	-61.246	0.174	0.072
-339.333	-200.000	-0.010	-0.118
-338.318	-147.547	-0.263	0.022
-337.304	71.648	-0.051	-0.053
-336.289	-98.492	0.024	0.006
-335.275	40.758	-0.178	0.159
-334.260	420.641	-0.035	0.074
-333.245	-47.299	0.268	0.129
-332.231	35.540	-0.143	0.124
-331.216	-38.573	0.161	0.084
-330.202	-200.000	-0.013	-0.212
-329.187	-200.000	-0.033	0.295
-328.172	34.979	0.220	0.190
-327.158	473.326	0.084	0.187
-326.143	10.365	0.105	-0.079
-325.129	-86.902	0.545	0.164
-324.114	12.739	0.201	0.153
-323.099	-159.850	0.220	-0.012
-322.085	-21.920	-0.058	-0.035
-321.070	148.557	0.093	-0.124
-320.056	118.027	-0.031	-0.037
-319.041	-200.000	-0.001	-0.094
-318.026	377.906	0.053	0.106
-317.012	724.210	0.102	-0.268
-315.997	116.621	-0.280	-0.339
-314.983	146.716	-0.097	-0.128
-313.968	378.270	0.015	0.030
-312.953	-26.866	0.070	-0.040
-311.939	-200.000	0.068	0.342
-310.924	-139.186	0.233	-0.025
-309.910	93.034	0.071	-0.079
-308.895	190.026	-0.063	0.093
-307.880	185.094	-0.177	-0.259
-306.866	-131.884	-0.108	-0.014
-305.851	-200.000	0.047	-0.300
-304.837	-116.777	-0.304	0.055
-303.822	-52.292	0.081	-0.037
-302.807	13.270	0.172	0.132
-301.793	-200.000	0.016	-0.292
-300.778	253.489	-0.241	-0.407
-299.764	-5.343	0.134	0.091
-298.749	-200.000	0.087	0.420
-297.735	182.500	0.235	0.342
-296.720	150.158	0.047	0.063
-295.705	-200.000	-0.043	-0.308
-294.691	144.184	-0.160	0.211
-293.676	582.142	-0.068	0.165
-292.662	-30.534	0.198	0.111
-291.647	-136.941	-0.232	0.026
-290.632	162.363	0.200	0.277
-289.618	-110.638	-0.079	0.016
-288.603	128.124	-0.253	0.317
-287.589	-103.336	-0.261	0.061
-286.574	14.279	-0.227	0.175
-285.559	-37.548	0.113	-0.059
-284.545	-78.143	-0.115	-0.039
-283.530	-176.821	-0.412	-0.010
-282.516	-83.980	0.132	-0.041
-281.501	-38.090	-0.137	0.072
-280.486	-162.665	0.260	0.013
-279.472	-200.000	-0.044	-0.247
-278.457	-200.000	-0.023	-0.149
-277.443	-200.000	0.024	0.229
-276.428	-147.326	-0.148	0.012
-275.413	230.992	0.015	-0.024
-274.399	366.048	-0.062	0.124
-273.384	-155.551	-0.218	0.014
-272.370	-81.953	-0.126	0.040
-271.355	-73.014	0.356	-0.129
-270.340	-54.679	0.063	0.028
-269.326	-126.308	0.143	-0.021
-268.311	800.000	-0.115	-0.337
-267.297	42.029	0.094	-0.084
-266.282	228.487	0.138	-0.221
-265.267	184.346	0.185	0.271
-264.253	-200.000	0.031	-0.147
-263.238	800.000	-0.053	-0.155
-262.224	49.201	-0.213	-0.197
-261.209	27.041	-0.041	0.034
-260.195	260.965	-0.146	0.249
-259.180	-73.111	-0.319	0.115
-258.165	172.704	0.185	-0.262
-257.151	84.119	-0.191	-0.206
-256.136	66.824	-0.206	-0.206
-255.122	-66.141	-0.021	0.008
-254.107	65.265	-0.106	-0.106
-253.092	123.670	-0.342	0.422
-252.078	112.763	-0.074	0.089
-251.063	-96.647	0.174	0.045
-250.049	-151.776	0.232	-0.017
-249.034	27.130	-0.084	-0.070
-248.019	-70.822	0.491	0.182
-247.005	800.000	0.045	0.166
-245.990	800.000	0.074	0.268
-244.976	294.523	-0.107	-0.193
-243.961	-95.836	0.121	0.032
-242.946	5.325	0.188	0.137
-241.932	800.000	0.079	0.237
-240.917	108.873	0.224	0.263
-239.903	-200.000	-0.013	-0.267
-238.888	-100.038	-0.395	0.097
-237.873	-77.862	-0.045	-0.015
-236.859	800.000	-0.092	0.325
-235.844	-82.693	0.200	0.064
-234.830	67.283	-0.163	-0.163
-233.815	-16.321	-0.153	-0.095
-232.800	-200.000	-0.019	0.144
-231.786	14.719	-0.095	0.073
-230.771	-60.378	-0.299	-0.125
-229.757	-62.764	0.360	-0.147
-228.742	24.037	0.204	0.165
-227.727	-47.527	-0.189	0.090
-226.713	159.387	-0.087	0.119
-225.698	-200.000	-0.007	-0.174
-224.684	-104.208	0.433	-0.099
-223.669	423.858	0.027	-0.057
-222.655	82.503	-0.047	0.050
-221.640	184.775	0.083	0.122
-220.625	-103.681	-0.242	-0.056
-219.611	-44.419	0.355	-0.175
-218.596	218.951	0.155	-0.244
-217.582	-144.215	-0.462	0.042
-216.567	800.000	-0.101	0.415
-215.552	126.178	0.141	0.175
-214.538	-133.616	0.097	0.012
-213.523	4.949	-0.284	0.206
-212.509	-200.000	-0.057	0.472
-211.494	217.939	-0.091	-0.143
-210.479	-81.220	-0.100	0.033
-209.465	800.000	-0.059	0.167
-208.450	-131.655	-0.189	-0.024
-207.436	-200.000	0.021	-0.135
-206.421	800.000	0.028	-0.103
-205.406	-114.558	-0.277	0.052
-204.392	-24.052	-0.429	-0.252
-203.377	250.907	0.081	-0.136
-202.363	-156.727	0.219	0.013
-201.348	279.208	-0.111	0.194
-200.333	330.291	0.086	0.163
-199.319	612.514	0.060	0.148
-198.304	136.817	-0.183	-0.235
-197.290	118.405	0.106	0.129
-196.275	60.410	-0.167	-0.163
-195.260	208.996	0.049	0.076
-194.246	-48.955	-0.158	0.074
-193.231	-93.168	0.204	0.056
-192.217	-103.677	0.327	-0.075
-191.202	-80.515	-0.269	0.088
-190.187	-200.000	0.003	-0.117
-189.173	-19.760	0.160	-0.097
-188.158	-48.535	-0.231	-0.109
-187.144	293.730	0.084	-0.152
-186.129	800.000	0.089	-0.278
-185.114	-200.000	-0.004	-0.077
-184.100	-200.000	-0.062	-0.328
-183.085	-104.874	-0.291	0.066
-182.071	-200.000	0.040	0.197
-181.056	-60.293	-0.248	-0.104
-180.042	24.909	-0.050	0.041
-179.027	-30.138	-0.059	0.033
-178.012	-133.575	0.328	0.040
-176.998	-58.180	-0.095	-0.041
-175.983	-57.241	0.256	0.111
-174.969	503.727	0.094	-0.214
-173.954	-128.368	-0.111	0.016
-172.939	-91.779	0.029	-0.008
-171.925	224.616	-0.112	-0.177
-170.910	-67.875	0.214	0.082
-169.896	-200.000	0.029	-0.160
-168.881	-22.867	-0.061	-0.036
-167.866	-116.666	-0.457	0.082
-166.852	410.237	0.063	0.130
-165.837	-200.000	0.004	0.172
-164.823	-128.124	0.428	0.060
-163.808	30.376	0.259	0.217
-162.793	-200.000	-0.020	0.109
-161.779	-166.350	0.099	0.004
-160.764	246.503	0.064	0.107
-159.750	118.946	0.208	-0.253
-158.735	-166.348	-0.240	0.010
-157.720	800.000	0.027	0.114
-156.706	612.182	-0.030	0.074
-155.691	445.781	0.053	-0.114
-154.677	7.853	0.083	-0.061
-153.662	127.560	0.089	0.111
-152.647	-146.435	-0.221	-0.019
-151.633	23.189	0.160	0.129
-150.618	-104.408	0.381	0.087
-149.604	487.866	-0.078	-0.176
-148.589	-153.108	0.218	-0.015
-147.574	272.061	-0.154	-0.267
-146.560	-61.079	-0.054	0.022
-145.545	664.244	-0.028	-0.071
-144.531	-170.594	-0.164	0.006
-143.516	250.777	0.094	0.157
-142.502	-200.000	-0.006	-0.045
-141.487	208.519	0.094	0.144
-140.472	174.943	0.164	0.233
-139.458	-200.000	-0.016	-0.232
-138.443	109.426	0.186	0.219
-137.429	800.000	0.030	0.114
-136.414	0.077	0.275	-0.192
-135.399	800.000	-0.087	0.257
-134.385	-166.742	0.292	0.012
-133.370	800.000	-0.036	-0.103
-132.356	47.002	-0.132	0.120
-131.341	800.000	0.085	0.270
-130.326	800.000	-0.027	-0.085
-129.312	661.043	-0.146	0.370
-128.297	177.425	-0.048	-0.068
-127.283	31.426	-0.358	0.302
-126.268	-58.446	-0.173	0.074
-125.253	-200.000	-0.027	0.121
-124.239	-63.515	-0.193	0.078
-123.224	133.302	0.200	0.253
-122.210	-146.776	0.365	-0.031
-121.195	-114.825	0.066	0.012
-120.180	50.405	0.167	0.154
-119.166	595.719	-0.080	0.194
-118.151	-200.000	-0.068	0.333
-117.137	-200.000	0.011	-0.067
-116.122	-145.525	-0.069	0.006
-115.107	800.000	-0.062	-0.204
-114.093	-200.000	-0.082	0.385
-113.078	800.000	-0.043	-0.179
-112.064	-91.940	-0.142	0.039
-111.049	-110.322	-0.145	0.030
-110.034	204.895	-0.051	-0.077
-109.020	70.370	-0.257	0.260
-108.005	800.000	0.069	-0.278
-106.991	-148.969	0.080	-0.006
-105.976	-200.000	-0.033	0.366
-104.962	-200.000	0.029	0.227
-103.947	800.000	-0.015	0.047
-102.932	-128.858	0.382	-0.053
-101.918	-200.000	0.044	-0.249
-100.903	-200.000	-0.013	0.143
-99.889	-200.000	-0.041	0.182
-98.874	800.000	0.057	0.177
-97.859	79.476	0.062	-0.065
-96.845	800.000	0.108	0.351
-95.830	-200.000	0.034	0.256
-94.816	77.433	0.104	-0.108
-93.801	-63.445	0.096	0.039
-92.786	800.000	-0.101	-0.362
-91.772	-17.898	0.188	-0.116
-90.757	-54.471	-0.144	-0.064
-89.743	426.173	0.057	-0.120
-88.728	29.970	-0.205	0.171
-87.713	-16.962	-0.271	0.167
-86.699	215.831	0.209	-0.325
-85.684	-161.076	0.425	0.022
-84.670	-135.520	-0.472	-0.055
-83.655	-200.000	-0.047	-0.281
-82.640	225.661	-0.170	-0.270
-81.626	-90.870	-0.240	-0.068
-80.611	-200.000	-0.008	0.219
-79.597	39.576	-0.066	-0.058
-78.582	-127.635	0.317	-0.045
-77.567	332.301	0.150	-0.284
-76.553	-10.109	-0.086	0.056
-75.538	-181.186	0.173	0.003
-74.524	336.925	0.138	0.262
-73.509	-94.928	0.265	-0.070
-72.494	-166.060	0.137	0.006
-71.480	-200.000	-0.034	0.377
-70.465	-200.000	-0.018	-0.176
-69.451	-89.895	0.135	0.039
-68.436	800.000	0.080	-0.254
-67.422	127.927	0.130	0.162
-66.407	-8.611	-0.329	0.216
-65.392	13.991	0.165	-0.125
-64.378	-49.495	-0.192	0.089
-63.363	133.780	0.115	0.145
-62.349	146.898	-0.101	0.133
-61.334	110.441	-0.911	-1.070
-60.319	87.759	0.653	0.708
-59.305	-200.000	-0.156	-1.200
-58.290	55.738	0.929	0.881
-57.276	285.840	0.941	1.659
-56.261	-200.000	115.056	647.399
-55.246	470.255	1509.444	3317.270
-54.232	147.842	2673.830	3524.286
-53.217	102.269	2172.370	2481.493
-52.203	37.624	1701.149	1476.036
-51.188	30.427	1518.729	1268.754
-50.173	28.239	1494.408	1233.660
-49.159	52.329	1551.415	1446.639
-48.144	50.897	1567.192	1451.479
-47.130	30.690	1523.894	1274.669
-46.115	27.686	1509.011	1241.753
-45.100	27.412	1505.667	1237.096
-44.086	27.375	1503.916	1235.355
-43.071	27.338	1502.083	1233.551
-42.057	27.326	1499.899	1231.627
-41.042	27.319	1498.941	1230.743
-40.027	27.333	1497.206	1229.364
-39.013	27.336	1495.284	1227.759
-37.998	27.331	1494.576	1227.096
-36.984	27.300	1493.563	1226.004
-35.969	27.336	1492.069	1224.971
-34.954	27.357	1490.447	1223.730
-33.940	27.328	1489.525	1222.729
-32.925	27.320	1487.848	1221.255
-31.911	27.449	1486.022	1220.567
-30.896	27.340	1485.196	1219.110
-29.881	27.513	1483.630	1218.938
-28.867	27.346	1482.975	1217.234
-27.852	27.394	1481.238	1216.080
-26.838	27.460	1480.024	1215.472
-25.823	27.426	1478.150	1213.664
-24.809	27.446	1476.901	1212.721
-23.794	27.391	1475.098	1210.825
-22.779	27.434	1474.107	1210.249
-21.765	27.392	1473.543	1209.461
-20.750	27.452	1472.250	1208.749
-19.736	27.338	1471.463	1207.297
-18.721	27.331	1470.695	1206.575
-17.706	27.333	1469.343	1205.434
-16.692	27.361	1468.069	1204.524
-15.677	27.450	1466.721	1203.958
-14.663	27.482	1465.845	1203.401
-13.648	27.369	1465.349	1202.200
-12.633	27.380	1464.400	1201.446
-11.619	27.358	1463.354	1200.394
-10.604	27.409	1462.742	1200.186
-9.590	27.329	1461.835	1198.863
-8.575	27.398	1460.620	1198.277
-7.560	27.428	1459.619	1197.605
-6.546	27.323	1458.863	1196.246
-5.531	27.351	1458.214	1195.851
-4.517	27.343	1457.191	1194.911
-3.502	27.360	1456.249	1194.200
-2.487	27.373	1455.027	1193.239
-1.473	27.391	1453.880	1192.368
-0.458	27.396	1452.465	1191.195
0.556	25.704	1442.808	1179.267
1.571	22.660	1417.884	1139.163
2.586	19.253	1358.378	1070.138
3.600	17.710	1276.112	996.229
4.615	16.580	1231.214	954.720
5.629	15.900	1178.030	909.723
6.644	13.502	1102.702	839.335
7.659	11.257	1068.623	802.288
8.673	10.859	1064.466	797.143
9.688	10.840	1061.121	794.475
10.702	10.705	1059.288	792.372
11.717	10.726	1057.111	790.778
12.731	11.642	1056.398	794.628
13.746	14.347	1059.622	810.158
14.761	17.036	1062.726	825.555
15.775	17.699	1063.213	829.086
16.790	17.143	1061.121	824.683
17.804	15.913	1059.157	817.120
18.819	14.961	1057.307	811.005
19.834	14.555	1055.726	807.754
20.848	14.190	1054.604	805.061
21.863	14.033	1054.403	804.076
22.877	13.843	1052.990	802.010
23.892	13.807	1052.018	801.026
24.907	13.520	1051.395	799.093
25.921	13.564	1050.652	798.671
26.936	13.466	1050.039	797.663
27.950	13.605	1048.871	797.373
28.965	13.691	1047.673	796.805
29.980	13.716	1046.729	796.139
30.994	13.825	1045.429	795.600
32.009	13.853	1044.861	795.235
33.023	14.000	1044.284	795.426
34.038	13.863	1043.696	794.252
35.053	13.837	1042.358	793.039
36.067	13.701	1041.175	791.420
37.082	13.759	1040.604	791.194
38.096	13.732	1039.713	790.317
39.111	13.844	1039.055	790.283
40.126	13.802	1037.943	789.166
41.140	13.663	1036.946	787.679
42.155	13.654	1035.949	786.808
43.169	13.615	1034.431	785.400
44.184	13.381	1034.404	784.201
45.199	13.589	1032.740	783.852
46.213	13.450	1032.026	782.586
47.228	13.590	1030.714	782.183
48.242	13.642	1029.528	781.460
49.257	13.496	1029.465	780.654
50.271	13.637	1028.075	780.194
51.286	13.619	1027.183	779.362
52.301	13.596	1026.437	778.622
53.315	13.549	1025.701	777.770
54.330	13.601	1024.808	777.272
55.344	13.604	1023.723	776.391
56.359	13.684	1022.538	775.801
57.374	13.622	1021.741	774.835
58.388	13.521	1021.003	773.735
59.403	13.501	1020.451	773.155
60.417	13.490	1019.633	772.417
61.432	13.581	1018.722	772.084
62.447	13.508	1018.161	771.251
63.461	13.519	1016.761	770.170
64.476	13.411	1016.164	769.148
65.490	13.399	1015.430	768.469
66.505	13.458	1014.316	767.831
67.520	13.525	1013.487	767.448
68.534	13.455	1013.478	767.049
69.549	13.521	1012.204	766.324
70.563	13.513	1011.282	765.519
71.578	13.514	1010.706	765.019
72.593	13.552	1009.358	764.106
73.607	13.441	1008.735	763.057
74.622	13.410	1007.880	762.198
75.636	13.448	1006.674	761.396
76.651	13.362	1006.358	760.692
77.666	13.452	1005.262	760.209
78.680	13.427	1004.791	759.672
79.695	13.455	1004.225	759.308
80.709	13.427	1003.905	758.868
81.724	13.430	1003.038	758.160
82.739	13.474	1001.881	757.421
83.753	13.547	1001.583	757.462
84.768	13.638	1000.555	757.030
85.782	13.694	999.580	756.482
86.797	13.689	999.542	756.365
87.812	13.844	998.031	755.859
88.826	13.794	997.168	754.913
89.841	13.657	996.509	753.721
90.855	13.701	995.549	753.132
91.870	13.794	994.742	752.876
92.884	13.786	994.265	752.410
93.899	13.795	993.429	751.754
94.914	13.833	992.690	751.299
95.928	13.809	992.071	750.656
96.943	14.006	991.166	750.795
97.957	13.787	990.301	749.085
98.972	13.856	989.340	748.601
99.987	13.807	989.037	748.087
101.001	13.888	988.312	747.836
102.016	13.927	987.190	747.094
103.030	13.774	986.254	745.635
104.045	13.844	985.232	745.108
105.060	13.817	984.210	744.152
106.074	13.872	983.560	743.837
107.089	13.586	982.672	741.822
108.103	13.682	981.902	741.606
109.118	13.531	981.003	740.186
110.133	13.580	980.505	739.963
111.147	13.597	979.193	738.982
112.162	13.599	978.617	738.493
113.176	13.626	977.654	737.818
114.191	13.652	976.773	737.207
115.206	13.585	976.469	736.611
116.220	13.623	975.153	735.724
117.235	13.656	974.202	735.086
118.249	13.747	973.383	734.808
119.264	13.618	972.635	733.604
120.279	13.574	971.857	732.759
121.293	13.627	971.012	732.291
122.308	13.679	970.044	731.727
123.322	13.655	968.998	730.767
124.337	13.599	967.997	729.702
125.352	13.467	967.055	728.348
126.366	13.596	965.731	727.849
127.381	13.588	965.000	727.201
128.395	13.430	964.124	725.784
129.410	13.484	963.017	725.122
130.424	13.541	962.181	724.680
131.439	13.587	961.432	724.250
132.454	13.630	960.654	723.787
133.468	13.607	959.927	723.077
134.483	13.551	959.881	722.732
135.497	13.622	958.565	721.989
136.512	13.637	957.901	721.490
137.527	13.596	957.216	720.731
138.541	13.656	956.378	720.297
139.556	13.699	955.382	719.668
140.570	13.713	954.729	719.176
141.585	13.699	954.190	718.647
142.600	13.703	953.656	718.197
143.614	13.746	953.152	717.941
144.629	13.865	951.947	717.485
145.643	13.947	951.042	717.089
146.658	13.900	950.506	716.422
147.673	13.880	949.485	715.500
148.687	13.819	948.382	714.344
149.702	13.754	947.959	713.683
150.716	13.691	946.883	712.540
151.731	13.757	945.930	712.043
152.746	13.731	944.945	711.127
153.760	13.751	944.490	710.808
154.775	13.764	943.838	710.311
155.789	13.800	942.779	709.603
156.804	13.886	942.273	709.529
157.819	13.822	941.466	708.585
158.833	13.722	941.243	707.927
159.848	13.967	940.577	708.406
160.862	14.094	939.166	707.822
161.877	14.034	938.768	707.203
162.892	14.040	937.660	706.334
163.906	13.803	937.350	705.032
164.921	13.969	935.880	704.567
165.935	13.796	935.633	703.586
166.950	13.939	934.184	703.037
167.964	13.766	933.847	701.991
168.979	13.932	932.590	701.686
169.994	13.883	931.761	700.792
171.008	13.857	930.931	699.997
172.023	13.884	930.170	699.477
173.037	14.011	928.971	699.046
174.052	14.008	928.774	698.823
175.067	14.010	928.167	698.314
176.081	13.961	927.266	697.369
177.096	13.785	926.578	696.051
178.110	13.852	925.688	695.603
179.125	13.837	924.839	694.837
180.140	13.952	924.122	694.718
181.154	13.898	923.513	693.974
182.169	14.010	922.743	693.803
183.183	13.957	922.158	693.079
184.198	14.163	921.362	693.279
185.213	14.032	920.707	692.179
186.227	14.237	919.961	692.411
187.242	14.138	919.783	691.802
188.256	14.237	919.070	691.619
189.271	14.392	918.161	691.517
190.286	14.241	916.992	689.946
191.300	14.213	916.414	689.335
192.315	14.089	915.439	688.027
193.329	13.923	915.183	687.087
194.344	13.922	914.693	686.655
195.359	13.897	914.178	686.106
196.373	14.120	913.394	686.376
197.388	14.170	912.724	686.019
198.402	14.266	912.061	685.856
199.417	14.253	912.094	685.767
200.432	14.466	911.408	686.065
201.446	14.334	910.850	685.041
202.461	14.508	910.199	685.205
203.475	14.417	909.929	684.569
204.490	14.504	909.237	684.344
205.504	14.413	908.155	683.097
206.519	14.430	907.517	682.624
207.534	14.348	906.653	681.579
208.548	14.440	906.027	681.425
209.563	14.462	905.543	681.092
210.577	14.464	904.812	680.491
211.592	14.255	904.655	679.457
212.607	14.477	903.788	679.651
213.621	14.614	902.669	679.307
214.636	14.498	902.479	678.634
215.650	14.455	902.006	678.041
216.665	14.506	901.066	677.482
217.680	14.536	900.868	677.395
218.694	14.621	900.468	677.380
219.709	14.748	899.795	677.327
220.723	14.670	898.930	676.300
221.738	14.672	898.649	676.038
222.753	14.724	897.582	675.386
223.767	14.671	897.169	674.801
224.782	14.757	896.253	674.402
225.796	14.751	895.428	673.695
226.811	14.804	894.845	673.412
227.826	14.803	894.209	672.867
228.840	14.752	893.683	672.208
229.855	14.756	892.863	671.550
230.869	14.765	892.329	671.123
231.884	14.658	891.668	670.137
232.899	14.755	890.922	669.908
233.913	14.696	890.190	669.060
234.928	14.634	889.436	668.185
235.942	14.625	888.796	667.610
236.957	14.665	888.180	667.248
237.972	14.565	887.422	666.221
238.986	14.662	886.866	666.129
240.001	14.623	886.366	665.540
241.015	14.729	885.399	665.177
242.030	14.840	884.374	664.790
243.045	14.757	884.138	664.223
244.059	14.832	883.511	663.992
245.074	14.773	883.194	663.463
246.088	14.873	882.193	663.047
247.103	14.831	881.716	662.465
248.117	14.884	881.194	662.225
249.132	15.082	880.030	662.074
250.147	14.962	880.207	661.674
251.161	15.069	879.591	661.574
252.176	15.157	878.769	661.245
253.190	15.220	877.817	660.718
254.205	15.371	877.214	660.799
255.220	15.344	876.711	660.256
256.234	15.344	876.022	659.681
257.249	15.254	875.717	659.039
258.263	15.265	874.820	658.346
259.278	15.298	874.406	658.109
260.293	15.310	873.882	657.703
261.307	15.409	873.484	657.731
262.322	15.396	872.578	656.942
263.336	15.384	871.870	656.304
264.351	15.430	871.419	656.085
265.366	15.525	870.485	655.695
266.380	15.461	870.188	655.165
267.395	15.513	869.658	654.911
268.409	15.499	868.947	654.262
269.424	15.485	868.053	653.476
270.439	15.496	867.343	652.924
271.453	15.494	866.624	652.320
272.468	15.422	865.649	651.249
273.482	15.558	865.320	651.472
274.497	15.479	865.087	650.932
275.512	15.488	864.121	650.184
276.526	15.442	863.220	649.269
277.541	15.362	863.252	648.926
278.555	15.485	862.000	648.402
279.570	15.647	861.328	648.464
280.585	15.660	861.150	648.324
281.599	15.630	860.510	647.670
282.614	15.757	859.942	647.673
283.628	15.575	859.287	646.420
284.643	15.577	858.961	646.127
285.657	15.609	858.462	645.815
286.672	15.786	857.909	646.025
287.687	15.665	857.323	645.059
288.701	15.549	856.937	644.267
289.716	15.733	856.153	644.328
290.730	15.692	855.651	643.736
291.745	15.667	854.818	642.955
292.760	15.782	853.998	642.720
293.774	15.802	853.707	642.523
294.789	15.880	852.935	642.183
295.803	15.867	852.266	641.573
296.818	15.846	851.561	640.906
297.833	15.641	851.488	640.013
298.847	15.789	850.362	639.671
299.862	15.712	849.918	638.990
300.876	15.863	849.190	638.957
301.891	15.870	848.351	638.297
302.906	15.784	848.250	637.837
303.920	16.059	847.002	637.885
304.935	15.990	846.769	637.391
305.949	16.221	846.022	637.648
306.964	16.136	845.134	636.600
307.979	16.047	844.861	636.003
308.993	16.067	844.306	635.601
310.008	16.144	843.762	635.428
311.022	16.123	843.190	634.860
312.037	16.244	842.947	635.077
313.052	16.172	842.252	634.225
314.066	16.008	841.631	633.088
315.081	15.878	840.991	632.061
316.095	16.038	840.513	632.246
317.110	16.016	839.995	631.718
318.125	16.032	839.314	631.210
319.139	16.032	839.092	630.987
320.154	16.111	838.297	630.628
321.168	16.120	837.426	629.953
322.183	16.222	836.888	629.873
323.197	16.182	836.953	629.716
324.212	16.037	836.657	628.897
325.227	16.237	835.480	628.700
326.241	16.168	835.185	628.167
327.256	16.099	834.681	627.473
328.270	16.097	834.009	626.907
329.285	16.193	833.460	626.796
330.300	16.165	833.130	626.389
331.314	16.167	832.600	625.942
332.329	16.238	831.602	625.398
333.343	16.446	831.053	625.701
334.358	16.351	830.678	625.013
335.373	16.363	830.009	624.497
336.387	16.311	829.591	623.934
337.402	16.361	829.078	623.679
338.416	16.336	828.630	623.195
339.431	16.548	827.825	623.316
340.446	16.536	827.466	622.946
341.460	16.480	827.070	622.387
342.475	16.632	825.894	622.006
343.489	16.533	826.007	621.670
344.504	16.440	825.729	621.066
345.519	16.698	824.737	621.210
346.533	16.704	824.256	620.815
347.548	16.800	823.496	620.542
348.562	16.724	823.519	620.223
349.577	16.637	822.683	619.221
350.592	16.570	822.174	618.540
351.606	16.589	821.551	618.084
352.621	16.664	821.094	617.960
353.635	16.501	820.862	617.135
354.650	16.584	820.283	616.950
355.665	16.654	820.112	617.022
356.679	16.633	819.471	616.408
357.694	16.571	819.348	616.035
358.708	16.645	818.650	615.726
359.723	16.739	817.913	615.459
360.738	16.700	817.318	614.814
361.752	16.640	816.638	614.030
362.767	16.928	816.275	614.747
363.781	16.825	816.127	614.208
364.796	16.853	815.881	614.071
365.810	16.834	815.501	613.661
366.825	16.809	815.140	613.244
367.840	16.880	814.608	613.046
368.854	17.066	813.959	613.175
369.869	16.889	813.758	612.330
370.883	16.868	813.445	611.964
371.898	17.023	812.215	611.545
372.913	16.907	811.884	610.822
373.927	17.121	811.326	611.121
374.942	17.040	810.850	610.414
375.956	16.947	810.212	609.545
376.971	17.163	809.140	609.462
377.986	17.241	808.568	609.257
379.000	17.223	808.287	608.925
380.015	17.245	808.075	608.790
381.029	17.051	807.845	607.872
382.044	17.214	806.674	607.517
383.059	17.229	806.455	607.352
384.073	17.428	805.455	607.255
385.088	17.330	804.986	606.499
386.102	17.356	804.249	605.984
387.117	17.260	804.110	605.483
388.132	17.210	803.794	605.014
389.146	17.134	803.725	604.639
390.161	17.226	802.700	604.141
391.175	17.396	802.505	604.543
392.190	17.395	802.025	604.125
393.205	17.314	801.790	603.605
394.219	17.222	801.433	602.956
395.234	17.343	800.665	602.757
396.248	17.181	800.163	601.750
397.263	17.172	799.707	601.322
398.278	17.320	799.003	601.262
399.292	17.319	798.849	601.092
400.307	17.312	798.307	600.604
401.321	17.271	798.140	600.280
402.336	17.348	797.368	599.920
403.350	17.305	797.202	599.588
404.365	17.484	796.798	599.863
405.380	17.298	796.418	598.869
406.394	17.490	795.957	599.144
407.409	17.507	795.451	598.770
408.423	17.651	794.773	598.714
409.438	17.606	794.287	598.137
410.453	17.591	793.892	597.736
411.467	17.818	793.333	598.055
412.482	17.738	793.212	597.631
413.496	17.849	792.608	597.513
414.511	17.840	792.217	597.133
415.526	17.853	792.111	597.044
416.540	17.682	791.830	596.184
417.555	17.861	790.885	596.046
418.569	17.825	790.487	595.565
419.584	17.686	790.111	594.746
420.599	17.927	789.365	594.971
421.613	111.733	1293.126	1476.615
422.628	95.980	1366.487	1476.720
