DTS Sentinel unit serial number:	SN413079Multiplexer serial number:	ORYXHardware model number:	OX4-SRSoftware version number:	ORYX F/W v4.00 Oryx Data Collector v3.7.2.0data status	okinstallation	princeton_trtdifferential loss correction	single-endedforward channel	channel 3reverse channel	N/Adate	2019/09/12time	18:12:04forward acquisition time	15.00reverse acquisition time	0.00gamma	496.2192k internal	0.2316k external	0.2316temperature offset calibration	1.0089default loss term (dB/km)	0.3790temperature slope calibration	1.0000multiplexer offset coefficient	1.0000multiplexer slope coefficient	1.0000fibre end	0.00T internal ref (°C)	33.56T ext. ref 1 (°C)	2.94T ext. ref 2 (°C)	28.09length (m)	temperature (°C)	Stokes	anti-Stokes-747.200	-5.750	0.477	-0.331
-746.185	43.073	0.293	-0.270
-745.171	498.238	-0.115	-0.267
-744.156	-23.973	0.223	0.135
-743.142	-80.028	-0.350	0.119
-742.127	-108.984	-0.420	0.091
-741.112	123.023	0.232	-0.294
-740.098	-54.408	-0.298	-0.137
-739.083	477.883	0.153	0.351
-738.069	420.694	-0.299	0.650
-737.054	-132.740	-0.527	0.068
-736.039	800.000	-0.366	1.076
-735.025	89.977	-0.272	0.308
-734.010	-183.128	0.694	0.012
-732.996	117.262	0.237	-0.295
-731.981	-89.092	-0.268	0.080
-730.966	-151.361	0.246	-0.019
-729.952	-3.440	-0.399	-0.281
-728.937	800.000	0.242	-0.874
-727.923	-126.240	0.505	-0.076
-726.908	188.933	-0.533	-0.808
-725.894	-20.420	-0.104	0.065
-724.879	-86.340	-0.295	0.092
-723.864	-34.618	0.176	0.098
-722.850	92.630	0.461	0.527
-721.835	-200.000	0.005	-1.022
-720.821	121.305	0.251	-0.316
-719.806	-200.000	0.014	0.253
-718.791	322.834	-0.170	-0.329
-717.777	-27.384	-1.153	-0.679
-716.762	-200.000	0.045	-0.372
-715.748	496.512	0.126	0.293
-714.733	36.875	0.272	0.244
-713.718	-200.000	-0.154	0.894
-712.704	-34.298	1.033	-0.574
-711.689	511.393	-0.236	0.557
-710.675	800.000	0.013	-0.055
-709.660	213.998	0.366	-0.586
-708.645	54.400	-0.125	-0.122
-707.631	-0.802	-0.517	0.370
-706.616	150.349	-0.567	-0.779
-705.602	-0.196	-0.232	0.167
-704.587	-28.423	0.216	0.126
-703.572	-123.796	0.603	-0.096
-702.558	800.000	0.075	-0.305
-701.543	80.466	-0.765	0.833
-700.529	269.925	0.274	-0.487
-699.514	630.071	-0.251	0.642
-698.499	-52.228	0.222	-0.104
-697.485	800.000	-0.117	-0.388
-696.470	-85.747	0.567	0.178
-695.456	212.839	-0.386	0.616
-694.441	-127.106	-0.156	-0.023
-693.426	47.788	0.109	0.103
-692.412	414.464	0.339	-0.730
-691.397	-141.924	0.864	-0.087
-690.383	-129.147	0.590	0.083
-689.368	-200.000	-0.065	0.804
-688.354	-200.000	0.038	-0.174
-687.339	-29.796	-0.428	-0.247
-686.324	76.160	0.435	0.466
-685.310	-129.210	-0.276	-0.039
-684.295	34.027	0.292	0.257
-683.281	138.765	0.298	0.396
-682.266	800.000	0.087	-0.370
-681.251	92.519	-0.121	0.138
-680.237	252.052	0.257	0.443
-679.222	-62.096	0.098	0.041
-678.208	205.813	0.215	-0.338
-677.193	-67.752	-0.859	-0.339
-676.178	-172.736	1.243	0.039
-675.164	-63.216	0.445	-0.185
-674.149	48.221	-0.637	0.602
-673.135	-26.262	1.037	0.615
-672.120	-110.964	0.331	-0.069
-671.105	-112.298	-0.456	-0.092
-670.091	262.149	-0.476	0.834
-669.076	67.830	-0.838	0.865
-668.062	84.034	0.213	-0.235
-667.047	-200.000	-0.038	-0.167
-666.032	-92.771	-0.939	0.265
-665.018	545.204	0.156	0.377
-664.003	216.922	-0.180	0.289
-662.989	-171.927	-0.290	0.010
-661.974	800.000	0.161	-0.521
-660.959	-151.706	-0.821	-0.061
-659.945	458.031	-0.221	0.496
-658.930	41.465	-0.339	0.309
-657.916	800.000	0.094	-0.302
-656.901	-25.218	-0.314	-0.188
-655.886	-36.288	0.472	-0.257
-654.872	342.960	0.341	0.674
-653.857	-63.907	-0.472	-0.195
-652.843	-84.456	0.762	0.243
-651.828	532.233	0.410	0.978
-650.814	160.020	-0.135	-0.189
-649.799	221.565	-0.126	0.204
-648.784	176.501	0.148	-0.216
-647.770	-65.418	-0.327	0.133
-646.755	-54.242	0.762	0.349
-645.741	40.080	1.219	1.105
-644.726	113.683	0.464	-0.569
-643.711	-93.610	-0.398	0.111
-642.697	1.012	-0.138	-0.100
-641.682	263.656	-0.316	-0.554
-640.668	-50.612	-0.437	0.208
-639.653	27.763	-0.218	-0.185
-638.638	328.108	0.251	0.487
-637.624	216.908	-0.171	0.275
-636.609	207.215	-0.274	-0.430
-635.595	28.411	-0.488	-0.416
-634.580	800.000	-0.186	-0.656
-633.565	-12.124	0.098	-0.065
-632.551	102.395	0.599	-0.706
-631.536	800.000	-0.079	0.338
-630.522	-141.648	-0.515	0.052
-629.507	228.846	-0.241	-0.396
-628.492	561.044	-0.109	-0.266
-627.478	137.910	0.623	0.823
-626.463	-164.414	0.889	0.041
-625.449	677.460	-0.205	0.538
-624.434	-167.406	-0.340	0.014
-623.419	-200.000	-0.044	-0.291
-622.405	-75.509	-0.624	0.224
-621.390	-200.000	0.050	0.625
-620.376	-146.391	-0.770	0.068
-619.361	-200.000	0.052	-0.348
-618.346	-190.401	0.682	-0.007
-617.332	-153.707	0.485	0.034
-616.317	318.762	-0.068	-0.130
-615.303	-93.316	-0.286	-0.080
-614.288	-194.363	-0.936	-0.008
-613.273	800.000	-0.303	-0.934
-612.259	-63.747	0.408	-0.168
-611.244	-7.013	-0.403	-0.276
-610.230	258.736	-0.493	-0.856
-609.215	233.579	0.209	0.347
-608.201	-79.647	-0.430	0.146
-607.186	-200.000	0.081	-0.416
-606.171	-33.606	0.232	0.129
-605.157	-200.000	0.040	-0.379
-604.142	-200.000	0.040	-0.366
-603.128	44.598	-0.440	0.407
-602.113	88.986	0.468	0.525
-601.098	-48.578	-0.431	-0.209
-600.084	47.043	0.297	0.278
-599.069	-44.752	0.355	-0.179
-598.055	449.292	-0.367	-0.815
-597.040	171.978	-0.054	-0.077
-596.025	-200.000	-0.060	0.807
-595.011	-71.620	0.460	0.173
-593.996	-3.446	0.278	-0.195
-592.982	272.440	0.554	0.984
-591.967	800.000	-0.034	0.099
-590.952	27.854	0.139	-0.118
-589.938	-8.688	-0.225	0.152
-588.923	104.818	-0.502	-0.596
-587.909	800.000	0.277	0.846
-586.894	-200.000	0.007	-0.077
-585.879	87.267	-0.344	0.383
-584.865	307.820	0.170	-0.320
-583.850	362.483	0.198	0.399
-582.836	-200.000	0.012	0.104
-581.821	-200.000	0.005	-0.106
-580.806	-200.000	-0.093	-0.790
-579.792	-200.000	-0.154	0.851
-578.777	-200.000	-0.044	0.240
-577.763	-200.000	0.163	-0.758
-576.748	-68.750	-0.439	-0.171
-575.733	-141.822	0.671	-0.068
-574.719	10.778	-0.588	0.452
-573.704	-64.155	0.350	-0.144
-572.690	-106.237	0.262	0.059
-571.675	800.000	0.167	-0.492
-570.661	264.272	-0.152	0.266
-569.646	121.314	0.244	-0.306
-568.631	366.971	0.123	0.251
-567.617	-68.981	0.483	0.187
-566.602	-195.564	0.502	0.004
-565.588	-120.752	-0.365	0.062
-564.573	-104.575	0.107	-0.025
-563.558	30.153	0.495	-0.425
-562.544	800.000	0.068	-0.210
-561.529	3.985	-0.328	-0.242
-560.515	-122.736	-0.475	0.077
-559.500	199.708	0.197	-0.304
-558.485	-154.567	0.155	0.010
-557.471	-37.816	-0.351	0.188
-556.456	334.613	-0.180	0.351
-555.442	-128.652	-1.574	0.224
-554.427	-80.593	0.105	0.035
-553.412	182.214	-0.132	0.195
-552.398	232.226	0.175	0.289
-551.383	-200.000	0.032	0.159
-550.369	194.497	-0.274	0.417
-549.354	-18.288	0.479	-0.301
-548.339	-200.000	0.098	0.671
-547.325	-200.000	0.018	-0.197
-546.310	-97.650	-0.408	0.106
-545.296	88.311	0.090	-0.100
-544.281	-200.000	0.098	-0.507
-543.266	13.103	-0.424	-0.330
-542.252	8.959	-0.160	-0.121
-541.237	135.001	0.220	0.288
-540.223	30.749	-0.767	0.659
-539.208	800.000	-0.154	-0.440
-538.193	42.141	0.428	-0.390
-537.179	-7.891	-0.769	-0.521
-536.164	-200.000	-0.009	0.859
-535.150	-36.018	0.373	0.203
-534.135	-5.379	-0.305	-0.211
-533.121	-66.034	0.500	-0.200
-532.106	-200.000	-0.129	-1.075
-531.091	-86.352	0.443	-0.137
-530.077	-36.905	0.300	-0.161
-529.062	54.489	-0.321	0.310
-528.048	577.889	0.204	-0.501
-527.033	-19.542	0.261	0.162
-526.018	60.664	-0.419	-0.417
-525.004	97.896	-0.214	0.247
-523.989	-115.147	0.574	-0.109
-522.975	16.626	0.117	0.093
-521.960	273.690	-0.403	0.716
-520.945	800.000	0.214	0.891
-519.931	800.000	-0.125	0.473
-518.916	-187.387	0.344	0.005
-517.902	-90.142	-0.911	-0.266
-516.887	-120.523	-0.070	0.012
-515.872	-200.000	-0.000	-0.045
-514.858	800.000	-0.080	-0.287
-513.843	85.289	-0.297	-0.327
-512.829	-25.845	0.679	0.401
-511.814	-23.759	0.324	0.195
-510.799	154.859	-0.166	-0.229
-509.785	229.855	0.407	-0.668
-508.770	14.044	-0.479	0.374
-507.756	50.778	0.337	0.320
-506.741	312.810	-0.196	-0.369
-505.726	-81.408	-0.123	-0.041
-504.712	90.931	0.950	1.069
-503.697	-200.000	0.085	-0.596
-502.683	272.282	0.165	-0.292
-501.668	93.874	0.350	-0.398
-500.653	-156.500	-0.192	0.012
-499.639	154.020	0.322	0.444
-498.624	-151.631	0.701	-0.052
-497.610	-200.000	0.087	0.437
-496.595	-200.000	0.025	0.980
-495.581	230.974	0.365	0.600
-494.566	-78.058	0.323	-0.112
-493.551	800.000	0.241	0.902
-492.537	141.610	-0.256	-0.340
-491.522	350.237	-0.336	-0.667
-490.508	-145.002	0.224	0.020
-489.493	-200.000	-0.066	-0.342
-488.478	49.843	0.111	-0.105
-487.464	428.078	0.016	0.035
-486.449	-95.566	-1.066	0.287
-485.435	89.734	0.617	0.691
-484.420	64.593	0.305	0.309
-483.405	-60.679	-0.310	-0.132
-482.391	304.171	0.355	0.660
-481.376	-151.231	1.248	0.094
-480.362	53.861	-0.493	-0.475
-479.347	-19.878	-0.876	0.542
-478.332	-19.458	-0.355	0.220
-477.318	-179.888	-0.787	-0.017
-476.303	-200.000	-0.023	-0.142
-475.289	-66.637	-0.549	0.218
-474.274	-0.689	-0.930	0.661
-473.259	323.852	-0.257	0.491
-472.245	-67.968	0.345	0.135
-471.230	117.417	-0.210	-0.258
-470.216	-108.866	0.365	-0.078
-469.201	15.261	0.422	0.331
-468.186	-8.348	-0.203	0.137
-467.172	158.500	0.459	-0.638
-466.157	162.759	0.519	-0.730
-465.143	-134.740	0.094	0.011
-464.128	-2.115	0.026	0.018
-463.113	493.705	-0.233	-0.536
-462.099	356.817	0.106	-0.211
-461.084	-117.736	0.537	0.097
-460.070	240.996	0.274	-0.458
-459.055	800.000	0.135	0.495
-458.040	-117.145	-0.430	-0.078
-457.026	-200.000	-0.013	-0.730
-456.011	-200.000	-0.003	-0.155
-454.997	271.468	-0.284	0.501
-453.982	107.069	-0.333	0.396
-452.968	114.926	-0.025	0.030
-451.953	39.432	0.276	-0.248
-450.938	-71.559	0.857	0.321
-449.924	-200.000	0.083	0.521
-448.909	-60.767	-0.274	-0.116
-447.895	599.439	0.230	-0.572
-446.880	113.176	0.030	0.037
-445.865	-200.000	0.027	-0.340
-444.851	-162.012	-0.355	0.018
-443.836	89.108	0.145	-0.162
-442.822	650.953	-0.128	-0.328
-441.807	800.000	0.183	-0.610
-440.792	163.790	-0.020	-0.028
-439.778	134.547	-0.255	-0.332
-438.763	-200.000	0.092	-0.788
-437.749	-200.000	0.035	0.172
-436.734	800.000	0.091	0.268
-435.719	304.123	0.259	0.480
-434.705	-87.924	-0.414	0.125
-433.690	-200.000	-0.072	-0.524
-432.676	800.000	-0.213	-0.731
-431.661	19.233	0.590	0.474
-430.646	-173.191	1.097	-0.034
-429.632	-200.000	0.040	0.416
-428.617	-200.000	0.167	-1.040
-427.603	713.096	-0.240	0.637
-426.588	162.058	-0.085	0.119
-425.573	-97.245	0.705	-0.184
-424.559	-39.815	-0.565	-0.295
-423.544	50.813	0.752	0.712
-422.530	0.822	-0.413	-0.296
-421.515	-136.687	-0.604	-0.070
-420.500	-0.125	-0.459	-0.327
-419.486	-53.672	-0.325	0.149
-418.471	800.000	0.187	0.748
-417.457	-200.000	0.030	0.364
-416.442	-110.925	-0.903	0.186
-415.428	107.790	-0.217	-0.258
-414.413	800.000	-0.292	0.936
-413.398	273.995	-0.349	0.618
-412.384	-0.913	-0.254	-0.180
-411.369	-21.465	0.356	-0.217
-410.355	624.785	-0.039	0.097
-409.340	-200.000	0.064	0.538
-408.325	0.427	0.342	-0.244
-407.311	14.442	0.318	0.248
-406.296	82.741	-0.390	0.424
-405.282	-200.000	0.008	-0.244
-404.267	-130.445	-0.869	-0.118
-403.252	342.929	-0.339	-0.663
-402.238	227.288	-0.298	-0.485
-401.223	-59.955	0.396	-0.169
-400.209	-25.897	-0.594	0.349
-399.194	27.158	-0.351	0.294
-398.179	800.000	0.028	-0.087
-397.165	-200.000	-0.003	-0.188
-396.150	-142.925	0.944	-0.091
-395.136	-30.335	0.241	-0.137
-394.121	-137.612	0.271	0.031
-393.106	113.729	0.319	0.387
-392.092	800.000	0.142	0.394
-391.077	800.000	0.089	-0.281
-390.063	-200.000	-0.203	-1.161
-389.048	267.927	-0.545	-0.953
-388.033	-23.849	0.970	-0.580
-387.019	33.900	0.162	-0.140
-386.004	-107.698	0.546	0.119
-384.990	-90.137	0.416	0.121
-383.975	-200.000	0.015	0.211
-382.960	82.787	-0.756	0.820
-381.946	-200.000	0.099	-0.489
-380.931	-108.394	0.404	-0.087
-379.917	213.938	-0.506	-0.799
-378.902	800.000	-0.207	0.776
-377.888	-49.678	-0.436	0.207
-376.873	83.781	-0.158	-0.172
-375.858	-20.879	0.522	-0.319
-374.844	800.000	0.094	-0.264
-373.829	53.943	0.221	-0.212
-372.815	-15.578	-0.196	-0.125
-371.800	-34.137	0.478	-0.262
-370.785	715.019	0.089	-0.234
-369.771	86.043	0.105	0.115
-368.756	-4.598	-0.635	0.438
-367.742	-106.811	-0.391	-0.087
-366.727	-118.322	-0.260	0.046
-365.712	266.357	0.148	-0.257
-364.698	-97.263	-0.195	0.051
-363.683	-8.996	-0.307	0.205
-362.669	-200.000	0.021	0.378
-361.654	-112.560	0.672	0.134
-360.639	-138.454	-0.692	0.076
-359.625	-150.301	-0.393	-0.030
-358.610	-87.496	0.169	-0.051
-357.596	40.141	-0.357	0.320
-356.581	-200.000	0.022	-0.644
-355.566	-57.989	0.501	-0.218
-354.552	17.924	0.182	-0.145
-353.537	-200.000	0.140	0.757
-352.523	800.000	0.018	-0.057
-351.508	800.000	0.188	0.597
-350.493	-84.876	-0.412	0.129
-349.479	232.439	-0.246	-0.403
-348.464	-34.204	-0.510	0.280
-347.450	-91.836	0.232	0.066
-346.435	261.828	0.204	-0.352
-345.420	91.877	-0.773	0.867
-344.406	-200.000	-0.011	0.386
-343.391	800.000	-0.195	0.551
-342.377	-126.572	0.583	0.086
-341.362	-4.695	-0.259	-0.178
-340.348	-200.000	-0.067	-1.129
-339.333	299.127	0.239	-0.439
-338.318	-35.466	0.608	-0.329
-337.304	89.580	-0.379	0.422
-336.289	-113.610	-0.169	0.033
-335.275	46.381	0.295	-0.272
-334.260	-25.685	0.740	-0.435
-333.245	168.058	0.124	0.175
-332.231	-77.245	0.302	-0.105
-331.216	-200.000	-0.018	0.255
-330.202	382.672	0.269	-0.552
-329.187	99.142	-0.098	-0.113
-328.172	-200.000	-0.168	0.802
-327.158	-104.142	-0.540	0.125
-326.143	-73.670	0.770	-0.279
-325.129	-200.000	0.182	-0.944
-324.114	-59.540	0.434	-0.186
-323.099	-4.475	-0.274	0.189
-322.085	-40.246	-0.690	-0.358
-321.070	599.529	-0.098	-0.243
-320.056	168.552	0.313	0.444
-319.041	-200.000	-0.013	-0.999
-318.026	23.038	-0.652	-0.533
-317.012	253.596	0.218	0.370
-315.997	-173.002	-1.217	-0.037
-314.983	-41.040	-0.461	-0.237
-313.968	-5.495	0.270	-0.184
-312.953	423.093	-0.301	0.643
-311.939	-38.076	0.716	-0.379
-310.924	58.153	0.481	-0.469
-309.910	53.917	-0.112	-0.107
-308.895	-57.318	0.382	-0.167
-307.880	256.707	-0.017	0.028
-306.866	308.024	0.113	0.210
-305.851	-200.000	0.009	0.726
-304.837	598.704	-0.628	1.551
-303.822	17.124	-0.539	-0.426
-302.807	115.556	-0.096	0.116
-301.793	101.531	0.562	-0.652
-300.778	226.811	0.159	-0.257
-299.764	-200.000	0.014	0.298
-298.749	800.000	-0.083	-0.303
-297.735	67.301	0.265	-0.269
-296.720	45.892	-0.390	-0.359
-295.705	800.000	-0.262	-0.936
-294.691	16.971	0.287	0.227
-293.676	206.358	-0.320	-0.496
-292.662	12.764	-0.821	-0.631
-291.647	100.035	-0.385	-0.445
-290.632	44.394	0.448	0.409
-289.618	-130.283	0.314	-0.042
-288.603	-26.000	0.750	0.439
-287.589	-53.612	0.285	0.130
-286.574	-200.000	0.055	0.841
-285.559	268.999	-0.088	-0.154
-284.545	463.246	0.267	-0.593
-283.530	-46.585	0.551	0.269
-282.516	10.858	0.775	0.589
-281.501	-120.149	-0.494	0.084
-280.486	-36.065	0.380	0.204
-279.472	-200.000	0.052	0.613
-278.457	46.687	0.271	0.251
-277.443	-65.229	0.520	0.208
-276.428	-21.691	-0.667	0.404
-275.413	-200.000	-0.009	1.102
-274.399	301.830	-0.098	-0.181
-273.384	-99.608	-0.788	0.197
-272.370	-15.278	0.566	-0.360
-271.355	373.014	0.124	-0.251
-270.340	684.609	0.179	0.465
-269.326	-20.291	-0.805	-0.493
-268.311	-16.516	-0.146	0.092
-267.297	590.691	-0.228	-0.560
-266.282	-200.000	0.174	-0.943
-265.267	-58.960	-0.334	-0.144
-264.253	-200.000	-0.022	0.098
-263.238	-106.956	0.502	0.110
-262.224	-200.000	-0.011	-0.603
-261.209	574.970	-0.149	0.361
-260.195	-24.174	0.772	0.458
-259.180	-146.309	-0.707	-0.062
-258.165	-106.092	-0.979	-0.219
-257.151	-200.000	0.026	0.474
-256.136	369.025	0.059	0.119
-255.122	-101.740	0.426	0.103
-254.107	308.228	-0.288	-0.534
-253.092	-195.550	-0.837	0.006
-252.078	800.000	-0.051	0.195
-251.063	-147.328	-0.240	0.020
-250.049	800.000	0.020	0.069
-249.034	20.739	-0.408	-0.328
-248.019	-190.128	0.563	-0.006
-247.005	-27.579	-0.473	-0.273
-245.990	57.976	0.140	-0.136
-244.976	514.504	0.328	0.759
-243.961	33.582	0.736	-0.635
-242.946	-119.583	0.578	-0.099
-241.932	-80.700	-0.210	-0.069
-240.917	-142.765	-0.944	-0.091
-239.903	29.517	0.620	-0.523
-238.888	616.919	0.093	-0.232
-237.873	-144.629	-0.661	0.061
-236.859	406.654	0.146	-0.306
-235.844	-200.000	-0.048	0.294
-234.830	-107.589	0.667	0.145
-233.815	-200.000	-0.072	-0.401
-232.800	234.507	0.236	-0.386
-231.786	-47.474	-0.539	0.260
-230.771	800.000	0.087	-0.242
-229.757	-177.054	0.684	-0.017
-228.742	283.603	-0.319	-0.568
-227.727	800.000	0.131	0.395
-226.713	126.620	0.326	0.409
-225.698	23.737	0.145	-0.118
-224.684	-141.976	0.753	-0.074
-223.669	-200.000	-0.072	-0.387
-222.655	-200.000	0.016	-0.899
-221.640	370.529	-0.400	0.805
-220.625	43.248	0.203	0.184
-219.611	-29.248	0.217	-0.124
-218.596	607.542	-0.226	0.560
-217.582	535.261	0.229	0.539
-216.567	-88.655	0.965	0.285
-215.552	30.561	0.508	-0.431
-214.538	120.702	-0.277	0.342
-213.523	800.000	0.136	-0.423
-212.509	-200.000	-0.014	-0.083
-211.494	-17.289	0.452	-0.282
-210.479	54.261	0.365	0.348
-209.465	-200.000	0.001	0.487
-208.450	163.797	-0.061	0.086
-207.436	-200.000	0.090	-0.436
-206.421	-67.045	-0.554	-0.217
-205.406	26.702	0.784	0.651
-204.392	171.545	-0.275	0.391
-203.377	313.572	0.077	0.144
-202.363	291.338	0.047	0.086
-201.348	101.998	-0.047	-0.055
-200.333	-184.894	0.781	-0.012
-199.319	-88.205	-0.352	0.105
-198.304	-200.000	-0.096	0.465
-197.290	138.282	0.108	-0.140
-196.275	759.842	0.201	0.540
-195.260	4.926	0.359	0.262
-194.246	-200.000	0.092	-0.782
-193.231	13.565	-0.154	0.119
-192.217	-144.120	-0.918	0.085
-191.202	135.719	-0.101	0.130
-190.187	-19.658	0.614	0.377
-189.173	-85.133	-0.791	-0.245
-188.158	4.392	0.516	0.375
-187.144	375.031	0.336	-0.679
-186.129	-200.000	0.004	0.508
-185.114	800.000	-0.156	0.671
-184.100	-75.632	-0.756	0.266
-183.085	-85.630	-0.730	-0.225
-182.071	235.504	0.130	-0.212
-181.056	260.998	0.083	0.142
-180.042	785.070	0.368	-0.999
-179.027	718.466	0.143	-0.376
-178.012	-100.304	-0.222	0.055
-176.998	137.215	-0.212	0.275
-175.983	-200.000	0.062	0.742
-174.969	-19.175	-0.762	0.469
-173.954	-58.196	-0.754	0.325
-172.939	116.870	0.107	0.130
-171.925	-97.127	-0.466	-0.121
-170.910	244.232	-0.164	-0.273
-169.896	203.685	0.277	0.424
-168.881	42.933	-0.351	-0.317
-167.866	1.642	-0.441	-0.314
-166.852	-87.451	0.303	-0.091
-165.837	-103.293	-0.463	0.108
-164.823	-42.794	0.722	0.364
-163.808	800.000	0.230	0.859
-162.793	-178.531	0.492	0.011
-161.779	617.490	0.138	0.344
-160.764	121.181	0.143	0.176
-159.750	-79.209	-0.203	-0.068
-158.735	182.223	-0.318	-0.463
-157.720	47.930	0.622	-0.576
-156.706	-112.953	0.748	0.146
-155.691	-49.324	-0.592	-0.280
-154.677	693.715	-0.189	-0.492
-153.662	85.956	0.074	0.080
-152.647	17.943	-0.435	0.343
-151.633	-97.717	-0.343	0.088
-150.618	-73.612	0.779	0.281
-149.604	74.948	0.565	0.589
-148.589	-200.000	-0.039	0.590
-147.574	800.000	-0.300	-0.949
-146.560	-200.000	-0.003	0.239
-145.545	-200.000	0.009	0.745
-144.531	-118.415	-0.655	0.115
-143.516	-50.093	-0.470	-0.220
-142.502	36.755	-0.071	0.062
-141.487	-200.000	0.073	0.487
-140.472	-64.832	-1.413	0.566
-139.458	661.474	0.185	0.473
-138.443	800.000	0.306	-0.879
-137.429	-46.236	-0.273	-0.133
-136.414	379.023	0.610	1.236
-135.399	-53.170	-0.546	-0.248
-134.385	323.539	0.294	0.554
-133.370	-28.899	-0.450	0.256
-132.356	-13.067	-0.262	0.169
-131.341	216.994	0.610	-0.961
-130.326	374.410	0.128	0.257
-129.312	-200.000	0.139	1.089
-128.297	-200.000	-0.108	-0.549
-127.283	-46.712	-0.200	0.097
-126.268	-200.000	0.173	1.013
-125.253	356.273	0.361	0.712
-124.239	435.525	0.241	-0.518
-123.224	229.346	0.251	-0.404
-122.210	-173.286	0.950	-0.029
-121.195	66.822	-0.499	0.502
-120.180	800.000	-0.109	-0.360
-119.166	86.570	-0.439	-0.479
-118.151	-144.882	-0.930	0.084
-117.137	-200.000	0.075	0.445
-116.122	-140.620	0.175	-0.018
-115.107	132.334	0.534	-0.680
-114.093	167.123	-0.278	0.390
-113.078	-86.810	-0.900	-0.272
-112.064	19.254	0.625	-0.496
-111.049	6.318	-0.372	-0.272
-110.034	-106.516	0.569	0.125
-109.020	-151.983	-0.480	0.035
-108.005	-99.340	0.498	0.124
-106.991	-148.523	-0.363	0.029
-105.976	251.492	-0.145	0.244
-104.962	524.552	-0.199	0.463
-103.947	-200.000	-0.067	0.520
-102.932	25.413	-0.473	0.389
-101.918	261.810	-0.313	-0.535
-100.903	460.980	0.256	0.564
-99.889	-105.017	-0.904	0.205
-98.874	800.000	0.100	0.391
-97.859	225.559	0.340	-0.543
-96.845	164.076	-0.563	-0.784
-95.830	-174.026	0.327	0.009
-94.816	-132.986	-0.275	-0.035
-93.801	-195.350	0.270	-0.002
-92.786	30.843	-0.283	-0.239
-91.772	-5.925	-0.449	0.304
-90.757	67.722	-0.869	0.877
-89.743	22.611	-0.109	0.088
-88.728	-97.540	-0.265	-0.068
-87.713	-149.826	0.773	0.060
-86.699	-156.300	0.381	0.024
-85.684	-200.000	0.085	0.465
-84.670	267.767	0.415	-0.717
-83.655	-173.706	0.651	0.019
-82.640	-40.613	-0.500	-0.256
-81.626	191.798	-0.102	0.152
-80.611	-200.000	0.071	-0.830
-79.597	-200.000	-0.056	-0.672
-78.582	279.544	0.465	-0.820
-77.567	-200.000	0.088	1.138
-76.553	613.985	-0.137	0.338
-75.538	190.237	0.087	0.129
-74.524	-74.475	-0.612	-0.218
-73.509	800.000	0.243	-0.768
-72.494	19.889	-0.529	-0.421
-71.480	-200.000	-0.056	0.369
-70.465	26.833	-0.609	-0.504
-69.451	-108.790	0.430	-0.091
-68.436	494.458	0.219	0.497
-67.422	-200.000	0.029	-0.283
-66.407	127.628	-0.463	-0.580
-65.392	-16.482	-0.295	0.184
-64.378	178.248	0.757	1.090
-63.363	-62.566	-0.453	-0.185
-62.349	-200.000	0.070	-0.805
-61.334	95.768	-1.101	-1.239
-60.319	128.750	-0.367	0.462
-59.305	800.000	-0.306	-1.100
-58.290	466.736	0.277	0.612
-57.276	85.115	1.065	1.152
-56.261	-200.000	96.823	569.708
-55.246	630.179	1375.201	3430.117
-54.232	197.747	2549.472	3839.688
-53.217	116.669	2155.329	2607.088
-52.203	43.746	1702.283	1536.171
-51.188	36.701	1515.806	1319.994
-50.173	34.386	1489.359	1281.378
-49.159	54.275	1541.072	1462.340
-48.144	55.788	1556.545	1487.293
-47.130	36.710	1516.586	1320.527
-46.115	33.754	1501.254	1287.122
-45.100	33.635	1497.589	1283.121
-44.086	33.661	1496.509	1282.322
-43.071	33.514	1494.202	1279.302
-42.057	33.635	1492.538	1278.643
-41.042	33.930	1489.691	1278.136
-40.027	33.617	1489.755	1276.035
-39.013	33.615	1487.807	1274.303
-37.998	33.535	1487.033	1273.048
-36.984	33.517	1486.011	1272.004
-35.969	33.510	1485.009	1271.046
-34.954	33.491	1483.835	1269.870
-33.940	33.556	1482.095	1268.763
-32.925	33.454	1480.624	1266.768
-31.911	33.690	1479.519	1267.350
-30.896	33.375	1478.740	1264.530
-29.881	33.554	1476.591	1263.839
-28.867	33.714	1474.892	1263.396
-27.852	33.806	1474.258	1263.414
-26.838	33.790	1471.608	1260.992
-25.823	33.508	1471.294	1258.798
-24.809	33.616	1469.639	1258.045
-23.794	33.404	1468.343	1255.483
-22.779	33.707	1466.186	1255.596
-21.765	33.570	1465.540	1254.087
-20.750	33.591	1464.734	1253.486
-19.736	33.452	1463.564	1251.514
-18.721	33.507	1462.502	1250.921
-17.706	33.651	1461.634	1251.077
-16.692	33.663	1460.517	1250.150
-15.677	33.462	1459.716	1248.089
-14.663	33.698	1457.535	1247.730
-13.648	33.685	1457.182	1247.292
-12.633	33.444	1456.920	1245.436
-11.619	33.578	1456.536	1245.941
-10.604	33.486	1455.225	1244.162
-9.590	33.529	1453.909	1243.273
-8.575	33.555	1453.260	1242.835
-7.560	33.655	1452.466	1242.763
-6.546	33.612	1450.898	1241.092
-5.531	33.380	1450.779	1239.420
-4.517	33.480	1450.325	1239.638
-3.502	33.313	1448.840	1237.229
-2.487	33.468	1447.998	1237.475
-1.473	33.428	1447.696	1236.906
-0.458	33.337	1446.299	1235.066
0.556	34.415	1435.957	1224.192
1.571	31.076	1410.628	1181.386
2.586	27.721	1350.730	1110.738
3.600	25.849	1269.148	1032.839
4.615	24.216	1222.684	985.911
5.629	20.840	1166.500	922.674
6.644	11.172	1082.444	808.360
7.659	4.228	1040.590	743.813
8.673	2.866	1035.535	733.631
9.688	2.916	1031.912	731.238
10.702	2.874	1030.775	730.165
11.717	3.104	1027.573	728.927
12.731	5.936	1032.597	745.894
13.746	15.510	1045.379	800.930
14.761	23.156	1055.459	845.257
15.775	25.908	1057.442	859.919
16.790	26.378	1056.678	861.463
17.804	25.929	1056.638	859.214
18.819	25.646	1057.194	858.241
19.834	26.050	1055.363	858.598
20.848	25.906	1055.042	857.577
21.863	26.146	1054.155	857.922
22.877	26.059	1054.081	857.373
23.892	26.169	1052.802	856.779
24.907	26.131	1052.327	856.134
25.921	26.294	1051.502	856.163
26.936	26.204	1051.206	855.419
27.950	25.998	1049.870	853.282
28.965	25.995	1049.250	852.687
29.980	25.813	1047.763	850.546
30.994	26.037	1046.978	850.889
32.009	25.826	1046.700	849.590
33.023	26.102	1045.501	849.844
34.038	25.963	1044.308	848.145
35.053	26.143	1042.341	847.317
36.067	25.949	1043.572	847.331
37.082	25.965	1041.987	846.042
38.096	26.060	1041.138	845.728
39.111	26.431	1039.969	846.439
40.126	26.322	1040.329	846.146
41.140	26.268	1038.560	844.378
42.155	26.057	1037.574	842.516
43.169	25.421	1036.645	838.723
44.184	25.774	1035.627	839.469
45.199	25.977	1033.228	838.392
46.213	25.790	1034.053	838.119
47.228	25.794	1031.713	836.167
48.242	26.249	1031.622	838.130
49.257	26.145	1030.291	836.493
50.271	25.775	1030.405	834.798
51.286	26.155	1030.142	836.270
52.301	26.012	1030.084	835.486
53.315	25.939	1029.319	834.453
54.330	25.997	1027.649	833.296
55.344	25.776	1027.549	832.117
56.359	26.154	1025.246	831.921
57.374	25.999	1025.546	831.377
58.388	25.977	1024.383	830.261
59.403	26.187	1022.434	829.573
60.417	25.757	1022.928	827.922
61.432	25.565	1022.653	826.744
62.447	25.886	1020.909	826.736
63.461	26.219	1020.255	827.656
64.476	25.936	1019.179	825.414
65.490	25.856	1018.982	824.816
66.505	25.914	1018.312	824.466
67.520	25.789	1016.990	822.755
68.534	26.089	1016.105	823.335
69.549	25.875	1015.743	821.993
70.563	25.173	1014.147	817.431
71.578	25.730	1012.765	818.776
72.593	25.454	1013.439	817.992
73.607	25.281	1012.517	816.390
74.622	25.493	1011.374	816.361
75.636	25.552	1010.374	815.745
76.651	25.369	1010.834	815.215
77.666	25.775	1007.883	814.599
78.680	25.567	1008.154	813.809
79.695	25.445	1008.016	813.070
80.709	25.458	1007.527	812.661
81.724	25.536	1005.928	811.654
82.739	25.922	1004.720	812.346
83.753	25.558	1004.620	810.553
84.768	25.906	1004.148	811.669
85.782	26.260	1003.009	812.266
86.797	26.528	1003.066	813.448
87.812	26.530	1001.911	812.448
88.826	26.280	1000.641	810.227
89.841	26.235	1001.107	810.327
90.855	26.300	999.526	809.269
91.870	26.456	998.788	809.297
92.884	26.477	998.350	808.965
93.899	26.323	996.756	806.915
94.914	26.180	996.275	805.816
95.928	26.596	995.088	806.639
96.943	26.160	995.095	804.631
97.957	26.069	993.631	802.969
98.972	25.835	992.720	801.120
99.987	25.643	991.876	799.515
101.001	25.939	990.697	799.807
102.016	25.656	991.785	799.358
103.030	26.169	989.879	800.024
104.045	26.142	988.541	798.756
105.060	25.935	988.476	797.715
106.074	25.644	986.725	794.946
107.089	25.849	985.591	794.870
108.103	26.117	986.042	796.344
109.118	26.349	983.946	795.601
110.133	25.955	983.356	793.320
111.147	25.862	982.127	791.851
112.162	25.574	981.202	789.768
113.176	25.934	979.340	789.780
114.191	25.589	979.918	788.662
115.206	25.906	977.964	788.405
116.220	25.562	977.185	786.208
117.235	25.264	977.013	784.696
118.249	25.321	976.987	784.852
119.264	25.746	975.015	785.052
120.279	25.250	974.858	782.694
121.293	25.583	974.058	783.432
122.308	25.747	973.943	783.987
123.322	25.650	972.903	782.660
124.337	25.497	971.278	780.617
125.352	25.323	970.116	778.861
126.366	25.036	969.332	776.915
127.381	25.245	965.988	775.070
128.395	24.964	969.064	776.252
129.410	25.852	966.959	778.338
130.424	25.923	966.896	778.524
131.439	25.840	966.562	777.827
132.454	26.241	964.913	778.160
133.468	25.905	963.957	775.874
134.483	26.086	962.948	775.770
135.497	26.205	962.576	775.915
136.512	26.073	962.229	775.000
137.527	26.394	961.318	775.575
138.541	26.274	960.317	774.181
139.556	26.120	960.710	773.772
140.570	26.282	958.839	772.889
141.585	26.197	957.576	771.440
142.600	26.239	957.753	771.691
143.614	26.301	956.559	770.925
144.629	26.333	955.776	770.362
145.643	26.672	954.472	770.685
146.658	26.578	954.346	770.117
147.673	26.546	952.678	768.569
148.687	25.974	952.673	766.067
149.702	26.094	951.076	765.223
150.716	26.152	949.737	764.324
151.731	26.019	949.584	763.569
152.746	26.132	948.109	762.793
153.760	26.147	947.716	762.475
154.775	26.519	947.097	763.478
155.789	26.449	946.629	762.736
156.804	26.656	945.454	762.596
157.819	26.267	944.296	759.960
158.833	26.395	943.631	759.892
159.848	26.611	942.944	760.179
160.862	26.699	941.925	759.658
161.877	26.286	941.146	757.235
162.892	26.201	940.288	756.121
163.906	26.742	939.672	757.824
164.921	26.143	939.395	755.027
165.935	26.225	938.250	754.380
166.950	26.456	936.296	753.706
167.964	26.538	935.670	753.480
168.979	26.578	934.190	752.386
169.994	26.446	934.138	751.731
171.008	26.128	932.297	748.863
172.023	26.137	932.466	748.970
173.037	26.519	932.055	750.158
174.052	26.562	930.362	748.905
175.067	26.130	930.035	746.790
176.081	26.113	928.747	745.620
177.096	26.158	927.800	744.979
178.110	26.101	927.080	744.099
179.125	26.078	926.207	743.236
180.140	25.814	924.768	740.930
181.154	25.891	924.045	740.601
182.169	26.017	924.285	741.245
183.183	26.263	923.963	741.933
184.198	26.396	923.513	742.053
185.213	26.627	922.310	741.967
186.227	26.259	921.630	739.847
187.242	26.365	921.963	740.484
188.256	26.416	920.788	739.685
189.271	26.121	920.973	738.557
190.286	26.576	919.548	739.208
191.300	26.274	917.614	736.359
192.315	25.741	917.450	733.991
193.329	25.103	915.376	729.669
194.344	24.568	914.555	726.774
195.359	25.017	915.407	729.214
196.373	26.214	914.902	733.614
197.388	26.647	915.059	735.435
198.402	26.587	914.155	734.399
199.417	26.002	914.563	732.285
200.432	26.265	913.481	732.420
201.446	26.681	912.376	733.153
202.461	25.970	912.129	730.013
203.475	26.181	911.152	730.020
204.490	25.618	909.870	726.655
205.504	24.513	908.221	720.817
206.519	24.916	907.773	722.022
207.534	25.821	908.089	725.856
208.548	26.072	907.479	726.316
209.563	26.286	908.265	727.743
210.577	26.169	907.022	726.215
211.592	25.863	906.534	724.528
212.607	26.687	906.499	727.748
213.621	26.767	905.409	727.129
214.636	26.413	905.296	725.553
215.650	26.635	903.917	725.272
216.665	26.106	904.526	723.578
217.680	26.425	904.506	724.774
218.694	26.644	903.099	724.459
219.709	26.250	902.392	722.253
220.723	26.071	900.643	720.078
221.738	26.117	900.893	720.395
222.753	26.399	899.935	720.692
223.767	26.394	898.755	719.663
224.782	26.543	899.021	720.406
225.796	27.004	898.259	721.562
226.811	26.635	898.154	719.948
227.826	26.432	896.293	717.585
228.840	25.170	896.394	712.596
229.855	25.359	895.236	712.361
230.869	25.486	894.183	711.963
231.884	25.369	893.245	710.689
232.899	25.640	891.911	710.634
233.913	25.681	893.603	712.081
234.928	26.133	892.065	712.579
235.942	26.137	890.955	711.646
236.957	26.338	891.071	712.468
237.972	25.993	890.971	710.966
238.986	25.977	889.715	709.837
240.001	25.685	889.113	708.147
241.015	25.695	889.170	708.166
242.030	26.141	887.718	708.698
243.045	26.415	886.636	708.845
244.059	26.375	886.969	708.892
245.074	26.261	886.217	707.783
246.088	26.529	885.832	708.462
247.103	26.294	884.007	706.020
248.117	26.343	884.555	706.587
249.132	26.536	884.172	706.974
250.147	26.859	884.591	708.507
251.161	27.071	883.365	708.290
252.176	27.213	883.672	709.026
253.190	27.296	882.149	708.065
254.205	27.588	881.226	708.397
255.220	27.378	882.030	708.164
256.234	27.507	880.370	707.270
257.249	27.384	879.963	706.404
258.263	27.200	879.976	705.635
259.278	27.013	879.653	704.588
260.293	27.014	879.302	704.252
261.307	27.249	878.758	704.664
262.322	27.471	876.833	703.914
263.336	27.372	876.321	703.060
264.351	26.758	875.340	699.842
265.366	25.455	873.277	693.108
266.380	25.126	873.881	692.254
267.395	26.175	873.113	695.628
268.409	26.934	872.584	698.067
269.424	26.963	872.393	697.963
270.439	27.471	871.344	699.013
271.453	27.154	870.995	697.454
272.468	27.408	870.335	697.840
273.482	27.075	871.109	697.119
274.497	26.981	870.849	696.489
275.512	27.149	869.214	695.764
276.526	26.413	867.584	691.584
277.541	27.019	866.741	693.165
278.555	27.149	867.222	693.985
279.570	26.931	866.703	692.677
280.585	26.651	865.856	690.871
281.599	26.844	865.288	691.092
282.614	26.992	864.868	691.256
283.628	26.350	863.772	687.878
284.643	26.132	863.052	686.417
285.657	26.519	862.910	687.711
286.672	26.283	862.471	686.405
287.687	26.048	861.459	684.648
288.701	26.269	861.129	685.162
289.716	26.513	861.032	685.951
290.730	26.525	860.658	685.638
291.745	26.659	859.569	685.214
292.760	26.233	858.667	682.825
293.774	26.390	858.165	682.958
294.789	26.874	858.485	684.982
295.803	27.588	858.122	687.323
296.818	27.680	857.596	687.190
297.833	27.710	857.529	687.188
298.847	27.197	856.408	684.298
299.862	26.903	855.096	682.086
300.876	27.133	855.690	683.362
301.891	27.449	855.252	684.142
302.906	27.653	854.329	684.105
303.920	27.318	853.522	682.144
304.935	27.174	853.147	681.244
305.949	27.024	852.751	680.307
306.964	27.699	852.270	682.388
307.979	27.493	851.024	680.561
308.993	27.459	850.877	680.255
310.008	27.558	850.758	680.473
311.022	27.931	849.332	680.659
312.037	27.774	849.309	679.997
313.052	27.413	849.120	678.441
314.066	27.183	848.805	677.273
315.081	26.318	846.525	672.178
316.095	25.745	844.901	668.702
317.110	26.332	845.613	671.387
318.125	27.398	845.221	674.971
319.139	26.533	845.487	671.912
320.154	25.760	842.614	666.708
321.168	25.364	842.589	665.166
322.183	26.098	842.185	667.504
323.197	26.191	843.081	668.499
324.212	27.066	841.835	670.685
325.227	27.297	841.848	671.488
326.241	27.092	842.197	670.948
327.256	27.203	840.120	669.642
328.270	27.006	840.272	668.981
329.285	26.995	839.939	668.617
330.300	26.536	839.791	666.749
331.314	26.547	838.287	665.535
332.329	26.707	837.634	665.545
333.343	27.012	837.513	666.511
334.358	27.219	837.313	667.051
335.373	27.414	836.704	667.222
336.387	26.965	836.765	665.566
337.402	27.646	836.121	667.491
338.416	27.936	835.167	667.728
339.431	27.788	835.108	667.083
340.446	27.798	834.179	666.318
341.460	27.616	834.121	665.547
342.475	27.877	833.707	666.111
343.489	27.871	832.539	665.097
344.504	27.808	832.151	664.499
345.519	28.000	831.692	664.772
346.533	28.224	832.077	665.835
347.548	28.224	831.139	665.027
348.562	28.275	830.863	664.931
349.577	28.152	830.083	663.802
350.592	28.168	829.508	663.341
351.606	27.861	829.544	662.196
352.621	28.013	828.441	661.810
353.635	27.959	828.424	661.540
354.650	27.994	827.337	660.741
355.665	27.593	826.754	658.767
356.679	26.356	825.602	653.324
357.694	26.383	824.662	652.621
358.708	26.937	824.396	654.350
359.723	27.447	822.901	654.940
360.738	27.504	823.243	655.360
361.752	27.715	822.817	655.723
362.767	27.725	823.395	656.159
363.781	28.032	823.660	657.416
364.796	28.737	822.413	658.896
365.810	28.178	822.618	656.993
366.825	28.556	822.497	658.195
367.840	28.853	821.117	658.095
368.854	28.125	821.948	656.096
369.869	28.083	820.953	655.092
370.883	27.842	819.395	652.929
371.898	27.833	819.286	652.753
372.913	27.944	818.697	652.622
373.927	27.869	818.505	652.144
374.942	28.237	817.104	652.281
375.956	27.946	816.965	651.075
376.971	28.394	816.313	652.094
377.986	28.448	815.063	651.227
379.000	28.368	815.292	651.070
380.015	28.426	815.548	651.423
381.029	28.263	814.268	649.763
382.044	28.409	814.167	650.144
383.059	28.797	812.229	649.912
384.073	28.651	812.340	649.427
385.088	28.479	812.185	648.636
386.102	28.178	811.927	647.307
387.117	28.380	810.690	646.977
388.132	28.128	810.269	645.694
389.146	27.828	810.824	645.022
390.161	27.356	808.961	641.818
391.175	27.665	808.509	642.491
392.190	28.678	807.431	645.139
393.205	28.223	808.040	643.967
394.219	27.178	805.352	638.103
395.234	25.757	803.692	631.748
396.248	24.566	803.593	627.435
397.263	25.906	804.336	632.665
398.278	27.422	805.685	638.998
399.292	28.240	805.342	641.537
400.307	27.680	805.123	639.345
401.321	27.576	803.671	637.768
402.336	27.838	803.447	638.452
403.350	28.090	803.265	639.131
404.365	28.562	803.992	641.303
405.380	29.030	802.792	641.924
406.394	29.147	803.039	642.471
407.409	29.526	802.267	643.118
408.423	29.221	802.495	642.180
409.438	29.418	800.315	641.063
410.453	29.157	800.977	640.630
411.467	29.189	801.383	641.008
412.482	29.365	800.109	640.545
413.496	29.315	799.698	639.988
414.511	29.322	799.093	639.467
415.526	29.145	798.906	638.648
416.540	28.874	798.981	637.715
417.555	29.185	798.676	638.491
418.569	28.771	796.905	635.588
419.584	28.829	796.819	635.661
420.599	29.072	795.751	635.593
421.613	159.598	1368.785	1793.807
422.628	138.388	1452.290	1793.864
