DTS Sentinel unit serial number:	SN413079Multiplexer serial number:	ORYXHardware model number:	OX4-SRSoftware version number:	ORYX F/W v4.00 Oryx Data Collector v3.7.2.0data status	okinstallation	princeton_trtdifferential loss correction	single-endedforward channel	channel 3reverse channel	N/Adate	2019/09/12time	11:18:11forward acquisition time	60.00reverse acquisition time	0.00gamma	496.2192k internal	0.2295k external	0.2295temperature offset calibration	1.0037default loss term (dB/km)	0.3790temperature slope calibration	1.0000multiplexer offset coefficient	1.0000multiplexer slope coefficient	1.0000fibre end	0.00T internal ref (°C)	39.00T ext. ref 1 (°C)	1.96T ext. ref 2 (°C)	36.35length (m)	temperature (°C)	Stokes	anti-Stokes-747.200	-64.747	-0.120	0.050
-746.185	12.316	-0.151	0.119
-745.171	-200.000	0.052	0.386
-744.156	-138.059	0.433	-0.049
-743.142	-42.139	-0.172	-0.090
-742.127	800.000	0.044	0.190
-741.112	514.348	0.031	-0.074
-740.098	-200.000	0.144	0.743
-739.083	-200.000	-0.045	0.359
-738.069	-200.000	0.060	0.304
-737.054	-133.744	0.111	0.014
-736.039	347.555	0.079	-0.160
-735.025	-92.019	-0.209	0.060
-734.010	407.640	-0.080	0.173
-732.996	-56.419	-0.076	-0.034
-731.981	-145.941	-0.180	-0.016
-730.966	-147.421	0.085	-0.007
-729.952	800.000	-0.065	-0.219
-728.937	126.633	-0.027	0.035
-727.923	-113.028	-0.141	-0.028
-726.908	-200.000	0.008	-0.037
-725.894	449.666	0.250	0.563
-724.879	-68.633	-0.411	-0.162
-723.864	-64.673	0.248	0.103
-722.850	-198.399	-0.085	-0.000
-721.835	-88.459	0.170	0.052
-720.821	-0.940	0.205	-0.148
-719.806	63.201	0.120	-0.122
-718.791	571.383	0.071	-0.177
-717.777	74.065	0.038	0.041
-716.762	-200.000	0.014	-0.192
-715.748	800.000	-0.111	-0.321
-714.733	-156.524	0.560	0.036
-713.718	128.888	-0.088	-0.114
-712.704	122.773	0.070	-0.089
-711.689	800.000	-0.058	-0.207
-710.675	-200.000	-0.003	0.152
-709.660	-200.000	-0.053	-0.310
-708.645	-67.299	0.336	-0.135
-707.631	357.212	0.115	0.234
-706.616	140.717	-0.154	-0.208
-705.602	486.218	0.088	-0.205
-704.587	97.435	-0.089	-0.104
-703.572	-100.777	0.403	0.101
-702.558	101.783	0.160	0.190
-701.543	117.451	-0.094	-0.118
-700.529	800.000	-0.030	0.107
-699.514	35.398	0.155	-0.138
-698.499	-200.000	0.015	0.209
-697.485	275.689	-0.066	0.120
-696.470	800.000	0.044	-0.165
-695.456	156.165	0.082	0.116
-694.441	207.768	0.184	-0.293
-693.426	-200.000	0.003	0.014
-692.412	-111.061	-0.159	-0.033
-691.397	201.907	-0.102	-0.160
-690.383	-84.725	-0.276	-0.089
-689.368	219.199	0.222	0.362
-688.354	-200.000	-0.019	-0.358
-687.339	66.208	-0.068	0.070
-686.324	107.748	-0.225	-0.273
-685.310	138.972	-0.072	-0.096
-684.295	-200.000	0.043	-0.244
-683.281	-200.000	0.028	-0.131
-682.266	87.788	0.076	0.086
-681.251	595.895	0.120	0.304
-680.237	800.000	-0.098	0.320
-679.222	-6.679	0.316	0.219
-678.208	-136.780	0.136	0.016
-677.193	83.208	-0.095	0.105
-676.178	-43.978	0.083	-0.043
-675.164	120.552	-0.206	-0.261
-674.149	800.000	0.050	-0.198
-673.135	46.366	0.067	0.063
-672.120	-200.000	0.036	0.254
-671.105	32.050	0.296	0.260
-670.091	163.744	0.085	0.121
-669.076	91.473	0.113	-0.130
-668.062	-122.400	-0.297	0.049
-667.047	-105.403	-0.151	0.035
-666.032	-200.000	-0.005	0.235
-665.018	40.344	0.099	-0.090
-664.003	800.000	-0.032	0.126
-662.989	-90.298	-0.208	0.061
-661.974	-200.000	0.037	0.211
-660.959	490.937	-0.067	0.157
-659.945	610.001	0.032	-0.082
-658.930	4.502	0.219	-0.164
-657.916	24.645	-0.088	-0.074
-656.901	84.372	-0.107	0.119
-655.886	-20.828	-0.141	-0.088
-654.872	-200.000	-0.016	-0.312
-653.857	800.000	-0.010	0.041
-652.843	91.648	0.001	0.002
-651.828	218.846	0.121	0.198
-650.814	133.789	0.085	0.111
-649.799	553.898	0.091	0.223
-648.784	-134.202	-0.233	-0.029
-647.770	-200.000	-0.026	-0.175
-646.755	130.840	-0.191	-0.250
-645.741	-200.000	-0.029	0.172
-644.726	-0.206	-0.207	-0.150
-643.711	-200.000	-0.021	-0.147
-642.697	-4.885	0.236	-0.165
-641.682	-35.950	-0.076	0.042
-640.668	-22.987	0.137	-0.084
-639.653	118.643	-0.053	0.066
-638.638	800.000	-0.038	0.116
-637.624	-91.715	-0.207	0.060
-636.609	-200.000	0.110	-0.559
-635.595	-200.000	-0.044	-0.228
-634.580	-28.444	0.293	-0.172
-633.565	103.642	0.143	-0.171
-632.551	-200.000	0.074	-0.349
-631.536	-84.763	0.197	0.063
-630.522	64.420	-0.152	-0.156
-629.507	35.202	-0.249	-0.222
-628.492	332.122	0.234	-0.460
-627.478	0.629	0.210	-0.153
-626.463	-151.857	0.088	0.007
-625.449	8.179	0.159	-0.122
-624.434	37.391	-0.174	-0.157
-623.419	-200.000	-0.007	0.188
-622.405	139.451	0.119	-0.160
-621.390	-114.728	-0.196	0.038
-620.376	789.111	0.041	0.116
-619.361	-56.399	0.092	-0.042
-618.346	170.254	-0.066	0.095
-617.332	-11.817	-0.127	0.085
-616.317	318.621	0.058	0.111
-615.303	-147.321	-0.243	-0.021
-614.288	70.137	-0.060	0.063
-613.273	-200.000	0.084	0.434
-612.259	800.000	-0.026	0.085
-611.244	-78.200	-0.186	0.065
-610.230	-20.144	-0.106	-0.067
-609.215	9.385	-0.131	-0.101
-608.201	330.436	0.127	-0.249
-607.186	-15.340	0.090	-0.059
-606.171	-10.261	-0.101	-0.068
-605.157	72.964	-0.151	-0.161
-604.142	-73.104	-0.261	-0.097
-603.128	-77.902	-0.310	-0.109
-602.113	151.104	-0.042	-0.058
-601.098	-200.000	-0.054	-0.240
-600.084	-200.000	-0.004	0.049
-599.069	717.687	0.078	0.210
-598.055	4.684	-0.226	0.168
-597.040	800.000	0.040	0.166
-596.025	69.593	-0.018	-0.019
-595.011	39.783	-0.357	0.326
-593.996	800.000	-0.050	0.170
-592.982	800.000	-0.119	-0.392
-591.967	457.561	0.062	-0.139
-590.952	153.928	-0.087	0.121
-589.938	-117.566	0.035	0.006
-588.923	-200.000	0.002	0.181
-587.909	-130.751	0.063	0.009
-586.894	237.717	0.164	-0.277
-585.879	425.852	0.026	0.057
-584.865	-191.301	-0.277	-0.003
-583.850	453.647	-0.095	0.214
-582.836	4.993	0.260	-0.194
-581.821	-125.795	-0.040	0.006
-580.806	401.474	-0.018	0.039
-579.792	-200.000	0.006	-0.107
-578.777	800.000	0.040	0.139
-577.763	-162.903	0.303	-0.015
-576.748	-60.746	0.196	0.084
-575.733	-111.855	-0.213	0.044
-574.719	157.803	0.040	-0.057
-573.704	97.191	0.091	-0.107
-572.690	131.647	0.113	-0.147
-571.675	-141.950	-0.431	0.044
-570.661	-68.221	-0.180	-0.071
-569.646	-136.171	-0.114	-0.014
-568.631	-34.044	-0.183	0.102
-567.617	-126.139	-0.103	0.016
-566.602	-124.450	-0.357	0.056
-565.588	42.438	0.321	0.296
-564.573	-17.774	-0.173	0.110
-563.558	800.000	0.058	0.212
-562.544	-103.885	-0.306	-0.072
-561.529	-200.000	-0.069	-0.327
-560.515	93.021	0.203	0.233
-559.500	-90.959	-0.215	0.063
-558.485	-200.000	0.008	0.191
-557.471	104.169	-0.116	0.138
-556.456	-8.783	-0.425	-0.289
-555.442	32.263	-0.156	-0.137
-554.427	88.858	-0.037	-0.042
-553.412	12.100	-0.129	0.101
-552.398	800.000	-0.058	0.165
-551.383	-119.921	0.269	-0.047
-550.369	80.832	-0.035	-0.038
-549.354	0.135	0.237	-0.172
-548.339	194.594	0.240	-0.370
-547.325	-147.144	-0.344	-0.030
-546.310	-28.380	-0.114	-0.066
-545.296	800.000	0.088	0.377
-544.281	-165.069	0.183	0.008
-543.266	20.709	0.406	0.334
-542.252	173.932	0.244	0.357
-541.237	-57.323	-0.150	-0.067
-540.223	-18.379	-0.096	-0.061
-539.208	-200.000	-0.059	-0.326
-538.193	-82.574	-0.237	0.078
-537.179	75.397	-0.177	0.189
-536.164	-79.825	0.077	0.026
-535.150	-19.120	-0.181	0.114
-534.135	-200.000	-0.024	0.213
-533.121	202.700	0.038	0.060
-532.106	14.815	0.194	-0.154
-531.091	-133.339	-0.230	0.029
-530.077	71.426	0.238	-0.250
-529.062	-47.439	-0.149	0.073
-528.048	24.451	0.232	0.194
-527.033	-8.730	0.063	0.043
-526.018	139.610	0.163	0.218
-525.004	-73.462	-0.166	0.061
-523.989	277.832	0.228	0.411
-522.975	-144.630	-0.288	0.027
-521.960	-65.979	-0.295	-0.119
-520.945	-127.391	-0.201	-0.030
-519.931	-45.439	-0.204	0.103
-518.916	-128.415	0.190	-0.027
-517.902	71.383	-0.084	-0.089
-516.887	-57.924	0.150	0.066
-515.872	314.371	0.058	-0.111
-514.858	-3.295	-0.133	-0.094
-513.843	504.335	0.181	0.424
-512.829	-88.199	-0.062	-0.019
-511.814	-59.193	-0.178	-0.078
-510.799	147.805	0.107	0.146
-509.785	344.010	0.118	-0.235
-508.770	-200.000	0.039	0.273
-507.756	800.000	-0.109	-0.346
-506.741	-200.000	-0.011	-0.172
-505.726	4.784	-0.108	0.080
-504.712	85.902	-0.336	0.375
-503.697	-200.000	-0.018	-0.127
-502.683	-12.184	0.045	-0.030
-501.668	800.000	-0.050	0.147
-500.653	-3.441	-0.079	0.056
-499.639	21.012	0.040	-0.033
-498.624	42.281	0.199	0.183
-497.610	125.581	-0.029	0.037
-496.595	-20.808	-0.241	0.150
-495.581	-99.625	-0.177	0.045
-494.566	-200.000	-0.003	-0.208
-493.551	-200.000	0.392	0.002
-492.537	-85.057	0.104	0.033
-491.522	-138.996	-0.072	-0.008
-490.508	-45.516	-0.436	0.218
-489.493	-200.000	-0.009	0.102
-488.478	-137.971	0.108	0.012
-487.464	-58.285	-0.022	-0.010
-486.449	-156.429	-0.090	0.006
-485.435	-150.178	0.168	0.013
-484.420	170.419	-0.164	0.238
-483.405	-87.670	0.122	0.037
-482.391	90.319	-0.126	0.143
-481.376	170.662	0.207	0.300
-480.362	3.475	0.332	-0.245
-479.347	-200.000	-0.010	-0.072
-478.332	800.000	-0.110	-0.436
-477.318	104.439	0.083	0.099
-476.303	-54.748	-0.102	-0.047
-475.289	-200.000	-0.084	-0.372
-474.274	457.263	0.087	0.197
-473.259	179.641	-0.137	0.203
-472.245	72.891	0.319	-0.337
-471.230	97.745	0.235	-0.273
-470.216	-200.000	-0.016	0.078
-469.201	-86.748	0.201	-0.062
-468.186	-121.554	-0.056	0.009
-467.172	-200.000	-0.046	-0.208
-466.157	-200.000	0.011	-0.358
-465.143	-123.502	-0.240	-0.039
-464.128	39.920	-0.200	-0.181
-463.113	800.000	-0.022	-0.081
-462.099	-119.196	-0.448	0.079
-461.084	800.000	0.091	0.255
-460.070	-134.261	0.194	0.024
-459.055	-193.373	0.174	-0.002
-458.040	-100.146	-0.221	0.056
-457.026	434.016	-0.053	0.117
-456.011	-182.031	-0.409	-0.008
-454.997	386.080	-0.098	-0.205
-453.982	-65.928	0.243	0.098
-452.968	-30.018	0.200	0.115
-451.953	-55.255	-0.361	0.164
-450.938	-200.000	0.028	-0.182
-449.924	800.000	-0.060	0.198
-448.909	-200.000	-0.036	-0.447
-447.895	80.946	0.177	0.193
-446.880	223.315	-0.049	0.079
-445.865	59.655	-0.141	-0.141
-444.851	91.563	0.085	0.097
-443.836	38.169	0.174	-0.156
-442.822	315.214	0.048	0.091
-441.807	58.417	0.247	-0.245
-440.792	-72.321	-0.043	0.016
-439.778	311.665	-0.089	0.169
-438.763	-71.032	0.123	0.047
-437.749	-200.000	-0.005	-0.037
-436.734	10.835	0.174	0.134
-435.719	-91.488	-0.413	0.119
-434.705	701.143	0.200	-0.533
-433.690	-21.497	-0.205	-0.126
-432.676	-77.457	-0.110	-0.038
-431.661	-80.746	-0.176	0.059
-430.646	-200.000	-0.027	0.192
-429.632	483.462	0.182	0.417
-428.617	-5.714	-0.282	-0.195
-427.603	137.670	-0.196	-0.259
-426.588	16.611	0.176	0.140
-425.573	30.543	-0.127	-0.110
-424.559	186.202	-0.011	-0.017
-423.544	-200.000	0.024	0.169
-422.530	23.686	-0.228	0.189
-421.515	91.541	0.105	-0.119
-420.500	470.057	0.037	-0.084
-419.486	-200.000	0.012	0.225
-418.471	-193.021	0.498	-0.005
-417.457	-97.805	-0.126	0.033
-416.442	112.654	0.129	0.158
-415.428	64.952	-0.238	0.242
-414.413	-104.901	0.282	-0.065
-413.398	-91.072	0.140	-0.041
-412.384	395.569	-0.119	-0.250
-411.369	-7.872	-0.430	0.293
-410.355	-160.785	0.146	0.008
-409.340	-39.059	0.383	-0.203
-408.325	-55.225	0.194	0.088
-407.311	82.177	-0.121	0.132
-406.296	120.858	-0.160	-0.201
-405.282	-40.398	0.272	-0.142
-404.267	800.000	0.022	0.078
-403.252	-72.013	0.241	0.091
-402.238	-46.887	0.192	-0.095
-401.223	290.120	0.126	0.231
-400.209	800.000	0.076	0.310
-399.194	-192.272	0.290	-0.003
-398.179	-186.824	-0.396	0.006
-397.165	-82.116	-0.201	-0.066
-396.150	800.000	0.094	0.379
-395.136	24.084	0.175	0.145
-394.121	-53.200	0.265	-0.123
-393.106	-200.000	0.003	0.107
-392.092	-106.454	-0.066	0.015
-391.077	-136.777	0.160	0.019
-390.063	-57.574	-0.111	-0.049
-389.048	256.825	0.153	-0.264
-388.033	214.101	0.017	-0.028
-387.019	498.734	-0.108	-0.251
-386.004	-82.697	0.144	-0.047
-384.990	49.112	-0.112	-0.106
-383.975	-97.843	-0.133	0.035
-382.960	-200.000	-0.010	-0.062
-381.946	-17.654	0.119	0.075
-380.931	800.000	-0.015	-0.061
-379.917	-200.000	-0.029	0.255
-378.902	800.000	-0.073	-0.317
-377.888	-200.000	-0.003	-0.354
-376.873	-55.432	0.389	-0.176
-375.858	189.562	-0.137	-0.206
-374.844	34.536	0.156	-0.137
-373.829	430.024	-0.039	-0.085
-372.815	-106.392	-0.121	-0.027
-371.800	372.130	-0.049	-0.100
-370.785	-32.644	0.134	0.075
-369.771	253.156	0.119	-0.204
-368.756	24.042	0.372	-0.309
-367.742	-174.115	-0.496	-0.015
-366.727	216.904	-0.014	-0.022
-365.712	-200.000	0.025	0.262
-364.698	68.060	-0.057	-0.059
-363.683	-55.600	0.144	-0.065
-362.669	-200.000	0.010	0.156
-361.654	-88.559	0.127	-0.038
-360.639	-23.049	-0.303	-0.184
-359.625	154.801	-0.078	-0.108
-358.610	57.898	0.159	0.156
-357.596	-7.469	0.085	0.058
-356.581	382.843	0.011	0.023
-355.566	39.045	-0.206	-0.185
-354.552	-122.891	-0.201	-0.033
-353.537	800.000	0.094	0.370
-352.523	75.410	-0.071	-0.075
-351.508	-200.000	0.027	-0.183
-350.493	-200.000	0.026	0.194
-349.479	72.264	0.183	-0.192
-348.464	-15.628	-0.267	0.171
-347.450	-127.758	-0.277	-0.040
-346.435	6.703	0.165	-0.124
-345.420	-66.374	0.315	0.126
-344.406	-120.172	0.465	0.080
-343.391	5.660	-0.175	-0.130
-342.377	120.654	0.106	-0.133
-341.362	179.713	0.089	-0.132
-340.348	800.000	-0.059	-0.215
-339.333	-200.000	0.058	-0.306
-338.318	-11.588	-0.160	-0.106
-337.304	-39.468	-0.151	-0.080
-336.289	148.153	0.294	0.399
-335.275	30.550	-0.153	0.132
-334.260	800.000	0.013	0.040
-333.245	451.065	0.068	0.150
-332.231	57.880	0.068	-0.067
-331.216	-200.000	-0.010	0.066
-330.202	-108.853	0.244	0.053
-329.187	-48.763	-0.186	-0.090
-328.172	-10.504	-0.238	-0.159
-327.158	-200.000	-0.002	0.175
-326.143	232.394	-0.104	0.172
-325.129	767.457	-0.054	-0.147
-324.114	-200.000	-0.065	0.383
-323.099	-200.000	-0.058	0.372
-322.085	-200.000	0.022	0.100
-321.070	125.573	0.136	0.173
-320.056	-200.000	-0.075	-0.460
-319.041	800.000	-0.218	0.689
-318.026	-50.986	0.107	0.050
-317.012	47.145	0.111	-0.104
-315.997	800.000	0.028	-0.103
-314.983	99.835	-0.180	-0.209
-313.968	-124.435	0.187	-0.029
-312.953	361.736	0.084	-0.170
-311.939	-200.000	0.025	-0.158
-310.924	441.350	-0.110	0.242
-309.910	800.000	-0.008	0.023
-308.895	-137.548	-0.074	-0.008
-307.880	-33.019	-0.351	-0.196
-306.866	-141.733	0.161	0.016
-305.851	231.088	-0.126	0.208
-304.837	444.922	0.067	-0.147
-303.822	-129.308	0.226	-0.032
-302.807	95.859	-0.091	0.105
-301.793	210.828	-0.208	0.328
-300.778	-7.390	0.066	0.045
-299.764	-200.000	0.002	0.059
-298.749	-24.413	0.133	0.080
-297.735	-65.185	0.298	0.121
-296.720	-166.295	-0.132	0.006
-295.705	108.597	-0.026	-0.031
-294.691	-38.351	-0.041	-0.022
-293.676	-110.322	-0.244	0.051
-292.662	800.000	0.092	-0.313
-291.647	128.386	-0.122	0.156
-290.632	-81.221	0.328	-0.109
-289.618	-186.411	-0.079	-0.001
-288.603	-2.187	-0.129	-0.091
-287.589	215.537	-0.096	0.152
-286.574	800.000	-0.022	0.092
-285.559	-84.417	-0.342	-0.108
-284.545	-33.250	-0.252	0.140
-283.530	542.352	-0.036	0.086
-282.516	-171.873	0.088	-0.003
-281.501	143.956	-0.066	0.088
-280.486	-136.324	-0.395	-0.046
-279.472	-104.829	-0.191	-0.044
-278.457	257.098	-0.023	0.040
-277.443	-114.878	0.116	-0.022
-276.428	58.199	-0.160	-0.157
-275.413	177.799	-0.093	0.136
-274.399	323.664	-0.197	-0.378
-273.384	-161.018	0.411	-0.022
-272.370	-166.306	-0.198	-0.008
-271.355	445.392	0.056	-0.123
-270.340	97.105	-0.158	-0.181
-269.326	263.352	0.075	0.131
-268.311	-200.000	-0.014	-0.352
-267.297	-200.000	-0.041	-0.221
-266.282	321.653	0.128	0.244
-265.267	2.923	-0.266	0.194
-264.253	23.088	-0.186	-0.153
-263.238	674.687	-0.069	-0.180
-262.224	-200.000	0.030	-0.152
-261.209	-194.121	0.049	-0.000
-260.195	43.640	-0.238	0.219
-259.180	-31.342	0.347	0.196
-258.165	-39.081	0.173	-0.091
-257.151	-1.343	0.099	-0.070
-256.136	-200.000	0.014	-0.214
-255.122	265.763	-0.077	0.134
-254.107	189.121	0.052	-0.078
-253.092	10.271	-0.090	-0.068
-252.078	115.150	0.183	0.224
-251.063	800.000	0.017	0.067
-250.049	-119.263	-0.205	0.036
-249.034	338.121	-0.053	0.104
-248.019	-17.403	0.250	0.158
-247.005	-6.134	-0.206	0.141
-245.990	107.500	-0.263	0.314
-244.976	2.073	0.299	0.217
-243.961	5.991	-0.043	0.032
-242.946	800.000	-0.049	-0.136
-241.932	80.342	0.056	-0.060
-240.917	-31.217	0.068	-0.039
-239.903	687.297	0.140	0.367
-238.888	95.008	0.095	0.109
-237.873	200.579	0.119	0.184
-236.859	-164.457	0.262	-0.012
-235.844	800.000	-0.030	-0.120
-234.830	114.151	-0.087	0.107
-233.815	-200.000	-0.005	-0.072
-232.800	-14.934	0.170	0.109
-231.786	-27.597	0.233	0.136
-230.771	-159.525	0.324	-0.018
-229.757	14.170	0.040	-0.031
-228.742	-200.000	0.004	-0.560
-227.727	282.494	0.142	-0.256
-226.713	800.000	-0.052	-0.207
-225.698	93.991	0.151	-0.172
-224.684	-158.956	-0.148	-0.008
-223.669	-200.000	0.012	-0.155
-222.655	-200.000	0.012	0.068
-221.640	137.575	0.045	0.059
-220.625	-55.333	0.187	0.084
-219.611	56.862	0.122	0.119
-218.596	-200.000	-0.019	-0.193
-217.582	71.698	0.157	0.163
-216.567	-90.266	0.199	0.058
-215.552	38.821	0.089	-0.079
-214.538	137.979	0.101	-0.133
-213.523	733.703	-0.087	0.234
-212.509	-200.000	0.033	0.149
-211.494	800.000	0.034	0.121
-210.479	194.756	0.070	-0.106
-209.465	-200.000	-0.002	0.150
-208.450	-200.000	0.001	-0.372
-207.436	11.232	-0.049	0.038
-206.421	372.039	-0.072	-0.147
-205.406	-200.000	-0.029	-0.157
-204.392	-25.885	0.046	0.027
-203.377	-200.000	-0.059	-0.286
-202.363	128.545	0.201	-0.257
-201.348	-157.406	0.240	-0.014
-200.333	-104.625	-0.131	0.030
-199.319	435.758	-0.052	0.114
-198.304	-15.514	0.335	-0.214
-197.290	65.451	-0.054	0.054
-196.275	-200.000	-0.000	0.206
-195.260	-200.000	0.031	-0.160
-194.246	-200.000	-0.003	0.191
-193.231	694.317	0.038	-0.100
-192.217	-163.045	0.223	-0.011
-191.202	18.483	-0.041	-0.032
-190.187	-47.952	-0.159	0.077
-189.173	-99.219	0.200	0.051
-188.158	-104.866	0.430	-0.099
-187.144	-200.000	0.002	-0.079
-186.129	-84.619	-0.193	-0.061
-185.114	800.000	0.063	-0.229
-184.100	800.000	-0.091	0.356
-183.085	-63.375	-0.237	0.097
-182.071	800.000	-0.057	-0.200
-181.056	-200.000	-0.034	-0.353
-180.042	-146.807	0.386	0.033
-179.027	-63.548	-0.093	0.038
-178.012	-70.686	0.133	-0.050
-176.998	57.952	0.174	0.171
-175.983	-21.766	-0.104	0.063
-174.969	-200.000	-0.047	0.321
-173.954	108.986	0.235	0.281
-172.939	-200.000	-0.001	-0.046
-171.925	-75.806	0.174	0.062
-170.910	-49.881	0.113	-0.054
-169.896	22.577	-0.100	-0.081
-168.881	-159.885	0.291	0.016
-167.866	-55.604	-0.025	-0.011
-166.852	-200.000	-0.002	0.254
-165.837	-135.503	0.351	-0.042
-164.823	-57.565	0.190	0.083
-163.808	100.885	0.047	-0.054
-162.793	-200.000	0.080	0.415
-161.779	-200.000	-0.024	0.393
-160.764	-6.060	-0.258	0.176
-159.750	72.613	0.110	0.115
-158.735	259.944	-0.037	0.064
-157.720	-54.851	0.333	0.150
-156.706	101.847	0.108	0.126
-155.691	121.395	0.147	-0.183
-154.677	3.966	0.030	0.022
-153.662	-59.751	-0.209	-0.089
-152.647	800.000	-0.105	-0.306
-151.633	570.664	-0.149	0.363
-150.618	77.860	0.117	-0.124
-149.604	687.066	-0.075	-0.197
-148.589	-200.000	0.009	0.109
-147.574	-200.000	0.014	0.215
-146.560	33.466	-0.191	0.166
-145.545	-200.000	-0.008	-0.101
-144.531	-200.000	0.048	0.212
-143.516	-105.044	0.119	-0.027
-142.502	37.331	0.292	0.258
-141.487	-62.398	-0.126	-0.052
-140.472	-61.824	0.387	0.162
-139.458	-116.007	-0.166	-0.031
-138.443	-200.000	-0.036	-0.322
-137.429	-200.000	-0.027	0.122
-136.414	800.000	0.039	0.159
-135.399	-66.382	-0.295	-0.117
-134.385	46.414	0.120	0.111
-133.370	321.992	0.117	0.223
-132.356	-119.896	0.287	-0.049
-131.341	161.540	0.065	0.090
-130.326	59.380	0.276	-0.271
-129.312	-69.756	0.388	-0.148
-128.297	-152.392	0.479	0.034
-127.283	800.000	0.066	0.189
-126.268	-40.004	0.173	0.090
-125.253	74.012	-0.061	0.064
-124.239	-58.287	0.169	-0.073
-123.224	800.000	0.049	0.179
-122.210	-80.315	0.063	0.021
-121.195	323.662	-0.036	0.069
-120.180	800.000	0.074	0.225
-119.166	-22.331	0.126	0.076
-118.151	167.648	-0.196	-0.278
-117.137	-23.745	0.100	-0.060
-116.122	83.289	0.227	0.247
-115.107	-5.397	-0.145	-0.099
-114.093	185.296	-0.089	-0.132
-113.078	-13.975	0.264	0.170
-112.064	-200.000	0.008	-0.121
-111.049	70.029	0.081	-0.083
-110.034	-186.835	-0.145	0.002
-109.020	28.797	-0.142	-0.120
-108.005	-200.000	-0.017	0.154
-106.991	-98.267	0.215	-0.055
-105.976	-42.626	0.292	0.148
-104.962	107.472	-0.174	-0.206
-103.947	-132.940	0.318	0.040
-102.932	-89.605	-0.087	0.026
-101.918	13.166	0.168	0.130
-100.903	-200.000	-0.001	-0.028
-99.889	-200.000	0.003	-0.080
-98.874	-200.000	-0.039	0.263
-97.859	2.393	-0.154	0.111
-96.845	-14.213	-0.343	0.221
-95.830	349.988	0.230	0.453
-94.816	800.000	0.067	0.188
-93.801	800.000	0.056	0.166
-92.786	800.000	0.026	0.098
-91.772	-98.217	-0.103	0.026
-90.757	414.467	0.125	0.265
-89.743	-200.000	0.023	-0.276
-88.728	514.912	-0.013	-0.029
-87.713	345.417	0.032	-0.063
-86.699	-1.120	-0.163	0.115
-85.684	800.000	0.075	0.207
-84.670	-200.000	0.061	0.337
-83.655	-130.953	-0.091	0.012
-82.640	-200.000	0.005	-0.240
-81.626	-200.000	0.015	-0.135
-80.611	-8.874	-0.053	0.035
-79.597	-81.649	-0.373	0.122
-78.582	-200.000	0.029	-0.267
-77.567	97.102	0.036	0.041
-76.553	800.000	-0.049	0.201
-75.538	-69.640	-0.210	0.080
-74.524	303.947	-0.089	0.163
-73.509	-193.880	0.504	-0.004
-72.494	62.121	0.214	-0.213
-71.480	-200.000	0.010	-0.072
-70.465	-105.727	0.104	0.023
-69.451	-40.687	0.458	0.236
-68.436	-200.000	-0.046	0.376
-67.422	577.525	0.034	-0.083
-66.407	800.000	-0.034	-0.143
-65.392	-155.888	0.233	0.015
-64.378	51.770	-0.069	0.065
-63.363	-51.154	-0.139	0.065
-62.349	-108.504	0.041	-0.009
-61.334	-15.864	-0.590	-0.374
-60.319	103.521	0.429	0.501
-59.305	-200.000	-0.043	-0.969
-58.290	167.721	0.603	0.853
-57.276	800.000	0.508	1.465
-56.261	-200.000	79.323	493.221
-55.246	474.380	1365.563	3064.913
-54.232	144.161	2596.625	3446.470
-53.217	110.276	2263.271	2704.245
-52.203	48.688	1790.819	1670.277
-51.188	42.069	1595.594	1440.729
-50.173	39.567	1567.451	1397.547
-49.159	55.090	1607.117	1544.513
-48.144	59.924	1626.689	1597.941
-47.130	42.707	1589.287	1439.369
-46.115	39.328	1574.430	1401.841
-45.100	39.113	1571.236	1397.414
-44.086	39.045	1569.606	1395.427
-43.071	39.057	1566.830	1392.987
-42.057	39.000	1565.601	1391.439
-41.042	39.003	1563.841	1389.837
-40.027	39.016	1562.030	1388.262
-39.013	38.918	1561.304	1386.874
-37.998	38.983	1559.807	1385.945
-36.984	38.963	1558.570	1384.649
-35.969	39.055	1556.969	1383.825
-34.954	39.098	1555.867	1383.088
-33.940	39.034	1554.486	1381.359
-32.925	39.058	1552.862	1380.028
-31.911	39.116	1552.034	1379.647
-30.896	39.195	1549.636	1378.013
-29.881	39.079	1548.647	1376.263
-28.867	39.066	1547.285	1374.911
-27.852	39.064	1546.363	1374.021
-26.838	39.037	1544.441	1372.071
-25.823	39.001	1542.944	1370.433
-24.809	38.995	1541.484	1369.042
-23.794	38.995	1539.748	1367.446
-22.779	38.969	1538.774	1366.343
-21.765	39.066	1537.240	1365.604
-20.750	39.135	1536.149	1365.057
-19.736	39.048	1535.121	1363.489
-18.721	38.921	1534.134	1361.674
-17.706	39.020	1532.809	1361.131
-16.692	38.952	1531.472	1359.422
-15.677	38.967	1531.063	1359.108
-14.663	38.926	1529.546	1357.422
-13.648	38.886	1528.448	1356.116
-12.633	39.007	1527.246	1355.834
-11.619	39.042	1526.388	1355.261
-10.604	38.974	1525.773	1354.192
-9.590	38.880	1524.736	1352.570
-8.575	38.906	1523.761	1351.829
-7.560	38.965	1522.820	1351.349
-6.546	38.959	1521.950	1350.481
-5.531	38.971	1521.112	1349.764
-4.517	38.831	1520.258	1347.989
-3.502	38.913	1518.725	1347.141
-2.487	38.884	1517.853	1346.114
-1.473	38.909	1516.370	1344.917
-0.458	38.955	1515.238	1344.178
0.556	39.181	1506.247	1334.844
1.571	36.530	1479.193	1293.047
2.586	33.078	1414.960	1214.649
3.600	31.092	1329.769	1129.402
4.615	29.161	1280.416	1076.121
5.629	24.126	1219.639	996.848
6.644	12.627	1125.446	860.035
7.659	3.503	1079.123	778.668
8.673	2.232	1073.113	767.880
9.688	2.000	1070.014	764.432
10.702	1.893	1068.359	762.645
11.717	1.726	1066.881	760.690
12.731	5.183	1070.741	780.684
13.746	15.949	1086.571	846.531
14.761	24.093	1097.172	895.871
15.775	25.381	1097.973	902.925
16.790	25.365	1097.572	902.435
17.804	25.255	1096.545	900.963
18.819	25.089	1095.723	899.375
19.834	25.205	1095.257	899.491
20.848	25.165	1095.149	899.126
21.863	25.319	1094.676	899.429
22.877	25.287	1094.026	898.652
23.892	25.306	1093.105	897.911
24.907	25.210	1092.378	896.756
25.921	25.237	1091.563	896.142
26.936	25.333	1091.130	896.185
27.950	25.173	1089.327	893.831
28.965	25.243	1088.230	893.200
29.980	25.212	1086.620	891.645
30.994	25.066	1085.822	890.183
32.009	25.183	1085.030	890.038
33.023	25.308	1084.738	890.341
34.038	25.187	1083.345	888.516
35.053	25.153	1082.290	887.407
36.067	25.437	1080.986	887.660
37.082	25.159	1081.261	886.437
38.096	25.326	1080.691	886.713
39.111	25.442	1079.519	886.245
40.126	25.568	1078.911	886.288
41.140	25.436	1077.547	884.442
42.155	25.313	1075.705	882.244
43.169	24.772	1075.124	879.034
44.184	24.833	1073.977	878.318
45.199	24.897	1072.983	877.743
46.213	24.803	1072.376	876.707
47.228	24.877	1070.835	875.733
48.242	25.014	1070.634	876.162
49.257	25.076	1069.708	875.629
50.271	25.142	1069.011	875.303
51.286	25.348	1068.216	875.578
52.301	25.258	1067.786	874.710
53.315	25.383	1066.924	874.535
54.330	25.276	1065.982	873.165
55.344	25.107	1065.574	871.931
56.359	25.164	1064.500	871.250
57.374	25.257	1063.737	871.002
58.388	25.144	1062.286	869.187
59.403	25.060	1061.838	868.338
60.417	24.940	1061.614	867.495
61.432	24.886	1060.152	865.963
62.447	24.841	1059.738	865.332
63.461	24.936	1059.162	865.246
64.476	24.993	1058.512	864.912
65.490	24.920	1057.822	863.920
66.505	24.945	1056.139	862.590
67.520	24.932	1055.768	862.148
68.534	25.035	1055.243	862.139
69.549	24.989	1053.856	860.708
70.563	24.711	1052.487	858.178
71.578	24.374	1052.445	856.450
72.593	24.505	1051.138	855.939
73.607	24.460	1049.870	854.616
74.622	24.375	1049.442	853.784
75.636	24.722	1048.627	854.706
76.651	24.870	1047.950	854.782
77.666	24.844	1046.838	853.677
78.680	24.656	1045.694	851.772
79.695	24.623	1045.358	851.270
80.709	24.663	1045.172	851.231
81.724	24.961	1043.440	851.163
82.739	24.957	1042.823	850.563
83.753	24.819	1042.262	849.377
84.768	25.061	1041.342	849.701
85.782	25.311	1041.332	850.800
86.797	25.517	1040.562	851.071
87.812	25.510	1039.708	850.263
88.826	25.399	1038.660	848.808
89.841	25.376	1038.139	848.197
90.855	25.504	1037.052	847.841
91.870	25.566	1036.055	847.242
92.884	25.452	1035.631	846.285
93.899	25.320	1034.710	844.834
94.914	25.254	1033.373	843.360
95.928	25.387	1032.864	843.494
96.943	25.336	1032.289	842.710
97.957	25.152	1030.974	840.699
98.972	24.989	1030.089	839.140
99.987	24.713	1028.704	836.646
101.001	24.740	1028.535	836.560
102.016	25.151	1027.820	837.825
103.030	25.206	1026.852	837.217
104.045	25.057	1026.090	835.830
105.060	25.030	1024.877	834.643
106.074	24.883	1023.419	832.695
107.089	24.836	1022.603	831.740
108.103	25.133	1022.735	833.155
109.118	25.397	1021.458	833.263
110.133	24.990	1020.585	830.590
111.147	24.921	1019.872	829.617
112.162	24.903	1018.197	828.098
113.176	24.650	1016.944	825.840
114.191	24.713	1016.763	825.907
115.206	24.905	1015.678	825.841
116.220	24.558	1014.973	823.593
117.235	24.372	1013.812	821.723
118.249	24.547	1013.546	822.241
119.264	24.651	1012.382	821.703
120.279	24.507	1011.522	820.268
121.293	24.471	1010.621	819.300
122.308	24.548	1010.495	819.479
123.322	24.565	1009.467	818.650
124.337	24.591	1008.434	817.860
125.352	24.505	1006.868	816.124
126.366	24.100	1005.446	813.048
127.381	23.796	1003.994	810.420
128.395	24.242	1003.734	812.171
129.410	24.819	1004.017	814.957
130.424	25.103	1003.273	815.574
131.439	25.226	1001.970	814.999
132.454	25.074	1000.935	813.398
133.468	25.081	1000.282	812.824
134.483	24.992	999.169	811.445
135.497	25.109	998.764	811.576
136.512	25.241	998.319	811.738
137.527	25.367	997.076	811.223
138.541	25.440	996.645	811.133
139.556	25.333	996.329	810.320
140.570	25.392	995.305	809.681
141.585	25.449	994.221	808.987
142.600	25.489	993.666	808.640
143.614	25.413	992.624	807.378
144.629	25.427	992.023	806.883
145.643	25.711	991.457	807.627
146.658	25.498	990.285	805.645
147.673	25.434	988.787	804.066
148.687	25.218	988.175	802.534
149.702	25.231	986.327	801.020
150.716	25.194	985.330	799.973
151.731	25.072	984.702	798.850
152.746	25.071	983.994	798.200
153.760	25.302	983.511	798.766
154.775	25.600	982.425	799.136
155.789	25.429	982.162	798.096
156.804	25.449	981.173	797.307
157.819	25.472	979.817	796.239
158.833	25.496	978.808	795.455
159.848	25.481	979.264	795.685
160.862	25.615	977.904	795.103
161.877	25.542	976.554	793.616
162.892	25.362	975.421	791.830
163.906	25.393	975.004	791.558
164.921	25.441	973.954	790.844
165.935	25.420	972.505	789.508
166.950	25.400	971.747	788.734
167.964	25.438	971.179	788.370
168.979	25.422	969.882	787.177
169.994	25.535	968.627	786.585
171.008	25.262	968.114	784.905
172.023	25.321	967.885	784.908
173.037	25.565	966.961	785.154
174.052	25.424	965.365	783.172
175.067	25.221	964.446	781.475
176.081	25.118	963.336	780.060
177.096	25.211	962.921	780.057
178.110	25.280	962.060	779.590
179.125	25.098	961.084	777.942
180.140	24.767	960.224	775.741
181.154	24.898	958.824	775.109
182.169	24.874	958.969	775.054
183.183	25.080	958.798	775.737
184.198	25.438	958.019	776.586
185.213	25.452	957.319	776.010
186.227	25.307	956.557	774.699
187.242	25.397	956.282	774.794
188.256	25.331	955.933	774.162
189.271	25.379	954.789	773.370
190.286	25.581	953.945	773.490
191.300	25.471	952.896	772.098
192.315	24.871	951.155	768.045
193.329	24.177	949.728	763.851
194.344	23.571	949.162	760.732
195.359	24.278	949.297	763.801
196.373	25.169	949.266	767.522
197.388	25.373	949.043	768.145
198.402	25.423	948.492	767.845
199.417	25.331	948.057	767.036
200.432	25.280	947.745	766.497
201.446	25.199	947.069	765.537
202.461	24.931	946.155	763.589
203.475	25.074	945.669	763.736
204.490	24.586	944.059	760.290
205.504	23.548	941.631	753.861
206.519	23.693	941.889	754.617
207.534	24.776	942.382	759.547
208.548	24.931	941.682	759.571
209.563	25.090	941.289	759.861
210.577	25.281	940.718	760.144
211.592	25.084	939.686	758.411
212.607	25.424	939.718	759.807
213.621	25.598	938.823	759.751
214.636	25.524	938.097	758.784
215.650	25.529	937.787	758.487
216.665	25.488	937.274	757.834
217.680	25.509	936.661	757.356
218.694	25.504	936.464	757.112
219.709	25.330	935.038	755.159
220.723	24.875	934.238	752.535
221.738	25.095	933.511	752.806
222.753	25.202	933.420	753.114
223.767	25.183	932.447	752.183
224.782	25.277	931.964	752.122
225.796	25.375	931.372	751.988
226.811	25.639	930.881	752.629
227.826	25.330	929.479	750.137
228.840	24.456	927.890	745.142
229.855	24.277	927.446	743.973
230.869	24.621	926.979	744.968
231.884	24.269	925.865	742.541
232.899	24.327	925.596	742.498
233.913	25.160	925.392	745.735
234.928	25.309	924.886	745.882
235.942	25.206	924.412	745.003
236.957	25.166	923.657	744.163
237.972	24.858	923.002	742.293
238.986	24.848	921.996	741.378
240.001	24.901	921.641	741.245
241.015	25.076	920.678	741.129
242.030	24.979	920.186	740.266
243.045	25.137	919.792	740.538
244.059	25.309	919.143	740.657
245.074	25.404	918.498	740.465
246.088	25.311	918.173	739.754
247.103	24.952	917.018	737.280
248.117	25.051	916.494	737.203
249.132	25.565	916.399	739.172
250.147	26.072	916.389	741.184
251.161	26.079	915.824	740.690
252.176	26.283	915.354	741.080
253.190	26.165	914.873	740.140
254.205	26.257	913.935	739.693
255.220	26.355	914.238	740.274
256.234	26.493	913.090	739.846
257.249	26.213	912.243	737.948
258.263	26.147	911.702	737.177
259.278	26.163	911.249	736.808
260.293	26.212	910.565	736.393
261.307	26.369	910.340	736.785
262.322	26.257	909.665	735.717
263.336	26.149	908.989	734.667
264.351	25.637	907.365	731.208
265.366	24.662	905.413	725.612
266.380	24.035	904.262	722.086
267.395	24.982	904.536	726.078
268.409	25.761	905.313	729.797
269.424	25.800	904.334	729.104
270.439	25.924	904.056	729.317
271.453	26.096	903.225	729.276
272.468	26.008	902.743	728.467
273.482	26.216	902.363	728.936
274.497	26.314	901.882	728.876
275.512	26.107	900.972	727.244
276.526	25.599	899.360	723.834
277.541	25.705	898.906	723.831
278.555	26.114	898.893	725.400
279.570	25.904	898.114	723.865
280.585	25.741	897.512	722.660
281.599	25.665	897.347	722.159
282.614	26.031	896.481	722.866
283.628	25.391	895.450	719.406
284.643	25.145	894.406	717.520
285.657	25.482	894.374	718.779
286.672	25.505	893.558	718.151
287.687	25.035	892.557	715.407
288.701	25.281	892.740	716.472
289.716	25.610	892.742	717.724
290.730	25.368	891.170	715.432
291.745	25.269	890.451	714.398
292.760	25.196	889.694	713.438
293.774	25.016	888.974	712.081
294.789	25.909	889.889	716.304
295.803	26.566	889.523	718.554
296.818	26.672	889.010	718.497
297.833	26.653	888.368	717.838
298.847	26.297	887.829	715.929
299.862	26.043	886.735	713.977
300.876	26.141	886.125	713.814
301.891	26.555	885.559	714.929
302.906	26.626	885.140	714.810
303.920	26.114	884.019	711.820
304.935	25.947	883.676	710.822
305.949	26.525	883.042	712.524
306.964	26.461	882.914	712.106
307.979	26.365	882.194	711.087
308.993	26.292	881.552	710.219
310.008	26.429	881.434	710.598
311.022	26.663	880.916	711.039
312.037	26.482	880.185	709.676
313.052	26.357	879.390	708.482
314.066	26.176	878.670	707.129
315.081	25.585	877.140	703.524
316.095	24.740	875.725	699.027
317.110	25.244	876.127	701.256
318.125	26.065	876.510	704.710
319.139	25.808	874.978	702.412
320.154	24.647	873.749	696.840
321.168	24.098	872.683	693.791
322.183	24.774	872.920	696.548
323.197	25.621	873.356	700.132
324.212	25.997	873.018	701.265
325.227	26.026	872.784	701.126
326.241	26.306	872.446	701.880
327.256	26.153	871.750	700.662
328.270	26.048	870.986	699.581
329.285	26.073	869.864	698.715
330.300	25.939	869.521	697.860
331.314	25.738	868.685	696.348
332.329	25.649	868.326	695.657
333.343	26.075	867.845	696.855
334.358	26.352	867.829	697.851
335.373	26.521	866.595	697.446
336.387	26.375	866.455	696.707
337.402	26.687	865.934	697.432
338.416	26.792	865.717	697.597
339.431	26.903	865.034	697.414
340.446	26.878	864.306	696.666
341.460	26.999	864.003	696.828
342.475	26.973	863.491	696.253
343.489	26.768	862.653	694.729
344.504	26.779	862.146	694.302
345.519	26.859	862.363	694.721
346.533	27.228	861.405	695.299
347.548	27.293	861.200	695.322
348.562	27.282	860.485	694.641
349.577	27.316	860.275	694.539
350.592	27.078	859.844	693.222
351.606	27.068	859.289	692.675
352.621	27.068	858.824	692.240
353.635	27.027	857.806	691.199
354.650	27.033	856.986	690.502
355.665	26.637	856.389	688.455
356.679	25.602	854.552	682.990
357.694	25.357	854.392	681.872
358.708	26.058	854.330	684.421
359.723	26.057	853.438	683.641
360.738	26.161	853.278	683.848
361.752	26.914	852.786	686.243
362.767	26.962	852.725	686.313
363.781	27.002	852.986	686.615
364.796	27.451	852.587	687.929
365.810	27.576	852.149	687.987
366.825	27.736	851.813	688.259
367.840	27.583	851.417	687.300
368.854	27.363	850.757	685.876
369.869	27.094	849.881	684.097
370.883	26.895	849.096	682.656
371.898	26.975	848.608	682.504
372.913	26.716	848.209	681.148
373.927	26.852	847.252	680.830
374.942	27.004	846.679	680.879
375.956	27.114	845.790	680.518
376.971	27.194	845.540	680.553
377.986	27.352	845.068	680.708
379.000	27.612	844.670	681.298
380.015	27.706	843.980	681.030
381.029	27.447	843.381	679.522
382.044	27.450	842.526	678.783
383.059	27.303	842.908	678.484
384.073	27.511	841.853	678.349
385.088	27.473	841.402	677.783
386.102	27.500	841.011	677.511
387.117	27.457	839.788	676.305
388.132	27.073	839.661	674.718
389.146	26.966	838.985	673.718
390.161	26.551	837.476	670.907
391.175	26.459	837.734	670.715
392.190	26.950	838.049	672.728
393.205	27.136	837.259	672.724
394.219	26.125	835.384	667.420
395.234	24.565	833.012	659.709
396.248	23.569	831.898	655.093
397.263	24.620	832.571	659.444
398.278	26.722	834.053	668.322
399.292	27.177	833.834	669.764
400.307	26.679	833.122	667.300
401.321	26.717	832.782	667.109
402.336	26.662	832.802	666.861
403.350	27.108	832.389	668.114
404.365	27.646	832.482	670.109
405.380	27.749	832.279	670.263
406.394	28.188	831.660	671.314
407.409	28.320	831.454	671.573
408.423	28.114	830.983	670.380
409.438	28.071	830.159	669.499
410.453	28.056	829.920	669.192
411.467	28.239	829.610	669.551
412.482	28.122	828.916	668.506
413.496	28.125	828.445	668.078
414.511	28.224	827.850	667.900
415.526	28.081	827.585	667.102
416.540	28.192	827.351	667.260
417.555	28.320	826.743	667.180
418.569	27.948	825.758	664.971
419.584	27.851	825.147	664.068
420.599	27.951	824.696	664.007
421.613	98.184	1271.829	1398.430
422.628	84.849	1336.988	1398.568
