DTS Sentinel unit serial number:	SN413079Multiplexer serial number:	ORYXHardware model number:	OX4-SRSoftware version number:	ORYX F/W v4.00 Oryx Data Collector v3.7.2.0data status	okinstallation	princeton_trtdifferential loss correction	single-endedforward channel	channel 3reverse channel	N/Adate	2019/09/14time	00:28:34forward acquisition time	60.00reverse acquisition time	0.00gamma	496.2192k internal	0.2340k external	0.2340temperature offset calibration	1.0058default loss term (dB/km)	0.3790temperature slope calibration	1.0000multiplexer offset coefficient	1.0000multiplexer slope coefficient	1.0000fibre end	0.00T internal ref (°C)	26.47T ext. ref 1 (°C)	3.18T ext. ref 2 (°C)	21.22length (m)	temperature (°C)	Stokes	anti-Stokes-747.200	78.437	0.142	0.152
-746.185	-110.716	0.304	-0.063
-745.171	-20.591	0.163	0.101
-744.156	-96.319	0.173	0.046
-743.142	222.359	0.178	-0.288
-742.127	-78.444	-0.120	0.041
-741.112	18.157	-0.224	0.179
-740.098	-200.000	-0.019	0.382
-739.083	2.629	0.379	-0.276
-738.069	-132.355	-0.082	0.011
-737.054	-90.259	0.244	-0.071
-736.039	169.496	-0.116	-0.167
-735.025	344.322	-0.044	0.086
-734.010	257.054	0.095	-0.163
-732.996	-73.229	-0.327	-0.120
-731.981	272.509	0.125	-0.221
-730.966	-18.061	-0.238	0.149
-729.952	-200.000	-0.015	0.186
-728.937	204.439	-0.062	-0.096
-727.923	800.000	0.084	-0.284
-726.908	-200.000	0.014	-0.204
-725.894	-163.739	0.293	-0.014
-724.879	-126.429	0.002	-0.000
-723.864	800.000	-0.038	-0.158
-722.850	-93.417	-0.240	0.067
-721.835	-200.000	0.026	-0.235
-720.821	-200.000	0.003	0.140
-719.806	-200.000	-0.030	0.184
-718.791	800.000	-0.055	0.181
-717.777	82.848	0.174	-0.189
-716.762	-200.000	-0.036	-0.351
-715.748	194.378	-0.164	-0.249
-714.733	-19.594	-0.142	-0.088
-713.718	-171.058	0.270	0.009
-712.704	-200.000	-0.026	0.171
-711.689	-76.478	-0.082	0.029
-710.675	-37.252	0.042	-0.022
-709.660	-61.244	-0.088	-0.037
-708.645	50.474	-0.099	0.093
-707.631	-196.155	-0.106	0.001
-706.616	92.128	-0.138	0.155
-705.602	800.000	0.055	0.159
-704.587	-194.540	0.237	-0.002
-703.572	-47.886	-0.372	-0.180
-702.558	316.675	-0.173	0.327
-701.543	-97.410	-0.158	0.041
-700.529	-141.164	0.390	-0.040
-699.514	343.613	-0.059	-0.117
-698.499	-39.948	0.453	-0.237
-697.485	113.623	0.219	0.266
-696.470	-8.625	-0.120	0.081
-695.456	-67.182	-0.103	-0.041
-694.441	800.000	0.018	-0.076
-693.426	-200.000	-0.019	0.101
-692.412	77.252	-0.172	-0.183
-691.397	36.162	0.124	0.109
-690.383	-16.980	-0.036	-0.023
-689.368	-200.000	-0.002	0.114
-688.354	-36.096	0.243	0.131
-687.339	-28.574	0.181	-0.104
-686.324	-57.862	-0.272	0.119
-685.310	-46.106	-0.389	-0.192
-684.295	-149.910	0.088	0.007
-683.281	203.230	-0.177	0.274
-682.266	667.806	-0.107	-0.278
-681.251	800.000	0.031	0.101
-680.237	-145.863	0.168	-0.015
-679.222	-69.673	-0.345	-0.132
-678.208	-31.675	0.179	-0.100
-677.193	63.813	0.253	-0.254
-676.178	-200.000	0.003	-0.098
-675.164	-129.119	-0.227	0.032
-674.149	96.164	0.135	-0.154
-673.135	77.360	-0.088	-0.094
-672.120	13.231	-0.358	-0.277
-671.105	6.906	-0.160	-0.120
-670.091	31.279	0.324	0.278
-669.076	-93.761	-0.146	-0.040
-668.062	-138.491	0.077	0.008
-667.047	-48.550	0.092	0.044
-666.032	-137.996	0.079	0.009
-665.018	-41.600	-0.226	0.116
-664.003	47.299	0.315	-0.293
-662.989	254.299	0.184	-0.315
-661.974	-47.597	0.180	-0.087
-660.959	-200.000	0.001	0.015
-659.945	42.344	0.131	-0.119
-658.930	-61.860	-0.122	-0.051
-657.916	35.479	0.117	-0.102
-656.901	424.032	0.119	0.256
-655.886	-117.029	-0.306	0.056
-654.872	-123.889	-0.158	0.025
-653.857	800.000	-0.095	-0.272
-652.843	39.135	0.044	0.040
-651.828	-93.938	0.068	0.019
-650.814	95.411	0.320	-0.364
-649.799	-174.643	-0.127	0.004
-648.784	800.000	-0.015	-0.049
-647.770	-71.630	-0.080	0.030
-646.755	-200.000	-0.053	0.290
-645.741	102.021	-0.063	0.074
-644.726	-101.150	-0.121	0.030
-643.711	177.038	-0.217	0.315
-642.697	235.262	-0.055	-0.092
-641.682	119.960	-0.238	0.295
-640.668	231.998	-0.112	-0.183
-639.653	-90.677	0.318	-0.092
-638.638	-69.972	0.118	-0.045
-637.624	-18.848	-0.263	-0.163
-636.609	800.000	0.055	0.209
-635.595	-200.000	0.062	0.432
-634.580	608.193	0.066	-0.165
-633.565	-200.000	0.002	0.017
-632.551	2.543	-0.070	-0.050
-631.536	-177.775	0.066	-0.002
-630.522	-99.587	0.321	-0.080
-629.507	800.000	0.127	-0.433
-628.492	-146.395	-0.114	-0.010
-627.478	-59.543	0.157	0.067
-626.463	1.194	0.355	0.254
-625.449	-178.032	0.479	-0.011
-624.434	465.300	0.119	-0.265
-623.419	-68.466	0.383	0.148
-622.405	23.416	-0.199	-0.163
-621.390	80.914	-0.244	-0.263
-620.376	53.395	-0.141	0.135
-619.361	-169.635	-0.212	-0.008
-618.346	458.851	0.132	-0.293
-617.332	34.595	-0.134	-0.117
-616.317	-59.831	0.107	-0.046
-615.303	4.478	0.039	-0.029
-614.288	-200.000	0.038	-0.316
-613.273	81.433	-0.083	0.089
-612.259	46.027	0.181	-0.167
-611.244	-133.413	0.238	0.030
-610.230	-19.509	0.031	0.019
-609.215	-52.939	0.137	0.063
-608.201	-109.669	-0.192	-0.040
-607.186	-200.000	-0.029	0.223
-606.171	-200.000	0.010	-0.495
-605.157	292.353	0.106	-0.193
-604.142	91.460	-0.268	-0.301
-603.128	164.745	0.039	-0.056
-602.113	-200.000	-0.028	-0.166
-601.098	574.245	0.069	0.168
-600.084	-126.697	0.315	0.046
-599.069	-200.000	0.006	0.035
-598.055	-149.953	0.040	0.003
-597.040	-110.409	-0.105	0.022
-596.025	481.248	0.109	-0.247
-595.011	800.000	0.102	0.324
-593.996	800.000	0.022	0.093
-592.982	-14.423	0.037	-0.024
-591.967	-137.246	0.243	-0.028
-590.952	-24.930	0.093	0.055
-589.938	800.000	-0.024	0.095
-588.923	-200.000	0.034	0.149
-587.909	-132.607	-0.142	-0.018
-586.894	800.000	0.048	0.201
-585.879	315.870	-0.123	-0.231
-584.865	-158.561	0.126	-0.007
-583.850	-20.004	-0.313	-0.192
-582.836	-190.612	0.198	0.002
-581.821	-71.497	0.130	-0.048
-580.806	-96.526	0.239	-0.063
-579.792	59.749	0.086	0.085
-578.777	-131.789	-0.037	0.005
-577.763	58.871	-0.101	0.099
-576.748	412.045	0.063	-0.133
-575.733	-5.612	0.183	-0.125
-574.719	-150.627	-0.214	-0.016
-573.704	-127.539	0.158	-0.023
-572.690	-200.000	-0.025	0.118
-571.675	-200.000	0.051	-0.241
-570.661	-67.817	0.319	-0.124
-569.646	74.887	0.288	-0.301
-568.631	-166.262	0.038	-0.002
-567.617	65.789	0.133	0.134
-566.602	-48.946	0.142	-0.068
-565.588	-91.877	-0.092	-0.026
-564.573	35.449	-0.270	-0.236
-563.558	288.757	-0.142	-0.257
-562.544	417.144	-0.035	-0.074
-561.529	-83.900	0.334	0.106
-560.515	208.258	0.060	-0.094
-559.500	-49.349	0.216	0.103
-558.485	48.697	0.109	0.102
-557.471	212.479	-0.082	0.129
-556.456	-157.598	-0.160	0.010
-555.442	-3.085	-0.183	-0.127
-554.427	-57.841	-0.022	-0.010
-553.412	81.982	-0.187	-0.202
-552.398	800.000	-0.070	-0.287
-551.383	86.762	0.208	-0.229
-550.369	-176.544	0.083	0.002
-549.354	-99.397	-0.040	0.010
-548.339	-69.590	0.093	0.035
-547.325	204.306	-0.130	0.200
-546.310	-200.000	-0.004	-0.114
-545.296	-12.656	-0.120	-0.078
-544.281	800.000	0.052	-0.183
-543.266	146.905	-0.234	-0.314
-542.252	-128.352	0.153	0.022
-541.237	800.000	-0.053	-0.195
-540.223	-102.003	-0.228	-0.055
-539.208	-200.000	0.015	-0.197
-538.193	345.382	-0.223	-0.436
-537.179	-139.410	-0.170	-0.018
-536.164	-200.000	-0.008	0.081
-535.150	511.850	-0.072	-0.166
-534.135	-200.000	0.050	-0.348
-533.121	800.000	-0.082	0.308
-532.106	699.852	-0.031	0.081
-531.091	148.943	-0.045	-0.060
-530.077	-200.000	0.046	-0.248
-529.062	-54.923	-0.107	0.048
-528.048	-99.745	-0.216	0.054
-527.033	27.987	-0.215	-0.180
-526.018	229.756	0.063	-0.102
-525.004	800.000	0.106	-0.345
-523.989	800.000	0.060	-0.212
-522.975	44.701	-0.099	-0.090
-521.960	-200.000	-0.010	0.072
-520.945	-200.000	-0.008	-0.207
-519.931	109.563	-0.174	0.207
-518.916	-23.043	0.261	0.156
-517.902	123.667	0.218	-0.271
-516.887	-28.675	-0.221	-0.126
-515.872	-41.879	-0.155	-0.079
-514.858	294.442	-0.162	-0.294
-513.843	35.620	-0.044	0.038
-512.829	-131.153	-0.183	-0.024
-511.814	-200.000	0.001	0.172
-510.799	-200.000	0.026	0.138
-509.785	-37.724	0.239	0.126
-508.770	-200.000	0.023	0.260
-507.756	100.026	-0.063	0.073
-506.741	-3.024	0.119	0.083
-505.726	-11.368	-0.248	-0.162
-504.712	-23.109	-0.174	0.104
-503.697	-122.647	-0.452	0.073
-502.683	-79.024	0.251	0.085
-501.668	-200.000	0.322	0.000
-500.653	-200.000	-0.006	-0.116
-499.639	68.077	0.072	0.073
-498.624	-42.005	0.159	0.081
-497.610	-56.099	-0.221	0.098
-496.595	-33.047	0.237	-0.130
-495.581	-78.680	-0.283	0.096
-494.566	719.732	-0.055	-0.146
-493.551	-58.836	-0.096	0.041
-492.537	-1.494	-0.041	0.028
-491.522	-28.415	0.143	-0.082
-490.508	-94.733	-0.184	0.050
-489.493	246.974	-0.089	-0.150
-488.478	94.823	-0.141	0.159
-487.464	-155.445	0.167	0.011
-486.449	3.081	0.194	-0.140
-485.435	162.632	-0.069	0.097
-484.420	-147.378	0.130	-0.011
-483.405	800.000	0.072	0.299
-482.391	-200.000	0.031	0.227
-481.376	-200.000	-0.008	0.213
-480.362	-44.380	0.138	-0.069
-479.347	8.435	-0.175	-0.131
-478.332	-101.903	0.202	-0.048
-477.318	-43.778	0.170	0.085
-476.303	82.794	0.233	-0.251
-475.289	-200.000	-0.016	-0.125
-474.274	-125.269	-0.370	0.056
-473.259	-48.154	-0.107	-0.051
-472.245	-200.000	0.006	0.221
-471.230	-47.414	-0.107	-0.052
-470.216	-200.000	-0.014	0.130
-469.201	-129.800	-0.312	0.043
-468.186	-200.000	0.031	-0.226
-467.172	320.330	-0.155	0.292
-466.157	-82.390	-0.438	-0.141
-465.143	421.841	0.088	-0.188
-464.128	-163.900	-0.228	-0.011
-463.113	-200.000	-0.052	0.338
-462.099	-27.207	-0.252	0.145
-461.084	10.606	-0.120	0.091
-460.070	-65.544	0.174	0.069
-459.055	333.884	-0.056	0.108
-458.040	-11.206	0.140	-0.092
-457.026	-23.604	-0.131	0.078
-456.011	150.801	-0.150	0.202
-454.997	-108.409	0.163	0.035
-453.982	-7.591	0.377	-0.253
-452.968	-117.550	-0.105	0.019
-451.953	-13.205	-0.120	0.077
-450.938	-159.381	0.270	-0.015
-449.924	65.627	-0.303	0.304
-448.909	155.907	-0.091	-0.125
-447.895	-200.000	0.042	0.244
-446.880	51.018	-0.184	-0.173
-445.865	-200.000	0.000	0.071
-444.851	213.224	0.045	-0.070
-443.836	-34.663	0.244	-0.132
-442.822	-200.000	-0.019	-0.131
-441.807	-144.947	-0.070	-0.006
-440.792	36.240	0.254	-0.222
-439.778	-200.000	-0.074	0.357
-438.763	-16.220	-0.141	0.088
-437.749	800.000	-0.088	-0.290
-436.734	-200.000	-0.024	-0.273
-435.719	57.224	-0.271	-0.262
-434.705	255.224	0.146	0.248
-433.690	-35.849	0.299	0.160
-432.676	-200.000	-0.000	0.130
-431.661	-200.000	0.043	-0.330
-430.646	46.647	0.171	-0.157
-429.632	-114.079	-0.302	0.058
-428.617	-113.559	0.228	0.044
-427.603	171.349	-0.092	-0.130
-426.588	-200.000	-0.066	0.291
-425.573	4.009	0.104	-0.075
-424.559	-55.228	0.245	0.109
-423.544	445.119	-0.106	0.231
-422.530	-200.000	0.046	-0.311
-421.515	210.160	-0.133	0.206
-420.500	-139.461	0.034	0.004
-419.486	-58.272	-0.160	0.069
-418.471	34.705	-0.166	-0.144
-417.457	-48.985	-0.212	0.101
-416.442	-113.922	0.205	0.039
-415.428	717.068	0.040	-0.104
-414.413	352.392	-0.043	0.084
-413.398	800.000	0.112	0.371
-412.384	-200.000	0.034	-0.422
-411.369	228.682	0.168	-0.271
-410.355	800.000	0.054	-0.149
-409.340	-78.382	0.167	-0.057
-408.325	-56.849	0.131	-0.057
-407.311	-174.422	0.287	-0.008
-406.296	800.000	0.046	0.127
-405.282	-200.000	-0.060	0.304
-404.267	61.089	0.168	0.165
-403.252	-17.812	-0.299	0.186
-402.238	377.132	-0.059	-0.119
-401.223	-192.370	0.159	0.001
-400.209	-135.060	0.051	-0.006
-399.194	78.879	-0.197	0.208
-398.179	-64.413	0.090	-0.036
-397.165	-24.875	0.293	0.172
-396.150	-119.270	0.186	-0.032
-395.136	637.793	-0.093	-0.235
-394.121	-200.000	-0.020	-0.130
-393.106	800.000	0.039	0.125
-392.092	-200.000	0.070	0.422
-391.077	68.628	0.156	-0.158
-390.063	42.770	-0.139	0.126
-389.048	262.007	-0.086	0.148
-388.033	-200.000	0.042	-0.274
-387.019	-97.814	0.449	0.115
-386.004	-96.426	-0.067	0.018
-384.990	402.457	0.014	0.029
-383.975	-35.941	0.167	0.089
-382.960	499.340	-0.147	0.334
-381.946	49.945	-0.095	0.089
-380.931	-200.000	-0.074	0.371
-379.917	-53.461	0.260	0.118
-378.902	800.000	-0.063	0.223
-377.888	-153.308	-0.233	0.016
-376.873	-180.458	0.210	0.004
-375.858	-5.971	-0.169	-0.114
-374.844	-76.090	-0.018	-0.006
-373.829	-128.745	0.261	0.036
-372.815	800.000	0.025	0.087
-371.800	-200.000	-0.020	0.182
-370.785	83.610	0.127	-0.137
-369.771	323.905	-0.164	-0.310
-368.756	-200.000	-0.018	0.147
-367.742	-140.510	0.314	-0.032
-366.727	7.769	0.186	0.138
-365.712	-200.000	-0.024	-0.365
-364.698	800.000	-0.051	-0.178
-363.683	168.611	-0.218	-0.307
-362.669	-29.634	-0.318	-0.179
-361.654	800.000	-0.066	-0.253
-360.639	-5.078	-0.104	-0.071
-359.625	446.843	0.073	-0.159
-358.610	-132.324	-0.408	0.052
-357.596	85.305	0.310	-0.336
-356.581	800.000	0.013	0.055
-355.566	489.547	-0.021	0.048
-354.552	-112.673	0.358	0.070
-353.537	-115.615	0.093	-0.017
-352.523	-5.249	-0.138	-0.093
-351.508	-97.712	-0.072	-0.018
-350.493	-71.949	-0.501	0.184
-349.479	556.304	-0.206	0.490
-348.464	242.003	0.106	0.176
-347.450	107.198	0.083	0.097
-346.435	-200.000	0.036	-0.173
-345.420	185.821	-0.138	0.203
-344.406	-72.899	0.117	0.043
-343.391	-116.639	-0.092	-0.017
-342.377	97.207	0.174	0.197
-341.362	-28.782	-0.180	0.102
-340.348	800.000	-0.056	0.167
-339.333	135.898	0.066	0.085
-338.318	-82.953	-0.112	-0.036
-337.304	613.445	-0.095	0.234
-336.289	-200.000	-0.024	0.198
-335.275	-21.350	-0.042	0.025
-334.260	-95.243	-0.108	0.029
-333.245	-42.399	-0.110	0.055
-332.231	-100.854	0.155	-0.038
-331.216	-63.015	-0.314	-0.128
-330.202	90.550	0.182	-0.201
-329.187	-70.965	0.394	0.146
-328.172	-54.754	0.170	-0.076
-327.158	40.923	-0.118	-0.105
-326.143	800.000	0.004	-0.012
-325.129	164.679	0.116	-0.162
-324.114	-109.394	0.198	-0.041
-323.099	334.726	0.116	0.222
-322.085	134.819	-0.145	0.185
-321.070	-64.024	-0.076	-0.031
-320.056	-50.927	-0.166	0.077
-319.041	799.068	0.080	-0.218
-318.026	-98.516	-0.322	-0.081
-317.012	-48.399	-0.201	0.096
-315.997	800.000	0.067	0.281
-314.983	14.945	-0.252	0.194
-313.968	-127.266	0.160	-0.023
-312.953	27.778	-0.318	-0.264
-311.939	-71.585	-0.077	0.028
-310.924	696.759	-0.091	-0.236
-309.910	-146.327	0.253	0.022
-308.895	-200.000	0.012	0.271
-307.880	10.081	0.236	0.177
-306.866	800.000	0.080	-0.326
-305.851	-14.152	-0.073	0.046
-304.837	-43.349	-0.146	-0.073
-303.822	152.303	-0.139	-0.187
-302.807	211.808	0.153	0.238
-301.793	-86.284	-0.273	0.083
-300.778	-200.000	0.027	0.351
-299.764	-110.467	0.377	-0.077
-298.749	-35.414	0.213	-0.114
-297.735	71.757	0.179	0.184
-296.720	109.983	0.107	0.127
-295.705	2.465	0.410	-0.292
-294.691	-200.000	-0.028	-0.381
-293.676	130.951	0.138	0.175
-292.662	800.000	-0.047	-0.203
-291.647	-90.250	-0.273	0.078
-290.632	-24.379	-0.143	-0.084
-289.618	506.883	-0.105	0.239
-288.603	-200.000	-0.018	0.325
-287.589	662.978	0.034	-0.085
-286.574	214.209	-0.137	0.213
-285.559	-120.564	0.104	-0.017
-284.545	-23.401	0.034	-0.020
-283.530	-200.000	0.041	0.184
-282.516	-200.000	-0.037	-0.197
-281.501	800.000	-0.023	-0.083
-280.486	-55.930	-0.266	-0.117
-279.472	-68.244	-0.406	-0.156
-278.457	-127.514	-0.360	-0.051
-277.443	-147.923	0.421	-0.035
-276.428	-127.435	-0.408	-0.058
-275.413	770.012	-0.112	-0.299
-274.399	-200.000	-0.018	-0.188
-273.384	-83.490	-0.126	0.040
-272.370	-200.000	0.006	0.146
-271.355	-190.377	-0.469	-0.005
-270.340	-200.000	0.058	0.000
-269.326	34.601	0.125	0.107
-268.311	226.244	-0.057	-0.091
-267.297	-137.756	-0.286	0.032
-266.282	800.000	-0.123	-0.443
-265.267	-111.968	0.148	0.029
-264.253	800.000	-0.083	0.248
-263.238	800.000	-0.126	0.481
-262.224	33.747	0.173	0.148
-261.209	23.017	-0.105	-0.085
-260.195	171.617	0.076	0.107
-259.180	469.799	0.067	0.147
-258.165	-200.000	0.056	-0.288
-257.151	104.974	0.060	0.070
-256.136	-21.735	0.014	-0.009
-255.122	21.050	0.271	-0.216
-254.107	800.000	-0.064	0.215
-253.092	-154.258	-0.034	-0.002
-252.078	27.965	0.085	0.071
-251.063	55.271	0.057	-0.054
-250.049	-191.812	0.287	-0.003
-249.034	-156.227	-0.321	-0.020
-248.019	91.091	0.150	-0.165
-247.005	-127.391	0.359	0.051
-245.990	384.198	-0.126	-0.255
-244.976	-187.734	-0.046	-0.001
-243.961	-113.663	-0.381	-0.073
-242.946	-200.000	0.045	0.203
-241.932	-121.870	0.103	-0.017
-240.917	-34.603	-0.179	0.096
-239.903	-39.390	-0.089	-0.046
-238.888	55.680	0.158	-0.151
-237.873	800.000	0.071	-0.201
-236.859	-104.469	0.161	-0.037
-235.844	14.983	0.253	0.195
-234.830	-30.007	0.114	-0.064
-233.815	-93.398	0.309	0.084
-232.800	32.391	0.082	-0.070
-231.786	-181.825	-0.502	-0.009
-230.771	66.291	0.062	0.062
-229.757	-200.000	0.017	-0.122
-228.742	-94.114	0.253	0.068
-227.727	-125.347	-0.171	-0.026
-226.713	-200.000	-0.015	-0.287
-225.698	-105.940	-0.147	0.033
-224.684	-133.197	-0.144	0.018
-223.669	-86.067	-0.280	0.085
-222.655	346.744	0.157	0.303
-221.640	-159.985	-0.393	0.021
-220.625	-141.196	0.105	0.011
-219.611	-42.571	0.011	-0.005
-218.596	77.562	0.235	-0.246
-217.582	77.548	-0.093	0.098
-216.567	54.193	-0.176	0.166
-215.552	-200.000	-0.005	-0.196
-214.538	-11.687	-0.236	-0.152
-213.523	53.479	0.218	-0.206
-212.509	307.147	-0.184	0.337
-211.494	230.781	0.151	-0.243
-210.479	16.580	0.054	0.042
-209.465	-200.000	-0.001	0.509
-208.450	710.059	0.074	0.192
-207.436	107.829	-0.107	0.126
-206.421	-146.429	0.344	0.030
-205.406	24.360	-0.067	0.054
-204.392	196.826	-0.075	-0.113
-203.377	-121.467	-0.136	0.022
-202.363	-200.000	-0.035	-0.182
-201.348	800.000	0.019	0.060
-200.333	210.822	0.045	0.069
-199.319	462.514	-0.037	0.082
-198.304	-103.626	-0.200	-0.046
-197.290	408.707	-0.062	0.128
-196.275	777.274	0.102	0.273
-195.260	-200.000	-0.044	0.316
-194.246	-167.971	-0.170	0.007
-193.231	-19.610	0.411	0.249
-192.217	18.621	-0.164	0.129
-191.202	-66.273	0.280	0.109
-190.187	30.182	-0.315	-0.264
-189.173	303.886	-0.233	0.424
-188.158	-26.879	-0.151	0.086
-187.144	-12.167	0.387	0.248
-186.129	-125.377	0.308	0.046
-185.114	19.315	-0.117	0.092
-184.100	138.360	-0.086	0.111
-183.085	314.039	0.075	-0.139
-182.071	-23.300	-0.106	0.063
-181.056	171.959	0.095	-0.133
-180.042	-16.629	-0.190	0.118
-179.027	-142.957	-0.064	0.006
-178.012	317.330	-0.089	0.165
-176.998	-17.142	-0.054	0.033
-175.983	-182.732	-0.292	0.005
-174.969	-12.225	0.256	0.165
-173.954	303.613	-0.099	-0.181
-172.939	-14.154	0.135	-0.085
-171.925	-200.000	0.022	-0.116
-170.910	-200.000	0.075	-0.324
-169.896	50.977	0.226	0.210
-168.881	-66.634	-0.158	0.061
-167.866	800.000	-0.046	0.151
-166.852	510.999	0.112	-0.255
-165.837	154.096	0.204	-0.274
-164.823	553.682	-0.052	0.122
-163.808	-123.009	0.518	0.082
-162.793	-200.000	0.054	-0.240
-161.779	3.798	-0.120	-0.086
-160.764	-49.109	0.410	0.192
-159.750	-35.238	0.174	0.093
-158.735	196.715	0.128	0.191
-157.720	267.434	-0.030	0.051
-156.706	100.240	0.187	0.212
-155.691	-65.844	-0.241	0.094
-154.677	-110.847	-0.161	0.033
-153.662	15.563	0.129	0.100
-152.647	-9.355	0.102	-0.067
-151.633	359.323	-0.134	-0.263
-150.618	800.000	0.068	0.273
-149.604	-64.159	0.088	-0.035
-148.589	231.335	0.064	-0.102
-147.574	-30.273	0.194	-0.108
-146.560	-145.801	-0.256	-0.022
-145.545	281.455	-0.209	0.366
-144.531	268.976	0.181	0.310
-143.516	-200.000	0.024	0.216
-142.502	800.000	-0.048	-0.165
-141.487	-146.174	-0.091	-0.008
-140.472	-150.000	0.359	-0.027
-139.458	800.000	-0.094	0.288
-138.443	-166.216	0.117	-0.005
-137.429	800.000	0.017	-0.072
-136.414	800.000	-0.079	0.212
-135.399	163.271	0.221	0.304
-134.385	159.207	0.162	-0.220
-133.370	276.874	0.085	0.148
-132.356	-200.000	0.023	0.152
-131.341	-49.145	0.109	0.051
-130.326	-98.952	0.263	0.065
-129.312	-111.104	0.334	-0.067
-128.297	800.000	0.032	0.111
-127.283	-200.000	0.011	-0.246
-126.268	-200.000	0.024	-0.589
-125.253	-84.673	0.064	-0.020
-124.239	-20.194	0.184	-0.111
-123.224	-103.549	0.206	0.047
-122.210	94.881	0.093	-0.104
-121.195	-116.519	-0.335	0.061
-120.180	395.865	0.085	-0.173
-119.166	20.594	-0.073	-0.058
-118.151	-200.000	-0.013	-0.229
-117.137	48.571	0.253	-0.232
-116.122	-106.724	0.246	-0.053
-115.107	-4.317	0.139	-0.094
-114.093	142.963	0.256	-0.333
-113.078	146.389	-0.051	-0.068
-112.064	25.618	0.208	0.169
-111.049	192.588	0.059	0.086
-110.034	2.230	-0.068	-0.048
-109.020	129.809	0.196	0.246
-108.005	2.497	-0.071	-0.050
-106.991	431.044	0.109	-0.230
-105.976	-113.650	-0.114	0.022
-104.962	-200.000	-0.033	-0.176
-103.947	145.828	0.251	0.329
-102.932	74.353	-0.080	0.082
-101.918	367.167	0.113	-0.223
-100.903	331.475	-0.122	-0.230
-99.889	-3.817	0.165	0.112
-98.874	-16.539	-0.263	-0.163
-97.859	-100.798	0.217	-0.052
-96.845	-200.000	0.077	0.362
-95.830	477.364	-0.043	-0.095
-94.816	-35.077	0.111	0.059
-93.801	61.165	0.122	0.118
-92.786	268.798	-0.093	-0.159
-91.772	-162.795	0.368	0.018
-90.757	-111.611	0.390	-0.077
-89.743	-200.000	0.001	0.152
-88.728	-200.000	0.033	0.190
-87.713	97.308	0.049	0.055
-86.699	-92.628	0.213	-0.058
-85.684	-200.000	0.046	0.314
-84.670	-200.000	-0.015	0.307
-83.655	260.849	0.161	0.272
-82.640	-22.992	-0.320	-0.188
-81.626	-160.955	0.189	0.010
-80.611	105.803	0.021	-0.024
-79.597	-17.258	-0.237	0.146
-78.582	800.000	0.088	0.335
-77.567	-109.619	0.354	0.073
-76.553	-33.613	-0.068	0.036
-75.538	-54.509	-0.077	0.034
-74.524	-95.918	-0.082	0.021
-73.509	172.337	-0.141	0.197
-72.494	356.222	0.088	0.171
-71.480	800.000	-0.062	0.244
-70.465	639.879	0.141	-0.351
-69.451	235.396	-0.087	0.141
-68.436	800.000	0.017	0.050
-67.422	-69.891	0.204	0.076
-66.407	174.508	0.311	-0.440
-65.392	-119.775	0.231	0.039
-64.378	277.068	0.128	-0.223
-63.363	800.000	0.080	0.246
-62.349	-200.000	0.038	0.406
-61.334	234.388	-0.869	-1.398
-60.319	217.115	0.491	0.763
-59.305	-200.000	-0.218	-1.244
-58.290	687.113	0.607	1.549
-57.276	623.779	0.685	1.685
-56.261	-200.000	116.144	644.786
-55.246	503.936	1537.584	3472.009
-54.232	176.979	2705.786	3842.196
-53.217	104.561	2169.532	2493.689
-52.203	37.095	1686.918	1457.070
-51.188	29.585	1502.937	1247.609
-50.173	27.422	1477.989	1212.463
-49.159	49.805	1538.825	1415.340
-48.144	48.462	1553.253	1419.417
-47.130	29.652	1508.702	1252.649
-46.115	26.732	1493.256	1220.146
-45.100	26.420	1490.253	1215.552
-44.086	26.451	1488.538	1214.306
-43.071	26.399	1486.355	1212.133
-42.057	26.361	1484.749	1210.521
-41.042	26.375	1483.410	1209.471
-40.027	26.398	1481.503	1208.022
-39.013	26.467	1479.761	1207.015
-37.998	26.417	1479.443	1206.375
-36.984	26.341	1478.598	1205.132
-35.969	26.419	1477.079	1204.365
-34.954	26.503	1475.140	1203.293
-33.940	26.403	1473.762	1201.463
-32.925	26.456	1472.895	1201.056
-31.911	26.483	1471.056	1199.691
-30.896	26.580	1469.419	1198.950
-29.881	26.544	1468.664	1198.047
-28.867	26.549	1467.449	1197.040
-27.852	26.479	1466.612	1195.848
-26.838	26.535	1464.806	1194.699
-25.823	26.507	1463.032	1193.019
-24.809	26.519	1461.895	1192.123
-23.794	26.474	1460.255	1190.445
-22.779	26.525	1459.154	1189.832
-21.765	26.503	1458.330	1188.968
-20.750	26.541	1456.977	1188.070
-19.736	26.555	1455.883	1187.223
-18.721	26.426	1455.032	1185.633
-17.706	26.489	1453.714	1184.924
-16.692	26.484	1452.495	1183.852
-15.677	26.516	1451.276	1183.020
-14.663	26.454	1450.804	1182.187
-13.648	26.461	1449.586	1181.192
-12.633	26.511	1448.425	1180.523
-11.619	26.439	1448.387	1179.979
-10.604	26.332	1447.450	1178.470
-9.590	26.466	1446.091	1178.190
-8.575	26.379	1445.671	1177.231
-7.560	26.472	1443.884	1176.335
-6.546	26.485	1443.419	1175.994
-5.531	26.452	1442.614	1175.075
-4.517	26.414	1441.938	1174.233
-3.502	26.474	1440.873	1173.708
-2.487	26.436	1439.662	1172.430
-1.473	26.392	1438.872	1171.457
-0.458	26.429	1437.428	1170.472
0.556	26.663	1427.687	1159.100
1.571	23.719	1402.985	1120.405
2.586	20.212	1342.781	1051.017
3.600	18.567	1261.364	977.829
4.615	17.416	1217.500	937.408
5.629	15.001	1161.274	881.330
6.644	8.666	1080.565	788.867
7.659	3.797	1044.798	739.439
8.673	3.224	1039.383	732.816
9.688	3.193	1036.316	730.442
10.702	3.141	1035.011	729.213
11.717	3.152	1033.025	727.797
12.731	4.915	1034.155	736.873
13.746	11.387	1043.043	773.926
14.761	17.879	1050.762	810.508
15.775	19.746	1052.910	820.969
16.790	19.310	1051.146	817.453
17.804	18.296	1049.262	811.114
18.819	17.347	1047.582	805.254
19.834	17.031	1046.020	802.486
20.848	16.957	1045.032	801.306
21.863	16.708	1044.776	799.866
22.877	16.542	1043.696	798.183
23.892	16.421	1042.987	797.000
24.907	16.374	1042.071	796.007
25.921	16.290	1041.827	795.357
26.936	16.344	1041.054	794.948
27.950	16.441	1039.291	793.991
28.965	16.380	1038.458	792.997
29.980	16.428	1037.232	792.213
30.994	16.502	1036.675	792.067
32.009	16.617	1035.713	791.800
33.023	16.585	1034.953	790.997
34.038	16.732	1033.967	790.861
35.053	16.553	1032.879	789.122
36.067	16.556	1032.120	788.490
37.082	16.330	1031.406	786.822
38.096	16.532	1030.616	787.086
39.111	16.452	1030.184	786.316
40.126	16.588	1029.130	786.076
41.140	16.554	1027.571	784.657
42.155	16.312	1026.473	782.629
43.169	16.214	1025.401	781.284
44.184	16.158	1024.447	780.231
45.199	16.026	1023.519	778.845
46.213	16.102	1022.436	778.303
47.228	16.294	1021.305	778.261
48.242	16.345	1020.172	777.563
49.257	16.494	1019.264	777.486
50.271	16.360	1018.849	776.483
51.286	16.419	1017.774	775.865
52.301	16.523	1016.815	775.544
53.315	16.359	1016.290	774.322
54.330	16.330	1015.501	773.520
55.344	16.235	1014.726	772.428
56.359	16.225	1013.710	771.540
57.374	16.200	1012.841	770.699
58.388	16.246	1012.044	770.233
59.403	16.138	1010.952	768.840
60.417	16.125	1009.886	767.901
61.432	16.024	1009.896	767.384
62.447	16.216	1008.969	767.485
63.461	16.072	1008.022	766.043
64.476	15.834	1007.520	764.511
65.490	15.905	1006.395	763.911
66.505	15.929	1005.527	763.292
67.520	16.061	1004.753	763.235
68.534	15.956	1004.570	762.555
69.549	16.035	1003.267	761.853
70.563	16.132	1002.250	761.453
71.578	15.867	1002.232	760.177
72.593	15.883	1000.980	759.230
73.607	15.842	999.624	757.953
74.622	15.753	998.796	756.855
75.636	15.774	998.027	756.301
76.651	15.826	997.338	755.944
77.666	15.854	996.517	755.381
78.680	15.881	995.817	754.905
79.695	15.994	995.046	754.762
80.709	15.988	994.780	754.462
81.724	16.024	994.237	754.147
82.739	16.149	993.088	753.768
83.753	16.005	992.742	752.796
84.768	16.326	991.890	753.513
85.782	16.551	991.141	753.883
86.797	16.586	990.794	753.708
87.812	16.600	989.813	752.956
88.826	16.526	988.724	751.731
89.841	16.435	988.040	750.740
90.855	16.481	987.339	750.347
91.870	16.650	986.557	750.436
92.884	16.703	985.765	750.004
93.899	16.641	985.028	749.100
94.914	16.556	984.274	748.084
95.928	16.741	983.834	748.502
96.943	16.857	983.155	748.431
97.957	16.645	982.456	746.897
98.972	16.578	981.410	745.740
99.987	16.594	981.113	745.519
101.001	16.557	979.879	744.353
102.016	16.535	979.736	744.080
103.030	16.542	978.476	743.090
104.045	16.630	976.925	742.231
105.060	16.734	975.935	741.872
106.074	16.689	974.961	740.867
107.089	16.355	974.293	738.832
108.103	16.122	973.474	737.129
109.118	16.069	972.347	735.978
110.133	16.039	971.569	735.195
111.147	16.082	970.481	734.492
112.162	16.002	969.883	733.625
113.176	16.253	969.140	734.090
114.191	16.146	968.198	732.848
115.206	16.279	967.678	732.965
116.220	16.147	967.093	731.884
117.235	16.210	966.054	731.309
118.249	16.100	965.462	730.321
119.264	16.229	964.171	729.837
120.279	16.067	963.547	728.597
121.293	16.078	962.707	727.947
122.308	15.892	961.944	726.505
123.322	16.017	961.065	726.314
124.337	15.947	959.971	725.121
125.352	15.913	958.433	723.749
126.366	15.800	958.336	723.126
127.381	15.903	956.836	722.374
128.395	15.807	956.217	721.429
129.410	15.919	955.020	720.940
130.424	15.870	954.239	720.077
131.439	16.041	953.318	720.052
132.454	16.207	952.158	719.819
133.468	16.249	951.525	719.455
134.483	16.085	951.279	718.509
135.497	16.188	950.701	718.445
136.512	16.071	949.991	717.347
137.527	16.310	948.947	717.513
138.541	16.167	948.314	716.364
139.556	16.263	947.270	715.918
140.570	16.277	946.592	715.404
141.585	16.284	946.155	715.038
142.600	16.455	945.662	715.324
143.614	16.541	944.780	714.960
144.629	16.728	944.311	715.333
145.643	16.764	943.769	715.007
146.658	16.587	942.485	713.229
147.673	16.471	941.613	712.018
148.687	16.410	940.321	710.719
149.702	16.368	939.668	709.986
150.716	16.164	938.873	708.466
151.731	16.233	937.662	707.779
152.746	16.272	937.020	707.395
153.760	16.389	936.135	707.153
154.775	16.108	936.249	706.001
155.789	16.374	935.273	706.314
156.804	16.437	934.653	706.047
157.819	16.566	933.676	705.787
158.833	16.483	933.181	705.001
159.848	16.528	932.290	704.454
160.862	16.663	931.913	704.671
161.877	16.667	931.082	703.994
162.892	16.519	929.976	702.483
163.906	16.142	929.520	700.508
164.921	16.434	928.072	700.568
165.935	16.367	927.209	699.578
166.950	16.320	926.293	698.627
167.964	16.494	925.822	698.932
168.979	16.525	924.252	697.810
169.994	16.450	923.527	696.892
171.008	16.460	922.534	696.125
172.023	16.500	921.850	695.710
173.037	16.558	921.987	695.991
174.052	16.809	920.620	695.928
175.067	16.729	919.976	695.052
176.081	16.618	919.233	693.974
177.096	16.354	918.465	692.251
178.110	16.386	917.732	691.767
179.125	16.396	916.917	691.133
180.140	16.377	916.155	690.419
181.154	16.431	915.392	690.004
182.169	16.616	915.031	690.427
183.183	16.602	914.827	690.154
184.198	16.905	913.762	690.523
185.213	16.749	913.681	689.767
186.227	16.853	912.394	689.159
187.242	16.769	912.198	688.608
188.256	16.804	911.484	688.148
189.271	16.925	910.492	687.831
190.286	17.066	909.847	687.854
191.300	16.831	908.885	686.114
192.315	16.495	907.995	684.020
193.329	16.337	907.365	682.847
194.344	16.297	906.304	681.826
195.359	16.428	906.597	682.516
196.373	16.603	905.799	682.563
197.388	16.686	905.112	682.319
198.402	16.811	905.057	682.720
199.417	16.868	904.758	682.665
200.432	17.154	903.986	683.170
201.446	17.121	903.646	682.720
202.461	17.195	903.476	682.830
203.475	17.360	902.428	682.639
204.490	17.215	902.114	681.761
205.504	17.094	901.455	680.714
206.519	17.042	899.931	679.298
207.534	16.872	899.250	678.043
208.548	17.065	898.602	678.267
209.563	16.817	898.099	676.834
210.577	16.965	897.415	676.852
211.592	16.933	896.670	676.103
212.607	17.179	896.495	676.891
213.621	17.240	896.400	677.002
214.636	17.071	895.494	675.584
215.650	17.103	894.689	675.044
216.665	17.090	894.328	674.662
217.680	17.217	894.006	674.862
218.694	17.308	893.552	674.823
219.709	17.276	892.534	673.867
220.723	17.380	891.951	673.777
221.738	17.174	891.478	672.547
222.753	17.285	890.506	672.191
223.767	17.297	889.958	671.765
224.782	17.270	889.360	671.149
225.796	17.442	888.336	670.997
226.811	17.621	887.804	671.240
227.826	17.346	887.594	669.936
228.840	17.286	886.714	668.980
229.855	17.183	885.718	667.763
230.869	17.257	885.204	667.606
231.884	17.303	884.659	667.317
232.899	17.263	883.921	666.545
233.913	17.230	883.160	665.784
234.928	17.206	882.254	664.945
235.942	17.145	881.454	664.048
236.957	17.198	881.079	663.912
237.972	17.167	880.573	663.351
238.986	17.117	880.050	662.705
240.001	17.176	879.639	662.566
241.015	17.164	878.920	661.920
242.030	17.076	878.005	660.830
243.045	17.189	877.513	660.838
244.059	17.333	876.884	660.866
245.074	17.451	876.218	660.764
246.088	17.294	875.792	659.775
247.103	17.572	875.178	660.331
248.117	17.533	874.494	659.608
249.132	17.536	874.554	659.606
250.147	17.755	874.014	659.986
251.161	17.982	872.867	659.939
252.176	18.164	872.220	660.095
253.190	18.021	871.853	659.207
254.205	18.013	871.385	658.765
255.220	18.251	870.927	659.275
256.234	17.995	870.484	657.898
257.249	18.054	869.570	657.374
258.263	18.085	869.032	657.031
259.278	17.999	868.673	656.369
260.293	18.132	867.929	656.259
261.307	18.139	867.243	655.710
262.322	18.253	866.576	655.586
263.336	18.174	866.311	655.023
264.351	18.309	865.906	655.178
265.366	18.267	865.354	654.541
266.380	18.192	864.679	653.685
267.395	18.229	863.813	653.115
268.409	18.197	862.748	652.128
269.424	18.121	861.938	651.168
270.439	18.081	861.596	650.702
271.453	18.137	860.772	650.233
272.468	18.009	859.974	649.085
273.482	18.002	859.656	648.764
274.497	17.969	859.193	648.231
275.512	17.972	858.554	647.705
276.526	18.135	857.239	647.270
277.541	18.123	856.847	646.873
278.555	18.053	856.458	646.256
279.570	18.127	856.390	646.429
280.585	18.186	855.937	646.250
281.599	18.364	855.127	646.254
282.614	18.230	854.345	645.102
283.628	18.110	853.660	644.074
284.643	18.093	853.114	643.541
285.657	18.155	852.697	643.402
286.672	18.276	851.784	643.113
287.687	18.231	851.548	642.709
288.701	18.366	851.069	642.798
289.716	18.465	850.124	642.396
290.730	18.381	849.764	641.753
291.745	18.329	849.153	641.041
292.760	18.477	848.145	640.777
293.774	18.276	848.108	639.941
294.789	18.478	847.507	640.185
295.803	18.517	846.650	639.625
296.818	18.351	846.115	638.546
297.833	18.244	845.514	637.637
298.847	18.215	845.076	637.144
299.862	18.230	844.184	636.472
300.876	18.326	843.343	636.137
301.891	18.564	842.718	636.491
302.906	18.519	842.399	636.027
303.920	18.679	841.541	635.915
304.935	18.652	841.355	635.621
305.949	18.665	840.815	635.205
306.964	18.602	840.054	634.341
307.979	18.759	839.099	634.143
308.993	18.657	838.893	633.552
310.008	18.696	838.514	633.356
311.022	18.675	838.096	632.907
312.037	18.842	837.387	632.932
313.052	18.553	836.914	631.453
314.066	18.587	836.306	631.063
315.081	18.383	835.765	629.847
316.095	18.434	834.791	629.248
317.110	18.501	834.383	629.128
318.125	18.382	834.314	628.583
319.139	18.468	833.303	628.081
320.154	18.595	832.669	628.014
321.168	18.435	832.322	627.111
322.183	18.541	831.823	627.067
323.197	18.671	831.187	627.007
324.212	18.545	830.787	626.191
325.227	18.608	830.426	626.093
326.241	18.616	829.934	625.695
327.256	18.716	828.799	625.149
328.270	18.707	828.357	624.729
329.285	18.430	828.166	623.521
330.300	18.598	827.049	623.234
331.314	18.451	827.127	622.703
332.329	18.543	826.383	622.421
333.343	18.718	826.148	622.827
334.358	18.758	825.550	622.466
335.373	18.899	824.937	622.458
336.387	18.998	823.987	622.045
337.402	18.928	823.680	621.502
338.416	18.874	823.554	621.160
339.431	19.073	823.209	621.563
340.446	19.050	822.734	621.067
341.460	19.073	821.964	620.512
342.475	19.016	821.447	619.860
343.489	19.224	820.814	620.077
344.504	19.321	820.498	620.135
345.519	19.306	819.774	619.476
346.533	19.378	819.000	619.096
347.548	19.517	818.480	619.147
348.562	19.297	817.609	617.644
349.577	19.259	817.040	617.023
350.592	19.014	816.701	615.838
351.606	18.967	816.305	615.315
352.621	19.035	815.929	615.222
353.635	19.003	815.545	614.763
354.650	18.933	815.306	614.276
355.665	19.015	814.823	614.154
356.679	19.135	814.319	614.145
357.694	19.275	813.827	614.221
358.708	19.052	813.535	613.151
359.723	19.162	812.785	612.924
360.738	19.178	812.048	612.369
361.752	19.141	811.640	611.877
362.767	19.232	811.251	611.851
363.781	19.347	811.050	612.055
364.796	19.486	810.664	612.202
365.810	19.432	810.212	611.616
366.825	19.656	809.829	612.067
367.840	19.636	809.566	611.740
368.854	19.732	808.954	611.565
369.869	19.482	808.649	610.397
370.883	19.463	807.861	609.682
371.898	19.468	807.161	609.117
372.913	19.546	806.687	608.979
373.927	19.646	806.064	608.809
374.942	19.572	805.560	608.114
375.956	19.700	804.439	607.663
376.971	19.702	804.442	607.620
377.986	19.723	803.907	607.233
379.000	19.864	803.121	607.082
380.015	19.872	802.784	606.802
381.029	19.867	802.260	606.334
382.044	19.810	801.764	605.706
383.059	19.767	801.447	605.262
384.073	19.757	800.661	604.581
385.088	19.901	799.929	604.478
386.102	19.789	799.365	603.606
387.117	19.636	798.989	602.736
388.132	19.568	798.643	602.185
389.146	19.579	798.405	601.990
390.161	19.623	797.896	601.704
391.175	19.762	797.594	601.908
392.190	19.920	797.229	602.129
393.205	19.870	796.923	601.672
394.219	19.719	796.055	600.439
395.234	19.722	795.632	600.076
396.248	19.706	794.969	599.467
397.263	19.517	794.614	598.492
398.278	19.452	794.070	597.802
399.292	19.536	793.228	597.408
400.307	19.609	793.213	597.595
401.321	19.457	792.545	596.515
402.336	19.520	792.216	596.432
403.350	19.645	792.051	596.688
404.365	19.781	791.596	596.759
405.380	19.880	791.059	596.644
406.394	20.048	790.765	596.950
407.409	19.860	790.624	596.142
408.423	20.038	789.956	596.196
409.438	20.273	789.168	596.356
410.453	20.177	789.472	596.206
411.467	20.217	788.874	595.838
412.482	20.320	788.273	595.686
413.496	20.324	787.684	595.199
414.511	20.445	787.191	595.190
415.526	20.370	787.263	594.933
416.540	20.261	786.979	594.294
417.555	20.146	786.640	593.591
418.569	20.220	785.770	593.137
419.584	20.353	785.246	593.142
420.599	20.175	785.089	592.363
421.613	162.795	1369.906	1797.542
422.628	140.897	1455.102	1797.623
