DTS Sentinel unit serial number:	SN413079Multiplexer serial number:	ORYXHardware model number:	OX4-SRSoftware version number:	ORYX F/W v4.00 Oryx Data Collector v3.7.2.0data status	okinstallation	princeton_trtdifferential loss correction	single-endedforward channel	channel 3reverse channel	N/Adate	2019/09/18time	13:16:35forward acquisition time	60.00reverse acquisition time	0.00gamma	496.2192k internal	0.2312k external	0.2312temperature offset calibration	0.9969default loss term (dB/km)	0.3790temperature slope calibration	1.0000multiplexer offset coefficient	1.0000multiplexer slope coefficient	1.0000fibre end	0.00T internal ref (°C)	34.05T ext. ref 1 (°C)	0.60T ext. ref 2 (°C)	30.40length (m)	temperature (°C)	Stokes	anti-Stokes-747.200	-20.827	-0.210	0.131
-746.185	333.309	0.093	0.183
-745.171	-33.229	0.258	0.145
-744.156	-139.263	-0.213	0.023
-743.142	800.000	0.034	-0.116
-742.127	433.798	0.223	0.492
-741.112	99.621	0.209	0.245
-740.098	-200.000	0.024	-0.151
-739.083	338.668	-0.122	-0.241
-738.069	2.641	-0.263	0.194
-737.054	-112.338	0.141	0.029
-736.039	-200.000	-0.005	-0.056
-735.025	-118.753	0.384	0.069
-734.010	428.630	-0.159	-0.348
-732.996	-146.443	-0.391	0.035
-731.981	155.337	-0.218	-0.304
-730.966	-104.393	-0.189	0.044
-729.952	800.000	-0.048	-0.141
-728.937	-11.243	0.200	0.134
-727.923	-200.000	-0.048	-0.305
-726.908	-200.000	0.022	-0.544
-725.894	-200.000	-0.005	-0.067
-724.879	303.713	-0.077	0.145
-723.864	-31.284	-0.454	-0.259
-722.850	40.941	-0.087	0.079
-721.835	-61.226	0.331	0.142
-720.821	78.610	0.118	0.127
-719.806	-200.000	0.028	-0.180
-718.791	-91.787	-0.141	0.041
-717.777	726.811	-0.032	0.085
-716.762	-152.676	-0.044	0.003
-715.748	-144.046	0.101	0.010
-714.733	-200.000	-0.069	-0.364
-713.718	-145.254	0.178	-0.016
-712.704	-6.208	-0.131	-0.090
-711.689	-136.566	-0.273	0.032
-710.675	-34.260	0.239	-0.133
-709.660	-3.226	-0.068	-0.048
-708.645	91.345	0.224	-0.255
-707.631	-122.016	-0.070	-0.012
-706.616	74.246	0.064	-0.068
-705.602	275.586	-0.086	-0.154
-704.587	-32.374	-0.362	-0.205
-703.572	413.269	0.127	-0.274
-702.558	166.318	0.155	-0.223
-701.543	-200.000	-0.000	-0.130
-700.529	-200.000	0.010	-0.111
-699.514	-200.000	0.039	-0.291
-698.499	-200.000	-0.011	-0.179
-697.485	800.000	0.036	-0.156
-696.470	-200.000	0.010	0.076
-695.456	-200.000	-0.010	0.176
-694.441	-93.125	0.201	0.057
-693.426	17.411	0.168	-0.135
-692.412	-200.000	-0.000	-0.018
-691.397	-200.000	0.010	0.228
-690.383	800.000	-0.066	0.190
-689.368	-200.000	-0.010	0.125
-688.354	44.447	-0.073	-0.068
-687.339	311.832	-0.071	-0.134
-686.324	603.116	0.049	-0.124
-685.310	10.133	-0.218	-0.168
-684.295	66.036	0.205	0.210
-683.281	300.781	0.143	-0.267
-682.266	56.263	-0.032	0.031
-681.251	740.351	-0.166	0.452
-680.237	9.404	0.150	0.115
-679.222	-108.762	0.283	0.061
-678.208	-90.670	0.156	0.045
-677.193	118.072	-0.305	-0.381
-676.178	-30.100	0.147	-0.085
-675.164	-110.382	-0.212	-0.045
-674.149	-23.578	-0.110	-0.067
-673.135	-142.044	-0.140	0.014
-672.120	-39.962	-0.018	0.010
-671.105	-64.018	-0.263	0.109
-670.091	800.000	-0.048	0.137
-669.076	691.636	0.027	-0.071
-668.062	-36.371	-0.298	-0.162
-667.047	-200.000	-0.007	-0.032
-666.032	465.269	0.172	0.390
-665.018	291.725	-0.293	-0.540
-664.003	-164.676	-0.258	0.012
-662.989	200.539	0.138	0.214
-661.974	668.273	-0.064	0.167
-660.959	-200.000	0.022	-0.192
-659.945	215.359	-0.042	-0.068
-658.930	-101.902	0.338	0.083
-657.916	246.251	0.117	-0.200
-656.901	10.633	-0.112	0.086
-655.886	5.607	-0.144	0.108
-654.872	278.223	0.160	-0.287
-653.857	-141.252	0.198	-0.020
-652.843	-73.555	-0.426	0.157
-651.828	617.611	0.122	-0.308
-650.814	53.891	-0.124	0.120
-649.799	-53.395	0.298	0.138
-648.784	-200.000	-0.033	-0.213
-647.770	-110.090	0.077	-0.016
-646.755	-6.709	0.154	-0.106
-645.741	800.000	-0.091	-0.322
-644.726	767.103	0.204	-0.561
-643.711	-12.190	0.179	-0.119
-642.697	-200.000	-0.006	0.150
-641.682	40.680	-0.236	0.215
-640.668	110.138	-0.044	-0.053
-639.653	-200.000	-0.002	-0.012
-638.638	-35.602	0.148	0.081
-637.624	-98.903	-0.326	0.084
-636.609	205.690	0.052	0.081
-635.595	800.000	-0.081	-0.338
-634.580	13.621	-0.177	-0.139
-633.565	728.721	-0.054	0.145
-632.551	8.287	-0.083	0.063
-631.536	800.000	-0.013	-0.054
-630.522	-95.605	-0.213	-0.058
-629.507	258.749	-0.055	-0.096
-628.492	-200.000	0.019	0.133
-627.478	-200.000	0.018	0.349
-626.463	-85.193	0.149	0.047
-625.449	135.521	-0.097	-0.128
-624.434	97.300	0.086	-0.100
-623.419	38.323	0.155	0.139
-622.405	-166.706	-0.249	-0.010
-621.390	-19.278	-0.084	0.052
-620.376	7.288	-0.252	0.190
-619.361	-121.330	-0.068	-0.012
-618.346	466.141	0.120	-0.272
-617.332	321.867	0.060	0.115
-616.317	-177.570	-0.266	-0.007
-615.303	-25.075	0.382	0.228
-614.288	135.594	0.104	0.137
-613.273	-200.000	-0.018	-0.142
-612.259	0.570	-0.114	-0.083
-611.244	18.008	-0.094	-0.076
-610.230	-29.562	-0.056	-0.032
-609.215	-163.403	-0.196	0.009
-608.201	-200.000	-0.041	-0.204
-607.186	0.638	-0.090	-0.065
-606.171	214.868	-0.050	0.080
-605.157	-59.527	-0.160	0.069
-604.142	127.223	-0.181	-0.231
-603.128	277.422	-0.047	-0.084
-602.113	725.833	-0.098	-0.263
-601.098	-29.822	-0.032	0.019
-600.084	169.335	-0.117	-0.169
-599.069	-7.235	0.284	-0.194
-598.055	-123.357	0.172	0.028
-597.040	-200.000	0.034	-0.242
-596.025	-59.514	-0.402	0.174
-595.011	-25.861	0.218	0.129
-593.996	800.000	-0.010	-0.041
-592.982	-200.000	0.007	0.178
-591.967	-200.000	0.014	0.126
-590.952	-200.000	-0.014	0.323
-589.938	-200.000	0.095	0.448
-588.923	-108.890	-0.240	0.052
-587.909	-200.000	-0.036	-0.430
-586.894	-200.000	-0.019	0.262
-585.879	334.105	0.028	0.054
-584.865	10.229	-0.078	0.060
-583.850	-200.000	-0.042	-0.363
-582.836	503.662	-0.139	-0.325
-581.821	-200.000	0.002	-0.058
-580.806	708.475	0.015	-0.041
-579.792	-49.950	0.245	0.117
-578.777	-98.284	-0.165	-0.043
-577.763	800.000	0.024	-0.076
-576.748	-200.000	-0.025	-0.111
-575.733	45.437	0.030	-0.028
-574.719	233.411	0.025	0.041
-573.704	31.757	-0.108	-0.094
-572.690	25.806	0.167	0.141
-571.675	-113.108	-0.241	0.048
-570.661	-18.579	-0.086	0.054
-569.646	-200.000	0.065	0.311
-568.631	-4.974	-0.122	0.084
-567.617	122.660	0.248	0.312
-566.602	109.603	-0.073	-0.088
-565.588	91.307	0.196	0.221
-564.573	113.922	-0.229	-0.281
-563.558	320.599	-0.116	-0.221
-562.544	345.131	0.100	-0.197
-561.529	-3.963	-0.224	0.157
-560.515	-46.758	-0.056	0.028
-559.500	-83.315	-0.301	-0.097
-558.485	-25.838	0.237	-0.141
-557.471	-74.348	0.220	-0.080
-556.456	800.000	0.067	0.197
-555.442	611.949	0.070	-0.177
-554.427	-87.582	0.504	0.153
-553.412	39.137	0.166	-0.150
-552.398	93.248	0.128	-0.145
-551.383	-121.855	0.557	0.093
-550.369	-200.000	-0.018	0.152
-549.354	-126.234	-0.209	0.031
-548.339	-137.002	0.160	-0.018
-547.325	-200.000	0.020	0.125
-546.310	-200.000	-0.053	0.361
-545.296	162.912	-0.039	0.055
-544.281	357.662	0.122	0.246
-543.266	68.901	0.113	-0.116
-542.252	129.296	0.065	0.084
-541.237	-13.760	-0.506	-0.330
-540.223	265.336	-0.029	0.051
-539.208	115.904	-0.233	-0.287
-538.193	-73.778	-0.230	-0.084
-537.179	111.918	-0.254	0.309
-536.164	-100.092	-0.190	-0.048
-535.150	-67.158	0.354	-0.140
-534.135	800.000	0.066	0.244
-533.121	23.123	0.149	-0.123
-532.106	624.328	-0.059	0.150
-531.091	-200.000	0.009	-0.162
-530.077	-91.718	0.232	-0.066
-529.062	-69.474	-0.286	0.110
-528.048	-37.917	0.257	-0.137
-527.033	800.000	0.045	0.140
-526.018	203.417	0.125	0.194
-525.004	133.362	-0.048	0.062
-523.989	8.186	0.138	-0.104
-522.975	-200.000	0.036	-0.170
-521.960	-116.903	0.339	0.062
-520.945	-185.840	0.200	-0.003
-519.931	72.791	0.075	0.079
-518.916	53.832	-0.170	0.164
-517.902	-70.487	0.237	0.090
-516.887	-176.730	0.172	0.004
-515.872	-107.120	0.220	0.049
-514.858	-185.510	0.137	-0.002
-513.843	800.000	-0.108	-0.413
-512.829	-46.254	-0.249	-0.123
-511.814	24.144	0.157	-0.130
-510.799	-86.308	-0.203	0.063
-509.785	607.795	-0.087	-0.219
-508.770	-200.000	-0.021	-0.183
-507.756	800.000	0.061	-0.190
-506.741	-42.764	-0.079	-0.040
-505.726	-200.000	-0.009	-0.260
-504.712	257.149	-0.069	-0.120
-503.697	-200.000	0.041	0.344
-502.683	-80.366	-0.144	-0.048
-501.668	800.000	-0.021	-0.060
-500.653	-200.000	-0.016	-0.081
-499.639	800.000	-0.046	0.200
-498.624	-116.257	-0.307	-0.057
-497.610	101.198	0.119	0.139
-496.595	705.592	-0.037	-0.099
-495.581	-43.340	-0.144	0.073
-494.566	35.234	0.078	0.069
-493.551	-13.730	0.123	-0.080
-492.537	-170.976	-0.541	0.019
-491.522	-125.445	0.277	-0.042
-490.508	800.000	-0.065	0.255
-489.493	268.504	-0.070	-0.124
-488.478	23.093	0.042	-0.034
-487.464	260.204	0.161	0.280
-486.449	42.521	-0.194	0.178
-485.435	-200.000	0.027	0.124
-484.420	274.730	-0.042	-0.074
-483.405	-77.774	0.187	0.065
-482.391	800.000	0.044	0.162
-481.376	106.720	-0.197	0.235
-480.362	164.820	-0.154	-0.218
-479.347	-122.443	0.174	-0.028
-478.332	142.002	-0.156	-0.208
-477.318	208.213	0.104	0.164
-476.303	-152.618	-0.113	0.008
-475.289	290.667	0.096	-0.175
-474.274	-115.528	0.121	0.023
-473.259	-80.271	0.097	-0.033
-472.245	-200.000	-0.032	-0.176
-471.230	53.176	-0.197	-0.190
-470.216	54.601	-0.082	0.079
-469.201	327.734	-0.031	-0.059
-468.186	232.501	-0.072	0.119
-467.172	-81.335	0.040	0.013
-466.157	125.525	-0.183	0.231
-465.143	-60.592	-0.074	0.032
-464.128	800.000	0.036	-0.150
-463.113	800.000	0.057	0.236
-462.099	-112.645	-0.184	0.037
-461.084	-76.301	-0.059	0.021
-460.070	-29.907	0.127	-0.073
-459.055	476.286	0.127	0.287
-458.040	-147.056	-0.220	-0.019
-457.026	-200.000	0.012	0.122
-456.011	546.275	-0.039	-0.095
-454.997	-24.362	0.066	-0.039
-453.982	-200.000	0.022	-0.138
-452.968	-118.939	-0.218	0.038
-451.953	-200.000	-0.017	-0.139
-450.938	800.000	0.085	-0.304
-449.924	-14.768	-0.248	-0.160
-448.909	-104.244	-0.239	-0.056
-447.895	800.000	0.036	0.149
-446.880	-107.863	0.196	-0.043
-445.865	-180.355	-0.126	0.003
-444.851	-175.594	-0.102	-0.003
-443.836	-200.000	-0.028	0.208
-442.822	96.389	-0.134	-0.153
-441.807	-200.000	0.041	-0.388
-440.792	-117.605	0.363	0.066
-439.778	-5.009	-0.099	0.068
-438.763	-185.153	0.146	0.002
-437.749	194.172	-0.053	-0.080
-436.734	184.109	-0.404	0.600
-435.719	-10.950	0.213	0.141
-434.705	267.727	0.053	-0.093
-433.690	-23.269	0.141	0.085
-432.676	-27.315	0.150	0.087
-431.661	-200.000	0.010	-0.120
-430.646	32.740	-0.172	-0.150
-429.632	-200.000	-0.001	0.587
-428.617	-200.000	-0.000	-0.183
-427.603	45.731	0.268	-0.249
-426.588	-200.000	-0.026	0.203
-425.573	-200.000	-0.035	0.586
-424.559	-200.000	0.031	-0.222
-423.544	-200.000	-0.068	0.432
-422.530	337.291	-0.128	-0.249
-421.515	-145.021	-0.045	0.004
-420.500	-148.358	-0.091	-0.008
-419.486	-200.000	0.014	-0.157
-418.471	108.300	-0.172	-0.206
-417.457	726.397	0.108	-0.288
-416.442	320.240	-0.128	-0.243
-415.428	-200.000	0.010	0.259
-414.413	740.594	0.075	0.202
-413.398	167.766	-0.210	0.299
-412.384	-140.259	0.380	0.040
-411.369	-200.000	0.032	-0.142
-410.355	-70.187	-0.311	0.118
-409.340	-38.879	0.276	-0.146
-408.325	-154.941	-0.062	-0.004
-407.311	-50.801	-0.133	0.063
-406.296	466.989	-0.107	-0.241
-405.282	-23.108	0.017	-0.010
-404.267	-51.758	0.193	0.090
-403.252	-65.874	-0.298	-0.119
-402.238	-100.600	0.090	-0.022
-401.223	-16.013	0.193	0.123
-400.209	633.565	0.062	0.157
-399.194	364.341	-0.124	0.250
-398.179	124.124	0.077	0.097
-397.165	-140.063	0.423	-0.045
-396.150	-200.000	0.012	-0.123
-395.136	-192.638	-0.093	0.001
-394.121	480.074	-0.105	0.239
-393.106	800.000	-0.014	0.040
-392.092	276.053	-0.060	-0.106
-391.077	344.190	0.072	0.141
-390.063	66.669	-0.121	-0.123
-389.048	69.477	-0.104	0.107
-388.033	-80.690	-0.257	0.086
-387.019	-7.108	-0.255	-0.173
-386.004	191.190	0.103	-0.156
-384.990	299.817	-0.149	-0.275
-383.975	-200.000	-0.054	0.299
-382.960	-200.000	0.001	-0.179
-381.946	-11.461	0.150	0.099
-380.931	-73.743	0.339	0.123
-379.917	800.000	0.039	0.108
-378.902	-4.973	-0.103	0.071
-377.888	-89.188	-0.174	0.051
-376.873	-12.050	0.203	-0.133
-375.858	800.000	0.041	-0.133
-374.844	15.936	-0.433	-0.341
-373.829	122.784	-0.106	0.133
-372.815	-137.405	0.298	0.034
-371.800	-200.000	-0.028	0.249
-370.785	-154.226	0.326	-0.022
-369.771	240.060	0.111	-0.185
-368.756	-104.593	-0.029	0.007
-367.742	274.052	-0.080	-0.141
-366.727	800.000	-0.023	-0.079
-365.712	-115.225	-0.410	0.078
-364.698	355.965	0.135	-0.269
-363.683	420.418	0.109	-0.234
-362.669	-200.000	0.005	0.130
-361.654	4.138	-0.251	-0.183
-360.639	183.423	0.211	-0.312
-359.625	-200.000	-0.013	-0.179
-358.610	15.675	0.178	-0.140
-357.596	800.000	-0.095	-0.278
-356.581	-169.847	0.144	0.005
-355.566	22.292	-0.204	0.167
-354.552	12.362	0.072	0.055
-353.537	212.418	-0.050	0.079
-352.523	-111.392	0.076	-0.015
-351.508	-118.169	-0.088	-0.016
-350.493	81.460	0.144	-0.155
-349.479	-47.914	-0.089	-0.043
-348.464	625.738	-0.023	-0.059
-347.450	-200.000	0.039	-0.200
-346.435	-100.874	-0.151	-0.037
-345.420	-71.644	0.095	-0.035
-344.406	27.506	-0.032	0.027
-343.391	-91.365	-0.409	-0.117
-342.377	720.462	-0.099	-0.262
-341.362	36.392	-0.245	0.216
-340.348	-58.002	0.113	0.049
-339.333	-120.161	0.325	0.056
-338.318	-200.000	-0.033	0.158
-337.304	50.939	-0.200	-0.190
-336.289	800.000	-0.077	0.276
-335.275	-55.718	-0.177	0.079
-334.260	-200.000	0.029	0.139
-333.245	77.519	-0.323	-0.344
-332.231	436.740	-0.051	0.110
-331.216	-200.000	0.025	0.248
-330.202	-45.030	-0.052	-0.026
-329.187	800.000	-0.028	-0.120
-328.172	119.519	0.133	0.165
-327.158	-23.799	-0.167	0.100
-326.143	-140.609	-0.210	0.022
-325.129	-54.819	0.302	-0.136
-324.114	130.603	0.250	-0.320
-323.099	-149.847	0.147	-0.012
-322.085	-200.000	-0.010	-0.136
-321.070	236.888	-0.171	0.282
-320.056	-173.276	0.404	0.012
-319.041	-180.252	-0.442	0.009
-318.026	-111.572	-0.102	0.021
-317.012	179.150	0.067	0.098
-315.997	-200.000	0.040	-0.389
-314.983	-200.000	-0.011	-0.240
-313.968	-49.882	0.134	0.064
-312.953	-200.000	0.039	0.295
-311.939	42.824	0.060	0.054
-310.924	346.090	-0.236	-0.463
-309.910	113.061	0.187	0.227
-308.895	-200.000	0.060	0.305
-307.880	456.622	-0.088	0.196
-306.866	525.328	0.065	0.152
-305.851	-200.000	-0.006	0.377
-304.837	520.949	0.103	0.241
-303.822	-82.936	-0.124	0.040
-302.807	-126.886	-0.222	-0.033
-301.793	111.848	0.111	0.133
-300.778	168.221	-0.083	-0.117
-299.764	-200.000	-0.067	0.415
-298.749	-200.000	-0.056	0.291
-297.735	-110.096	-0.080	0.017
-296.720	-87.554	-0.334	-0.101
-295.705	61.605	0.174	-0.173
-294.691	521.115	0.067	-0.157
-293.676	-5.416	-0.023	0.016
-292.662	424.340	-0.140	0.301
-291.647	-153.379	0.202	-0.014
-290.632	184.404	0.111	-0.163
-289.618	-3.297	-0.211	0.146
-288.603	-200.000	0.007	0.285
-287.589	-200.000	-0.067	0.307
-286.574	-148.606	0.259	-0.021
-285.559	52.762	0.127	0.121
-284.545	-119.817	-0.113	-0.019
-283.530	235.075	0.139	0.229
-282.516	-146.468	0.339	0.029
-281.501	257.980	0.126	-0.217
-280.486	-132.721	0.104	0.013
-279.472	-93.044	-0.020	0.005
-278.457	335.917	0.079	0.153
-277.443	-67.780	0.080	-0.031
-276.428	234.901	-0.128	0.211
-275.413	19.743	0.190	-0.152
-274.399	-177.280	-0.111	0.003
-273.384	-200.000	0.005	0.037
-272.370	70.970	0.054	-0.055
-271.355	-46.140	0.294	0.144
-270.340	37.942	-0.338	0.299
-269.326	800.000	0.070	0.236
-268.311	-200.000	0.008	-0.074
-267.297	87.867	0.231	-0.255
-266.282	358.063	-0.040	-0.080
-265.267	313.931	-0.037	0.069
-264.253	-7.533	0.148	0.099
-263.238	-200.000	0.012	0.378
-262.224	53.106	0.136	0.129
-261.209	-200.000	-0.037	-0.296
-260.195	-28.932	-0.274	0.157
-259.180	256.385	-0.176	-0.301
-258.165	194.959	0.153	-0.231
-257.151	136.043	0.111	-0.144
-256.136	2.323	0.170	0.123
-255.122	-66.699	-0.172	-0.068
-254.107	-74.543	0.128	0.046
-253.092	51.709	-0.289	0.274
-252.078	-200.000	0.033	-0.506
-251.063	-200.000	-0.065	-0.521
-250.049	-39.573	0.169	-0.088
-249.034	-43.803	0.084	0.042
-248.019	115.202	0.042	0.051
-247.005	-90.803	-0.169	-0.049
-245.990	27.270	0.246	-0.206
-244.976	-131.577	0.028	0.004
-243.961	-200.000	-0.007	-0.127
-242.946	124.864	-0.135	0.169
-241.932	-101.040	-0.174	0.042
-240.917	-145.804	0.179	0.016
-239.903	88.467	-0.078	0.086
-238.888	-200.000	0.028	0.176
-237.873	-67.735	0.186	0.072
-236.859	800.000	-0.039	-0.114
-235.844	-79.010	0.321	0.109
-234.830	130.168	0.117	0.150
-233.815	-200.000	-0.032	-0.188
-232.800	-28.655	-0.098	0.056
-231.786	-65.882	0.155	0.062
-230.771	171.397	0.110	0.156
-229.757	-60.780	0.108	0.045
-228.742	399.461	0.018	0.037
-227.727	-200.000	0.016	-0.088
-226.713	25.195	0.221	-0.182
-225.698	258.640	0.034	0.057
-224.684	119.696	-0.224	0.276
-223.669	-166.866	0.361	0.015
-222.655	186.557	-0.101	0.150
-221.640	800.000	0.064	-0.231
-220.625	-13.137	0.053	-0.034
-219.611	-21.425	-0.301	-0.182
-218.596	69.244	0.058	-0.059
-217.582	85.500	0.146	0.159
-216.567	-121.899	0.072	0.012
-215.552	-112.129	0.298	-0.059
-214.538	-165.777	0.221	0.009
-213.523	800.000	-0.090	0.304
-212.509	-200.000	-0.006	0.165
-211.494	-37.507	0.260	0.138
-210.479	-5.894	-0.301	0.205
-209.465	55.030	-0.286	-0.274
-208.450	-109.979	0.113	0.024
-207.436	-84.390	-0.253	-0.079
-206.421	75.000	0.170	0.178
-205.406	-57.373	0.024	-0.011
-204.392	91.515	0.083	-0.092
-203.377	76.011	-0.081	-0.085
-202.363	800.000	-0.047	0.180
-201.348	-200.000	0.003	-0.087
-200.333	-200.000	-0.066	-0.298
-199.319	-9.953	-0.218	-0.144
-198.304	-200.000	-0.020	0.340
-197.290	800.000	0.025	0.096
-196.275	800.000	-0.059	-0.249
-195.260	-141.027	0.167	0.017
-194.246	-28.840	0.289	0.165
-193.231	-200.000	0.021	0.184
-192.217	26.716	-0.139	-0.115
-191.202	800.000	0.018	-0.076
-190.187	207.307	0.148	-0.229
-189.173	-87.243	0.171	0.052
-188.158	-178.234	-0.317	0.007
-187.144	-80.442	0.317	-0.105
-186.129	726.915	-0.049	0.131
-185.114	-180.583	-0.433	-0.009
-184.100	-56.102	0.230	0.102
-183.085	259.971	0.130	-0.223
-182.071	-121.867	0.329	-0.054
-181.056	800.000	0.071	0.273
-180.042	40.466	0.310	-0.277
-179.027	239.752	-0.137	-0.227
-178.012	208.544	0.136	0.210
-176.998	-138.617	-0.394	-0.043
-175.983	800.000	0.047	0.143
-174.969	-138.683	0.378	0.041
-173.954	250.030	-0.107	0.180
-172.939	84.785	-0.127	0.138
-171.925	-112.681	0.028	-0.006
-170.910	-59.581	0.284	-0.121
-169.896	674.997	0.035	0.090
-168.881	-41.374	0.208	0.106
-167.866	-119.992	-0.093	-0.016
-166.852	375.850	-0.093	-0.189
-165.837	77.881	0.022	0.023
-164.823	-200.000	0.018	0.175
-163.808	156.075	0.090	-0.123
-162.793	724.787	-0.187	-0.494
-161.779	-135.298	-0.215	-0.026
-160.764	-0.086	0.033	0.023
-159.750	-200.000	-0.069	0.339
-158.735	-80.034	-0.166	-0.055
-157.720	-200.000	0.024	0.243
-156.706	314.679	-0.263	-0.492
-155.691	-200.000	-0.097	-0.585
-154.677	-123.825	0.121	-0.019
-153.662	-143.432	0.216	-0.021
-152.647	-89.821	-0.177	0.051
-151.633	-96.380	0.209	-0.055
-150.618	-200.000	-0.030	0.199
-149.604	-149.628	0.351	0.027
-148.589	33.124	0.273	0.235
-147.574	109.022	0.081	-0.096
-146.560	3.986	0.099	-0.072
-145.545	800.000	0.049	0.152
-144.531	257.134	-0.216	0.368
-143.516	240.174	-0.154	0.254
-142.502	-135.957	-0.040	0.005
-141.487	-200.000	0.001	0.038
-140.472	-29.235	-0.238	0.135
-139.458	36.396	-0.081	-0.070
-138.443	-30.685	0.473	-0.265
-137.429	-200.000	-0.002	-0.125
-136.414	-120.060	0.077	-0.013
-135.399	800.000	-0.077	0.259
-134.385	800.000	-0.035	-0.125
-133.370	-27.234	-0.109	-0.063
-132.356	-114.330	0.412	0.079
-131.341	353.686	0.179	0.351
-130.326	188.487	0.172	-0.255
-129.312	317.125	0.205	0.384
-128.297	-43.757	-0.392	-0.196
-127.283	800.000	0.055	-0.198
-126.268	182.611	-0.120	0.175
-125.253	-46.888	0.200	0.097
-124.239	-132.996	-0.335	0.042
-123.224	-200.000	-0.013	0.071
-122.210	-69.297	-0.231	-0.088
-121.195	26.031	-0.186	0.154
-120.180	111.597	0.173	-0.206
-119.166	-100.422	0.131	-0.032
-118.151	-97.465	-0.327	-0.084
-117.137	-47.018	0.174	-0.084
-116.122	304.585	-0.102	0.187
-115.107	106.293	-0.263	0.308
-114.093	800.000	0.066	0.184
-113.078	64.619	-0.196	-0.195
-112.064	-110.902	-0.241	0.049
-111.049	64.974	0.097	-0.097
-110.034	-54.236	-0.580	-0.261
-109.020	-200.000	0.008	-0.144
-108.005	-105.495	0.202	0.045
-106.991	-68.287	-0.207	-0.080
-105.976	-34.364	-0.179	-0.097
-104.962	-77.243	-0.227	0.078
-103.947	-167.429	-0.106	0.004
-102.932	-140.508	0.126	-0.013
-101.918	-31.140	-0.308	-0.172
-100.903	-63.065	-0.243	-0.099
-99.889	-200.000	0.025	0.287
-98.874	-200.000	-0.024	0.187
-97.859	-11.482	-0.188	0.123
-96.845	186.369	-0.097	0.142
-95.830	154.060	-0.016	0.021
-94.816	800.000	0.043	0.141
-93.801	-131.448	0.227	-0.030
-92.786	105.298	0.220	0.257
-91.772	-73.189	-0.157	-0.057
-90.757	-59.893	0.244	0.103
-89.743	35.333	0.185	-0.161
-88.728	6.438	-0.279	-0.205
-87.713	229.043	0.256	-0.414
-86.699	-95.305	0.145	0.039
-85.684	-24.286	0.428	-0.253
-84.670	-200.000	-0.012	-0.091
-83.655	-200.000	-0.049	0.259
-82.640	515.028	-0.039	0.090
-81.626	66.463	-0.111	-0.111
-80.611	-86.538	0.257	0.078
-79.597	152.670	-0.142	-0.192
-78.582	-149.337	-0.032	0.002
-77.567	-137.192	-0.030	-0.003
-76.553	118.543	0.067	0.082
-75.538	520.371	0.061	-0.141
-74.524	155.245	0.152	0.207
-73.509	-200.000	0.026	0.250
-72.494	-12.410	-0.332	0.214
-71.480	300.985	0.110	-0.201
-70.465	-116.140	-0.110	0.020
-69.451	-58.134	-0.086	0.037
-68.436	76.538	0.079	0.083
-67.422	-10.291	-0.071	-0.047
-66.407	-200.000	0.035	0.233
-65.392	48.464	-0.210	0.194
-64.378	255.899	-0.175	0.296
-63.363	313.160	-0.169	0.313
-62.349	18.646	0.196	-0.155
-61.334	347.708	-0.552	-1.075
-60.319	291.865	0.322	0.579
-59.305	614.989	-0.287	-0.710
-58.290	211.328	0.500	0.776
-57.276	656.052	0.702	1.781
-56.261	-200.000	95.888	539.863
-55.246	488.818	1429.493	3225.574
-54.232	143.683	2655.715	3494.701
-53.217	107.771	2248.296	2644.380
-52.203	43.996	1770.261	1602.221
-51.188	36.980	1578.775	1379.164
-50.173	34.661	1551.706	1339.223
-49.159	52.000	1601.432	1506.158
-48.144	54.531	1620.057	1541.676
-47.130	37.394	1576.636	1380.020
-46.115	34.192	1561.107	1343.815
-45.100	34.265	1556.375	1340.205
-44.086	34.154	1554.991	1338.177
-43.071	33.991	1553.704	1335.869
-42.057	34.038	1551.993	1334.677
-41.042	34.058	1550.441	1333.427
-40.027	34.113	1548.811	1332.358
-39.013	34.028	1547.211	1330.334
-37.998	34.043	1546.145	1329.467
-36.984	34.063	1545.042	1328.612
-35.969	34.048	1543.434	1327.067
-34.954	34.035	1541.622	1325.371
-33.940	33.969	1540.477	1323.873
-32.925	33.995	1538.674	1322.449
-31.911	34.074	1538.216	1322.555
-30.896	34.140	1536.420	1321.415
-29.881	34.153	1534.736	1320.001
-28.867	34.104	1534.022	1318.998
-27.852	34.097	1532.417	1317.515
-26.838	34.107	1531.410	1316.667
-25.823	34.037	1529.567	1314.548
-24.809	34.008	1527.905	1312.864
-23.794	34.079	1526.186	1311.828
-22.779	34.082	1525.124	1310.884
-21.765	34.183	1524.075	1310.628
-20.750	34.101	1522.943	1309.036
-19.736	34.080	1521.922	1307.960
-18.721	34.116	1520.523	1306.957
-17.706	34.095	1519.598	1305.965
-16.692	33.982	1518.354	1304.068
-15.677	34.031	1517.274	1303.424
-14.663	34.067	1516.486	1302.942
-13.648	34.041	1515.637	1301.982
-12.633	34.016	1514.920	1301.145
-11.619	33.986	1513.968	1300.071
-10.604	33.928	1512.942	1298.737
-9.590	33.983	1512.085	1298.329
-8.575	34.057	1511.274	1298.088
-7.560	34.062	1510.372	1297.295
-6.546	33.992	1508.966	1295.557
-5.531	34.045	1508.146	1295.166
-4.517	34.095	1506.899	1294.379
-3.502	34.068	1505.931	1293.312
-2.487	33.968	1504.845	1291.648
-1.473	33.973	1504.017	1290.922
-0.458	33.978	1502.922	1289.968
0.556	32.837	1493.634	1280.197
1.571	29.895	1467.305	1237.881
2.586	25.982	1402.016	1157.628
3.600	23.518	1314.915	1070.759
4.615	21.414	1266.867	1019.291
5.629	18.141	1208.485	954.005
6.644	9.352	1119.282	837.903
7.659	2.076	1075.859	768.783
8.673	0.767	1070.077	758.024
9.688	0.573	1066.948	754.771
10.702	0.447	1065.781	753.249
11.717	0.603	1063.811	752.565
12.731	3.125	1066.754	767.171
13.746	11.452	1078.073	817.072
14.761	17.201	1085.200	851.288
15.775	17.565	1084.154	852.214
16.790	16.815	1082.483	847.076
17.804	15.823	1080.464	840.471
18.819	14.917	1078.817	834.595
19.834	14.428	1077.565	831.114
20.848	14.175	1076.458	828.929
21.863	13.914	1075.336	826.690
22.877	13.631	1074.523	824.585
23.892	13.445	1073.935	823.135
24.907	13.402	1072.869	822.033
25.921	13.272	1072.224	820.820
26.936	13.353	1071.656	820.715
27.950	13.324	1071.268	820.202
28.965	13.555	1069.775	820.128
29.980	13.523	1068.979	819.289
30.994	13.539	1068.268	818.748
32.009	13.554	1067.402	818.090
33.023	13.707	1066.381	817.990
34.038	13.725	1065.722	817.498
35.053	13.663	1064.994	816.565
36.067	13.601	1063.985	815.410
37.082	13.494	1063.481	814.427
38.096	13.449	1062.410	813.315
39.111	13.446	1062.276	813.127
40.126	13.501	1060.512	811.972
41.140	13.486	1059.747	811.241
42.155	13.474	1058.271	809.979
43.169	13.543	1057.540	809.687
44.184	13.344	1056.963	808.203
45.199	13.428	1055.297	807.263
46.213	13.359	1054.541	806.279
47.228	13.511	1053.322	806.018
48.242	13.521	1052.646	805.476
49.257	13.549	1051.683	804.802
50.271	13.442	1050.944	803.649
51.286	13.550	1049.534	803.022
52.301	13.512	1048.992	802.352
53.315	13.565	1047.999	801.779
54.330	13.560	1047.452	801.265
55.344	13.402	1046.790	799.923
56.359	13.380	1045.867	799.043
57.374	13.468	1044.862	798.626
58.388	13.398	1044.307	797.797
59.403	13.309	1043.259	796.494
60.417	13.506	1042.208	796.570
61.432	13.352	1041.986	795.589
62.447	13.308	1041.337	794.812
63.461	13.247	1040.480	793.796
64.476	13.392	1039.010	793.298
65.490	13.405	1038.284	792.738
66.505	13.239	1037.408	791.204
67.520	13.284	1036.663	790.781
68.534	13.285	1036.184	790.348
69.549	13.434	1034.925	790.030
70.563	13.361	1033.818	788.767
71.578	13.377	1033.790	788.753
72.593	13.296	1032.817	787.553
73.607	13.328	1031.583	786.696
74.622	13.311	1030.627	785.818
75.636	13.183	1030.095	784.732
76.651	13.256	1029.242	784.362
77.666	13.284	1028.411	783.788
78.680	13.278	1027.614	783.087
79.695	13.299	1026.903	782.572
80.709	13.195	1026.412	781.640
81.724	13.371	1025.218	781.490
82.739	13.376	1024.269	780.724
83.753	13.437	1023.559	780.398
84.768	13.474	1022.971	780.058
85.782	13.682	1021.644	779.954
86.797	13.567	1021.329	779.103
87.812	13.579	1020.703	778.614
88.826	13.524	1019.590	777.440
89.841	13.364	1019.090	776.236
90.855	13.513	1018.259	776.235
91.870	13.682	1017.161	776.121
92.884	13.547	1016.973	775.278
93.899	13.612	1016.066	774.820
94.914	13.531	1015.342	773.821
95.928	13.615	1014.559	773.547
96.943	13.699	1013.866	773.340
97.957	13.545	1013.319	772.137
98.972	13.564	1012.475	771.514
99.987	13.577	1011.497	770.765
101.001	13.700	1010.681	770.646
102.016	13.657	1009.796	769.702
103.030	13.454	1009.310	768.322
104.045	13.591	1007.810	767.745
105.060	13.566	1007.179	767.080
106.074	13.600	1006.034	766.299
107.089	13.585	1005.122	765.469
108.103	13.437	1004.558	764.287
109.118	13.462	1003.504	763.533
110.133	13.504	1002.724	763.066
111.147	13.450	1001.728	761.989
112.162	13.353	1000.747	760.732
113.176	13.386	1000.264	760.451
114.191	13.436	999.220	759.817
115.206	13.407	998.537	759.099
116.220	13.592	997.409	759.023
117.235	13.492	996.695	757.951
118.249	13.498	995.980	757.370
119.264	13.506	995.015	756.603
120.279	13.479	994.188	755.787
121.293	13.515	993.221	755.147
122.308	13.531	992.563	754.653
123.322	13.389	992.034	753.536
124.337	13.438	990.840	752.785
125.352	13.493	989.316	751.813
126.366	13.442	988.404	750.822
127.381	13.459	987.088	749.834
128.395	13.497	986.248	749.302
129.410	13.500	985.222	748.466
130.424	13.492	984.873	748.100
131.439	13.454	983.846	747.083
132.454	13.520	982.725	746.462
133.468	13.505	982.457	746.125
134.483	13.581	981.512	745.684
135.497	13.646	980.704	745.295
136.512	13.608	979.664	744.268
137.527	13.545	979.161	743.539
138.541	13.726	977.741	743.205
139.556	13.566	977.596	742.313
140.570	13.482	976.904	741.345
141.585	13.567	976.007	740.977
142.600	13.671	975.475	740.975
143.614	13.591	974.320	739.676
144.629	13.609	973.732	739.243
145.643	13.744	972.743	739.030
146.658	13.765	972.025	738.511
147.673	13.631	971.100	737.149
148.687	13.744	969.894	736.671
149.702	13.578	969.344	735.449
150.716	13.578	968.689	734.885
151.731	13.616	967.492	734.082
152.746	13.722	966.616	733.823
153.760	13.524	966.162	732.537
154.775	13.576	965.009	731.826
155.789	13.552	964.247	731.081
156.804	13.727	963.436	731.170
157.819	13.693	962.810	730.480
158.833	13.672	962.308	729.942
159.848	13.742	961.507	729.577
160.862	13.774	960.817	729.133
161.877	13.717	959.644	727.928
162.892	13.755	958.886	727.452
163.906	13.686	958.162	726.538
164.921	13.704	956.699	725.442
165.935	13.687	956.166	724.901
166.950	13.720	955.216	724.260
167.964	13.756	954.249	723.621
168.979	13.837	953.107	723.044
169.994	13.810	952.462	722.370
171.008	13.675	951.723	721.159
172.023	13.860	950.739	721.154
173.037	13.766	950.394	720.421
174.052	13.878	949.115	719.875
175.067	13.861	948.362	719.167
176.081	13.828	947.669	718.432
177.096	13.756	947.163	717.676
178.110	13.785	946.126	716.952
179.125	13.769	945.550	716.382
180.140	13.977	944.383	716.330
181.154	13.893	943.678	715.373
182.169	13.882	943.603	715.201
183.183	13.993	942.644	714.892
184.198	13.950	942.024	714.174
185.213	13.914	941.687	713.698
186.227	13.963	940.885	713.237
187.242	14.128	940.207	713.370
188.256	13.997	939.622	712.299
189.271	14.125	939.032	712.340
190.286	14.055	938.033	711.216
191.300	13.953	937.028	709.957
192.315	13.921	936.553	709.397
193.329	13.925	935.765	708.755
194.344	14.006	935.013	708.471
195.359	13.964	934.547	707.872
196.373	13.987	934.218	707.658
197.388	14.077	933.312	707.294
198.402	14.015	933.366	707.008
199.417	14.226	932.410	707.118
200.432	14.131	932.264	706.542
201.446	14.098	931.948	706.098
202.461	14.129	931.614	705.914
203.475	14.311	930.428	705.725
204.490	14.147	930.099	704.717
205.504	14.151	929.219	704.005
206.519	14.237	928.303	703.614
207.534	14.135	927.733	702.688
208.548	14.263	926.895	702.531
209.563	14.320	925.925	701.975
210.577	14.315	925.170	701.320
211.592	14.250	924.704	700.632
212.607	14.306	924.552	700.689
213.621	14.413	923.768	700.482
214.636	14.420	922.711	699.650
215.650	14.326	922.193	698.798
216.665	14.440	921.443	698.645
217.680	14.478	920.917	698.346
218.694	14.394	920.843	697.876
219.709	14.488	919.847	697.451
220.723	14.428	919.548	696.913
221.738	14.420	918.577	696.080
222.753	14.587	917.648	696.011
223.767	14.557	916.986	695.325
224.782	14.454	916.173	694.216
225.796	14.664	915.354	694.408
226.811	14.717	914.407	693.852
227.826	14.618	913.837	692.946
228.840	14.445	913.751	692.100
229.855	14.488	912.959	691.618
230.869	14.602	912.097	691.376
231.884	14.529	911.751	690.751
232.899	14.706	910.408	690.401
233.913	14.467	910.118	689.136
234.928	14.565	909.581	689.070
235.942	14.507	908.901	688.257
236.957	14.654	907.663	687.862
237.972	14.500	907.386	686.960
238.986	14.583	906.661	686.691
240.001	14.646	906.251	686.579
241.015	14.725	905.297	686.120
242.030	14.663	904.769	685.403
243.045	14.664	903.804	684.617
244.059	14.749	903.484	684.660
245.074	14.758	902.585	683.958
246.088	14.791	901.655	683.328
247.103	14.755	901.498	683.000
248.117	14.880	900.765	682.893
249.132	14.935	900.081	682.540
250.147	14.871	899.653	681.893
251.161	14.873	899.048	681.384
252.176	14.882	898.384	680.856
253.190	15.027	897.590	680.784
254.205	15.071	896.820	680.317
255.220	15.064	896.224	679.780
256.234	15.117	895.667	679.512
257.249	15.083	895.187	678.949
258.263	15.200	894.704	678.997
259.278	15.121	894.403	678.386
260.293	15.175	893.692	678.009
261.307	15.211	892.740	677.371
262.322	15.209	892.424	677.061
263.336	15.269	891.769	676.750
264.351	15.117	891.457	675.836
265.366	15.411	890.374	676.141
266.380	15.359	889.739	675.390
267.395	15.215	889.233	674.368
268.409	15.297	888.046	673.736
269.424	15.268	887.788	673.365
270.439	15.454	886.766	673.276
271.453	15.311	885.810	671.917
272.468	15.241	885.456	671.308
273.482	15.310	884.391	670.718
274.497	15.263	884.325	670.421
275.512	15.400	883.179	670.042
276.526	15.359	883.016	669.695
277.541	15.362	882.223	669.043
278.555	15.379	881.586	668.568
279.570	15.395	880.961	668.100
280.585	15.567	880.486	668.366
281.599	15.447	880.126	667.558
282.614	15.466	879.523	667.117
283.628	15.539	878.878	666.856
284.643	15.552	877.977	666.166
285.657	15.558	877.625	665.865
286.672	15.510	877.010	665.146
287.687	15.416	876.787	664.550
288.701	15.467	876.185	664.232
289.716	15.556	875.408	663.939
290.730	15.440	874.966	663.085
291.745	15.646	874.261	663.306
292.760	15.512	873.691	662.285
293.774	15.710	872.563	662.151
294.789	15.662	871.987	661.468
295.803	15.791	871.428	661.494
296.818	15.697	870.848	660.624
297.833	15.803	870.045	660.372
298.847	15.735	869.667	659.761
299.862	15.675	869.028	658.982
300.876	15.643	868.111	658.104
301.891	15.722	867.556	657.936
302.906	15.813	866.855	657.699
303.920	15.825	866.106	657.122
304.935	16.066	865.363	657.439
305.949	15.960	864.789	656.530
306.964	15.990	864.207	656.149
307.979	15.914	863.697	655.407
308.993	15.915	863.221	654.991
310.008	16.059	862.340	654.824
311.022	16.065	861.920	654.470
312.037	15.912	861.786	653.716
313.052	15.958	861.264	653.443
314.066	15.960	860.197	652.582
315.081	15.888	859.961	652.068
316.095	15.876	859.174	651.365
317.110	15.987	858.690	651.369
318.125	16.053	858.010	651.052
319.139	15.890	857.749	650.168
320.154	15.942	857.376	650.026
321.168	16.124	856.448	649.967
322.183	15.993	856.085	649.132
323.197	16.015	855.368	648.614
324.212	16.095	855.031	648.610
325.227	15.973	854.772	647.887
326.241	16.168	853.871	647.893
327.256	16.138	852.956	647.028
328.270	16.098	852.650	646.586
329.285	16.046	852.286	646.051
330.300	15.987	851.867	645.451
331.314	16.111	850.969	645.188
332.329	16.107	850.369	644.660
333.343	16.099	849.753	644.107
334.358	16.115	849.403	643.846
335.373	16.274	848.679	643.845
336.387	16.366	847.686	643.386
337.402	16.329	847.567	643.100
338.416	16.316	846.826	642.431
339.431	16.240	846.507	641.841
340.446	16.207	846.100	641.353
341.460	16.400	845.590	641.642
342.475	16.421	844.653	640.952
343.489	16.401	844.144	640.433
344.504	16.494	843.655	640.360
345.519	16.389	843.309	639.642
346.533	16.519	842.470	639.441
347.548	16.519	842.368	639.307
348.562	16.530	841.657	638.753
349.577	16.443	840.918	637.807
350.592	16.554	840.239	637.651
351.606	16.545	839.760	637.197
352.621	16.507	839.531	636.825
353.635	16.574	839.010	636.626
354.650	16.446	838.907	636.010
355.665	16.675	838.234	636.305
356.679	16.516	837.916	635.410
357.694	16.613	837.437	635.355
358.708	16.649	836.645	634.832
359.723	16.583	836.015	634.052
360.738	16.537	835.638	633.535
361.752	16.690	834.963	633.540
362.767	16.687	834.723	633.294
363.781	16.607	834.324	632.634
364.796	16.698	833.327	632.163
365.810	16.809	833.030	632.296
366.825	16.938	832.676	632.451
367.840	16.970	832.256	632.197
368.854	16.803	832.221	631.491
369.869	16.704	831.867	630.799
370.883	16.921	831.045	630.927
371.898	16.813	830.546	630.089
372.913	16.861	829.992	629.791
373.927	16.855	829.052	629.002
374.942	16.991	828.575	629.089
375.956	17.085	827.546	628.599
376.971	17.051	827.219	628.168
377.986	16.986	826.499	627.327
379.000	17.073	825.880	627.121
380.015	17.159	825.550	627.135
381.029	17.131	824.832	626.429
382.044	17.120	824.598	626.155
383.059	17.119	824.062	625.690
384.073	17.193	823.336	625.355
385.088	17.166	823.061	624.990
386.102	17.045	822.870	624.348
387.117	17.223	822.061	624.330
388.132	16.962	821.590	622.959
389.146	17.070	821.341	623.111
390.161	16.939	821.044	622.352
391.175	17.143	820.573	622.688
392.190	17.215	819.906	622.392
393.205	17.120	819.537	621.707
394.219	17.264	819.011	621.779
395.234	17.105	818.673	620.885
396.248	17.125	818.084	620.460
397.263	17.199	817.020	619.864
398.278	17.154	816.730	619.426
399.292	17.114	816.408	618.982
400.307	17.354	815.843	619.373
401.321	17.071	815.919	618.346
402.336	17.184	815.422	618.325
403.350	17.270	814.600	617.959
404.365	17.223	814.585	617.722
405.380	17.444	813.493	617.642
406.394	17.344	813.241	617.033
407.409	17.427	812.639	616.824
408.423	17.515	812.248	616.792
409.438	17.474	811.602	616.099
410.453	17.558	811.402	616.195
411.467	17.572	811.046	615.920
412.482	17.595	810.438	615.487
413.496	17.510	810.181	614.932
414.511	17.576	809.973	614.956
415.526	17.734	809.079	614.793
416.540	17.665	808.868	614.331
417.555	17.604	808.675	613.907
418.569	17.549	808.117	613.234
419.584	17.515	807.674	612.720
420.599	17.692	806.571	612.464
421.613	104.927	1285.297	1446.676
422.628	90.335	1355.055	1446.784
