DTS Sentinel unit serial number:	SN413079Multiplexer serial number:	ORYXHardware model number:	OX4-SRSoftware version number:	ORYX F/W v4.00 Oryx Data Collector v3.7.2.0data status	okinstallation	princeton_trtdifferential loss correction	single-endedforward channel	channel 3reverse channel	N/Adate	2019/09/14time	10:44:35forward acquisition time	60.00reverse acquisition time	0.00gamma	496.2192k internal	0.2302k external	0.2302temperature offset calibration	1.0060default loss term (dB/km)	0.3790temperature slope calibration	1.0000multiplexer offset coefficient	1.0000multiplexer slope coefficient	1.0000fibre end	0.00T internal ref (°C)	35.44T ext. ref 1 (°C)	4.28T ext. ref 2 (°C)	32.71length (m)	temperature (°C)	Stokes	anti-Stokes-747.200	800.000	-0.050	-0.224
-746.185	-200.000	-0.035	0.331
-745.171	387.421	-0.042	-0.089
-744.156	22.431	-0.113	0.094
-743.142	403.442	-0.035	0.075
-742.127	-80.022	0.221	0.076
-741.112	-131.972	0.199	0.026
-740.098	-200.000	-0.033	0.396
-739.083	171.581	-0.133	0.194
-738.069	-139.248	0.178	-0.020
-737.054	-200.000	0.023	0.145
-736.039	-95.269	-0.509	0.140
-735.025	47.831	-0.118	-0.112
-734.010	-21.115	-0.392	-0.245
-732.996	-200.000	-0.006	-0.273
-731.981	800.000	-0.036	-0.150
-730.966	-112.672	0.062	0.013
-729.952	-117.606	0.370	0.068
-728.937	-79.162	-0.139	-0.048
-727.923	-200.000	0.011	-0.210
-726.908	597.427	-0.095	0.239
-725.894	-145.196	0.168	-0.016
-724.879	20.231	0.190	0.156
-723.864	800.000	0.131	-0.383
-722.850	167.153	0.125	0.180
-721.835	127.210	-0.126	0.163
-720.821	-81.091	0.270	-0.091
-719.806	123.506	-0.136	-0.173
-718.791	-109.918	-0.157	0.034
-717.777	51.192	-0.263	0.254
-716.762	-72.471	-0.216	0.081
-715.748	404.428	0.058	-0.123
-714.733	140.574	-0.010	0.013
-713.718	-200.000	-0.050	-0.306
-712.704	384.509	-0.071	-0.148
-711.689	-12.522	0.115	0.077
-710.675	-1.734	0.188	0.135
-709.660	-26.861	0.207	-0.123
-708.645	115.300	-0.197	-0.245
-707.631	-4.008	0.181	-0.128
-706.616	-195.605	0.274	-0.002
-705.602	63.820	0.173	0.177
-704.587	12.177	-0.254	-0.199
-703.572	212.245	0.061	0.097
-702.558	-37.435	-0.030	0.016
-701.543	-100.428	-0.137	0.035
-700.529	-0.588	-0.011	-0.008
-699.514	-200.000	-0.015	0.207
-698.499	35.544	-0.202	0.180
-697.485	163.762	-0.242	0.346
-696.470	252.387	0.134	0.233
-695.456	800.000	0.022	-0.070
-694.441	-78.413	0.355	-0.124
-693.426	40.841	-0.440	0.404
-692.412	800.000	-0.162	-0.521
-691.397	-200.000	-0.010	-0.205
-690.383	116.018	-0.181	-0.225
-689.368	800.000	0.116	0.454
-688.354	67.512	0.204	-0.212
-687.339	800.000	0.104	0.417
-686.324	-192.643	-0.122	-0.001
-685.310	94.968	0.126	-0.146
-684.295	614.190	0.046	-0.117
-683.281	-125.127	-0.212	0.033
-682.266	470.498	0.100	0.230
-681.251	-189.226	-0.194	-0.002
-680.237	800.000	-0.070	-0.278
-679.222	127.792	0.069	0.090
-678.208	104.333	0.200	0.240
-677.193	241.383	-0.043	-0.073
-676.178	800.000	0.036	-0.141
-675.164	-125.158	-0.256	-0.040
-674.149	142.369	0.039	0.052
-673.135	135.018	-0.234	-0.308
-672.120	800.000	0.060	-0.264
-671.105	-200.000	0.016	0.205
-670.091	147.073	-0.098	-0.135
-669.076	174.977	0.109	-0.160
-668.062	-200.000	-0.000	0.106
-667.047	-200.000	0.009	-0.204
-666.032	-120.275	0.262	0.045
-665.018	-104.065	-0.122	-0.029
-664.003	29.221	-0.118	-0.102
-662.989	672.506	-0.083	0.217
-661.974	14.004	-0.126	-0.100
-660.959	-32.394	-0.047	0.027
-659.945	-95.994	-0.161	-0.044
-658.930	800.000	-0.072	0.313
-657.916	-200.000	0.021	0.161
-656.901	24.551	0.208	-0.175
-655.886	-152.803	-0.062	0.004
-654.872	-76.852	-0.273	-0.097
-653.857	-183.830	0.368	-0.006
-652.843	-102.961	0.385	0.093
-651.828	800.000	0.078	0.254
-650.814	-93.724	0.057	0.016
-649.799	59.148	0.180	0.180
-648.784	800.000	0.087	0.353
-647.770	800.000	0.051	-0.198
-646.755	800.000	0.015	-0.049
-645.741	-38.047	0.134	0.072
-644.726	-15.155	0.152	0.099
-643.711	-1.933	-0.108	0.077
-642.697	-200.000	-0.010	-0.220
-641.682	-200.000	0.036	0.199
-640.668	82.900	0.216	-0.238
-639.653	-69.841	-0.337	-0.130
-638.638	-200.000	0.034	-0.449
-637.624	276.728	0.039	-0.071
-636.609	800.000	0.032	0.125
-635.595	-200.000	0.044	0.231
-634.580	-85.105	-0.338	-0.108
-633.565	10.164	0.150	0.116
-632.551	-31.803	0.146	-0.083
-631.536	291.345	-0.160	0.296
-630.522	25.609	0.185	-0.157
-629.507	-200.000	-0.029	-0.206
-628.492	-148.474	-0.082	-0.007
-627.478	-200.000	-0.026	-0.263
-626.463	-86.359	-0.353	-0.110
-625.449	-200.000	-0.012	-0.220
-624.434	40.595	-0.067	0.062
-623.419	215.837	-0.045	-0.073
-622.405	21.533	-0.113	-0.093
-621.390	55.542	-0.108	0.106
-620.376	-200.000	-0.164	0.000
-619.361	-200.000	-0.015	-0.159
-618.346	34.921	0.144	-0.128
-617.332	37.895	-0.095	0.085
-616.317	-200.000	0.004	-0.144
-615.303	-22.559	-0.289	0.178
-614.288	180.882	-0.066	0.098
-613.273	63.600	0.131	-0.133
-612.259	19.223	0.261	-0.212
-611.244	62.205	0.277	-0.280
-610.230	-200.000	0.050	0.234
-609.215	89.798	0.054	0.062
-608.201	-173.551	-0.155	-0.005
-607.186	-108.504	-0.225	0.049
-606.171	38.947	0.328	-0.297
-605.157	529.996	-0.143	-0.342
-604.142	-81.091	-0.078	-0.026
-603.128	800.000	-0.017	-0.072
-602.113	-63.842	0.086	-0.036
-601.098	-128.692	0.339	0.049
-600.084	-148.364	0.246	0.021
-599.069	-84.571	-0.164	0.052
-598.055	116.592	-0.096	-0.120
-597.040	-96.513	-0.329	-0.088
-596.025	-200.000	-0.017	0.086
-595.011	-12.446	-0.332	-0.220
-593.996	-116.605	-0.174	0.033
-592.982	-200.000	0.008	0.226
-591.967	-114.343	-0.025	0.005
-590.952	-160.579	-0.073	-0.004
-589.938	-200.000	0.166	-0.000
-588.923	-6.716	0.220	0.152
-587.909	-200.000	0.044	-0.241
-586.894	800.000	-0.065	-0.211
-585.879	-40.623	0.049	0.026
-584.865	800.000	0.076	0.235
-583.850	-61.129	0.205	-0.088
-582.836	176.578	-0.204	-0.300
-581.821	-82.591	-0.153	0.050
-580.806	97.001	-0.202	0.234
-579.792	1.669	0.176	0.128
-578.777	-56.068	-0.175	-0.079
-577.763	-55.301	-0.014	0.007
-576.748	-85.111	0.233	0.074
-575.733	45.193	-0.117	-0.109
-574.719	56.875	-0.016	-0.016
-573.704	-133.523	-0.129	0.016
-572.690	800.000	0.129	-0.437
-571.675	800.000	-0.096	0.361
-570.661	-200.000	-0.009	-0.172
-569.646	77.735	-0.086	-0.093
-568.631	-200.000	0.036	-0.253
-567.617	800.000	0.072	-0.209
-566.602	800.000	0.061	-0.214
-565.588	-108.248	0.119	0.026
-564.573	-155.700	0.105	-0.007
-563.558	23.358	0.318	0.265
-562.544	800.000	0.032	-0.118
-561.529	-200.000	0.020	0.265
-560.515	59.349	-0.190	0.190
-559.500	-73.068	-0.306	-0.114
-558.485	127.316	-0.152	-0.195
-557.471	-35.331	-0.257	0.141
-556.456	-16.051	0.253	-0.163
-555.442	-200.000	0.010	-0.081
-554.427	127.722	-0.205	0.264
-553.412	-200.000	0.031	0.409
-552.398	-200.000	0.001	-0.407
-551.383	-31.048	0.244	-0.139
-550.369	256.970	0.027	0.048
-549.354	800.000	0.097	0.336
-548.339	-82.691	-0.134	-0.044
-547.325	660.376	0.049	0.128
-546.310	-25.248	-0.191	-0.114
-545.296	773.870	-0.121	-0.334
-544.281	105.706	-0.150	-0.179
-543.266	-40.708	-0.202	-0.106
-542.252	800.000	-0.077	0.299
-541.237	38.780	-0.089	-0.081
-540.223	-200.000	0.004	0.447
-539.208	-153.456	-0.225	0.016
-538.193	-92.353	0.389	0.111
-537.179	-27.476	-0.089	-0.052
-536.164	-200.000	-0.008	0.156
-535.150	418.946	0.124	-0.269
-534.135	21.539	0.101	-0.083
-533.121	249.590	-0.063	0.108
-532.106	745.475	0.141	-0.384
-531.091	26.330	0.205	-0.174
-530.077	-35.161	0.133	-0.073
-529.062	-129.330	0.058	-0.008
-528.048	800.000	-0.059	0.232
-527.033	122.655	0.058	0.073
-526.018	67.256	0.075	0.077
-525.004	800.000	-0.031	-0.135
-523.989	480.243	0.128	-0.293
-522.975	-200.000	0.048	0.289
-521.960	165.853	-0.165	-0.236
-520.945	750.674	0.126	-0.343
-519.931	800.000	0.044	-0.127
-518.916	3.991	0.084	0.062
-517.902	746.703	-0.089	0.242
-516.887	94.015	0.085	-0.098
-515.872	-200.000	-0.187	0.000
-514.858	163.113	0.133	0.189
-513.843	800.000	-0.049	0.190
-512.829	-66.685	0.090	0.036
-511.814	-200.000	-0.033	-0.207
-510.799	377.293	0.108	-0.222
-509.785	665.923	-0.074	-0.193
-508.770	-101.125	0.217	0.054
-507.756	-200.000	0.001	-0.152
-506.741	46.343	-0.134	-0.125
-505.726	-20.926	-0.160	0.099
-504.712	-150.316	-0.138	0.011
-503.697	-200.000	-0.007	-0.124
-502.683	-66.630	0.299	0.119
-501.668	-99.014	0.340	-0.087
-500.653	-200.000	0.024	0.135
-499.639	-145.739	0.319	-0.029
-498.624	-200.000	0.017	0.298
-497.610	241.569	-0.029	0.050
-496.595	-104.918	-0.341	-0.079
-495.581	407.607	-0.050	-0.107
-494.566	-91.741	0.406	-0.117
-493.551	-200.000	0.159	0.706
-492.537	-200.000	0.014	0.221
-491.522	73.470	0.128	-0.135
-490.508	90.513	-0.325	-0.367
-489.493	-74.102	-0.344	0.126
-488.478	35.494	0.116	-0.102
-487.464	-200.000	0.019	0.228
-486.449	162.789	0.073	0.103
-485.435	800.000	0.180	-0.507
-484.420	2.876	-0.023	0.017
-483.405	800.000	0.028	-0.119
-482.391	-198.387	0.225	-0.001
-481.376	-200.000	0.023	-0.325
-480.362	-200.000	-0.006	-0.107
-479.347	-80.365	0.273	0.092
-478.332	77.207	0.144	0.155
-477.318	-200.000	-0.002	-0.024
-476.303	391.515	0.126	0.264
-475.289	-86.304	-0.290	0.090
-474.274	-123.790	0.273	-0.043
-473.259	-129.255	-0.217	-0.031
-472.245	327.577	0.123	0.238
-471.230	-200.000	-0.040	0.194
-470.216	-61.572	-0.278	0.118
-469.201	254.209	-0.093	-0.160
-468.186	35.773	-0.044	-0.039
-467.172	194.898	-0.061	-0.093
-466.157	23.261	-0.138	-0.114
-465.143	71.079	-0.367	-0.384
-464.128	578.940	-0.065	0.161
-463.113	509.099	0.169	0.395
-462.099	-200.000	-0.026	0.149
-461.084	-200.000	0.033	-0.325
-460.070	411.791	0.170	-0.365
-459.055	800.000	0.040	-0.176
-458.040	-63.551	-0.213	-0.088
-457.026	-200.000	-0.015	0.340
-456.011	-200.000	-0.037	0.177
-454.997	204.631	-0.192	0.300
-453.982	800.000	-0.079	0.301
-452.968	-57.202	0.080	-0.035
-451.953	-93.744	-0.271	-0.075
-450.938	160.075	0.011	0.015
-449.924	-107.535	0.393	-0.087
-448.909	-131.515	0.296	0.039
-447.895	-143.238	0.154	-0.015
-446.880	57.292	-0.044	0.043
-445.865	-200.000	-0.072	-0.328
-444.851	-200.000	-0.019	-0.220
-443.836	73.119	-0.084	0.088
-442.822	-152.873	-0.100	0.007
-441.807	77.882	-0.094	-0.101
-440.792	-200.000	-0.026	-0.271
-439.778	-200.000	-0.016	0.164
-438.763	123.622	0.158	0.200
-437.749	800.000	0.029	0.101
-436.734	-19.727	0.137	-0.085
-435.719	416.185	0.074	0.158
-434.705	-30.101	-0.174	0.099
-433.690	590.221	0.034	0.084
-432.676	215.287	0.129	-0.205
-431.661	-40.568	-0.186	-0.097
-430.646	-200.000	0.007	0.042
-429.632	-132.897	0.296	0.038
-428.617	-7.136	-0.238	-0.163
-427.603	515.561	0.036	0.084
-426.588	800.000	0.017	0.065
-425.573	-153.182	0.111	-0.008
-424.559	187.099	-0.110	-0.165
-423.544	-83.566	-0.173	-0.056
-422.530	-200.000	0.012	0.310
-421.515	90.189	-0.117	0.132
-420.500	-200.000	0.000	0.066
-419.486	-108.214	-0.263	0.057
-418.471	-5.245	-0.162	0.112
-417.457	-148.480	0.236	-0.019
-416.442	233.375	0.190	0.315
-415.428	-200.000	-0.033	-0.159
-414.413	-200.000	0.032	0.419
-413.398	800.000	-0.155	-0.470
-412.384	-200.000	0.015	0.073
-411.369	97.640	0.156	0.180
-410.355	338.507	-0.100	0.197
-409.340	-125.066	-0.306	-0.047
-408.325	800.000	0.018	-0.068
-407.311	-29.111	-0.360	0.208
-406.296	-200.000	-0.065	0.292
-405.282	-200.000	0.070	-0.449
-404.267	17.093	0.121	-0.096
-403.252	3.425	0.229	0.168
-402.238	110.477	0.119	0.144
-401.223	189.916	-0.220	-0.331
-400.209	-13.169	0.230	0.150
-399.194	-48.301	0.193	0.094
-398.179	-6.043	0.341	-0.235
-397.165	-140.313	0.091	0.010
-396.150	6.789	0.139	-0.104
-395.136	-46.403	0.135	-0.067
-394.121	-200.000	0.005	-0.174
-393.106	266.786	0.113	0.199
-392.092	349.337	0.191	0.380
-391.077	-19.620	-0.097	-0.060
-390.063	-50.052	0.143	-0.068
-389.048	135.342	0.123	-0.160
-388.033	-95.336	0.223	0.060
-387.019	-24.194	-0.122	0.073
-386.004	117.765	0.140	0.173
-384.990	800.000	-0.031	0.111
-383.975	129.190	-0.162	0.207
-382.960	-125.023	-0.459	0.071
-381.946	-86.866	-0.068	0.021
-380.931	-88.226	-0.194	0.058
-379.917	37.642	0.026	-0.023
-378.902	800.000	0.056	-0.232
-377.888	-200.000	-0.016	0.139
-376.873	-200.000	-0.017	-0.118
-375.858	175.025	0.075	0.110
-374.844	-131.372	-0.130	0.017
-373.829	-101.110	-0.300	0.074
-372.815	-0.598	0.309	0.220
-371.800	800.000	0.083	-0.260
-370.785	78.286	-0.031	0.033
-369.771	800.000	-0.034	-0.112
-368.756	-200.000	0.018	-0.127
-367.742	-116.892	0.422	0.078
-366.727	-37.822	-0.077	-0.041
-365.712	-133.396	0.139	-0.018
-364.698	-180.776	-0.285	0.006
-363.683	-200.000	0.036	0.000
-362.669	-200.000	0.010	0.443
-361.654	611.308	0.122	0.306
-360.639	-140.901	0.370	-0.038
-359.625	394.992	-0.054	0.113
-358.610	14.792	0.222	0.174
-357.596	-43.138	-0.209	0.106
-356.581	800.000	-0.058	-0.203
-355.566	252.024	-0.176	-0.301
-354.552	-113.022	0.271	-0.054
-353.537	-166.056	0.351	0.015
-352.523	254.340	-0.051	-0.087
-351.508	266.937	0.191	-0.336
-350.493	800.000	0.042	0.126
-349.479	278.641	-0.023	0.040
-348.464	427.353	-0.108	-0.234
-347.450	800.000	0.039	0.139
-346.435	41.429	0.163	-0.148
-345.420	-132.708	0.232	-0.030
-344.406	37.212	0.167	0.149
-343.391	-7.282	-0.088	-0.060
-342.377	-200.000	-0.053	-0.278
-341.362	79.104	0.137	-0.147
-340.348	-142.247	0.235	0.023
-339.333	346.675	0.128	0.253
-338.318	141.376	0.014	0.019
-337.304	38.368	0.192	-0.171
-336.289	-200.000	-0.008	0.208
-335.275	348.196	0.059	-0.117
-334.260	48.058	0.075	0.071
-333.245	67.862	0.127	-0.130
-332.231	-48.672	0.361	-0.174
-331.216	46.992	0.226	0.211
-330.202	-163.133	-0.349	-0.017
-329.187	420.225	-0.033	0.071
-328.172	557.912	-0.038	0.092
-327.158	-198.952	0.116	0.001
-326.143	304.640	-0.073	-0.137
-325.129	-200.000	-0.002	0.241
-324.114	-1.335	-0.170	-0.121
-323.099	-200.000	0.009	0.118
-322.085	265.994	0.250	0.438
-321.070	-10.741	0.091	0.060
-320.056	-175.143	-0.172	0.005
-319.041	-52.944	-0.245	0.113
-318.026	433.861	0.157	-0.341
-317.012	-75.090	-0.213	0.076
-315.997	91.718	0.198	-0.223
-314.983	-123.818	-0.259	0.041
-313.968	37.743	-0.249	-0.222
-312.953	12.036	-0.203	0.156
-311.939	800.000	-0.008	0.032
-310.924	800.000	-0.063	-0.244
-309.910	-35.696	-0.139	0.076
-308.895	800.000	-0.028	0.095
-307.880	40.835	0.081	0.073
-306.866	357.607	-0.109	-0.219
-305.851	-200.000	0.010	-0.240
-304.837	-84.928	0.093	-0.029
-303.822	-113.354	-0.056	-0.011
-302.807	204.451	-0.170	0.265
-301.793	580.097	-0.157	0.385
-300.778	-19.098	-0.193	-0.120
-299.764	99.037	-0.146	-0.169
-298.749	-99.794	-0.247	0.062
-297.735	-98.358	-0.155	-0.040
-296.720	-168.768	-0.219	-0.008
-295.705	-200.000	0.027	0.378
-294.691	-124.293	-0.450	0.070
-293.676	-157.597	-0.505	-0.030
-292.662	800.000	0.142	-0.492
-291.647	246.782	-0.296	0.500
-290.632	-78.270	-0.078	0.027
-289.618	29.172	0.221	0.188
-288.603	-83.138	-0.434	0.140
-287.589	-96.008	-0.209	0.056
-286.574	-117.081	-0.030	-0.005
-285.559	-113.098	-0.207	0.041
-284.545	526.559	0.073	0.171
-283.530	-120.828	-0.223	0.038
-282.516	-200.000	-0.002	-0.225
-281.501	-89.510	0.254	0.075
-280.486	112.838	0.078	0.095
-279.472	571.845	-0.046	0.112
-278.457	-157.357	0.338	-0.020
-277.443	25.124	0.310	0.258
-276.428	-84.874	-0.290	0.091
-275.413	-200.000	0.077	-0.429
-274.399	-98.493	-0.358	0.092
-273.384	721.197	-0.052	0.140
-272.370	525.891	-0.065	-0.152
-271.355	-89.189	0.299	-0.088
-270.340	129.438	-0.063	-0.081
-269.326	94.317	-0.153	-0.174
-268.311	132.368	0.059	0.076
-267.297	-94.039	-0.199	-0.055
-266.282	-23.375	-0.071	0.043
-265.267	800.000	-0.062	0.268
-264.253	-84.197	0.039	-0.012
-263.238	800.000	0.075	0.279
-262.224	93.218	0.177	0.200
-261.209	-200.000	-0.036	0.374
-260.195	-200.000	0.027	0.198
-259.180	256.112	0.074	-0.126
-258.165	49.669	-0.353	0.333
-257.151	196.483	0.083	0.126
-256.136	445.255	0.028	0.063
-255.122	-63.249	0.300	0.123
-254.107	800.000	0.038	-0.158
-253.092	443.557	-0.089	0.196
-252.078	653.672	-0.106	0.272
-251.063	123.748	0.091	0.114
-250.049	141.614	0.067	0.089
-249.034	70.560	-0.140	0.144
-248.019	-200.000	0.001	0.283
-247.005	-112.896	0.386	0.076
-245.990	-21.182	-0.106	0.065
-244.976	246.852	0.075	-0.127
-243.961	800.000	0.059	0.162
-242.946	626.356	0.028	0.070
-241.932	-58.471	0.087	-0.038
-240.917	-89.178	-0.129	0.038
-239.903	800.000	-0.084	0.260
-238.888	-136.439	-0.225	0.026
-237.873	635.228	0.138	-0.350
-236.859	-174.464	0.268	-0.008
-235.844	-200.000	0.018	-0.170
-234.830	-51.171	-0.240	-0.112
-233.815	2.541	-0.196	-0.142
-232.800	-200.000	0.003	-0.332
-231.786	800.000	0.044	-0.153
-230.771	-34.344	0.262	0.144
-229.757	800.000	0.037	0.121
-228.742	800.000	0.007	0.024
-227.727	-112.115	0.259	0.052
-226.713	-89.392	-0.125	0.037
-225.698	104.894	-0.162	-0.191
-224.684	60.548	-0.116	-0.115
-223.669	-73.254	0.198	0.072
-222.655	-70.324	-0.206	-0.078
-221.640	-200.000	-0.027	-0.228
-220.625	90.661	-0.204	0.228
-219.611	133.543	0.107	-0.138
-218.596	76.450	-0.216	-0.228
-217.582	-200.000	0.030	-0.176
-216.567	747.332	-0.021	-0.055
-215.552	568.165	0.076	0.185
-214.538	21.057	0.445	0.361
-213.523	174.769	-0.065	-0.093
-212.509	194.706	-0.101	0.153
-211.494	76.779	0.180	-0.190
-210.479	-200.000	0.017	-0.100
-209.465	-145.302	-0.344	0.031
-208.450	-157.787	0.056	0.003
-207.436	73.423	0.020	-0.020
-206.421	-131.408	0.595	0.079
-205.406	-31.089	-0.077	0.043
-204.392	378.404	-0.126	-0.257
-203.377	-17.841	-0.040	0.025
-202.363	226.407	0.104	0.168
-201.348	375.097	-0.119	0.242
-200.333	-27.164	-0.190	-0.110
-199.319	54.388	-0.070	-0.067
-198.304	399.841	0.060	-0.126
-197.290	428.692	0.156	-0.337
-196.275	-54.263	0.212	0.096
-195.260	107.391	0.182	0.217
-194.246	-200.000	-0.042	-0.282
-193.231	49.335	-0.215	-0.202
-192.217	404.740	-0.120	0.253
-191.202	661.594	0.035	-0.090
-190.187	-6.553	0.081	0.055
-189.173	322.739	0.331	-0.628
-188.158	216.267	-0.265	-0.420
-187.144	-200.000	0.159	0.001
-186.129	329.722	-0.227	-0.436
-185.114	16.658	-0.125	-0.098
-184.100	137.796	0.109	-0.142
-183.085	348.064	0.064	-0.127
-182.071	-200.000	0.012	0.223
-181.056	78.498	-0.255	-0.272
-180.042	-200.000	-0.001	0.004
-179.027	800.000	0.049	-0.210
-178.012	-80.737	-0.164	0.054
-176.998	107.163	0.255	0.302
-175.983	89.999	0.130	0.144
-174.969	800.000	-0.111	-0.377
-173.954	-37.830	-0.475	-0.252
-172.939	240.703	0.131	0.218
-171.925	54.247	-0.077	0.073
-170.910	277.545	0.098	0.174
-169.896	170.887	0.056	-0.080
-168.881	-163.054	-0.504	-0.024
-167.866	5.605	0.101	-0.074
-166.852	-25.725	0.441	0.259
-165.837	141.404	-0.161	-0.212
-164.823	255.373	0.163	0.279
-163.808	2.548	0.287	0.207
-162.793	169.425	-0.199	0.283
-161.779	176.749	-0.073	-0.105
-160.764	-165.732	0.120	-0.005
-159.750	800.000	-0.040	-0.175
-158.735	89.821	0.093	0.103
-157.720	-79.959	-0.129	-0.043
-156.706	-176.713	-0.197	-0.005
-155.691	-200.000	0.025	0.154
-154.677	31.505	0.147	0.126
-153.662	246.581	0.081	-0.135
-152.647	-93.768	0.413	0.113
-151.633	7.270	-0.395	0.294
-150.618	19.838	0.292	0.234
-149.604	-45.920	0.243	-0.120
-148.589	800.000	-0.057	0.177
-147.574	313.604	-0.082	0.153
-146.560	412.495	0.028	0.059
-145.545	363.368	0.120	0.239
-144.531	-105.716	-0.324	0.073
-143.516	115.173	-0.296	-0.359
-142.502	-20.870	0.276	0.168
-141.487	748.980	-0.095	0.254
-140.472	-89.080	0.243	-0.072
-139.458	585.086	0.041	0.100
-138.443	-200.000	-0.291	-0.001
-137.429	204.746	0.170	-0.263
-136.414	-155.123	0.045	-0.003
-135.399	-146.050	0.396	-0.035
-134.385	118.677	0.090	0.111
-133.370	-64.943	-0.218	-0.088
-132.356	800.000	0.037	-0.135
-131.341	178.980	-0.121	-0.175
-130.326	29.806	-0.168	-0.142
-129.312	9.969	-0.083	-0.063
-128.297	386.233	-0.118	0.241
-127.283	250.363	-0.065	-0.110
-126.268	-9.812	-0.439	0.291
-125.253	230.404	0.036	0.058
-124.239	-200.000	-0.007	-0.180
-123.224	-74.048	-0.040	-0.015
-122.210	-129.147	0.313	0.044
-121.195	-84.587	0.194	0.061
-120.180	-106.572	-0.161	-0.036
-119.166	48.222	0.288	-0.268
-118.151	-15.369	0.038	0.024
-117.137	-200.000	-0.018	-0.307
-116.122	352.257	0.025	-0.050
-115.107	-112.032	0.222	0.044
-114.093	-200.000	-0.020	0.243
-113.078	-200.000	-0.035	-0.159
-112.064	-6.576	-0.148	-0.100
-111.049	115.714	-0.101	-0.122
-110.034	-51.077	0.155	0.072
-109.020	-24.830	0.484	0.286
-108.005	276.476	-0.195	0.344
-106.991	217.213	0.078	-0.124
-105.976	87.788	-0.139	0.153
-104.962	-50.279	-0.296	0.139
-103.947	-40.951	0.184	0.095
-102.932	-0.126	0.241	0.171
-101.918	-45.790	-0.113	0.056
-100.903	800.000	0.107	0.303
-99.889	300.675	0.177	0.324
-98.874	279.821	0.178	0.317
-97.859	-18.346	-0.379	-0.236
-96.845	-113.344	0.269	-0.052
-95.830	61.595	0.233	0.231
-94.816	-154.852	-0.370	-0.024
-93.801	-200.000	0.006	-0.116
-92.786	259.325	0.173	-0.297
-91.772	-93.359	0.045	-0.012
-90.757	-17.833	-0.019	-0.012
-89.743	-127.760	0.354	0.051
-88.728	800.000	0.104	0.447
-87.713	212.968	0.078	0.123
-86.699	800.000	-0.034	0.123
-85.684	562.512	-0.170	-0.408
-84.670	140.697	-0.073	-0.096
-83.655	-62.545	-0.174	-0.072
-82.640	-200.000	-0.045	0.307
-81.626	85.847	0.102	0.111
-80.611	231.229	0.008	-0.013
-79.597	243.165	-0.152	0.252
-78.582	15.001	-0.173	-0.135
-77.567	-17.745	-0.087	-0.054
-76.553	36.024	0.304	0.265
-75.538	-200.000	-0.026	0.498
-74.524	-200.000	0.024	0.259
-73.509	-180.234	0.418	-0.009
-72.494	-53.153	-0.252	-0.115
-71.480	247.706	0.211	0.354
-70.465	199.359	0.149	0.226
-69.451	704.199	0.199	0.521
-68.436	-15.001	-0.254	-0.162
-67.422	20.642	-0.449	0.361
-66.407	135.495	-0.048	-0.062
-65.392	602.554	0.082	-0.203
-64.378	-200.000	0.045	0.266
-63.363	800.000	0.054	-0.161
-62.349	223.106	0.084	0.134
-61.334	81.345	-0.650	-0.697
-60.319	314.207	0.282	0.526
-59.305	800.000	-0.284	-0.863
-58.290	272.398	0.564	0.987
-57.276	800.000	0.477	1.501
-56.261	-200.000	90.850	530.443
-55.246	573.771	1390.029	3363.526
-54.232	182.001	2623.707	3833.936
-53.217	117.671	2247.365	2744.419
-52.203	45.612	1770.658	1622.710
-51.188	38.431	1576.270	1393.602
-50.173	36.053	1547.672	1351.604
-49.159	53.009	1595.787	1514.827
-48.144	56.703	1615.324	1559.658
-47.130	39.017	1571.705	1393.506
-46.115	35.682	1556.548	1356.527
-45.100	35.467	1553.599	1352.383
-44.086	35.522	1551.421	1350.823
-43.071	35.437	1549.967	1348.906
-42.057	35.400	1548.238	1347.086
-41.042	35.381	1546.769	1345.621
-40.027	35.449	1544.870	1344.393
-39.013	35.352	1543.668	1342.619
-37.998	35.362	1542.109	1341.281
-36.984	35.458	1540.980	1340.912
-35.969	35.308	1540.050	1339.000
-34.954	35.518	1537.698	1338.371
-33.940	35.442	1536.875	1337.069
-32.925	35.447	1535.101	1335.508
-31.911	35.539	1533.907	1335.053
-30.896	35.440	1532.682	1333.249
-29.881	35.530	1531.071	1332.419
-28.867	35.510	1529.883	1331.193
-27.852	35.446	1528.483	1329.477
-26.838	35.526	1526.703	1328.432
-25.823	35.561	1524.838	1326.995
-24.809	35.453	1524.098	1325.559
-23.794	35.520	1522.191	1324.304
-22.779	35.476	1520.934	1322.861
-21.765	35.483	1520.068	1322.102
-20.750	35.588	1518.637	1321.527
-19.736	35.493	1517.881	1320.162
-18.721	35.415	1516.761	1318.601
-17.706	35.392	1515.965	1317.700
-16.692	35.497	1514.650	1317.222
-15.677	35.480	1513.319	1315.898
-14.663	35.353	1513.080	1314.762
-13.648	35.435	1511.397	1313.810
-12.633	35.340	1510.527	1312.352
-11.619	35.483	1509.374	1312.276
-10.604	35.387	1508.792	1311.063
-9.590	35.297	1508.271	1309.942
-8.575	35.402	1507.139	1309.623
-7.560	35.394	1505.977	1308.509
-6.546	35.386	1505.326	1307.838
-5.531	35.398	1504.215	1306.902
-4.517	35.456	1502.856	1306.062
-3.502	35.416	1502.069	1305.058
-2.487	35.394	1501.032	1303.951
-1.473	35.392	1499.974	1302.970
-0.458	35.422	1498.588	1301.920
0.556	36.063	1489.763	1292.742
1.571	33.573	1462.762	1252.772
2.586	30.082	1398.745	1175.735
3.600	28.135	1313.340	1092.234
4.615	25.998	1264.741	1039.426
5.629	21.728	1205.967	967.513
6.644	12.523	1116.450	848.347
7.659	5.416	1073.782	780.488
8.673	4.361	1067.518	770.628
9.688	4.208	1064.905	767.915
10.702	4.171	1063.649	766.761
11.717	4.400	1061.665	766.390
12.731	6.718	1064.621	779.920
13.746	15.304	1076.642	831.397
14.761	20.757	1083.177	863.494
15.775	20.202	1081.528	859.357
16.790	19.246	1079.304	852.784
17.804	18.103	1077.224	845.411
18.819	17.373	1074.784	839.821
19.834	16.928	1073.467	836.526
20.848	16.677	1073.143	834.957
21.863	16.558	1071.964	833.383
22.877	16.158	1071.589	831.044
23.892	16.127	1070.010	829.597
24.907	16.011	1069.850	828.829
25.921	15.844	1068.873	827.174
26.936	15.976	1067.950	827.034
27.950	15.945	1067.166	826.204
28.965	16.011	1065.506	825.169
29.980	16.148	1064.566	825.039
30.994	16.319	1063.502	824.974
32.009	16.358	1062.719	824.484
33.023	16.301	1062.099	823.653
34.038	16.264	1061.489	822.929
35.053	16.246	1060.204	821.774
36.067	16.137	1059.399	820.543
37.082	16.104	1058.422	819.557
38.096	16.241	1057.091	819.114
39.111	16.133	1057.334	818.708
40.126	16.200	1056.167	818.056
41.140	16.169	1054.633	816.649
42.155	15.986	1053.987	815.189
43.169	15.831	1052.957	813.572
44.184	15.833	1051.596	812.459
45.199	15.666	1051.190	811.264
46.213	15.788	1049.946	810.824
47.228	15.858	1048.830	810.227
48.242	15.961	1047.657	809.743
49.257	16.032	1046.768	809.325
50.271	16.037	1045.719	808.468
51.286	16.169	1044.890	808.386
52.301	16.104	1044.338	807.578
53.315	16.058	1043.621	806.728
54.330	16.043	1042.440	805.675
55.344	16.005	1041.549	804.731
56.359	15.891	1040.715	803.473
57.374	16.032	1039.669	803.268
58.388	15.913	1038.672	801.856
59.403	15.757	1038.293	800.752
60.417	15.861	1037.383	800.474
61.432	15.658	1036.703	798.915
62.447	15.769	1035.938	798.782
63.461	15.617	1035.052	797.307
64.476	15.665	1033.986	796.642
65.490	15.514	1033.427	795.425
66.505	15.605	1031.933	794.637
67.520	15.715	1031.553	794.793
68.534	15.784	1030.570	794.290
69.549	15.802	1029.702	793.638
70.563	15.856	1029.016	793.294
71.578	15.684	1028.375	791.916
72.593	15.610	1027.179	790.578
73.607	15.388	1026.815	789.185
74.622	15.499	1025.657	788.748
75.636	15.572	1024.830	788.382
76.651	15.536	1023.672	787.253
77.666	15.631	1023.184	787.255
78.680	15.642	1022.170	786.453
79.695	15.514	1021.673	785.405
80.709	15.615	1021.320	785.535
81.724	15.646	1020.108	784.680
82.739	15.796	1019.618	784.930
83.753	15.832	1019.146	784.666
84.768	15.880	1018.358	784.217
85.782	16.048	1017.394	784.183
86.797	16.142	1017.210	784.411
87.812	16.289	1016.005	784.093
88.826	16.037	1015.207	782.242
89.841	16.064	1014.345	781.633
90.855	16.153	1013.645	781.438
91.870	16.147	1012.828	780.708
92.884	16.269	1012.252	780.761
93.899	16.157	1011.328	779.463
94.914	16.209	1010.497	778.990
95.928	16.271	1009.831	778.695
96.943	16.198	1009.404	777.961
97.957	16.209	1007.985	776.847
98.972	16.167	1007.301	776.061
99.987	16.147	1006.341	775.160
101.001	16.240	1005.822	775.116
102.016	16.222	1004.907	774.261
103.030	16.153	1004.387	773.475
104.045	16.047	1003.337	772.116
105.060	16.124	1002.206	771.527
106.074	16.191	1001.192	770.983
107.089	16.048	999.878	769.250
108.103	15.775	999.186	767.408
109.118	15.788	997.951	766.447
110.133	15.791	997.466	766.025
111.147	15.768	996.586	765.174
112.162	15.669	995.779	764.035
113.176	15.836	994.572	763.801
114.191	15.868	993.777	763.270
115.206	15.983	993.006	763.130
116.220	15.885	992.098	761.920
117.235	15.758	991.424	760.764
118.249	15.883	990.175	760.302
119.264	15.884	989.805	759.954
120.279	15.888	988.788	759.122
121.293	15.716	988.407	757.989
122.308	15.662	987.283	756.819
123.322	15.678	986.317	756.079
124.337	15.664	985.209	755.103
125.352	15.606	984.093	753.920
126.366	15.611	982.867	752.937
127.381	15.632	982.218	752.465
128.395	15.718	981.065	751.902
129.410	15.628	980.128	750.713
130.424	15.802	979.280	750.774
131.439	15.750	978.246	749.684
132.454	15.761	977.562	749.144
133.468	15.805	977.184	748.983
134.483	15.946	975.892	748.554
135.497	15.918	975.629	748.160
136.512	15.870	974.842	747.279
137.527	15.961	974.035	746.998
138.541	15.940	973.372	746.331
139.556	15.867	972.434	745.219
140.570	15.855	971.699	744.537
141.585	15.920	971.198	744.375
142.600	16.193	970.199	744.748
143.614	16.189	969.479	744.114
144.629	16.202	968.507	743.358
145.643	16.239	968.352	743.336
146.658	16.177	967.162	742.085
147.673	16.218	965.803	741.155
148.687	16.031	964.981	739.642
149.702	15.939	964.264	738.623
150.716	15.889	963.311	737.608
151.731	15.968	962.694	737.413
152.746	15.949	961.477	736.332
153.760	15.945	961.014	735.898
154.775	15.901	960.621	735.338
155.789	15.999	959.596	734.916
156.804	16.070	959.150	734.818
157.819	16.152	958.151	734.348
158.833	16.090	957.601	733.588
159.848	16.059	956.938	732.882
160.862	16.241	956.197	733.041
161.877	16.291	955.422	732.598
162.892	16.077	954.339	730.778
163.906	16.115	953.016	729.864
164.921	15.811	952.531	728.109
165.935	15.998	951.355	727.955
166.950	15.918	950.745	727.078
167.964	16.130	949.725	727.148
168.979	16.114	948.573	726.134
169.994	16.160	947.132	725.165
171.008	16.023	946.399	723.951
172.023	16.007	946.071	723.566
173.037	16.158	944.948	723.293
174.052	16.166	944.761	723.119
175.067	16.304	943.402	722.603
176.081	16.057	942.952	721.141
177.096	15.955	941.963	719.885
178.110	15.951	941.057	719.112
179.125	16.157	940.169	719.246
180.140	16.176	939.293	718.593
181.154	16.094	938.825	717.822
182.169	16.157	938.321	717.642
183.183	16.213	938.122	717.665
184.198	16.357	937.070	717.409
185.213	16.316	936.688	716.880
186.227	16.406	936.080	716.730
187.242	16.369	935.508	716.072
188.256	16.400	934.816	715.613
189.271	16.394	934.684	715.424
190.286	16.580	933.040	714.888
191.300	16.324	932.387	713.243
192.315	16.103	931.516	711.580
193.329	15.837	930.797	709.847
194.344	15.982	929.943	709.742
195.359	15.999	929.615	709.501
196.373	16.203	929.061	709.875
197.388	16.410	928.122	709.966
198.402	16.419	928.064	709.895
199.417	16.600	927.869	710.443
200.432	16.609	927.453	710.100
201.446	16.682	927.412	710.310
202.461	16.725	926.549	709.765
203.475	16.883	926.076	710.002
204.490	16.904	924.926	709.146
205.504	16.627	924.661	707.721
206.519	16.552	923.464	706.430
207.534	16.482	922.627	705.436
208.548	16.568	922.071	705.307
209.563	16.525	921.464	704.602
210.577	16.496	920.504	703.683
211.592	16.626	919.800	703.625
212.607	16.629	919.833	703.600
213.621	16.820	919.113	703.782
214.636	16.794	918.297	702.983
215.650	16.673	917.632	701.913
216.665	16.531	917.482	701.148
217.680	16.767	917.184	701.834
218.694	16.906	916.218	701.608
219.709	16.854	915.748	700.970
220.723	16.668	915.299	699.796
221.738	16.730	914.659	699.504
222.753	16.740	913.478	698.578
223.767	16.689	913.033	697.966
224.782	16.785	912.001	697.512
225.796	16.777	911.656	697.151
226.811	17.007	910.475	697.132
227.826	17.000	909.923	696.619
228.840	16.892	909.416	695.728
229.855	16.863	908.562	694.894
230.869	16.846	908.006	694.335
231.884	16.848	907.384	693.807
232.899	16.775	906.305	692.621
233.913	16.739	905.910	692.111
234.928	16.806	905.121	691.723
235.942	16.717	904.563	690.869
236.957	16.713	903.409	689.911
237.972	16.765	903.059	689.797
238.986	16.694	902.453	688.982
240.001	16.619	901.985	688.257
241.015	16.817	901.107	688.331
242.030	16.836	900.672	688.016
243.045	16.971	899.560	687.654
244.059	16.882	898.787	686.643
245.074	17.032	898.553	687.008
246.088	16.974	898.076	686.348
247.103	17.087	897.426	686.250
248.117	17.050	896.917	685.648
249.132	17.092	896.563	685.488
250.147	17.272	895.924	685.665
251.161	17.376	895.218	685.481
252.176	17.349	894.562	684.810
253.190	17.508	893.779	684.792
254.205	17.589	893.512	684.853
255.220	17.575	892.929	684.288
256.234	17.591	892.002	683.579
257.249	17.571	891.272	682.880
258.263	17.551	890.811	682.389
259.278	17.565	890.399	682.066
260.293	17.695	889.599	681.913
261.307	17.659	889.252	681.443
262.322	17.680	888.635	680.996
263.336	17.691	888.177	680.628
264.351	17.691	887.182	679.803
265.366	17.684	886.821	679.438
266.380	17.897	885.801	679.446
267.395	17.738	885.360	678.416
268.409	17.723	884.517	677.651
269.424	17.669	883.985	676.967
270.439	17.653	883.121	676.181
271.453	17.721	882.175	675.668
272.468	17.724	881.340	674.981
273.482	17.547	880.824	673.825
274.497	17.552	880.322	673.399
275.512	17.555	879.717	672.890
276.526	17.598	878.943	672.408
277.541	17.540	878.457	671.750
278.555	17.638	877.717	671.511
279.570	17.818	877.396	671.915
280.585	17.913	876.947	671.884
281.599	17.878	876.442	671.300
282.614	17.867	875.187	670.236
283.628	17.774	874.344	669.165
284.643	17.763	874.382	669.094
285.657	17.763	873.624	668.453
286.672	17.797	873.120	668.143
287.687	17.828	872.673	667.864
288.701	17.849	872.417	667.688
289.716	17.766	871.685	666.746
290.730	17.865	871.043	666.582
291.745	17.858	870.178	665.833
292.760	17.764	869.724	665.060
293.774	17.857	868.889	664.727
294.789	18.034	868.527	665.080
295.803	18.039	867.667	664.380
296.818	17.904	867.333	663.542
297.833	17.835	866.543	662.612
298.847	17.885	865.867	662.229
299.862	17.992	865.249	662.112
300.876	17.901	864.758	661.328
301.891	17.986	864.133	661.117
302.906	18.125	863.530	661.135
303.920	18.070	862.743	660.263
304.935	18.337	861.771	660.492
305.949	18.302	861.740	660.273
306.964	18.273	860.903	659.462
307.979	18.155	860.202	658.414
308.993	18.129	859.883	658.010
310.008	18.283	859.628	658.350
311.022	18.315	858.954	657.899
312.037	18.252	858.220	657.036
313.052	18.208	857.307	656.110
314.066	18.180	856.910	655.638
315.081	18.099	856.228	654.751
316.095	18.220	855.557	654.643
317.110	18.138	854.812	653.700
318.125	18.042	854.850	653.307
319.139	18.050	854.283	652.844
320.154	18.159	853.403	652.530
321.168	18.143	853.350	652.370
322.183	18.229	852.346	651.873
323.197	18.205	852.006	651.465
324.212	18.116	851.639	650.788
325.227	18.237	850.689	650.465
326.241	18.067	850.377	649.522
327.256	18.187	849.711	649.411
328.270	18.304	848.768	649.076
329.285	18.160	848.516	648.281
330.300	18.218	847.633	647.767
331.314	18.138	847.208	647.083
332.329	18.277	846.519	647.027
333.343	18.391	845.799	646.849
334.358	18.294	845.429	646.142
335.373	18.308	845.020	645.826
336.387	18.456	844.704	646.085
337.402	18.498	843.958	645.615
338.416	18.563	843.586	645.519
339.431	18.592	842.962	645.092
340.446	18.626	842.361	644.704
341.460	18.645	842.171	644.571
342.475	18.682	841.095	643.829
343.489	18.866	840.648	644.121
344.504	18.849	840.436	643.836
345.519	18.840	839.648	643.144
346.533	18.944	839.328	643.231
347.548	18.850	838.794	642.411
348.562	19.009	838.064	642.391
349.577	18.781	837.288	640.889
350.592	18.532	837.215	639.848
351.606	18.426	836.613	638.935
352.621	18.450	836.174	638.632
353.635	18.551	835.582	638.499
354.650	18.722	835.320	638.879
355.665	18.733	834.856	638.509
356.679	18.601	834.773	637.897
357.694	18.720	834.193	637.840
358.708	18.917	832.930	637.549
359.723	18.730	832.794	636.697
360.738	18.743	832.250	636.270
361.752	18.814	831.401	635.830
362.767	18.831	831.235	635.709
363.781	19.000	830.938	636.051
364.796	18.980	830.561	635.633
365.810	19.193	830.042	635.963
366.825	19.178	829.552	635.478
367.840	19.149	829.706	635.433
368.854	19.260	829.334	635.499
369.869	19.038	828.602	634.065
370.883	19.098	827.680	633.524
371.898	18.990	827.445	632.890
372.913	19.226	826.612	633.064
373.927	19.251	826.349	632.901
374.942	19.124	825.728	631.901
375.956	19.103	824.767	631.035
376.971	19.169	824.429	630.960
377.986	19.234	823.685	630.572
379.000	19.306	823.453	630.604
380.015	19.477	823.095	630.898
381.029	19.383	822.157	629.779
382.044	19.247	821.975	629.090
383.059	19.424	821.103	629.010
384.073	19.477	820.763	628.889
385.088	19.386	820.282	628.132
386.102	19.121	819.644	626.623
387.117	19.199	818.652	626.095
388.132	19.287	817.974	625.838
389.146	19.187	818.122	625.534
390.161	19.227	817.589	625.217
391.175	19.285	817.257	625.119
392.190	19.372	816.899	625.105
393.205	19.354	816.608	624.759
394.219	19.318	815.834	623.983
395.234	19.425	815.430	624.005
396.248	19.204	815.161	622.947
397.263	19.192	814.330	622.213
398.278	19.150	813.661	621.493
399.292	19.136	813.047	620.919
400.307	19.251	812.606	620.944
401.321	19.385	812.064	620.957
402.336	19.312	811.943	620.544
403.350	19.324	811.361	620.091
404.365	19.316	811.339	619.990
405.380	19.475	810.638	619.970
406.394	19.586	810.191	619.970
407.409	19.539	810.047	619.639
408.423	19.737	809.392	619.792
409.438	19.741	808.941	619.407
410.453	19.669	808.848	619.021
411.467	19.744	808.314	618.825
412.482	19.866	807.879	618.875
413.496	20.006	807.341	618.908
414.511	20.013	807.002	618.620
415.526	20.011	806.443	618.128
416.540	19.835	806.394	617.408
417.555	19.822	806.253	617.198
418.569	19.742	805.486	616.271
419.584	19.820	804.883	616.034
420.599	19.905	804.094	615.678
421.613	154.631	1368.915	1786.426
422.628	134.178	1451.235	1786.540
