DTS Sentinel unit serial number:	SN413079Multiplexer serial number:	ORYXHardware model number:	OX4-SRSoftware version number:	ORYX F/W v4.00 Oryx Data Collector v3.7.2.0data status	okinstallation	princeton_trtdifferential loss correction	single-endedforward channel	channel 3reverse channel	N/Adate	2019/09/17time	23:00:35forward acquisition time	60.00reverse acquisition time	0.00gamma	496.2192k internal	0.2344k external	0.2344temperature offset calibration	0.9951default loss term (dB/km)	0.3790temperature slope calibration	1.0000multiplexer offset coefficient	1.0000multiplexer slope coefficient	1.0000fibre end	0.00T internal ref (°C)	24.77T ext. ref 1 (°C)	0.18T ext. ref 2 (°C)	18.02length (m)	temperature (°C)	Stokes	anti-Stokes-747.200	-45.324	0.098	0.049
-746.185	-101.089	-0.521	-0.128
-745.171	-200.000	0.042	0.186
-744.156	-200.000	-0.057	0.275
-743.142	800.000	-0.077	0.314
-742.127	21.393	0.388	0.316
-741.112	-24.208	-0.188	-0.112
-740.098	-118.932	-0.385	0.068
-739.083	60.214	0.193	0.191
-738.069	10.968	-0.155	0.118
-737.054	578.695	0.030	-0.073
-736.039	-65.540	-0.022	-0.009
-735.025	-23.169	-0.174	0.105
-734.010	228.662	-0.052	0.085
-732.996	356.294	-0.051	-0.101
-731.981	-200.000	0.005	-0.204
-730.966	800.000	0.104	-0.320
-729.952	800.000	-0.015	0.049
-728.937	469.865	0.080	0.180
-727.923	12.961	-0.102	-0.079
-726.908	6.958	0.318	-0.237
-725.894	111.138	0.075	0.090
-724.879	-200.000	0.006	0.134
-723.864	389.359	0.129	0.267
-722.850	-200.000	-0.054	-0.361
-721.835	44.239	-0.168	0.154
-720.821	800.000	0.062	0.266
-719.806	-88.520	-0.343	0.102
-718.791	-21.507	0.229	-0.140
-717.777	800.000	-0.153	-0.494
-716.762	-200.000	-0.052	-0.280
-715.748	529.974	-0.019	0.046
-714.733	-200.000	0.011	-0.118
-713.718	-200.000	0.014	0.113
-712.704	-23.946	-0.075	0.045
-711.689	-91.485	-0.224	-0.064
-710.675	-35.526	0.321	-0.174
-709.660	-200.000	0.004	-0.207
-708.645	105.593	0.050	-0.059
-707.631	218.552	0.116	0.186
-706.616	68.095	-0.303	-0.309
-705.602	-4.225	-0.221	0.153
-704.587	-130.322	0.202	-0.027
-703.572	-200.000	-0.045	-0.275
-702.558	10.882	0.061	0.047
-701.543	-116.390	-0.088	0.016
-700.529	800.000	-0.036	-0.146
-699.514	-53.998	-0.280	-0.127
-698.499	-123.601	-0.105	-0.017
-697.485	8.976	0.052	0.039
-696.470	-29.719	0.323	0.184
-695.456	-61.467	0.234	0.098
-694.441	-111.664	-0.345	0.070
-693.426	-100.147	0.247	0.061
-692.412	33.435	-0.299	-0.259
-691.397	-92.846	-0.189	-0.053
-690.383	-33.566	0.096	-0.053
-689.368	155.974	0.107	0.148
-688.354	217.465	0.215	0.342
-687.339	107.390	-0.125	-0.148
-686.324	-200.000	-0.035	-0.280
-685.310	-41.578	-0.244	0.125
-684.295	-78.960	0.344	0.117
-683.281	-62.634	-0.298	0.123
-682.266	800.000	-0.075	-0.246
-681.251	-183.791	-0.119	-0.002
-680.237	-200.000	-0.007	-0.252
-679.222	-200.000	0.002	0.075
-678.208	-127.058	-0.395	-0.058
-677.193	72.035	-0.087	-0.090
-676.178	-53.020	0.268	-0.123
-675.164	10.934	0.142	-0.108
-674.149	-196.092	0.037	-0.000
-673.135	97.016	-0.142	0.163
-672.120	-81.574	-0.345	0.113
-671.105	113.170	-0.064	-0.077
-670.091	-200.000	-0.014	0.342
-669.076	-95.477	0.066	0.018
-668.062	-200.000	-0.031	-0.315
-667.047	35.212	0.133	0.116
-666.032	5.531	-0.186	0.137
-665.018	215.189	0.036	0.057
-664.003	3.353	-0.292	0.212
-662.989	-132.587	0.253	0.032
-661.974	404.794	-0.054	-0.114
-660.959	-171.616	0.237	-0.008
-659.945	800.000	0.050	-0.139
-658.930	0.411	0.155	0.110
-657.916	-17.240	0.193	-0.121
-656.901	155.846	-0.034	-0.046
-655.886	16.876	-0.404	0.319
-654.872	166.297	-0.081	0.114
-653.857	-200.000	-0.005	0.200
-652.843	-200.000	-0.003	-0.370
-651.828	-66.731	-0.069	0.027
-650.814	-175.970	-0.310	0.008
-649.799	396.903	-0.122	-0.254
-648.784	72.999	-0.194	-0.202
-647.770	800.000	0.096	-0.329
-646.755	-200.000	-0.020	-0.229
-645.741	-154.863	-0.253	0.017
-644.726	800.000	-0.095	0.266
-643.711	-12.809	0.221	-0.144
-642.697	44.767	-0.108	0.099
-641.682	-113.360	-0.243	-0.048
-640.668	88.135	-0.232	-0.257
-639.653	168.829	0.168	0.239
-638.638	133.164	0.062	0.079
-637.624	48.135	0.198	0.184
-636.609	-97.937	0.459	-0.118
-635.595	-68.114	-0.055	0.022
-634.580	-116.862	-0.267	-0.049
-633.565	-106.444	-0.247	-0.055
-632.551	314.140	-0.058	0.109
-631.536	15.424	0.270	-0.211
-630.522	-200.000	0.015	0.142
-629.507	-200.000	0.049	-0.252
-628.492	-97.215	-0.233	0.061
-627.478	-48.089	0.129	0.062
-626.463	800.000	0.043	-0.175
-625.449	124.803	0.108	-0.136
-624.434	800.000	0.006	-0.026
-623.419	224.734	-0.182	0.293
-622.405	-6.520	-0.112	0.076
-621.390	800.000	-0.173	0.535
-620.376	-69.582	0.100	0.038
-619.361	-200.000	0.004	0.145
-618.346	167.615	-0.226	0.319
-617.332	149.072	0.085	-0.115
-616.317	200.727	-0.087	0.134
-615.303	-56.835	-0.205	0.090
-614.288	800.000	0.023	0.067
-613.273	-4.646	-0.067	-0.046
-612.259	-200.000	0.015	-0.182
-611.244	-200.000	-0.040	0.322
-610.230	45.659	-0.184	-0.169
-609.215	183.719	0.166	-0.244
-608.201	-22.849	0.114	0.068
-607.186	-200.000	0.005	0.258
-606.171	-105.680	0.049	0.011
-605.157	-27.892	0.181	-0.105
-604.142	444.895	-0.099	-0.216
-603.128	85.649	-0.116	0.126
-602.113	88.865	0.072	0.080
-601.098	800.000	-0.038	-0.133
-600.084	-200.000	0.036	0.212
-599.069	128.103	-0.237	-0.300
-598.055	315.253	0.115	-0.216
-597.040	63.103	-0.243	-0.243
-596.025	606.751	0.082	-0.204
-595.011	75.946	0.255	-0.269
-593.996	-4.558	0.304	-0.209
-592.982	-200.000	0.001	-0.092
-591.967	-86.530	-0.192	-0.059
-590.952	238.459	0.181	-0.300
-589.938	800.000	-0.040	0.120
-588.923	-175.247	-0.142	0.004
-587.909	-114.705	0.060	-0.011
-586.894	800.000	0.053	-0.221
-585.879	-99.322	0.227	-0.057
-584.865	-147.810	-0.149	-0.012
-583.850	-27.546	0.134	0.077
-582.836	-2.249	-0.197	-0.137
-581.821	-16.251	0.101	-0.064
-580.806	70.362	0.163	0.168
-579.792	72.338	0.121	0.125
-578.777	-136.509	0.140	-0.016
-577.763	109.566	0.200	0.239
-576.748	-200.000	0.043	0.291
-575.733	776.276	-0.079	0.214
-574.719	37.222	-0.084	-0.074
-573.704	-103.053	0.127	-0.030
-572.690	-89.066	-0.163	-0.048
-571.675	-200.000	0.013	-0.179
-570.661	800.000	0.054	0.151
-569.646	-59.187	-0.433	-0.186
-568.631	47.618	0.175	-0.162
-567.617	-200.000	-0.023	0.125
-566.602	-89.390	-0.287	0.084
-565.588	800.000	-0.058	-0.218
-564.573	145.059	0.148	-0.197
-563.558	236.314	0.113	0.186
-562.544	800.000	0.042	-0.134
-561.529	-200.000	-0.047	-0.266
-560.515	-134.484	0.326	0.040
-559.500	-72.848	-0.192	-0.070
-558.485	-94.692	0.231	-0.062
-557.471	-117.704	0.289	0.052
-556.456	61.075	0.017	0.017
-555.442	-119.883	0.310	-0.053
-554.427	-77.279	0.180	-0.062
-553.412	-21.617	0.265	-0.160
-552.398	800.000	0.132	-0.423
-551.383	48.333	-0.129	-0.120
-550.369	-32.255	-0.296	-0.164
-549.354	800.000	0.055	-0.240
-548.339	-157.271	0.231	-0.014
-547.325	-29.056	-0.207	0.118
-546.310	-200.000	0.019	-0.094
-545.296	89.182	-0.100	0.110
-544.281	-200.000	0.046	0.277
-543.266	-132.079	0.293	0.038
-542.252	800.000	-0.042	0.156
-541.237	33.357	-0.043	0.037
-540.223	401.638	0.173	0.361
-539.208	-20.493	0.243	-0.148
-538.193	21.942	-0.219	0.178
-537.179	-80.242	0.291	-0.097
-536.164	-200.000	0.017	-0.153
-535.150	56.021	0.139	-0.133
-534.135	-200.000	-0.009	0.179
-533.121	409.041	-0.062	0.130
-532.106	748.889	-0.039	0.106
-531.091	46.612	0.080	-0.074
-530.077	-200.000	0.019	-0.132
-529.062	42.546	0.197	0.178
-528.048	-101.353	0.255	-0.062
-527.033	-62.106	0.206	-0.085
-526.018	352.343	-0.102	0.202
-525.004	-200.000	0.005	-0.076
-523.989	255.965	-0.015	0.026
-522.975	-200.000	-0.005	-0.032
-521.960	-109.653	0.162	-0.034
-520.945	32.387	-0.030	0.025
-519.931	758.684	-0.150	0.404
-518.916	-107.008	-0.243	-0.053
-517.902	800.000	0.067	0.271
-516.887	800.000	-0.022	-0.073
-515.872	281.613	-0.172	-0.305
-514.858	649.910	-0.114	-0.288
-513.843	694.362	0.096	-0.250
-512.829	-58.285	-0.123	-0.053
-511.814	-200.000	-0.007	-0.084
-510.799	230.919	-0.144	-0.233
-509.785	-20.441	-0.220	0.134
-508.770	-200.000	0.005	0.182
-507.756	-7.810	0.009	-0.006
-506.741	533.912	0.085	0.199
-505.726	69.143	0.103	0.105
-504.712	236.616	0.068	0.111
-503.697	65.823	-0.049	-0.049
-502.683	-114.244	0.040	-0.008
-501.668	282.931	0.113	-0.201
-500.653	-33.663	-0.140	0.077
-499.639	-200.000	0.011	-0.071
-498.624	205.663	0.142	0.218
-497.610	38.539	-0.350	-0.310
-496.595	-112.147	-0.189	0.038
-495.581	-83.921	0.272	-0.086
-494.566	273.990	0.075	-0.131
-493.551	94.441	-0.089	-0.100
-492.537	162.122	-0.231	0.320
-491.522	-120.178	0.223	0.038
-490.508	-136.328	0.207	0.024
-489.493	45.173	-0.073	0.067
-488.478	-200.000	0.061	-0.320
-487.464	-79.476	0.204	-0.068
-486.449	64.121	0.157	-0.157
-485.435	-30.372	0.090	-0.051
-484.420	76.030	-0.039	-0.041
-483.405	222.068	-0.255	-0.407
-482.391	-200.000	-0.075	-0.351
-481.376	22.896	-0.357	0.290
-480.362	-8.162	0.211	0.141
-479.347	-200.000	-0.038	0.176
-478.332	-102.464	-0.285	0.068
-477.318	-27.007	0.118	0.068
-476.303	-18.083	-0.127	-0.079
-475.289	800.000	-0.087	0.337
-474.274	800.000	-0.074	0.288
-473.259	-97.091	-0.148	-0.038
-472.245	81.661	0.095	-0.102
-471.230	-27.871	0.085	0.049
-470.216	398.034	0.113	0.234
-469.201	-46.382	-0.319	0.155
-468.186	-49.358	0.168	-0.080
-467.172	52.755	0.153	0.145
-466.157	-25.929	-0.323	-0.188
-465.143	396.961	0.190	0.393
-464.128	675.033	-0.053	-0.137
-463.113	-78.258	-0.310	0.105
-462.099	-32.459	-0.276	-0.153
-461.084	800.000	0.072	0.260
-460.070	-109.093	0.183	0.039
-459.055	124.655	-0.287	-0.357
-458.040	-200.000	-0.029	-0.231
-457.026	-20.366	-0.298	0.182
-456.011	6.569	-0.068	-0.050
-454.997	13.108	-0.254	0.195
-453.982	-200.000	0.046	-0.201
-452.968	-43.083	0.126	0.063
-451.953	-200.000	0.014	-0.070
-450.938	93.447	0.169	-0.190
-449.924	765.374	0.067	0.180
-448.909	800.000	0.118	0.418
-447.895	33.725	-0.016	-0.014
-446.880	-83.425	-0.205	-0.065
-445.865	22.744	-0.315	-0.255
-444.851	18.757	-0.186	0.147
-443.836	800.000	-0.063	0.181
-442.822	387.216	-0.077	0.158
-441.807	-31.062	0.181	-0.101
-440.792	42.208	0.245	-0.220
-439.778	800.000	0.025	0.085
-438.763	64.505	-0.194	-0.194
-437.749	-70.375	0.064	0.024
-436.734	-47.258	-0.160	0.077
-435.719	449.261	-0.136	0.295
-434.705	800.000	0.026	-0.108
-433.690	800.000	-0.077	0.324
-432.676	276.589	0.198	0.347
-431.661	14.384	-0.251	-0.194
-430.646	-200.000	0.001	-0.066
-429.632	-88.850	0.127	0.037
-428.617	-71.819	-0.286	0.105
-427.603	-200.000	-0.029	0.393
-426.588	350.242	-0.104	-0.204
-425.573	-32.943	-0.098	-0.054
-424.559	-200.000	-0.036	-0.195
-423.544	-63.211	0.120	0.049
-422.530	10.782	0.091	0.069
-421.515	-200.000	-0.082	0.383
-420.500	-69.428	0.123	-0.047
-419.486	271.651	0.071	0.123
-418.471	-59.407	0.145	0.062
-417.457	441.854	-0.021	-0.045
-416.442	800.000	-0.079	0.221
-415.428	563.428	0.074	-0.177
-414.413	14.203	-0.322	-0.248
-413.398	475.097	0.102	-0.227
-412.384	-124.081	0.332	-0.052
-411.369	-52.120	0.117	0.053
-410.355	383.970	-0.105	0.213
-409.340	-126.925	0.114	-0.017
-408.325	158.331	0.017	-0.024
-407.311	800.000	-0.130	0.453
-406.296	137.811	0.235	-0.304
-405.282	355.142	-0.114	-0.223
-404.267	800.000	0.066	0.265
-403.252	800.000	0.077	0.246
-402.238	-124.685	0.116	-0.018
-401.223	-181.294	0.026	0.000
-400.209	-16.432	0.160	-0.100
-399.194	23.165	0.264	0.214
-398.179	84.174	-0.151	0.162
-397.165	-182.384	0.254	0.005
-396.150	619.227	-0.020	0.050
-395.136	-92.817	0.073	-0.020
-394.121	-200.000	-0.050	-0.217
-393.106	-74.846	0.144	-0.051
-392.092	-48.993	-0.211	0.100
-391.077	173.845	-0.053	0.075
-390.063	-139.957	0.318	-0.033
-389.048	108.785	-0.110	-0.129
-388.033	-60.037	-0.147	0.062
-387.019	73.513	-0.061	-0.063
-386.004	-111.395	0.073	-0.015
-384.990	-86.624	-0.123	-0.037
-383.975	-153.674	0.253	-0.017
-382.960	-157.976	-0.133	0.008
-381.946	32.804	0.079	-0.068
-380.931	493.613	0.121	0.275
-379.917	0.376	-0.263	0.185
-378.902	-200.000	0.042	0.329
-377.888	-143.594	0.030	-0.003
-376.873	23.397	-0.358	0.291
-375.858	-66.114	0.221	0.087
-374.844	-61.181	0.235	-0.098
-373.829	119.648	0.186	-0.228
-372.815	108.202	0.094	-0.110
-371.800	-147.389	-0.099	-0.008
-370.785	-117.209	-0.180	0.032
-369.771	-0.018	0.267	0.187
-368.756	-36.126	-0.212	-0.113
-367.742	-37.430	0.210	-0.110
-366.727	15.498	-0.326	-0.253
-365.712	-123.297	-0.164	-0.026
-364.698	800.000	-0.096	-0.264
-363.683	800.000	-0.085	0.298
-362.669	147.918	0.204	0.271
-361.654	800.000	0.047	-0.174
-360.639	379.678	0.072	-0.145
-359.625	-108.609	0.127	-0.027
-358.610	25.348	0.180	-0.148
-357.596	34.330	0.194	0.166
-356.581	-156.831	-0.338	0.021
-355.566	238.221	-0.037	-0.060
-354.552	-200.000	0.050	-0.365
-353.537	-68.701	0.293	-0.112
-352.523	-200.000	-0.001	-0.350
-351.508	800.000	-0.135	0.414
-350.493	-104.866	0.226	-0.051
-349.479	-24.457	0.118	0.069
-348.464	790.698	-0.075	-0.203
-347.450	65.530	-0.263	-0.262
-346.435	263.814	-0.040	-0.069
-345.420	61.712	0.145	0.142
-344.406	-64.531	0.372	-0.149
-343.391	-127.623	-0.256	0.037
-342.377	113.697	-0.113	-0.136
-341.362	800.000	-0.011	0.039
-340.348	-70.186	0.236	-0.088
-339.333	44.573	0.141	-0.128
-338.318	150.470	-0.113	-0.151
-337.304	-11.415	-0.222	-0.144
-336.289	80.966	0.122	-0.130
-335.275	-122.177	0.240	0.039
-334.260	800.000	0.077	0.287
-333.245	97.406	-0.072	0.081
-332.231	-200.000	0.048	-0.218
-331.216	-89.087	0.389	0.113
-330.202	-65.591	-0.253	0.100
-329.187	201.543	-0.137	-0.208
-328.172	-105.446	0.179	0.040
-327.158	-116.840	-0.314	0.057
-326.143	-152.421	-0.225	0.016
-325.129	-42.105	-0.273	-0.138
-324.114	-0.683	0.126	-0.088
-323.099	-64.861	-0.326	0.130
-322.085	-39.711	0.184	0.095
-321.070	800.000	-0.072	0.241
-320.056	-134.482	0.085	0.010
-319.041	-137.436	0.117	-0.013
-318.026	-93.681	0.229	0.062
-317.012	-80.165	0.268	0.088
-315.997	605.322	0.140	0.344
-314.983	-182.410	-0.194	-0.004
-313.968	69.905	-0.092	0.094
-312.953	316.814	0.161	0.299
-311.939	-94.540	-0.197	-0.053
-310.924	-200.000	0.262	0.000
-309.910	125.829	0.259	-0.322
-308.895	629.421	-0.068	-0.169
-307.880	2.438	0.114	0.081
-306.866	-77.837	0.130	0.044
-305.851	-90.978	-0.248	0.070
-304.837	286.096	0.142	0.252
-303.822	-118.527	-0.481	0.084
-302.807	206.365	0.090	0.138
-301.793	-200.000	-0.058	-0.253
-300.778	800.000	-0.041	-0.122
-299.764	-87.344	0.224	0.067
-298.749	28.379	-0.209	0.174
-297.735	-200.000	0.009	0.194
-296.720	-85.940	0.356	-0.108
-295.705	94.910	-0.198	-0.221
-294.691	-200.000	-0.055	-0.508
-293.676	-200.000	-0.039	0.293
-292.662	140.336	-0.174	-0.226
-291.647	-200.000	0.017	0.145
-290.632	243.436	0.200	0.330
-289.618	-200.000	-0.003	0.092
-288.603	-115.398	0.060	0.011
-287.589	-200.000	-0.030	0.175
-286.574	-46.674	-0.308	-0.148
-285.559	77.011	0.230	0.240
-284.545	-55.531	0.466	-0.205
-283.530	314.441	0.127	0.235
-282.516	-200.000	0.039	-0.272
-281.501	-200.000	0.019	-0.136
-280.486	-200.000	-0.013	-0.348
-279.472	74.637	0.152	-0.157
-278.457	599.945	0.045	0.109
-277.443	49.051	-0.155	0.143
-276.428	-149.204	-0.169	-0.013
-275.413	321.988	0.198	0.371
-274.399	112.519	-0.019	-0.023
-273.384	-200.000	0.001	0.056
-272.370	-200.000	0.021	0.110
-271.355	-115.203	0.091	-0.017
-270.340	-35.976	-0.124	0.066
-269.326	-102.714	-0.144	-0.034
-268.311	-53.543	-0.225	0.101
-267.297	761.883	0.100	0.266
-266.282	63.399	-0.209	0.206
-265.267	-90.932	0.098	0.028
-264.253	74.895	0.108	-0.111
-263.238	104.608	-0.053	0.062
-262.224	30.938	-0.101	-0.085
-261.209	43.124	0.125	-0.112
-260.195	180.242	0.093	0.134
-259.180	-38.248	-0.478	-0.249
-258.165	-200.000	-0.008	-0.263
-257.151	91.307	0.285	0.315
-256.136	190.353	-0.047	0.069
-255.122	-200.000	0.023	-0.194
-254.107	47.653	-0.149	-0.136
-253.092	-200.000	-0.000	-0.025
-252.078	-142.894	-0.252	-0.024
-251.063	-54.475	0.051	-0.022
-250.049	637.972	-0.047	-0.116
-249.034	-75.218	-0.221	-0.077
-248.019	236.016	-0.060	-0.098
-247.005	-88.047	0.222	0.065
-245.990	-132.261	0.257	0.033
-244.976	48.224	0.128	0.118
-243.961	-137.527	0.232	0.026
-242.946	-200.000	0.016	0.158
-241.932	-200.000	-0.021	0.138
-240.917	247.679	0.070	-0.117
-239.903	-68.417	-0.037	-0.014
-238.888	-49.793	-0.243	-0.113
-237.873	800.000	-0.119	-0.426
-236.859	123.557	0.161	-0.198
-235.844	-125.888	-0.310	0.046
-234.830	-143.040	0.151	0.014
-233.815	-200.000	-0.139	-0.001
-232.800	800.000	-0.102	0.331
-231.786	-43.603	0.119	0.059
-230.771	-24.232	-0.327	-0.192
-229.757	515.250	0.091	-0.210
-228.742	36.028	-0.172	0.149
-227.727	-200.000	0.013	0.364
-226.713	-47.783	0.293	-0.139
-225.698	-42.761	0.179	0.089
-224.684	413.492	-0.175	0.365
-223.669	154.059	0.164	0.221
-222.655	-200.000	-0.019	0.231
-221.640	34.674	0.271	0.233
-220.625	158.974	0.061	-0.083
-219.611	-63.581	0.229	-0.092
-218.596	398.870	0.038	0.077
-217.582	84.082	-0.182	0.195
-216.567	-65.510	-0.479	0.188
-215.552	195.664	-0.030	-0.045
-214.538	-104.639	-0.183	-0.041
-213.523	-168.126	0.069	-0.003
-212.509	-125.142	-0.292	0.044
-211.494	-83.293	0.167	0.053
-210.479	105.144	-0.121	0.140
-209.465	7.093	-0.118	-0.086
-208.450	21.270	-0.105	0.084
-207.436	322.843	-0.223	0.416
-206.421	-200.000	0.132	0.000
-205.406	22.180	-0.174	-0.139
-204.392	-111.434	-0.245	0.049
-203.377	-52.124	-0.211	0.096
-202.363	231.879	-0.066	0.105
-201.348	-109.689	0.254	0.052
-200.333	-139.399	0.092	0.010
-199.319	602.827	0.081	-0.197
-198.304	-32.250	0.112	-0.061
-197.290	-163.348	-0.145	-0.007
-196.275	-41.583	0.385	-0.194
-195.260	-55.243	-0.126	0.056
-194.246	8.330	0.179	0.132
-193.231	-18.946	0.201	-0.123
-192.217	-23.927	0.228	-0.134
-191.202	42.368	0.250	-0.223
-190.187	314.266	-0.151	0.278
-189.173	25.464	-0.207	0.169
-188.158	-200.000	-0.007	-0.093
-187.144	-44.848	-0.179	0.088
-186.129	-23.957	-0.079	0.046
-185.114	-200.000	-0.043	0.287
-184.100	-89.732	-0.255	-0.073
-183.085	30.180	-0.210	-0.175
-182.071	489.935	-0.110	-0.247
-181.056	-136.178	0.167	-0.019
-180.042	182.973	0.069	-0.099
-179.027	-200.000	-0.000	-0.027
-178.012	-88.059	0.340	-0.100
-176.998	115.048	0.218	-0.260
-175.983	-115.582	-0.219	-0.040
-174.969	-200.000	-0.007	-0.209
-173.954	-122.149	0.145	0.023
-172.939	144.496	0.105	-0.138
-171.925	-80.914	-0.385	0.125
-170.910	-19.528	0.140	0.085
-169.896	800.000	0.112	-0.331
-168.881	558.235	0.132	-0.312
-167.866	101.307	-0.112	-0.128
-166.852	466.853	0.087	0.192
-165.837	-90.270	-0.126	0.036
-164.823	47.156	0.252	-0.230
-163.808	800.000	-0.012	0.051
-162.793	379.821	-0.156	0.313
-161.779	-10.677	-0.391	-0.253
-160.764	-175.813	-0.319	0.008
-159.750	323.051	0.133	0.248
-158.735	96.292	-0.199	-0.223
-157.720	-119.085	-0.303	0.052
-156.706	-200.000	-0.020	-0.155
-155.691	-108.115	0.286	0.061
-154.677	-40.750	-0.027	-0.013
-153.662	691.247	-0.041	-0.106
-152.647	78.733	-0.126	0.132
-151.633	-181.190	0.341	-0.007
-150.618	-26.230	0.193	-0.111
-149.604	378.936	0.153	-0.306
-148.589	-151.443	0.242	-0.018
-147.574	-23.272	-0.122	0.072
-146.560	-135.422	0.181	0.021
-145.545	-115.401	0.116	0.021
-144.531	-4.510	-0.260	-0.175
-143.516	29.980	-0.091	0.076
-142.502	-60.842	-0.145	0.060
-141.487	-137.024	-0.230	0.026
-140.472	-152.350	0.077	-0.005
-139.458	45.398	-0.118	-0.107
-138.443	399.168	-0.099	-0.203
-137.429	-83.304	-0.168	0.053
-136.414	-126.448	0.379	0.055
-135.399	-91.853	-0.147	0.041
-134.385	-200.000	0.011	0.077
-133.370	-200.000	-0.005	0.186
-132.356	800.000	-0.049	0.172
-131.341	-5.695	0.155	0.104
-130.326	30.769	-0.297	0.249
-129.312	-135.924	0.144	-0.017
-128.297	-77.923	0.214	0.072
-127.283	-200.000	0.015	-0.135
-126.268	-125.034	0.128	0.019
-125.253	-141.190	0.293	-0.029
-124.239	800.000	-0.051	0.210
-123.224	15.216	0.227	0.174
-122.210	-69.631	-0.472	0.177
-121.195	-30.817	0.339	-0.187
-120.180	328.988	-0.165	-0.309
-119.166	9.079	0.075	-0.056
-118.151	-44.247	-0.169	-0.083
-117.137	-200.000	-0.063	-0.373
-116.122	-106.023	-0.069	-0.015
-115.107	205.030	0.148	-0.225
-114.093	-53.702	-0.280	0.125
-113.078	540.242	-0.072	-0.168
-112.064	343.470	-0.143	-0.273
-111.049	800.000	0.105	-0.376
-110.034	409.334	-0.115	-0.239
-109.020	230.201	-0.081	-0.129
-108.005	800.000	-0.054	-0.146
-106.991	800.000	-0.096	0.340
-105.976	-30.920	0.057	-0.032
-104.962	-200.000	-0.047	0.229
-103.947	229.534	0.079	-0.126
-102.932	241.178	-0.060	0.098
-101.918	-200.000	0.001	0.069
-100.903	106.554	0.109	0.126
-99.889	-103.092	-0.243	0.056
-98.874	-122.052	0.262	-0.042
-97.859	-87.122	-0.131	-0.039
-96.845	-80.331	-0.075	-0.025
-95.830	-153.498	-0.308	0.021
-94.816	800.000	0.126	-0.438
-93.801	800.000	-0.073	0.260
-92.786	46.512	0.214	0.193
-91.772	81.199	0.153	0.161
-90.757	-58.986	0.281	-0.119
-89.743	36.377	-0.416	-0.358
-88.728	7.453	0.350	0.255
-87.713	-54.769	0.186	0.082
-86.699	-157.671	0.236	-0.014
-85.684	70.688	0.142	-0.143
-84.670	800.000	0.077	-0.246
-83.655	-200.000	-0.017	0.561
-82.640	100.829	-0.174	-0.197
-81.626	-52.882	0.177	0.079
-80.611	-200.000	0.031	-0.185
-79.597	6.629	-0.372	0.269
-78.582	163.009	-0.243	0.333
-77.567	-200.000	-0.062	0.831
-76.553	186.996	-0.075	0.109
-75.538	300.518	-0.012	-0.022
-74.524	-37.846	-0.089	-0.046
-73.509	-200.000	0.004	0.135
-72.494	-50.181	-0.337	-0.156
-71.480	18.632	0.153	0.119
-70.465	89.862	0.103	-0.112
-69.451	-200.000	0.070	0.589
-68.436	-65.453	-0.058	0.023
-67.422	248.889	0.056	-0.092
-66.407	224.571	-0.122	-0.192
-65.392	-200.000	-0.021	0.211
-64.378	70.999	-0.066	0.067
-63.363	800.000	0.036	0.123
-62.349	-200.000	0.032	0.139
-61.334	72.477	-1.210	-1.229
-60.319	120.375	0.477	0.577
-59.305	800.000	-0.445	-1.246
-58.290	373.132	0.773	1.531
-57.276	324.410	0.713	1.327
-56.261	-200.000	120.176	616.650
-55.246	417.543	1529.884	3183.523
-54.232	150.114	2672.652	3532.125
-53.217	96.361	2148.425	2394.038
-52.203	34.778	1676.985	1428.509
-51.188	27.919	1496.057	1228.407
-50.173	25.838	1473.026	1195.650
-49.159	47.593	1541.807	1400.538
-48.144	45.461	1555.210	1398.105
-47.130	27.828	1505.270	1235.158
-46.115	24.989	1489.541	1203.164
-45.100	24.781	1486.483	1199.250
-44.086	24.793	1484.588	1197.755
-43.071	24.765	1482.354	1195.718
-42.057	24.746	1480.908	1194.376
-41.042	24.819	1479.368	1193.576
-40.027	24.693	1478.364	1191.877
-39.013	24.749	1476.340	1190.570
-37.998	24.712	1475.129	1189.304
-36.984	24.709	1474.145	1188.441
-35.969	24.784	1472.570	1187.624
-34.954	24.679	1471.349	1185.896
-33.940	24.754	1469.748	1185.052
-32.925	24.768	1468.393	1184.010
-31.911	24.773	1466.873	1182.768
-30.896	24.845	1465.737	1182.276
-29.881	24.799	1464.915	1181.266
-28.867	24.902	1463.481	1180.743
-27.852	24.792	1462.198	1178.934
-26.838	24.848	1460.283	1177.711
-25.823	24.826	1458.948	1176.446
-24.809	24.762	1457.816	1175.065
-23.794	24.752	1456.527	1173.914
-22.779	24.841	1455.038	1173.251
-21.765	24.789	1454.392	1172.340
-20.750	24.854	1452.776	1171.418
-19.736	24.804	1451.950	1170.379
-18.721	24.770	1451.410	1169.673
-17.706	24.752	1449.866	1168.264
-16.692	24.741	1448.962	1167.419
-15.677	24.797	1447.678	1166.704
-14.663	24.799	1447.310	1166.376
-13.648	24.730	1446.318	1165.083
-12.633	24.791	1444.857	1164.253
-11.619	24.693	1444.569	1163.335
-10.604	24.757	1443.612	1162.940
-9.590	24.634	1443.143	1161.715
-8.575	24.764	1441.973	1161.569
-7.560	24.767	1440.593	1160.434
-6.546	24.758	1439.998	1159.850
-5.531	24.766	1439.545	1159.490
-4.517	24.702	1438.240	1157.978
-3.502	24.848	1436.944	1157.829
-2.487	24.749	1436.059	1156.433
-1.473	24.793	1435.437	1156.172
-0.458	24.751	1434.065	1154.749
0.556	23.018	1423.971	1142.773
1.571	19.685	1400.408	1102.535
2.586	15.935	1339.427	1031.509
3.600	14.329	1257.068	958.760
4.615	13.398	1213.916	920.588
5.629	11.511	1158.836	868.707
6.644	5.729	1078.800	779.936
7.659	0.848	1042.477	730.097
8.673	0.208	1037.655	723.580
9.688	0.268	1033.798	721.112
10.702	0.085	1032.965	719.594
11.717	0.159	1030.009	717.826
12.731	2.120	1031.415	728.095
13.746	8.413	1040.177	764.401
14.761	14.654	1047.921	800.021
15.775	16.772	1049.959	811.666
16.790	16.513	1048.419	809.166
17.804	15.464	1046.425	802.542
18.819	14.552	1045.151	797.138
19.834	14.193	1043.286	793.933
20.848	14.026	1041.770	791.911
21.863	13.633	1041.735	789.944
22.877	13.525	1040.855	788.690
23.892	13.261	1039.990	786.712
24.907	13.099	1039.258	785.319
25.921	13.118	1038.676	784.897
26.936	13.179	1037.990	784.602
27.950	13.280	1037.046	784.296
28.965	13.328	1036.469	784.017
29.980	13.268	1035.629	783.029
30.994	13.362	1034.536	782.575
32.009	13.442	1033.710	782.261
33.023	13.425	1033.361	781.849
34.038	13.383	1032.630	781.026
35.053	13.375	1031.628	780.165
36.067	13.376	1030.978	779.606
37.082	13.309	1030.035	778.512
38.096	13.273	1029.251	777.676
39.111	13.426	1028.268	777.586
40.126	13.409	1027.632	776.954
41.140	13.353	1026.452	775.733
42.155	13.239	1025.437	774.365
43.169	13.279	1024.264	773.594
44.184	13.103	1023.391	772.045
45.199	13.232	1022.077	771.587
46.213	13.222	1021.538	771.068
47.228	13.244	1020.330	770.190
48.242	13.131	1020.114	769.429
49.257	13.182	1018.772	768.586
50.271	13.332	1017.655	768.376
51.286	13.314	1016.482	767.337
52.301	13.243	1016.058	766.618
53.315	13.328	1015.567	766.574
54.330	13.319	1014.581	765.721
55.344	13.295	1013.369	764.628
56.359	13.328	1012.161	763.801
57.374	13.306	1011.975	763.494
58.388	13.257	1011.083	762.528
59.403	13.200	1010.314	761.614
60.417	13.160	1009.608	760.834
61.432	13.213	1008.995	760.546
62.447	13.108	1008.091	759.316
63.461	13.101	1007.834	759.024
64.476	13.066	1006.697	757.938
65.490	13.321	1005.406	758.068
66.505	13.237	1004.600	757.008
67.520	13.243	1004.091	756.586
68.534	13.136	1003.260	755.401
69.549	13.221	1002.215	754.938
70.563	13.275	1001.614	754.665
71.578	13.191	1001.035	753.777
72.593	13.186	1000.297	753.134
73.607	12.933	999.846	751.574
74.622	13.112	998.186	751.074
75.636	13.175	997.613	750.863
76.651	13.122	996.709	749.874
77.666	13.172	996.212	749.661
78.680	13.118	995.434	748.765
79.695	13.058	995.253	748.290
80.709	13.196	994.302	748.134
81.724	13.184	993.938	747.738
82.739	13.218	992.402	746.674
83.753	13.199	991.993	746.215
84.768	13.363	991.142	746.248
85.782	13.323	990.982	745.880
86.797	13.381	990.048	745.373
87.812	13.477	988.655	744.689
88.826	13.295	987.961	743.282
89.841	13.363	987.504	743.180
90.855	13.283	986.948	742.336
91.870	13.441	986.062	742.312
92.884	13.487	985.515	742.039
93.899	13.494	984.531	741.265
94.914	13.505	983.555	740.514
95.928	13.561	983.123	740.374
96.943	13.544	982.638	739.864
97.957	13.434	981.506	738.460
98.972	13.499	980.615	738.011
99.987	13.511	979.879	737.448
101.001	13.382	979.389	736.440
102.016	13.513	978.512	736.296
103.030	13.562	977.285	735.527
104.045	13.516	976.660	734.788
105.060	13.587	975.900	734.466
106.074	13.442	974.884	732.992
107.089	13.353	973.899	731.792
108.103	13.368	973.475	731.475
109.118	13.245	972.171	729.886
110.133	13.309	971.783	729.813
111.147	13.131	971.182	728.513
112.162	13.302	970.195	728.464
113.176	13.334	969.669	728.142
114.191	13.430	968.082	727.309
115.206	13.415	967.320	726.606
116.220	13.257	966.761	725.432
117.235	13.339	966.104	725.229
118.249	13.346	965.048	724.406
119.264	13.251	964.021	723.155
120.279	13.340	963.443	723.045
121.293	13.369	962.579	722.462
122.308	13.299	961.986	721.649
123.322	13.336	960.997	721.001
124.337	13.231	959.745	719.542
125.352	13.228	958.989	718.897
126.366	13.308	957.898	718.364
127.381	13.297	956.764	717.403
128.395	13.112	956.146	716.073
129.410	13.265	954.824	715.684
130.424	13.278	954.069	715.111
131.439	13.255	953.037	714.173
132.454	13.307	952.145	713.667
133.468	13.240	951.726	713.002
134.483	13.430	950.691	712.981
135.497	13.366	949.706	711.903
136.512	13.419	949.294	711.758
137.527	13.379	948.675	711.062
138.541	13.342	947.535	709.982
139.556	13.352	947.252	709.751
140.570	13.409	946.338	709.248
141.585	13.509	945.432	708.937
142.600	13.433	945.275	708.429
143.614	13.537	943.988	707.846
144.629	13.540	943.763	707.627
145.643	13.505	942.711	706.626
146.658	13.420	942.245	705.853
147.673	13.606	940.933	705.601
148.687	13.583	940.024	704.756
149.702	13.520	939.158	703.777
150.716	13.377	938.937	702.943
151.731	13.442	937.904	702.383
152.746	13.419	937.373	701.828
153.760	13.447	936.443	701.188
154.775	13.287	935.987	700.105
155.789	13.595	934.769	700.434
156.804	13.567	934.353	699.941
157.819	13.723	933.339	699.780
158.833	13.594	932.819	698.785
159.848	13.691	932.305	698.744
160.862	13.598	931.664	697.812
161.877	13.460	930.718	696.460
162.892	13.625	929.861	696.451
163.906	13.489	929.130	695.271
164.921	13.617	928.243	695.082
165.935	13.562	927.088	693.928
166.950	13.673	925.949	693.474
167.964	13.688	925.003	692.771
168.979	13.717	923.793	691.924
169.994	13.556	923.468	690.945
171.008	13.712	922.429	690.758
172.023	13.693	921.582	689.985
173.037	13.607	921.082	689.191
174.052	13.759	919.966	688.924
175.067	13.881	919.152	688.762
176.081	13.683	918.697	687.538
177.096	13.621	917.729	686.496
178.110	13.702	917.030	686.250
179.125	13.737	916.452	685.900
180.140	13.730	915.715	685.260
181.154	13.815	914.624	684.731
182.169	13.697	914.173	683.846
183.183	13.732	914.107	683.880
184.198	13.960	913.250	684.120
185.213	13.917	912.563	683.369
186.227	13.871	911.392	682.242
187.242	14.055	911.199	682.792
188.256	14.009	910.625	682.112
189.271	13.854	910.090	681.014
190.286	13.933	909.135	680.563
191.300	13.817	908.470	679.531
192.315	13.826	907.788	678.996
193.329	13.578	907.315	677.570
194.344	13.880	906.338	678.014
195.359	13.825	905.669	677.230
196.373	13.773	905.396	676.755
197.388	13.945	904.963	677.070
198.402	14.017	904.250	676.770
199.417	13.977	904.012	676.369
200.432	14.162	903.534	676.704
201.446	14.203	902.674	676.166
202.461	14.118	902.589	675.697
203.475	14.215	902.223	675.761
204.490	14.230	901.333	675.092
205.504	14.189	900.511	674.250
206.519	14.145	899.925	673.573
207.534	14.155	898.874	672.769
208.548	14.242	898.050	672.444
209.563	14.044	897.983	671.535
210.577	14.126	896.952	671.033
211.592	14.191	896.241	670.705
212.607	14.445	895.571	671.168
213.621	14.180	895.373	669.892
214.636	14.299	894.270	669.486
215.650	14.275	894.155	669.246
216.665	14.323	893.330	668.760
217.680	14.413	892.845	668.700
218.694	14.376	892.457	668.202
219.709	14.385	891.906	667.765
220.723	14.528	891.036	667.628
221.738	14.465	890.314	666.779
222.753	14.286	889.675	665.525
223.767	14.430	888.747	665.346
224.782	14.473	887.952	664.864
225.796	14.471	887.252	664.273
226.811	14.410	886.943	663.739
227.826	14.551	886.029	663.559
228.840	14.481	885.255	662.641
229.855	14.541	884.708	662.410
230.869	14.578	884.195	662.114
231.884	14.545	883.708	661.561
232.899	14.456	882.603	660.322
233.913	14.541	881.935	660.101
234.928	14.418	881.554	659.269
235.942	14.440	880.989	658.878
236.957	14.500	879.871	658.219
237.972	14.401	879.285	657.333
238.986	14.578	878.341	657.266
240.001	14.497	878.594	657.078
241.015	14.402	877.980	656.186
242.030	14.502	876.841	655.669
243.045	14.686	875.921	655.647
244.059	14.606	875.542	654.989
245.074	14.618	875.056	654.617
246.088	14.601	874.629	654.173
247.103	14.641	873.673	653.557
248.117	14.757	873.047	653.485
249.132	14.698	872.959	653.131
250.147	14.750	872.387	652.847
251.161	14.857	871.525	652.560
252.176	14.904	870.569	651.971
253.190	14.950	870.223	651.835
254.205	14.821	869.625	650.824
255.220	14.985	868.968	650.916
256.234	15.042	868.262	650.552
257.249	15.111	867.809	650.421
258.263	15.126	867.049	649.851
259.278	14.972	866.937	649.115
260.293	15.092	865.979	648.804
261.307	15.030	865.631	648.245
262.322	15.093	864.829	647.832
263.336	15.067	864.618	647.514
264.351	15.178	863.350	646.938
265.366	15.262	862.708	646.724
266.380	15.492	862.065	647.068
267.395	15.208	862.056	645.910
268.409	15.196	861.262	645.213
269.424	15.164	860.248	644.274
270.439	15.214	859.972	644.202
271.453	15.287	858.973	643.677
272.468	15.209	858.159	642.710
273.482	15.225	857.697	642.369
274.497	15.218	857.123	641.855
275.512	15.362	856.030	641.530
276.526	15.212	855.768	640.705
277.541	15.319	855.151	640.595
278.555	15.408	854.375	640.297
279.570	15.261	853.956	639.367
280.585	15.356	853.221	639.119
281.599	15.385	852.791	638.853
282.614	15.407	852.147	638.398
283.628	15.378	851.538	637.774
284.643	15.459	850.874	637.529
285.657	15.411	850.263	636.831
286.672	15.452	850.031	636.758
287.687	15.392	849.725	636.243
288.701	15.373	849.089	635.640
289.716	15.412	848.215	635.075
290.730	15.532	847.705	635.092
291.745	15.459	847.388	634.524
292.760	15.478	846.294	633.717
293.774	15.523	845.898	633.536
294.789	15.530	845.483	633.194
295.803	15.485	845.236	632.785
296.818	15.570	844.353	632.388
297.833	15.738	843.328	632.197
298.847	15.574	842.356	630.796
299.862	15.611	842.265	630.811
300.876	15.695	841.164	630.243
301.891	15.748	840.863	630.163
302.906	15.751	840.072	629.526
303.920	15.688	839.735	628.979
304.935	15.784	839.015	628.744
305.949	15.815	838.523	628.435
306.964	15.883	837.865	628.142
307.979	15.866	837.512	627.758
308.993	15.733	836.894	626.743
310.008	15.934	836.056	626.810
311.022	15.796	836.020	626.212
312.037	15.808	835.461	625.782
313.052	15.848	835.085	625.596
314.066	15.946	834.296	625.312
315.081	15.959	833.325	624.575
316.095	15.866	832.698	623.708
317.110	15.942	832.252	623.598
318.125	15.808	832.230	623.032
319.139	15.804	831.580	622.474
320.154	15.759	831.142	621.927
321.168	15.923	830.362	621.891
322.183	15.974	829.498	621.377
323.197	15.905	829.569	621.122
324.212	15.964	828.714	620.643
325.227	16.046	828.124	620.448
326.241	15.861	828.090	619.689
327.256	16.030	827.214	619.598
328.270	16.096	826.428	619.198
329.285	15.898	826.140	618.202
330.300	15.929	825.415	617.718
331.314	16.056	824.785	617.656
332.329	16.037	824.293	617.165
333.343	16.039	823.287	616.362
334.358	16.217	822.933	616.693
335.373	16.186	822.447	616.161
336.387	16.130	822.513	615.952
337.402	16.348	821.112	615.646
338.416	16.178	821.010	614.892
339.431	16.200	820.659	614.658
340.446	16.300	819.854	614.361
341.460	16.200	819.370	613.583
342.475	16.480	818.726	614.062
343.489	16.373	818.217	613.238
344.504	16.290	817.809	612.575
345.519	16.478	816.817	612.462
346.533	16.446	816.579	612.114
347.548	16.387	816.404	611.715
348.562	16.417	815.723	611.257
349.577	16.366	815.496	610.851
350.592	16.430	814.634	610.379
351.606	16.225	814.531	609.507
352.621	16.366	813.985	609.556
353.635	16.248	813.848	608.971
354.650	16.445	813.002	608.995
355.665	16.429	812.397	608.430
356.679	16.434	812.359	608.365
357.694	16.396	811.661	607.652
358.708	16.504	810.732	607.292
359.723	16.477	810.421	606.910
360.738	16.621	810.016	607.067
361.752	16.512	809.426	606.183
362.767	16.540	809.058	605.951
363.781	16.689	808.513	606.023
364.796	16.669	808.325	605.760
365.810	16.711	807.675	605.369
366.825	16.709	807.373	605.080
367.840	16.664	807.186	604.725
368.854	16.798	806.658	604.757
369.869	16.736	806.096	604.059
370.883	16.869	805.291	603.875
371.898	16.710	804.938	602.994
372.913	16.813	804.314	602.837
373.927	16.748	804.052	602.356
374.942	16.785	803.321	601.889
375.956	16.707	802.959	601.286
376.971	16.891	802.087	601.234
377.986	16.906	801.718	600.955
379.000	16.992	801.097	600.743
380.015	17.033	800.491	600.379
381.029	16.973	799.922	599.688
382.044	16.929	799.821	599.402
383.059	17.027	799.006	599.085
384.073	17.125	798.721	599.165
385.088	17.081	798.019	598.430
386.102	17.002	797.439	597.662
387.117	16.959	797.060	597.175
388.132	17.017	796.528	596.927
389.146	17.132	795.838	596.762
390.161	17.023	795.591	596.140
391.175	17.111	795.288	596.172
392.190	17.085	794.904	595.737
393.205	17.175	794.650	595.810
394.219	17.028	794.404	595.057
395.234	17.216	793.376	594.894
396.248	17.118	792.990	594.209
397.263	17.109	792.465	593.731
398.278	17.051	792.024	593.148
399.292	17.124	791.499	592.954
400.307	17.070	791.326	592.584
401.321	17.037	790.990	592.166
402.336	16.988	790.471	591.554
403.350	17.087	790.249	591.678
404.365	17.297	789.669	591.924
405.380	17.132	789.663	591.292
406.394	17.318	788.638	591.122
407.409	17.516	787.803	591.129
408.423	17.331	787.823	590.451
409.438	17.307	787.824	590.316
410.453	17.366	787.178	589.982
411.467	17.352	786.779	589.585
412.482	17.365	786.340	589.248
413.496	17.356	785.587	588.601
414.511	17.571	785.251	589.039
415.526	17.561	784.809	588.621
416.540	17.563	784.109	588.052
417.555	17.555	783.896	587.813
418.569	17.570	783.840	587.772
419.584	17.542	783.377	587.273
420.599	17.429	783.295	586.772
421.613	113.724	1296.267	1485.242
422.628	97.574	1370.957	1485.324
