DTS Sentinel unit serial number:	SN413079Multiplexer serial number:	ORYXHardware model number:	OX4-SRSoftware version number:	ORYX F/W v4.00 Oryx Data Collector v3.7.2.0data status	okinstallation	princeton_trtdifferential loss correction	single-endedforward channel	channel 3reverse channel	N/Adate	2019/09/15time	21:28:35forward acquisition time	60.00reverse acquisition time	0.00gamma	496.2192k internal	0.2329k external	0.2329temperature offset calibration	0.9943default loss term (dB/km)	0.3790temperature slope calibration	1.0000multiplexer offset coefficient	1.0000multiplexer slope coefficient	1.0000fibre end	0.00T internal ref (°C)	30.78T ext. ref 1 (°C)	8.28T ext. ref 2 (°C)	23.76length (m)	temperature (°C)	Stokes	anti-Stokes-747.200	-33.965	0.318	0.176
-746.185	-200.000	0.008	0.397
-745.171	-35.869	-0.091	0.050
-744.156	107.728	0.133	0.160
-743.142	550.841	-0.249	-0.601
-742.127	-84.679	-0.055	-0.017
-741.112	800.000	-0.119	-0.444
-740.098	139.114	0.215	0.285
-739.083	-134.830	0.293	0.036
-738.069	111.898	0.104	0.126
-737.054	-1.917	0.188	0.133
-736.039	530.020	-0.029	-0.069
-735.025	501.015	0.110	0.255
-734.010	513.626	-0.157	-0.370
-732.996	11.858	-0.187	-0.145
-731.981	-33.784	-0.054	-0.030
-730.966	159.649	-0.175	-0.246
-729.952	111.441	0.010	-0.012
-728.937	800.000	-0.047	-0.194
-727.923	-119.870	0.170	0.030
-726.908	-200.000	-0.041	0.293
-725.894	42.083	0.107	-0.098
-724.879	-46.508	0.228	-0.113
-723.864	-200.000	-0.009	0.110
-722.850	-106.663	-0.298	0.067
-721.835	-200.000	-0.068	0.351
-720.821	391.913	-0.014	-0.028
-719.806	440.608	-0.220	-0.484
-718.791	-90.030	0.139	-0.041
-717.777	-200.000	-0.003	-0.426
-716.762	-118.989	0.105	0.019
-715.748	81.719	-0.185	0.202
-714.733	-83.599	0.360	0.116
-713.718	800.000	-0.058	-0.185
-712.704	125.441	0.039	-0.050
-711.689	-138.653	0.439	0.048
-710.675	114.748	0.021	0.026
-709.660	171.910	-0.171	-0.247
-708.645	-137.549	-0.060	-0.007
-707.631	264.953	-0.160	0.281
-706.616	183.343	0.223	0.331
-705.602	46.141	0.184	0.171
-704.587	800.000	0.070	0.246
-703.572	-200.000	0.006	-0.105
-702.558	-144.265	0.266	-0.025
-701.543	176.622	0.135	-0.197
-700.529	61.685	0.176	-0.176
-699.514	-200.000	0.062	-0.295
-698.499	11.335	0.083	0.064
-697.485	-188.436	0.368	-0.005
-696.470	800.000	0.119	-0.372
-695.456	-191.953	0.277	-0.003
-694.441	-92.645	-0.193	-0.054
-693.426	-98.734	0.466	-0.119
-692.412	-200.000	-0.016	-0.198
-691.397	249.908	-0.063	-0.108
-690.383	-27.409	-0.224	-0.131
-689.368	800.000	-0.017	-0.056
-688.354	28.593	-0.180	0.153
-687.339	347.465	-0.121	0.239
-686.324	79.947	0.104	0.113
-685.310	800.000	-0.076	0.243
-684.295	170.221	-0.111	-0.160
-683.281	-6.906	-0.215	-0.147
-682.266	16.715	-0.102	0.081
-681.251	800.000	0.058	-0.224
-680.237	-200.000	0.053	0.309
-679.222	1.480	0.227	-0.164
-678.208	800.000	-0.046	-0.165
-677.193	-55.943	-0.179	0.080
-676.178	-184.126	0.151	-0.003
-675.164	-118.024	0.284	0.051
-674.149	-47.425	-0.048	0.023
-673.135	140.469	-0.167	0.221
-672.120	-186.936	0.331	-0.005
-671.105	800.000	-0.054	0.177
-670.091	-130.548	-0.110	-0.015
-669.076	99.320	0.073	0.085
-668.062	-161.819	-0.119	0.006
-667.047	-135.281	-0.285	0.034
-666.032	-38.385	-0.223	0.118
-665.018	44.443	0.295	-0.272
-664.003	-64.314	-0.189	0.077
-662.989	-200.000	0.020	0.151
-661.974	-3.614	-0.119	-0.083
-660.959	-200.000	0.004	-0.040
-659.945	-200.000	0.030	-0.139
-658.930	-139.276	-0.407	-0.044
-657.916	10.411	-0.284	-0.217
-656.901	674.879	0.093	0.242
-655.886	679.900	-0.032	-0.084
-654.872	382.307	0.226	-0.467
-653.857	6.559	0.205	-0.153
-652.843	-53.190	0.205	-0.094
-651.828	-5.958	-0.177	-0.121
-650.814	800.000	0.081	-0.299
-649.799	13.433	-0.128	0.099
-648.784	41.500	-0.253	0.230
-647.770	800.000	-0.093	-0.276
-646.755	-200.000	-0.007	-0.065
-645.741	-150.792	0.072	-0.005
-644.726	409.312	0.245	-0.521
-643.711	141.840	-0.137	-0.182
-642.697	-41.113	0.148	-0.077
-641.682	23.666	0.187	0.154
-640.668	-151.925	-0.162	0.012
-639.653	-6.293	-0.092	-0.063
-638.638	85.180	0.156	-0.172
-637.624	-39.401	0.103	-0.054
-636.609	131.989	-0.104	0.134
-635.595	409.270	0.108	0.230
-634.580	-83.307	-0.458	0.148
-633.565	85.112	0.091	-0.100
-632.551	280.301	-0.094	0.168
-631.536	-99.878	0.275	-0.069
-630.522	-200.000	0.025	-0.211
-629.507	800.000	-0.064	0.189
-628.492	2.049	-0.179	0.129
-627.478	-109.131	-0.286	-0.061
-626.463	162.353	0.054	-0.077
-625.449	-119.515	-0.248	-0.043
-624.434	800.000	-0.038	-0.153
-623.419	-112.413	0.084	-0.017
-622.405	-146.328	0.104	-0.009
-621.390	115.648	0.113	0.139
-620.376	-109.544	-0.241	0.051
-619.361	234.397	0.088	0.146
-618.346	271.150	0.140	0.247
-617.332	800.000	0.031	-0.129
-616.317	126.123	-0.162	0.206
-615.303	230.151	0.218	-0.356
-614.288	800.000	-0.033	-0.113
-613.273	30.077	-0.114	0.097
-612.259	715.457	0.079	0.210
-611.244	-140.680	-0.352	-0.037
-610.230	70.786	0.158	-0.164
-609.215	-116.578	-0.060	0.011
-608.201	-19.168	0.112	0.070
-607.186	-200.000	-0.017	-0.313
-606.171	253.677	-0.095	0.163
-605.157	-121.308	0.206	-0.034
-604.142	-55.796	0.180	-0.081
-603.128	-149.002	-0.232	0.019
-602.113	-200.000	-0.015	-0.176
-601.098	-13.266	0.117	0.076
-600.084	-200.000	-0.002	0.245
-599.069	70.202	-0.287	0.297
-598.055	-165.400	0.190	-0.008
-597.040	286.515	-0.053	0.096
-596.025	-22.497	-0.221	-0.134
-595.011	44.778	-0.356	-0.328
-593.996	-110.306	0.440	0.092
-592.982	135.506	0.259	0.337
-591.967	-200.000	-0.013	-0.310
-590.952	800.000	0.052	0.150
-589.938	800.000	0.052	0.191
-588.923	146.112	-0.225	-0.303
-587.909	12.153	-0.343	-0.264
-586.894	-200.000	0.038	0.581
-585.879	-150.862	-0.163	-0.012
-584.865	-106.505	0.190	-0.042
-583.850	234.934	-0.132	0.218
-582.836	-200.000	0.101	-0.518
-581.821	9.746	0.162	0.123
-580.806	-200.000	0.020	-0.089
-579.792	250.361	0.084	-0.144
-578.777	133.073	0.018	0.023
-577.763	-200.000	0.032	-0.148
-576.748	125.404	0.061	-0.077
-575.733	130.958	-0.027	0.035
-574.719	-24.903	-0.171	-0.102
-573.704	800.000	-0.074	0.275
-572.690	-90.056	-0.225	0.066
-571.675	-79.517	-0.202	-0.068
-570.661	-32.687	0.263	0.147
-569.646	-78.934	-0.433	0.148
-568.631	65.118	0.179	0.181
-567.617	55.068	-0.019	-0.019
-566.602	-30.017	0.072	0.041
-565.588	-200.000	-0.003	-0.217
-564.573	-13.508	-0.309	-0.200
-563.558	115.764	0.197	0.242
-562.544	-115.118	-0.454	0.086
-561.529	673.545	0.032	-0.082
-560.515	-200.000	-0.029	-0.200
-559.500	800.000	-0.125	0.355
-558.485	-200.000	0.012	0.161
-557.471	87.298	-0.232	-0.257
-556.456	800.000	0.046	-0.136
-555.442	-48.300	-0.267	0.129
-554.427	642.440	0.126	-0.320
-553.412	-5.973	0.297	0.203
-552.398	-157.174	0.286	-0.017
-551.383	13.310	0.117	0.091
-550.369	239.332	-0.123	0.204
-549.354	-159.030	-0.214	0.012
-548.339	-92.939	0.389	0.109
-547.325	-129.108	-0.136	-0.019
-546.310	-147.923	-0.337	-0.028
-545.296	-200.000	0.007	0.425
-544.281	25.885	0.120	0.100
-543.266	159.874	-0.094	0.131
-542.252	80.954	-0.175	0.189
-541.237	56.453	0.127	-0.124
-540.223	-113.050	-0.197	0.039
-539.208	-85.489	-0.282	0.088
-538.193	-200.000	-0.001	0.134
-537.179	800.000	-0.039	0.141
-536.164	-200.000	-0.016	0.324
-535.150	-70.213	-0.233	-0.089
-534.135	5.580	-0.072	-0.053
-533.121	-200.000	0.000	-0.010
-532.106	-200.000	-0.029	-0.336
-531.091	800.000	-0.040	-0.160
-530.077	126.470	-0.057	-0.072
-529.062	-84.011	0.336	0.107
-528.048	81.782	0.207	0.224
-527.033	-139.526	-0.086	0.009
-526.018	-63.646	-0.276	0.113
-525.004	-171.204	-0.275	-0.009
-523.989	-200.000	0.017	-0.196
-522.975	130.852	0.147	-0.188
-521.960	179.230	0.101	-0.148
-520.945	434.336	0.119	-0.259
-519.931	57.570	0.245	-0.239
-518.916	445.310	-0.078	-0.171
-517.902	634.633	0.063	-0.159
-516.887	-74.955	0.073	0.026
-515.872	93.017	0.107	0.121
-514.858	-174.272	0.335	-0.010
-513.843	-95.501	-0.083	0.022
-512.829	-107.130	0.378	0.083
-511.814	-47.166	-0.203	-0.099
-510.799	-62.854	-0.347	0.143
-509.785	-200.000	-0.078	-0.441
-508.770	800.000	0.052	0.155
-507.756	-155.699	-0.086	0.005
-506.741	-117.238	-0.294	-0.053
-505.726	277.187	0.094	-0.167
-504.712	139.208	-0.228	0.299
-503.697	-1.015	-0.224	-0.158
-502.683	-37.238	0.099	-0.053
-501.668	-36.796	0.173	-0.093
-500.653	-21.692	-0.085	0.052
-499.639	-130.177	0.113	-0.015
-498.624	15.557	-0.118	-0.092
-497.610	44.281	0.195	-0.179
-496.595	424.364	-0.089	-0.192
-495.581	-38.652	-0.221	0.116
-494.566	14.597	0.203	0.158
-493.551	-30.700	-0.246	0.139
-492.537	72.760	-0.128	-0.134
-491.522	-200.000	-0.009	0.064
-490.508	-91.062	-0.313	-0.090
-489.493	-82.081	0.074	0.024
-488.478	-6.084	0.224	-0.153
-487.464	-69.465	-0.068	-0.026
-486.449	-69.056	-0.215	0.083
-485.435	-6.368	-0.162	0.110
-484.420	800.000	0.124	-0.382
-483.405	28.455	-0.074	0.063
-482.391	-200.000	0.001	0.262
-481.376	-46.250	-0.345	-0.169
-480.362	7.262	0.203	-0.151
-479.347	-102.403	-0.302	0.072
-478.332	80.700	0.235	0.253
-477.318	-36.427	0.165	0.089
-476.303	379.450	-0.108	0.221
-475.289	-200.000	-0.007	-0.065
-474.274	129.579	0.160	0.203
-473.259	-11.710	0.201	-0.132
-472.245	-200.000	-0.056	0.313
-471.230	-200.000	0.006	-0.079
-470.216	0.037	0.360	-0.255
-469.201	-200.000	-0.006	-0.131
-468.186	-200.000	-0.029	-0.259
-467.172	800.000	0.004	0.017
-466.157	80.712	-0.068	0.073
-465.143	-200.000	0.040	0.265
-464.128	-83.998	-0.025	0.008
-463.113	-129.772	0.231	0.032
-462.099	800.000	0.072	0.237
-461.084	697.682	-0.083	-0.217
-460.070	713.952	-0.148	0.392
-459.055	401.546	0.085	-0.178
-458.040	323.809	0.106	-0.201
-457.026	-127.346	-0.079	0.011
-456.011	240.474	0.214	-0.356
-454.997	3.686	0.158	0.115
-453.982	39.424	0.188	-0.167
-452.968	-131.850	0.168	0.022
-451.953	-65.516	-0.108	0.043
-450.938	-176.010	-0.310	0.008
-449.924	-1.655	0.128	0.090
-448.909	-200.000	-0.011	-0.135
-447.895	513.328	0.067	0.155
-446.880	96.050	-0.194	0.220
-445.865	145.821	0.204	-0.272
-444.851	294.416	0.136	-0.247
-443.836	-165.535	-0.177	0.008
-442.822	217.655	-0.129	-0.205
-441.807	154.685	-0.090	-0.123
-440.792	-55.418	-0.350	0.156
-439.778	-200.000	-0.006	-0.131
-438.763	103.162	-0.203	-0.237
-437.749	-120.171	-0.041	-0.007
-436.734	-108.707	0.537	0.115
-435.719	-4.962	0.167	-0.115
-434.705	800.000	0.159	0.475
-433.690	-112.068	-0.250	-0.050
-432.676	621.925	0.056	-0.140
-431.661	102.470	0.149	0.174
-430.646	-115.135	-0.111	0.021
-429.632	-69.492	-0.307	-0.117
-428.617	-200.000	0.004	-0.217
-427.603	218.255	0.196	0.312
-426.588	-200.000	-0.062	0.285
-425.573	-200.000	0.003	0.223
-424.559	260.479	0.170	0.292
-423.544	101.896	0.076	-0.088
-422.530	-34.054	0.242	-0.132
-421.515	148.706	-0.150	-0.202
-420.500	563.720	-0.099	0.239
-419.486	-185.024	0.458	-0.007
-418.471	-31.007	0.357	0.200
-417.457	111.182	-0.080	0.095
-416.442	800.000	-0.020	0.081
-415.428	276.846	-0.117	-0.207
-414.413	159.725	-0.106	0.147
-413.398	-160.536	0.150	0.008
-412.384	127.696	-0.155	-0.196
-411.369	259.762	0.078	-0.134
-410.355	155.968	-0.306	-0.420
-409.340	-200.000	0.034	-0.196
-408.325	-80.680	0.316	0.104
-407.311	12.882	-0.364	0.280
-406.296	35.273	0.066	-0.057
-405.282	-200.000	0.013	-0.096
-404.267	-119.602	-0.202	0.035
-403.252	-139.746	-0.250	0.026
-402.238	65.611	-0.104	0.105
-401.223	-200.000	0.028	0.353
-400.209	-200.000	-0.035	0.523
-399.194	404.359	-0.077	0.162
-398.179	634.548	-0.133	0.335
-397.165	-105.798	-0.122	0.027
-396.150	201.372	-0.032	0.049
-395.136	192.271	-0.022	-0.032
-394.121	-101.038	0.115	0.028
-393.106	588.984	0.222	-0.543
-392.092	175.362	0.156	0.225
-391.077	-31.508	0.246	0.138
-390.063	-77.671	0.425	-0.146
-389.048	800.000	-0.034	0.125
-388.033	-39.976	-0.340	-0.176
-387.019	800.000	-0.106	0.355
-386.004	-76.785	-0.277	-0.096
-384.990	252.641	-0.094	0.159
-383.975	-200.000	0.005	-0.040
-382.960	-200.000	0.029	0.150
-381.946	-103.404	-0.345	-0.081
-380.931	105.105	0.094	-0.110
-379.917	-138.411	0.434	-0.048
-378.902	-151.102	0.087	0.006
-377.888	-130.397	0.466	-0.063
-376.873	-77.077	-0.026	0.009
-375.858	101.554	-0.178	-0.206
-374.844	-200.000	0.056	0.314
-373.829	-2.904	-0.449	0.311
-372.815	26.876	-0.118	0.098
-371.800	42.182	-0.303	-0.273
-370.785	201.234	0.124	0.189
-369.771	59.217	-0.081	-0.079
-368.756	-152.611	-0.157	0.011
-367.742	69.694	-0.082	-0.084
-366.727	-200.000	0.036	-0.236
-365.712	-167.477	0.034	-0.001
-364.698	17.832	-0.069	0.054
-363.683	-200.000	0.036	0.210
-362.669	-200.000	-0.053	-0.251
-361.654	-121.657	0.029	0.005
-360.639	-98.129	-0.144	0.037
-359.625	101.567	0.160	0.185
-358.610	-22.838	-0.425	0.255
-357.596	397.963	-0.193	0.401
-356.581	619.330	0.087	-0.216
-355.566	55.378	0.203	0.195
-354.552	-139.470	-0.187	0.020
-353.537	-93.024	-0.243	0.067
-352.523	0.707	0.082	-0.058
-351.508	-106.496	0.173	0.038
-350.493	-11.312	0.191	0.125
-349.479	-169.248	-0.130	-0.005
-348.464	800.000	0.060	-0.186
-347.450	21.441	0.085	-0.068
-346.435	274.616	0.169	-0.298
-345.420	128.766	0.188	-0.237
-344.406	-85.869	0.204	-0.063
-343.391	-172.494	-0.194	0.006
-342.377	193.045	0.181	-0.271
-341.362	800.000	-0.038	-0.114
-340.348	-101.353	0.317	-0.077
-339.333	800.000	0.115	-0.349
-338.318	800.000	0.134	-0.399
-337.304	-200.000	-0.003	0.109
-336.289	-32.859	-0.214	-0.118
-335.275	158.667	-0.259	0.356
-334.260	-93.838	-0.192	0.052
-333.245	3.457	-0.098	-0.071
-332.231	-52.387	0.337	0.155
-331.216	-200.000	0.049	-0.318
-330.202	-118.630	-0.150	-0.026
-329.187	-108.260	0.122	-0.026
-328.172	-92.884	-0.074	0.020
-327.158	800.000	-0.086	0.279
-326.143	12.261	0.282	-0.215
-325.129	159.883	-0.215	-0.296
-324.114	283.157	0.119	-0.212
-323.099	-114.946	0.319	-0.060
-322.085	88.791	0.078	-0.086
-321.070	215.389	-0.180	0.283
-320.056	-180.051	-0.122	-0.003
-319.041	502.557	0.187	0.429
-318.026	-125.340	0.252	-0.038
-317.012	-97.368	0.271	-0.070
-315.997	17.496	-0.275	-0.216
-314.983	-200.000	0.022	0.150
-313.968	252.783	-0.139	0.236
-312.953	-27.324	-0.332	0.192
-311.939	-200.000	-0.014	0.207
-310.924	131.437	0.180	0.229
-309.910	-165.008	0.290	-0.013
-308.895	-108.534	0.152	-0.032
-307.880	710.747	0.123	-0.323
-306.866	260.629	0.039	-0.068
-305.851	41.381	0.248	0.222
-304.837	-200.000	-0.007	0.237
-303.822	6.835	-0.432	0.319
-302.807	-96.401	-0.462	-0.121
-301.793	800.000	0.037	-0.140
-300.778	516.367	0.002	0.004
-299.764	-200.000	0.020	-0.096
-298.749	800.000	-0.132	-0.421
-297.735	-200.000	-0.171	-0.000
-296.720	12.029	0.253	-0.193
-295.705	-81.113	0.332	0.109
-294.691	22.974	-0.138	-0.112
-293.676	-142.437	-0.263	-0.026
-292.662	14.291	0.240	0.185
-291.647	-143.050	0.071	0.007
-290.632	800.000	-0.077	-0.216
-289.618	123.102	0.072	0.089
-288.603	730.313	0.068	-0.179
-287.589	202.890	-0.236	-0.360
-286.574	348.720	0.088	-0.172
-285.559	641.708	0.037	-0.094
-284.545	14.764	0.149	-0.116
-283.530	-146.715	0.232	0.020
-282.516	-200.000	0.063	-0.316
-281.501	310.345	0.084	0.156
-280.486	226.047	0.110	0.177
-279.472	-200.000	-0.005	0.152
-278.457	140.577	-0.202	-0.264
-277.443	79.253	0.071	-0.075
-276.428	-69.245	-0.136	-0.052
-275.413	199.208	-0.182	-0.276
-274.399	-200.000	0.006	-0.097
-273.384	-200.000	-0.074	-0.378
-272.370	-81.213	0.042	0.014
-271.355	10.430	0.067	-0.050
-270.340	28.248	-0.086	-0.072
-269.326	-73.769	0.069	0.025
-268.311	20.075	-0.156	0.124
-267.297	126.390	0.169	0.212
-266.282	-21.482	0.104	0.063
-265.267	103.771	-0.151	-0.175
-264.253	800.000	0.035	-0.138
-263.238	-200.000	0.006	0.129
-262.224	-15.692	-0.170	0.107
-261.209	-10.082	0.362	-0.238
-260.195	-32.990	0.094	-0.051
-259.180	1.166	-0.176	-0.125
-258.165	28.776	-0.131	0.109
-257.151	-200.000	0.004	0.092
-256.136	-200.000	0.073	0.406
-255.122	-72.504	-0.286	0.104
-254.107	698.864	0.139	0.362
-253.092	36.866	0.056	0.049
-252.078	201.852	0.105	0.160
-251.063	-25.150	-0.200	0.117
-250.049	50.394	0.121	-0.113
-249.034	-9.037	0.426	-0.281
-248.019	-12.517	-0.134	-0.086
-247.005	-200.000	-0.008	0.079
-245.990	-200.000	-0.014	0.275
-244.976	-33.860	-0.193	0.105
-243.961	-19.002	0.185	-0.113
-242.946	377.930	0.137	-0.277
-241.932	-117.539	0.239	0.043
-240.917	-105.908	-0.131	0.029
-239.903	-95.512	0.359	-0.095
-238.888	-180.503	-0.176	-0.004
-237.873	178.631	0.060	0.086
-236.859	-200.000	0.018	0.113
-235.844	-75.837	0.087	-0.031
-234.830	-34.306	-0.331	-0.180
-233.815	-157.603	-0.360	0.021
-232.800	544.948	0.114	0.269
-231.786	-141.698	-0.126	0.012
-230.771	-200.000	-0.014	0.275
-229.757	465.787	-0.170	-0.377
-228.742	-126.007	0.336	-0.050
-227.727	-200.000	0.021	0.359
-226.713	-98.844	0.170	0.043
-225.698	-200.000	-0.002	-0.252
-224.684	57.474	0.265	0.255
-223.669	145.977	0.175	0.232
-222.655	-200.000	-0.063	0.299
-221.640	341.722	-0.120	-0.231
-220.625	-95.753	-0.066	-0.017
-219.611	-200.000	0.008	-0.098
-218.596	99.326	-0.113	0.129
-217.582	-126.096	0.214	0.032
-216.567	800.000	-0.023	-0.095
-215.552	-149.204	0.226	-0.018
-214.538	348.427	-0.136	0.264
-213.523	-109.175	0.369	0.077
-212.509	800.000	0.063	0.187
-211.494	435.024	-0.079	0.170
-210.479	89.468	-0.110	0.121
-209.465	55.592	0.169	0.161
-208.450	-119.567	-0.368	-0.063
-207.436	207.157	0.027	0.042
-206.421	692.647	0.119	-0.308
-205.406	156.724	-0.182	0.248
-204.392	176.595	-0.047	0.068
-203.377	194.880	0.097	-0.145
-202.363	320.144	-0.067	0.125
-201.348	-116.437	0.028	-0.005
-200.333	-200.000	0.005	0.127
-199.319	32.363	0.412	0.351
-198.304	800.000	0.033	0.107
-197.290	-112.182	0.327	-0.065
-196.275	350.758	0.060	0.117
-195.260	151.641	-0.210	-0.283
-194.246	-88.627	-0.081	-0.024
-193.231	-139.090	0.106	-0.011
-192.217	406.067	0.088	0.184
-191.202	800.000	0.027	-0.100
-190.187	97.971	0.109	-0.124
-189.173	-1.880	-0.127	-0.088
-188.158	80.998	-0.009	-0.009
-187.144	-1.848	0.202	0.140
-186.129	505.643	-0.046	-0.105
-185.114	161.965	0.099	-0.136
-184.100	-47.464	0.081	0.039
-183.085	-80.481	-0.270	-0.089
-182.071	279.261	-0.155	-0.273
-181.056	800.000	0.069	-0.200
-180.042	599.159	0.025	0.061
-179.027	-11.668	0.034	-0.022
-178.012	87.981	0.215	-0.234
-176.998	205.542	-0.079	-0.121
-175.983	-116.813	0.192	-0.035
-174.969	-200.000	0.031	0.351
-173.954	170.257	-0.241	0.340
-172.939	-96.477	0.158	-0.041
-171.925	21.512	0.035	-0.028
-170.910	121.230	-0.129	0.158
-169.896	26.473	-0.066	0.054
-168.881	800.000	0.107	0.446
-167.866	-14.146	-0.043	-0.028
-166.852	157.402	-0.173	-0.236
-165.837	67.142	0.217	-0.218
-164.823	149.795	-0.051	0.068
-163.808	-96.069	0.301	0.079
-162.793	-96.277	0.256	0.067
-161.779	-42.498	0.121	0.061
-160.764	495.649	-0.200	-0.452
-159.750	-133.752	-0.273	0.034
-158.735	-76.481	0.192	0.067
-157.720	153.561	0.180	-0.242
-156.706	129.495	-0.053	0.067
-155.691	343.677	0.067	-0.129
-154.677	800.000	-0.092	-0.315
-153.662	800.000	0.074	-0.272
-152.647	-200.000	-0.008	0.129
-151.633	78.354	-0.188	-0.197
-150.618	-200.000	0.033	0.174
-149.604	800.000	-0.040	-0.129
-148.589	-28.806	0.106	-0.060
-147.574	0.987	0.117	-0.082
-146.560	-99.084	-0.164	0.041
-145.545	800.000	-0.080	-0.233
-144.531	432.553	0.126	0.268
-143.516	800.000	0.069	-0.288
-142.502	-200.000	0.061	0.561
-141.487	800.000	0.052	-0.185
-140.472	20.490	-0.163	0.130
-139.458	137.418	-0.140	0.180
-138.443	343.160	-0.174	-0.336
-137.429	182.783	0.096	0.140
-136.414	79.314	0.050	0.053
-135.399	171.300	0.084	-0.119
-134.385	575.999	0.112	0.268
-133.370	-17.129	-0.208	-0.129
-132.356	3.290	0.189	0.135
-131.341	-83.266	-0.119	-0.037
-130.326	-57.520	0.130	0.056
-129.312	-72.956	-0.205	0.074
-128.297	-89.405	-0.105	-0.030
-127.283	-49.684	0.117	-0.055
-126.268	8.148	0.175	0.129
-125.253	-42.926	0.178	-0.089
-124.239	129.744	-0.120	-0.151
-123.224	673.209	-0.045	-0.116
-122.210	-200.000	0.002	-0.285
-121.195	-79.606	0.208	-0.069
-120.180	800.000	-0.052	-0.197
-119.166	14.194	0.197	0.151
-118.151	800.000	0.035	-0.103
-117.137	165.426	-0.022	-0.030
-116.122	-17.630	0.207	-0.128
-115.107	-200.000	-0.026	-0.140
-114.093	800.000	-0.112	0.322
-113.078	347.329	0.121	-0.235
-112.064	-165.625	0.501	0.021
-111.049	206.438	-0.041	-0.063
-110.034	352.251	0.233	0.454
-109.020	212.376	-0.016	0.025
-108.005	-200.000	-0.058	-0.340
-106.991	192.130	-0.087	-0.130
-105.976	42.764	-0.230	-0.206
-104.962	-80.395	0.110	-0.036
-103.947	-200.000	0.031	-0.196
-102.932	-144.641	0.312	-0.028
-101.918	-116.963	-0.211	0.038
-100.903	60.488	-0.323	-0.314
-99.889	28.604	-0.160	-0.133
-98.874	-200.000	0.017	0.295
-97.859	639.011	0.012	-0.031
-96.845	166.209	0.167	0.232
-95.830	800.000	-0.083	-0.265
-94.816	275.456	0.190	-0.330
-93.801	-151.439	-0.383	-0.028
-92.786	-111.380	0.197	-0.039
-91.772	-103.688	-0.173	0.040
-90.757	623.898	-0.010	-0.024
-89.743	271.134	0.206	-0.356
-88.728	-200.000	0.011	-0.144
-87.713	-200.000	0.032	0.154
-86.699	-27.515	-0.253	0.145
-85.684	-200.000	-0.017	0.165
-84.670	-100.524	-0.178	0.043
-83.655	800.000	0.112	0.366
-82.640	57.071	-0.060	-0.058
-81.626	352.279	0.039	0.076
-80.611	378.230	0.017	0.034
-79.597	277.158	0.106	-0.186
-78.582	-70.026	-0.071	-0.027
-77.567	-77.492	-0.400	0.136
-76.553	48.465	-0.085	-0.078
-75.538	73.598	0.124	-0.127
-74.524	639.810	0.164	-0.411
-73.509	462.359	-0.153	-0.336
-72.494	-27.607	-0.133	0.076
-71.480	-37.734	-0.132	-0.069
-70.465	800.000	-0.079	0.293
-69.451	104.871	-0.158	0.183
-68.436	29.622	-0.128	-0.107
-67.422	800.000	0.048	0.153
-66.407	-165.723	0.213	0.009
-65.392	567.449	-0.036	0.086
-64.378	800.000	-0.094	-0.291
-63.363	-0.142	0.174	-0.122
-62.349	387.237	0.116	-0.235
-61.334	85.837	-0.680	-0.734
-60.319	91.875	0.599	0.661
-59.305	800.000	-0.281	-0.832
-58.290	326.345	0.525	0.986
-57.276	800.000	0.477	1.610
-56.261	-200.000	104.727	575.557
-55.246	471.396	1440.337	3178.006
-54.232	154.539	2609.740	3514.254
-53.217	107.475	2154.646	2513.565
-52.203	41.075	1691.931	1498.430
-51.188	34.000	1505.615	1285.735
-50.173	31.549	1478.709	1246.409
-49.159	50.952	1532.730	1424.190
-48.144	52.156	1550.293	1448.636
-47.130	34.131	1507.583	1288.096
-46.115	31.066	1492.865	1254.888
-45.100	30.821	1489.563	1250.420
-44.086	30.988	1486.950	1249.292
-43.071	30.886	1484.810	1246.766
-42.057	30.676	1483.792	1244.456
-41.042	30.777	1482.272	1243.805
-40.027	30.779	1480.866	1242.589
-39.013	30.758	1479.329	1241.110
-37.998	30.720	1478.486	1240.103
-36.984	30.806	1477.155	1239.512
-35.969	30.676	1476.364	1237.934
-34.954	30.692	1474.085	1236.080
-33.940	30.794	1473.272	1236.028
-32.925	30.710	1472.014	1234.363
-31.911	30.685	1470.799	1233.127
-30.896	30.809	1469.052	1232.437
-29.881	30.857	1467.792	1231.650
-28.867	30.907	1466.407	1230.769
-27.852	30.856	1465.091	1229.275
-26.838	30.836	1463.558	1227.807
-25.823	30.803	1462.327	1226.514
-24.809	30.774	1460.613	1224.833
-23.794	30.845	1459.102	1223.988
-22.779	30.763	1458.849	1223.189
-21.765	30.848	1457.309	1222.402
-20.750	30.862	1456.795	1222.018
-19.736	30.866	1454.702	1220.239
-18.721	30.754	1454.031	1218.895
-17.706	30.878	1452.617	1218.471
-16.692	30.892	1451.848	1217.869
-15.677	30.792	1451.133	1216.569
-14.663	30.878	1449.397	1215.628
-13.648	30.757	1448.930	1214.394
-12.633	30.837	1447.835	1213.954
-11.619	30.761	1447.066	1212.762
-10.604	30.749	1446.267	1211.968
-9.590	30.777	1445.668	1211.600
-8.575	30.800	1444.411	1210.645
-7.560	30.676	1444.307	1209.704
-6.546	30.692	1442.867	1208.556
-5.531	30.687	1442.484	1208.156
-4.517	30.702	1441.371	1207.269
-3.502	30.797	1440.191	1206.849
-2.487	30.754	1439.072	1205.590
-1.473	30.764	1437.581	1204.356
-0.458	30.734	1436.723	1203.397
0.556	28.747	1426.247	1190.396
1.571	25.281	1401.072	1147.167
2.586	21.285	1339.660	1072.316
3.600	19.401	1257.766	995.809
4.615	18.153	1213.291	953.557
5.629	16.846	1160.100	904.701
6.644	12.601	1084.067	824.116
7.659	8.999	1047.897	779.080
8.673	8.516	1042.910	772.974
9.688	8.288	1039.008	768.914
10.702	8.152	1037.707	767.229
11.717	8.164	1036.161	766.074
12.731	9.946	1036.835	775.062
13.746	14.201	1042.147	799.446
14.761	17.388	1045.423	817.222
15.775	17.810	1045.228	819.025
16.790	16.855	1043.491	813.014
17.804	15.771	1040.926	805.752
18.819	14.924	1039.197	800.295
19.834	14.408	1037.915	796.771
20.848	14.135	1036.630	794.409
21.863	13.751	1036.270	792.227
22.877	13.583	1035.554	790.807
23.892	13.387	1034.690	789.142
24.907	13.272	1034.153	788.117
25.921	13.202	1033.411	787.149
26.936	13.452	1032.105	787.274
27.950	13.408	1031.320	786.393
28.965	13.406	1030.628	785.786
29.980	13.520	1028.847	784.902
30.994	13.558	1027.787	784.202
32.009	13.654	1026.945	783.948
33.023	13.537	1026.696	783.134
34.038	13.730	1025.522	783.078
35.053	13.669	1024.303	781.791
36.067	13.439	1023.753	780.221
37.082	13.577	1022.693	779.992
38.096	13.594	1022.124	779.567
39.111	13.633	1021.072	778.879
40.126	13.623	1020.512	778.336
41.140	13.532	1019.435	777.022
42.155	13.451	1018.374	775.762
43.169	13.331	1017.354	774.356
44.184	13.459	1016.193	774.002
45.199	13.321	1015.449	772.721
46.213	13.368	1014.112	771.858
47.228	13.324	1013.452	771.082
48.242	13.555	1012.098	771.056
49.257	13.459	1011.575	770.142
50.271	13.485	1010.199	769.147
51.286	13.451	1009.736	768.571
52.301	13.464	1008.668	767.748
53.315	13.412	1008.207	767.089
54.330	13.515	1007.309	766.815
55.344	13.249	1006.695	765.051
56.359	13.330	1005.444	764.407
57.374	13.436	1004.590	764.177
58.388	13.404	1003.325	763.001
59.403	13.298	1003.084	762.260
60.417	13.362	1001.846	761.550
61.432	13.327	1001.353	760.945
62.447	13.288	1000.474	760.031
63.461	13.184	1000.036	759.153
64.476	13.353	998.233	758.493
65.490	13.182	997.621	757.176
66.505	13.142	997.097	756.527
67.520	13.264	996.309	756.423
68.534	13.391	995.228	756.114
69.549	13.148	994.938	754.717
70.563	13.226	994.244	754.480
71.578	13.219	993.429	753.761
72.593	13.258	992.789	753.386
73.607	13.153	991.841	752.125
74.622	13.168	990.506	751.115
75.636	13.191	989.745	750.576
76.651	13.191	988.852	749.829
77.666	13.116	988.463	749.129
78.680	13.208	987.578	748.810
79.695	13.179	987.315	748.413
80.709	13.209	986.744	748.050
81.724	13.191	986.089	747.403
82.739	13.346	984.858	747.107
83.753	13.349	984.318	746.646
84.768	13.318	983.968	746.172
85.782	13.431	983.107	745.964
86.797	13.568	982.464	746.025
87.812	13.510	981.575	745.022
88.826	13.441	980.408	743.762
89.841	13.364	979.881	742.950
90.855	13.391	979.124	742.430
91.870	13.580	978.586	742.804
92.884	13.576	977.874	742.182
93.899	13.686	977.040	741.976
94.914	13.602	975.894	740.665
95.928	13.692	975.552	740.739
96.943	13.629	975.108	740.058
97.957	13.573	973.963	738.872
98.972	13.626	973.226	738.483
99.987	13.659	972.142	737.742
101.001	13.469	972.134	736.824
102.016	13.557	971.252	736.483
103.030	13.420	970.110	734.946
104.045	13.564	969.078	734.735
105.060	13.685	967.873	734.293
106.074	13.561	967.142	733.123
107.089	13.388	966.468	731.785
108.103	13.364	965.430	730.829
109.118	13.364	964.339	729.939
110.133	13.210	964.154	729.053
111.147	13.329	963.260	728.838
112.162	13.327	962.229	727.983
113.176	13.284	961.385	727.090
114.191	13.402	960.534	726.901
115.206	13.420	959.876	726.417
116.220	13.528	958.578	725.848
117.235	13.443	957.926	724.914
118.249	13.274	957.493	723.784
119.264	13.465	956.521	723.821
120.279	13.383	955.778	722.836
121.293	13.317	955.052	721.933
122.308	13.252	954.076	720.850
123.322	13.328	953.274	720.509
124.337	13.288	952.134	719.411
125.352	13.331	950.761	718.496
126.366	13.303	949.853	717.625
127.381	13.331	949.076	717.098
128.395	13.226	948.216	715.931
129.410	13.363	947.099	715.613
130.424	13.232	946.531	714.558
131.439	13.477	945.437	714.726
132.454	13.385	944.570	713.608
133.468	13.397	944.021	713.183
134.483	13.481	943.279	712.919
135.497	13.431	942.900	712.357
136.512	13.417	941.773	711.383
137.527	13.408	941.021	710.714
138.541	13.367	940.683	710.220
139.556	13.384	939.700	709.488
140.570	13.482	938.950	709.279
141.585	13.488	938.563	708.949
142.600	13.642	937.508	708.748
143.614	13.687	936.948	708.454
144.629	13.589	936.388	707.547
145.643	13.609	935.540	706.929
146.658	13.715	934.632	706.632
147.673	13.607	933.597	705.329
148.687	13.624	932.753	704.703
149.702	13.414	931.905	703.107
150.716	13.573	930.767	702.858
151.731	13.535	929.866	701.956
152.746	13.605	929.021	701.553
153.760	13.472	928.552	700.574
154.775	13.468	928.254	700.271
155.789	13.625	927.120	700.015
156.804	13.726	926.321	699.778
157.819	13.608	926.162	699.098
158.833	13.573	925.465	698.359
159.848	13.728	924.505	698.226
160.862	13.698	923.898	697.581
161.877	13.769	922.984	697.126
162.892	13.753	922.162	696.380
163.906	13.697	920.904	695.131
164.921	13.388	920.989	693.836
165.935	13.576	919.821	693.685
166.950	13.501	918.629	692.409
167.964	13.711	917.813	692.610
168.979	13.718	916.872	691.869
169.994	13.615	916.021	690.735
171.008	13.568	915.790	690.307
172.023	13.676	914.296	689.568
173.037	13.863	913.624	689.777
174.052	13.802	912.955	688.959
175.067	13.714	912.102	687.887
176.081	13.779	911.233	687.439
177.096	13.681	910.672	686.549
178.110	13.745	909.534	685.897
179.125	13.798	908.708	685.433
180.140	13.755	908.200	684.812
181.154	13.820	907.466	684.467
182.169	13.850	906.757	683.993
183.183	13.832	906.472	683.643
184.198	13.850	905.738	683.104
185.213	13.892	904.922	682.602
186.227	13.834	904.651	682.098
187.242	13.910	903.866	681.758
188.256	14.054	902.982	681.620
189.271	13.930	902.510	680.695
190.286	13.909	902.032	680.188
191.300	13.972	900.885	679.521
192.315	13.698	900.101	677.749
193.329	13.717	899.187	677.081
194.344	13.697	898.948	676.757
195.359	13.853	898.135	676.721
196.373	13.919	897.574	676.511
197.388	13.818	897.388	675.899
198.402	14.108	896.822	676.591
199.417	14.055	896.490	676.065
200.432	14.157	895.848	675.937
201.446	14.228	895.453	675.865
202.461	14.272	894.861	675.537
203.475	14.345	894.114	675.210
204.490	14.180	893.981	674.381
205.504	14.068	893.300	673.353
206.519	14.199	892.043	672.877
207.534	14.135	891.741	672.329
208.548	14.163	890.970	671.803
209.563	14.142	890.219	671.093
210.577	14.088	889.601	670.348
211.592	14.201	888.871	670.195
212.607	14.281	888.267	670.004
213.621	14.364	887.906	670.005
214.636	14.368	887.064	669.327
215.650	14.266	886.618	668.523
216.665	14.344	886.048	668.347
217.680	14.387	885.725	668.217
218.694	14.458	885.172	668.022
219.709	14.547	884.348	667.700
220.723	14.510	883.580	666.914
221.738	14.426	883.144	666.187
222.753	14.426	882.289	665.483
223.767	14.404	881.720	664.906
224.782	14.430	880.962	664.379
225.796	14.552	880.165	664.206
226.811	14.425	879.899	663.442
227.826	14.629	878.654	663.254
228.840	14.421	878.698	662.405
229.855	14.561	877.754	662.191
230.869	14.462	877.502	661.548
231.884	14.490	876.488	660.837
232.899	14.518	875.705	660.296
233.913	14.496	875.195	659.766
234.928	14.439	874.545	658.995
235.942	14.351	874.130	658.274
236.957	14.478	872.860	657.760
237.972	14.407	872.449	657.114
238.986	14.541	871.804	657.097
240.001	14.339	871.331	655.887
241.015	14.473	870.640	655.837
242.030	14.422	870.054	655.136
243.045	14.476	869.488	654.864
244.059	14.627	868.619	654.745
245.074	14.677	868.086	654.482
246.088	14.674	867.306	653.824
247.103	14.712	867.324	653.930
248.117	14.709	866.607	653.316
249.132	14.941	865.598	653.404
250.147	14.932	865.215	653.021
251.161	15.006	864.725	652.886
252.176	14.854	864.441	652.018
253.190	15.038	863.242	651.774
254.205	14.949	863.117	651.275
255.220	15.060	862.412	651.118
256.234	15.029	861.623	650.346
257.249	15.187	860.932	650.378
258.263	15.142	860.637	649.923
259.278	14.949	860.622	649.106
260.293	15.063	859.501	648.644
261.307	15.093	858.956	648.291
262.322	15.170	858.429	648.135
263.336	15.163	857.846	647.612
264.351	15.272	857.057	647.379
265.366	15.201	856.640	646.730
266.380	15.191	855.760	645.970
267.395	15.225	855.594	645.922
268.409	15.318	854.517	645.410
269.424	15.158	854.035	644.373
270.439	15.328	852.935	644.136
271.453	15.286	852.158	643.333
272.468	15.347	851.674	643.145
273.482	15.352	851.160	642.718
274.497	15.333	850.342	641.970
275.512	15.180	850.091	641.140
276.526	15.224	849.141	640.535
277.541	15.294	848.645	640.372
278.555	15.284	848.245	639.976
279.570	15.436	847.167	639.684
280.585	15.333	847.199	639.260
281.599	15.427	846.527	639.052
282.614	15.368	845.491	637.988
283.628	15.312	845.167	637.476
284.643	15.333	844.740	637.177
285.657	15.509	844.187	637.373
286.672	15.420	843.782	636.673
287.687	15.531	843.114	636.531
288.701	15.479	842.611	635.898
289.716	15.449	842.168	635.396
290.730	15.457	841.648	634.976
291.745	15.426	841.018	634.328
292.760	15.493	839.985	633.747
293.774	15.494	839.586	633.393
294.789	15.816	838.563	633.777
295.803	15.674	838.209	632.918
296.818	15.491	837.791	631.861
297.833	15.598	837.078	631.666
298.847	15.638	836.309	631.182
299.862	15.517	835.844	630.320
300.876	15.653	835.244	630.323
301.891	15.689	834.672	629.971
302.906	15.777	834.127	629.833
303.920	15.799	833.425	629.330
304.935	15.757	832.947	628.756
305.949	16.014	832.016	628.956
306.964	15.778	831.712	627.790
307.979	15.842	831.293	627.658
308.993	15.775	830.825	627.000
310.008	15.896	829.983	626.760
311.022	15.957	829.680	626.700
312.037	15.795	829.386	625.820
313.052	15.858	828.613	625.416
314.066	15.855	828.099	624.963
315.081	15.647	827.756	623.875
316.095	15.715	826.644	623.237
317.110	15.796	826.545	623.403
318.125	15.747	825.874	622.661
319.139	15.892	824.898	622.406
320.154	16.048	824.214	622.414
321.168	15.894	824.194	621.772
322.183	15.808	823.806	621.110
323.197	15.875	823.182	620.832
324.212	15.908	822.625	620.476
325.227	15.972	822.093	620.255
326.241	16.034	821.382	619.895
327.256	15.900	821.000	619.057
328.270	16.024	820.361	618.976
329.285	15.896	819.907	618.110
330.300	15.762	819.572	617.310
331.314	15.929	818.726	617.228
332.329	16.002	818.058	616.938
333.343	15.930	817.531	616.222
334.358	16.137	816.846	616.408
335.373	16.088	816.320	615.778
336.387	16.149	815.641	615.436
337.402	16.236	815.049	615.251
338.416	16.151	814.984	614.837
339.431	16.192	814.509	614.575
340.446	16.351	813.544	614.370
341.460	16.181	813.324	613.532
342.475	16.261	812.508	613.152
343.489	16.297	812.094	612.918
344.504	16.548	811.261	613.142
345.519	16.392	810.757	612.141
346.533	16.428	810.429	611.973
347.548	16.569	809.846	611.987
348.562	16.368	809.432	610.892
349.577	16.277	809.220	610.349
350.592	16.430	808.233	610.103
351.606	16.370	808.176	609.791
352.621	16.429	807.272	609.268
353.635	16.218	807.182	608.384
354.650	16.295	806.726	608.265
355.665	16.326	806.434	608.104
356.679	16.379	805.514	607.545
357.694	16.419	805.206	607.403
358.708	16.589	804.599	607.503
359.723	16.463	804.125	606.637
360.738	16.519	803.734	606.490
361.752	16.444	803.163	605.736
362.767	16.522	802.764	605.664
363.781	16.603	802.315	605.561
364.796	16.821	801.750	605.859
365.810	16.665	801.870	605.340
366.825	16.705	801.296	604.996
367.840	16.850	800.937	605.189
368.854	16.706	800.708	604.448
369.869	16.703	799.689	603.615
370.883	16.584	799.417	602.932
371.898	16.718	799.053	603.080
372.913	16.785	798.454	602.813
373.927	16.909	797.620	602.571
374.942	16.841	797.137	601.912
375.956	16.763	796.123	600.816
376.971	16.897	795.825	601.014
377.986	17.020	795.261	600.970
379.000	17.071	794.436	600.473
380.015	17.087	794.217	600.313
381.029	16.886	793.898	599.307
382.044	17.160	793.358	599.812
383.059	16.993	792.732	598.696
384.073	16.954	792.260	598.151
385.088	17.086	791.559	598.034
386.102	16.775	791.483	596.828
387.117	16.858	790.822	596.570
388.132	16.964	790.127	596.365
389.146	16.970	789.906	596.165
390.161	16.964	789.466	595.760
391.175	17.147	788.820	595.864
392.190	17.048	788.744	595.403
393.205	17.081	788.291	595.124
394.219	16.959	787.868	594.327
395.234	16.960	787.622	594.092
396.248	17.081	786.813	593.853
397.263	17.090	786.171	593.348
398.278	17.045	785.694	592.775
399.292	17.052	785.325	592.472
400.307	16.980	785.117	592.010
401.321	17.050	784.809	591.970
402.336	17.040	784.606	591.727
403.350	17.077	783.919	591.286
404.365	17.093	783.620	591.065
405.380	17.183	782.903	590.786
406.394	17.280	782.432	590.715
407.409	17.405	782.198	590.918
408.423	17.279	781.787	590.120
409.438	17.049	781.186	588.817
410.453	17.308	780.939	589.475
411.467	17.491	780.259	589.544
412.482	17.391	779.987	588.941
413.496	17.430	779.481	588.642
414.511	17.479	779.033	588.419
415.526	17.454	778.877	588.162
416.540	17.553	778.493	588.163
417.555	17.642	777.992	588.038
418.569	17.562	777.534	587.367
419.584	17.565	777.014	586.930
420.599	17.487	776.485	586.211
421.613	109.303	1289.328	1466.416
422.628	93.427	1364.031	1466.480
