DTS Sentinel unit serial number:	SN413079Multiplexer serial number:	ORYXHardware model number:	OX4-SRSoftware version number:	ORYX F/W v4.00 Oryx Data Collector v3.7.2.0data status	okinstallation	princeton_trtdifferential loss correction	single-endedforward channel	channel 3reverse channel	N/Adate	2019/09/11time	08:34:11forward acquisition time	60.00reverse acquisition time	0.00gamma	496.2192k internal	0.2313k external	0.2313temperature offset calibration	0.9939default loss term (dB/km)	0.3790temperature slope calibration	1.0000multiplexer offset coefficient	1.0000multiplexer slope coefficient	1.0000fibre end	0.00T internal ref (°C)	33.27T ext. ref 1 (°C)	0.09T ext. ref 2 (°C)	30.59length (m)	temperature (°C)	Stokes	anti-Stokes-747.200	-74.073	0.098	0.036
-746.185	800.000	-0.078	0.273
-745.171	229.429	-0.056	0.092
-744.156	-185.464	0.279	-0.004
-743.142	-129.793	-0.379	0.053
-742.127	380.186	-0.086	0.180
-741.112	-62.021	-0.347	0.147
-740.098	-33.442	0.208	0.116
-739.083	-56.392	0.343	0.154
-738.069	-133.770	-0.227	0.029
-737.054	-16.748	0.383	0.246
-736.039	-109.257	-0.478	-0.103
-735.025	305.787	-0.083	0.157
-734.010	-163.535	-0.349	0.017
-732.996	-200.000	-0.005	-0.127
-731.981	241.984	-0.174	0.295
-730.966	-200.000	-0.021	-0.174
-729.952	-18.192	0.196	0.124
-728.937	77.851	-0.199	0.215
-727.923	-115.634	-0.193	0.037
-726.908	800.000	-0.065	-0.198
-725.894	-200.000	-0.032	0.346
-724.879	-76.356	-0.054	0.019
-723.864	-200.000	-0.007	-0.269
-722.850	-49.038	0.153	0.074
-721.835	165.536	0.074	-0.106
-720.821	-200.000	-0.040	0.193
-719.806	-200.000	-0.004	-0.049
-718.791	15.642	-0.054	-0.043
-717.777	217.440	0.041	-0.066
-716.762	398.754	0.145	-0.308
-715.748	-96.360	-0.176	-0.047
-714.733	199.415	-0.110	0.172
-713.718	-52.722	0.036	-0.017
-712.704	-85.069	0.282	-0.089
-711.689	149.733	-0.131	0.179
-710.675	-83.913	0.134	-0.043
-709.660	66.931	-0.251	-0.258
-708.645	99.910	0.158	0.185
-707.631	-200.000	0.013	-0.068
-706.616	-70.662	-0.108	-0.041
-705.602	-115.038	-0.153	0.030
-704.587	-79.072	-0.168	0.058
-703.572	184.026	-0.050	0.074
-702.558	-155.692	0.032	0.002
-701.543	800.000	0.083	-0.265
-700.529	-14.300	0.154	0.100
-699.514	-25.432	0.319	-0.191
-698.499	800.000	0.099	-0.309
-697.485	331.234	-0.066	-0.130
-696.470	237.711	0.083	0.140
-695.456	366.666	0.041	0.084
-694.441	-172.270	-0.284	0.009
-693.426	800.000	-0.063	-0.245
-692.412	-200.000	0.028	0.184
-691.397	800.000	-0.059	0.230
-690.383	29.144	-0.159	0.137
-689.368	383.365	-0.055	-0.114
-688.354	297.420	-0.084	0.157
-687.339	-200.000	0.043	0.380
-686.324	43.342	0.231	0.214
-685.310	-181.189	-0.259	-0.005
-684.295	-200.000	-0.020	0.203
-683.281	800.000	0.034	-0.134
-682.266	-200.000	-0.048	-0.293
-681.251	-26.759	-0.096	-0.057
-680.237	-41.157	0.105	-0.055
-679.222	-105.332	-0.133	0.031
-678.208	-135.746	0.173	0.021
-677.193	-200.000	0.036	0.438
-676.178	-189.175	0.173	-0.002
-675.164	-62.193	0.189	0.080
-674.149	-96.922	0.057	-0.015
-673.135	-145.082	-0.153	-0.014
-672.120	-87.572	0.157	0.048
-671.105	18.060	-0.289	-0.233
-670.091	-103.533	-0.048	-0.011
-669.076	-126.137	-0.047	0.007
-668.062	-60.930	0.280	0.120
-667.047	282.625	0.112	0.203
-666.032	5.323	-0.081	-0.061
-665.018	350.786	0.089	-0.177
-664.003	498.887	-0.134	-0.311
-662.989	-46.892	0.043	0.021
-661.974	-200.000	0.039	0.182
-660.959	800.000	0.104	-0.392
-659.945	207.118	-0.228	0.360
-658.930	-130.285	-0.215	0.030
-657.916	-200.000	0.000	0.150
-656.901	34.146	0.072	-0.064
-655.886	800.000	-0.072	-0.212
-654.872	800.000	-0.043	-0.186
-653.857	800.000	-0.002	-0.010
-652.843	-93.602	0.336	0.094
-651.828	-200.000	0.044	-0.283
-650.814	196.099	-0.187	-0.288
-649.799	-108.492	0.117	0.026
-648.784	619.067	-0.192	-0.487
-647.770	73.875	0.135	0.143
-646.755	-143.006	0.099	-0.010
-645.741	-18.941	0.035	-0.022
-644.726	-95.466	0.159	0.043
-643.711	-200.000	-0.020	-0.196
-642.697	-76.004	0.054	-0.019
-641.682	800.000	-0.057	0.170
-640.668	245.072	0.125	-0.212
-639.653	-74.202	0.466	0.170
-638.638	98.728	0.110	-0.128
-637.624	-82.922	0.395	-0.129
-636.609	-35.843	-0.093	-0.051
-635.595	12.879	0.053	0.041
-634.580	-140.088	0.288	-0.031
-633.565	463.906	-0.074	0.168
-632.551	-200.000	0.001	-0.130
-631.536	-1.755	-0.159	-0.113
-630.522	-200.000	0.020	-0.175
-629.507	-200.000	0.018	0.087
-628.492	-119.472	-0.321	0.056
-627.478	283.471	0.078	-0.142
-626.463	-137.358	0.273	0.031
-625.449	-140.656	0.203	-0.021
-624.434	197.665	0.120	0.185
-623.419	800.000	0.060	-0.242
-622.405	800.000	0.089	-0.283
-621.390	-200.000	0.027	-0.127
-620.376	21.433	-0.158	-0.129
-619.361	15.430	-0.163	-0.129
-618.346	-125.548	0.314	0.048
-617.332	217.993	-0.156	-0.251
-616.317	742.922	0.075	-0.204
-615.303	221.432	0.044	0.072
-614.288	800.000	0.005	-0.015
-613.273	-93.186	0.140	-0.039
-612.259	-89.379	-0.055	0.016
-611.244	108.578	-0.176	-0.212
-610.230	-38.980	-0.324	0.172
-609.215	-46.193	0.441	0.219
-608.201	109.579	0.155	-0.187
-607.186	-200.000	0.012	0.257
-606.171	-200.000	-0.064	-0.378
-605.157	25.330	-0.057	0.048
-604.142	-15.161	0.202	0.130
-603.128	216.514	-0.148	0.238
-602.113	-200.000	0.043	-0.203
-601.098	-200.000	-0.000	-0.158
-600.084	800.000	0.101	-0.306
-599.069	-163.336	-0.222	0.011
-598.055	-200.000	0.019	0.107
-597.040	-78.732	0.160	0.055
-596.025	800.000	0.065	0.209
-595.011	-200.000	-0.076	0.404
-593.996	-39.198	-0.255	-0.135
-592.982	78.621	-0.181	-0.195
-591.967	-102.145	0.209	-0.051
-590.952	97.718	0.185	-0.215
-589.938	459.220	-0.080	0.179
-588.923	-113.469	-0.316	-0.062
-587.909	-104.935	-0.324	-0.075
-586.894	-145.664	-0.064	0.006
-585.879	-100.409	0.084	0.021
-584.865	800.000	-0.070	-0.244
-583.850	-115.199	-0.159	-0.030
-582.836	68.030	-0.151	-0.156
-581.821	-81.753	0.361	0.119
-580.806	-191.598	-0.442	0.004
-579.792	-109.977	0.144	0.030
-578.777	670.572	0.046	0.120
-577.763	-181.728	-0.322	-0.006
-576.748	5.416	0.257	-0.191
-575.733	-10.282	-0.358	0.239
-574.719	-200.000	0.012	-0.116
-573.704	134.313	0.103	-0.135
-572.690	-200.000	-0.009	0.075
-571.675	216.668	-0.193	-0.309
-570.661	-200.000	0.025	-0.119
-569.646	-29.417	-0.160	-0.092
-568.631	-13.530	-0.038	0.025
-567.617	-200.000	0.010	0.119
-566.602	-31.093	0.174	0.099
-565.588	-200.000	0.083	-0.403
-564.573	-200.000	-0.010	0.137
-563.558	5.298	-0.240	-0.178
-562.544	-200.000	-0.012	-0.150
-561.529	-200.000	-0.004	-0.097
-560.515	-119.972	0.239	0.041
-559.500	-7.578	0.081	0.055
-558.485	-19.020	-0.317	-0.198
-557.471	49.357	-0.131	-0.124
-556.456	245.382	-0.293	-0.497
-555.442	20.449	0.181	-0.147
-554.427	192.011	-0.022	-0.034
-553.412	293.699	-0.158	0.291
-552.398	-74.061	0.339	-0.124
-551.383	-39.233	0.068	-0.036
-550.369	-26.479	-0.203	0.120
-549.354	-24.756	0.064	0.038
-548.339	144.392	0.173	-0.233
-547.325	371.416	-0.061	-0.125
-546.310	800.000	0.017	0.058
-545.296	-48.339	0.116	0.056
-544.281	347.906	0.119	0.237
-543.266	-175.174	-0.272	-0.008
-542.252	41.112	0.177	0.161
-541.237	29.853	0.248	-0.213
-540.223	-103.991	-0.136	0.032
-539.208	800.000	-0.034	0.112
-538.193	-77.467	-0.181	0.063
-537.179	-57.108	0.077	-0.034
-536.164	146.705	0.121	-0.163
-535.150	800.000	-0.057	0.164
-534.135	147.395	-0.075	0.101
-533.121	-35.597	0.242	-0.132
-532.106	497.644	0.119	-0.275
-531.091	800.000	-0.029	0.103
-530.077	800.000	-0.082	0.260
-529.062	549.489	0.080	-0.192
-528.048	-66.095	-0.263	-0.105
-527.033	-109.882	0.167	0.035
-526.018	800.000	-0.077	-0.330
-525.004	-69.259	0.297	0.115
-523.989	-129.098	-0.279	0.039
-522.975	-200.000	0.046	-0.213
-521.960	228.633	-0.088	-0.145
-520.945	172.081	0.087	-0.125
-519.931	-188.615	-0.323	-0.004
-518.916	800.000	-0.065	-0.242
-517.902	-156.807	0.086	0.005
-516.887	458.795	0.133	-0.297
-515.872	-25.623	-0.173	-0.103
-514.858	-23.602	0.396	0.239
-513.843	326.426	-0.209	0.401
-512.829	800.000	-0.032	0.117
-511.814	-200.000	0.001	0.212
-510.799	96.878	-0.118	0.136
-509.785	170.305	-0.093	0.134
-508.770	-125.105	-0.058	-0.009
-507.756	-45.468	0.060	-0.030
-506.741	800.000	-0.038	-0.114
-505.726	45.526	0.207	0.192
-504.712	360.695	0.166	0.334
-503.697	-200.000	-0.015	-0.073
-502.683	125.694	-0.150	0.190
-501.668	443.315	-0.022	-0.048
-500.653	800.000	-0.078	-0.229
-499.639	-173.501	0.442	-0.013
-498.624	384.260	0.081	0.168
-497.610	289.886	0.078	0.143
-496.595	55.271	-0.185	-0.180
-495.581	800.000	0.121	-0.388
-494.566	163.067	0.011	-0.015
-493.551	-98.669	0.373	0.095
-492.537	258.897	0.131	0.226
-491.522	-171.145	-0.105	0.004
-490.508	543.412	-0.087	-0.209
-489.493	130.459	-0.069	-0.088
-488.478	-200.000	0.036	0.178
-487.464	463.279	-0.010	-0.023
-486.449	-38.422	-0.130	0.069
-485.435	-163.054	-0.236	-0.011
-484.420	-85.454	0.259	-0.081
-483.405	-83.142	0.062	0.020
-482.391	9.916	-0.169	-0.129
-481.376	390.653	-0.189	-0.394
-480.362	800.000	0.100	0.309
-479.347	1.509	0.150	-0.109
-478.332	625.580	-0.163	0.414
-477.318	235.319	-0.194	-0.322
-476.303	268.672	0.053	0.093
-475.289	-19.122	0.198	-0.124
-474.274	-143.205	0.126	0.012
-473.259	-4.114	0.110	-0.077
-472.245	32.122	0.402	-0.348
-471.230	151.898	-0.206	-0.281
-470.216	-33.855	-0.200	-0.111
-469.201	121.673	0.058	-0.072
-468.186	-200.000	0.022	0.121
-467.172	-32.372	-0.126	0.071
-466.157	13.459	-0.064	-0.050
-465.143	-122.568	-0.195	-0.032
-464.128	-200.000	0.004	-0.022
-463.113	2.541	-0.161	-0.117
-462.099	-29.743	-0.084	-0.048
-461.084	25.878	0.143	0.119
-460.070	139.335	-0.207	-0.273
-459.055	-69.240	-0.292	0.113
-458.040	-200.000	-0.010	0.113
-457.026	-79.145	-0.213	0.072
-456.011	-79.274	-0.210	0.071
-454.997	-25.174	0.271	-0.161
-453.982	-51.904	0.183	-0.085
-452.968	800.000	0.063	-0.198
-451.953	-23.508	-0.186	-0.112
-450.938	-200.000	0.016	0.155
-449.924	302.342	-0.156	-0.289
-448.909	-4.232	0.157	-0.109
-447.895	-83.797	-0.250	-0.080
-446.880	-147.635	0.222	-0.019
-445.865	800.000	0.070	-0.304
-444.851	800.000	0.073	-0.285
-443.836	39.455	-0.094	-0.085
-442.822	-200.000	-0.031	0.363
-441.807	125.395	0.137	0.173
-440.792	-198.652	-0.398	-0.002
-439.778	438.047	-0.013	-0.029
-438.763	-127.638	-0.011	-0.002
-437.749	142.206	0.100	0.133
-436.734	208.378	0.052	0.081
-435.719	-32.072	0.149	-0.083
-434.705	-181.850	0.131	0.003
-433.690	-90.246	-0.436	0.127
-432.676	-38.699	0.240	0.127
-431.661	117.499	0.046	0.057
-430.646	-200.000	-0.003	-0.194
-429.632	-61.633	0.113	0.047
-428.617	181.881	0.057	-0.084
-427.603	-200.000	-0.026	-0.485
-426.588	62.392	0.138	0.138
-425.573	199.510	0.104	0.160
-424.559	246.743	-0.079	0.133
-423.544	-70.593	0.176	0.067
-422.530	-200.000	-0.004	-0.306
-421.515	219.202	-0.227	-0.364
-420.500	-59.754	0.148	0.063
-419.486	-139.333	-0.445	0.048
-418.471	60.007	0.123	0.122
-417.457	28.427	0.054	0.046
-416.442	-94.405	-0.260	0.071
-415.428	-52.669	0.166	-0.077
-414.413	-200.000	-0.050	0.382
-413.398	389.575	0.115	-0.239
-412.384	92.228	-0.177	0.200
-411.369	298.258	0.097	0.179
-410.355	46.802	0.123	0.114
-409.340	-76.000	-0.227	0.080
-408.325	13.522	-0.168	0.130
-407.311	-65.578	-0.195	0.078
-406.296	-200.000	-0.009	0.109
-405.282	-102.180	0.062	-0.015
-404.267	-57.627	-0.164	-0.072
-403.252	-102.189	-0.149	0.036
-402.238	101.849	0.132	0.154
-401.223	373.832	-0.091	-0.186
-400.209	800.000	0.166	-0.485
-399.194	800.000	-0.116	-0.370
-398.179	216.989	0.103	-0.164
-397.165	66.147	-0.031	-0.031
-396.150	-94.516	0.347	0.095
-395.136	160.825	-0.071	0.100
-394.121	652.183	-0.070	0.180
-393.106	-97.814	-0.278	0.072
-392.092	-75.715	-0.179	0.064
-391.077	-19.695	0.295	0.183
-390.063	-200.000	0.019	-0.151
-389.048	800.000	0.047	0.144
-388.033	129.209	0.125	0.160
-387.019	121.669	0.060	0.075
-386.004	800.000	-0.037	0.110
-384.990	289.538	-0.106	0.192
-383.975	-62.767	-0.242	0.100
-382.960	90.883	0.106	0.119
-381.946	-62.724	0.274	0.113
-380.931	-97.450	-0.143	-0.037
-379.917	1.555	0.104	-0.074
-378.902	-42.025	0.136	0.070
-377.888	284.563	0.064	-0.115
-376.873	-200.000	-0.002	0.385
-375.858	288.402	-0.073	-0.132
-374.844	107.521	0.270	-0.321
-373.829	-105.084	-0.187	0.043
-372.815	800.000	0.087	-0.340
-371.800	11.764	-0.086	-0.066
-370.785	800.000	0.019	0.075
-369.771	-200.000	-0.025	0.144
-368.756	342.396	-0.113	0.221
-367.742	86.837	-0.093	-0.103
-366.727	678.949	0.080	0.207
-365.712	21.427	0.044	-0.036
-364.698	-100.769	-0.280	-0.069
-363.683	-184.320	-0.163	-0.003
-362.669	-104.595	-0.241	-0.056
-361.654	-200.000	0.001	-0.355
-360.639	-200.000	0.037	-0.240
-359.625	800.000	0.017	-0.073
-358.610	26.418	0.245	0.205
-357.596	-71.145	-0.120	0.045
-356.581	800.000	-0.038	-0.110
-355.566	-96.315	-0.221	0.058
-354.552	-22.013	0.080	0.048
-353.537	728.155	-0.113	0.301
-352.523	-113.407	-0.098	0.019
-351.508	-8.692	0.174	0.117
-350.493	91.874	0.279	-0.314
-349.479	-200.000	-0.020	0.097
-348.464	-200.000	0.004	0.281
-347.450	-52.626	0.055	0.025
-346.435	-83.844	0.217	-0.069
-345.420	221.435	0.146	-0.234
-344.406	161.060	-0.073	-0.101
-343.391	11.810	0.208	-0.159
-342.377	-29.766	-0.145	0.083
-341.362	-200.000	-0.043	0.265
-340.348	-200.000	0.041	0.461
-339.333	19.863	0.313	0.252
-338.318	-200.000	0.013	-0.169
-337.304	81.608	-0.087	-0.094
-336.289	-102.978	-0.283	-0.067
-335.275	-200.000	-0.042	0.190
-334.260	-56.377	0.196	0.087
-333.245	800.000	-0.081	0.304
-332.231	177.689	0.079	0.115
-331.216	114.459	0.085	0.103
-330.202	800.000	-0.054	-0.183
-329.187	75.778	-0.122	-0.129
-328.172	-50.166	-0.213	-0.101
-327.158	36.758	-0.173	0.153
-326.143	249.559	0.087	0.147
-325.129	300.600	0.064	0.118
-324.114	-2.022	0.154	0.108
-323.099	-4.565	0.247	0.170
-322.085	296.358	-0.178	0.326
-321.070	-19.805	0.155	-0.096
-320.056	-44.744	-0.170	0.085
-319.041	-131.451	0.193	0.025
-318.026	224.359	-0.073	-0.118
-317.012	-200.000	-0.035	0.182
-315.997	477.715	0.009	-0.021
-314.983	-44.630	0.396	-0.197
-313.968	-109.086	-0.228	0.049
-312.953	-107.374	0.072	0.016
-311.939	-6.688	-0.202	0.137
-310.924	800.000	-0.038	-0.162
-309.910	205.886	-0.122	0.189
-308.895	-138.831	-0.138	0.015
-307.880	553.619	0.055	-0.132
-306.866	-200.000	0.028	-0.149
-305.851	-200.000	0.000	0.374
-304.837	153.845	-0.102	-0.139
-303.822	-200.000	-0.046	-0.200
-302.807	-127.523	0.148	-0.021
-301.793	-107.115	-0.165	0.036
-300.778	-200.000	0.024	0.255
-299.764	-200.000	0.011	-0.135
-298.749	-8.698	0.126	0.084
-297.735	-200.000	-0.069	-0.448
-296.720	-119.092	-0.175	-0.031
-295.705	298.874	0.071	-0.130
-294.691	800.000	-0.067	0.267
-293.676	-27.009	0.089	-0.052
-292.662	800.000	0.010	-0.029
-291.647	423.069	0.057	0.121
-290.632	582.181	-0.093	0.227
-289.618	411.900	0.114	0.241
-288.603	-200.000	-0.024	-0.305
-287.589	134.728	-0.213	0.275
-286.574	34.854	-0.076	-0.067
-285.559	-102.384	-0.308	-0.074
-284.545	-51.869	0.166	-0.077
-283.530	-108.800	0.024	-0.005
-282.516	-49.062	0.463	0.221
-281.501	-200.000	-0.229	-0.001
-280.486	214.358	-0.177	0.278
-279.472	-200.000	-0.007	0.310
-278.457	-99.447	-0.130	0.033
-277.443	19.989	0.178	-0.143
-276.428	800.000	0.048	-0.146
-275.413	279.796	0.035	0.062
-274.399	133.400	0.145	0.187
-273.384	-200.000	0.025	-0.175
-272.370	96.842	-0.005	0.006
-271.355	-99.990	-0.289	0.072
-270.340	12.292	-0.293	0.225
-269.326	-200.000	-0.016	-0.225
-268.311	-96.979	0.263	0.069
-267.297	-200.000	-0.004	0.291
-266.282	-61.424	-0.107	-0.045
-265.267	-25.218	0.130	-0.077
-264.253	-200.000	-0.501	0.001
-263.238	-200.000	0.035	0.162
-262.224	-112.039	-0.216	-0.043
-261.209	800.000	0.012	-0.033
-260.195	-181.020	-0.521	-0.010
-259.180	-91.874	0.095	-0.027
-258.165	-200.000	-0.005	0.104
-257.151	79.935	0.154	0.164
-256.136	302.610	0.254	-0.468
-255.122	-200.000	0.023	-0.223
-254.107	-0.127	-0.071	-0.050
-253.092	800.000	-0.048	0.139
-252.078	-200.000	-0.009	0.142
-251.063	-96.471	0.024	-0.006
-250.049	80.004	0.343	-0.367
-249.034	97.528	0.168	-0.192
-248.019	-150.335	-0.267	0.020
-247.005	281.345	0.060	0.107
-245.990	-200.000	-0.017	0.126
-244.976	-200.000	-0.011	-0.325
-243.961	-23.382	0.298	-0.178
-242.946	-10.274	0.136	-0.090
-241.932	-40.461	-0.238	-0.123
-240.917	124.379	-0.224	0.281
-239.903	800.000	-0.085	0.262
-238.888	151.395	0.093	0.125
-237.873	110.665	0.079	-0.095
-236.859	-200.000	0.080	0.440
-235.844	-200.000	0.002	0.102
-234.830	79.767	-0.140	0.150
-233.815	367.707	0.120	-0.240
-232.800	800.000	-0.122	-0.362
-231.786	-83.559	0.074	0.023
-230.771	64.664	-0.237	0.237
-229.757	145.559	0.056	0.075
-228.742	800.000	0.090	0.354
-227.727	-122.736	0.203	-0.033
-226.713	800.000	-0.043	-0.134
-225.698	116.034	-0.076	-0.092
-224.684	275.183	-0.126	0.221
-223.669	-75.845	0.035	-0.012
-222.655	800.000	-0.065	0.233
-221.640	-117.188	0.163	-0.029
-220.625	-40.094	0.178	0.092
-219.611	-136.428	-0.226	-0.026
-218.596	177.723	0.207	0.300
-217.582	-114.252	-0.310	-0.059
-216.567	-200.000	-0.003	0.083
-215.552	-35.409	-0.275	-0.149
-214.538	-139.465	0.091	0.010
-213.523	-167.668	0.064	0.003
-212.509	190.202	-0.104	0.155
-211.494	243.309	-0.062	-0.104
-210.479	-200.000	-0.023	-0.153
-209.465	146.856	0.213	-0.284
-208.450	109.403	-0.095	0.113
-207.436	-200.000	0.026	0.231
-206.421	-144.117	-0.152	-0.014
-205.406	81.504	-0.116	0.124
-204.392	-133.131	-0.104	0.013
-203.377	800.000	0.043	0.183
-202.363	82.647	-0.272	0.293
-201.348	-82.200	-0.093	0.030
-200.333	-170.836	0.283	0.010
-199.319	-131.272	0.058	-0.008
-198.304	27.357	0.247	0.206
-197.290	-130.631	0.171	-0.023
-196.275	-74.818	0.416	0.148
-195.260	800.000	-0.096	0.287
-194.246	-93.258	0.191	-0.053
-193.231	-131.471	0.484	-0.063
-192.217	800.000	0.071	0.251
-191.202	22.146	0.151	0.123
-190.187	28.452	-0.077	0.064
-189.173	690.193	-0.067	-0.175
-188.158	-34.222	0.156	-0.085
-187.144	83.779	-0.077	0.083
-186.129	-200.000	0.001	-0.202
-185.114	-19.000	-0.281	0.173
-184.100	-200.000	0.038	0.178
-183.085	-200.000	0.058	-0.369
-182.071	29.267	0.096	0.081
-181.056	-200.000	0.042	0.189
-180.042	-177.785	-0.440	0.011
-179.027	76.962	-0.163	0.172
-178.012	50.254	0.170	-0.159
-176.998	-68.033	-0.167	-0.064
-175.983	-41.742	0.303	-0.154
-174.969	241.967	0.088	-0.146
-173.954	-3.272	0.143	0.099
-172.939	-200.000	0.025	0.337
-171.925	-170.282	0.063	0.002
-170.910	-200.000	0.048	0.271
-169.896	702.699	-0.113	-0.296
-168.881	800.000	0.087	-0.261
-167.866	-116.994	0.194	0.035
-166.852	-200.000	-0.004	0.298
-165.837	-200.000	-0.013	0.502
-164.823	-24.817	0.161	-0.095
-163.808	-200.000	-0.011	-0.081
-162.793	755.692	-0.020	-0.055
-161.779	-35.591	-0.233	0.125
-160.764	800.000	-0.031	0.116
-159.750	360.347	0.172	-0.341
-158.735	-107.506	0.065	-0.014
-157.720	-106.511	-0.211	-0.047
-156.706	184.211	-0.216	0.318
-155.691	-61.254	0.252	0.105
-154.677	-65.469	-0.142	0.056
-153.662	-71.305	-0.171	-0.064
-152.647	139.844	0.163	-0.213
-151.633	-198.879	0.106	0.001
-150.618	-81.211	0.511	0.167
-149.604	138.217	0.207	0.269
-148.589	-63.711	-0.156	0.063
-147.574	357.193	-0.065	-0.129
-146.560	63.652	-0.091	-0.090
-145.545	800.000	0.085	-0.360
-144.531	18.464	0.387	-0.307
-143.516	-177.889	0.351	-0.008
-142.502	85.953	0.321	-0.349
-141.487	-69.732	-0.345	0.130
-140.472	-200.000	0.047	0.465
-139.458	56.048	0.219	0.211
-138.443	-61.945	0.213	0.088
-137.429	-6.965	-0.111	-0.075
-136.414	290.313	-0.288	-0.519
-135.399	-34.961	0.056	-0.030
-134.385	-49.204	0.476	-0.225
-133.370	-122.657	0.123	0.020
-132.356	299.081	0.100	0.182
-131.341	-3.076	0.136	0.094
-130.326	-138.041	-0.423	0.047
-129.312	-2.004	0.048	-0.033
-128.297	800.000	-0.056	-0.193
-127.283	278.220	-0.213	0.375
-126.268	-114.404	0.031	0.006
-125.253	34.383	0.255	0.221
-124.239	-200.000	-0.006	-0.077
-123.224	259.209	-0.148	0.252
-122.210	481.832	-0.072	0.161
-121.195	-53.012	0.045	0.021
-120.180	-200.000	0.002	-0.259
-119.166	328.818	0.120	0.227
-118.151	269.085	0.282	-0.490
-117.137	-200.000	-0.050	-0.455
-116.122	129.300	-0.078	0.099
-115.107	-200.000	-0.008	-0.063
-114.093	-200.000	0.008	0.497
-113.078	800.000	0.014	0.054
-112.064	243.189	0.114	-0.189
-111.049	731.188	0.244	-0.646
-110.034	-200.000	-0.022	-0.111
-109.020	4.249	0.116	-0.084
-108.005	800.000	-0.050	-0.162
-106.991	-71.518	0.290	-0.107
-105.976	-200.000	-0.027	-0.222
-104.962	75.925	0.093	0.097
-103.947	-39.397	-0.276	0.143
-102.932	-136.389	-0.256	0.030
-101.918	11.104	0.121	0.092
-100.903	655.782	-0.076	-0.192
-99.889	-37.404	0.093	0.049
-98.874	-130.377	0.265	0.036
-97.859	-200.000	0.034	0.291
-96.845	-30.024	0.288	0.162
-95.830	-139.753	0.230	0.024
-94.816	380.869	0.102	0.207
-93.801	141.785	-0.139	0.182
-92.786	36.222	-0.078	0.068
-91.772	-200.000	0.023	0.167
-90.757	84.153	0.148	-0.160
-89.743	-200.000	-0.000	0.180
-88.728	-200.000	0.020	0.140
-87.713	-98.326	0.091	-0.023
-86.699	42.317	-0.089	-0.080
-85.684	-40.443	-0.066	-0.034
-84.670	-57.756	0.442	-0.191
-83.655	-70.849	0.145	-0.054
-82.640	45.690	0.064	0.058
-81.626	800.000	0.078	0.315
-80.611	710.260	0.198	0.517
-79.597	-166.118	0.216	-0.009
-78.582	-98.273	0.181	0.046
-77.567	-48.858	0.076	0.036
-76.553	800.000	0.138	0.395
-75.538	-45.659	0.077	-0.037
-74.524	-72.542	-0.345	-0.126
-73.509	-16.198	0.027	0.017
-72.494	-96.016	0.105	-0.028
-71.480	-200.000	0.007	-0.510
-70.465	-83.579	-0.377	0.119
-69.451	167.823	0.134	-0.188
-68.436	500.273	-0.122	0.278
-67.422	174.787	-0.111	0.159
-66.407	288.249	0.168	-0.300
-65.392	-76.533	0.130	-0.045
-64.378	-0.735	0.364	0.255
-63.363	-167.001	-0.037	0.001
-62.349	-11.544	-0.114	0.074
-61.334	-31.722	-0.975	-0.540
-60.319	5.137	0.565	0.411
-59.305	800.000	-0.203	-0.853
-58.290	576.904	0.478	1.153
-57.276	517.083	0.692	1.599
-56.261	-200.000	101.523	611.824
-55.246	618.648	1434.085	3555.978
-54.232	179.069	2659.589	3839.577
-53.217	118.925	2217.837	2705.691
-52.203	44.039	1744.738	1578.678
-51.188	36.469	1556.721	1355.639
-50.173	33.990	1529.285	1314.582
-49.159	53.840	1582.105	1500.069
-48.144	56.894	1600.785	1539.177
-47.130	36.815	1554.449	1355.871
-46.115	33.553	1539.005	1319.686
-45.100	33.282	1535.995	1315.166
-44.086	33.347	1534.281	1314.101
-43.071	33.319	1531.890	1311.806
-42.057	33.126	1530.880	1309.552
-41.042	33.305	1529.219	1309.319
-40.027	33.259	1527.725	1307.668
-39.013	33.356	1525.859	1306.687
-37.998	33.321	1525.099	1305.747
-36.984	33.241	1524.080	1304.269
-35.969	33.389	1522.576	1303.952
-34.954	33.274	1521.463	1302.153
-33.940	33.298	1519.835	1300.871
-32.925	33.322	1518.385	1299.745
-31.911	33.331	1517.360	1298.877
-30.896	33.316	1516.199	1297.727
-29.881	33.501	1514.167	1297.207
-28.867	33.278	1513.084	1294.698
-27.852	33.284	1511.792	1293.582
-26.838	33.289	1510.546	1292.502
-25.823	33.290	1508.721	1290.894
-24.809	33.302	1507.331	1289.737
-23.794	33.307	1505.776	1288.392
-22.779	33.300	1504.762	1287.419
-21.765	33.192	1503.767	1285.787
-20.750	33.407	1502.266	1285.909
-19.736	33.215	1501.527	1283.924
-18.721	33.239	1500.598	1283.244
-17.706	33.251	1498.978	1281.886
-16.692	33.219	1497.843	1280.646
-15.677	33.146	1497.111	1279.477
-14.663	33.219	1496.142	1279.096
-13.648	33.214	1494.923	1277.967
-12.633	33.244	1494.186	1277.488
-11.619	33.290	1493.126	1276.842
-10.604	33.208	1492.661	1275.842
-9.590	33.348	1491.113	1275.410
-8.575	33.296	1490.368	1274.368
-7.560	33.145	1489.958	1272.951
-6.546	33.151	1489.163	1272.263
-5.531	33.086	1488.131	1270.896
-4.517	33.163	1486.739	1270.171
-3.502	33.139	1486.115	1269.428
-2.487	33.290	1484.554	1269.054
-1.473	33.189	1484.185	1268.015
-0.458	33.163	1482.892	1266.684
0.556	31.600	1473.621	1257.939
1.571	29.183	1446.951	1219.094
2.586	25.922	1386.348	1147.218
3.600	24.669	1303.936	1071.415
4.615	23.204	1257.626	1024.797
5.629	19.042	1199.108	953.998
6.644	8.932	1108.990	830.126
7.659	1.306	1066.110	759.893
8.673	0.286	1060.663	750.862
9.688	0.089	1057.964	747.908
10.702	-0.018	1055.883	745.838
11.717	0.014	1054.390	744.877
12.731	3.517	1058.502	765.115
13.746	13.415	1072.746	824.893
14.761	20.322	1081.768	866.355
15.775	21.743	1083.101	874.440
16.790	22.088	1082.051	875.237
17.804	21.874	1081.595	873.720
18.819	21.654	1080.656	871.791
19.834	21.673	1080.341	871.553
20.848	21.834	1079.754	871.803
21.863	21.949	1079.146	871.809
22.877	21.802	1078.988	870.871
23.892	21.770	1078.136	869.949
24.907	21.770	1076.928	868.896
25.921	21.792	1076.798	868.825
26.936	21.669	1075.856	867.379
27.950	21.722	1074.611	866.562
28.965	21.695	1073.502	865.456
29.980	21.523	1072.129	863.422
30.994	21.481	1070.449	861.788
32.009	21.746	1070.043	862.689
33.023	21.898	1069.412	862.850
34.038	21.549	1068.251	860.122
35.053	21.627	1067.223	859.604
36.067	21.838	1066.282	859.804
37.082	21.654	1066.108	858.686
38.096	21.811	1065.114	858.577
39.111	21.937	1064.357	858.507
40.126	22.107	1063.138	858.281
41.140	21.895	1062.400	856.573
42.155	21.787	1060.555	854.484
43.169	21.294	1059.697	851.314
44.184	21.322	1058.582	850.481
45.199	21.532	1057.122	850.251
46.213	21.424	1056.458	849.119
47.228	21.354	1055.082	847.598
48.242	21.446	1054.644	847.615
49.257	21.660	1053.899	847.979
50.271	21.689	1053.106	847.405
51.286	21.847	1051.869	847.101
52.301	21.824	1051.753	846.821
53.315	21.824	1050.772	845.953
54.330	21.829	1050.117	845.376
55.344	21.713	1049.297	844.083
56.359	21.799	1048.150	843.502
57.374	21.829	1047.352	842.929
58.388	21.642	1046.399	841.187
59.403	21.582	1045.850	840.384
60.417	21.539	1045.080	839.485
61.432	21.273	1044.284	837.498
62.447	21.375	1043.521	837.300
63.461	21.503	1042.968	837.392
64.476	21.581	1041.910	836.842
65.490	21.524	1040.803	835.608
66.505	21.398	1039.790	834.120
67.520	21.490	1039.227	834.033
68.534	21.582	1038.628	833.918
69.549	21.383	1037.623	832.086
70.563	21.046	1036.253	829.315
71.578	20.995	1035.166	828.128
72.593	21.114	1034.355	827.970
73.607	21.009	1033.438	826.668
74.622	21.060	1032.365	825.975
75.636	21.243	1031.854	826.362
76.651	21.270	1031.920	826.466
77.666	21.193	1030.435	824.843
78.680	21.176	1029.198	823.699
79.695	21.175	1028.925	823.400
80.709	21.349	1028.071	823.465
81.724	21.525	1026.948	823.323
82.739	21.416	1026.076	822.036
83.753	21.395	1025.150	821.126
84.768	21.573	1024.348	821.244
85.782	21.950	1024.242	822.852
86.797	22.246	1023.431	823.516
87.812	21.976	1023.014	821.843
88.826	21.950	1021.271	820.250
89.841	21.878	1020.759	819.428
90.855	22.025	1019.862	819.322
91.870	21.995	1019.268	818.633
92.884	22.057	1018.034	817.859
93.899	21.907	1017.295	816.494
94.914	21.861	1016.053	815.210
95.928	21.817	1015.660	814.618
96.943	22.028	1014.494	814.590
97.957	21.683	1013.558	812.168
98.972	21.562	1011.943	810.245
99.987	21.274	1010.748	807.885
101.001	21.312	1010.787	808.017
102.016	21.709	1010.382	809.457
103.030	21.687	1009.015	808.188
104.045	21.611	1008.050	806.992
105.060	21.542	1006.384	805.274
106.074	21.346	1005.802	803.832
107.089	21.470	1004.931	803.635
108.103	21.875	1004.583	805.147
109.118	21.863	1003.658	804.278
110.133	21.540	1002.393	801.713
111.147	21.622	1001.229	801.087
112.162	21.476	1000.313	799.616
113.176	21.227	998.949	797.320
114.191	21.414	998.335	797.613
115.206	21.444	997.608	797.096
116.220	21.119	996.467	794.637
117.235	20.992	995.378	793.119
118.249	21.018	995.015	792.875
119.264	21.212	993.965	792.850
120.279	21.110	992.946	791.506
121.293	21.049	992.577	790.867
122.308	21.105	992.070	790.646
123.322	21.221	990.901	790.168
124.337	21.181	989.408	788.728
125.352	21.047	988.135	787.039
126.366	20.675	986.389	783.901
127.381	20.468	985.227	781.976
128.395	20.937	985.009	783.847
129.410	21.514	984.656	786.086
130.424	21.635	984.383	786.342
131.439	21.814	982.653	785.694
132.454	21.652	981.833	784.243
133.468	21.710	981.315	784.019
134.483	21.595	980.312	782.634
135.497	21.536	980.087	782.121
136.512	21.844	979.176	782.701
137.527	21.990	978.636	782.851
138.541	21.958	977.470	781.706
139.556	21.961	976.966	781.249
140.570	21.818	976.097	779.848
141.585	21.831	975.282	779.187
142.600	22.057	974.439	779.448
143.614	21.843	973.128	777.382
144.629	22.001	972.765	777.722
145.643	22.190	972.214	778.049
146.658	22.063	970.750	776.245
147.673	22.005	969.417	774.859
148.687	21.786	968.677	773.231
149.702	21.668	967.826	771.963
150.716	21.535	966.669	770.387
151.731	21.593	965.585	769.709
152.746	21.815	964.579	769.816
153.760	22.005	964.043	770.151
154.775	22.137	963.341	770.101
155.789	22.074	962.824	769.344
156.804	22.059	961.412	768.083
157.819	22.078	960.342	767.241
158.833	21.953	959.910	766.285
159.848	22.082	959.159	766.179
160.862	22.151	958.837	766.154
161.877	21.976	957.468	764.230
162.892	22.126	956.359	763.933
163.906	21.948	956.144	762.918
164.921	22.084	954.541	762.161
165.935	22.124	953.303	761.279
166.950	22.069	952.434	760.281
167.964	22.123	951.480	759.683
168.979	22.024	950.509	758.413
169.994	21.929	949.456	757.099
171.008	21.943	948.052	755.971
172.023	21.899	947.969	755.650
173.037	22.168	946.580	755.630
174.052	21.933	945.618	753.786
175.067	21.683	944.792	751.988
176.081	21.816	943.874	751.761
177.096	21.883	943.188	751.435
178.110	21.956	942.147	750.853
179.125	21.579	941.266	748.471
180.140	21.485	939.983	746.985
181.154	21.421	939.384	746.169
182.169	21.517	939.051	746.250
183.183	21.713	938.543	746.614
184.198	21.951	938.488	747.519
185.213	21.980	937.458	746.755
186.227	21.910	937.126	746.127
187.242	21.966	936.546	745.835
188.256	21.978	936.145	745.504
189.271	22.012	934.559	744.319
190.286	22.110	933.413	743.755
191.300	22.019	932.985	742.963
192.315	21.506	931.417	739.481
193.329	20.812	930.170	735.496
194.344	20.466	929.037	733.076
195.359	20.995	929.550	735.648
196.373	21.761	929.438	738.723
197.388	21.962	929.838	739.820
198.402	21.746	928.750	737.983
199.417	21.782	928.077	737.533
200.432	21.944	927.457	737.654
201.446	21.794	926.612	736.289
202.461	21.514	925.868	734.457
203.475	21.501	925.301	733.890
204.490	21.141	923.758	731.093
205.504	20.066	921.603	724.829
206.519	20.415	922.460	726.896
207.534	21.451	922.168	730.936
208.548	21.538	921.759	730.910
209.563	21.887	921.806	732.340
210.577	21.828	920.724	731.171
211.592	21.655	919.787	729.641
212.607	21.983	919.594	730.787
213.621	22.179	919.079	731.129
214.636	22.194	917.920	730.205
215.650	22.166	918.144	730.201
216.665	22.046	917.005	728.736
217.680	22.086	916.689	728.583
218.694	22.188	915.927	728.338
219.709	21.875	915.149	726.358
220.723	21.547	914.124	724.123
221.738	21.746	913.449	724.346
222.753	21.913	913.180	724.759
223.767	21.894	912.362	723.967
224.782	21.956	911.631	723.579
225.796	22.083	911.247	723.733
226.811	22.108	910.781	723.404
227.826	21.855	909.211	721.051
228.840	21.105	907.685	716.700
229.855	21.035	906.996	715.805
230.869	21.170	906.842	716.171
231.884	20.996	905.685	714.482
232.899	20.975	905.222	713.969
233.913	21.766	905.640	717.473
234.928	21.840	905.132	717.311
235.942	21.797	904.666	716.702
236.957	21.834	904.048	716.302
237.972	21.562	902.701	714.061
238.986	21.420	902.152	712.983
240.001	21.593	901.278	712.935
241.015	21.498	900.945	712.221
242.030	21.676	900.275	712.353
243.045	21.673	899.941	712.015
244.059	21.827	899.199	711.989
245.074	21.999	898.733	712.254
246.088	22.071	897.639	711.615
247.103	21.586	896.789	708.917
248.117	21.647	896.407	708.798
249.132	22.232	896.364	711.069
250.147	22.547	896.228	712.172
251.161	22.600	895.540	711.772
252.176	22.695	895.033	711.692
253.190	22.624	894.480	710.903
254.205	22.677	894.002	710.675
255.220	22.954	893.416	711.262
256.234	22.905	892.842	710.542
257.249	22.820	891.904	709.391
258.263	22.736	891.679	708.813
259.278	22.685	890.962	707.975
260.293	22.837	890.648	708.274
261.307	22.892	889.989	707.906
262.322	22.707	889.015	706.328
263.336	22.707	888.268	705.675
264.351	22.174	887.182	702.619
265.366	21.119	884.830	696.486
266.380	20.726	883.990	694.196
267.395	21.547	884.582	697.873
268.409	22.404	884.872	701.455
269.424	22.115	884.428	699.892
270.439	22.436	883.796	700.606
271.453	22.543	882.737	700.130
272.468	22.523	882.130	699.507
273.482	22.868	881.877	700.614
274.497	22.964	881.201	700.397
275.512	22.809	880.317	699.017
276.526	22.091	878.880	694.974
277.541	22.383	878.656	695.893
278.555	22.665	878.278	696.645
279.570	22.547	877.645	695.615
280.585	22.224	877.080	693.832
281.599	22.426	876.143	693.826
282.614	22.523	876.067	694.085
283.628	22.087	874.523	691.088
284.643	21.590	874.217	688.827
285.657	22.068	874.003	690.480
286.672	22.030	873.234	689.662
287.687	21.576	871.974	686.822
288.701	21.831	872.078	687.844
289.716	22.369	871.535	689.463
290.730	21.976	870.673	687.181
291.745	21.882	869.816	686.078
292.760	21.822	869.021	685.154
293.774	21.546	868.612	683.694
294.789	22.483	868.889	687.510
295.803	23.036	869.116	689.790
296.818	23.257	868.494	690.096
297.833	23.291	867.775	689.594
298.847	22.836	867.006	687.154
299.862	22.670	865.784	685.478
300.876	22.839	865.410	685.777
301.891	23.117	865.259	686.676
302.906	23.101	864.670	686.086
303.920	22.693	863.165	683.250
304.935	22.507	862.620	682.041
305.949	22.778	862.790	683.162
306.964	22.986	862.110	683.369
307.979	22.860	861.214	682.111
308.993	22.729	860.645	681.094
310.008	23.100	860.775	682.571
311.022	23.210	859.921	682.254
312.037	23.062	859.518	681.305
313.052	23.016	858.392	680.177
314.066	22.792	857.677	678.688
315.081	22.172	856.607	675.401
316.095	21.395	855.293	671.323
317.110	21.998	855.188	673.493
318.125	22.807	855.610	676.870
319.139	22.341	854.743	674.339
320.154	21.328	852.743	668.824
321.168	20.966	851.446	666.369
322.183	21.471	852.070	668.725
323.197	22.292	852.614	672.235
324.212	22.626	852.035	672.995
325.227	22.788	851.923	673.461
326.241	23.021	851.390	673.869
327.256	22.881	850.723	672.750
328.270	22.792	849.881	671.686
329.285	22.572	849.534	670.516
330.300	22.603	848.492	669.750
331.314	22.273	847.541	667.687
332.329	22.330	847.626	667.913
333.343	22.790	846.923	669.045
334.358	22.872	846.606	669.046
335.373	22.869	846.263	668.704
336.387	23.134	845.532	669.067
337.402	23.161	845.620	669.180
338.416	23.459	845.036	669.786
339.431	23.459	843.973	668.885
340.446	23.397	843.714	668.386
341.460	23.677	843.147	668.934
342.475	23.499	842.813	667.939
343.489	23.392	841.872	666.730
344.504	23.263	841.604	665.975
345.519	23.503	841.028	666.362
346.533	23.817	840.668	667.196
347.548	23.781	840.373	666.766
348.562	23.979	839.441	666.711
349.577	24.015	839.054	666.481
350.592	23.827	838.675	665.417
351.606	23.704	838.202	664.521
352.621	23.736	837.715	664.197
353.635	23.601	837.239	663.256
354.650	23.537	836.634	662.479
355.665	23.184	835.944	660.556
356.679	22.234	834.098	655.501
357.694	21.888	833.579	653.744
358.708	22.833	833.118	656.844
359.723	22.546	832.960	655.594
360.738	22.941	832.623	656.738
361.752	23.455	832.264	658.305
362.767	23.513	831.914	658.186
363.781	23.692	831.683	658.608
364.796	24.135	831.229	659.833
365.810	24.046	831.248	659.461
366.825	24.123	830.877	659.391
367.840	24.210	830.397	659.275
368.854	24.064	829.717	658.138
369.869	23.442	829.140	655.323
370.883	23.485	828.069	654.576
371.898	23.654	827.700	654.851
372.913	23.410	826.749	653.141
373.927	23.328	826.313	652.437
374.942	23.637	825.622	652.970
375.956	23.651	825.406	652.793
376.971	23.764	824.883	652.737
377.986	23.941	824.322	652.884
379.000	24.068	824.092	653.110
380.015	24.074	823.519	652.622
381.029	23.877	823.013	651.441
382.044	23.836	822.124	650.529
383.059	24.055	821.746	650.973
384.073	23.970	821.394	650.328
385.088	24.051	821.001	650.256
386.102	24.032	820.134	649.439
387.117	23.877	819.511	648.325
388.132	23.797	818.904	647.494
389.146	23.560	818.535	646.283
390.161	23.222	817.155	643.906
391.175	23.160	816.890	643.416
392.190	23.560	817.332	645.160
393.205	23.716	816.391	644.927
394.219	22.795	814.624	640.138
395.234	21.345	812.498	633.162
396.248	20.434	811.495	629.027
397.263	21.458	812.662	633.585
398.278	23.413	813.769	641.476
399.292	23.864	813.409	642.767
400.307	23.461	812.679	640.678
401.321	23.457	812.323	640.325
402.336	23.372	812.408	640.028
403.350	23.826	811.849	641.171
404.365	24.376	811.522	642.839
405.380	24.359	811.762	642.910
406.394	24.668	811.413	643.690
407.409	24.852	811.154	644.087
408.423	24.765	810.351	643.082
409.438	24.713	809.637	642.271
410.453	24.851	808.959	642.171
411.467	24.843	809.107	642.203
412.482	24.706	808.437	641.123
413.496	24.641	807.779	640.312
414.511	24.742	807.724	640.572
415.526	24.784	807.144	640.207
416.540	24.721	807.093	639.887
417.555	24.817	805.996	639.301
418.569	24.321	805.617	637.171
419.584	24.314	805.123	636.699
420.599	24.636	804.147	637.021
421.613	154.313	1364.891	1792.337
422.628	133.970	1446.604	1792.429
