DTS Sentinel unit serial number:	SN413079Multiplexer serial number:	ORYXHardware model number:	OX4-SRSoftware version number:	ORYX F/W v4.00 Oryx Data Collector v3.7.2.0data status	okinstallation	princeton_trtdifferential loss correction	single-endedforward channel	channel 3reverse channel	N/Adate	2019/09/12time	23:20:35forward acquisition time	60.00reverse acquisition time	0.00gamma	496.2192k internal	0.2328k external	0.2328temperature offset calibration	1.0127default loss term (dB/km)	0.3790temperature slope calibration	1.0000multiplexer offset coefficient	1.0000multiplexer slope coefficient	1.0000fibre end	0.00T internal ref (°C)	29.08T ext. ref 1 (°C)	3.75T ext. ref 2 (°C)	23.69length (m)	temperature (°C)	Stokes	anti-Stokes-747.200	-113.732	-0.235	-0.046
-746.185	561.228	-0.128	0.312
-745.171	285.646	0.075	-0.136
-744.156	167.915	-0.295	0.423
-743.142	800.000	0.008	0.022
-742.127	800.000	0.042	-0.134
-741.112	256.675	0.063	-0.110
-740.098	73.106	-0.098	0.103
-739.083	-56.811	-0.210	0.094
-738.069	800.000	-0.157	0.506
-737.054	-135.808	0.064	-0.008
-736.039	739.698	0.165	-0.445
-735.025	5.951	0.089	0.066
-734.010	-126.997	-0.377	0.056
-732.996	561.748	0.150	-0.366
-731.981	211.306	-0.124	-0.197
-730.966	-116.892	-0.390	0.072
-729.952	60.235	0.098	0.098
-728.937	35.230	-0.154	-0.136
-727.923	-200.000	-0.002	-0.311
-726.908	-45.915	-0.306	0.152
-725.894	-65.527	0.091	0.037
-724.879	490.654	0.093	-0.214
-723.864	-164.369	-0.365	-0.017
-722.850	128.437	0.148	0.190
-721.835	-200.000	0.035	-0.460
-720.821	78.505	-0.121	-0.130
-719.806	-81.506	-0.158	-0.052
-718.791	130.815	0.061	-0.079
-717.777	383.562	0.149	0.309
-716.762	-200.000	0.038	-0.184
-715.748	-41.275	-0.317	-0.165
-714.733	-200.000	-0.009	0.132
-713.718	136.714	-0.124	-0.163
-712.704	-200.000	0.034	-0.450
-711.689	-27.508	0.091	0.053
-710.675	800.000	-0.110	0.315
-709.660	-128.429	0.082	-0.012
-708.645	-200.000	-0.044	-0.268
-707.631	-200.000	0.067	0.392
-706.616	-8.887	-0.392	0.264
-705.602	-200.000	0.054	-0.277
-704.587	-200.000	-0.018	0.219
-703.572	337.920	-0.042	-0.082
-702.558	-200.000	0.027	-0.183
-701.543	800.000	-0.084	0.247
-700.529	-196.117	0.242	-0.002
-699.514	-181.125	-0.239	-0.005
-698.499	482.060	0.126	-0.288
-697.485	55.327	0.157	0.153
-696.470	-200.000	0.014	0.217
-695.456	800.000	-0.002	-0.008
-694.441	550.350	0.098	-0.236
-693.426	-112.986	0.148	0.029
-692.412	800.000	-0.055	0.225
-691.397	232.174	-0.193	0.319
-690.383	43.468	-0.189	0.174
-689.368	-200.000	0.008	0.362
-688.354	-42.313	0.203	-0.104
-687.339	235.917	-0.227	-0.378
-686.324	-200.000	-0.002	0.255
-685.310	-163.991	-0.187	0.009
-684.295	-167.422	-0.410	-0.017
-683.281	-114.076	0.439	0.085
-682.266	-142.091	-0.158	-0.016
-681.251	-67.382	0.286	-0.113
-680.237	15.210	0.014	0.011
-679.222	-76.702	-0.286	0.101
-678.208	23.544	0.212	0.175
-677.193	228.550	0.129	0.212
-676.178	54.942	-0.237	0.230
-675.164	396.284	-0.198	-0.414
-674.149	-146.953	-0.298	-0.026
-673.135	-88.931	-0.512	0.152
-672.120	126.518	-0.204	0.259
-671.105	-11.427	-0.033	-0.022
-670.091	760.656	-0.102	-0.278
-669.076	800.000	0.093	0.344
-668.062	-156.236	0.229	-0.014
-667.047	-73.572	-0.182	-0.067
-666.032	-87.477	-0.071	-0.022
-665.018	94.643	0.112	0.128
-664.003	12.432	0.378	0.293
-662.989	129.496	-0.120	0.155
-661.974	-48.765	-0.065	0.031
-660.959	-200.000	0.009	-0.099
-659.945	260.614	-0.068	-0.119
-658.930	84.185	-0.104	-0.114
-657.916	24.367	0.050	0.041
-656.901	-64.181	-0.062	-0.026
-655.886	284.162	-0.139	0.252
-654.872	-104.719	-0.262	0.061
-653.857	-103.134	-0.137	0.032
-652.843	-200.000	0.019	-0.165
-651.828	-200.000	0.039	0.296
-650.814	-80.604	0.480	-0.160
-649.799	136.825	-0.095	0.124
-648.784	-200.000	0.001	0.044
-647.770	-77.603	0.193	0.067
-646.755	101.232	0.128	0.150
-645.741	124.437	-0.076	0.096
-644.726	800.000	0.071	0.286
-643.711	-103.961	-0.151	0.035
-642.697	-148.048	-0.235	0.020
-641.682	76.598	0.037	0.040
-640.668	-108.721	0.087	0.019
-639.653	442.246	0.102	-0.224
-638.638	111.928	0.183	-0.221
-637.624	-51.201	0.135	0.063
-636.609	236.784	-0.183	-0.304
-635.595	-138.869	0.183	-0.020
-634.580	552.899	-0.056	-0.135
-633.565	800.000	-0.067	0.261
-632.551	252.896	0.190	-0.325
-631.536	-30.160	0.365	-0.208
-630.522	763.645	0.123	0.334
-629.507	545.462	-0.035	-0.084
-628.492	800.000	0.014	0.046
-627.478	-51.175	-0.056	-0.026
-626.463	-22.058	0.120	0.073
-625.449	-70.823	0.465	0.176
-624.434	60.059	0.179	0.177
-623.419	128.928	-0.230	0.294
-622.405	95.973	0.136	-0.156
-621.390	-124.035	-0.059	0.009
-620.376	-200.000	-0.010	-0.132
-619.361	-200.000	0.004	-0.087
-618.346	-200.000	0.020	-0.169
-617.332	-186.215	0.045	-0.001
-616.317	41.080	0.273	0.247
-615.303	262.293	-0.012	0.022
-614.288	-108.156	0.097	-0.021
-613.273	-96.932	-0.515	-0.135
-612.259	-200.000	0.049	0.222
-611.244	58.203	0.126	-0.124
-610.230	-72.804	-0.309	-0.114
-609.215	135.088	0.197	-0.257
-608.201	-28.513	-0.199	0.115
-607.186	23.354	-0.141	0.116
-606.171	800.000	-0.077	0.259
-605.157	-23.585	0.246	0.148
-604.142	106.128	-0.142	-0.168
-603.128	48.071	0.373	0.350
-602.113	20.775	0.236	0.192
-601.098	-86.153	-0.297	-0.092
-600.084	-143.185	-0.290	-0.028
-599.069	-200.000	0.025	0.363
-598.055	800.000	0.044	-0.168
-597.040	-200.000	0.006	0.028
-596.025	-200.000	-0.033	-0.204
-595.011	70.799	-0.266	-0.276
-593.996	13.718	0.071	0.055
-592.982	-200.000	0.002	-0.064
-591.967	167.696	0.258	-0.367
-590.952	628.244	-0.114	-0.288
-589.938	44.357	0.165	0.152
-588.923	-63.114	0.345	0.143
-587.909	-127.272	-0.236	0.035
-586.894	13.617	-0.164	0.127
-585.879	21.101	0.277	-0.225
-584.865	-93.073	0.254	0.071
-583.850	-15.147	-0.360	-0.231
-582.836	99.220	0.045	0.053
-581.821	-47.808	-0.116	0.056
-580.806	-200.000	-0.020	0.116
-579.792	-200.000	-0.008	-0.124
-578.777	-113.202	0.143	0.028
-577.763	-200.000	-0.007	0.090
-576.748	179.578	0.172	-0.252
-575.733	-27.994	0.091	-0.053
-574.719	347.731	0.194	-0.384
-573.704	-44.148	0.321	-0.161
-572.690	-67.746	-0.461	-0.181
-571.675	-52.334	0.073	0.034
-570.661	63.883	0.104	0.105
-569.646	-111.603	-0.055	0.011
-568.631	-200.000	0.047	0.355
-567.617	292.548	0.015	-0.028
-566.602	-186.280	-0.128	0.002
-565.588	800.000	-0.022	-0.067
-564.573	530.477	-0.033	-0.077
-563.558	-200.000	0.049	-0.288
-562.544	-94.417	-0.210	-0.057
-561.529	-85.551	0.308	-0.096
-560.515	592.909	-0.136	-0.335
-559.500	217.067	0.162	-0.259
-558.485	800.000	0.067	-0.209
-557.471	800.000	0.058	0.164
-556.456	-24.039	0.082	-0.049
-555.442	190.113	-0.152	0.228
-554.427	-23.568	0.119	0.071
-553.412	98.281	-0.021	-0.024
-552.398	-200.000	0.026	0.213
-551.383	-200.000	-0.002	-0.094
-550.369	71.266	0.048	0.050
-549.354	3.139	0.143	-0.104
-548.339	800.000	0.034	-0.095
-547.325	-110.969	-0.224	-0.046
-546.310	56.028	0.159	-0.155
-545.296	-12.285	-0.211	-0.138
-544.281	-71.655	-0.453	0.169
-543.266	-88.047	0.513	-0.154
-542.252	-200.000	-0.042	0.210
-541.237	-115.652	-0.184	0.035
-540.223	180.734	0.206	0.302
-539.208	800.000	0.102	0.424
-538.193	800.000	-0.082	-0.238
-537.179	388.037	-0.105	-0.217
-536.164	-138.032	0.427	-0.048
-535.150	-59.407	-0.312	-0.134
-534.135	-124.676	-0.098	-0.015
-533.121	61.883	0.299	0.298
-532.106	-34.123	-0.099	0.054
-531.091	12.887	-0.136	0.105
-530.077	-133.484	-0.117	0.015
-529.062	219.713	-0.116	0.186
-528.048	599.146	-0.141	0.351
-527.033	-200.000	-0.019	0.250
-526.018	-125.581	0.113	-0.017
-525.004	-200.000	0.027	0.354
-523.989	235.323	-0.245	-0.404
-522.975	-63.016	0.115	0.047
-521.960	-129.750	-0.091	0.013
-520.945	57.528	-0.248	0.242
-519.931	-177.564	-0.265	-0.006
-518.916	22.154	0.163	0.133
-517.902	326.362	-0.231	-0.442
-516.887	226.101	0.117	-0.189
-515.872	260.850	-0.148	-0.255
-514.858	-95.010	0.116	0.031
-513.843	-39.023	0.220	-0.116
-512.829	80.776	-0.036	-0.039
-511.814	67.982	0.084	0.086
-510.799	125.447	0.136	0.172
-509.785	800.000	-0.026	0.076
-508.770	-25.278	-0.281	-0.166
-507.756	37.553	-0.284	0.251
-506.741	-61.699	-0.219	-0.092
-505.726	170.547	0.270	-0.386
-504.712	-68.694	0.055	-0.021
-503.697	-200.000	-0.014	-0.145
-502.683	446.023	0.076	0.166
-501.668	-200.000	0.019	0.117
-500.653	-97.119	0.276	0.072
-499.639	-134.335	-0.026	0.003
-498.624	-52.214	-0.188	0.087
-497.610	406.155	0.102	0.214
-496.595	800.000	-0.004	-0.013
-495.581	184.785	0.152	0.225
-494.566	225.522	0.168	0.271
-493.551	-159.866	0.183	-0.010
-492.537	800.000	-0.056	-0.164
-491.522	-82.517	0.211	-0.068
-490.508	-4.132	-0.135	0.093
-489.493	665.036	0.129	-0.333
-488.478	-200.000	0.006	0.130
-487.464	-24.213	-0.382	0.227
-486.449	-200.000	-0.034	-0.174
-485.435	-28.354	0.106	0.061
-484.420	-78.306	0.079	-0.027
-483.405	-20.533	-0.206	-0.127
-482.391	-154.603	-0.043	-0.003
-481.376	138.787	-0.136	-0.178
-480.362	-143.531	0.358	-0.034
-479.347	-5.060	-0.278	-0.191
-478.332	323.347	0.062	0.118
-477.318	-84.647	-0.083	0.026
-476.303	28.502	0.183	-0.154
-475.289	-41.134	0.160	0.082
-474.274	-105.876	0.132	-0.030
-473.259	39.891	-0.190	0.170
-472.245	-135.915	0.112	0.013
-471.230	144.939	-0.041	0.055
-470.216	-39.111	-0.352	0.184
-469.201	526.133	0.171	0.403
-468.186	800.000	-0.037	0.125
-467.172	-118.999	-0.088	0.015
-466.157	-138.698	0.078	-0.008
-465.143	-200.000	0.006	0.187
-464.128	-200.000	-0.034	0.151
-463.113	-9.077	-0.192	0.128
-462.099	-93.015	0.207	-0.058
-461.084	62.594	-0.310	-0.309
-460.070	11.766	-0.044	-0.034
-459.055	-200.000	0.056	0.274
-458.040	-115.318	0.167	-0.031
-457.026	138.454	-0.128	-0.168
-456.011	-113.912	-0.034	-0.007
-454.997	9.862	-0.140	0.106
-453.982	800.000	0.008	-0.025
-452.968	-169.579	-0.223	-0.008
-451.953	800.000	-0.072	-0.294
-450.938	-76.055	-0.222	-0.078
-449.924	-43.716	-0.180	0.091
-448.909	-105.150	-0.087	0.020
-447.895	271.086	0.079	-0.138
-446.880	-136.581	0.201	0.023
-445.865	-200.000	0.005	0.084
-444.851	147.641	-0.160	0.214
-443.836	-28.437	0.281	-0.162
-442.822	-34.561	0.050	-0.027
-441.807	-6.754	-0.188	0.127
-440.792	-102.553	-0.521	0.124
-439.778	-88.382	-0.044	-0.013
-438.763	-154.207	-0.339	0.023
-437.749	-163.894	-0.280	0.013
-436.734	-200.000	-0.026	0.180
-435.719	-153.478	0.087	-0.006
-434.705	800.000	-0.044	0.125
-433.690	-112.973	0.198	0.039
-432.676	303.528	-0.070	0.129
-431.661	-94.565	-0.130	0.035
-430.646	800.000	-0.020	0.068
-429.632	-113.108	-0.302	0.059
-428.617	-109.305	-0.355	-0.075
-427.603	-22.100	0.385	-0.232
-426.588	593.940	0.140	-0.346
-425.573	87.330	0.280	0.309
-424.559	-8.228	0.267	0.179
-423.544	-200.000	0.015	-0.162
-422.530	-126.778	0.281	0.041
-421.515	-82.742	-0.140	0.045
-420.500	-46.874	-0.152	-0.074
-419.486	-200.000	-0.000	0.074
-418.471	461.129	0.078	0.174
-417.457	-56.961	-0.042	-0.018
-416.442	233.987	-0.146	0.239
-415.428	-29.390	0.227	-0.129
-414.413	800.000	0.024	-0.084
-413.398	-200.000	-0.093	-0.440
-412.384	580.656	-0.124	-0.302
-411.369	-9.261	-0.108	0.072
-410.355	-169.803	0.139	0.005
-409.340	-20.414	-0.047	0.029
-408.325	800.000	0.075	0.211
-407.311	18.177	-0.136	0.108
-406.296	-170.266	-0.227	0.008
-405.282	219.159	-0.245	-0.389
-404.267	-105.567	-0.096	0.022
-403.252	-99.107	0.143	-0.036
-402.238	338.084	-0.168	0.324
-401.223	-200.000	-0.003	0.324
-400.209	-131.470	0.163	0.021
-399.194	-200.000	-0.057	0.272
-398.179	800.000	-0.136	-0.374
-397.165	-44.099	-0.187	0.093
-396.150	800.000	0.089	0.289
-395.136	58.747	0.165	-0.162
-394.121	365.450	-0.132	0.264
-393.106	-200.000	-0.004	0.289
-392.092	-200.000	-0.026	-0.180
-391.077	81.545	0.093	-0.100
-390.063	-39.755	-0.169	0.088
-389.048	-97.360	-0.422	-0.109
-388.033	800.000	-0.023	0.069
-387.019	-66.023	-0.055	-0.022
-386.004	-81.527	-0.099	0.032
-384.990	543.202	-0.122	0.290
-383.975	104.587	-0.056	0.065
-382.960	800.000	-0.082	0.306
-381.946	-161.217	0.246	0.013
-380.931	800.000	-0.073	0.220
-379.917	800.000	0.130	0.457
-378.902	-46.887	-0.358	0.174
-377.888	-135.000	-0.100	0.012
-376.873	124.798	0.067	0.083
-375.858	-200.000	-0.033	0.300
-374.844	-33.024	0.282	-0.155
-373.829	-50.851	0.308	-0.144
-372.815	-155.067	-0.257	0.017
-371.800	-200.000	-0.050	0.318
-370.785	83.818	0.159	0.172
-369.771	50.942	0.279	0.263
-368.756	94.198	-0.308	-0.347
-367.742	-200.000	0.005	-0.174
-366.727	800.000	0.074	-0.212
-365.712	221.634	0.222	-0.353
-364.698	-101.882	-0.315	0.076
-363.683	-200.000	-0.007	0.232
-362.669	332.003	0.191	-0.366
-361.654	232.459	0.179	0.292
-360.639	-53.424	0.198	-0.090
-359.625	-200.000	-0.023	0.126
-358.610	151.200	0.149	-0.202
-357.596	-200.000	0.029	-0.194
-356.581	-19.929	0.146	0.089
-355.566	408.290	-0.033	0.069
-354.552	334.947	-0.232	0.447
-353.537	251.675	-0.077	0.130
-352.523	-64.037	0.094	-0.038
-351.508	-121.360	-0.076	-0.013
-350.493	-157.697	0.223	0.013
-349.479	287.769	0.090	0.161
-348.464	-200.000	0.026	0.247
-347.450	-200.000	-0.065	-0.307
-346.435	27.897	-0.033	0.028
-345.420	-200.000	0.053	-0.448
-344.406	-200.000	-0.004	0.088
-343.391	518.562	0.071	0.166
-342.377	170.127	-0.098	-0.139
-341.362	800.000	0.075	0.316
-340.348	-200.000	-0.011	0.188
-339.333	-51.753	-0.148	0.068
-338.318	-46.401	-0.238	0.116
-337.304	95.704	-0.250	-0.283
-336.289	151.309	0.043	-0.058
-335.275	-121.644	-0.290	-0.048
-334.260	177.848	-0.307	0.444
-333.245	800.000	-0.090	-0.288
-332.231	-72.865	0.265	-0.097
-331.216	214.715	-0.023	-0.036
-330.202	-200.000	0.036	0.344
-329.187	78.782	-0.181	0.192
-328.172	-38.011	0.255	0.134
-327.158	314.983	0.165	-0.308
-326.143	-25.635	-0.195	0.114
-325.129	800.000	0.086	0.347
-324.114	-77.016	0.121	0.042
-323.099	-102.444	-0.457	-0.108
-322.085	84.878	-0.156	-0.170
-321.070	250.077	-0.082	-0.138
-320.056	-6.039	0.193	0.131
-319.041	585.269	-0.035	-0.086
-318.026	-23.583	-0.229	-0.136
-317.012	-76.616	0.277	0.096
-315.997	-31.348	-0.231	-0.129
-314.983	-200.000	0.067	0.387
-313.968	-29.712	0.188	0.107
-312.953	45.512	0.338	0.309
-311.939	63.274	0.198	-0.197
-310.924	98.117	0.146	-0.166
-309.910	231.921	0.186	-0.302
-308.895	651.720	0.057	-0.144
-307.880	-200.000	0.009	-0.066
-306.866	-24.325	0.121	-0.072
-305.851	800.000	-0.036	0.146
-304.837	-31.392	-0.032	0.018
-303.822	-200.000	0.031	-0.244
-302.807	32.213	-0.240	0.205
-301.793	660.456	-0.072	0.184
-300.778	800.000	-0.076	-0.211
-299.764	52.415	-0.112	-0.106
-298.749	-200.000	0.011	-0.195
-297.735	-59.672	0.376	-0.160
-296.720	-200.000	-0.006	-0.053
-295.705	94.897	-0.161	-0.182
-294.691	-167.309	0.124	-0.005
-293.676	-138.081	-0.277	0.031
-292.662	-8.538	-0.156	-0.104
-291.647	-104.815	-0.023	0.005
-290.632	226.790	0.028	0.044
-289.618	800.000	-0.034	0.146
-288.603	71.482	0.113	0.116
-287.589	-102.609	-0.195	-0.046
-286.574	57.763	0.125	-0.121
-285.559	-71.679	-0.259	-0.096
-284.545	-32.464	-0.106	-0.059
-283.530	-20.882	-0.370	0.224
-282.516	39.119	-0.138	0.123
-281.501	194.028	0.189	-0.283
-280.486	105.948	0.311	-0.364
-279.472	-35.079	0.159	-0.086
-278.457	102.176	0.144	-0.166
-277.443	-111.564	-0.072	-0.014
-276.428	-77.197	0.226	0.078
-275.413	59.969	0.184	-0.180
-274.399	-200.000	-0.025	0.234
-273.384	80.557	-0.095	0.101
-272.370	170.810	-0.137	0.194
-271.355	404.298	-0.109	0.227
-270.340	-160.523	-0.150	-0.008
-269.326	239.970	-0.129	0.213
-268.311	-84.640	0.365	-0.114
-267.297	-142.463	-0.195	0.019
-266.282	-46.093	0.205	-0.100
-265.267	112.442	0.109	-0.130
-264.253	334.040	0.122	-0.234
-263.238	-110.642	-0.350	0.072
-262.224	-200.000	-0.042	0.419
-261.209	-200.000	-0.041	0.219
-260.195	-130.189	-0.247	-0.033
-259.180	-25.103	0.136	0.080
-258.165	225.343	0.082	-0.132
-257.151	-63.453	-0.168	0.068
-256.136	-120.388	-0.158	-0.027
-255.122	35.803	0.129	0.112
-254.107	31.707	-0.175	-0.149
-253.092	25.011	-0.307	-0.252
-252.078	-3.405	0.129	0.089
-251.063	-64.806	0.134	-0.053
-250.049	43.410	-0.147	0.133
-249.034	-200.000	0.046	-0.218
-248.019	800.000	0.038	0.109
-247.005	-86.728	-0.243	-0.073
-245.990	-200.000	-0.040	-0.209
-244.976	-78.864	0.028	0.009
-243.961	-200.000	0.013	0.383
-242.946	-195.717	0.140	0.001
-241.932	648.253	0.065	-0.164
-240.917	800.000	-0.016	-0.050
-239.903	470.245	0.109	0.242
-238.888	-0.976	-0.259	-0.181
-237.873	-151.048	-0.111	0.008
-236.859	132.192	0.047	-0.060
-235.844	-66.713	0.257	-0.101
-234.830	265.152	-0.142	0.244
-233.815	-153.902	0.219	-0.015
-232.800	-88.198	0.181	0.054
-231.786	21.031	0.266	-0.213
-230.771	-153.765	-0.108	-0.007
-229.757	-99.332	-0.201	-0.050
-228.742	-39.895	0.196	0.101
-227.727	-57.210	0.332	-0.144
-226.713	119.785	-0.174	0.213
-225.698	-114.639	0.474	0.090
-224.684	-200.000	0.065	-0.323
-223.669	67.921	0.272	-0.275
-222.655	499.699	0.051	-0.116
-221.640	404.158	-0.060	0.125
-220.625	-200.000	0.022	0.107
-219.611	461.985	-0.159	0.351
-218.596	198.517	0.152	0.229
-217.582	206.585	0.083	0.128
-216.567	-69.919	0.654	0.246
-215.552	311.176	-0.087	0.161
-214.538	-129.994	0.217	-0.029
-213.523	-157.811	0.232	-0.014
-212.509	-34.067	-0.182	-0.099
-211.494	-200.000	-0.016	-0.217
-210.479	-52.177	-0.095	0.044
-209.465	-158.268	0.282	-0.016
-208.450	49.945	-0.168	-0.157
-207.436	25.693	0.299	0.245
-206.421	-200.000	0.025	-0.108
-205.406	-68.723	-0.367	-0.140
-204.392	-159.532	0.076	-0.004
-203.377	256.179	0.020	-0.035
-202.363	70.560	0.116	-0.118
-201.348	-200.000	0.008	-0.133
-200.333	782.807	-0.102	-0.275
-199.319	-93.406	-0.483	-0.132
-198.304	626.690	-0.089	0.221
-197.290	-66.466	-0.201	-0.079
-196.275	-76.417	-0.067	0.023
-195.260	-74.124	-0.135	0.048
-194.246	218.949	-0.130	-0.206
-193.231	-174.077	0.331	-0.010
-192.217	-200.000	0.014	-0.151
-191.202	-59.386	0.219	-0.093
-190.187	-126.769	0.261	-0.038
-189.173	0.052	-0.167	0.117
-188.158	-200.000	0.008	0.120
-187.144	-33.463	0.110	-0.060
-186.129	800.000	-0.013	0.047
-185.114	-12.456	0.130	0.084
-184.100	-169.512	0.158	-0.006
-183.085	399.681	0.105	-0.218
-182.071	5.117	0.113	0.082
-181.056	45.598	0.156	0.142
-180.042	800.000	-0.114	-0.323
-179.027	-200.000	-0.058	-0.304
-178.012	-121.619	-0.548	-0.090
-176.998	122.279	0.150	-0.184
-175.983	136.100	-0.128	-0.164
-174.969	800.000	0.076	-0.227
-173.954	-200.000	0.286	0.001
-172.939	800.000	0.058	0.229
-171.925	38.483	0.248	-0.218
-170.910	162.188	0.087	-0.121
-169.896	-117.923	0.270	0.048
-168.881	492.885	-0.228	-0.515
-167.866	58.937	-0.259	-0.251
-166.852	-77.584	-0.048	-0.016
-165.837	383.335	-0.145	0.293
-164.823	-78.220	-0.114	0.039
-163.808	-20.234	-0.055	0.034
-162.793	57.361	-0.059	-0.057
-161.779	-200.000	0.003	-0.097
-160.764	31.395	-0.113	-0.096
-159.750	31.787	0.107	-0.091
-158.735	-91.282	0.140	-0.040
-157.720	20.901	-0.167	0.133
-156.706	687.461	0.195	-0.503
-155.691	-40.855	0.272	-0.138
-154.677	-200.000	-0.002	-0.022
-153.662	64.778	0.059	0.059
-152.647	79.829	-0.208	-0.220
-151.633	-80.940	-0.063	-0.021
-150.618	-134.872	-0.312	-0.037
-149.604	-72.617	-0.483	-0.175
-148.589	54.797	-0.134	0.127
-147.574	113.467	0.080	0.096
-146.560	-200.000	-0.017	-0.125
-145.545	-200.000	-0.017	0.105
-144.531	37.084	-0.253	0.220
-143.516	-200.000	0.000	-0.279
-142.502	52.764	0.077	-0.073
-141.487	16.389	-0.173	0.134
-140.472	-200.000	-0.022	-0.186
-139.458	40.090	0.218	0.193
-138.443	-5.220	0.428	0.289
-137.429	66.350	0.318	0.317
-136.414	-200.000	-0.010	-0.096
-135.399	83.827	0.022	-0.024
-134.385	44.212	-0.121	0.109
-133.370	107.943	-0.135	0.158
-132.356	-29.734	0.326	-0.183
-131.341	-123.804	0.385	-0.060
-130.326	-200.000	0.002	0.234
-129.312	-143.403	-0.056	-0.005
-128.297	-38.670	0.153	0.079
-127.283	309.373	-0.135	-0.249
-126.268	-165.933	0.136	-0.006
-125.253	-181.126	0.233	0.005
-124.239	-101.823	-0.479	-0.114
-123.224	800.000	0.033	0.099
-122.210	102.847	-0.097	0.112
-121.195	-104.603	-0.181	-0.041
-120.180	800.000	0.058	0.166
-119.166	-54.435	0.206	0.092
-118.151	-14.858	-0.101	-0.064
-117.137	-200.000	-0.018	-0.463
-116.122	-62.282	-0.318	0.130
-115.107	39.808	-0.198	0.175
-114.093	576.403	0.154	0.369
-113.078	181.050	-0.092	-0.133
-112.064	-200.000	-0.006	0.065
-111.049	-21.083	0.132	0.079
-110.034	-200.000	0.002	0.049
-109.020	486.043	-0.047	-0.105
-108.005	-38.130	0.155	0.081
-106.991	122.596	0.111	0.137
-105.976	-56.686	-0.135	-0.059
-104.962	-114.042	0.238	-0.045
-103.947	-200.000	-0.021	0.374
-102.932	195.041	-0.061	-0.091
-101.918	85.780	0.024	-0.026
-100.903	-103.604	0.258	-0.059
-99.889	-73.079	0.210	-0.076
-98.874	88.998	-0.117	0.128
-97.859	-200.000	0.005	0.050
-96.845	121.051	-0.032	-0.039
-95.830	13.480	0.330	-0.252
-94.816	-8.666	0.094	-0.062
-93.801	-40.865	0.299	-0.152
-92.786	37.970	-0.034	0.030
-91.772	191.601	0.084	-0.125
-90.757	-126.036	0.265	0.039
-89.743	575.726	-0.044	-0.105
-88.728	108.141	-0.026	-0.030
-87.713	-63.898	0.305	-0.122
-86.699	384.720	-0.107	0.217
-85.684	50.224	0.412	-0.382
-84.670	-57.616	-0.105	0.045
-83.655	-200.000	0.018	0.124
-82.640	57.097	-0.078	-0.075
-81.626	66.808	0.241	0.241
-80.611	-104.133	-0.325	0.074
-79.597	-130.555	-0.181	0.024
-78.582	-2.282	0.064	0.044
-77.567	516.988	0.157	-0.361
-76.553	574.779	0.083	-0.198
-75.538	-200.000	0.052	0.303
-74.524	9.986	0.074	-0.055
-73.509	-200.000	-0.054	0.311
-72.494	-200.000	-0.033	-0.164
-71.480	119.138	-0.061	0.074
-70.465	-200.000	0.069	0.631
-69.451	342.516	-0.108	0.208
-68.436	-24.776	0.199	-0.116
-67.422	-200.000	-0.008	-0.107
-66.407	800.000	-0.070	-0.236
-65.392	-8.647	0.361	-0.238
-64.378	62.560	0.272	0.266
-63.363	-55.749	-0.167	-0.073
-62.349	-200.000	0.003	0.188
-61.334	36.843	-0.996	-0.864
-60.319	151.765	0.260	0.348
-59.305	712.258	-0.476	-1.237
-58.290	291.083	0.444	0.793
-57.276	379.900	0.807	1.622
-56.261	-200.000	110.596	616.538
-55.246	512.672	1512.069	3456.136
-54.232	177.445	2689.983	3843.485
-53.217	110.046	2173.598	2558.683
-52.203	39.316	1705.016	1497.084
-51.188	32.207	1521.748	1287.615
-50.173	29.862	1496.458	1250.344
-49.159	50.914	1554.441	1444.518
-48.144	50.685	1570.416	1457.726
-47.130	32.348	1525.199	1291.299
-46.115	29.377	1510.513	1258.579
-45.100	29.167	1507.302	1254.423
-44.086	29.129	1505.021	1252.216
-43.071	29.123	1502.755	1250.238
-42.057	29.069	1501.316	1248.627
-41.042	29.011	1500.256	1247.300
-40.027	29.035	1498.222	1245.725
-39.013	29.095	1496.536	1244.676
-37.998	28.973	1495.929	1243.302
-36.984	29.054	1494.200	1242.360
-35.969	29.136	1493.223	1242.052
-34.954	29.044	1492.109	1240.455
-33.940	29.016	1490.412	1238.810
-32.925	29.036	1489.048	1237.760
-31.911	29.117	1487.439	1236.913
-30.896	29.072	1486.542	1235.816
-29.881	29.212	1484.936	1235.371
-28.867	29.118	1484.291	1234.155
-27.852	29.070	1482.798	1232.544
-26.838	29.133	1481.415	1231.772
-25.823	29.065	1480.349	1230.382
-24.809	29.095	1478.286	1228.817
-23.794	29.032	1477.361	1227.580
-22.779	29.163	1475.896	1227.185
-21.765	29.037	1475.032	1225.579
-20.750	29.072	1474.143	1225.026
-19.736	29.096	1472.674	1223.916
-18.721	29.094	1471.353	1222.752
-17.706	29.018	1470.721	1221.674
-16.692	29.116	1469.194	1221.009
-15.677	29.113	1467.915	1219.881
-14.663	29.090	1467.422	1219.271
-13.648	29.123	1466.451	1218.634
-12.633	29.088	1464.973	1217.126
-11.619	29.040	1464.755	1216.575
-10.604	29.117	1463.247	1215.786
-9.590	29.040	1462.761	1214.824
-8.575	29.102	1461.955	1214.517
-7.560	29.117	1460.847	1213.647
-6.546	29.103	1459.751	1212.597
-5.531	29.089	1458.870	1211.723
-4.517	29.038	1458.138	1210.734
-3.502	29.052	1456.971	1209.806
-2.487	29.059	1455.670	1208.722
-1.473	28.982	1455.080	1207.679
-0.458	29.050	1453.857	1207.062
0.556	30.491	1444.140	1195.057
1.571	27.312	1419.095	1154.095
2.586	23.846	1359.672	1084.567
3.600	21.948	1278.867	1009.119
4.615	20.663	1232.570	965.372
5.629	18.137	1175.725	907.382
6.644	10.657	1093.508	806.807
7.659	4.802	1054.758	750.009
8.673	3.999	1049.468	742.333
9.688	3.789	1045.925	738.756
10.702	3.536	1044.378	736.392
11.717	3.676	1042.243	735.486
12.731	6.432	1044.958	750.483
13.746	14.276	1055.749	795.792
14.761	21.238	1064.939	836.099
15.775	23.334	1066.608	847.370
16.790	22.834	1065.690	844.175
17.804	22.095	1063.505	838.844
18.819	21.459	1062.616	835.031
19.834	21.178	1060.926	832.291
20.848	21.161	1060.565	831.852
21.863	21.329	1060.117	832.229
22.877	21.079	1059.850	830.756
23.892	21.015	1058.867	829.607
24.907	20.854	1057.658	827.821
25.921	20.862	1056.684	827.024
26.936	20.764	1056.085	826.014
27.950	20.642	1055.323	824.769
28.965	20.676	1053.973	823.802
29.980	20.705	1053.030	823.127
30.994	20.891	1051.953	823.095
32.009	21.048	1051.470	823.382
33.023	21.199	1050.375	823.163
34.038	21.157	1049.923	822.539
35.053	20.953	1048.935	820.735
36.067	20.826	1047.931	819.279
37.082	20.580	1047.298	817.551
38.096	20.796	1046.128	817.582
39.111	20.937	1045.597	817.758
40.126	20.991	1044.774	817.295
41.140	20.911	1043.155	815.583
42.155	20.530	1041.888	812.735
43.169	20.200	1040.703	810.200
44.184	20.186	1040.073	809.574
45.199	20.167	1038.322	808.047
46.213	20.231	1037.508	807.639
47.228	20.394	1036.946	807.891
48.242	20.675	1036.603	808.857
49.257	20.893	1035.837	809.203
50.271	20.755	1034.931	807.781
51.286	20.857	1034.236	807.644
52.301	21.035	1033.678	807.959
53.315	21.117	1032.684	807.488
54.330	20.921	1032.129	806.079
55.344	20.721	1031.517	804.605
56.359	20.600	1029.688	802.549
57.374	20.531	1029.225	801.797
58.388	20.388	1028.535	800.530
59.403	20.275	1027.862	799.415
60.417	20.205	1026.936	798.300
61.432	20.122	1026.183	797.262
62.447	20.243	1025.284	797.051
63.461	20.153	1024.322	795.821
64.476	20.117	1023.567	794.995
65.490	20.002	1022.451	793.536
66.505	19.937	1021.461	792.396
67.520	19.969	1021.097	792.194
68.534	20.180	1019.986	792.222
69.549	20.124	1019.257	791.332
70.563	19.786	1018.781	789.351
71.578	19.817	1018.081	788.880
72.593	19.765	1016.766	787.553
73.607	19.549	1015.473	785.497
74.622	19.486	1014.587	784.458
75.636	19.557	1013.936	784.207
76.651	19.584	1013.465	783.896
77.666	19.852	1012.298	784.139
78.680	19.783	1012.284	783.748
79.695	19.798	1011.385	783.049
80.709	19.777	1010.316	782.056
81.724	19.946	1010.102	782.588
82.739	20.151	1009.169	782.722
83.753	20.152	1009.049	782.564
84.768	20.646	1007.969	783.882
85.782	20.983	1008.218	785.523
86.797	21.287	1007.866	786.551
87.812	21.430	1006.459	786.025
88.826	21.033	1006.133	783.917
89.841	20.988	1005.188	782.911
90.855	21.080	1004.295	782.556
91.870	21.176	1003.666	782.428
92.884	21.309	1003.100	782.513
93.899	21.222	1001.930	781.142
94.914	21.191	1001.198	780.362
95.928	21.178	1000.350	779.575
96.943	21.259	999.524	779.223
97.957	21.223	998.172	777.939
98.972	21.070	997.192	776.427
99.987	20.907	997.160	775.608
101.001	20.922	996.548	775.132
102.016	20.961	995.905	774.736
103.030	21.003	994.356	773.649
104.045	21.015	993.519	772.982
105.060	21.205	992.707	773.123
106.074	20.905	992.132	771.279
107.089	20.600	990.714	768.759
108.103	20.419	989.476	766.935
109.118	20.286	988.245	765.325
110.133	19.989	987.058	763.027
111.147	19.931	986.061	761.934
112.162	19.846	985.583	761.124
113.176	19.967	984.684	760.896
114.191	20.079	984.284	761.008
115.206	20.214	983.313	760.785
116.220	20.332	982.275	760.433
117.235	20.206	981.296	759.055
118.249	20.087	980.729	758.028
119.264	20.005	979.731	756.831
120.279	19.975	978.772	755.891
121.293	19.854	978.012	754.710
122.308	19.771	977.038	753.533
123.322	19.772	976.161	752.791
124.337	19.603	975.010	751.102
125.352	19.491	974.346	750.039
126.366	19.512	972.803	748.876
127.381	19.474	972.387	748.323
128.395	19.604	971.223	747.924
129.410	19.699	970.297	747.555
130.424	19.678	969.808	747.022
131.439	19.908	968.624	747.038
132.454	20.143	968.018	747.517
133.468	20.013	968.469	747.240
134.483	20.200	967.024	746.864
135.497	20.132	966.580	746.160
136.512	20.122	965.898	745.526
137.527	20.199	964.620	744.804
138.541	20.069	964.269	743.909
139.556	20.290	963.658	744.323
140.570	20.265	963.257	743.838
141.585	20.359	962.643	743.702
142.600	20.702	961.859	744.496
143.614	20.937	961.014	744.781
144.629	21.011	960.875	744.923
145.643	21.134	959.718	744.484
146.658	21.088	958.784	743.501
147.673	20.794	957.635	741.291
148.687	20.560	956.627	739.449
149.702	20.406	955.269	737.683
150.716	20.152	954.600	736.019
151.731	20.281	953.387	735.569
152.746	20.348	952.264	734.922
153.760	20.446	951.945	735.024
154.775	20.437	951.088	734.257
155.789	20.557	950.692	734.394
156.804	20.586	950.047	733.953
157.819	20.624	949.111	733.326
158.833	20.777	948.475	733.413
159.848	20.860	947.868	733.229
160.862	21.035	947.543	733.651
161.877	20.986	946.906	732.883
162.892	20.500	945.519	729.708
163.906	20.237	944.293	727.591
164.921	20.175	943.187	726.418
165.935	20.104	941.903	725.069
166.950	20.146	941.390	724.781
167.964	20.448	940.559	725.341
168.979	20.397	939.030	723.884
169.994	20.354	938.205	723.004
171.008	20.162	937.447	721.557
172.023	20.353	936.720	721.727
173.037	20.642	936.278	722.526
174.052	20.892	935.834	723.154
175.067	21.039	934.604	722.753
176.081	20.528	933.341	719.594
177.096	20.082	932.430	716.982
178.110	19.927	931.377	715.469
179.125	20.184	930.698	715.948
180.140	20.164	930.235	715.446
181.154	20.283	929.407	715.235
182.169	20.541	929.361	716.199
183.183	20.730	929.375	716.925
184.198	20.800	928.415	716.409
185.213	20.606	927.814	715.087
186.227	20.624	927.166	714.598
187.242	20.752	926.819	714.790
188.256	20.890	926.195	714.814
189.271	21.062	925.123	714.628
190.286	21.204	924.905	714.975
191.300	20.928	923.833	712.957
192.315	20.233	922.516	709.037
193.329	19.952	921.270	706.868
194.344	19.906	920.983	706.397
195.359	20.141	920.638	707.031
196.373	20.277	920.533	707.443
197.388	20.303	919.969	707.051
198.402	20.695	919.542	708.257
199.417	21.015	919.182	709.217
200.432	21.037	919.416	709.427
201.446	21.401	918.818	710.381
202.461	21.390	918.570	710.083
203.475	21.428	918.234	709.912
204.490	21.505	917.099	709.286
205.504	21.024	915.813	706.279
206.519	20.792	914.822	704.515
207.534	20.703	914.389	703.760
208.548	20.778	913.011	702.938
209.563	20.809	912.056	702.267
210.577	20.754	912.044	701.976
211.592	20.771	911.452	701.523
212.607	21.110	911.319	702.727
213.621	21.351	910.758	703.199
214.636	21.217	910.240	702.199
215.650	20.973	909.625	700.681
216.665	21.131	909.133	700.874
217.680	21.215	908.392	700.580
218.694	21.330	908.191	700.825
219.709	21.278	907.833	700.275
220.723	21.333	906.731	699.585
221.738	21.280	906.110	698.830
222.753	21.151	905.470	697.760
223.767	21.007	904.828	696.629
224.782	21.201	903.908	696.632
225.796	21.144	903.795	696.256
226.811	21.361	903.403	696.757
227.826	21.316	902.209	695.598
228.840	21.199	900.957	694.104
229.855	20.937	900.358	692.541
230.869	21.091	899.799	692.660
231.884	20.778	899.414	691.064
232.899	20.844	898.718	690.726
233.913	20.739	897.518	689.329
234.928	20.644	897.259	688.693
235.942	20.577	896.569	687.835
236.957	20.528	895.372	686.664
237.972	20.411	894.919	685.795
238.986	20.455	894.275	685.414
240.001	20.547	893.551	685.162
241.015	20.523	892.901	684.508
242.030	20.616	892.299	684.349
243.045	20.902	891.880	685.092
244.059	20.806	891.702	684.518
245.074	20.995	890.738	684.460
246.088	21.020	890.681	684.453
247.103	20.927	890.186	683.649
248.117	21.262	889.413	684.305
249.132	21.490	889.526	685.226
250.147	21.936	889.167	686.635
251.161	22.079	889.131	687.107
252.176	22.355	888.662	687.761
253.190	22.380	887.891	687.202
254.205	22.377	887.439	686.778
255.220	22.338	887.055	686.268
256.234	22.300	885.871	685.144
257.249	22.207	885.374	684.336
258.263	22.088	884.879	683.429
259.278	22.207	883.714	682.935
260.293	22.146	883.169	682.214
261.307	22.214	883.192	682.437
262.322	22.343	882.837	682.601
263.336	22.332	882.347	682.121
264.351	22.425	881.396	681.684
265.366	22.355	880.734	680.839
266.380	22.213	880.022	679.681
267.395	22.330	879.342	679.547
268.409	22.350	878.743	679.104
269.424	22.073	877.553	677.055
270.439	22.054	877.200	676.650
271.453	22.011	876.514	675.894
272.468	21.862	875.326	674.346
273.482	21.764	874.971	673.637
274.497	21.803	874.576	673.424
275.512	21.829	873.823	672.884
276.526	21.750	872.883	671.797
277.541	21.944	872.176	671.936
278.555	21.925	871.769	671.489
279.570	22.131	871.414	671.947
280.585	22.417	871.383	672.955
281.599	22.565	870.574	672.837
282.614	22.198	869.868	670.829
283.628	21.901	868.994	668.964
284.643	21.813	868.361	668.081
285.657	21.903	867.906	668.017
286.672	21.914	867.331	667.556
287.687	21.987	866.890	667.436
288.701	22.031	866.432	667.193
289.716	22.154	865.463	666.854
290.730	22.066	865.341	666.368
291.745	21.866	864.568	664.954
292.760	22.082	863.675	665.028
293.774	22.214	863.496	665.329
294.789	22.497	863.341	666.223
295.803	22.495	862.335	665.379
296.818	22.044	862.027	663.378
297.833	21.971	860.794	662.096
298.847	21.996	860.384	661.815
299.862	21.975	859.359	660.891
300.876	22.051	859.299	661.071
301.891	22.252	858.592	661.226
302.906	22.398	858.273	661.470
303.920	22.734	857.808	662.315
304.935	22.697	857.066	661.542
305.949	22.881	856.635	661.844
306.964	22.801	856.287	661.214
307.979	22.610	855.227	659.623
308.993	22.452	854.629	658.513
310.008	22.535	854.339	658.541
311.022	22.669	853.772	658.545
312.037	22.603	853.362	657.926
313.052	22.407	852.528	656.494
314.066	22.116	851.746	654.750
315.081	21.930	851.084	653.491
316.095	21.694	850.449	652.065
317.110	21.975	849.976	652.692
318.125	21.891	849.176	651.707
319.139	21.869	848.690	651.193
320.154	21.892	847.733	650.489
321.168	21.748	847.511	649.728
322.183	21.824	847.435	649.893
323.197	21.920	846.937	649.808
324.212	22.071	846.415	649.908
325.227	22.096	845.748	649.431
326.241	22.077	844.935	648.681
327.256	21.996	844.473	647.969
328.270	21.829	843.873	646.833
329.285	21.956	843.110	646.661
330.300	21.789	842.935	645.855
331.314	21.791	841.948	645.050
332.329	21.888	841.318	644.865
333.343	22.103	841.077	645.413
334.358	22.256	840.791	645.699
335.373	22.454	840.065	645.809
336.387	22.327	839.812	645.094
337.402	22.412	838.959	644.690
338.416	22.477	838.882	644.815
339.431	22.650	838.121	644.803
340.446	23.065	837.697	645.939
341.460	23.023	837.835	645.834
342.475	23.163	837.073	645.700
343.489	23.145	836.589	645.204
344.504	23.238	835.867	644.930
345.519	23.215	835.785	644.724
346.533	23.320	835.432	644.779
347.548	23.244	834.876	644.013
348.562	23.028	833.779	642.327
349.577	22.784	832.993	640.780
350.592	22.623	832.244	639.562
351.606	22.397	831.526	638.135
352.621	22.410	830.757	637.536
353.635	22.400	831.031	637.653
354.650	22.401	830.668	637.320
355.665	22.438	830.122	636.981
356.679	22.485	829.993	636.995
357.694	22.531	829.474	636.705
358.708	22.771	828.391	636.683
359.723	22.614	827.892	635.676
360.738	22.693	827.362	635.500
361.752	22.675	826.888	635.015
362.767	22.662	826.784	634.830
363.781	22.995	826.180	635.509
364.796	23.078	826.052	635.653
365.810	23.309	825.601	636.080
366.825	23.513	825.528	636.698
367.840	23.699	825.212	637.068
368.854	23.429	824.946	635.835
369.869	23.226	823.904	634.250
370.883	23.051	823.416	633.193
371.898	23.102	822.577	632.673
372.913	23.401	821.866	633.139
373.927	23.533	821.519	633.285
374.942	23.197	820.960	631.599
375.956	23.180	819.885	630.655
376.971	23.337	819.811	631.104
377.986	23.522	819.157	631.202
379.000	23.659	819.220	631.682
380.015	23.665	818.536	631.121
381.029	23.760	817.743	630.790
382.044	23.526	817.289	629.552
383.059	23.653	816.525	629.358
384.073	23.864	816.097	629.724
385.088	23.631	815.202	628.150
386.102	23.335	814.581	626.569
387.117	23.070	813.468	624.722
388.132	23.084	813.062	624.407
389.146	22.980	812.732	623.729
390.161	23.085	812.580	623.929
391.175	23.254	812.430	624.354
392.190	23.487	812.194	624.938
393.205	23.470	811.476	624.271
394.219	23.245	810.680	622.811
395.234	23.036	809.909	621.431
396.248	22.812	809.435	620.224
397.263	22.769	808.840	619.563
398.278	22.741	808.159	618.889
399.292	22.719	808.059	618.678
400.307	22.480	807.627	617.455
401.321	22.731	807.206	617.960
402.336	22.679	806.651	617.299
403.350	22.777	806.710	617.633
404.365	23.063	806.288	618.254
405.380	23.329	805.754	618.718
406.394	23.662	805.751	619.822
407.409	23.737	805.437	619.788
408.423	23.928	804.892	619.982
409.438	23.916	804.658	619.702
410.453	23.937	804.274	619.428
411.467	24.061	803.787	619.428
412.482	24.050	803.187	618.873
413.496	24.223	802.798	619.119
414.511	24.230	802.603	618.938
415.526	24.192	802.110	618.372
416.540	24.031	801.323	617.150
417.555	23.789	801.218	616.179
418.569	24.001	800.150	616.034
419.584	23.766	800.316	615.295
420.599	23.730	799.655	614.608
421.613	163.177	1370.679	1797.154
422.628	141.733	1453.872	1797.250
