DTS Sentinel unit serial number:	SN413079Multiplexer serial number:	ORYXHardware model number:	OX4-SRSoftware version number:	ORYX F/W v4.00 Oryx Data Collector v3.7.2.0data status	okinstallation	princeton_trtdifferential loss correction	single-endedforward channel	channel 3reverse channel	N/Adate	2019/09/14time	11:20:35forward acquisition time	60.00reverse acquisition time	0.00gamma	496.2192k internal	0.2297k external	0.2297temperature offset calibration	1.0067default loss term (dB/km)	0.3790temperature slope calibration	1.0000multiplexer offset coefficient	1.0000multiplexer slope coefficient	1.0000fibre end	0.00T internal ref (°C)	36.66T ext. ref 1 (°C)	4.51T ext. ref 2 (°C)	32.89length (m)	temperature (°C)	Stokes	anti-Stokes-747.200	663.622	-0.078	-0.206
-746.185	-200.000	0.018	0.171
-745.171	-200.000	0.030	-0.331
-744.156	-69.553	0.253	0.099
-743.142	77.614	-0.102	-0.111
-742.127	795.262	0.089	0.250
-741.112	800.000	-0.033	-0.118
-740.098	-60.145	-0.084	0.037
-739.083	94.593	0.155	0.180
-738.069	-44.848	0.070	-0.036
-737.054	156.971	0.115	0.163
-736.039	-125.783	0.168	0.026
-735.025	-88.346	0.292	-0.089
-734.010	-143.528	-0.189	-0.018
-732.996	8.556	-0.274	-0.211
-731.981	148.039	-0.041	-0.056
-730.966	22.167	-0.152	-0.127
-729.952	-105.122	-0.206	-0.048
-728.937	-60.073	-0.134	-0.058
-727.923	-200.000	0.003	0.097
-726.908	-200.000	-0.044	-0.301
-725.894	333.796	-0.104	-0.205
-724.879	-116.455	-0.154	-0.029
-723.864	-200.000	0.049	-0.344
-722.850	-24.561	0.186	0.113
-721.835	800.000	-0.086	-0.377
-720.821	4.400	-0.173	0.129
-719.806	45.812	0.069	-0.066
-718.791	25.611	-0.145	0.123
-717.777	12.398	-0.207	0.162
-716.762	559.205	-0.025	0.061
-715.748	-128.343	-0.182	-0.026
-714.733	-200.000	-0.031	-0.186
-713.718	226.408	0.141	-0.233
-712.704	-4.516	0.181	-0.127
-711.689	800.000	0.057	0.238
-710.675	800.000	-0.011	0.032
-709.660	800.000	-0.080	-0.289
-708.645	69.226	-0.080	-0.084
-707.631	-200.000	0.037	0.416
-706.616	20.026	-0.221	0.182
-705.602	-139.987	-0.489	-0.053
-704.587	370.423	0.081	0.168
-703.572	-154.049	-0.424	-0.029
-702.558	391.918	0.205	-0.434
-701.543	-200.000	-0.006	0.129
-700.529	-200.000	0.060	0.412
-699.514	102.380	0.110	0.131
-698.499	-62.328	-0.246	-0.104
-697.485	44.207	0.141	-0.132
-696.470	85.212	-0.278	0.311
-695.456	672.702	-0.040	-0.106
-694.441	479.461	0.136	-0.315
-693.426	41.280	-0.116	-0.107
-692.412	204.936	0.155	-0.245
-691.397	-200.000	0.012	-0.177
-690.383	101.361	0.144	-0.170
-689.368	13.087	-0.386	0.304
-688.354	-111.058	-0.406	0.085
-687.339	112.795	-0.179	-0.221
-686.324	-104.563	0.104	-0.024
-685.310	378.854	-0.159	0.332
-684.295	28.963	-0.256	0.221
-683.281	-200.000	-0.003	0.305
-682.266	-102.974	-0.213	0.052
-681.251	-200.000	0.039	-0.324
-680.237	16.041	-0.274	0.220
-679.222	95.475	-0.285	0.331
-678.208	69.020	-0.133	0.140
-677.193	-200.000	-0.023	-0.193
-676.178	800.000	0.022	0.063
-675.164	-200.000	-0.009	0.063
-674.149	729.007	-0.185	-0.503
-673.135	19.535	-0.108	-0.088
-672.120	800.000	0.051	-0.194
-671.105	418.294	-0.060	-0.131
-670.091	-42.237	-0.324	-0.168
-669.076	-200.000	0.007	0.296
-668.062	112.496	-0.112	0.138
-667.047	18.586	-0.137	-0.112
-666.032	132.195	0.069	-0.090
-665.018	186.350	-0.071	0.108
-664.003	-170.142	0.066	-0.002
-662.989	800.000	0.040	0.150
-661.974	390.504	0.123	0.259
-660.959	-96.920	-0.278	0.074
-659.945	-90.456	0.158	-0.047
-658.930	29.116	-0.216	-0.187
-657.916	800.000	-0.097	0.331
-656.901	-49.190	0.035	0.017
-655.886	-59.173	0.152	0.067
-654.872	-131.334	0.298	-0.040
-653.857	-135.955	0.169	0.020
-652.843	800.000	-0.021	0.065
-651.828	131.368	-0.067	-0.087
-650.814	31.106	-0.252	-0.220
-649.799	43.233	0.297	-0.276
-648.784	-200.000	0.021	-0.280
-647.770	-129.285	-0.139	0.020
-646.755	-200.000	0.010	0.099
-645.741	179.907	-0.047	0.070
-644.726	-85.916	-0.098	0.031
-643.711	414.626	0.020	-0.044
-642.697	-200.000	0.040	-0.282
-641.682	125.134	0.116	-0.149
-640.668	-101.546	0.237	0.059
-639.653	179.199	-0.208	0.309
-638.638	540.003	-0.060	-0.144
-637.624	129.624	-0.069	0.090
-636.609	800.000	0.098	-0.299
-635.595	-200.000	0.020	0.172
-634.580	12.049	-0.055	0.043
-633.565	479.812	-0.100	0.231
-632.551	-200.000	-0.025	-0.502
-631.536	-20.743	0.055	-0.034
-630.522	418.223	0.043	-0.093
-629.507	-1.871	-0.321	0.229
-628.492	-45.467	-0.106	0.054
-627.478	-200.000	0.022	-0.213
-626.463	-10.540	0.416	-0.280
-625.449	131.416	0.156	-0.204
-624.434	-14.770	-0.110	-0.071
-623.419	-137.927	-0.355	0.040
-622.405	275.888	-0.050	0.090
-621.390	-56.341	0.153	-0.069
-620.376	49.108	-0.130	-0.124
-619.361	-52.949	0.305	-0.143
-618.346	-119.745	0.025	0.004
-617.332	-23.523	0.210	0.128
-616.317	-46.915	0.275	-0.137
-615.303	-45.902	0.273	0.137
-614.288	5.690	0.020	0.015
-613.273	-200.000	-0.009	0.061
-612.259	-64.577	-0.249	0.103
-611.244	800.000	-0.052	-0.228
-610.230	-38.699	-0.194	-0.104
-609.215	22.163	-0.390	0.324
-608.201	22.328	0.277	-0.230
-607.186	69.921	-0.203	-0.212
-606.171	157.492	-0.109	-0.154
-605.157	86.658	0.243	-0.273
-604.142	-87.773	-0.230	0.070
-603.128	20.399	-0.194	0.159
-602.113	180.057	-0.150	-0.223
-601.098	-109.154	-0.131	-0.028
-600.084	-127.743	0.227	-0.033
-599.069	155.952	-0.135	0.188
-598.055	-128.514	0.140	-0.020
-597.040	115.026	0.150	-0.186
-596.025	-24.575	-0.152	-0.092
-595.011	-5.520	-0.031	-0.022
-593.996	800.000	0.003	-0.013
-592.982	521.020	0.052	-0.123
-591.967	-97.165	-0.364	0.097
-590.952	14.057	-0.136	0.107
-589.938	800.000	-0.087	-0.381
-588.923	-132.821	0.266	-0.034
-587.909	-108.212	-0.080	0.018
-586.894	-108.920	0.179	0.039
-585.879	52.973	0.028	0.027
-584.865	-200.000	-0.015	-0.302
-583.850	-75.892	-0.202	0.073
-582.836	200.281	-0.048	0.075
-581.821	-200.000	0.006	0.157
-580.806	94.319	-0.114	-0.132
-579.792	800.000	-0.106	0.417
-578.777	800.000	-0.092	0.386
-577.763	-28.594	0.222	0.130
-576.748	647.865	0.103	-0.267
-575.733	135.059	-0.079	0.104
-574.719	800.000	-0.104	0.305
-573.704	800.000	0.068	-0.280
-572.690	-200.000	0.048	0.266
-571.675	-139.375	-0.225	-0.024
-570.661	609.172	-0.012	-0.030
-569.646	-124.880	0.250	-0.039
-568.631	290.070	0.076	0.140
-567.617	5.894	-0.026	0.019
-566.602	-200.000	0.049	-0.293
-565.588	-200.000	-0.028	0.162
-564.573	207.709	0.056	-0.089
-563.558	68.539	0.165	0.172
-562.544	154.457	0.038	0.054
-561.529	33.926	0.103	-0.091
-560.515	-136.942	-0.354	-0.041
-559.500	243.019	0.107	0.182
-558.485	-171.878	0.261	-0.009
-557.471	271.773	-0.077	0.137
-556.456	296.545	-0.077	0.142
-555.442	-33.587	0.294	0.164
-554.427	-100.679	0.097	0.024
-553.412	-29.825	0.311	0.180
-552.398	-55.835	0.357	-0.162
-551.383	468.382	-0.064	0.146
-550.369	0.441	-0.134	-0.097
-549.354	140.165	0.073	0.098
-548.339	43.248	0.276	-0.256
-547.325	121.544	0.030	0.038
-546.310	-95.409	0.128	-0.035
-545.296	145.415	-0.299	0.405
-544.281	-18.510	-0.230	-0.146
-543.266	-99.927	-0.221	-0.056
-542.252	84.116	0.220	0.243
-541.237	-200.000	-0.045	0.448
-540.223	-139.667	-0.047	-0.005
-539.208	-32.171	0.123	-0.069
-538.193	30.596	0.194	-0.168
-537.179	-200.000	-0.025	0.118
-536.164	-103.324	0.234	0.056
-535.150	-56.316	-0.237	0.107
-534.135	69.337	-0.177	-0.184
-533.121	-200.000	-0.002	-0.056
-532.106	-200.000	0.048	-0.217
-531.091	297.883	-0.078	0.145
-530.077	-20.000	0.169	-0.106
-529.062	108.499	0.053	0.064
-528.048	21.760	-0.174	0.144
-527.033	-200.000	0.032	-0.301
-526.018	34.969	-0.114	-0.101
-525.004	97.384	0.192	0.223
-523.989	118.765	-0.273	0.342
-522.975	-35.603	-0.157	-0.086
-521.960	115.379	0.030	0.037
-520.945	143.514	-0.225	0.304
-519.931	-200.000	0.024	0.586
-518.916	-15.287	-0.221	-0.143
-517.902	570.716	-0.031	0.077
-516.887	378.666	-0.099	-0.206
-515.872	-116.344	-0.058	0.011
-514.858	-200.000	-0.006	0.085
-513.843	501.294	0.109	0.255
-512.829	14.418	-0.367	0.290
-511.814	-58.322	0.181	0.079
-510.799	26.168	0.265	-0.224
-509.785	653.742	0.155	-0.402
-508.770	741.597	0.131	-0.355
-507.756	-21.436	-0.240	-0.148
-506.741	8.110	-0.201	-0.152
-505.726	-28.631	-0.065	0.038
-504.712	-200.000	0.073	0.342
-503.697	-64.528	-0.335	0.137
-502.683	101.355	0.072	0.085
-501.668	-200.000	-0.013	0.196
-500.653	167.393	-0.148	-0.212
-499.639	-200.000	-0.008	0.187
-498.624	-55.199	-0.186	0.085
-497.610	-71.431	0.233	-0.088
-496.595	-140.980	0.376	-0.039
-495.581	-54.479	-0.156	0.072
-494.566	508.740	0.061	-0.144
-493.551	-37.463	-0.056	0.030
-492.537	111.887	-0.113	-0.138
-491.522	-2.530	0.113	-0.080
-490.508	247.128	0.167	-0.285
-489.493	0.748	-0.207	-0.150
-488.478	-140.472	-0.209	0.022
-487.464	175.526	0.192	-0.281
-486.449	-62.565	-0.129	0.054
-485.435	14.766	0.089	0.070
-484.420	-93.941	0.081	0.022
-483.405	273.224	-0.044	-0.079
-482.391	60.344	0.279	0.279
-481.376	-200.000	-0.028	-0.288
-480.362	111.958	-0.139	-0.169
-479.347	800.000	-0.122	-0.410
-478.332	412.385	0.104	0.223
-477.318	-74.697	0.309	-0.112
-476.303	-44.664	-0.133	-0.067
-475.289	-8.464	0.150	-0.102
-474.274	-116.650	0.338	0.063
-473.259	15.036	-0.193	0.152
-472.245	-200.000	-0.034	-0.306
-471.230	-200.000	-0.017	0.088
-470.216	-61.423	0.187	-0.079
-469.201	800.000	-0.057	-0.252
-468.186	800.000	-0.043	-0.166
-467.172	-200.000	-0.011	-0.174
-466.157	160.429	-0.036	0.051
-465.143	-0.679	-0.482	-0.345
-464.128	83.407	-0.201	0.222
-463.113	-5.755	0.186	-0.129
-462.099	-116.039	0.210	0.039
-461.084	303.097	-0.121	0.227
-460.070	-22.037	-0.149	0.092
-459.055	-3.496	-0.453	-0.318
-458.040	800.000	-0.083	0.256
-457.026	-200.000	-0.012	0.221
-456.011	-73.815	-0.156	-0.057
-454.997	-102.188	0.199	-0.048
-453.982	-200.000	-0.005	-0.136
-452.968	-122.451	0.194	-0.032
-451.953	104.406	-0.221	-0.262
-450.938	-200.000	-0.017	-0.229
-449.924	340.482	-0.060	0.119
-448.909	-112.534	-0.372	0.075
-447.895	800.000	-0.056	-0.244
-446.880	-35.400	-0.090	0.049
-445.865	283.048	0.117	0.212
-444.851	-76.559	0.236	0.083
-443.836	800.000	-0.037	0.125
-442.822	-68.421	-0.067	0.026
-441.807	462.095	-0.110	-0.247
-440.792	-106.630	0.179	0.040
-439.778	-51.411	0.172	-0.081
-438.763	-165.619	0.116	-0.005
-437.749	-200.000	-0.010	0.154
-436.734	-21.293	-0.187	0.115
-435.719	-11.655	0.309	-0.205
-434.705	-69.424	-0.138	0.053
-433.690	800.000	-0.153	0.588
-432.676	28.140	0.046	0.039
-431.661	153.077	0.229	0.316
-430.646	-200.000	-0.015	0.104
-429.632	-169.936	-0.099	-0.004
-428.617	-172.522	0.301	0.010
-427.603	-200.000	-0.022	0.168
-426.588	-200.000	0.030	0.200
-425.573	245.947	-0.072	0.123
-424.559	-2.017	0.166	0.117
-423.544	727.146	-0.106	0.286
-422.530	-200.000	0.037	-0.219
-421.515	-107.817	0.157	-0.035
-420.500	157.749	-0.046	-0.064
-419.486	-39.660	-0.085	-0.045
-418.471	800.000	0.047	0.172
-417.457	-92.071	0.197	-0.056
-416.442	-141.479	0.203	0.021
-415.428	239.142	0.118	0.199
-414.413	-84.025	-0.257	0.082
-413.398	394.602	-0.062	-0.129
-412.384	0.616	0.111	-0.080
-411.369	-200.000	0.005	-0.100
-410.355	800.000	-0.101	-0.345
-409.340	-12.376	0.377	0.249
-408.325	-75.701	0.191	-0.068
-407.311	800.000	-0.078	-0.320
-406.296	-200.000	0.021	0.182
-405.282	-148.319	0.336	0.028
-404.267	-101.261	-0.238	0.059
-403.252	-123.455	0.324	-0.052
-402.238	-200.000	0.099	-0.506
-401.223	-200.000	-0.003	-0.256
-400.209	800.000	-0.039	-0.116
-399.194	-114.700	-0.233	-0.045
-398.179	66.682	-0.186	-0.190
-397.165	297.763	-0.133	-0.247
-396.150	-135.375	0.282	-0.034
-395.136	-56.703	-0.266	-0.119
-394.121	800.000	0.072	0.310
-393.106	-94.343	0.303	-0.083
-392.092	-95.808	0.221	-0.059
-391.077	-73.881	-0.096	-0.035
-390.063	61.096	-0.049	0.049
-389.048	-171.907	-0.163	-0.005
-388.033	8.333	-0.052	0.039
-387.019	-113.374	-0.145	0.029
-386.004	800.000	-0.064	0.237
-384.990	134.404	-0.171	0.223
-383.975	-95.054	0.369	0.100
-382.960	-200.000	-0.005	-0.255
-381.946	39.564	-0.205	-0.185
-380.931	-200.000	-0.051	-0.265
-379.917	-19.429	0.295	-0.184
-378.902	800.000	-0.095	-0.282
-377.888	-133.618	0.126	-0.016
-376.873	-200.000	0.015	-0.368
-375.858	466.971	-0.104	0.235
-374.844	279.129	-0.041	-0.074
-373.829	382.810	0.203	-0.421
-372.815	-200.000	0.043	-0.200
-371.800	-46.285	0.138	0.068
-370.785	-200.000	0.007	0.101
-369.771	-153.715	0.150	-0.010
-368.756	-131.040	0.095	-0.013
-367.742	641.164	-0.062	0.160
-366.727	562.943	-0.046	-0.111
-365.712	27.764	-0.252	-0.213
-364.698	33.740	-0.128	-0.112
-363.683	-89.131	-0.131	-0.039
-362.669	169.711	-0.060	0.086
-361.654	-61.532	-0.280	-0.118
-360.639	-200.000	0.038	0.172
-359.625	186.980	-0.185	0.278
-358.610	33.891	0.212	0.185
-357.596	116.551	0.307	-0.379
-356.581	-200.000	-0.021	-0.198
-355.566	121.658	0.150	0.188
-354.552	313.980	-0.060	-0.113
-353.537	-146.762	0.377	0.033
-352.523	-200.000	0.007	-0.212
-351.508	800.000	-0.058	-0.193
-350.493	174.670	-0.149	-0.217
-349.479	-71.895	-0.226	-0.085
-348.464	-147.520	0.215	-0.018
-347.450	64.031	-0.183	0.185
-346.435	-123.739	0.413	-0.066
-345.420	452.304	0.131	0.290
-344.406	-129.718	-0.143	0.020
-343.391	380.212	-0.136	0.281
-342.377	-200.000	-0.022	0.097
-341.362	46.946	0.159	-0.149
-340.348	-200.000	0.015	0.230
-339.333	800.000	-0.034	-0.148
-338.318	-168.000	0.340	0.013
-337.304	-8.575	-0.099	0.067
-336.289	323.358	-0.160	-0.307
-335.275	93.929	-0.158	-0.180
-334.260	-134.722	0.127	0.016
-333.245	635.900	-0.064	-0.164
-332.231	-40.808	-0.334	-0.174
-331.216	122.081	-0.115	0.145
-330.202	-21.269	-0.114	0.070
-329.187	179.833	-0.253	0.373
-328.172	-180.187	0.462	-0.010
-327.158	-44.575	-0.266	0.133
-326.143	35.693	-0.159	-0.140
-325.129	-119.135	0.127	0.022
-324.114	-157.038	0.029	-0.002
-323.099	-27.706	-0.138	0.080
-322.085	142.812	0.310	-0.413
-321.070	-82.025	0.092	0.030
-320.056	-200.000	-0.014	0.253
-319.041	-24.908	-0.303	0.180
-318.026	-109.227	0.194	0.041
-317.012	-144.116	0.260	-0.024
-315.997	103.491	0.194	0.229
-314.983	446.945	-0.098	-0.216
-313.968	800.000	-0.067	-0.235
-312.953	62.194	-0.080	0.080
-311.939	-41.159	0.410	0.212
-310.924	-200.000	0.003	0.084
-309.910	-20.043	-0.380	0.236
-308.895	-200.000	0.030	-0.146
-307.880	-51.757	-0.031	-0.015
-306.866	-200.000	0.001	0.045
-305.851	-72.890	-0.110	-0.040
-304.837	-46.205	0.105	0.052
-303.822	40.300	0.149	0.135
-302.807	258.101	0.114	-0.196
-301.793	-105.983	-0.328	0.074
-300.778	-200.000	0.026	0.125
-299.764	1.404	0.434	0.313
-298.749	-70.586	0.130	0.049
-297.735	-51.923	0.173	0.081
-296.720	107.653	0.273	-0.327
-295.705	31.249	-0.311	-0.268
-294.691	800.000	-0.091	0.296
-293.676	-169.297	0.084	-0.003
-292.662	-86.894	0.381	-0.117
-291.647	-70.625	-0.312	0.118
-290.632	-161.879	-0.250	0.013
-289.618	182.138	-0.059	0.088
-288.603	10.631	0.223	0.171
-287.589	-37.688	0.118	0.063
-286.574	6.755	-0.030	-0.023
-285.559	-39.210	-0.285	-0.150
-284.545	-200.000	0.023	-0.134
-283.530	318.329	-0.100	0.190
-282.516	-113.107	0.130	-0.026
-281.501	268.087	-0.072	-0.126
-280.486	800.000	-0.083	-0.267
-279.472	145.070	0.195	0.261
-278.457	-39.233	-0.030	0.016
-277.443	-85.954	0.217	0.067
-276.428	147.119	-0.123	-0.166
-275.413	390.902	-0.084	0.175
-274.399	31.792	-0.169	0.146
-273.384	-93.189	-0.269	0.075
-272.370	796.600	0.099	0.274
-271.355	200.129	-0.093	0.143
-270.340	800.000	-0.047	-0.139
-269.326	-88.017	0.301	-0.091
-268.311	800.000	0.077	0.258
-267.297	-135.619	-0.207	0.025
-266.282	628.946	-0.054	0.137
-265.267	800.000	-0.037	0.127
-264.253	201.033	-0.158	-0.244
-263.238	-128.580	-0.271	0.038
-262.224	-55.947	-0.107	0.048
-261.209	-96.394	-0.333	-0.088
-260.195	79.610	0.153	-0.165
-259.180	171.490	-0.161	0.231
-258.165	144.158	-0.128	0.171
-257.151	-18.479	0.022	0.013
-256.136	-27.405	-0.113	-0.066
-255.122	-6.805	-0.250	-0.170
-254.107	-65.522	-0.072	0.029
-253.092	-65.561	-0.029	0.012
-252.078	-200.000	0.037	-0.280
-251.063	15.640	-0.173	0.136
-250.049	-39.052	-0.357	0.188
-249.034	-200.000	0.021	-0.110
-248.019	-200.000	-0.008	-0.274
-247.005	168.795	0.086	0.122
-245.990	281.408	-0.015	0.027
-244.976	12.548	0.075	0.058
-243.961	-24.238	-0.202	-0.120
-242.946	159.953	-0.131	-0.182
-241.932	635.234	-0.046	-0.116
-240.917	-172.491	0.299	-0.009
-239.903	-200.000	-0.003	-0.119
-238.888	-192.576	-0.271	-0.003
-237.873	-31.934	0.120	-0.067
-236.859	101.326	0.146	-0.170
-235.844	50.851	-0.224	0.213
-234.830	-87.925	0.332	-0.100
-233.815	-107.630	0.354	0.078
-232.800	-42.878	0.190	-0.096
-231.786	586.933	0.066	-0.162
-230.771	-200.000	0.059	0.404
-229.757	-200.000	-0.023	0.141
-228.742	-200.000	0.053	0.306
-227.727	5.769	-0.042	0.031
-226.713	117.420	0.187	0.230
-225.698	39.926	0.318	-0.285
-224.684	-23.317	-0.186	-0.112
-223.669	15.052	-0.218	-0.171
-222.655	-200.000	-0.062	-0.349
-221.640	-31.298	0.259	0.146
-220.625	-179.599	-0.252	0.005
-219.611	-200.000	0.000	-0.036
-218.596	-152.459	0.198	-0.014
-217.582	47.844	0.232	-0.217
-216.567	34.797	0.181	0.158
-215.552	-200.000	0.052	0.248
-214.538	287.117	-0.175	0.316
-213.523	2.883	-0.103	0.075
-212.509	800.000	0.043	-0.163
-211.494	800.000	0.028	-0.093
-210.479	-20.908	0.112	-0.069
-209.465	-163.145	0.135	0.006
-208.450	-19.617	-0.299	-0.185
-207.436	44.326	0.029	-0.027
-206.421	34.157	0.149	-0.129
-205.406	354.341	-0.164	-0.326
-204.392	-1.797	-0.136	-0.096
-203.377	-69.553	-0.166	-0.064
-202.363	426.671	0.069	-0.150
-201.348	-200.000	-0.027	0.389
-200.333	7.427	-0.194	0.145
-199.319	-36.129	-0.381	0.206
-198.304	-108.853	0.187	0.040
-197.290	-200.000	-0.432	-0.002
-196.275	-200.000	0.013	0.223
-195.260	-200.000	0.017	0.084
-194.246	-200.000	-0.013	0.186
-193.231	169.533	0.053	-0.076
-192.217	52.990	-0.100	-0.096
-191.202	-200.000	0.045	0.237
-190.187	61.732	-0.134	0.133
-189.173	-46.249	0.101	0.050
-188.158	85.034	0.120	-0.132
-187.144	-200.000	0.007	0.219
-186.129	-200.000	-0.035	-0.534
-185.114	116.262	-0.168	0.206
-184.100	-33.832	-0.142	0.078
-183.085	358.858	-0.075	0.151
-182.071	-200.000	-0.001	-0.154
-181.056	-43.759	0.266	0.134
-180.042	106.370	-0.139	0.165
-179.027	482.466	0.067	0.153
-178.012	211.446	-0.050	-0.078
-176.998	407.780	-0.069	0.146
-175.983	69.062	0.204	0.210
-174.969	-200.000	0.029	-0.406
-173.954	-170.402	0.136	0.005
-172.939	-200.000	-0.005	-0.095
-171.925	10.604	0.248	0.188
-170.910	-24.492	0.333	-0.198
-169.896	63.856	0.147	0.148
-168.881	-200.000	0.006	0.212
-167.866	371.567	-0.073	0.148
-166.852	-24.222	0.292	-0.174
-165.837	-119.661	-0.225	0.039
-164.823	-108.087	0.424	0.092
-163.808	-99.871	-0.319	-0.080
-162.793	-109.144	-0.513	0.109
-161.779	54.303	0.127	0.122
-160.764	-200.000	-0.012	0.360
-159.750	-107.161	-0.220	0.048
-158.735	481.269	0.167	0.378
-157.720	-73.900	0.392	-0.142
-156.706	-79.315	-0.164	-0.055
-155.691	-31.268	0.336	0.189
-154.677	-160.670	-0.053	0.003
-153.662	-43.155	0.209	0.106
-152.647	-200.000	-0.019	0.199
-151.633	-99.217	0.093	-0.024
-150.618	354.605	-0.043	0.085
-149.604	-69.196	0.111	-0.043
-148.589	-171.442	0.121	-0.004
-147.574	-200.000	-0.006	0.048
-146.560	-170.842	0.118	-0.004
-145.545	-69.880	-0.172	0.066
-144.531	702.805	0.029	0.075
-143.516	313.960	0.007	0.013
-142.502	-175.943	0.273	0.007
-141.487	316.713	-0.085	-0.160
-140.472	-200.000	-0.022	0.211
-139.458	281.243	-0.246	0.438
-138.443	-92.358	-0.126	0.035
-137.429	211.329	0.031	-0.048
-136.414	16.461	0.114	0.090
-135.399	112.024	-0.073	-0.088
-134.385	-109.707	-0.300	0.063
-133.370	-24.574	-0.300	-0.178
-132.356	571.678	-0.109	-0.265
-131.341	-144.358	0.154	-0.014
-130.326	-23.597	0.276	-0.165
-129.312	-84.221	-0.195	-0.062
-128.297	109.365	-0.133	-0.159
-127.283	-149.856	-0.219	0.017
-126.268	-11.887	0.084	0.055
-125.253	91.945	0.040	-0.044
-124.239	-1.041	0.090	0.064
-123.224	-49.610	-0.410	0.195
-122.210	-200.000	0.012	-0.060
-121.195	-200.000	0.013	0.223
-120.180	340.739	0.289	0.563
-119.166	54.918	-0.175	-0.168
-118.151	-113.116	0.104	0.020
-117.137	-91.734	-0.149	-0.042
-116.122	-85.325	-0.224	0.070
-115.107	-171.552	-0.260	-0.009
-114.093	-48.005	0.187	-0.090
-113.078	-144.708	-0.202	-0.019
-112.064	-80.899	-0.142	0.047
-111.049	685.281	-0.059	-0.153
-110.034	-200.000	-0.049	-0.221
-109.020	-139.118	0.271	-0.029
-108.005	-200.000	-0.022	0.280
-106.991	-200.000	-0.019	-0.241
-105.976	-157.506	-0.122	-0.007
-104.962	-59.846	-0.245	-0.104
-103.947	72.954	0.065	0.067
-102.932	-163.333	-0.165	-0.008
-101.918	-200.000	-0.030	-0.178
-100.903	20.062	-0.272	0.219
-99.889	800.000	-0.063	-0.192
-98.874	-180.813	0.051	-0.001
-97.859	-73.156	0.262	0.095
-96.845	800.000	-0.016	0.059
-95.830	-36.529	0.222	-0.119
-94.816	31.475	0.110	0.094
-93.801	-200.000	-0.024	0.192
-92.786	175.683	-0.055	0.079
-91.772	-27.025	0.229	0.133
-90.757	17.154	-0.295	-0.233
-89.743	659.145	0.176	0.450
-88.728	-168.728	0.232	-0.009
-87.713	-200.000	-0.017	0.198
-86.699	-200.000	-0.051	0.240
-85.684	-91.270	-0.065	-0.018
-84.670	-87.781	-0.271	-0.081
-83.655	-54.639	-0.313	-0.141
-82.640	0.252	0.213	-0.151
-81.626	375.419	0.075	0.151
-80.611	292.673	0.180	0.327
-79.597	-136.505	0.298	-0.034
-78.582	18.513	-0.071	0.056
-77.567	-24.063	-0.081	-0.048
-76.553	-200.000	-0.079	-0.355
-75.538	-172.432	0.412	0.013
-74.524	-24.604	0.258	0.152
-73.509	128.855	0.108	-0.137
-72.494	773.972	-0.061	-0.165
-71.480	-200.000	0.030	0.217
-70.465	44.057	0.396	-0.361
-69.451	-200.000	-0.026	-0.372
-68.436	-200.000	0.020	0.120
-67.422	-17.531	0.233	0.145
-66.407	19.065	-0.110	0.087
-65.392	62.601	-0.345	0.343
-64.378	100.892	-0.061	-0.071
-63.363	13.068	-0.093	-0.072
-62.349	514.864	0.062	0.145
-61.334	-42.379	-0.751	-0.381
-60.319	15.911	0.434	0.340
-59.305	800.000	-0.143	-0.546
-58.290	279.290	0.449	0.796
-57.276	800.000	0.576	1.711
-56.261	-200.000	88.923	490.725
-55.246	495.400	1411.481	3223.547
-54.232	179.025	2634.904	3830.145
-53.217	114.640	2260.892	2738.940
-52.203	46.305	1778.292	1638.374
-51.188	39.625	1581.347	1409.323
-50.173	37.142	1553.280	1366.797
-49.159	53.823	1598.647	1526.236
-48.144	57.496	1618.510	1571.406
-47.130	40.185	1576.791	1409.034
-46.115	36.846	1561.645	1371.839
-45.100	36.656	1558.082	1367.314
-44.086	36.796	1555.328	1365.831
-43.071	36.604	1553.582	1362.888
-42.057	36.584	1552.096	1361.394
-41.042	36.617	1550.762	1360.402
-40.027	36.571	1549.358	1358.789
-39.013	36.582	1547.909	1357.541
-37.998	36.640	1545.898	1356.130
-36.984	36.670	1544.864	1355.382
-35.969	36.540	1543.915	1353.583
-34.954	36.672	1542.183	1352.937
-33.940	36.678	1540.758	1351.677
-32.925	36.726	1539.035	1350.442
-31.911	36.700	1538.231	1349.502
-30.896	36.663	1537.123	1348.220
-29.881	36.867	1535.031	1347.755
-28.867	36.823	1534.343	1346.787
-27.852	36.656	1532.300	1343.779
-26.838	36.697	1530.580	1342.502
-25.823	36.684	1529.400	1341.324
-24.809	36.713	1526.980	1339.354
-23.794	36.675	1526.053	1338.221
-22.779	36.766	1524.897	1337.785
-21.765	36.688	1523.846	1336.268
-20.750	36.729	1522.850	1335.624
-19.736	36.681	1521.721	1334.253
-18.721	36.726	1520.253	1333.225
-17.706	36.615	1519.337	1331.604
-16.692	36.648	1518.675	1331.195
-15.677	36.615	1517.128	1329.563
-14.663	36.684	1515.999	1328.995
-13.648	36.632	1515.215	1327.894
-12.633	36.592	1514.027	1326.528
-11.619	36.656	1512.957	1325.976
-10.604	36.570	1512.461	1324.902
-9.590	36.599	1511.432	1324.140
-8.575	36.661	1510.395	1323.604
-7.560	36.572	1509.658	1322.301
-6.546	36.576	1508.650	1321.394
-5.531	36.558	1507.985	1320.637
-4.517	36.596	1507.005	1319.985
-3.502	36.595	1505.697	1318.775
-2.487	36.574	1504.682	1317.692
-1.473	36.580	1503.504	1316.653
-0.458	36.616	1501.965	1315.498
0.556	37.367	1492.470	1305.498
1.571	34.580	1465.465	1263.349
2.586	30.708	1401.297	1183.355
3.600	28.671	1314.990	1098.203
4.615	26.402	1266.136	1044.223
5.629	22.164	1206.648	971.698
6.644	12.904	1117.943	852.526
7.659	5.679	1074.036	782.976
8.673	4.637	1067.808	773.185
9.688	4.489	1065.564	770.759
10.702	4.416	1063.662	768.955
11.717	4.519	1062.184	768.326
12.731	6.886	1065.064	782.068
13.746	15.496	1076.801	833.529
14.761	21.008	1083.467	866.069
15.775	20.458	1081.686	861.842
16.790	19.336	1079.455	854.428
17.804	18.444	1076.776	847.820
18.819	17.387	1075.081	841.189
19.834	16.877	1074.137	837.857
20.848	16.735	1072.578	835.865
21.863	16.461	1072.339	834.252
22.877	16.232	1071.615	832.487
23.892	16.055	1070.541	830.707
24.907	16.162	1069.632	830.454
25.921	16.017	1068.843	829.052
26.936	16.045	1068.186	828.606
27.950	16.129	1066.856	827.914
28.965	16.060	1066.029	826.862
29.980	16.052	1065.380	826.249
30.994	16.302	1063.926	826.269
32.009	16.300	1063.209	825.631
33.023	16.314	1062.261	824.890
34.038	16.345	1061.014	823.997
35.053	16.274	1060.464	823.151
36.067	16.288	1059.083	822.076
37.082	16.217	1058.287	821.042
38.096	16.217	1057.705	820.515
39.111	16.422	1057.065	820.945
40.126	16.289	1056.218	819.567
41.140	16.253	1055.132	818.475
42.155	16.040	1054.058	816.538
43.169	15.847	1053.259	814.913
44.184	15.858	1052.033	813.947
45.199	15.928	1050.552	813.067
46.213	15.949	1049.922	812.607
47.228	15.946	1049.098	811.886
48.242	16.075	1048.155	811.701
49.257	16.168	1047.240	811.372
50.271	16.050	1046.472	810.138
51.286	16.096	1045.321	809.395
52.301	16.239	1044.658	809.496
53.315	16.176	1043.814	808.471
54.330	16.155	1042.946	807.624
55.344	16.038	1041.776	806.087
56.359	15.957	1041.219	805.198
57.374	16.030	1039.950	804.493
58.388	16.040	1039.041	803.769
59.403	15.907	1038.209	802.417
60.417	15.870	1037.515	801.635
61.432	15.885	1036.981	801.222
62.447	15.937	1036.051	800.679
63.461	15.684	1035.492	798.977
64.476	15.757	1033.873	798.001
65.490	15.733	1033.347	797.413
66.505	15.761	1032.249	796.626
67.520	15.717	1031.740	795.956
68.534	15.794	1030.960	795.645
69.549	15.848	1030.022	795.108
70.563	15.868	1029.023	794.358
71.578	15.931	1028.502	794.187
72.593	15.781	1027.279	792.465
73.607	15.557	1026.799	790.970
74.622	15.600	1025.748	790.290
75.636	15.511	1025.469	789.586
76.651	15.686	1024.382	789.503
77.666	15.573	1023.752	788.417
78.680	15.715	1022.695	788.198
79.695	15.605	1022.090	787.148
80.709	15.672	1021.652	787.057
81.724	15.856	1020.569	787.011
82.739	15.850	1020.049	786.514
83.753	15.926	1018.861	785.883
84.768	16.139	1018.345	786.406
85.782	16.171	1017.570	785.889
86.797	16.328	1017.454	786.460
87.812	16.292	1016.179	785.238
88.826	16.033	1015.761	783.641
89.841	16.106	1014.711	783.101
90.855	16.117	1014.116	782.624
91.870	16.219	1012.791	782.004
92.884	16.296	1012.320	781.930
93.899	16.232	1011.649	781.046
94.914	16.300	1010.182	780.159
95.928	16.375	1009.933	780.241
96.943	16.278	1009.628	779.491
97.957	16.254	1008.743	778.627
98.972	16.126	1007.859	777.284
99.987	16.188	1007.226	777.013
101.001	16.288	1006.135	776.564
102.016	16.278	1005.063	775.620
103.030	16.358	1004.243	775.286
104.045	16.151	1003.541	773.726
105.060	16.301	1002.060	773.204
106.074	16.082	1001.820	771.950
107.089	16.044	1000.416	770.626
108.103	15.937	999.544	769.397
109.118	15.712	998.883	767.790
110.133	15.715	997.825	766.923
111.147	15.766	996.996	766.453
112.162	15.838	995.882	765.856
113.176	15.876	995.217	765.447
114.191	15.867	994.338	764.664
115.206	15.985	993.380	764.394
116.220	16.039	992.507	763.900
117.235	16.081	991.391	763.164
118.249	15.926	990.768	761.916
119.264	15.885	990.349	761.340
120.279	15.800	989.287	760.071
121.293	15.898	988.434	759.794
122.308	15.746	987.620	758.413
123.322	15.796	986.756	757.909
124.337	15.638	985.730	756.342
125.352	15.639	984.556	755.379
126.366	15.712	983.292	754.669
127.381	15.772	982.270	754.087
128.395	15.812	981.131	753.328
129.410	15.719	980.639	752.466
130.424	15.747	979.732	751.827
131.439	15.888	978.478	751.428
132.454	15.798	977.932	750.544
133.468	15.957	977.321	750.713
134.483	16.074	976.459	750.506
135.497	16.062	975.817	749.896
136.512	16.046	975.132	749.229
137.527	16.067	974.416	748.707
138.541	15.912	973.641	747.357
139.556	15.897	973.122	746.825
140.570	16.003	972.348	746.636
141.585	15.974	971.635	745.897
142.600	16.144	971.055	746.136
143.614	16.191	970.048	745.504
144.629	16.232	969.208	744.974
145.643	16.340	969.087	745.291
146.658	16.281	967.775	743.957
147.673	16.276	966.495	742.883
148.687	15.998	965.891	741.132
149.702	16.033	964.791	740.374
150.716	15.897	964.247	739.294
151.731	15.991	962.999	738.684
152.746	15.980	962.319	738.050
153.760	16.068	961.767	737.947
154.775	16.036	960.801	736.999
155.789	16.183	959.926	736.906
156.804	16.196	959.190	736.334
157.819	16.119	958.483	735.389
158.833	16.252	957.876	735.437
159.848	16.303	957.412	735.239
160.862	16.385	956.816	735.073
161.877	16.347	956.108	734.300
162.892	16.278	954.927	733.026
163.906	16.097	953.897	731.385
164.921	15.968	953.209	730.233
165.935	16.039	952.090	729.619
166.950	16.065	951.089	728.902
167.964	16.111	950.055	728.243
168.979	16.109	949.110	727.443
169.994	16.181	947.832	726.713
171.008	16.164	947.341	726.198
172.023	16.099	946.629	725.308
173.037	16.122	946.290	725.081
174.052	16.439	945.065	725.442
175.067	16.396	944.361	724.652
176.081	16.216	943.484	723.145
177.096	16.146	942.462	721.996
178.110	15.947	941.786	720.562
179.125	16.116	940.945	720.580
180.140	16.140	940.439	720.230
181.154	16.060	939.451	719.070
182.169	16.275	938.723	719.365
183.183	16.322	938.456	719.294
184.198	16.317	937.806	718.712
185.213	16.373	936.807	718.121
186.227	16.359	936.122	717.473
187.242	16.345	936.058	717.301
188.256	16.454	935.400	717.198
189.271	16.550	934.729	717.025
190.286	16.507	933.637	715.943
191.300	16.375	932.805	714.681
192.315	16.175	931.564	712.822
193.329	16.023	930.775	711.516
194.344	16.166	930.625	711.942
195.359	16.157	929.606	711.059
196.373	16.220	929.202	710.953
197.388	16.368	928.805	711.209
198.402	16.459	928.814	711.538
199.417	16.621	928.048	711.570
200.432	16.556	928.320	711.442
201.446	16.616	927.753	711.194
202.461	16.751	927.423	711.449
203.475	16.935	926.752	711.644
204.490	16.819	925.931	710.461
205.504	16.702	924.987	709.184
206.519	16.572	924.373	708.107
207.534	16.518	923.156	706.886
208.548	16.573	922.652	706.669
209.563	16.497	922.238	705.969
210.577	16.507	921.287	705.223
211.592	16.645	920.511	705.142
212.607	16.639	920.143	704.770
213.621	16.638	919.899	704.520
214.636	16.878	918.688	704.526
215.650	16.708	918.161	703.353
216.665	16.732	917.627	702.982
217.680	16.726	917.341	702.675
218.694	16.918	916.610	702.848
219.709	16.965	916.240	702.696
220.723	16.880	915.505	701.720
221.738	16.901	914.353	700.862
222.753	16.836	913.630	699.977
223.767	16.725	913.455	699.322
224.782	16.813	912.948	699.236
225.796	17.018	911.940	699.246
226.811	17.102	910.986	698.801
227.826	17.087	910.449	698.263
228.840	16.956	909.715	697.101
229.855	16.912	908.821	696.175
230.869	16.915	908.503	695.881
231.884	16.919	907.741	695.252
232.899	16.928	906.765	694.481
233.913	16.876	905.836	693.496
234.928	16.776	905.516	692.777
235.942	16.761	904.876	692.164
236.957	16.790	904.268	691.760
237.972	16.751	903.799	691.179
238.986	16.875	902.996	691.011
240.001	16.998	902.035	690.713
241.015	16.965	901.584	690.174
242.030	16.983	901.038	689.766
243.045	17.024	900.369	689.362
244.059	16.918	899.781	688.421
245.074	16.941	899.126	687.949
246.088	17.092	898.467	687.999
247.103	17.056	898.367	687.713
248.117	17.155	897.653	687.508
249.132	17.160	897.056	687.011
250.147	17.257	896.663	687.041
251.161	17.413	895.679	686.857
252.176	17.518	895.339	686.956
253.190	17.465	894.697	686.191
254.205	17.574	893.926	685.976
255.220	17.539	893.827	685.698
256.234	17.703	892.410	685.212
257.249	17.481	892.403	684.251
258.263	17.599	891.670	684.104
259.278	17.649	890.835	683.602
260.293	17.550	890.305	682.739
261.307	17.635	890.039	682.816
262.322	17.851	889.142	682.933
263.336	17.869	888.437	682.403
264.351	17.829	887.748	681.653
265.366	17.767	887.405	681.081
266.380	17.886	886.984	681.173
267.395	17.855	886.249	680.425
268.409	17.785	885.370	679.409
269.424	17.596	884.624	678.024
270.439	17.827	883.549	678.059
271.453	17.750	882.812	677.127
272.468	17.638	882.223	676.172
273.482	17.693	881.545	675.811
274.497	17.660	880.964	675.175
275.512	17.719	880.155	674.729
276.526	17.597	879.596	673.759
277.541	17.743	878.670	673.566
278.555	17.670	878.386	673.000
279.570	17.782	877.805	672.937
280.585	17.872	877.078	672.674
281.599	17.965	876.753	672.734
282.614	17.878	876.219	671.923
283.628	17.847	875.326	671.054
284.643	17.806	874.659	670.324
285.657	17.842	874.187	670.043
286.672	17.770	873.727	669.347
287.687	17.909	873.257	669.476
288.701	17.708	873.037	668.460
289.716	17.881	872.394	668.586
290.730	17.976	871.324	668.077
291.745	17.818	870.810	667.005
292.760	18.093	870.303	667.634
293.774	18.118	869.390	666.970
294.789	18.090	869.050	666.543
295.803	18.163	868.521	666.361
296.818	17.920	868.047	664.995
297.833	17.986	867.297	664.617
298.847	17.859	866.660	663.576
299.862	18.003	865.799	663.417
300.876	18.176	864.965	663.392
301.891	18.003	864.741	662.491
302.906	18.115	863.904	662.224
303.920	18.216	863.514	662.256
304.935	18.317	862.888	662.108
305.949	18.209	862.351	661.219
306.964	18.441	861.107	661.103
307.979	18.327	860.806	660.376
308.993	18.236	860.319	659.592
310.008	18.346	859.979	659.697
311.022	18.412	859.099	659.217
312.037	18.381	858.563	658.628
313.052	18.137	858.153	657.318
314.066	18.258	857.393	657.140
315.081	18.173	856.888	656.371
316.095	18.117	856.223	655.587
317.110	18.215	855.690	655.498
318.125	18.115	855.233	654.709
319.139	18.175	854.425	654.261
320.154	18.208	854.039	654.032
321.168	18.193	853.399	653.428
322.183	18.263	852.802	653.179
323.197	18.159	852.710	652.654
324.212	18.385	851.904	652.841
325.227	18.129	851.386	651.412
326.241	18.299	850.799	651.552
327.256	18.248	850.315	650.931
328.270	18.270	849.549	650.368
329.285	18.182	849.175	649.691
330.300	18.215	848.476	649.223
331.314	18.156	847.711	648.359
332.329	18.391	846.811	648.500
333.343	18.409	846.390	648.189
334.358	18.502	845.558	647.848
335.373	18.555	845.308	647.799
336.387	18.505	844.846	647.200
337.402	18.338	844.912	646.562
338.416	18.535	844.074	646.606
339.431	18.665	843.572	646.654
340.446	18.717	842.946	646.313
341.460	18.811	842.287	646.102
342.475	18.739	841.775	645.381
343.489	18.734	841.417	645.031
344.504	18.937	840.822	645.282
345.519	18.860	840.183	644.444
346.533	18.780	839.815	643.807
347.548	18.990	839.078	643.969
348.562	18.702	838.700	642.547
349.577	18.728	837.749	641.855
350.592	18.695	837.361	641.379
351.606	18.667	836.951	640.903
352.621	18.759	836.100	640.539
353.635	18.594	836.078	639.850
354.650	18.614	835.749	639.615
355.665	18.828	834.935	639.732
356.679	18.827	834.696	639.490
357.694	18.771	834.112	638.779
358.708	18.864	833.705	638.756
359.723	18.752	833.383	638.034
360.738	18.804	832.647	637.609
361.752	18.853	832.182	637.377
362.767	18.836	831.678	636.874
363.781	18.965	831.725	637.331
364.796	19.088	830.949	637.133
365.810	19.046	830.614	636.668
366.825	19.089	830.414	636.617
367.840	19.267	829.804	636.750
368.854	19.293	829.358	636.448
369.869	19.246	828.881	635.850
370.883	19.187	828.149	635.017
371.898	19.027	827.841	634.133
372.913	19.181	827.114	634.089
373.927	19.232	826.657	633.867
374.942	19.406	825.693	633.711
375.956	19.196	824.933	632.304
376.971	19.296	824.541	632.315
377.986	19.307	823.876	631.788
379.000	19.515	823.409	632.135
380.015	19.383	823.293	631.507
381.029	19.406	822.332	630.798
382.044	19.330	821.859	630.100
383.059	19.446	821.270	630.018
384.073	19.393	820.894	629.479
385.088	19.477	820.320	629.290
386.102	19.391	819.945	628.636
387.117	19.192	819.669	627.640
388.132	19.167	818.823	626.846
389.146	19.304	818.332	626.916
390.161	19.399	817.607	626.648
391.175	19.502	817.602	626.964
392.190	19.438	817.107	626.296
393.205	19.309	816.831	625.560
394.219	19.476	815.900	625.400
395.234	19.338	815.856	624.809
396.248	19.273	815.073	623.920
397.263	19.146	814.913	623.283
398.278	19.150	814.366	622.820
399.292	19.230	813.304	622.243
400.307	19.224	813.108	622.018
401.321	19.306	812.869	622.076
402.336	19.205	812.743	621.559
403.350	19.234	812.088	621.109
404.365	19.409	811.662	621.356
405.380	19.562	810.776	621.174
406.394	19.484	810.604	620.708
407.409	19.493	810.388	620.521
408.423	19.747	809.729	620.873
409.438	19.812	809.354	620.764
410.453	19.854	808.979	620.572
411.467	19.744	808.652	619.871
412.482	19.811	808.018	619.570
413.496	19.760	807.378	618.842
414.511	20.020	807.193	619.577
415.526	19.804	806.812	618.456
416.540	19.927	806.554	618.645
417.555	19.963	806.080	618.353
418.569	19.827	805.336	617.243
419.584	19.867	804.934	617.023
420.599	19.921	804.296	616.672
421.613	153.790	1367.772	1783.119
422.628	133.448	1449.888	1783.237
