DTS Sentinel unit serial number:	SN413079Multiplexer serial number:	ORYXHardware model number:	OX4-SRSoftware version number:	ORYX F/W v4.00 Oryx Data Collector v3.7.2.0data status	okinstallation	princeton_trtdifferential loss correction	single-endedforward channel	channel 3reverse channel	N/Adate	2019/09/13time	02:04:35forward acquisition time	60.00reverse acquisition time	0.00gamma	496.2192k internal	0.2334k external	0.2334temperature offset calibration	1.0126default loss term (dB/km)	0.3790temperature slope calibration	1.0000multiplexer offset coefficient	1.0000multiplexer slope coefficient	1.0000fibre end	0.00T internal ref (°C)	27.61T ext. ref 1 (°C)	3.86T ext. ref 2 (°C)	22.25length (m)	temperature (°C)	Stokes	anti-Stokes-747.200	106.697	-0.148	0.177
-746.185	2.801	0.131	-0.095
-745.171	290.143	-0.045	-0.083
-744.156	-200.000	-0.030	0.189
-743.142	534.844	0.105	0.250
-742.127	-91.129	0.090	0.026
-741.112	7.918	0.263	-0.199
-740.098	304.269	-0.156	0.290
-739.083	800.000	-0.020	-0.086
-738.069	-92.860	-0.317	0.089
-737.054	-103.636	0.276	-0.065
-736.039	1.941	-0.129	-0.094
-735.025	-49.743	0.379	-0.181
-734.010	-92.366	-0.151	-0.043
-732.996	69.377	-0.262	-0.271
-731.981	-88.989	-0.066	0.020
-730.966	-182.986	-0.335	-0.006
-729.952	146.348	-0.046	-0.062
-728.937	-155.823	0.228	0.015
-727.923	-131.640	0.162	0.021
-726.908	-116.810	0.058	-0.011
-725.894	150.164	-0.071	-0.096
-724.879	103.478	-0.109	-0.128
-723.864	13.186	-0.431	0.335
-722.850	24.851	-0.097	-0.081
-721.835	45.827	0.225	-0.209
-720.821	253.775	-0.093	-0.160
-719.806	128.685	-0.101	0.130
-718.791	-111.760	-0.343	-0.070
-717.777	-200.000	-0.003	0.078
-716.762	-19.178	-0.165	0.103
-715.748	59.252	-0.123	-0.122
-714.733	130.857	-0.190	0.245
-713.718	9.492	-0.167	0.127
-712.704	-200.000	-0.001	-0.363
-711.689	56.969	0.073	0.071
-710.675	-165.117	0.215	0.010
-709.660	800.000	0.112	0.384
-708.645	800.000	0.036	-0.151
-707.631	-200.000	0.028	-0.259
-706.616	485.529	-0.045	-0.102
-705.602	-77.977	-0.336	-0.116
-704.587	221.925	0.293	-0.473
-703.572	156.098	0.117	-0.162
-702.558	78.653	0.014	0.015
-701.543	-68.542	0.124	-0.048
-700.529	-200.000	-0.011	-0.206
-699.514	-54.471	0.469	-0.213
-698.499	394.500	-0.069	0.145
-697.485	-200.000	-0.002	-0.106
-696.470	96.541	0.144	-0.165
-695.456	-122.367	-0.222	0.036
-694.441	388.058	-0.076	-0.157
-693.426	346.045	-0.021	-0.042
-692.412	-119.609	0.383	-0.067
-691.397	800.000	0.042	0.176
-690.383	12.202	-0.114	0.088
-689.368	75.030	-0.174	-0.184
-688.354	-200.000	0.005	0.054
-687.339	-111.329	0.361	-0.074
-686.324	-158.429	0.292	0.017
-685.310	98.392	-0.146	-0.169
-684.295	800.000	0.090	-0.274
-683.281	491.145	0.125	-0.286
-682.266	-115.998	-0.275	-0.051
-681.251	20.122	-0.085	0.069
-680.237	-146.075	0.026	-0.002
-679.222	-125.108	-0.149	0.023
-678.208	-200.000	-0.009	-0.200
-677.193	58.974	-0.205	-0.202
-676.178	-182.907	0.112	-0.002
-675.164	39.356	0.127	0.114
-674.149	-22.457	0.241	0.146
-673.135	-200.000	0.023	-0.223
-672.120	-200.000	0.003	-0.084
-671.105	481.281	-0.067	0.153
-670.091	520.597	0.072	-0.169
-669.076	-34.949	-0.288	0.158
-668.062	-21.881	-0.046	0.028
-667.047	105.782	0.093	-0.110
-666.032	-7.524	-0.150	0.102
-665.018	-64.791	0.145	-0.059
-664.003	52.880	-0.082	-0.079
-662.989	-200.000	-0.051	0.345
-661.974	198.477	0.058	-0.089
-660.959	516.618	-0.123	0.289
-659.945	-200.000	0.013	0.246
-658.930	-200.000	-0.042	0.373
-657.916	222.233	0.088	0.143
-656.901	-111.237	0.094	-0.019
-655.886	-68.380	0.273	-0.106
-654.872	-200.000	-0.004	0.164
-653.857	-77.554	0.154	0.053
-652.843	102.124	0.074	-0.087
-651.828	800.000	0.049	0.211
-650.814	-28.777	0.173	0.100
-649.799	-200.000	0.012	-0.190
-648.784	-200.000	-0.001	-0.129
-647.770	-29.137	-0.261	0.150
-646.755	127.102	-0.113	-0.143
-645.741	14.279	-0.227	-0.177
-644.726	98.973	-0.045	0.052
-643.711	-153.914	-0.296	0.020
-642.697	570.202	0.129	-0.314
-641.682	-64.166	0.305	-0.125
-640.668	-200.000	0.018	0.225
-639.653	191.185	-0.049	0.073
-638.638	-200.000	-0.036	-0.254
-637.624	253.364	0.184	-0.314
-636.609	300.260	-0.072	-0.133
-635.595	308.615	-0.195	-0.365
-634.580	-200.000	0.034	0.168
-633.565	-200.000	-0.003	-0.104
-632.551	430.047	0.063	-0.137
-631.536	-8.345	0.119	-0.080
-630.522	-152.983	0.275	0.019
-629.507	-50.205	-0.320	-0.151
-628.492	-184.222	-0.064	-0.001
-627.478	-191.995	0.038	0.000
-626.463	196.927	-0.074	-0.113
-625.449	-15.073	0.128	0.082
-624.434	341.756	0.081	0.158
-623.419	3.992	0.117	0.086
-622.405	-200.000	0.004	0.298
-621.390	-51.272	-0.284	0.133
-620.376	213.421	-0.057	-0.089
-619.361	-113.003	-0.078	-0.015
-618.346	800.000	0.122	0.357
-617.332	-200.000	0.026	0.188
-616.317	232.021	-0.160	-0.263
-615.303	-73.523	0.246	0.090
-614.288	-200.000	0.046	-0.252
-613.273	-200.000	-0.016	-0.091
-612.259	-155.549	-0.287	0.019
-611.244	-200.000	0.037	-0.209
-610.230	139.300	-0.057	0.076
-609.215	-32.586	-0.222	0.124
-608.201	70.915	0.239	0.247
-607.186	39.126	-0.107	-0.095
-606.171	800.000	-0.051	0.176
-605.157	31.794	0.062	-0.053
-604.142	-79.726	-0.128	-0.043
-603.128	-166.137	-0.365	-0.016
-602.113	-142.107	-0.233	0.023
-601.098	-200.000	0.041	-0.266
-600.084	-95.743	0.438	0.117
-599.069	-51.343	0.318	-0.149
-598.055	-86.689	0.366	-0.112
-597.040	431.599	-0.140	-0.303
-596.025	126.806	0.235	0.298
-595.011	4.445	-0.215	0.158
-593.996	196.611	-0.065	-0.098
-592.982	76.357	0.251	0.266
-591.967	-125.623	-0.020	0.003
-590.952	-48.787	0.207	0.099
-589.938	-115.988	0.352	-0.066
-588.923	-104.278	-0.249	-0.058
-587.909	800.000	-0.062	-0.227
-586.894	-200.000	-0.036	0.227
-585.879	-9.680	-0.170	0.113
-584.865	29.107	-0.046	-0.039
-583.850	-34.125	-0.336	-0.184
-582.836	-44.230	0.309	-0.155
-581.821	-111.988	0.085	0.017
-580.806	557.039	0.100	0.241
-579.792	-5.801	-0.110	-0.075
-578.777	-40.484	0.270	0.140
-577.763	47.886	-0.169	0.158
-576.748	248.471	0.149	-0.252
-575.733	299.310	0.118	0.217
-574.719	9.831	-0.158	-0.120
-573.704	319.660	-0.248	-0.470
-572.690	104.645	0.157	-0.184
-571.675	-4.480	0.086	0.060
-570.661	-200.000	0.031	0.231
-569.646	-163.416	-0.194	-0.009
-568.631	367.712	0.095	-0.192
-567.617	468.725	-0.133	-0.298
-566.602	800.000	0.041	0.140
-565.588	800.000	0.013	-0.046
-564.573	-137.794	-0.390	0.044
-563.558	-200.000	0.025	0.538
-562.544	-39.426	0.209	0.109
-561.529	-200.000	0.014	-0.196
-560.515	-27.200	0.115	0.067
-559.500	40.527	0.058	0.052
-558.485	125.257	-0.072	0.090
-557.471	-3.951	0.186	-0.129
-556.456	800.000	0.079	-0.238
-555.442	1.074	-0.229	-0.164
-554.427	-80.294	-0.204	-0.068
-553.412	74.948	-0.317	-0.333
-552.398	398.555	-0.093	0.194
-551.383	-90.512	0.322	-0.093
-550.369	154.416	-0.065	0.088
-549.354	800.000	-0.018	0.076
-548.339	800.000	0.103	0.291
-547.325	500.100	-0.011	0.026
-546.310	-200.000	0.049	-0.335
-545.296	-200.000	-0.010	0.054
-544.281	-122.068	0.130	0.021
-543.266	-18.493	-0.131	0.081
-542.252	-200.000	0.009	-0.234
-541.237	142.654	-0.091	0.120
-540.223	-62.182	-0.151	-0.063
-539.208	-111.916	0.125	-0.025
-538.193	-10.414	0.062	-0.041
-537.179	-200.000	0.039	-0.351
-536.164	37.452	0.377	-0.334
-535.150	-10.252	-0.084	0.055
-534.135	-63.694	-0.345	0.141
-533.121	69.218	-0.119	0.122
-532.106	-0.690	0.072	-0.051
-531.091	120.483	-0.088	-0.109
-530.077	129.052	0.085	0.108
-529.062	134.835	-0.193	-0.250
-528.048	62.639	-0.285	-0.284
-527.033	-200.000	-0.033	-0.163
-526.018	-200.000	0.085	0.445
-525.004	-162.161	0.170	-0.008
-523.989	98.932	-0.160	0.185
-522.975	303.359	0.064	0.118
-521.960	475.340	0.025	0.057
-520.945	390.138	0.021	-0.043
-519.931	-200.000	0.017	-0.127
-518.916	-200.000	0.001	-0.060
-517.902	-88.233	-0.358	0.107
-516.887	-54.276	-0.101	-0.046
-515.872	-200.000	0.029	-0.144
-514.858	-107.483	-0.215	0.047
-513.843	90.331	-0.181	0.202
-512.829	179.362	-0.069	-0.101
-511.814	-48.632	-0.266	-0.127
-510.799	177.745	0.079	-0.114
-509.785	-53.305	-0.258	-0.118
-508.770	-200.000	-0.023	0.265
-507.756	-200.000	-0.013	-0.161
-506.741	-175.345	0.115	-0.003
-505.726	175.942	-0.192	-0.277
-504.712	-200.000	0.032	0.199
-503.697	-54.204	0.496	0.224
-502.683	34.141	0.198	0.172
-501.668	-200.000	-0.071	-0.384
-500.653	-200.000	-0.028	0.329
-499.639	33.445	0.171	-0.148
-498.624	8.248	-0.362	0.271
-497.610	-175.832	-0.108	0.003
-496.595	98.709	0.180	-0.206
-495.581	-163.913	-0.158	0.007
-494.566	27.803	-0.288	0.242
-493.551	139.024	-0.222	0.291
-492.537	-28.360	-0.189	0.109
-491.522	58.508	-0.301	0.294
-490.508	-112.517	-0.122	-0.024
-489.493	91.050	-0.178	-0.199
-488.478	-140.363	0.279	-0.029
-487.464	800.000	0.044	-0.159
-486.449	3.398	-0.067	0.048
-485.435	-85.470	0.428	0.133
-484.420	-161.278	0.186	0.010
-483.405	-108.449	-0.277	-0.059
-482.391	26.871	-0.177	-0.148
-481.376	206.900	0.243	-0.377
-480.362	-77.771	0.329	-0.113
-479.347	800.000	0.077	0.216
-478.332	334.529	-0.133	-0.256
-477.318	800.000	0.078	-0.222
-476.303	-200.000	-0.040	0.229
-475.289	1.048	-0.200	-0.143
-474.274	-91.716	0.167	0.047
-473.259	-191.420	-0.258	-0.003
-472.245	268.277	0.139	0.243
-471.230	22.275	-0.115	0.094
-470.216	34.997	-0.277	-0.241
-469.201	329.095	-0.058	-0.111
-468.186	181.724	0.209	-0.307
-467.172	635.675	0.062	-0.157
-466.157	-86.436	0.207	0.063
-465.143	-41.262	0.286	-0.147
-464.128	800.000	0.031	0.107
-463.113	-142.726	0.238	-0.023
-462.099	-10.815	0.233	-0.153
-461.084	70.326	-0.147	-0.151
-460.070	-200.000	0.026	-0.271
-459.055	800.000	0.078	0.282
-458.040	-200.000	0.037	-0.218
-457.026	9.835	-0.112	-0.084
-456.011	125.854	-0.043	0.054
-454.997	-53.420	-0.117	0.053
-453.982	232.622	0.121	-0.197
-452.968	48.438	-0.058	0.054
-451.953	-168.739	0.209	0.008
-450.938	303.662	-0.026	-0.048
-449.924	5.395	0.118	-0.086
-448.909	-94.478	-0.259	0.070
-447.895	800.000	0.111	-0.430
-446.880	6.418	-0.158	0.116
-445.865	-40.230	0.195	-0.101
-444.851	6.635	0.068	0.050
-443.836	-91.600	0.168	-0.047
-442.822	-79.566	0.174	-0.059
-441.807	-39.352	-0.379	0.198
-440.792	-200.000	0.253	0.001
-439.778	-61.974	0.089	0.037
-438.763	140.896	0.186	0.244
-437.749	-145.787	0.055	0.005
-436.734	-200.000	0.040	0.239
-435.719	-138.393	0.072	-0.008
-434.705	800.000	0.092	-0.372
-433.690	309.824	0.149	0.276
-432.676	-41.161	-0.271	0.139
-431.661	-18.500	-0.207	-0.128
-430.646	99.291	-0.189	-0.217
-429.632	-200.000	-0.036	-0.425
-428.617	232.369	0.039	-0.063
-427.603	-88.119	0.173	0.052
-426.588	-200.000	0.032	-0.169
-425.573	58.783	-0.095	0.093
-424.559	137.405	0.299	-0.388
-423.544	800.000	0.129	-0.409
-422.530	165.930	0.134	0.188
-421.515	-200.000	-0.208	0.001
-420.500	576.445	0.083	0.202
-419.486	-24.861	-0.222	0.131
-418.471	185.957	-0.072	0.106
-417.457	120.036	0.127	-0.156
-416.442	-48.867	0.118	-0.056
-415.428	349.834	-0.192	0.377
-414.413	-71.147	0.186	0.069
-413.398	-88.810	0.141	0.042
-412.384	780.417	0.152	0.413
-411.369	-35.512	-0.146	0.079
-410.355	207.043	-0.024	-0.038
-409.340	306.764	-0.114	0.211
-408.325	-200.000	-0.021	0.195
-407.311	-116.958	-0.437	0.079
-406.296	-123.395	0.050	-0.008
-405.282	800.000	0.074	0.221
-404.267	-200.000	-0.024	0.140
-403.252	-71.368	0.160	0.060
-402.238	738.584	-0.027	0.071
-401.223	40.047	0.123	-0.110
-400.209	-200.000	0.026	-0.258
-399.194	164.409	-0.240	0.335
-398.179	-99.476	0.264	-0.066
-397.165	123.708	0.161	-0.200
-396.150	247.694	-0.097	0.162
-395.136	-157.122	-0.120	0.007
-394.121	-60.284	0.099	-0.042
-393.106	800.000	0.016	0.057
-392.092	-200.000	-0.016	-0.106
-391.077	-193.716	-0.126	-0.001
-390.063	469.276	-0.145	-0.323
-389.048	-152.944	-0.057	0.004
-388.033	800.000	-0.018	0.076
-387.019	-160.291	-0.213	0.011
-386.004	96.758	0.143	-0.163
-384.990	-159.319	-0.133	0.007
-383.975	197.106	0.150	0.226
-382.960	209.038	-0.078	-0.122
-381.946	79.836	0.097	-0.103
-380.931	-200.000	-0.042	0.379
-379.917	167.565	-0.048	0.068
-378.902	349.338	-0.054	-0.106
-377.888	190.551	-0.065	0.098
-376.873	-125.832	0.249	0.037
-375.858	-70.339	-0.156	0.059
-374.844	-69.304	-0.273	-0.104
-373.829	-200.000	-0.029	-0.154
-372.815	496.537	0.127	-0.288
-371.800	-81.512	0.170	-0.056
-370.785	-67.550	0.300	0.116
-369.771	-200.000	0.006	0.046
-368.756	-200.000	-0.034	-0.251
-367.742	212.599	0.180	-0.281
-366.727	-36.244	0.493	0.264
-365.712	-200.000	-0.023	0.396
-364.698	-176.379	-0.230	0.006
-363.683	13.324	0.276	-0.212
-362.669	-200.000	-0.026	-0.139
-361.654	800.000	0.024	-0.093
-360.639	-113.009	-0.151	-0.030
-359.625	206.968	-0.028	0.043
-358.610	-200.000	0.095	0.490
-357.596	328.227	0.143	-0.271
-356.581	547.804	-0.103	0.244
-355.566	709.361	0.105	0.275
-354.552	-87.060	-0.175	0.053
-353.537	-141.488	0.124	-0.012
-352.523	64.606	-0.108	-0.108
-351.508	345.684	0.098	-0.191
-350.493	140.399	0.319	0.417
-349.479	500.107	0.041	0.093
-348.464	45.555	-0.298	0.272
-347.450	-42.099	0.241	0.122
-346.435	-125.043	-0.033	0.005
-345.420	-12.189	-0.193	0.125
-344.406	-95.565	-0.159	-0.042
-343.391	-59.265	-0.482	-0.205
-342.377	-200.000	0.019	0.124
-341.362	-40.950	0.093	0.048
-340.348	173.215	-0.071	0.102
-339.333	-200.000	-0.004	0.030
-338.318	-138.041	-0.476	-0.052
-337.304	538.413	-0.073	0.173
-336.289	716.445	0.069	0.181
-335.275	14.417	0.066	0.051
-334.260	671.173	0.130	0.332
-333.245	-74.754	0.191	0.068
-332.231	369.568	-0.043	0.086
-331.216	-14.480	0.118	0.075
-330.202	-200.000	-0.051	-0.305
-329.187	42.516	-0.126	0.113
-328.172	48.561	0.219	-0.203
-327.158	6.081	-0.025	-0.018
-326.143	-26.177	0.244	-0.142
-325.129	-200.000	-0.007	-0.309
-324.114	-25.996	0.056	0.032
-323.099	-24.334	0.096	-0.057
-322.085	-169.657	0.306	0.011
-321.070	490.423	0.054	-0.123
-320.056	800.000	-0.062	0.179
-319.041	-133.083	0.212	-0.027
-318.026	39.907	0.116	0.103
-317.012	-200.000	-0.005	-0.214
-315.997	39.299	-0.268	-0.237
-314.983	72.960	-0.150	0.155
-313.968	-28.201	-0.094	-0.053
-312.953	272.793	-0.111	0.194
-311.939	317.826	0.038	-0.072
-310.924	9.659	-0.066	0.050
-309.910	222.737	0.199	-0.316
-308.895	-59.825	-0.393	-0.166
-307.880	109.492	-0.184	0.218
-306.866	53.010	-0.109	0.103
-305.851	-61.788	0.252	0.104
-304.837	-87.159	-0.456	-0.137
-303.822	-200.000	-0.048	-0.236
-302.807	-200.000	-0.010	0.065
-301.793	-200.000	-0.024	-0.250
-300.778	631.487	0.059	0.147
-299.764	-83.461	-0.114	0.036
-298.749	129.530	-0.098	-0.124
-297.735	504.641	0.023	0.052
-296.720	6.105	0.240	-0.176
-295.705	41.619	0.164	0.147
-294.691	-200.000	0.046	0.261
-293.676	8.930	0.143	0.107
-292.662	-15.089	0.038	0.024
-291.647	318.160	-0.073	0.137
-290.632	730.288	-0.046	0.122
-289.618	-158.271	-0.418	-0.024
-288.603	34.097	0.166	0.143
-287.589	800.000	-0.056	0.199
-286.574	-200.000	-0.012	0.067
-285.559	-200.000	0.015	0.252
-284.545	-200.000	-0.003	0.104
-283.530	181.517	-0.183	0.266
-282.516	-167.889	0.109	-0.004
-281.501	-200.000	-0.030	-0.315
-280.486	-10.811	-0.019	-0.013
-279.472	-114.068	0.139	-0.027
-278.457	800.000	-0.061	0.194
-277.443	-18.482	0.193	-0.119
-276.428	53.753	-0.241	0.229
-275.413	59.361	-0.066	-0.065
-274.399	-200.000	-0.017	0.283
-273.384	-200.000	-0.100	0.535
-272.370	-69.870	-0.219	0.082
-271.355	-62.130	0.048	-0.020
-270.340	224.979	-0.095	0.152
-269.326	-57.980	-0.488	-0.210
-268.311	359.053	-0.072	0.142
-267.297	-49.809	-0.112	-0.052
-266.282	4.093	0.148	-0.107
-265.267	-36.234	-0.252	-0.134
-264.253	54.393	0.101	0.096
-263.238	-126.359	-0.343	-0.050
-262.224	-200.000	-0.044	-0.245
-261.209	-200.000	0.025	-0.142
-260.195	800.000	-0.108	-0.309
-259.180	14.832	0.222	-0.171
-258.165	-86.744	0.220	0.066
-257.151	49.867	0.322	-0.299
-256.136	-200.000	0.023	-0.189
-255.122	-200.000	0.064	-0.281
-254.107	208.490	0.103	0.159
-253.092	800.000	0.072	0.224
-252.078	317.572	-0.202	0.376
-251.063	-36.685	0.343	-0.182
-250.049	215.459	-0.099	0.155
-249.034	393.286	-0.037	-0.077
-248.019	800.000	0.066	0.263
-247.005	51.928	0.245	0.230
-245.990	213.354	-0.088	0.137
-244.976	-117.069	0.309	0.056
-243.961	-64.763	-0.207	-0.083
-242.946	-125.957	0.269	0.040
-241.932	-81.514	-0.113	-0.037
-240.917	296.235	0.128	-0.232
-239.903	88.915	0.146	-0.160
-238.888	235.163	-0.106	-0.172
-237.873	313.104	-0.088	0.163
-236.859	-152.062	0.186	-0.013
-235.844	-200.000	-0.007	0.086
-234.830	230.514	-0.185	-0.299
-233.815	-83.392	0.034	-0.011
-232.800	-5.944	0.065	-0.044
-231.786	33.996	-0.138	0.118
-230.771	-200.000	0.025	0.244
-229.757	84.821	-0.045	-0.048
-228.742	79.368	0.175	0.185
-227.727	-63.230	-0.190	0.077
-226.713	-24.959	-0.251	0.147
-225.698	-128.928	0.333	-0.046
-224.684	-83.203	0.183	0.058
-223.669	-116.730	-0.273	0.049
-222.655	-135.934	0.388	0.045
-221.640	-200.000	0.025	0.107
-220.625	-46.018	0.213	0.103
-219.611	141.861	-0.140	-0.183
-218.596	-92.857	0.362	0.100
-217.582	-7.328	-0.144	0.096
-216.567	40.538	-0.339	-0.301
-215.552	-128.782	0.098	0.014
-214.538	-49.539	-0.138	0.065
-213.523	-118.974	0.335	0.058
-212.509	273.504	0.025	0.044
-211.494	800.000	0.150	0.437
-210.479	800.000	-0.112	0.364
-209.465	358.052	-0.138	-0.271
-208.450	-27.539	-0.288	0.165
-207.436	-123.956	0.451	-0.070
-206.421	-67.318	-0.181	-0.070
-205.406	-109.223	0.328	-0.069
-204.392	573.919	-0.114	0.274
-203.377	-138.515	-0.338	-0.037
-202.363	-46.909	-0.161	-0.077
-201.348	-61.867	0.039	0.016
-200.333	800.000	0.020	0.075
-199.319	11.086	0.295	0.222
-198.304	800.000	-0.083	0.289
-197.290	-72.961	0.301	0.109
-196.275	-200.000	0.034	0.210
-195.260	-41.085	-0.097	-0.049
-194.246	800.000	0.025	-0.072
-193.231	800.000	0.065	0.250
-192.217	80.086	0.111	0.118
-191.202	58.416	-0.089	0.086
-190.187	-34.382	0.115	-0.062
-189.173	-200.000	-0.098	-0.000
-188.158	-137.936	0.186	0.020
-187.144	-61.545	-0.092	0.038
-186.129	-200.000	0.025	-0.186
-185.114	-200.000	-0.022	0.109
-184.100	294.589	0.239	-0.430
-183.085	203.376	-0.272	-0.413
-182.071	166.577	-0.252	-0.352
-181.056	320.388	0.238	-0.445
-180.042	100.971	-0.080	-0.092
-179.027	-200.000	-0.029	-0.179
-178.012	-140.618	-0.093	-0.010
-176.998	118.887	0.324	-0.393
-175.983	99.676	0.042	-0.047
-174.969	224.152	0.121	0.192
-173.954	82.123	0.209	0.223
-172.939	-19.113	0.128	0.078
-171.925	-17.453	0.312	-0.193
-170.910	53.586	-0.128	-0.120
-169.896	800.000	0.037	0.116
-168.881	59.047	-0.027	0.026
-167.866	359.461	-0.082	0.162
-166.852	-18.835	-0.092	0.056
-165.837	-119.241	-0.082	-0.014
-164.823	-72.730	-0.084	0.030
-163.808	-140.012	-0.342	-0.035
-162.793	-27.831	-0.278	0.158
-161.779	784.551	-0.041	0.112
-160.764	-151.750	0.264	0.019
-159.750	-200.000	-0.031	-0.141
-158.735	102.005	0.042	0.049
-157.720	50.439	0.336	-0.312
-156.706	-86.668	0.199	0.060
-155.691	168.331	-0.027	-0.038
-154.677	269.327	0.029	-0.049
-153.662	800.000	0.081	0.277
-152.647	800.000	0.067	0.194
-151.633	-55.509	-0.298	0.131
-150.618	800.000	0.047	0.170
-149.604	-97.221	-0.182	-0.047
-148.589	66.888	-0.088	-0.088
-147.574	-131.469	-0.073	0.009
-146.560	1.979	0.234	-0.166
-145.545	-127.512	0.307	0.044
-144.531	14.698	0.080	0.062
-143.516	-61.783	0.138	0.057
-142.502	-200.000	-0.004	-0.285
-141.487	-135.068	-0.255	-0.030
-140.472	-106.026	0.176	0.039
-139.458	800.000	0.046	-0.187
-138.443	-51.843	0.233	0.106
-137.429	-139.187	-0.234	-0.025
-136.414	-115.185	-0.093	0.017
-135.399	-200.000	-0.067	-0.310
-134.385	55.241	0.093	-0.088
-133.370	800.000	-0.041	0.151
-132.356	648.459	0.022	-0.055
-131.341	-200.000	-0.014	0.079
-130.326	765.558	0.056	0.149
-129.312	14.158	-0.303	0.231
-128.297	-88.891	0.334	0.097
-127.283	-200.000	0.012	-0.200
-126.268	-200.000	0.068	-0.301
-125.253	3.035	-0.106	-0.076
-124.239	-3.761	0.150	0.102
-123.224	-105.480	-0.164	-0.037
-122.210	-200.000	-0.007	0.038
-121.195	99.991	0.248	-0.282
-120.180	-108.559	-0.073	0.015
-119.166	-35.431	-0.265	-0.141
-118.151	-200.000	-0.012	0.193
-117.137	356.653	0.078	0.153
-116.122	-72.818	-0.617	0.223
-115.107	-101.639	-0.381	-0.091
-114.093	-108.483	0.279	0.059
-113.078	120.159	0.068	-0.082
-112.064	263.707	-0.064	0.109
-111.049	-132.442	0.039	-0.005
-110.034	-95.222	0.221	0.058
-109.020	95.476	0.103	-0.115
-108.005	138.528	-0.173	0.222
-106.991	-99.591	-0.108	-0.027
-105.976	-200.000	-0.007	-0.259
-104.962	-200.000	-0.003	0.034
-103.947	80.374	-0.045	-0.048
-102.932	186.442	-0.049	0.071
-101.918	-128.058	0.350	0.049
-100.903	-180.449	0.395	-0.008
-99.889	-200.000	-0.036	0.208
-98.874	-39.428	0.108	0.056
-97.859	-41.581	0.069	0.035
-96.845	-61.228	-0.326	0.135
-95.830	-43.249	-0.212	-0.105
-94.816	-27.060	0.366	-0.209
-93.801	-28.028	0.158	0.089
-92.786	-200.000	0.006	-0.095
-91.772	800.000	0.068	-0.189
-90.757	-200.000	0.045	-0.263
-89.743	-126.505	-0.263	-0.038
-88.728	160.199	0.035	0.047
-87.713	800.000	0.027	-0.103
-86.699	-132.858	0.229	-0.029
-85.684	148.224	0.028	0.037
-84.670	-149.696	-0.294	0.023
-83.655	-63.322	0.189	-0.076
-82.640	586.440	0.158	0.380
-81.626	20.109	0.122	0.097
-80.611	62.388	0.150	-0.147
-79.597	107.089	0.171	0.199
-78.582	28.297	-0.167	-0.138
-77.567	640.260	0.031	0.078
-76.553	14.902	-0.041	-0.031
-75.538	-88.401	-0.174	0.051
-74.524	-200.000	0.057	0.349
-73.509	24.695	-0.278	-0.226
-72.494	-84.313	0.430	0.133
-71.480	3.396	-0.116	0.083
-70.465	468.601	0.215	-0.471
-69.451	-113.540	-0.209	-0.040
-68.436	-74.071	-0.183	0.065
-67.422	-25.887	-0.064	-0.037
-66.407	-150.762	0.128	-0.010
-65.392	27.987	0.163	-0.135
-64.378	-26.433	0.287	0.165
-63.363	774.378	0.082	-0.218
-62.349	168.938	-0.179	0.250
-61.334	4.557	-1.106	-0.794
-60.319	32.329	0.780	0.659
-59.305	289.134	-0.556	-0.987
-58.290	117.642	0.879	1.059
-57.276	800.000	0.422	1.491
-56.261	-200.000	113.546	649.954
-55.246	539.761	1521.217	3541.951
-54.232	179.451	2684.812	3845.059
-53.217	108.707	2169.542	2535.865
-52.203	38.042	1697.807	1477.321
-51.188	30.730	1517.229	1270.453
-50.173	28.470	1492.976	1234.888
-49.159	52.099	1551.716	1446.362
-48.144	51.030	1566.710	1452.954
-47.130	30.945	1522.630	1276.241
-46.115	27.956	1507.778	1243.440
-45.100	27.714	1504.498	1239.044
-44.086	27.712	1502.750	1237.537
-43.071	27.603	1500.739	1235.093
-42.057	27.583	1499.460	1233.861
-41.042	27.573	1498.221	1232.724
-40.027	27.632	1496.557	1231.702
-39.013	27.695	1494.511	1230.398
-37.998	27.463	1493.686	1228.104
-36.984	27.534	1492.361	1227.444
-35.969	27.607	1490.909	1226.688
-34.954	27.706	1489.140	1225.849
-33.940	27.561	1488.201	1224.053
-32.925	27.650	1486.753	1223.412
-31.911	27.690	1485.318	1222.455
-30.896	27.586	1484.330	1220.895
-29.881	27.585	1483.417	1220.091
-28.867	27.719	1481.382	1219.262
-27.852	27.601	1480.711	1217.874
-26.838	27.677	1479.303	1217.173
-25.823	27.642	1478.115	1215.917
-24.809	27.727	1475.708	1214.456
-23.794	27.699	1474.428	1213.166
-22.779	27.605	1473.804	1211.978
-21.765	27.642	1472.888	1211.422
-20.750	27.558	1472.193	1210.242
-19.736	27.589	1470.632	1209.122
-18.721	27.547	1469.288	1207.686
-17.706	27.552	1468.365	1206.911
-16.692	27.599	1467.139	1206.170
-15.677	27.682	1466.376	1206.044
-14.663	27.590	1465.491	1204.660
-13.648	27.607	1464.500	1203.910
-12.633	27.584	1463.660	1203.019
-11.619	27.579	1462.759	1202.201
-10.604	27.535	1462.379	1201.546
-9.590	27.576	1461.214	1200.813
-8.575	27.680	1460.077	1200.515
-7.560	27.634	1459.294	1199.521
-6.546	27.613	1458.151	1198.393
-5.531	27.639	1457.660	1198.119
-4.517	27.554	1457.056	1197.012
-3.502	27.680	1455.361	1196.401
-2.487	27.615	1454.699	1195.381
-1.473	27.521	1453.714	1193.908
-0.458	27.441	1452.764	1192.558
0.556	29.084	1442.436	1181.650
1.571	26.042	1417.315	1141.749
2.586	22.576	1359.924	1074.328
3.600	20.908	1279.247	1000.931
4.615	19.424	1233.037	956.469
5.629	17.310	1176.620	901.428
6.644	10.261	1094.172	803.321
7.659	4.803	1056.966	749.712
8.673	4.059	1051.327	742.081
9.688	3.857	1047.985	738.694
10.702	3.711	1046.134	736.625
11.717	3.824	1044.084	735.654
12.731	6.448	1045.720	749.236
13.746	13.836	1056.857	792.545
14.761	20.560	1065.541	831.243
15.775	22.618	1067.390	842.461
16.790	22.318	1065.759	839.668
17.804	21.455	1064.264	834.297
18.819	20.853	1062.105	829.669
19.834	20.381	1061.318	826.731
20.848	20.341	1060.694	825.982
21.863	20.290	1060.368	825.413
22.877	20.192	1059.731	824.380
23.892	20.045	1058.885	822.951
24.907	19.903	1057.887	821.426
25.921	19.759	1057.500	820.369
26.936	19.888	1056.273	819.957
27.950	19.824	1055.323	818.846
28.965	19.914	1054.001	818.173
29.980	19.853	1052.924	816.974
30.994	20.048	1052.031	817.129
32.009	20.185	1051.198	817.054
33.023	20.343	1050.624	817.280
34.038	20.366	1049.576	816.503
35.053	20.103	1048.950	814.709
36.067	19.968	1047.837	813.136
37.082	19.989	1046.897	812.435
38.096	19.904	1046.280	811.484
39.111	20.079	1045.606	811.710
40.126	20.234	1044.804	811.741
41.140	20.106	1043.457	810.025
42.155	19.723	1042.117	807.124
43.169	19.492	1041.279	805.325
44.184	19.471	1039.699	803.934
45.199	19.275	1039.509	802.803
46.213	19.419	1038.156	802.359
47.228	19.520	1037.386	802.160
48.242	19.738	1037.172	802.938
49.257	19.964	1036.230	803.183
50.271	20.035	1034.950	802.450
51.286	19.994	1034.705	802.001
52.301	20.064	1033.941	801.662
53.315	20.071	1033.218	801.063
54.330	19.964	1032.152	799.673
55.344	19.782	1031.279	798.083
56.359	19.713	1029.473	796.299
57.374	19.522	1028.995	794.979
58.388	19.525	1028.624	794.634
59.403	19.542	1027.499	793.776
60.417	19.403	1026.628	792.393
61.432	19.288	1026.143	791.419
62.447	19.327	1025.241	790.833
63.461	19.275	1024.470	789.931
64.476	19.281	1023.427	789.085
65.490	19.179	1022.605	787.911
66.505	19.060	1021.777	786.662
67.520	19.183	1021.102	786.632
68.534	19.186	1020.618	786.207
69.549	19.089	1020.217	785.384
70.563	19.229	1018.512	784.638
71.578	19.081	1018.485	783.875
72.593	18.850	1017.422	781.936
73.607	18.912	1015.347	780.555
74.622	18.864	1014.404	779.540
75.636	18.825	1014.537	779.397
76.651	18.915	1013.712	779.106
77.666	19.027	1012.933	778.946
78.680	19.051	1012.015	778.278
79.695	19.040	1011.482	777.748
80.709	19.163	1010.928	777.811
81.724	19.289	1010.322	777.844
82.739	19.416	1009.993	778.092
83.753	19.546	1009.190	777.994
84.768	19.780	1008.939	778.784
85.782	20.264	1008.103	780.247
86.797	20.546	1007.182	780.732
87.812	20.466	1006.995	780.158
88.826	20.258	1005.946	778.345
89.841	20.057	1005.508	777.034
90.855	20.194	1004.856	777.077
91.870	20.254	1003.870	776.512
92.884	20.446	1002.970	776.607
93.899	20.346	1001.939	775.294
94.914	20.317	1001.598	774.830
95.928	20.478	1000.266	774.449
96.943	20.346	1000.170	773.719
97.957	20.210	999.104	772.219
98.972	19.996	998.321	770.593
99.987	20.066	997.386	770.116
101.001	20.183	996.819	770.129
102.016	20.196	995.570	769.157
103.030	20.219	994.413	768.295
104.045	20.145	993.816	767.437
105.060	20.353	992.301	767.119
106.074	20.205	991.892	766.083
107.089	19.784	991.149	763.582
108.103	19.492	989.854	761.229
109.118	19.427	988.860	760.111
110.133	19.235	987.598	758.227
111.147	19.183	986.469	757.066
112.162	19.176	985.770	756.431
113.176	19.199	984.829	755.743
114.191	19.458	984.336	756.433
115.206	19.500	983.426	755.851
116.220	19.531	982.408	755.135
117.235	19.423	981.665	754.027
118.249	19.316	980.832	752.855
119.264	19.398	979.976	752.489
120.279	19.257	979.610	751.524
121.293	19.191	978.453	750.282
122.308	19.018	977.855	749.004
123.322	18.894	976.951	747.707
124.337	18.937	975.396	746.636
125.352	18.684	974.768	744.995
126.366	18.738	973.222	743.980
127.381	18.821	972.601	743.799
128.395	18.939	971.427	743.344
129.410	18.916	970.655	742.587
130.424	18.935	969.916	742.042
131.439	18.971	969.259	741.628
132.454	19.317	968.335	742.343
133.468	19.316	968.134	742.122
134.483	19.323	967.085	741.281
135.497	19.419	966.366	741.076
136.512	19.305	966.378	740.529
137.527	19.401	964.636	739.544
138.541	19.423	964.237	739.263
139.556	19.443	963.842	738.984
140.570	19.419	962.581	737.848
141.585	19.627	962.343	738.490
142.600	19.966	961.701	739.381
143.614	20.066	961.070	739.255
144.629	20.271	960.366	739.524
145.643	20.321	959.689	739.147
146.658	20.273	958.817	738.205
147.673	19.938	957.661	735.830
148.687	19.848	956.253	734.299
149.702	19.632	955.571	732.795
150.716	19.410	954.555	731.011
151.731	19.505	953.443	730.494
152.746	19.511	952.810	729.970
153.760	19.607	952.194	729.839
154.775	19.608	951.439	729.200
155.789	19.737	950.755	729.157
156.804	19.832	949.842	728.791
157.819	19.746	949.239	727.901
158.833	20.007	948.534	728.395
159.848	20.009	948.239	728.114
160.862	20.243	947.363	728.359
161.877	20.124	946.960	727.487
162.892	19.837	945.722	725.266
163.906	19.533	944.154	722.726
164.921	19.454	943.224	721.622
165.935	19.375	942.376	720.577
166.950	19.581	941.453	720.669
167.964	19.753	940.745	720.781
168.979	19.706	939.688	719.712
169.994	19.611	938.536	718.369
171.008	19.507	937.683	717.222
172.023	19.662	936.884	717.188
173.037	19.850	936.821	717.857
174.052	20.055	936.260	718.215
175.067	19.984	935.291	717.114
176.081	19.630	934.097	714.672
177.096	19.367	932.735	712.477
178.110	19.352	932.083	711.856
179.125	19.388	931.153	711.230
180.140	19.356	930.864	710.816
181.154	19.570	930.092	711.045
182.169	19.743	930.227	711.798
183.183	19.980	929.609	712.236
184.198	20.003	929.131	711.903
185.213	19.989	928.124	711.009
186.227	19.932	927.575	710.295
187.242	20.010	927.124	710.205
188.256	20.120	926.037	709.757
189.271	20.264	925.718	710.042
190.286	20.353	925.452	710.138
191.300	20.081	924.052	707.889
192.315	19.578	922.648	704.702
193.329	19.276	921.726	702.704
194.344	19.304	920.928	702.147
195.359	19.389	920.748	702.294
196.373	19.634	920.662	703.162
197.388	19.790	920.064	703.279
198.402	19.972	919.880	703.814
199.417	20.202	919.558	704.438
200.432	20.552	919.141	705.479
201.446	20.431	919.327	705.067
202.461	20.621	918.980	705.510
203.475	20.689	918.009	704.977
204.490	20.560	917.572	704.058
205.504	20.357	916.397	702.274
206.519	20.097	915.351	700.359
207.534	20.023	914.475	699.326
208.548	20.013	913.989	698.853
209.563	20.035	913.300	698.355
210.577	20.075	912.476	697.822
211.592	20.127	911.883	697.518
212.607	20.284	911.565	697.845
213.621	20.605	910.990	698.631
214.636	20.454	910.491	697.582
215.650	20.315	909.662	696.325
216.665	20.346	909.262	696.082
217.680	20.525	908.617	696.244
218.694	20.610	908.153	696.167
219.709	20.631	908.019	696.086
220.723	20.538	907.500	695.255
221.738	20.451	906.648	694.196
222.753	20.348	905.889	693.138
223.767	20.329	904.612	692.025
224.782	20.479	904.031	692.117
225.796	20.605	903.788	692.375
226.811	20.754	903.298	692.529
227.826	20.656	902.239	691.267
228.840	20.328	901.775	689.545
229.855	20.247	900.832	688.441
230.869	20.318	900.050	688.068
231.884	20.262	899.572	687.419
232.899	20.111	898.977	686.303
233.913	20.060	898.399	685.601
234.928	19.988	897.361	684.465
235.942	19.959	896.652	683.747
236.957	19.850	895.452	682.344
237.972	19.826	895.251	682.035
238.986	19.938	894.369	681.742
240.001	19.956	893.748	681.279
241.015	19.902	893.120	680.529
242.030	20.042	892.662	680.670
243.045	20.169	892.195	680.751
244.059	20.165	891.956	680.494
245.074	20.385	890.626	680.282
246.088	20.211	890.899	679.749
247.103	20.458	890.197	680.117
248.117	20.706	889.403	680.423
249.132	20.864	889.174	680.803
250.147	21.098	889.207	681.682
251.161	21.480	888.565	682.621
252.176	21.524	887.903	682.224
253.190	21.558	887.850	682.256
254.205	21.700	887.297	682.324
255.220	21.718	886.534	681.745
256.234	21.622	885.845	680.781
257.249	21.535	885.005	679.739
258.263	21.361	884.898	678.923
259.278	21.625	883.877	679.100
260.293	21.432	883.742	678.188
261.307	21.681	882.689	678.285
262.322	21.528	882.667	677.616
263.336	21.763	881.704	677.726
264.351	21.546	881.430	676.616
265.366	21.589	880.735	676.189
266.380	21.506	880.100	675.320
267.395	21.670	879.016	675.062
268.409	21.470	878.602	673.912
269.424	21.223	877.810	672.295
270.439	21.315	877.100	672.045
271.453	21.452	875.810	671.523
272.468	21.126	875.340	669.853
273.482	21.149	874.736	669.422
274.497	21.239	874.062	669.192
275.512	21.161	873.587	668.470
276.526	21.083	872.735	667.460
277.541	21.244	871.991	667.445
278.555	21.266	871.464	667.070
279.570	21.457	871.291	667.606
280.585	21.527	871.285	667.809
281.599	21.727	870.417	667.848
282.614	21.535	869.352	666.240
283.628	21.294	868.836	664.869
284.643	21.291	867.748	663.967
285.657	21.201	867.845	663.640
286.672	21.385	867.038	663.661
287.687	21.218	866.728	662.732
288.701	21.371	866.132	662.797
289.716	21.289	865.368	661.843
290.730	21.280	865.242	661.654
291.745	21.254	864.745	661.116
292.760	21.317	863.935	660.679
293.774	21.483	863.559	660.959
294.789	21.622	863.524	661.399
295.803	21.903	861.914	661.166
296.818	21.581	861.454	659.544
297.833	21.227	861.050	657.841
298.847	21.327	860.141	657.466
299.862	21.484	859.297	657.352
300.876	21.532	858.651	656.978
301.891	21.625	858.190	656.917
302.906	21.905	857.758	657.578
303.920	21.880	857.205	657.001
304.935	22.096	856.888	657.511
305.949	22.137	856.498	657.307
306.964	22.074	855.751	656.438
307.979	21.894	855.129	655.234
308.993	21.691	854.875	654.221
310.008	21.884	854.074	654.272
311.022	21.963	853.673	654.199
312.037	21.979	852.720	653.472
313.052	21.779	852.177	652.254
314.066	21.523	851.197	650.493
315.081	21.392	850.391	649.333
316.095	21.314	849.712	648.468
317.110	21.349	849.518	648.395
318.125	21.267	848.815	647.496
319.139	21.148	848.796	646.984
320.154	21.189	847.995	646.467
321.168	21.367	847.079	646.368
322.183	21.166	847.113	645.596
323.197	21.486	846.323	646.118
324.212	21.438	845.749	645.445
325.227	21.595	844.958	645.362
326.241	21.612	844.526	645.037
327.256	21.446	844.127	644.067
328.270	21.325	843.483	643.070
329.285	21.242	843.018	642.355
330.300	21.353	842.389	642.226
331.314	21.308	841.793	641.549
332.329	21.436	840.845	641.241
333.343	21.494	840.968	641.489
334.358	21.841	840.232	642.143
335.373	21.773	839.533	641.304
336.387	21.718	839.543	641.052
337.402	21.797	839.133	640.973
338.416	21.952	838.362	640.892
339.431	22.174	837.870	641.270
340.446	22.316	837.664	641.574
341.460	22.493	837.168	641.781
342.475	22.387	836.969	641.187
343.489	22.615	836.175	641.352
344.504	22.459	835.932	640.538
345.519	22.588	835.321	640.482
346.533	22.899	834.906	641.237
347.548	22.750	834.099	640.022
348.562	22.323	833.322	637.822
349.577	22.231	832.449	636.763
350.592	21.931	831.476	634.878
351.606	21.781	831.350	634.182
352.621	21.780	830.690	633.619
353.635	21.721	830.189	632.969
354.650	21.884	830.015	633.367
355.665	22.031	829.594	633.522
356.679	21.951	829.319	632.966
357.694	22.076	828.934	633.066
358.708	22.144	828.008	632.548
359.723	22.091	827.400	631.838
360.738	22.156	827.134	631.811
361.752	21.948	826.988	630.896
362.767	22.155	826.195	630.977
363.781	22.330	826.179	631.538
364.796	22.450	825.964	631.750
365.810	22.587	825.744	632.018
366.825	22.691	825.326	632.013
367.840	22.883	824.964	632.367
368.854	22.963	824.141	631.967
369.869	22.589	823.661	630.205
370.883	22.486	822.763	629.096
371.898	22.501	822.463	628.865
372.913	22.627	822.100	628.981
373.927	22.789	821.426	628.987
374.942	22.709	820.480	627.924
375.956	22.580	820.057	627.083
376.971	22.679	819.663	627.079
377.986	22.855	818.946	627.099
379.000	22.981	818.608	627.234
380.015	23.186	818.163	627.562
381.029	23.062	817.295	626.402
382.044	22.802	816.860	625.092
383.059	22.984	816.347	625.290
384.073	23.001	815.834	624.903
385.088	23.056	814.989	624.395
386.102	22.582	814.443	622.246
387.117	22.497	813.515	621.184
388.132	22.481	812.933	620.628
389.146	22.443	812.642	620.216
390.161	22.466	812.473	620.113
391.175	22.607	812.257	620.390
392.190	22.803	812.093	620.900
393.205	22.836	811.384	620.416
394.219	22.620	811.049	619.348
395.234	22.409	810.235	617.931
396.248	22.398	809.480	617.261
397.263	22.163	809.089	616.087
398.278	22.403	808.129	616.141
399.292	22.329	807.739	615.529
400.307	22.218	807.433	614.855
401.321	22.153	807.024	614.262
402.336	22.034	807.021	613.789
403.350	22.286	806.681	614.357
404.365	22.415	806.530	614.637
405.380	22.686	805.645	614.852
406.394	23.028	805.558	615.923
407.409	23.066	805.282	615.790
408.423	23.167	804.727	615.662
409.438	23.295	804.594	615.951
410.453	23.181	804.287	615.265
411.467	23.262	803.593	614.963
412.482	23.268	803.333	614.729
413.496	23.508	802.438	614.823
414.511	23.519	802.256	614.666
415.526	23.567	801.886	614.497
416.540	23.410	801.727	613.775
417.555	23.341	800.719	612.712
418.569	23.136	800.739	611.962
419.584	23.343	800.010	612.068
420.599	23.264	799.550	611.389
421.613	164.401	1371.191	1799.064
422.628	142.825	1454.470	1799.152
