DTS Sentinel unit serial number:	SN413079Multiplexer serial number:	ORYXHardware model number:	OX4-SRSoftware version number:	ORYX F/W v4.00 Oryx Data Collector v3.7.2.0data status	okinstallation	princeton_trtdifferential loss correction	single-endedforward channel	channel 3reverse channel	N/Adate	2019/09/12time	22:08:35forward acquisition time	60.00reverse acquisition time	0.00gamma	496.2192k internal	0.2326k external	0.2326temperature offset calibration	1.0136default loss term (dB/km)	0.3790temperature slope calibration	1.0000multiplexer offset coefficient	1.0000multiplexer slope coefficient	1.0000fibre end	0.00T internal ref (°C)	29.98T ext. ref 1 (°C)	3.76T ext. ref 2 (°C)	24.49length (m)	temperature (°C)	Stokes	anti-Stokes-747.200	-200.000	0.023	0.346
-746.185	-165.369	-0.103	-0.005
-745.171	-130.893	0.328	-0.044
-744.156	-144.404	-0.223	-0.021
-743.142	326.918	0.040	0.078
-742.127	493.943	0.170	0.393
-741.112	-33.888	-0.219	-0.122
-740.098	800.000	0.018	-0.056
-739.083	33.481	-0.009	0.008
-738.069	174.429	0.164	-0.239
-737.054	-39.442	0.190	0.101
-736.039	282.829	-0.191	-0.346
-735.025	-52.823	-0.376	-0.175
-734.010	-61.956	-0.305	-0.128
-732.996	-200.000	0.016	0.144
-731.981	-193.194	-0.279	-0.002
-730.966	-109.123	-0.233	-0.050
-729.952	104.063	-0.203	-0.241
-728.937	289.956	0.025	0.045
-727.923	5.431	-0.263	0.195
-726.908	48.347	0.209	-0.197
-725.894	-62.155	-0.153	-0.064
-724.879	-154.766	-0.050	-0.003
-723.864	-165.097	0.205	-0.009
-722.850	516.694	0.048	-0.114
-721.835	-37.922	0.031	0.016
-720.821	685.530	0.139	-0.367
-719.806	800.000	-0.072	0.233
-718.791	-200.000	0.014	-0.116
-717.777	281.236	-0.177	-0.320
-716.762	207.601	-0.199	-0.313
-715.748	-139.241	0.323	0.035
-714.733	-200.000	0.007	-0.185
-713.718	-38.997	-0.366	0.194
-712.704	-200.000	-0.028	0.152
-711.689	-45.193	-0.051	-0.025
-710.675	800.000	0.055	0.203
-709.660	32.348	0.152	0.132
-708.645	-33.848	0.230	0.128
-707.631	800.000	0.117	0.330
-706.616	71.282	0.302	-0.316
-705.602	158.482	-0.115	0.161
-704.587	148.186	0.066	0.090
-703.572	800.000	-0.045	-0.196
-702.558	45.567	0.198	-0.185
-701.543	-79.225	-0.256	-0.087
-700.529	661.512	0.049	0.127
-699.514	-14.927	0.134	0.087
-698.499	-91.832	-0.033	-0.010
-697.485	-191.770	0.251	-0.002
-696.470	139.679	0.113	-0.150
-695.456	-200.000	0.003	-0.239
-694.441	-200.000	0.002	0.139
-693.426	-200.000	0.034	0.155
-692.412	62.726	-0.173	0.174
-691.397	26.940	-0.304	0.257
-690.383	8.828	-0.247	-0.187
-689.368	-200.000	0.001	0.028
-688.354	-51.879	-0.375	0.176
-687.339	800.000	0.022	-0.079
-686.324	153.255	-0.090	-0.124
-685.310	37.131	-0.165	-0.147
-684.295	-117.458	0.168	0.031
-683.281	-200.000	0.023	-0.102
-682.266	32.103	-0.186	0.162
-681.251	-92.513	-0.150	0.042
-680.237	89.416	-0.104	0.117
-679.222	-112.884	-0.264	0.053
-678.208	-40.316	0.184	-0.096
-677.193	3.143	-0.051	-0.037
-676.178	-113.833	-0.202	-0.039
-675.164	-108.640	0.295	-0.064
-674.149	-200.000	-0.018	-0.179
-673.135	-112.977	-0.203	-0.040
-672.120	-29.001	-0.049	0.028
-671.105	134.893	-0.138	0.180
-670.091	594.503	0.009	0.022
-669.076	77.038	-0.044	0.047
-668.062	-115.499	-0.079	0.015
-667.047	516.604	-0.095	-0.224
-666.032	111.922	-0.141	-0.171
-665.018	-8.035	0.257	0.174
-664.003	-200.000	0.015	-0.329
-662.989	-200.000	0.005	0.077
-661.974	-158.345	-0.217	0.013
-660.959	-101.790	-0.147	-0.036
-659.945	221.473	-0.022	0.036
-658.930	-40.501	-0.140	0.073
-657.916	166.409	0.109	0.156
-656.901	-88.771	-0.331	-0.099
-655.886	389.638	-0.124	-0.258
-654.872	-4.521	0.140	-0.097
-653.857	800.000	0.020	-0.058
-652.843	-20.237	0.208	0.129
-651.828	292.536	0.068	-0.125
-650.814	27.177	0.272	-0.230
-649.799	36.300	-0.109	-0.096
-648.784	190.405	-0.195	-0.295
-647.770	143.536	-0.079	-0.106
-646.755	44.041	-0.116	0.107
-645.741	-200.000	-0.002	-0.064
-644.726	-91.752	0.257	-0.073
-643.711	-64.730	0.061	0.025
-642.697	598.857	0.015	-0.037
-641.682	78.100	0.145	-0.156
-640.668	696.095	-0.070	-0.185
-639.653	-21.060	-0.291	-0.179
-638.638	800.000	0.051	-0.220
-637.624	22.478	0.033	0.027
-636.609	100.677	-0.132	0.154
-635.595	800.000	0.020	0.056
-634.580	27.038	0.076	0.064
-633.565	39.829	0.142	-0.128
-632.551	35.111	-0.124	0.109
-631.536	40.305	0.171	0.154
-630.522	-200.000	-0.015	-0.214
-629.507	152.648	-0.130	0.178
-628.492	165.560	0.080	-0.114
-627.478	-76.061	0.127	-0.045
-626.463	-16.712	0.432	-0.275
-625.449	2.408	0.381	-0.276
-624.434	800.000	-0.009	0.031
-623.419	-85.835	-0.120	0.037
-622.405	91.008	0.224	-0.252
-621.390	-81.492	-0.303	0.100
-620.376	-200.000	0.006	0.029
-619.361	-34.363	-0.237	-0.131
-618.346	-200.000	0.014	0.251
-617.332	-116.597	-0.248	-0.046
-616.317	-17.606	0.203	-0.128
-615.303	-107.749	-0.180	-0.039
-614.288	474.242	-0.062	-0.139
-613.273	-83.563	-0.008	0.002
-612.259	-193.742	0.170	-0.001
-611.244	14.073	0.083	0.065
-610.230	-57.465	-0.275	0.121
-609.215	-200.000	-0.013	0.233
-608.201	800.000	0.016	0.045
-607.186	-200.000	0.035	-0.254
-606.171	36.919	-0.144	-0.128
-605.157	387.931	0.155	-0.322
-604.142	99.480	0.022	0.025
-603.128	-43.046	-0.160	-0.081
-602.113	-200.000	-0.031	-0.175
-601.098	-35.291	-0.197	0.108
-600.084	-200.000	0.036	0.212
-599.069	-35.991	0.136	-0.074
-598.055	68.020	-0.046	0.047
-597.040	-37.703	0.097	0.052
-596.025	319.864	0.149	0.283
-595.011	-168.421	-0.091	0.004
-593.996	800.000	0.032	-0.128
-592.982	-172.585	-0.344	-0.011
-591.967	-12.866	-0.432	-0.282
-590.952	33.933	-0.077	-0.067
-589.938	-75.716	0.116	0.041
-588.923	-27.271	0.163	-0.095
-587.909	224.864	0.144	-0.233
-586.894	-200.000	-0.031	0.312
-585.879	34.196	-0.160	0.140
-584.865	295.443	0.046	-0.085
-583.850	-200.000	0.042	-0.309
-582.836	-77.768	-0.120	-0.042
-581.821	20.630	-0.043	-0.035
-580.806	-102.599	-0.095	0.023
-579.792	15.529	-0.263	0.207
-578.777	-129.552	0.100	0.014
-577.763	-48.596	0.075	0.036
-576.748	760.831	0.018	0.049
-575.733	144.228	0.124	0.166
-574.719	-31.074	0.072	0.041
-573.704	14.918	-0.239	0.187
-572.690	743.516	-0.089	0.240
-571.675	-200.000	-0.021	0.243
-570.661	-30.107	0.203	-0.115
-569.646	75.742	-0.081	0.086
-568.631	220.580	-0.061	-0.098
-567.617	800.000	-0.033	-0.106
-566.602	-200.000	0.084	0.470
-565.588	300.491	-0.221	0.409
-564.573	-200.000	0.079	-0.390
-563.558	606.845	-0.077	-0.191
-562.544	720.493	-0.042	0.112
-561.529	580.358	0.209	-0.513
-560.515	-79.495	-0.244	-0.083
-559.500	376.853	-0.087	-0.179
-558.485	-120.127	0.128	0.022
-557.471	-133.426	0.334	0.042
-556.456	-28.326	0.110	0.063
-555.442	-128.295	-0.111	-0.016
-554.427	-8.555	-0.222	-0.149
-553.412	43.312	0.077	0.071
-552.398	73.259	-0.128	0.134
-551.383	25.309	0.090	-0.075
-550.369	-149.665	0.335	-0.026
-549.354	152.420	-0.227	0.311
-548.339	362.148	-0.121	0.242
-547.325	637.627	0.079	-0.202
-546.310	-200.000	-0.018	-0.170
-545.296	156.549	-0.061	-0.084
-544.281	96.548	0.070	0.080
-543.266	683.076	0.124	-0.324
-542.252	-200.000	-0.217	0.001
-541.237	167.073	0.165	0.234
-540.223	-200.000	0.007	0.044
-539.208	153.505	-0.079	-0.108
-538.193	800.000	-0.043	-0.131
-537.179	94.666	0.201	-0.228
-536.164	647.953	-0.064	-0.163
-535.150	-200.000	-0.012	-0.135
-534.135	-144.358	-0.216	0.020
-533.121	336.072	0.215	0.417
-532.106	34.148	0.174	-0.152
-531.091	196.442	-0.086	-0.131
-530.077	-164.389	-0.223	0.010
-529.062	-105.839	0.333	0.075
-528.048	361.133	-0.060	0.121
-527.033	-200.000	-0.002	-0.224
-526.018	-17.283	-0.162	-0.102
-525.004	-200.000	0.061	-0.314
-523.989	-200.000	-0.006	-0.076
-522.975	177.894	-0.060	0.088
-521.960	-20.079	-0.092	0.057
-520.945	-67.140	-0.539	-0.212
-519.931	-200.000	0.002	-0.122
-518.916	185.893	0.134	0.199
-517.902	443.902	0.021	-0.046
-516.887	-135.094	0.156	0.019
-515.872	-39.836	-0.106	-0.055
-514.858	164.118	-0.111	0.157
-513.843	-200.000	0.073	0.363
-512.829	57.427	-0.183	-0.178
-511.814	800.000	0.022	0.071
-510.799	-67.120	0.253	-0.099
-509.785	99.272	0.194	-0.224
-508.770	-197.422	-0.113	-0.001
-507.756	680.604	0.095	0.248
-506.741	-24.409	0.163	0.097
-505.726	-200.000	0.016	-0.256
-504.712	-200.000	0.011	-0.261
-503.697	238.995	0.094	-0.155
-502.683	-126.667	0.219	-0.032
-501.668	800.000	0.051	0.140
-500.653	26.235	0.165	0.138
-499.639	391.436	0.156	-0.323
-498.624	745.865	0.060	0.162
-497.610	-128.495	0.107	-0.015
-496.595	133.192	0.130	-0.167
-495.581	31.857	-0.142	-0.122
-494.566	-68.657	0.063	0.024
-493.551	-58.780	-0.097	-0.042
-492.537	116.217	-0.281	0.343
-491.522	0.226	0.149	0.106
-490.508	-51.879	-0.211	-0.098
-489.493	465.375	0.072	-0.160
-488.478	800.000	-0.089	0.278
-487.464	800.000	-0.152	-0.459
-486.449	110.619	-0.101	0.121
-485.435	11.586	-0.149	-0.114
-484.420	265.384	0.194	-0.338
-483.405	-156.075	0.447	-0.028
-482.391	-200.000	0.010	-0.102
-481.376	-200.000	0.046	0.381
-480.362	-6.696	0.081	-0.055
-479.347	-132.599	-0.301	-0.039
-478.332	800.000	0.015	-0.066
-477.318	709.283	-0.122	-0.323
-476.303	319.633	0.111	-0.211
-475.289	663.606	0.055	-0.142
-474.274	-200.000	0.031	-0.148
-473.259	-200.000	-0.016	-0.094
-472.245	-70.250	-0.549	0.208
-471.230	-47.391	0.180	-0.087
-470.216	42.160	-0.280	-0.254
-469.201	800.000	-0.028	-0.105
-468.186	-200.000	-0.031	0.164
-467.172	6.839	-0.293	-0.218
-466.157	549.307	-0.077	-0.184
-465.143	23.024	-0.197	0.161
-464.128	61.124	0.104	0.103
-463.113	-200.000	0.020	0.130
-462.099	-144.744	-0.092	-0.008
-461.084	-117.930	-0.089	0.016
-460.070	127.538	0.086	-0.109
-459.055	72.730	0.158	0.165
-458.040	271.064	-0.088	-0.154
-457.026	-98.632	0.085	-0.022
-456.011	255.151	0.095	0.162
-454.997	422.601	0.125	0.267
-453.982	73.342	0.230	0.240
-452.968	-158.000	-0.276	-0.016
-451.953	-200.000	0.025	0.254
-450.938	-176.621	0.166	0.004
-449.924	-24.129	-0.145	-0.087
-448.909	211.014	0.162	-0.254
-447.895	-36.596	0.307	-0.165
-446.880	276.310	-0.089	-0.158
-445.865	-93.654	0.131	0.036
-444.851	172.722	0.092	0.132
-443.836	2.350	-0.058	0.042
-442.822	-123.957	0.195	0.031
-441.807	-92.841	0.201	-0.056
-440.792	-100.538	0.278	-0.069
-439.778	-157.404	-0.078	-0.005
-438.763	-137.447	-0.315	0.036
-437.749	12.847	-0.094	-0.073
-436.734	-133.764	-0.348	-0.043
-435.719	-187.891	0.203	-0.003
-434.705	366.568	0.123	-0.247
-433.690	-123.114	0.335	0.054
-432.676	19.645	0.130	0.104
-431.661	800.000	0.128	0.368
-430.646	25.531	-0.050	0.041
-429.632	-200.000	0.007	-0.072
-428.617	156.515	-0.211	-0.291
-427.603	83.836	0.156	0.169
-426.588	677.315	-0.104	0.269
-425.573	-97.126	0.461	-0.120
-424.559	-200.000	-0.015	-0.134
-423.544	-200.000	0.016	-0.082
-422.530	-84.649	-0.172	-0.054
-421.515	100.740	-0.324	-0.375
-420.500	282.391	-0.160	0.287
-419.486	280.053	-0.139	0.247
-418.471	-37.364	-0.129	0.068
-417.457	-187.811	-0.088	-0.001
-416.442	43.608	-0.126	-0.115
-415.428	-60.171	-0.205	-0.087
-414.413	115.600	0.250	-0.304
-413.398	-170.174	-0.340	-0.012
-412.384	-14.671	0.379	-0.243
-411.369	61.781	-0.275	0.273
-410.355	113.761	-0.123	-0.149
-409.340	800.000	-0.052	-0.171
-408.325	117.402	-0.156	-0.191
-407.311	389.672	-0.138	-0.284
-406.296	199.007	-0.152	-0.232
-405.282	-110.596	0.096	0.020
-404.267	-155.721	-0.113	0.007
-403.252	800.000	-0.037	0.123
-402.238	800.000	0.025	-0.092
-401.223	107.593	0.190	0.225
-400.209	50.528	0.155	0.146
-399.194	-200.000	-0.005	-0.162
-398.179	-138.809	0.294	-0.032
-397.165	45.539	-0.273	-0.251
-396.150	800.000	0.057	-0.230
-395.136	22.389	-0.200	-0.162
-394.121	118.966	0.082	0.101
-393.106	20.289	0.235	-0.189
-392.092	-200.000	-0.065	0.316
-391.077	-200.000	0.003	0.050
-390.063	696.308	-0.128	0.333
-389.048	-119.601	0.311	0.054
-388.033	-200.000	-0.028	-0.146
-387.019	-1.566	0.269	0.188
-386.004	-64.941	-0.349	0.140
-384.990	-165.979	-0.123	0.005
-383.975	196.175	-0.160	-0.242
-382.960	-7.764	0.173	-0.117
-381.946	-128.145	-0.132	-0.019
-380.931	24.777	-0.302	-0.249
-379.917	68.033	-0.108	0.110
-378.902	-200.000	0.015	0.142
-377.888	-97.826	-0.139	-0.036
-376.873	-167.006	-0.302	-0.012
-375.858	663.094	-0.092	0.236
-374.844	307.498	-0.010	-0.018
-373.829	800.000	0.106	0.323
-372.815	440.374	0.035	0.076
-371.800	-15.995	0.255	0.161
-370.785	-48.203	-0.284	0.136
-369.771	-114.836	-0.288	-0.055
-368.756	-200.000	-0.003	-0.029
-367.742	-200.000	0.012	0.355
-366.727	-20.044	-0.390	0.239
-365.712	-74.153	-0.246	0.088
-364.698	159.697	-0.093	-0.129
-363.683	800.000	0.042	0.133
-362.669	-200.000	-0.073	0.439
-361.654	800.000	0.064	-0.189
-360.639	800.000	-0.090	0.345
-359.625	-200.000	-0.012	0.097
-358.610	-85.407	0.175	-0.054
-357.596	-165.279	0.072	-0.003
-356.581	800.000	0.050	0.148
-355.566	143.988	-0.167	-0.221
-354.552	122.498	-0.165	-0.205
-353.537	-36.800	-0.146	0.078
-352.523	-116.990	-0.056	0.010
-351.508	-135.407	0.147	-0.017
-350.493	-200.000	-0.025	-0.287
-349.479	-200.000	-0.080	0.368
-348.464	-160.691	-0.258	-0.014
-347.450	268.515	-0.078	0.136
-346.435	-105.898	-0.174	0.039
-345.420	-200.000	-0.020	-0.307
-344.406	-15.491	0.144	0.091
-343.391	-12.172	0.387	-0.251
-342.377	-71.067	-0.363	0.135
-341.362	133.014	-0.136	0.174
-340.348	-90.972	0.337	0.096
-339.333	-200.000	-0.014	0.065
-338.318	-161.305	-0.161	-0.008
-337.304	-102.244	-0.133	0.032
-336.289	-200.000	-0.030	-0.132
-335.275	-200.000	-0.045	-0.201
-334.260	287.333	-0.132	-0.237
-333.245	-32.905	0.132	0.073
-332.231	-110.494	-0.149	0.031
-331.216	-200.000	-0.029	0.245
-330.202	-19.328	0.287	0.177
-329.187	219.001	0.049	-0.077
-328.172	800.000	-0.148	0.425
-327.158	181.717	0.152	-0.223
-326.143	170.720	-0.104	0.148
-325.129	-4.933	0.370	0.253
-324.114	800.000	0.063	0.221
-323.099	-33.483	0.099	0.054
-322.085	47.572	0.026	-0.024
-321.070	-42.822	0.243	0.122
-320.056	-1.639	-0.266	0.186
-319.041	457.524	0.167	0.368
-318.026	-200.000	0.012	-0.148
-317.012	-55.481	0.178	0.079
-315.997	-54.946	-0.095	0.042
-314.983	799.919	0.099	-0.271
-313.968	-10.113	-0.132	-0.087
-312.953	0.621	-0.299	-0.212
-311.939	800.000	-0.034	0.115
-310.924	91.472	-0.106	-0.118
-309.910	800.000	0.109	0.368
-308.895	-200.000	-0.031	-0.233
-307.880	134.223	-0.217	0.279
-306.866	-80.193	0.144	-0.048
-305.851	800.000	0.044	-0.173
-304.837	-132.239	0.217	0.028
-303.822	800.000	-0.146	0.467
-302.807	331.818	0.100	-0.190
-301.793	55.102	-0.186	0.178
-300.778	110.917	0.071	-0.085
-299.764	71.656	-0.157	-0.161
-298.749	-48.105	0.223	0.107
-297.735	-10.585	0.049	-0.032
-296.720	-62.162	0.245	0.101
-295.705	112.062	0.062	-0.075
-294.691	800.000	0.084	0.256
-293.676	295.600	0.091	0.165
-292.662	154.254	-0.024	-0.033
-291.647	-129.317	-0.084	-0.012
-290.632	-35.813	0.222	-0.119
-289.618	800.000	0.077	-0.210
-288.603	-7.433	-0.254	0.170
-287.589	83.480	-0.249	0.269
-286.574	394.756	-0.088	0.182
-285.559	-200.000	0.003	-0.090
-284.545	-200.000	-0.059	0.330
-283.530	444.514	0.043	0.094
-282.516	41.722	-0.396	0.355
-281.501	-132.510	0.404	-0.051
-280.486	69.569	0.142	-0.145
-279.472	33.894	0.150	-0.129
-278.457	-16.060	-0.285	0.180
-277.443	-200.000	-0.019	-0.095
-276.428	-76.317	0.275	-0.096
-275.413	30.902	-0.082	-0.069
-274.399	800.000	0.050	0.183
-273.384	97.311	-0.319	0.363
-272.370	44.137	0.190	-0.172
-271.355	102.120	-0.085	0.098
-270.340	358.715	-0.178	0.352
-269.326	361.479	-0.156	0.310
-268.311	268.456	0.120	-0.208
-267.297	459.164	-0.098	-0.215
-266.282	800.000	-0.055	-0.210
-265.267	-200.000	-0.005	-0.065
-264.253	56.231	0.182	0.175
-263.238	-200.000	-0.002	-0.079
-262.224	-9.142	0.139	-0.092
-261.209	-200.000	-0.031	-0.330
-260.195	41.482	-0.160	-0.144
-259.180	3.967	-0.059	0.043
-258.165	144.232	-0.187	-0.246
-257.151	-200.000	-0.043	-0.221
-256.136	74.895	0.211	0.220
-255.122	-200.000	-0.020	-0.143
-254.107	11.552	-0.222	-0.169
-253.092	-149.399	0.443	-0.035
-252.078	666.762	-0.088	0.224
-251.063	547.540	0.124	0.294
-250.049	-93.032	-0.115	0.032
-249.034	5.208	0.054	0.039
-248.019	-200.000	0.009	-0.202
-247.005	264.100	-0.068	-0.117
-245.990	-77.904	-0.056	0.019
-244.976	708.430	0.091	-0.237
-243.961	-200.000	0.014	-0.210
-242.946	-200.000	0.045	0.443
-241.932	-200.000	-0.043	0.255
-240.917	55.942	0.241	-0.231
-239.903	167.658	0.165	0.232
-238.888	293.623	-0.110	-0.199
-237.873	-50.328	0.090	0.042
-236.859	-31.067	-0.108	-0.060
-235.844	-35.771	-0.261	0.140
-234.830	-200.000	0.075	0.359
-233.815	36.722	0.166	-0.145
-232.800	91.694	0.255	0.284
-231.786	-75.849	0.243	0.085
-230.771	-140.720	-0.249	-0.025
-229.757	13.439	0.117	0.090
-228.742	-2.399	0.353	0.245
-227.727	-28.959	0.209	-0.119
-226.713	47.658	0.133	0.122
-225.698	214.070	-0.125	-0.195
-224.684	-40.330	0.131	0.068
-223.669	-200.000	0.025	0.341
-222.655	-35.188	0.237	0.127
-221.640	-177.487	0.323	0.008
-220.625	11.323	0.159	0.120
-219.611	47.128	-0.123	-0.113
-218.596	800.000	0.051	-0.211
-217.582	800.000	0.064	0.194
-216.567	-37.028	0.250	0.132
-215.552	61.556	0.274	-0.270
-214.538	800.000	0.085	0.243
-213.523	-200.000	0.081	0.383
-212.509	-88.270	0.342	0.101
-211.494	-200.000	0.004	0.297
-210.479	114.137	-0.295	-0.355
-209.465	12.523	-0.428	-0.326
-208.450	42.834	-0.037	0.033
-207.436	-104.700	-0.330	-0.075
-206.421	-83.271	-0.276	0.088
-205.406	-200.000	-0.026	-0.139
-204.392	134.624	-0.131	0.168
-203.377	17.706	0.071	-0.056
-202.363	-191.229	0.165	0.002
-201.348	29.398	-0.320	-0.268
-200.333	20.042	0.065	0.052
-199.319	26.391	0.101	0.084
-198.304	95.912	0.163	-0.183
-197.290	-19.129	0.262	0.161
-196.275	528.661	-0.044	0.103
-195.260	-88.363	0.357	0.105
-194.246	-200.000	-0.023	0.248
-193.231	-136.230	-0.187	0.022
-192.217	800.000	-0.127	-0.429
-191.202	574.212	0.147	0.353
-190.187	409.303	0.055	0.116
-189.173	-44.825	0.304	-0.150
-188.158	-200.000	-0.002	-0.247
-187.144	800.000	-0.005	0.016
-186.129	-33.281	-0.101	-0.055
-185.114	-62.695	0.116	0.047
-184.100	52.189	0.123	-0.115
-183.085	155.358	0.110	-0.150
-182.071	110.018	-0.070	0.083
-181.056	-200.000	-0.026	-0.186
-180.042	37.104	0.298	-0.261
-179.027	125.038	-0.129	-0.161
-178.012	-182.178	0.303	-0.006
-176.998	-127.336	-0.199	0.029
-175.983	-200.000	0.027	0.131
-174.969	-71.521	-0.337	-0.124
-173.954	-2.453	0.262	-0.181
-172.939	225.682	0.215	0.343
-171.925	-200.000	-0.040	0.307
-170.910	76.619	0.140	-0.147
-169.896	-17.140	-0.135	-0.084
-168.881	70.167	0.136	0.138
-167.866	-26.588	-0.199	-0.115
-166.852	167.994	-0.138	-0.193
-165.837	-130.765	0.023	0.003
-164.823	-200.000	0.006	0.154
-163.808	95.726	-0.105	-0.118
-162.793	-116.439	0.412	-0.075
-161.779	-153.238	0.145	0.010
-160.764	325.664	-0.155	0.293
-159.750	255.581	-0.151	-0.255
-158.735	-200.000	-0.005	0.175
-157.720	-86.366	0.290	-0.088
-156.706	285.266	-0.065	0.116
-155.691	-124.345	0.290	-0.045
-154.677	31.257	0.061	0.052
-153.662	-5.789	-0.241	0.163
-152.647	-200.000	0.030	0.262
-151.633	451.412	-0.035	-0.076
-150.618	234.642	-0.152	0.247
-149.604	-149.150	0.188	0.015
-148.589	-120.945	-0.314	-0.052
-147.574	206.453	0.026	-0.040
-146.560	-58.269	0.238	0.102
-145.545	-102.460	0.217	-0.051
-144.531	127.820	0.096	0.121
-143.516	133.030	-0.167	-0.212
-142.502	2.164	-0.196	-0.139
-141.487	-200.000	0.016	0.264
-140.472	62.626	-0.109	0.108
-139.458	800.000	-0.089	-0.324
-138.443	-67.733	0.141	-0.054
-137.429	31.210	0.260	0.220
-136.414	113.783	-0.025	0.030
-135.399	122.650	0.161	0.198
-134.385	-112.020	0.193	0.038
-133.370	-102.738	0.402	-0.094
-132.356	-86.891	-0.318	-0.096
-131.341	800.000	0.022	-0.073
-130.326	686.691	-0.045	-0.117
-129.312	245.222	-0.068	0.112
-128.297	-103.971	0.506	-0.116
-127.283	53.898	-0.081	-0.076
-126.268	28.450	0.269	0.224
-125.253	-24.154	-0.133	0.078
-124.239	800.000	-0.104	-0.376
-123.224	-23.771	-0.248	0.146
-122.210	-85.662	-0.181	-0.055
-121.195	-64.889	-0.002	0.001
-120.180	-200.000	0.013	0.191
-119.166	-200.000	-0.021	0.168
-118.151	-44.949	-0.086	-0.042
-117.137	143.677	0.129	0.169
-116.122	-166.716	-0.241	-0.010
-115.107	211.787	-0.134	-0.208
-114.093	111.758	-0.189	-0.224
-113.078	-69.039	0.302	0.115
-112.064	800.000	0.052	0.147
-111.049	-80.485	-0.260	0.085
-110.034	56.371	0.208	0.199
-109.020	-200.000	0.011	0.248
-108.005	-78.427	-0.235	0.079
-106.991	-155.019	-0.071	-0.005
-105.976	212.560	0.068	-0.106
-104.962	265.520	0.108	0.185
-103.947	157.353	0.159	-0.216
-102.932	675.131	-0.110	0.280
-101.918	800.000	0.150	0.435
-100.903	-82.541	-0.521	-0.166
-99.889	41.244	0.175	-0.155
-98.874	-200.000	-0.029	-0.216
-97.859	-200.000	0.047	-0.215
-96.845	-70.781	0.316	-0.117
-95.830	19.571	0.200	-0.158
-94.816	-200.000	-0.059	0.284
-93.801	517.007	-0.074	0.169
-92.786	-200.000	-0.088	0.393
-91.772	-200.000	-0.004	0.441
-90.757	-115.153	0.296	0.055
-89.743	13.601	-0.315	0.240
-88.728	406.734	0.086	-0.179
-87.713	-68.015	-0.242	0.093
-86.699	-29.441	-0.074	-0.042
-85.684	47.549	0.059	0.054
-84.670	-40.488	0.262	0.134
-83.655	183.755	0.194	0.283
-82.640	202.820	0.195	0.296
-81.626	665.526	-0.018	0.046
-80.611	-143.275	0.029	-0.003
-79.597	76.958	-0.229	-0.239
-78.582	43.262	0.249	0.224
-77.567	-91.455	0.365	-0.102
-76.553	162.189	-0.272	0.375
-75.538	1.571	-0.138	0.098
-74.524	141.649	-0.087	-0.114
-73.509	-82.699	-0.277	-0.088
-72.494	-200.000	0.006	-0.170
-71.480	366.481	-0.075	0.148
-70.465	344.648	-0.058	0.111
-69.451	-145.782	0.273	-0.024
-68.436	43.803	0.235	0.212
-67.422	67.979	0.040	-0.041
-66.407	154.641	-0.041	0.055
-65.392	-67.753	0.447	0.172
-64.378	-200.000	0.043	0.286
-63.363	800.000	-0.069	0.275
-62.349	800.000	0.129	0.458
-61.334	162.894	-0.745	-1.027
-60.319	173.103	0.459	0.649
-59.305	800.000	-0.433	-1.289
-58.290	253.591	0.613	1.029
-57.276	295.264	0.813	1.461
-56.261	-200.000	106.296	585.993
-55.246	523.219	1463.866	3376.989
-54.232	183.748	2647.103	3843.449
-53.217	111.401	2163.664	2560.862
-52.203	40.270	1696.616	1498.227
-51.188	33.186	1510.318	1285.712
-50.173	30.732	1484.025	1246.865
-49.159	50.836	1538.389	1430.320
-48.144	51.408	1556.547	1451.054
-47.130	33.225	1512.334	1287.494
-46.115	30.228	1497.785	1254.815
-45.100	30.125	1494.325	1251.173
-44.086	30.025	1492.368	1248.809
-43.071	30.066	1489.928	1246.996
-42.057	29.999	1488.690	1245.457
-41.042	30.021	1487.239	1244.342
-40.027	29.973	1485.421	1242.452
-39.013	29.910	1483.923	1240.726
-37.998	30.015	1482.737	1240.388
-36.984	29.930	1481.934	1239.099
-35.969	29.938	1480.697	1238.068
-34.954	29.886	1479.330	1236.525
-33.940	30.044	1477.541	1236.040
-32.925	29.877	1476.674	1234.152
-31.911	30.008	1475.020	1233.589
-30.896	30.052	1473.786	1232.805
-29.881	30.149	1472.214	1232.085
-28.867	30.115	1471.039	1230.824
-27.852	30.072	1470.055	1229.669
-26.838	30.029	1468.917	1228.384
-25.823	29.965	1467.610	1226.814
-24.809	30.067	1465.564	1225.732
-23.794	30.054	1464.131	1224.398
-22.779	30.019	1463.255	1223.389
-21.765	29.963	1461.782	1221.737
-20.750	30.098	1460.656	1221.641
-19.736	29.992	1459.666	1220.065
-18.721	29.959	1458.509	1218.828
-17.706	30.104	1456.898	1218.390
-16.692	30.037	1456.512	1217.578
-15.677	29.960	1455.482	1216.166
-14.663	30.070	1454.213	1215.774
-13.648	30.047	1453.241	1214.764
-12.633	29.978	1452.763	1213.866
-11.619	29.901	1452.140	1212.791
-10.604	29.957	1450.265	1211.541
-9.590	29.845	1450.015	1210.552
-8.575	29.925	1449.168	1210.322
-7.560	29.908	1448.018	1209.200
-6.546	29.915	1447.229	1208.539
-5.531	29.920	1446.194	1207.660
-4.517	29.860	1445.815	1206.905
-3.502	29.854	1444.270	1205.529
-2.487	29.907	1443.257	1204.979
-1.473	29.853	1442.468	1203.920
-0.458	29.933	1440.866	1203.056
0.556	31.677	1430.923	1191.569
1.571	28.374	1406.631	1150.533
2.586	24.751	1347.849	1080.513
3.600	23.070	1266.139	1005.369
4.615	21.698	1220.260	961.334
5.629	18.843	1164.381	902.259
6.644	10.987	1081.929	799.819
7.659	4.899	1042.908	741.981
8.673	4.040	1037.123	733.731
9.688	3.667	1034.174	729.815
10.702	3.575	1032.641	728.236
11.717	3.759	1030.075	727.227
12.731	6.439	1033.355	742.120
13.746	14.464	1044.666	788.259
14.761	21.704	1053.612	829.339
15.775	23.800	1055.529	840.700
16.790	23.451	1053.882	837.667
17.804	22.812	1052.362	833.371
18.819	22.045	1051.065	828.648
19.834	21.852	1050.020	826.843
20.848	21.906	1049.626	826.714
21.863	21.928	1049.053	826.292
22.877	21.986	1048.153	825.785
23.892	21.711	1047.853	824.181
24.907	21.643	1046.589	822.796
25.921	21.594	1045.767	821.847
26.936	21.421	1045.256	820.562
27.950	21.371	1044.584	819.724
28.965	21.322	1043.026	818.199
29.980	21.354	1042.071	817.531
30.994	21.658	1040.819	817.893
32.009	21.924	1040.135	818.524
33.023	21.885	1039.639	817.880
34.038	21.779	1038.676	816.558
35.053	21.802	1037.899	815.980
36.067	21.609	1036.660	814.037
37.082	21.551	1035.824	813.042
38.096	21.517	1035.294	812.393
39.111	21.566	1034.924	812.260
40.126	21.869	1033.647	812.587
41.140	21.708	1032.420	810.809
42.155	21.216	1031.365	807.631
43.169	20.988	1030.321	805.689
44.184	20.984	1028.800	804.413
45.199	20.960	1027.719	803.387
46.213	20.810	1027.217	802.230
47.228	21.059	1026.140	802.462
48.242	21.495	1025.629	803.995
49.257	21.611	1025.328	804.223
50.271	21.684	1024.467	803.812
51.286	21.574	1023.638	802.585
52.301	21.844	1022.831	803.118
53.315	21.717	1022.501	802.206
54.330	21.676	1021.622	801.258
55.344	21.448	1020.281	799.093
56.359	21.405	1019.464	798.188
57.374	21.232	1018.436	796.523
58.388	21.135	1017.591	795.349
59.403	21.199	1016.525	794.737
60.417	20.968	1016.053	793.248
61.432	21.042	1015.044	792.726
62.447	20.940	1014.210	791.541
63.461	20.992	1013.488	791.144
64.476	20.873	1013.174	790.286
65.490	20.763	1012.251	788.999
66.505	20.666	1011.514	787.915
67.520	20.703	1010.402	787.148
68.534	20.854	1009.803	787.296
69.549	20.859	1009.244	786.810
70.563	20.658	1007.859	784.754
71.578	20.579	1007.141	783.771
72.593	20.359	1006.312	782.063
73.607	20.204	1004.989	780.268
74.622	20.225	1004.227	779.704
75.636	20.256	1003.349	779.094
76.651	20.397	1002.704	779.156
77.666	20.484	1001.800	778.772
78.680	20.644	1001.100	778.879
79.695	20.476	1001.053	778.020
80.709	20.549	999.968	777.435
81.724	20.690	999.707	777.793
82.739	20.864	999.184	778.094
83.753	20.878	998.619	777.647
84.768	21.329	997.686	778.865
85.782	21.784	997.724	780.850
86.797	22.127	996.972	781.720
87.812	22.144	996.570	781.411
88.826	21.916	995.565	779.541
89.841	21.778	994.780	778.245
90.855	21.995	993.959	778.496
91.870	21.903	993.633	777.763
92.884	22.006	992.695	777.419
93.899	22.062	991.964	777.024
94.914	21.885	990.929	775.362
95.928	21.992	990.380	775.335
96.943	21.999	989.652	774.730
97.957	21.877	988.792	773.450
98.972	21.652	987.792	771.610
99.987	21.799	986.786	771.399
101.001	21.854	986.371	771.247
102.016	21.821	985.656	770.478
103.030	21.768	984.067	768.935
104.045	21.758	983.713	768.548
105.060	21.845	982.703	768.070
106.074	21.793	981.532	766.857
107.089	21.707	980.010	765.227
108.103	21.305	979.244	762.808
109.118	21.047	978.664	761.163
110.133	20.777	977.587	759.081
111.147	20.721	976.028	757.558
112.162	20.621	974.907	756.187
113.176	20.721	974.542	756.271
114.191	20.891	974.006	756.525
115.206	20.902	973.629	756.212
116.220	20.992	972.397	755.578
117.235	20.803	971.826	754.250
118.249	20.816	970.772	753.421
119.264	20.747	969.782	752.288
120.279	20.595	969.288	751.184
121.293	20.513	968.728	750.329
122.308	20.470	967.379	749.031
123.322	20.280	966.954	747.816
124.337	20.275	965.217	746.385
125.352	20.278	963.677	745.142
126.366	20.309	963.011	744.695
127.381	20.136	962.574	743.551
128.395	20.330	961.147	743.211
129.410	20.440	960.674	743.251
130.424	20.360	959.928	742.265
131.439	20.539	958.968	742.221
132.454	20.811	958.529	742.977
133.468	20.936	957.948	742.993
134.483	20.948	956.774	742.069
135.497	20.932	956.568	741.774
136.512	20.935	955.868	741.179
137.527	21.005	954.438	740.305
138.541	21.045	954.028	740.090
139.556	21.063	953.245	739.494
140.570	21.161	952.596	739.337
141.585	21.357	952.178	739.780
142.600	21.503	952.128	740.293
143.614	21.622	951.299	740.085
144.629	21.749	950.507	739.939
145.643	21.846	950.007	739.892
146.658	21.800	949.368	739.135
147.673	21.658	947.969	737.385
148.687	21.398	946.445	735.041
149.702	21.075	946.163	733.398
150.716	21.009	944.954	732.122
151.731	21.058	943.828	731.390
152.746	20.988	943.302	730.622
153.760	21.061	942.803	730.477
154.775	21.243	941.931	730.498
155.789	21.338	941.113	730.197
156.804	21.336	940.257	729.458
157.819	21.413	939.163	728.868
158.833	21.377	938.878	728.433
159.848	21.530	938.459	728.678
160.862	21.830	938.098	729.582
161.877	21.873	936.870	728.740
162.892	21.440	935.418	725.750
163.906	20.987	934.606	723.180
164.921	20.857	933.489	721.713
165.935	20.828	932.407	720.691
166.950	21.005	931.262	720.474
167.964	21.117	931.186	720.813
168.979	21.081	930.164	719.810
169.994	21.200	928.157	718.683
171.008	21.039	927.994	717.832
172.023	21.105	927.044	717.305
173.037	21.483	926.576	718.431
174.052	21.808	926.046	719.291
175.067	21.559	925.300	717.628
176.081	21.252	923.914	715.231
177.096	20.866	923.271	713.090
178.110	20.850	921.812	711.837
179.125	20.839	921.426	711.428
180.140	20.775	921.200	710.932
181.154	21.019	920.031	710.962
182.169	21.263	920.342	712.134
183.183	21.444	919.719	712.325
184.198	21.508	919.147	712.080
185.213	21.559	918.366	711.617
186.227	21.393	917.906	710.526
187.242	21.505	917.214	710.381
188.256	21.618	916.778	710.439
189.271	21.775	916.331	710.668
190.286	21.883	915.345	710.277
191.300	21.661	914.073	708.330
192.315	21.013	912.985	704.803
193.329	20.647	912.077	702.564
194.344	20.731	911.632	702.495
195.359	20.885	911.439	702.908
196.373	21.043	910.907	703.073
197.388	21.166	910.550	703.230
198.402	21.427	910.186	703.937
199.417	21.659	910.254	704.864
200.432	22.006	909.870	705.897
201.446	22.199	909.475	706.306
202.461	22.175	909.480	706.147
203.475	22.278	908.451	705.702
204.490	22.116	907.830	704.507
205.504	21.781	906.494	702.065
206.519	21.527	905.451	700.182
207.534	21.445	904.859	699.333
208.548	21.474	904.042	698.755
209.563	21.577	903.403	698.612
210.577	21.516	903.119	698.085
211.592	21.564	902.267	697.555
212.607	21.926	901.819	698.589
213.621	22.200	901.621	699.465
214.636	22.019	900.655	697.933
215.650	21.853	900.225	696.878
216.665	21.844	899.636	696.328
217.680	21.873	899.516	696.288
218.694	21.909	899.186	696.112
219.709	22.060	898.355	696.006
220.723	22.056	897.624	695.364
221.738	21.919	896.975	694.255
222.753	21.833	895.969	693.078
223.767	21.750	895.092	692.010
224.782	21.842	894.838	692.115
225.796	21.982	894.137	692.061
226.811	22.118	893.730	692.223
227.826	22.136	892.957	691.634
228.840	21.781	891.683	689.189
229.855	21.644	891.027	688.085
230.869	21.663	890.608	687.776
231.884	21.426	890.381	686.609
232.899	21.583	889.138	686.204
233.913	21.489	888.360	685.173
234.928	21.390	888.010	684.457
235.942	21.243	886.682	682.799
236.957	21.064	886.212	681.677
237.972	21.237	885.392	681.662
238.986	21.240	884.561	680.972
240.001	21.150	884.306	680.365
241.015	21.100	883.612	679.575
242.030	21.315	883.041	679.911
243.045	21.478	882.577	680.131
244.059	21.518	882.887	680.465
245.074	21.675	881.473	679.921
246.088	21.524	881.426	679.239
247.103	21.788	880.740	679.675
248.117	21.972	880.112	679.842
249.132	22.337	879.817	680.967
250.147	22.713	879.531	682.140
251.161	22.938	879.797	683.157
252.176	22.973	879.170	682.746
253.190	23.037	878.603	682.492
254.205	23.147	878.134	682.489
255.220	23.176	877.564	682.099
256.234	22.993	876.967	680.870
257.249	23.094	875.963	680.417
258.263	22.971	875.666	679.653
259.278	22.776	874.985	678.315
260.293	22.801	874.727	678.154
261.307	22.983	873.662	677.965
262.322	22.902	873.715	677.636
263.336	23.200	872.833	678.033
264.351	23.081	872.307	677.108
265.366	22.996	871.809	676.339
266.380	23.014	870.941	675.674
267.395	23.118	870.324	675.532
268.409	22.919	870.115	674.549
269.424	22.707	869.145	672.929
270.439	22.714	868.425	672.339
271.453	22.697	867.464	671.473
272.468	22.720	866.269	670.574
273.482	22.477	866.026	669.404
274.497	22.578	865.164	669.060
275.512	22.513	864.811	668.482
276.526	22.570	863.912	667.946
277.541	22.683	863.355	667.885
278.555	22.697	862.813	667.456
279.570	22.974	862.511	668.213
280.585	23.249	862.055	668.840
281.599	23.184	861.728	668.282
282.614	23.058	860.395	666.714
283.628	22.661	859.739	664.650
284.643	22.539	859.603	664.026
285.657	22.570	859.010	663.627
286.672	22.615	858.398	663.262
287.687	22.647	857.712	662.796
288.701	22.806	857.304	663.020
289.716	22.916	856.793	662.976
290.730	22.736	855.975	661.610
291.745	22.882	855.105	661.425
292.760	22.717	855.041	660.700
293.774	22.908	854.633	661.040
294.789	23.184	854.417	661.848
295.803	23.284	854.053	661.882
296.818	22.793	853.333	659.432
297.833	22.710	852.401	658.343
298.847	22.628	851.243	657.083
299.862	22.694	850.582	656.763
300.876	22.714	850.487	656.704
301.891	22.942	849.470	656.710
302.906	23.100	849.995	657.645
303.920	23.221	849.291	657.489
304.935	23.473	848.707	657.917
305.949	23.656	848.346	658.255
306.964	23.528	847.366	656.965
307.979	23.283	846.803	655.562
308.993	23.021	846.050	653.951
310.008	23.041	845.923	653.872
311.022	23.406	845.218	654.616
312.037	23.160	844.918	653.416
313.052	23.069	843.939	652.267
314.066	22.838	843.225	650.804
315.081	22.545	842.159	648.846
316.095	22.518	841.667	648.310
317.110	22.689	840.640	648.089
318.125	22.800	840.154	648.065
319.139	22.528	840.171	647.023
320.154	22.327	839.411	645.645
321.168	22.301	838.922	645.115
322.183	22.480	838.564	645.437
323.197	22.760	838.081	646.036
324.212	22.624	837.893	645.335
325.227	22.640	837.098	644.725
326.241	22.541	836.825	644.094
327.256	22.576	835.638	643.251
328.270	22.637	835.091	642.996
329.285	22.496	834.692	642.118
330.300	22.556	834.286	641.967
331.314	22.322	833.574	640.510
332.329	22.462	832.563	640.188
333.343	22.830	832.454	641.385
334.358	23.000	831.994	641.589
335.373	23.096	831.618	641.591
336.387	23.032	831.180	640.964
337.402	23.204	830.544	641.039
338.416	23.072	830.387	640.385
339.431	23.503	829.917	641.526
340.446	23.703	829.651	641.987
341.460	23.810	829.421	642.137
342.475	23.806	828.907	641.668
343.489	23.912	828.367	641.575
344.504	23.930	827.805	641.149
345.519	23.950	827.520	640.944
346.533	24.228	826.847	641.366
347.548	24.129	826.439	640.635
348.562	23.742	825.389	638.377
349.577	23.521	824.912	637.157
350.592	23.215	823.963	635.267
351.606	23.177	823.504	634.721
352.621	23.011	822.835	633.557
353.635	23.160	822.084	633.454
354.650	23.176	821.859	633.281
355.665	23.089	821.543	632.672
356.679	23.133	821.070	632.408
357.694	23.261	820.953	632.721
358.708	23.343	820.159	632.344
359.723	23.308	819.605	631.736
360.738	23.273	819.221	631.261
361.752	23.259	818.522	630.617
362.767	23.364	818.330	630.785
363.781	23.669	818.302	631.794
364.796	23.864	818.134	632.301
365.810	23.917	817.692	632.094
366.825	24.138	817.397	632.594
367.840	24.206	817.235	632.653
368.854	24.264	816.263	632.050
369.869	23.847	816.078	630.374
370.883	23.846	814.837	629.356
371.898	23.788	814.158	628.570
372.913	23.862	813.879	628.562
373.927	24.116	813.402	629.037
374.942	24.018	812.491	627.930
375.956	23.726	812.121	626.557
376.971	24.046	811.685	627.292
377.986	24.107	811.366	627.208
379.000	24.336	810.679	627.425
380.015	24.331	810.392	627.130
381.029	24.184	810.061	626.301
382.044	24.197	809.223	625.645
383.059	24.372	808.100	625.336
384.073	24.474	807.919	625.495
385.088	24.372	807.274	624.583
386.102	24.005	806.714	622.813
387.117	23.618	805.622	620.562
388.132	23.633	805.016	620.093
389.146	23.649	804.415	619.629
390.161	23.574	804.112	619.080
391.175	23.863	804.157	620.068
392.190	24.311	803.838	621.327
393.205	24.135	803.378	620.306
394.219	23.778	802.744	618.517
395.234	23.668	801.920	617.444
396.248	23.297	801.041	615.426
397.263	23.302	801.098	615.432
398.278	23.534	799.945	615.296
399.292	23.455	799.530	614.650
400.307	23.171	799.239	613.386
401.321	23.098	798.821	612.757
402.336	23.290	798.545	613.157
403.350	23.380	798.614	613.466
404.365	23.711	798.241	614.271
405.380	23.915	798.118	614.829
406.394	24.465	797.689	616.344
407.409	24.346	797.289	615.568
408.423	24.461	796.945	615.644
409.438	24.677	796.708	616.152
410.453	24.597	796.289	615.498
411.467	24.585	796.013	615.190
412.482	24.744	795.490	615.278
413.496	24.640	794.892	614.404
414.511	24.674	794.923	614.490
415.526	24.762	794.179	614.164
416.540	24.695	793.851	613.624
417.555	24.552	793.349	612.691
418.569	24.677	792.259	612.223
419.584	24.567	792.085	611.657
420.599	24.598	791.576	611.318
421.613	163.383	1370.134	1797.248
422.628	141.649	1454.424	1797.344
