DTS Sentinel unit serial number:	SN413079Multiplexer serial number:	ORYXHardware model number:	OX4-SRSoftware version number:	ORYX F/W v4.00 Oryx Data Collector v3.7.2.0data status	okinstallation	princeton_trtdifferential loss correction	single-endedforward channel	channel 3reverse channel	N/Adate	2019/09/14time	14:44:35forward acquisition time	60.00reverse acquisition time	0.00gamma	496.2192k internal	0.2293k external	0.2293temperature offset calibration	1.0050default loss term (dB/km)	0.3790temperature slope calibration	1.0000multiplexer offset coefficient	1.0000multiplexer slope coefficient	1.0000fibre end	0.00T internal ref (°C)	39.25T ext. ref 1 (°C)	4.95T ext. ref 2 (°C)	34.06length (m)	temperature (°C)	Stokes	anti-Stokes-747.200	383.507	-0.072	0.153
-746.185	-200.000	-0.050	0.235
-745.171	370.159	-0.117	-0.242
-744.156	-42.582	0.108	0.056
-743.142	146.136	-0.252	-0.346
-742.127	-136.260	-0.569	-0.068
-741.112	-52.934	-0.181	0.085
-740.098	312.048	0.028	-0.054
-739.083	-64.869	0.133	0.055
-738.069	170.394	-0.057	0.083
-737.054	-200.000	0.015	-0.116
-736.039	92.629	-0.193	-0.222
-735.025	-108.424	-0.255	0.056
-734.010	601.349	-0.002	-0.005
-732.996	-76.208	-0.110	-0.040
-731.981	-38.153	-0.196	-0.106
-730.966	751.156	-0.091	-0.252
-729.952	-200.000	0.042	-0.371
-728.937	529.070	-0.114	-0.275
-727.923	203.974	-0.160	-0.253
-726.908	-136.204	0.223	0.027
-725.894	517.856	-0.087	-0.207
-724.879	64.332	0.061	-0.063
-723.864	800.000	-0.054	-0.183
-722.850	800.000	0.046	0.165
-721.835	46.486	-0.142	0.135
-720.821	-200.000	-0.008	-0.097
-719.806	-110.447	-0.186	0.040
-718.791	-200.000	-0.036	-0.229
-717.777	800.000	0.002	-0.007
-716.762	-200.000	-0.012	-0.280
-715.748	483.203	-0.113	-0.262
-714.733	398.175	-0.125	-0.267
-713.718	-200.000	0.011	-0.117
-712.704	800.000	0.099	0.381
-711.689	320.893	0.017	0.034
-710.675	-12.308	0.160	-0.107
-709.660	20.867	0.107	-0.088
-708.645	84.690	0.067	0.075
-707.631	11.399	0.187	0.146
-706.616	-200.000	-0.032	0.208
-705.602	14.072	-0.129	0.102
-704.587	-124.251	-0.571	-0.091
-703.572	800.000	0.108	-0.369
-702.558	-200.000	0.008	0.127
-701.543	-60.960	-0.112	-0.048
-700.529	-76.367	-0.068	-0.025
-699.514	37.898	0.232	-0.210
-698.499	-123.421	-0.102	0.017
-697.485	22.465	0.131	-0.110
-696.470	-200.000	0.008	-0.280
-695.456	-12.353	-0.140	0.093
-694.441	800.000	0.081	-0.254
-693.426	-63.708	-0.190	-0.079
-692.412	-91.388	-0.089	-0.026
-691.397	-86.655	-0.087	0.027
-690.383	225.868	-0.068	0.112
-689.368	800.000	0.083	-0.346
-688.354	-162.012	0.246	-0.013
-687.339	26.055	0.183	0.156
-686.324	310.228	-0.151	-0.288
-685.310	138.389	-0.262	0.351
-684.295	92.140	-0.217	0.249
-683.281	-90.834	0.172	0.051
-682.266	-77.351	0.307	-0.109
-681.251	90.349	0.121	-0.138
-680.237	422.408	-0.118	-0.259
-679.222	-168.601	-0.026	-0.001
-678.208	85.798	-0.109	-0.122
-677.193	-125.938	0.155	-0.024
-676.178	-88.626	0.285	0.087
-675.164	-66.431	0.158	-0.064
-674.149	-29.791	-0.171	0.099
-673.135	74.257	0.063	-0.067
-672.120	455.379	-0.086	-0.195
-671.105	-200.000	-0.095	-0.444
-670.091	-31.593	0.140	-0.080
-669.076	461.668	-0.080	0.182
-668.062	160.569	0.211	-0.301
-667.047	800.000	0.033	0.146
-666.032	92.093	0.093	0.107
-665.018	-152.344	-0.238	-0.017
-664.003	800.000	-0.026	-0.113
-662.989	-144.315	-0.201	-0.019
-661.974	13.029	0.225	-0.178
-660.959	173.350	0.084	-0.123
-659.945	-200.000	-0.018	0.154
-658.930	9.873	-0.352	0.273
-657.916	-200.000	-0.017	-0.177
-656.901	356.871	-0.168	0.341
-655.886	242.948	0.175	0.299
-654.872	-89.158	-0.242	-0.073
-653.857	-29.846	0.102	0.059
-652.843	-200.000	0.030	-0.317
-651.828	-126.414	0.272	-0.041
-650.814	-38.714	-0.190	-0.102
-649.799	-80.439	-0.274	-0.093
-648.784	-150.321	0.100	0.008
-647.770	-148.209	0.142	0.012
-646.755	-200.000	0.066	0.313
-645.741	800.000	0.155	0.478
-644.726	-49.024	0.236	0.115
-643.711	-174.252	0.320	0.009
-642.697	-61.689	-0.155	-0.066
-641.682	800.000	-0.086	0.282
-640.668	100.922	0.325	0.385
-639.653	-200.000	0.045	0.367
-638.638	51.517	-0.210	-0.204
-637.624	800.000	-0.092	-0.291
-636.609	800.000	-0.045	0.135
-635.595	-158.425	0.313	0.019
-634.580	177.194	-0.197	0.293
-633.565	669.189	0.061	0.161
-632.551	-200.000	0.005	-0.154
-631.536	-200.000	-0.010	0.195
-630.522	14.291	0.119	-0.094
-629.507	559.970	0.125	0.307
-628.492	-77.516	0.266	-0.094
-627.478	-154.819	0.120	0.008
-626.463	90.364	-0.153	-0.175
-625.449	800.000	-0.047	-0.162
-624.434	50.244	0.022	-0.021
-623.419	-200.000	0.018	0.080
-622.405	-58.232	-0.456	0.202
-621.390	124.258	0.098	0.126
-620.376	493.877	-0.135	0.316
-619.361	-200.000	-0.022	-0.209
-618.346	544.498	0.125	-0.304
-617.332	306.322	-0.040	0.075
-616.317	38.845	0.199	-0.181
-615.303	-140.475	0.280	0.030
-614.288	-191.494	0.191	0.002
-613.273	-1.590	0.274	0.197
-612.259	176.298	0.067	0.099
-611.244	-36.778	-0.103	0.056
-610.230	-89.347	0.152	0.046
-609.215	8.957	-0.237	0.182
-608.201	374.405	-0.102	-0.211
-607.186	-200.000	-0.001	0.057
-606.171	-135.600	0.064	0.008
-605.157	-50.266	0.186	0.089
-604.142	-71.357	0.223	-0.085
-603.128	-200.000	0.015	-0.092
-602.113	-34.719	0.156	-0.087
-601.098	-35.368	-0.182	0.101
-600.084	-101.651	0.362	0.089
-599.069	-164.509	-0.098	0.005
-598.055	-58.543	0.134	-0.059
-597.040	106.961	0.139	-0.168
-596.025	131.020	-0.147	0.192
-595.011	29.558	-0.331	-0.287
-593.996	-17.330	-0.257	0.165
-592.982	-83.123	0.066	-0.022
-591.967	-200.000	0.008	0.149
-590.952	29.546	-0.392	0.339
-589.938	166.413	-0.090	0.130
-588.923	-59.214	-0.224	0.098
-587.909	-63.853	0.017	-0.007
-586.894	20.968	0.211	-0.174
-585.879	85.582	-0.187	0.209
-584.865	109.374	-0.139	-0.170
-583.850	-123.987	-0.210	0.034
-582.836	88.376	-0.284	-0.321
-581.821	-34.143	0.082	-0.046
-580.806	13.865	-0.180	0.143
-579.792	-102.155	-0.179	0.044
-578.777	-72.480	-0.182	0.068
-577.763	-154.967	-0.532	-0.036
-576.748	-200.000	0.007	0.099
-575.733	-1.190	0.120	-0.086
-574.719	-58.753	-0.243	-0.107
-573.704	-200.000	-0.035	-0.230
-572.690	800.000	-0.131	-0.380
-571.675	482.532	-0.052	0.121
-570.661	-142.165	-0.294	-0.030
-569.646	93.528	0.111	-0.127
-568.631	800.000	-0.014	-0.045
-567.617	227.342	-0.305	-0.504
-566.602	-134.634	0.162	-0.020
-565.588	312.706	0.107	0.205
-564.573	-200.000	-0.010	0.110
-563.558	-83.078	-0.393	0.129
-562.544	-29.522	-0.161	0.094
-561.529	-69.851	-0.457	0.177
-560.515	800.000	0.039	-0.119
-559.500	-104.858	-0.130	-0.030
-558.485	43.560	-0.335	0.312
-557.471	800.000	0.055	0.168
-556.456	-79.841	-0.191	-0.065
-555.442	572.211	0.056	0.138
-554.427	79.341	-0.151	-0.164
-553.412	-43.059	-0.301	0.155
-552.398	7.884	0.132	0.101
-551.383	-50.958	0.154	-0.073
-550.369	-71.990	-0.080	-0.030
-549.354	-40.591	0.254	0.134
-548.339	-39.290	-0.147	0.078
-547.325	-28.471	-0.251	-0.147
-546.310	-148.570	0.375	-0.031
-545.296	22.572	0.213	0.177
-544.281	800.000	-0.078	0.225
-543.266	-74.922	0.161	-0.059
-542.252	11.107	-0.132	-0.102
-541.237	-56.418	0.144	-0.065
-540.223	275.015	0.148	0.267
-539.208	618.797	-0.077	-0.197
-538.193	-63.584	-0.168	0.070
-537.179	186.650	0.191	0.289
-536.164	133.107	-0.151	-0.197
-535.150	91.102	0.153	-0.175
-534.135	35.686	-0.110	0.098
-533.121	32.878	-0.104	-0.091
-532.106	-79.530	-0.231	-0.079
-531.091	-4.138	0.235	-0.165
-530.077	-89.431	-0.165	0.049
-529.062	-137.302	0.276	0.032
-528.048	451.299	0.087	0.195
-527.033	800.000	-0.065	-0.266
-526.018	-42.554	0.280	-0.145
-525.004	-25.639	-0.269	-0.161
-523.989	-200.000	0.046	-0.244
-522.975	-146.676	-0.396	0.035
-521.960	-110.682	0.203	-0.043
-520.945	0.926	0.163	0.118
-519.931	-124.447	0.169	0.027
-518.916	25.136	-0.143	0.121
-517.902	-200.000	-0.006	-0.059
-516.887	-200.000	0.001	0.116
-515.872	-39.831	0.088	0.046
-514.858	38.739	-0.167	-0.151
-513.843	19.564	-0.198	-0.161
-512.829	37.694	-0.084	0.076
-511.814	-200.000	0.014	0.397
-510.799	800.000	-0.007	-0.032
-509.785	712.003	0.077	0.206
-508.770	6.490	0.192	0.144
-507.756	47.086	0.086	-0.081
-506.741	74.835	-0.276	-0.295
-505.726	-46.268	-0.189	0.094
-504.712	800.000	-0.048	0.137
-503.697	-200.000	-0.002	-0.214
-502.683	-98.964	0.291	-0.075
-501.668	106.152	0.068	-0.081
-500.653	-97.399	0.166	-0.044
-499.639	-200.000	-0.016	0.143
-498.624	-92.618	-0.219	0.062
-497.610	-56.902	-0.040	-0.018
-496.595	-156.821	-0.039	0.002
-495.581	-183.892	-0.203	-0.003
-494.566	643.798	0.076	0.195
-493.551	-37.035	-0.183	0.099
-492.537	-184.694	0.300	-0.005
-491.522	-200.000	0.007	-0.031
-490.508	33.322	0.155	-0.136
-489.493	-200.000	0.055	-0.354
-488.478	-200.000	0.003	-0.404
-487.464	-200.000	0.090	-0.406
-486.449	29.193	0.175	0.151
-485.435	204.842	-0.211	-0.332
-484.420	81.392	-0.263	-0.288
-483.405	31.529	-0.211	0.183
-482.391	-135.959	0.106	0.013
-481.376	-200.000	-0.041	0.326
-480.362	70.234	-0.052	-0.055
-479.347	-64.808	-0.089	-0.037
-478.332	-200.000	0.037	-0.278
-477.318	17.521	-0.253	-0.204
-476.303	253.751	0.129	-0.224
-475.289	-200.000	0.002	-0.105
-474.274	-200.000	-0.034	-0.167
-473.259	198.654	0.190	-0.294
-472.245	57.902	-0.137	0.136
-471.230	80.624	-0.195	-0.213
-470.216	-200.000	-0.036	0.162
-469.201	447.486	-0.043	-0.097
-468.186	253.783	-0.100	-0.172
-467.172	330.346	-0.123	0.240
-466.157	100.829	0.157	0.185
-465.143	-200.000	0.040	0.191
-464.128	377.287	-0.043	-0.089
-463.113	-200.000	-0.011	0.187
-462.099	-116.566	0.155	0.029
-461.084	-94.248	0.238	0.066
-460.070	-31.317	-0.144	-0.082
-459.055	-125.836	-0.236	-0.036
-458.040	-200.000	-0.090	0.412
-457.026	-96.958	-0.099	-0.026
-456.011	-200.000	-0.010	-0.295
-454.997	-61.060	0.245	0.104
-453.982	800.000	0.018	-0.049
-452.968	148.557	0.099	-0.135
-451.953	-200.000	-0.002	0.196
-450.938	227.054	-0.103	0.169
-449.924	18.407	0.150	-0.121
-448.909	-142.090	-0.215	-0.022
-447.895	-200.000	0.041	-0.188
-446.880	-34.014	-0.089	-0.050
-445.865	-27.783	-0.276	-0.162
-444.851	-138.697	0.156	-0.017
-443.836	52.201	-0.318	-0.307
-442.822	-134.681	0.379	-0.047
-441.807	4.446	0.072	-0.053
-440.792	10.014	-0.254	0.195
-439.778	226.974	-0.238	0.391
-438.763	355.232	0.067	-0.134
-437.749	193.656	-0.052	-0.079
-436.734	-200.000	-0.012	-0.065
-435.719	2.782	0.150	0.110
-434.705	24.544	0.205	0.171
-433.690	-36.254	0.103	0.056
-432.676	174.785	0.122	-0.178
-431.661	203.473	-0.134	-0.209
-430.646	800.000	0.138	-0.399
-429.632	800.000	0.014	0.053
-428.617	216.080	-0.039	0.062
-427.603	243.582	0.115	0.195
-426.588	-92.507	-0.234	0.066
-425.573	38.928	0.084	-0.076
-424.559	76.509	0.144	-0.155
-423.544	-143.755	0.274	-0.026
-422.530	199.517	0.109	0.169
-421.515	-67.134	0.114	-0.045
-420.500	-62.800	-0.315	0.132
-419.486	729.063	-0.047	0.128
-418.471	-200.000	-0.032	-0.310
-417.457	-200.000	-0.004	-0.422
-416.442	-200.000	0.034	-0.309
-415.428	-46.848	-0.323	-0.160
-414.413	800.000	0.051	-0.201
-413.398	-149.419	0.228	0.018
-412.384	-195.096	0.225	0.002
-411.369	800.000	0.122	0.406
-410.355	223.697	0.052	-0.085
-409.340	14.399	-0.367	-0.290
-408.325	800.000	-0.029	0.089
-407.311	111.702	-0.236	0.288
-406.296	-39.242	-0.099	0.052
-405.282	305.542	-0.156	0.292
-404.267	800.000	0.002	0.009
-403.252	800.000	0.006	0.017
-402.238	365.397	-0.173	-0.352
-401.223	662.284	-0.055	0.142
-400.209	-18.660	-0.114	0.072
-399.194	112.213	0.099	-0.120
-398.179	-189.020	0.090	-0.001
-397.165	-10.724	0.131	0.087
-396.150	-146.829	-0.230	0.020
-395.136	237.674	-0.154	-0.258
-394.121	-103.206	-0.031	-0.007
-393.106	-200.000	0.011	-0.225
-392.092	-200.000	0.019	-0.084
-391.077	-51.004	0.450	0.213
-390.063	-46.002	0.322	-0.160
-389.048	23.872	0.107	0.089
-388.033	67.768	-0.060	0.062
-387.019	-114.031	-0.190	0.037
-386.004	472.281	-0.101	-0.229
-384.990	800.000	-0.080	0.248
-383.975	-200.000	0.037	0.355
-382.960	-142.727	0.259	-0.026
-381.946	-5.764	0.178	-0.123
-380.931	51.488	0.304	-0.291
-379.917	-114.396	0.030	0.006
-378.902	-40.642	0.479	0.251
-377.888	-200.000	0.048	0.386
-376.873	-200.000	0.010	0.501
-375.858	800.000	-0.068	0.269
-374.844	-111.929	-0.063	-0.013
-373.829	800.000	0.060	-0.202
-372.815	-82.217	-0.053	-0.017
-371.800	-88.155	-0.241	0.073
-370.785	-155.735	-0.188	-0.012
-369.771	-200.000	-0.044	-0.228
-368.756	-103.916	-0.120	-0.028
-367.742	209.186	-0.145	-0.229
-366.727	-200.000	0.104	0.568
-365.712	195.033	0.287	0.439
-364.698	800.000	-0.041	-0.163
-363.683	-79.856	0.233	-0.079
-362.669	-96.332	-0.189	0.051
-361.654	-72.939	0.141	-0.052
-360.639	-112.503	-0.112	-0.023
-359.625	-32.008	0.199	0.112
-358.610	-13.249	0.213	0.140
-357.596	-200.000	0.053	0.298
-356.581	800.000	-0.041	-0.118
-355.566	86.141	-0.244	-0.271
-354.552	-91.135	-0.118	-0.034
-353.537	800.000	0.103	0.308
-352.523	800.000	0.084	0.250
-351.508	700.248	-0.112	-0.297
-350.493	172.349	0.093	0.134
-349.479	23.207	-0.091	0.076
-348.464	-35.038	0.149	0.082
-347.450	-67.701	0.284	-0.112
-346.435	-200.000	-0.019	-0.114
-345.420	399.391	0.082	-0.173
-344.406	57.452	-0.189	0.186
-343.391	-91.251	0.296	0.085
-342.377	-200.000	-0.004	0.354
-341.362	120.879	-0.226	-0.284
-340.348	488.923	-0.072	0.165
-339.333	76.343	0.162	-0.173
-338.318	-101.252	0.106	-0.026
-337.304	-20.285	0.132	-0.082
-336.289	34.048	-0.185	-0.162
-335.275	484.971	0.102	-0.234
-334.260	136.858	0.253	-0.333
-333.245	64.032	-0.101	0.103
-332.231	185.018	-0.154	-0.230
-331.216	192.620	0.100	-0.152
-330.202	372.033	0.234	0.479
-329.187	-60.662	0.381	0.163
-328.172	-134.344	0.238	-0.029
-327.158	-93.864	-0.245	0.068
-326.143	55.706	0.022	-0.022
-325.129	-149.761	-0.195	0.015
-324.114	86.723	0.184	-0.204
-323.099	-200.000	0.004	0.407
-322.085	-12.540	-0.110	-0.072
-321.070	-57.338	-0.232	0.103
-320.056	800.000	-0.049	-0.214
-319.041	-200.000	-0.009	-0.483
-318.026	-133.684	-0.142	-0.018
-317.012	-46.774	0.103	-0.051
-315.997	800.000	0.034	-0.132
-314.983	-79.900	-0.022	-0.007
-313.968	800.000	-0.018	0.079
-312.953	-200.000	-0.049	0.266
-311.939	0.520	-0.064	0.046
-310.924	650.894	0.143	0.369
-309.910	132.628	-0.140	-0.181
-308.895	43.742	-0.136	0.125
-307.880	-200.000	0.003	0.085
-306.866	-200.000	-0.019	-0.194
-305.851	24.977	-0.107	-0.090
-304.837	-90.047	-0.143	-0.042
-303.822	-113.780	0.097	0.019
-302.807	92.573	-0.017	0.020
-301.793	-200.000	0.005	0.064
-300.778	402.479	-0.152	-0.321
-299.764	231.542	-0.057	0.095
-298.749	411.557	-0.203	0.433
-297.735	800.000	0.058	0.209
-296.720	-200.000	-0.012	-0.070
-295.705	-200.000	0.005	-0.223
-294.691	-57.423	0.077	-0.034
-293.676	252.801	-0.099	0.170
-292.662	-142.646	-0.190	0.019
-291.647	800.000	-0.059	-0.167
-290.632	-43.113	0.107	-0.054
-289.618	353.485	-0.059	0.118
-288.603	-12.223	0.270	0.178
-287.589	-30.520	0.179	-0.102
-286.574	482.407	0.183	0.419
-285.559	31.719	0.136	-0.118
-284.545	330.947	0.066	-0.127
-283.530	14.851	0.261	0.205
-282.516	-60.468	0.271	0.116
-281.501	-87.800	-0.267	-0.081
-280.486	139.570	-0.197	-0.261
-279.472	35.834	0.125	-0.110
-278.457	-58.487	0.189	-0.083
-277.443	800.000	0.076	-0.293
-276.428	33.102	-0.172	0.150
-275.413	387.265	0.190	0.395
-274.399	-12.763	0.348	0.228
-273.384	-172.945	-0.118	-0.004
-272.370	218.943	-0.164	0.263
-271.355	334.790	0.083	-0.161
-270.340	2.081	0.183	-0.133
-269.326	800.000	0.029	-0.094
-268.311	-200.000	-0.041	0.235
-267.297	469.888	-0.009	-0.019
-266.282	-200.000	-0.004	-0.033
-265.267	800.000	0.021	0.086
-264.253	-69.275	0.056	-0.021
-263.238	136.117	-0.129	-0.169
-262.224	47.799	0.313	0.293
-261.209	-200.000	0.023	0.346
-260.195	-31.771	-0.097	-0.055
-259.180	-34.898	-0.075	0.041
-258.165	-143.995	0.046	-0.004
-257.151	-136.147	0.133	0.016
-256.136	448.829	-0.060	-0.132
-255.122	163.570	0.087	0.123
-254.107	118.471	-0.120	0.148
-253.092	-200.000	0.008	-0.271
-252.078	176.556	-0.277	-0.405
-251.063	-28.563	-0.264	-0.152
-250.049	-176.438	-0.215	0.006
-249.034	55.729	-0.096	-0.094
-248.019	19.273	-0.113	-0.091
-247.005	-200.000	-0.066	-0.290
-245.990	-200.000	-0.090	-0.399
-244.976	294.727	0.134	0.246
-243.961	51.363	0.200	0.191
-242.946	347.399	0.118	0.232
-241.932	-200.000	-0.043	-0.386
-240.917	199.919	0.068	0.105
-239.903	-77.183	-0.295	-0.103
-238.888	-200.000	-0.044	0.232
-237.873	800.000	0.081	0.244
-236.859	-110.723	-0.047	0.010
-235.844	721.924	-0.134	0.358
-234.830	40.077	-0.050	0.045
-233.815	259.645	0.105	-0.181
-232.800	643.261	-0.015	0.039
-231.786	265.559	0.144	0.251
-230.771	-54.849	0.381	-0.172
-229.757	522.473	0.048	-0.113
-228.742	-99.662	0.262	0.066
-227.727	-78.184	0.034	0.012
-226.713	90.371	0.254	0.285
-225.698	120.295	0.142	0.177
-224.684	4.406	0.168	-0.124
-223.669	-173.134	-0.100	0.003
-222.655	-200.000	-0.018	-0.177
-221.640	-126.339	0.371	-0.055
-220.625	800.000	0.060	0.226
-219.611	-8.083	0.126	-0.085
-218.596	327.820	0.076	-0.146
-217.582	-26.595	0.316	-0.186
-216.567	174.913	0.185	-0.269
-215.552	294.170	-0.062	-0.114
-214.538	800.000	-0.098	-0.388
-213.523	-86.401	0.251	-0.077
-212.509	-200.000	-0.014	-0.185
-211.494	-200.000	0.000	-0.100
-210.479	800.000	-0.012	0.036
-209.465	-200.000	-0.028	0.194
-208.450	-94.842	0.161	-0.044
-207.436	-41.409	-0.174	0.090
-206.421	-119.734	-0.260	0.045
-205.406	-200.000	-0.005	-0.225
-204.392	-164.389	-0.158	-0.007
-203.377	50.870	-0.165	-0.157
-202.363	-34.627	0.334	-0.183
-201.348	-200.000	0.023	-0.220
-200.333	147.914	-0.098	0.132
-199.319	-4.613	0.194	0.134
-198.304	67.582	-0.092	-0.094
-197.290	-56.303	0.142	0.063
-196.275	800.000	-0.065	0.198
-195.260	15.409	0.234	-0.184
-194.246	800.000	0.062	-0.228
-193.231	-53.682	-0.253	-0.116
-192.217	-67.030	-0.103	-0.041
-191.202	800.000	0.045	0.139
-190.187	-123.844	0.048	-0.008
-189.173	49.191	0.131	-0.123
-188.158	-174.833	0.273	-0.008
-187.144	-72.636	0.390	0.144
-186.129	800.000	0.070	0.281
-185.114	-56.720	0.130	-0.057
-184.100	-64.220	-0.263	0.107
-183.085	64.825	-0.035	-0.036
-182.071	761.022	-0.052	-0.141
-181.056	-143.986	0.304	0.029
-180.042	-40.995	0.107	0.055
-179.027	58.226	0.271	0.265
-178.012	-3.487	0.048	0.033
-176.998	-173.400	-0.307	0.009
-175.983	-97.609	-0.379	0.098
-174.969	137.163	0.029	-0.037
-173.954	-138.486	-0.380	-0.042
-172.939	-200.000	0.033	-0.389
-171.925	-67.666	-0.325	-0.128
-170.910	563.714	0.076	-0.185
-169.896	-88.614	-0.137	-0.041
-168.881	-64.409	-0.250	-0.102
-167.866	132.285	-0.111	-0.143
-166.852	-200.000	-0.011	0.114
-165.837	394.488	0.112	-0.234
-164.823	-15.482	0.182	-0.116
-163.808	-31.550	-0.167	0.094
-162.793	-60.254	-0.225	0.096
-161.779	93.675	0.095	0.107
-160.764	-200.000	0.016	0.341
-159.750	-78.879	-0.415	0.141
-158.735	-40.391	-0.238	0.124
-157.720	53.473	0.326	-0.313
-156.706	-200.000	-0.008	0.071
-155.691	-200.000	-0.025	0.167
-154.677	-34.046	-0.149	0.082
-153.662	92.550	0.106	-0.120
-152.647	-50.324	0.205	0.097
-151.633	8.772	-0.048	-0.036
-150.618	800.000	0.022	-0.089
-149.604	-114.844	-0.258	-0.049
-148.589	-95.437	-0.132	-0.035
-147.574	-200.000	-0.053	-0.330
-146.560	-19.432	-0.143	-0.088
-145.545	141.125	0.046	-0.061
-144.531	-108.967	0.155	0.033
-143.516	138.962	0.201	0.263
-142.502	1.919	0.125	-0.090
-141.487	-200.000	0.069	-0.313
-140.472	-200.000	-0.061	-0.276
-139.458	-200.000	-0.014	0.186
-138.443	800.000	-0.054	-0.188
-137.429	-72.623	0.193	-0.071
-136.414	32.869	-0.487	-0.422
-135.399	9.458	0.135	0.102
-134.385	800.000	0.078	0.226
-133.370	-42.144	0.203	0.104
-132.356	-170.938	-0.415	-0.014
-131.341	-62.476	-0.189	-0.079
-130.326	-200.000	0.020	0.188
-129.312	-200.000	-0.019	0.125
-128.297	-200.000	-0.014	-0.102
-127.283	-54.671	0.325	-0.147
-126.268	-200.000	0.019	-0.094
-125.253	511.321	0.153	-0.356
-124.239	-163.663	0.320	-0.015
-123.224	344.173	0.122	0.239
-122.210	-101.732	0.240	0.058
-121.195	800.000	-0.067	0.189
-120.180	255.563	-0.177	0.303
-119.166	100.444	0.205	-0.238
-118.151	161.852	0.096	0.134
-117.137	-200.000	0.018	-0.312
-116.122	-200.000	-0.001	-0.145
-115.107	15.287	0.035	0.027
-114.093	-200.000	-0.003	-0.189
-113.078	13.203	-0.100	-0.077
-112.064	-80.057	0.262	-0.088
-111.049	-125.468	0.115	-0.017
-110.034	-36.670	0.105	-0.056
-109.020	167.661	-0.159	0.225
-108.005	730.131	0.132	0.352
-106.991	-26.933	-0.214	0.125
-105.976	-200.000	-0.004	-0.148
-104.962	-33.353	-0.349	-0.193
-103.947	-200.000	-0.008	-0.090
-102.932	57.290	0.059	0.057
-101.918	-200.000	0.025	-0.384
-100.903	-29.868	0.275	-0.156
-99.889	22.191	0.172	-0.140
-98.874	800.000	0.077	0.242
-97.859	-138.104	0.024	0.003
-96.845	-171.514	-0.225	0.007
-95.830	-155.314	-0.217	0.014
-94.816	607.000	0.095	0.237
-93.801	12.226	0.152	0.117
-92.786	125.846	0.148	-0.186
-91.772	-75.120	0.135	0.048
-90.757	65.262	0.150	0.151
-89.743	-76.780	-0.144	0.050
-88.728	800.000	-0.047	0.186
-87.713	-110.653	0.029	0.006
-86.699	530.065	-0.124	-0.293
-85.684	42.792	0.206	-0.187
-84.670	800.000	-0.069	0.212
-83.655	-200.000	-0.004	0.219
-82.640	800.000	-0.087	0.378
-81.626	-200.000	0.024	0.215
-80.611	-200.000	0.022	-0.107
-79.597	-0.773	-0.118	0.083
-78.582	800.000	-0.108	-0.357
-77.567	-200.000	-0.022	-0.146
-76.553	-200.000	-0.005	0.089
-75.538	-50.819	0.184	-0.086
-74.524	646.255	0.168	0.427
-73.509	800.000	-0.009	-0.033
-72.494	231.654	0.101	0.164
-71.480	138.505	-0.141	-0.185
-70.465	-200.000	0.013	0.127
-69.451	-200.000	0.033	-0.181
-68.436	-200.000	0.037	-0.178
-67.422	-184.888	-0.429	0.007
-66.407	-21.018	0.081	0.049
-65.392	-64.427	-0.510	0.207
-64.378	-200.000	0.033	0.174
-63.363	120.203	-0.163	-0.201
-62.349	-61.774	0.207	0.086
-61.334	79.371	-0.651	-0.695
-60.319	100.406	0.199	0.230
-59.305	-200.000	-0.019	-0.943
-58.290	391.078	0.385	0.796
-57.276	637.711	0.617	1.562
-56.261	-200.000	80.660	495.711
-55.246	549.997	1362.819	3255.143
-54.232	182.423	2590.836	3804.690
-53.217	118.897	2261.026	2783.024
-52.203	49.035	1789.999	1674.373
-51.188	42.372	1593.874	1443.152
-50.173	39.833	1565.667	1399.581
-49.159	55.365	1605.408	1546.758
-48.144	59.878	1625.735	1598.669
-47.130	42.878	1587.644	1440.908
-46.115	39.549	1572.959	1403.855
-45.100	39.345	1569.910	1399.630
-44.086	39.305	1567.885	1397.485
-43.071	39.205	1565.628	1394.705
-42.057	39.135	1563.872	1392.591
-41.042	39.279	1562.354	1392.200
-40.027	39.323	1560.974	1391.232
-39.013	39.188	1559.477	1388.885
-37.998	39.216	1557.903	1387.628
-36.984	39.295	1556.584	1386.951
-35.969	39.238	1555.535	1385.563
-34.954	39.331	1553.841	1384.654
-33.940	39.272	1552.698	1383.167
-32.925	39.248	1551.018	1381.448
-31.911	39.267	1549.576	1380.239
-30.896	39.307	1548.332	1379.358
-29.881	39.352	1546.667	1378.135
-28.867	39.398	1545.592	1377.446
-27.852	39.272	1544.585	1375.609
-26.838	39.339	1542.778	1374.416
-25.823	39.363	1540.929	1372.882
-24.809	39.267	1539.263	1370.674
-23.794	39.253	1537.986	1369.380
-22.779	39.279	1536.497	1368.183
-21.765	39.380	1535.734	1368.152
-20.750	39.361	1534.463	1366.831
-19.736	39.206	1533.831	1365.143
-18.721	39.387	1531.932	1364.653
-17.706	39.200	1531.587	1362.993
-16.692	39.216	1530.383	1361.976
-15.677	39.289	1528.714	1360.946
-14.663	39.168	1528.022	1359.437
-13.648	39.255	1526.350	1358.498
-12.633	39.179	1525.742	1357.381
-11.619	39.149	1525.161	1356.602
-10.604	39.113	1524.862	1356.029
-9.590	39.174	1523.330	1355.038
-8.575	39.233	1521.964	1354.175
-7.560	39.220	1521.258	1353.402
-6.546	39.211	1519.968	1352.142
-5.531	39.126	1519.734	1351.291
-4.517	39.207	1518.708	1350.885
-3.502	39.165	1517.633	1349.585
-2.487	39.189	1516.441	1348.637
-1.473	39.160	1515.391	1347.453
-0.458	39.205	1514.014	1346.478
0.556	39.551	1504.283	1335.475
1.571	36.411	1474.990	1288.443
2.586	32.056	1409.379	1203.184
3.600	29.579	1322.827	1114.274
4.615	27.403	1272.492	1059.138
5.629	22.990	1214.153	985.931
6.644	13.581	1124.611	864.287
7.659	6.062	1079.917	792.075
8.673	4.953	1073.526	781.759
9.688	4.988	1070.924	779.971
10.702	4.897	1069.263	778.237
11.717	4.972	1067.813	777.486
12.731	7.493	1070.486	791.956
13.746	15.847	1082.811	843.010
14.761	21.213	1089.109	874.791
15.775	20.285	1086.861	868.270
16.790	19.206	1083.966	860.490
17.804	18.012	1081.678	852.643
18.819	17.000	1080.125	846.300
19.834	16.578	1078.653	842.969
20.848	16.381	1077.355	840.897
21.863	16.129	1077.289	839.520
22.877	15.957	1075.827	837.452
23.892	15.807	1075.128	836.087
24.907	15.556	1074.815	834.523
25.921	15.657	1073.609	834.015
26.936	15.767	1072.740	833.812
27.950	15.673	1071.780	832.524
28.965	15.678	1070.815	831.726
29.980	15.877	1069.611	831.700
30.994	15.867	1068.481	830.701
32.009	15.959	1067.387	830.228
33.023	15.946	1066.752	829.596
34.038	15.995	1065.520	828.805
35.053	15.926	1065.111	828.074
36.067	15.831	1064.081	826.736
37.082	15.688	1063.244	825.310
38.096	15.739	1062.505	824.914
39.111	15.876	1061.666	824.858
40.126	15.979	1060.682	824.526
41.140	15.883	1059.163	822.802
42.155	15.726	1058.264	821.268
43.169	15.566	1057.462	819.791
44.184	15.618	1056.286	819.060
45.199	15.512	1055.039	817.502
46.213	15.492	1054.446	816.874
47.228	15.558	1053.190	816.151
48.242	15.838	1051.908	816.442
49.257	15.698	1051.430	815.319
50.271	15.773	1050.176	814.639
51.286	15.724	1049.511	813.815
52.301	15.746	1048.727	813.242
53.315	15.719	1047.845	812.354
54.330	15.815	1046.724	811.878
55.344	15.669	1045.904	810.466
56.359	15.592	1045.053	809.365
57.374	15.668	1044.077	808.904
58.388	15.626	1042.990	807.787
59.403	15.583	1042.004	806.743
60.417	15.554	1041.296	805.987
61.432	15.408	1040.983	804.971
62.447	15.428	1040.281	804.453
63.461	15.512	1039.389	804.098
64.476	15.424	1037.943	802.482
65.490	15.328	1037.673	801.746
66.505	15.321	1036.521	800.749
67.520	15.419	1035.650	800.475
68.534	15.402	1035.159	799.942
69.549	15.370	1034.597	799.287
70.563	15.431	1033.260	798.475
71.578	15.450	1032.687	798.048
72.593	15.369	1031.839	796.938
73.607	15.265	1031.195	795.878
74.622	15.219	1029.707	794.440
75.636	15.316	1028.878	794.191
76.651	15.312	1028.254	793.621
77.666	15.246	1027.715	792.822
78.680	15.386	1026.816	792.718
79.695	15.314	1026.168	791.807
80.709	15.408	1025.670	791.797
81.724	15.479	1024.701	791.315
82.739	15.602	1023.908	791.209
83.753	15.565	1022.880	790.174
84.768	15.733	1022.397	790.522
85.782	15.820	1021.465	790.137
86.797	15.934	1020.940	790.195
87.812	15.962	1020.314	789.772
88.826	15.746	1019.515	788.070
89.841	15.717	1018.462	787.052
90.855	15.689	1017.960	786.464
91.870	15.863	1016.810	786.320
92.884	15.907	1015.970	785.805
93.899	15.899	1015.612	785.422
94.914	15.910	1014.576	784.601
95.928	15.948	1014.133	784.370
96.943	15.947	1013.107	783.499
97.957	15.821	1012.598	782.453
98.972	15.916	1011.499	781.973
99.987	15.712	1010.953	780.538
101.001	15.895	1010.010	780.589
102.016	15.868	1009.293	779.840
103.030	15.900	1008.321	779.168
104.045	15.765	1007.531	777.866
105.060	15.927	1006.119	777.452
106.074	15.811	1005.437	776.323
107.089	15.759	1003.898	774.828
108.103	15.571	1003.448	773.546
109.118	15.464	1002.347	772.133
110.133	15.358	1001.666	771.053
111.147	15.409	1000.363	770.216
112.162	15.479	999.572	769.861
113.176	15.416	999.196	769.213
114.191	15.538	997.955	768.749
115.206	15.564	996.925	768.009
116.220	15.519	996.638	767.512
117.235	15.524	995.800	766.823
118.249	15.416	994.823	765.511
119.264	15.581	993.909	765.488
120.279	15.508	993.370	764.676
121.293	15.404	992.370	763.365
122.308	15.501	991.501	763.068
123.322	15.445	990.428	761.920
124.337	15.197	990.092	760.472
125.352	15.411	988.439	760.101
126.366	15.330	987.322	758.810
127.381	15.390	986.308	758.233
128.395	15.248	985.516	756.918
129.410	15.358	984.322	756.431
130.424	15.512	983.644	756.536
131.439	15.428	982.533	755.234
132.454	15.535	981.959	755.208
133.468	15.631	981.341	755.100
134.483	15.569	981.002	754.494
135.497	15.558	979.822	753.469
136.512	15.712	978.770	753.284
137.527	15.574	978.403	752.318
138.541	15.688	977.624	752.162
139.556	15.560	976.909	750.973
140.570	15.621	976.352	750.752
141.585	15.844	974.641	750.361
142.600	15.998	974.269	750.695
143.614	15.902	973.836	749.866
144.629	15.906	973.077	749.233
145.643	16.040	972.391	749.236
146.658	15.831	971.633	747.657
147.673	15.776	970.337	746.351
148.687	15.858	969.186	745.760
149.702	15.662	968.617	744.391
150.716	15.655	967.480	743.418
151.731	15.652	967.048	743.008
152.746	15.661	966.072	742.233
153.760	15.704	965.366	741.813
154.775	15.678	964.221	740.753
155.789	15.810	963.447	740.676
156.804	15.796	962.932	740.151
157.819	15.752	962.453	739.523
158.833	15.865	961.848	739.493
159.848	15.756	961.089	738.365
160.862	15.943	960.419	738.602
161.877	15.915	959.472	737.686
162.892	15.857	958.404	736.547
163.906	15.643	957.628	734.951
164.921	15.666	957.068	734.556
165.935	15.772	955.624	733.844
166.950	15.831	954.777	733.389
167.964	15.796	953.869	732.471
168.979	15.732	952.973	731.443
169.994	15.786	951.867	730.764
171.008	15.735	951.066	729.862
172.023	15.863	950.153	729.652
173.037	15.942	949.676	729.563
174.052	16.041	948.813	729.261
175.067	15.887	948.271	728.117
176.081	15.845	947.077	726.955
177.096	15.687	946.237	725.564
178.110	15.688	945.584	725.002
179.125	15.622	944.970	724.183
180.140	15.839	944.273	724.520
181.154	15.847	943.168	723.641
182.169	15.894	942.768	723.471
183.183	16.027	941.961	723.358
184.198	16.032	941.111	722.666
185.213	16.038	940.908	722.472
186.227	16.103	940.209	722.150
187.242	16.081	939.982	721.814
188.256	16.085	939.149	721.131
189.271	16.091	938.400	720.515
190.286	16.309	937.391	720.609
191.300	16.153	936.199	718.963
192.315	15.799	936.113	717.323
193.329	15.727	935.202	716.254
194.344	15.774	934.326	715.721
195.359	15.783	934.069	715.500
196.373	15.952	933.519	715.733
197.388	16.034	933.121	715.712
198.402	16.029	932.779	715.366
199.417	16.256	932.175	715.802
200.432	16.401	931.788	716.058
201.446	16.368	931.323	715.494
202.461	16.490	931.087	715.769
203.475	16.506	930.233	715.117
204.490	16.474	929.469	714.329
205.504	16.519	928.428	713.656
206.519	16.209	927.722	711.744
207.534	16.223	927.288	711.409
208.548	16.161	926.878	710.766
209.563	16.272	925.791	710.340
210.577	16.266	925.022	709.663
211.592	16.266	924.183	708.952
212.607	16.319	923.931	708.921
213.621	16.457	923.700	709.260
214.636	16.533	922.796	708.824
215.650	16.428	921.972	707.686
216.665	16.522	921.121	707.363
217.680	16.490	920.717	706.857
218.694	16.545	920.485	706.845
219.709	16.580	920.027	706.580
220.723	16.668	919.278	706.307
221.738	16.653	918.207	705.359
222.753	16.593	917.297	704.348
223.767	16.564	917.073	703.994
224.782	16.641	916.215	703.594
225.796	16.587	915.393	702.673
226.811	16.673	915.135	702.771
227.826	16.872	913.774	702.488
228.840	16.699	913.408	701.430
229.855	16.674	912.744	700.752
230.869	16.627	912.105	700.006
231.884	16.512	911.609	699.087
232.899	16.501	911.035	698.540
233.913	16.540	909.988	697.838
234.928	16.512	909.216	697.070
235.942	16.458	908.944	696.575
236.957	16.488	907.992	695.907
237.972	16.546	906.892	695.241
238.986	16.464	906.330	694.412
240.001	16.594	906.083	694.697
241.015	16.460	905.683	693.776
242.030	16.551	904.930	693.512
243.045	16.660	904.115	693.274
244.059	16.694	903.530	692.904
245.074	16.532	902.841	691.648
246.088	16.685	902.209	691.730
247.103	16.783	901.383	691.437
248.117	16.693	901.450	691.056
249.132	16.854	900.813	691.167
250.147	17.124	900.068	691.631
251.161	17.065	899.637	691.000
252.176	17.127	899.193	690.852
253.190	17.173	898.566	690.493
254.205	17.236	897.903	690.178
255.220	17.299	897.379	689.972
256.234	17.316	896.269	689.125
257.249	17.286	895.684	688.494
258.263	17.259	895.258	687.996
259.278	17.334	894.755	687.853
260.293	17.303	894.031	687.108
261.307	17.316	893.639	686.801
262.322	17.350	892.917	686.323
263.336	17.362	892.835	686.246
264.351	17.399	891.595	685.380
265.366	17.590	890.974	685.613
266.380	17.354	890.667	684.366
267.395	17.440	890.050	684.175
268.409	17.357	889.399	683.283
269.424	17.403	888.324	682.582
270.439	17.319	887.615	681.636
271.453	17.375	886.576	681.005
272.468	17.198	885.815	679.653
273.482	17.415	885.126	679.929
274.497	17.434	884.559	679.510
275.512	17.419	884.380	679.254
276.526	17.405	883.399	678.383
277.541	17.291	882.786	677.398
278.555	17.423	881.999	677.260
279.570	17.533	881.607	677.338
280.585	17.603	881.136	677.195
281.599	17.698	880.326	676.888
282.614	17.497	879.965	675.751
283.628	17.609	879.011	675.404
284.643	17.501	878.542	674.555
285.657	17.523	878.355	674.439
286.672	17.544	877.513	673.818
287.687	17.469	877.406	673.378
288.701	17.562	876.516	673.002
289.716	17.623	875.710	672.566
290.730	17.499	875.171	671.604
291.745	17.697	874.303	671.659
292.760	17.634	873.766	670.938
293.774	17.507	873.560	670.220
294.789	17.732	873.077	670.675
295.803	17.788	872.545	670.428
296.818	17.644	871.710	669.162
297.833	17.712	871.012	668.833
298.847	17.661	870.470	668.156
299.862	17.716	869.679	667.708
300.876	17.670	868.737	666.744
301.891	17.670	868.568	666.554
302.906	17.764	867.741	666.231
303.920	18.001	866.910	666.458
304.935	17.977	866.676	666.125
305.949	18.029	865.900	665.671
306.964	18.084	865.295	665.363
307.979	17.970	864.695	664.399
308.993	18.031	863.884	663.954
310.008	17.954	863.587	663.367
311.022	18.188	862.834	663.639
312.037	18.056	862.284	662.646
313.052	17.976	862.037	662.085
314.066	17.816	861.365	660.892
315.081	17.807	860.664	660.259
316.095	17.886	859.969	659.976
317.110	17.857	859.555	659.485
318.125	17.843	859.139	659.056
319.139	17.886	858.686	658.816
320.154	17.921	857.739	658.167
321.168	17.815	857.710	657.676
322.183	17.912	856.947	657.407
323.197	17.945	856.366	657.029
324.212	18.041	855.443	656.633
325.227	18.098	855.149	656.565
326.241	17.966	855.013	655.898
327.256	17.960	854.235	655.218
328.270	17.975	853.281	654.489
329.285	18.007	852.720	654.121
330.300	17.967	852.287	653.580
331.314	17.952	851.556	652.905
332.329	17.969	851.120	652.575
333.343	18.059	850.694	652.536
334.358	18.178	850.072	652.454
335.373	18.185	849.482	651.971
336.387	18.149	848.966	651.378
337.402	18.003	848.566	650.459
338.416	18.262	847.800	650.798
339.431	18.274	847.572	650.612
340.446	18.275	846.935	650.070
341.460	18.369	846.445	649.994
342.475	18.515	845.431	649.709
343.489	18.497	845.153	649.372
344.504	18.458	845.066	649.099
345.519	18.447	844.586	648.630
346.533	18.595	843.778	648.511
347.548	18.608	842.822	647.769
348.562	18.499	842.653	647.171
349.577	18.311	841.868	645.803
350.592	18.369	841.079	645.357
351.606	18.291	840.936	644.897
352.621	18.352	840.297	644.580
353.635	18.368	839.733	644.150
354.650	18.361	839.496	643.886
355.665	18.620	838.860	644.314
356.679	18.399	838.807	643.384
357.694	18.543	837.807	643.101
358.708	18.667	837.291	643.112
359.723	18.439	837.133	642.081
360.738	18.596	836.223	641.914
361.752	18.650	835.804	641.736
362.767	18.418	835.711	640.739
363.781	18.572	835.104	640.796
364.796	18.728	834.696	641.006
365.810	18.641	834.220	640.262
366.825	18.824	833.803	640.567
367.840	18.906	833.411	640.512
368.854	18.867	833.172	640.128
369.869	18.894	832.705	639.812
370.883	18.942	831.675	639.145
371.898	18.858	831.267	638.459
372.913	18.905	830.621	638.082
373.927	19.105	829.918	638.229
374.942	18.963	829.322	637.187
375.956	18.884	828.948	636.551
376.971	18.947	828.616	636.474
377.986	18.995	828.251	636.314
379.000	19.068	827.528	635.972
380.015	19.050	827.068	635.497
381.029	19.178	826.072	635.148
382.044	19.099	825.648	634.473
383.059	18.951	825.486	633.746
384.073	19.193	824.434	633.775
385.088	19.129	823.721	632.933
386.102	19.055	823.340	632.314
387.117	19.072	822.739	631.858
388.132	19.010	822.615	631.479
389.146	18.940	822.549	631.117
390.161	19.033	821.525	630.616
391.175	19.194	821.014	630.758
392.190	19.279	820.954	630.968
393.205	19.154	820.513	630.116
394.219	19.161	819.722	629.478
395.234	19.171	818.995	628.900
396.248	19.002	818.628	627.945
397.263	18.957	818.400	627.551
398.278	18.886	817.678	626.684
399.292	19.041	817.095	626.746
400.307	18.983	816.773	626.231
401.321	19.014	816.437	626.031
402.336	19.039	815.986	625.720
403.350	19.077	815.472	625.410
404.365	19.086	814.971	625.002
405.380	19.254	815.097	625.654
406.394	19.412	814.123	625.422
407.409	19.472	813.782	625.324
408.423	19.265	813.877	624.592
409.438	19.418	813.048	624.454
410.453	19.467	812.529	624.178
411.467	19.675	812.121	624.562
412.482	19.564	811.498	623.627
413.496	19.537	811.408	623.403
414.511	19.609	810.985	623.282
415.526	19.676	810.435	623.047
416.540	19.534	810.192	622.292
417.555	19.481	809.930	621.847
418.569	19.523	809.216	621.394
419.584	19.537	808.626	620.935
420.599	19.614	808.086	620.744
421.613	149.022	1360.715	1757.199
422.628	129.384	1441.264	1757.339
