DTS Sentinel unit serial number:	SN413079Multiplexer serial number:	ORYXHardware model number:	OX4-SRSoftware version number:	ORYX F/W v4.00 Oryx Data Collector v3.7.2.0data status	okinstallation	princeton_trtdifferential loss correction	single-endedforward channel	channel 3reverse channel	N/Adate	2019/09/13time	01:40:35forward acquisition time	60.00reverse acquisition time	0.00gamma	496.2192k internal	0.2334k external	0.2334temperature offset calibration	1.0123default loss term (dB/km)	0.3790temperature slope calibration	1.0000multiplexer offset coefficient	1.0000multiplexer slope coefficient	1.0000fibre end	0.00T internal ref (°C)	27.75T ext. ref 1 (°C)	3.78T ext. ref 2 (°C)	22.39length (m)	temperature (°C)	Stokes	anti-Stokes-747.200	469.337	0.052	0.117
-746.185	142.337	0.062	0.083
-745.171	-200.000	-0.031	0.240
-744.156	-98.806	0.308	-0.079
-743.142	460.266	-0.036	0.080
-742.127	-113.529	-0.325	0.064
-741.112	202.244	-0.168	-0.260
-740.098	59.798	0.261	0.259
-739.083	97.514	-0.295	0.341
-738.069	-200.000	0.019	-0.150
-737.054	-122.638	-0.067	0.011
-736.039	-53.202	-0.180	0.083
-735.025	-163.807	0.432	0.020
-734.010	800.000	-0.029	-0.083
-732.996	-74.791	-0.169	-0.061
-731.981	800.000	0.084	-0.309
-730.966	238.286	-0.069	-0.114
-729.952	81.872	0.118	-0.129
-728.937	800.000	0.015	-0.059
-727.923	268.904	-0.115	-0.203
-726.908	-200.000	-0.003	-0.108
-725.894	-200.000	-0.010	-0.342
-724.879	185.394	0.155	0.232
-723.864	284.445	0.102	0.184
-722.850	108.884	-0.224	-0.269
-721.835	-44.725	-0.190	-0.095
-720.821	88.909	-0.094	0.105
-719.806	99.255	-0.017	0.020
-718.791	800.000	0.109	0.351
-717.777	-173.469	-0.389	-0.012
-716.762	-192.256	-0.294	-0.003
-715.748	-50.823	0.185	0.087
-714.733	-135.633	-0.330	0.039
-713.718	351.448	-0.047	-0.094
-712.704	-7.395	-0.287	0.195
-711.689	109.610	-0.022	-0.026
-710.675	95.251	-0.132	-0.151
-709.660	-200.000	0.046	-0.454
-708.645	-95.827	-0.115	0.031
-707.631	-39.724	0.124	0.065
-706.616	-98.838	-0.057	-0.015
-705.602	-38.414	-0.187	-0.099
-704.587	-54.882	0.181	-0.082
-703.572	-12.114	0.254	-0.167
-702.558	131.519	0.204	0.264
-701.543	-200.000	0.047	0.276
-700.529	8.892	-0.150	0.114
-699.514	800.000	0.008	-0.030
-698.499	-200.000	0.000	-0.093
-697.485	-174.085	-0.573	0.017
-696.470	-200.000	0.008	-0.094
-695.456	-69.503	0.290	-0.112
-694.441	-74.707	0.091	-0.033
-693.426	-3.447	-0.218	-0.152
-692.412	-200.000	-0.020	0.186
-691.397	269.648	-0.121	-0.214
-690.383	30.510	0.101	-0.087
-689.368	-200.000	-0.005	0.042
-688.354	79.917	0.264	0.285
-687.339	800.000	0.084	0.246
-686.324	-200.000	0.035	0.325
-685.310	-200.000	0.137	0.000
-684.295	229.471	-0.104	-0.170
-683.281	-200.000	0.008	-0.126
-682.266	300.272	0.096	-0.178
-681.251	800.000	-0.126	-0.447
-680.237	800.000	-0.093	-0.339
-679.222	707.574	0.056	0.147
-678.208	5.389	-0.318	0.235
-677.193	800.000	-0.076	0.252
-676.178	-147.001	-0.259	-0.022
-675.164	-95.694	-0.330	0.088
-674.149	-115.105	0.259	-0.049
-673.135	-87.964	0.336	-0.101
-672.120	-1.270	-0.320	0.227
-671.105	-128.752	-0.226	0.032
-670.091	41.974	0.137	-0.124
-669.076	-106.366	-0.292	0.065
-668.062	369.228	-0.113	-0.229
-667.047	161.706	0.199	-0.279
-666.032	-36.655	-0.214	0.115
-665.018	-58.892	0.170	-0.074
-664.003	-96.330	-0.203	-0.054
-662.989	-200.000	0.009	0.306
-661.974	-122.125	0.483	-0.079
-660.959	172.503	0.228	0.329
-659.945	-126.768	0.239	-0.035
-658.930	-190.435	0.211	-0.002
-657.916	21.054	-0.067	0.054
-656.901	281.205	-0.184	0.331
-655.886	-35.987	0.332	0.180
-654.872	-145.196	0.094	-0.009
-653.857	44.307	0.205	-0.189
-652.843	10.822	0.205	-0.157
-651.828	-200.000	0.021	-0.097
-650.814	122.069	0.052	-0.065
-649.799	-69.956	-0.040	-0.015
-648.784	18.879	0.160	-0.128
-647.770	44.645	0.109	-0.101
-646.755	-33.048	0.052	0.029
-645.741	-200.000	-0.380	0.001
-644.726	-7.698	0.409	0.277
-643.711	-34.031	-0.395	-0.217
-642.697	-35.889	0.207	-0.112
-641.682	-77.112	-0.232	0.081
-640.668	14.236	-0.237	-0.185
-639.653	-200.000	-0.040	0.202
-638.638	347.800	0.104	0.205
-637.624	-200.000	0.054	0.359
-636.609	800.000	-0.084	-0.275
-635.595	-9.981	0.218	-0.145
-634.580	41.530	0.145	-0.131
-633.565	60.907	0.135	-0.134
-632.551	-180.822	0.047	0.001
-631.536	-75.321	-0.088	-0.031
-630.522	124.111	0.012	0.015
-629.507	-200.000	-0.018	0.128
-628.492	57.784	-0.044	-0.043
-627.478	94.037	-0.176	0.200
-626.463	-9.368	0.124	-0.083
-625.449	-39.559	-0.172	0.090
-624.434	-15.295	0.301	0.193
-623.419	156.376	0.133	-0.183
-622.405	228.193	0.123	-0.200
-621.390	385.234	-0.028	0.057
-620.376	161.129	-0.239	-0.334
-619.361	105.339	-0.226	-0.267
-618.346	-59.117	-0.234	-0.101
-617.332	-79.361	-0.273	-0.092
-616.317	-15.974	-0.187	0.119
-615.303	-200.000	-0.026	0.278
-614.288	399.429	-0.231	0.485
-613.273	-148.061	0.538	-0.045
-612.259	-200.000	-0.007	-0.330
-611.244	496.360	-0.084	-0.193
-610.230	-200.000	-0.014	-0.367
-609.215	4.420	-0.098	-0.072
-608.201	89.432	0.150	-0.167
-607.186	-173.311	0.249	0.008
-606.171	-200.000	0.028	0.282
-605.157	-146.392	-0.212	-0.019
-604.142	-200.000	0.004	-0.232
-603.128	-200.000	0.013	0.331
-602.113	-67.950	-0.172	-0.067
-601.098	74.423	0.233	-0.245
-600.084	102.954	-0.109	-0.128
-599.069	193.684	0.196	0.296
-598.055	-93.599	-0.408	-0.113
-597.040	-35.789	0.171	-0.093
-596.025	-27.584	0.299	0.174
-595.011	-19.783	-0.316	0.195
-593.996	-200.000	0.055	-0.314
-592.982	-170.438	0.361	-0.013
-591.967	-200.000	-0.042	0.427
-590.952	-24.324	-0.157	-0.094
-589.938	730.703	0.063	0.169
-588.923	313.472	-0.158	-0.298
-587.909	157.033	-0.053	0.073
-586.894	-46.317	0.127	0.062
-585.879	283.250	-0.130	0.234
-584.865	800.000	-0.022	0.077
-583.850	-30.802	-0.120	-0.068
-582.836	23.245	-0.237	0.194
-581.821	-70.144	-0.172	0.065
-580.806	21.940	0.139	-0.113
-579.792	194.328	0.069	0.105
-578.777	94.026	-0.152	-0.172
-577.763	257.566	-0.069	-0.119
-576.748	-1.198	0.181	-0.128
-575.733	713.163	-0.069	-0.182
-574.719	149.154	-0.108	-0.146
-573.704	-200.000	-0.025	-0.161
-572.690	67.701	-0.148	-0.151
-571.675	-200.000	0.006	0.260
-570.661	650.263	0.047	0.120
-569.646	-170.100	0.136	0.005
-568.631	-15.880	-0.050	-0.032
-567.617	-200.000	-0.037	0.220
-566.602	-200.000	-0.015	0.369
-565.588	80.705	0.162	-0.174
-564.573	201.098	-0.182	-0.280
-563.558	800.000	-0.010	0.031
-562.544	-116.040	0.144	0.027
-561.529	-11.152	0.328	0.216
-560.515	-200.000	0.053	-0.654
-559.500	-200.000	0.035	-0.310
-558.485	210.376	-0.022	0.035
-557.471	394.461	0.125	0.260
-556.456	-200.000	-0.046	-0.226
-555.442	-109.210	0.205	-0.043
-554.427	-134.187	-0.416	0.051
-553.412	-155.794	-0.069	0.004
-552.398	-127.984	-0.044	-0.006
-551.383	-200.000	-0.035	-0.215
-550.369	-200.000	-0.067	-0.297
-549.354	800.000	0.069	0.241
-548.339	800.000	-0.055	-0.198
-547.325	-93.613	-0.253	0.070
-546.310	-200.000	-0.020	0.122
-545.296	-11.227	-0.342	-0.225
-544.281	-101.906	0.231	0.056
-543.266	-44.391	0.160	0.080
-542.252	397.229	-0.185	0.387
-541.237	-97.654	-0.371	-0.096
-540.223	153.313	0.058	0.079
-539.208	206.579	-0.024	0.037
-538.193	103.053	-0.117	-0.137
-537.179	-187.770	-0.131	-0.002
-536.164	87.663	-0.207	0.228
-535.150	267.868	-0.228	0.398
-534.135	67.094	-0.103	-0.105
-533.121	47.102	-0.169	-0.156
-532.106	-29.252	0.128	-0.073
-531.091	44.626	0.097	0.089
-530.077	-61.024	-0.272	-0.115
-529.062	-87.757	0.278	-0.084
-528.048	37.190	0.084	-0.074
-527.033	775.737	-0.055	0.150
-526.018	138.504	-0.076	0.099
-525.004	-200.000	0.013	-0.106
-523.989	119.325	-0.064	0.079
-522.975	220.320	0.188	-0.300
-521.960	16.994	-0.137	0.108
-520.945	800.000	0.110	0.325
-519.931	61.264	-0.233	0.231
-518.916	338.933	-0.078	-0.150
-517.902	-51.516	0.119	-0.055
-516.887	-56.923	-0.053	0.023
-515.872	-15.563	-0.208	0.132
-514.858	42.701	0.060	-0.055
-513.843	213.818	0.089	-0.140
-512.829	-115.184	-0.071	-0.013
-511.814	-108.455	0.418	-0.090
-510.799	-113.798	0.140	-0.027
-509.785	236.876	-0.132	-0.218
-508.770	-200.000	0.007	-0.456
-507.756	-200.000	0.015	-0.192
-506.741	800.000	0.123	-0.386
-505.726	523.375	0.075	0.175
-504.712	-120.971	-0.214	0.036
-503.697	-81.751	0.088	0.029
-502.683	442.930	-0.032	0.069
-501.668	-86.757	-0.236	0.072
-500.653	101.299	0.127	-0.147
-499.639	124.989	0.197	-0.247
-498.624	71.847	-0.238	0.247
-497.610	800.000	0.014	0.049
-496.595	-57.408	0.205	-0.090
-495.581	-200.000	0.058	0.363
-494.566	19.170	0.217	-0.174
-493.551	-71.669	-0.312	-0.116
-492.537	80.249	-0.208	-0.223
-491.522	-85.420	-0.232	0.072
-490.508	-0.411	0.091	-0.064
-489.493	35.749	-0.020	-0.017
-488.478	87.794	0.061	0.067
-487.464	54.257	-0.242	-0.232
-486.449	21.942	0.211	0.172
-485.435	280.187	-0.158	-0.280
-484.420	21.992	-0.312	0.253
-483.405	-30.524	0.332	0.187
-482.391	111.883	-0.118	-0.141
-481.376	-53.561	0.332	0.151
-480.362	130.400	0.131	0.167
-479.347	-200.000	0.025	0.111
-478.332	-170.232	-0.044	0.002
-477.318	8.847	-0.147	-0.110
-476.303	-177.031	0.181	0.005
-475.289	458.548	-0.082	-0.180
-474.274	234.114	0.035	0.058
-473.259	673.530	-0.155	-0.399
-472.245	-200.000	-0.038	0.180
-471.230	-112.890	-0.273	0.054
-470.216	-112.678	-0.126	-0.025
-469.201	251.544	-0.123	0.207
-468.186	186.449	-0.184	-0.272
-467.172	-62.446	0.341	0.141
-466.157	645.534	0.093	-0.236
-465.143	-114.144	0.309	-0.059
-464.128	-200.000	0.038	0.267
-463.113	-200.000	0.009	0.053
-462.099	-13.615	-0.195	-0.125
-461.084	-35.412	0.260	-0.141
-460.070	508.341	0.055	-0.126
-459.055	268.959	-0.098	-0.170
-458.040	141.838	0.174	0.229
-457.026	-98.165	-0.134	-0.034
-456.011	783.119	0.080	0.219
-454.997	-188.895	0.148	0.002
-453.982	-200.000	-0.037	0.174
-452.968	800.000	-0.075	0.259
-451.953	238.129	-0.156	-0.257
-450.938	-38.189	0.015	-0.008
-449.924	445.557	-0.093	0.204
-448.909	250.157	-0.146	-0.246
-447.895	-109.426	0.173	-0.036
-446.880	-112.300	-0.174	0.035
-445.865	412.888	0.066	-0.139
-444.851	-95.841	0.071	0.019
-443.836	-56.554	-0.046	-0.020
-442.822	-179.846	-0.425	0.009
-441.807	-70.591	-0.051	-0.019
-440.792	123.543	-0.238	0.297
-439.778	-49.441	0.130	0.062
-438.763	-42.254	0.314	-0.159
-437.749	-135.130	-0.392	-0.047
-436.734	203.343	-0.169	0.259
-435.719	28.913	-0.234	0.197
-434.705	800.000	0.027	0.083
-433.690	-160.378	0.274	-0.015
-432.676	51.675	-0.269	-0.254
-431.661	800.000	-0.110	0.330
-430.646	338.352	-0.065	-0.125
-429.632	-92.779	0.350	0.097
-428.617	-81.163	0.015	-0.005
-427.603	435.085	-0.139	0.300
-426.588	-57.520	0.158	0.069
-425.573	596.555	0.076	-0.188
-424.559	-6.633	-0.273	0.184
-423.544	28.086	-0.169	-0.142
-422.530	29.260	0.122	0.103
-421.515	800.000	0.078	0.309
-420.500	208.252	0.039	-0.060
-419.486	314.579	0.210	0.393
-418.471	-200.000	0.005	0.101
-417.457	409.244	0.090	-0.190
-416.442	-200.000	0.033	-0.316
-415.428	76.699	-0.269	-0.283
-414.413	176.881	-0.189	0.273
-413.398	-200.000	-0.028	0.267
-412.384	143.775	-0.045	-0.059
-411.369	417.973	0.152	-0.323
-410.355	10.074	-0.232	-0.175
-409.340	-200.000	0.025	0.131
-408.325	30.689	0.166	-0.141
-407.311	109.446	0.264	0.314
-406.296	800.000	0.090	0.357
-405.282	149.837	0.122	-0.164
-404.267	657.511	-0.072	0.184
-403.252	-75.461	-0.258	0.091
-402.238	800.000	-0.045	0.135
-401.223	800.000	-0.102	0.300
-400.209	433.669	-0.137	0.295
-399.194	77.152	0.099	-0.105
-398.179	146.380	0.154	-0.205
-397.165	238.550	-0.114	0.189
-396.150	170.309	-0.108	-0.154
-395.136	-96.936	-0.349	0.091
-394.121	178.433	-0.009	-0.013
-393.106	-85.960	0.085	-0.026
-392.092	294.089	0.157	0.284
-391.077	-124.655	0.517	-0.079
-390.063	-200.000	0.031	0.180
-389.048	800.000	0.049	0.169
-388.033	95.898	-0.222	0.251
-387.019	-141.599	-0.154	0.015
-386.004	138.091	-0.105	-0.137
-384.990	580.867	0.142	0.345
-383.975	394.977	-0.086	0.179
-382.960	-1.507	-0.391	0.273
-381.946	-170.308	0.217	0.008
-380.931	-200.000	-0.009	-0.087
-379.917	-123.889	0.085	0.013
-378.902	-132.369	0.125	0.016
-377.888	-200.000	0.003	-0.116
-376.873	-94.219	-0.109	-0.030
-375.858	-200.000	0.015	-0.078
-374.844	-174.716	0.087	0.002
-373.829	-200.000	0.056	-0.296
-372.815	-126.969	0.069	0.010
-371.800	-200.000	-0.031	0.494
-370.785	5.515	-0.353	-0.258
-369.771	-71.076	0.114	-0.043
-368.756	-50.294	0.356	-0.167
-367.742	-200.000	0.015	0.101
-366.727	-42.892	-0.155	0.078
-365.712	-51.069	-0.345	-0.160
-364.698	-99.981	0.201	0.050
-363.683	69.751	-0.117	0.119
-362.669	105.805	0.087	-0.102
-361.654	15.065	0.338	0.262
-360.639	-200.000	-0.011	-0.130
-359.625	788.385	-0.072	-0.195
-358.610	-200.000	0.006	0.246
-357.596	37.895	0.085	-0.074
-356.581	-149.697	-0.212	0.017
-355.566	-84.461	0.092	0.029
-354.552	-107.235	-0.175	0.038
-353.537	-200.000	0.014	0.163
-352.523	388.863	0.056	-0.115
-351.508	22.232	-0.157	0.127
-350.493	-200.000	0.011	0.131
-349.479	46.499	0.083	-0.076
-348.464	-139.695	0.044	-0.005
-347.450	-65.419	0.395	0.157
-346.435	338.077	0.124	0.239
-345.420	-200.000	-0.075	-0.445
-344.406	-94.032	-0.414	0.112
-343.391	-138.833	-0.071	-0.008
-342.377	-200.000	-0.064	0.279
-341.362	-200.000	0.034	0.177
-340.348	65.021	0.235	-0.235
-339.333	-153.030	0.366	0.026
-338.318	-200.000	-0.008	-0.034
-337.304	210.255	0.183	-0.284
-336.289	6.417	-0.063	-0.046
-335.275	569.252	0.065	0.155
-334.260	-200.000	-0.009	0.212
-333.245	-200.000	0.032	-0.163
-332.231	26.118	-0.295	0.244
-331.216	55.377	0.112	-0.107
-330.202	80.312	0.147	-0.157
-329.187	-20.208	-0.163	0.099
-328.172	519.623	0.089	-0.206
-327.158	-200.000	-0.005	0.081
-326.143	-86.956	-0.196	0.059
-325.129	-3.800	-0.255	0.175
-324.114	-88.275	0.250	-0.074
-323.099	-78.697	-0.120	0.041
-322.085	-104.532	-0.131	-0.030
-321.070	453.891	0.131	-0.287
-320.056	765.170	-0.085	-0.229
-319.041	88.430	0.243	-0.266
-318.026	-39.254	0.146	0.076
-317.012	-65.654	-0.094	-0.037
-315.997	247.743	0.132	0.221
-314.983	-113.422	-0.048	-0.009
-313.968	-99.353	0.355	-0.088
-312.953	-127.860	0.074	0.011
-311.939	-59.244	-0.240	0.102
-310.924	-200.000	0.024	0.268
-309.910	-49.518	0.171	0.081
-308.895	-21.867	0.210	0.127
-307.880	-141.640	-0.522	0.052
-306.866	800.000	-0.032	0.121
-305.851	-145.830	0.266	0.023
-304.837	-200.000	-0.038	0.309
-303.822	-200.000	-0.008	-0.063
-302.807	800.000	-0.011	0.045
-301.793	123.652	-0.127	-0.157
-300.778	800.000	-0.086	-0.327
-299.764	-39.290	-0.073	0.038
-298.749	349.286	-0.183	0.357
-297.735	21.331	-0.391	0.314
-296.720	-184.015	-0.376	-0.006
-295.705	-200.000	0.028	-0.395
-294.691	179.659	-0.132	0.190
-293.676	596.013	0.135	-0.329
-292.662	113.550	-0.118	0.141
-291.647	-57.316	0.211	-0.092
-290.632	-200.000	-0.011	-0.327
-289.618	73.055	0.269	0.278
-288.603	-200.000	-0.066	-0.318
-287.589	800.000	0.029	0.084
-286.574	10.531	0.133	-0.100
-285.559	-76.028	0.208	0.073
-284.545	-10.840	0.153	-0.099
-283.530	245.387	-0.123	-0.204
-282.516	456.842	-0.055	0.121
-281.501	800.000	-0.086	0.284
-280.486	-200.000	-0.035	0.387
-279.472	-155.091	-0.290	-0.019
-278.457	800.000	-0.076	-0.248
-277.443	23.947	-0.214	-0.174
-276.428	-7.104	0.183	0.123
-275.413	-144.816	-0.214	0.019
-274.399	261.880	0.078	-0.133
-273.384	-116.563	0.192	-0.035
-272.370	150.002	0.123	0.165
-271.355	-94.435	0.065	-0.018
-270.340	16.677	-0.198	0.155
-269.326	-32.609	-0.281	0.154
-268.311	-45.580	0.293	-0.143
-267.297	-107.156	-0.186	-0.040
-266.282	772.238	-0.046	0.123
-265.267	-67.650	0.532	-0.205
-264.253	800.000	0.090	-0.245
-263.238	-134.367	-0.121	0.015
-262.224	-41.889	0.194	0.098
-261.209	-57.472	-0.430	0.186
-260.195	133.407	0.052	0.066
-259.180	-159.113	-0.116	0.006
-258.165	56.367	0.370	0.355
-257.151	-200.000	0.019	0.153
-256.136	-124.656	0.349	-0.053
-255.122	-200.000	-0.054	-0.341
-254.107	341.954	0.134	-0.259
-253.092	-200.000	-0.041	0.444
-252.078	-200.000	-0.012	-0.118
-251.063	8.658	-0.163	0.121
-250.049	51.784	0.334	-0.314
-249.034	-20.229	0.411	-0.250
-248.019	628.114	0.032	-0.079
-247.005	-200.000	-0.001	-0.087
-245.990	-200.000	0.083	0.480
-244.976	277.641	0.073	-0.128
-243.961	-126.156	0.110	-0.016
-242.946	-200.000	0.005	-0.075
-241.932	-104.802	-0.077	0.017
-240.917	800.000	-0.074	-0.233
-239.903	800.000	-0.077	-0.296
-238.888	-128.181	-0.141	0.020
-237.873	-200.000	-0.008	-0.206
-236.859	118.757	0.046	-0.056
-235.844	800.000	0.050	0.185
-234.830	84.902	-0.107	-0.116
-233.815	-99.108	-0.065	-0.016
-232.800	469.753	-0.144	-0.318
-231.786	183.396	-0.175	0.255
-230.771	-200.000	-0.060	-0.266
-229.757	-137.624	-0.178	0.020
-228.742	178.052	0.072	0.103
-227.727	389.672	-0.080	-0.164
-226.713	-200.000	0.016	-0.202
-225.698	800.000	-0.072	0.210
-224.684	-35.597	0.146	-0.078
-223.669	423.877	-0.010	-0.020
-222.655	-113.566	0.119	-0.023
-221.640	258.553	0.074	0.125
-220.625	-128.416	0.278	0.039
-219.611	163.380	0.075	-0.103
-218.596	-200.000	0.000	0.211
-217.582	-200.000	0.014	0.227
-216.567	148.475	0.210	-0.280
-215.552	167.070	0.097	-0.136
-214.538	-200.000	-0.008	0.053
-213.523	701.067	0.043	0.111
-212.509	-63.744	0.277	0.112
-211.494	-121.142	0.313	-0.052
-210.479	-30.172	0.197	0.110
-209.465	-147.454	0.160	-0.013
-208.450	251.293	0.026	-0.043
-207.436	-200.000	0.029	0.411
-206.421	-200.000	-0.173	-0.751
-205.406	800.000	0.025	-0.095
-204.392	-83.875	-0.145	-0.045
-203.377	487.864	-0.103	-0.230
-202.363	800.000	0.048	0.153
-201.348	-99.885	-0.267	-0.066
-200.333	800.000	0.019	0.060
-199.319	800.000	-0.085	0.320
-198.304	800.000	-0.073	0.271
-197.290	31.254	0.155	0.131
-196.275	435.419	-0.066	0.141
-195.260	800.000	-0.073	0.203
-194.246	6.557	-0.127	-0.093
-193.231	105.721	-0.238	0.277
-192.217	61.469	0.184	0.180
-191.202	-200.000	-0.022	-0.140
-190.187	800.000	-0.050	0.201
-189.173	-146.621	-0.332	-0.028
-188.158	-179.625	0.128	0.003
-187.144	-25.758	0.131	0.076
-186.129	40.281	0.232	0.205
-185.114	562.418	0.085	0.203
-184.100	-154.913	0.225	0.015
-183.085	-49.572	0.239	-0.112
-182.071	-50.874	0.114	0.053
-181.056	-24.741	0.194	-0.114
-180.042	432.889	0.045	0.097
-179.027	131.837	0.194	-0.246
-178.012	160.669	0.162	0.222
-176.998	-200.000	-0.034	-0.299
-175.983	-53.604	-0.379	-0.170
-174.969	-200.000	0.001	-0.201
-173.954	-94.963	0.267	-0.071
-172.939	-57.045	0.351	-0.152
-171.925	-82.410	0.116	-0.037
-170.910	672.196	-0.034	0.086
-169.896	363.361	-0.112	-0.222
-168.881	16.903	0.247	-0.192
-167.866	339.608	0.150	-0.288
-166.852	-91.320	0.102	0.029
-165.837	-97.188	-0.090	0.023
-164.823	311.375	-0.099	-0.183
-163.808	-110.441	-0.498	0.102
-162.793	139.805	-0.228	-0.295
-161.779	302.492	-0.196	0.356
-160.764	5.155	0.451	-0.327
-159.750	6.829	0.026	-0.019
-158.735	-98.823	-0.122	0.031
-157.720	180.859	-0.169	-0.244
-156.706	800.000	0.085	0.286
-155.691	5.864	0.132	-0.096
-154.677	39.355	0.310	-0.272
-153.662	-128.882	0.221	0.030
-152.647	251.242	0.190	0.317
-151.633	33.199	0.170	-0.145
-150.618	-30.216	0.032	0.018
-149.604	-69.878	-0.214	-0.080
-148.589	-67.330	-0.585	-0.226
-147.574	-200.000	0.010	0.080
-146.560	-200.000	-0.020	-0.158
-145.545	-200.000	0.043	-0.278
-144.531	487.158	0.032	-0.071
-143.516	-51.556	0.065	-0.030
-142.502	-68.767	-0.084	0.032
-141.487	10.603	0.220	0.165
-140.472	-145.426	0.247	-0.022
-139.458	-77.436	-0.138	-0.047
-138.443	54.553	-0.063	-0.059
-137.429	-33.680	0.285	0.154
-136.414	-136.322	0.139	-0.016
-135.399	-86.119	0.193	0.059
-134.385	-138.662	0.164	0.018
-133.370	-124.625	0.186	-0.028
-132.356	122.532	0.200	0.245
-131.341	-144.262	-0.223	-0.020
-130.326	48.195	0.084	0.077
-129.312	-27.685	0.140	-0.080
-128.297	192.684	0.077	0.115
-127.283	800.000	0.118	0.323
-126.268	23.768	0.281	-0.227
-125.253	246.504	-0.212	-0.352
-124.239	-47.552	-0.251	0.120
-123.224	-200.000	-0.208	-0.001
-122.210	262.992	0.191	-0.326
-121.195	-200.000	-0.042	-0.214
-120.180	68.356	0.333	0.334
-119.166	-157.663	-0.123	0.007
-118.151	-200.000	0.055	0.355
-117.137	-57.003	0.146	-0.063
-116.122	-200.000	-0.006	0.031
-115.107	-105.412	0.073	0.016
-114.093	-15.193	0.202	0.127
-113.078	-116.392	0.423	-0.077
-112.064	551.115	-0.046	0.107
-111.049	-176.720	0.033	-0.001
-110.034	-200.000	-0.036	0.185
-109.020	-55.234	0.189	-0.083
-108.005	56.176	0.085	-0.081
-106.991	-4.934	0.185	-0.125
-105.976	-13.685	0.286	0.181
-104.962	145.192	-0.273	0.359
-103.947	-200.000	0.066	0.328
-102.932	-40.059	0.152	0.078
-101.918	-178.085	-0.248	-0.006
-100.903	209.728	-0.068	-0.104
-99.889	-200.000	0.008	0.079
-98.874	171.960	0.174	-0.246
-97.859	592.679	-0.074	0.178
-96.845	100.520	-0.139	0.159
-95.830	-200.000	0.007	0.074
-94.816	43.150	0.095	0.085
-93.801	-98.647	-0.472	0.118
-92.786	-167.205	-0.319	0.013
-91.772	800.000	0.050	-0.180
-90.757	-32.387	0.200	-0.109
-89.743	-200.000	0.037	0.241
-88.728	90.382	-0.221	0.243
-87.713	24.284	0.062	0.051
-86.699	-100.968	-0.159	-0.038
-85.684	97.876	0.083	0.093
-84.670	59.279	0.134	0.129
-83.655	-200.000	0.008	-0.099
-82.640	-198.985	-0.153	-0.001
-81.626	800.000	0.094	0.259
-80.611	-108.278	-0.122	-0.026
-79.597	-78.826	0.337	0.112
-78.582	33.197	-0.016	0.014
-77.567	-12.806	0.020	0.013
-76.553	45.966	0.150	0.136
-75.538	179.092	-0.287	0.410
-74.524	-182.591	0.327	0.006
-73.509	-44.239	-0.103	0.051
-72.494	22.381	-0.384	0.307
-71.480	-71.482	-0.392	0.144
-70.465	1.649	-0.228	0.161
-69.451	-200.000	-0.054	0.263
-68.436	436.010	-0.086	0.184
-67.422	-200.000	0.040	0.201
-66.407	-200.000	-0.026	-0.118
-65.392	-128.129	-0.465	0.065
-64.378	20.462	-0.231	-0.183
-63.363	40.231	-0.183	0.161
-62.349	108.306	0.149	0.174
-61.334	146.592	-0.999	-1.313
-60.319	108.605	0.473	0.553
-59.305	286.550	-0.681	-1.203
-58.290	298.640	0.468	0.843
-57.276	-200.000	0.320	1.534
-56.261	-200.000	113.114	646.900
-55.246	541.311	1516.794	3536.166
-54.232	179.745	2681.495	3843.485
-53.217	109.525	2169.574	2543.255
-52.203	38.273	1698.368	1479.731
-51.188	30.869	1518.137	1272.310
-50.173	28.659	1493.811	1237.001
-49.159	52.242	1551.056	1446.886
-48.144	51.228	1567.308	1455.035
-47.130	31.098	1523.614	1278.261
-46.115	27.957	1508.890	1244.510
-45.100	27.792	1505.902	1240.869
-44.086	27.741	1503.895	1238.819
-43.071	27.812	1501.153	1236.993
-42.057	27.664	1500.330	1235.264
-41.042	27.754	1498.478	1234.299
-40.027	27.634	1497.299	1232.471
-39.013	27.664	1495.900	1231.469
-37.998	27.703	1494.320	1230.383
-36.984	27.763	1493.286	1229.886
-35.969	27.563	1492.700	1228.010
-34.954	27.719	1490.503	1227.206
-33.940	27.799	1488.756	1226.252
-32.925	27.764	1487.423	1224.870
-31.911	27.787	1485.979	1223.787
-30.896	27.739	1484.965	1222.586
-29.881	27.805	1483.534	1221.801
-28.867	27.837	1482.539	1221.142
-27.852	27.798	1481.533	1220.006
-26.838	27.730	1480.187	1218.397
-25.823	27.845	1478.578	1217.792
-24.809	27.740	1476.925	1215.683
-23.794	27.773	1475.901	1215.010
-22.779	27.799	1474.599	1214.062
-21.765	27.893	1473.119	1213.422
-20.750	27.868	1472.296	1212.528
-19.736	27.866	1471.158	1211.530
-18.721	27.771	1470.108	1209.987
-17.706	27.826	1468.961	1209.361
-16.692	27.766	1468.017	1208.140
-15.677	27.645	1467.313	1206.711
-14.663	27.622	1466.553	1205.886
-13.648	27.754	1464.884	1205.338
-12.633	27.712	1464.359	1204.580
-11.619	27.767	1463.871	1204.494
-10.604	27.744	1462.608	1203.253
-9.590	27.698	1461.844	1202.276
-8.575	27.752	1460.846	1201.760
-7.560	27.794	1460.142	1201.410
-6.546	27.752	1459.326	1200.415
-5.531	27.681	1458.652	1199.349
-4.517	27.709	1457.657	1198.663
-3.502	27.769	1456.595	1198.137
-2.487	27.797	1455.338	1197.238
-1.473	27.702	1454.457	1195.847
-0.458	27.783	1452.686	1194.871
0.556	29.203	1442.889	1183.225
1.571	26.100	1418.671	1143.634
2.586	22.623	1360.854	1075.750
3.600	21.014	1279.246	1001.916
4.615	19.663	1232.649	957.849
5.629	17.197	1176.326	900.941
6.644	10.041	1094.419	802.710
7.659	4.688	1056.208	748.898
8.673	3.949	1051.352	741.849
9.688	3.775	1047.769	738.425
10.702	3.697	1045.704	736.529
11.717	3.700	1044.021	735.295
12.731	6.139	1046.265	748.436
13.746	13.729	1056.915	792.373
14.761	20.566	1065.689	831.701
15.775	22.667	1067.571	843.154
16.790	22.251	1065.718	839.629
17.804	21.356	1063.961	833.899
18.819	20.664	1062.439	829.337
19.834	20.454	1061.001	827.139
20.848	20.282	1060.541	825.891
21.863	20.446	1060.220	826.351
22.877	20.317	1059.501	825.101
23.892	20.018	1059.156	823.337
24.907	19.929	1057.967	821.920
25.921	19.983	1057.291	821.576
26.936	19.943	1056.600	820.777
27.950	19.890	1055.263	819.416
28.965	19.960	1054.035	818.722
29.980	19.956	1053.010	817.834
30.994	20.222	1052.032	818.256
32.009	20.312	1051.273	818.018
33.023	20.335	1050.944	817.798
34.038	20.411	1049.743	817.151
35.053	20.168	1048.813	815.211
36.067	20.112	1047.920	814.181
37.082	19.888	1047.396	812.648
38.096	19.969	1046.226	812.051
39.111	20.223	1045.392	812.521
40.126	20.131	1045.115	811.802
41.140	20.109	1043.463	810.346
42.155	19.766	1042.204	807.695
43.169	19.542	1040.925	805.587
44.184	19.485	1039.663	804.272
45.199	19.286	1038.986	802.752
46.213	19.456	1037.940	802.665
47.228	19.631	1037.332	802.935
48.242	19.901	1036.726	803.647
49.257	20.184	1035.725	804.115
50.271	19.920	1035.192	802.405
51.286	20.109	1034.550	802.714
52.301	20.284	1033.617	802.728
53.315	20.243	1032.801	801.831
54.330	20.079	1031.722	800.167
55.344	19.833	1031.007	798.407
56.359	19.766	1029.659	796.984
57.374	19.716	1029.282	796.389
58.388	19.710	1028.546	795.723
59.403	19.541	1027.430	794.013
60.417	19.491	1026.711	793.156
61.432	19.423	1026.067	792.276
62.447	19.475	1025.713	792.170
63.461	19.407	1024.743	791.040
64.476	19.249	1023.860	789.567
65.490	19.250	1023.146	788.949
66.505	19.254	1021.945	787.973
67.520	19.116	1021.934	787.261
68.534	19.303	1020.565	786.994
69.549	19.313	1020.127	786.632
70.563	19.327	1018.651	785.485
71.578	19.128	1018.202	784.165
72.593	19.032	1017.437	783.067
73.607	18.808	1016.449	781.219
74.622	18.819	1015.253	780.281
75.636	18.853	1014.485	779.779
76.651	18.998	1013.707	779.766
77.666	19.120	1012.947	779.666
78.680	19.042	1012.534	778.928
79.695	19.262	1011.510	779.063
80.709	19.067	1011.223	777.894
81.724	19.264	1010.506	778.162
82.739	19.524	1009.831	778.749
83.753	19.572	1009.030	778.276
84.768	19.752	1008.911	778.928
85.782	20.169	1008.738	780.603
86.797	20.419	1007.918	781.024
87.812	20.589	1007.154	781.127
88.826	20.258	1005.953	778.640
89.841	20.151	1005.053	777.396
90.855	20.243	1004.642	777.423
91.870	20.477	1003.697	777.669
92.884	20.381	1003.424	776.959
93.899	20.526	1002.156	776.553
94.914	20.289	1001.620	775.015
95.928	20.372	1000.921	774.776
96.943	20.514	999.980	774.612
97.957	20.308	998.938	772.818
98.972	20.309	997.764	771.845
99.987	20.084	997.456	770.536
101.001	20.259	996.598	770.585
102.016	20.297	995.675	769.972
103.030	20.197	994.985	768.927
104.045	20.220	993.978	768.182
105.060	20.317	993.067	767.839
106.074	20.226	991.923	766.486
107.089	19.953	990.779	764.327
108.103	19.603	990.192	762.264
109.118	19.388	989.393	760.631
110.133	19.231	987.824	758.669
111.147	19.317	986.906	758.273
112.162	19.323	985.635	757.254
113.176	19.341	985.180	756.917
114.191	19.425	984.618	756.787
115.206	19.499	984.076	756.631
116.220	19.483	983.078	755.723
117.235	19.425	982.284	754.792
118.249	19.340	981.717	753.918
119.264	19.470	980.466	753.460
120.279	19.230	979.744	751.789
121.293	19.164	978.649	750.597
122.308	19.090	978.235	749.892
123.322	19.019	977.109	748.654
124.337	19.045	975.909	747.778
125.352	18.888	974.510	745.961
126.366	18.886	973.970	745.471
127.381	18.863	972.676	744.314
128.395	18.922	972.186	744.130
129.410	18.930	971.043	743.226
130.424	19.017	970.250	742.927
131.439	19.165	969.446	742.884
132.454	19.326	969.100	743.247
133.468	19.392	968.650	743.123
134.483	19.332	968.101	742.376
135.497	19.451	967.158	742.099
136.512	19.482	966.097	741.354
137.527	19.506	965.821	741.176
138.541	19.589	964.684	740.596
139.556	19.547	963.699	739.593
140.570	19.511	963.431	739.169
141.585	19.830	962.908	740.068
142.600	19.905	962.830	740.265
143.614	20.184	961.622	740.460
144.629	20.176	961.391	740.184
145.643	20.344	960.651	740.265
146.658	20.401	959.436	739.507
147.673	19.999	958.472	736.987
148.687	19.800	957.406	735.253
149.702	19.458	956.575	733.099
150.716	19.557	955.019	732.262
151.731	19.547	954.293	731.599
152.746	19.628	954.049	731.691
153.760	19.516	953.350	730.613
154.775	19.666	952.483	730.521
155.789	19.884	951.881	730.914
156.804	19.793	950.954	729.753
157.819	19.907	950.104	729.516
158.833	19.966	949.475	729.218
159.848	20.046	949.486	729.500
160.862	20.232	948.622	729.555
161.877	20.308	947.623	729.040
162.892	19.737	946.868	725.998
163.906	19.683	944.883	724.186
164.921	19.498	944.215	722.832
165.935	19.388	943.004	721.383
166.950	19.478	942.410	721.243
167.964	19.723	941.354	721.392
168.979	19.690	940.910	720.849
169.994	19.577	939.148	718.964
171.008	19.513	938.304	717.990
172.023	19.575	937.906	717.879
173.037	19.946	937.251	718.857
174.052	20.191	936.910	719.548
175.067	20.014	936.091	718.122
176.081	19.714	934.861	715.869
177.096	19.412	933.585	713.582
178.110	19.557	932.332	713.158
179.125	19.414	932.233	712.429
180.140	19.659	931.093	712.506
181.154	19.580	931.048	712.083
182.169	19.893	930.529	712.913
183.183	19.994	930.371	713.143
184.198	20.077	929.392	712.674
185.213	20.142	928.599	712.268
186.227	20.128	928.186	711.829
187.242	20.159	927.862	711.646
188.256	20.174	927.416	711.302
189.271	20.245	926.946	711.170
190.286	20.451	925.770	711.050
191.300	20.108	925.171	709.122
192.315	19.534	923.528	705.456
193.329	19.276	922.653	703.671
194.344	19.343	921.997	703.385
195.359	19.595	921.860	704.243
196.373	19.563	921.695	703.926
197.388	19.707	921.083	703.983
198.402	20.015	920.579	704.787
199.417	20.378	920.534	706.167
200.432	20.550	920.258	706.591
201.446	20.565	920.038	706.421
202.461	20.690	919.798	706.683
203.475	20.743	919.283	706.438
204.490	20.739	918.394	705.677
205.504	20.354	916.793	702.827
206.519	20.230	915.952	701.619
207.534	19.931	915.694	700.149
208.548	19.979	914.729	699.544
209.563	20.135	913.879	699.461
210.577	20.046	913.269	698.573
211.592	20.148	912.476	698.316
212.607	20.403	912.334	699.172
213.621	20.541	912.128	699.509
214.636	20.482	911.464	698.700
215.650	20.399	910.660	697.690
216.665	20.449	909.874	697.226
217.680	20.486	909.672	697.159
218.694	20.568	909.482	697.280
219.709	20.610	909.060	697.063
220.723	20.554	908.047	695.998
221.738	20.558	907.083	695.216
222.753	20.352	906.237	693.682
223.767	20.326	905.637	693.056
224.782	20.407	905.251	693.022
225.796	20.592	904.475	693.105
226.811	20.830	903.686	693.387
227.826	20.513	903.422	691.860
228.840	20.405	902.336	690.540
229.855	20.395	901.412	689.733
230.869	20.426	900.595	689.170
231.884	20.290	900.215	688.279
232.899	20.132	899.456	687.008
233.913	20.142	898.700	686.409
234.928	20.087	897.858	685.491
235.942	20.003	896.842	684.323
236.957	19.902	896.305	683.453
237.972	19.832	895.785	682.719
238.986	19.989	894.804	682.531
240.001	20.060	894.461	682.486
241.015	20.004	893.550	681.513
242.030	20.184	893.172	681.873
243.045	20.362	892.601	682.076
244.059	20.348	891.987	681.489
245.074	20.459	891.389	681.410
246.088	20.460	890.885	680.968
247.103	20.600	890.822	681.406
248.117	20.700	889.796	680.954
249.132	20.924	889.705	681.698
250.147	21.165	889.550	682.464
251.161	21.503	889.099	683.378
252.176	21.566	888.809	683.338
253.190	21.429	888.269	682.330
254.205	21.711	887.241	682.578
255.220	21.717	887.003	682.359
256.234	21.677	886.154	681.488
257.249	21.583	885.591	680.630
258.263	21.562	884.828	679.902
259.278	21.504	884.391	679.282
260.293	21.470	883.902	678.713
261.307	21.563	883.561	678.751
262.322	21.710	882.601	678.522
263.336	21.742	882.643	678.619
264.351	21.723	881.708	677.767
265.366	21.762	880.738	677.112
266.380	21.715	880.320	676.548
267.395	21.638	880.068	675.998
268.409	21.640	878.556	674.786
269.424	21.393	877.967	673.323
270.439	21.373	877.691	672.974
271.453	21.496	876.692	672.621
272.468	21.331	875.853	671.286
273.482	21.207	875.435	670.431
274.497	21.074	875.202	669.679
275.512	21.243	873.763	669.169
276.526	21.184	873.461	668.652
277.541	21.425	872.877	669.067
278.555	21.203	872.596	667.945
279.570	21.426	872.506	668.669
280.585	21.731	871.798	669.230
281.599	21.712	871.313	668.728
282.614	21.599	870.596	667.688
283.628	21.388	869.334	665.856
284.643	21.280	868.736	664.929
285.657	21.165	868.442	664.209
286.672	21.292	867.994	664.288
287.687	21.276	867.626	663.888
288.701	21.371	867.048	663.748
289.716	21.406	866.527	663.424
290.730	21.424	865.811	662.884
291.745	21.413	864.942	662.118
292.760	21.448	864.407	661.782
293.774	21.528	863.902	661.638
294.789	21.794	863.645	662.391
295.803	21.884	863.185	662.318
296.818	21.709	861.867	660.586
297.833	21.442	861.465	659.217
298.847	21.195	860.908	657.801
299.862	21.292	860.260	657.614
300.876	21.441	859.312	657.390
301.891	21.612	858.725	657.523
302.906	21.706	858.603	657.727
303.920	21.845	858.072	657.780
304.935	22.116	857.751	658.495
305.949	22.111	857.199	657.993
306.964	22.077	855.962	656.859
307.979	21.783	855.420	655.285
308.993	21.905	854.677	655.114
310.008	21.921	854.555	655.021
311.022	21.947	854.043	654.668
312.037	21.952	853.564	654.263
313.052	21.577	853.202	652.527
314.066	21.481	851.802	651.042
315.081	21.438	850.931	650.159
316.095	21.280	850.398	649.108
317.110	21.357	850.036	649.061
318.125	21.465	849.490	648.988
319.139	21.248	849.100	647.826
320.154	21.180	848.853	647.328
321.168	21.410	847.823	647.338
322.183	21.476	847.516	647.290
323.197	21.550	846.991	647.104
324.212	21.509	846.650	646.637
325.227	21.400	846.500	646.062
326.241	21.529	845.452	645.681
327.256	21.362	844.756	644.475
328.270	21.362	844.120	643.934
329.285	21.352	843.284	643.202
330.300	21.302	842.955	642.711
331.314	21.256	842.619	642.231
332.329	21.588	841.347	642.421
333.343	21.624	841.626	642.710
334.358	21.837	840.650	642.686
335.373	21.756	840.663	642.342
336.387	21.912	839.951	642.314
337.402	21.873	839.432	641.720
338.416	21.939	839.103	641.652
339.431	22.158	838.460	641.903
340.446	22.435	837.986	642.495
341.460	22.562	837.680	642.665
342.475	22.584	837.442	642.505
343.489	22.447	837.092	641.682
344.504	22.571	836.272	641.448
345.519	22.705	835.871	641.569
346.533	22.736	835.616	641.432
347.548	22.723	834.795	640.697
348.562	22.354	834.234	638.871
349.577	22.120	833.075	637.079
350.592	21.892	832.230	635.549
351.606	21.820	831.695	634.825
352.621	21.661	831.445	634.001
353.635	21.713	831.183	633.934
354.650	21.879	830.475	633.939
355.665	21.940	830.160	633.860
356.679	22.096	830.029	634.269
357.694	22.081	829.454	633.720
358.708	22.193	828.863	633.616
359.723	22.038	828.411	632.654
360.738	22.276	827.272	632.586
361.752	22.133	827.101	631.884
362.767	22.162	826.578	631.534
363.781	22.440	826.675	632.551
364.796	22.608	826.337	632.839
365.810	22.792	825.635	632.907
366.825	22.851	825.751	633.148
367.840	22.983	825.365	633.272
368.854	22.975	824.744	632.710
369.869	22.645	824.477	631.268
370.883	22.618	823.680	630.505
371.898	22.507	823.289	629.752
372.913	22.713	822.540	629.859
373.927	22.829	822.048	629.842
374.942	22.845	820.951	629.001
375.956	22.725	820.366	628.069
376.971	22.797	820.139	628.097
377.986	22.970	819.866	628.448
379.000	23.104	819.372	628.491
380.015	23.229	818.646	628.322
381.029	23.028	818.102	627.135
382.044	22.970	817.670	626.544
383.059	23.103	816.763	626.264
384.073	23.134	816.396	626.036
385.088	23.014	815.670	625.001
386.102	22.596	814.817	622.815
387.117	22.511	813.563	621.502
388.132	22.427	813.694	621.252
389.146	22.436	813.447	621.039
390.161	22.402	813.066	620.571
391.175	22.654	812.754	621.166
392.190	22.922	812.458	621.830
393.205	22.832	811.674	620.857
394.219	22.499	811.419	619.438
395.234	22.470	810.538	618.606
396.248	22.343	810.086	617.764
397.263	22.258	809.203	616.736
398.278	22.176	808.712	616.019
399.292	22.184	808.260	615.650
400.307	22.157	807.717	615.087
401.321	22.051	807.728	614.670
402.336	22.183	807.390	614.818
403.350	22.331	806.909	614.917
404.365	22.618	806.418	615.491
405.380	22.674	806.223	615.482
406.394	22.963	806.446	616.608
407.409	23.161	806.130	617.002
408.423	23.316	805.425	616.946
409.438	23.177	805.083	616.145
410.453	23.309	804.475	616.086
411.467	23.440	804.194	616.272
412.482	23.280	803.682	615.269
413.496	23.484	803.245	615.587
414.511	23.529	803.022	615.519
415.526	23.470	802.548	614.895
416.540	23.439	802.133	614.416
417.555	23.282	801.584	613.398
418.569	23.307	801.010	612.992
419.584	23.387	800.516	612.835
420.599	23.300	800.085	612.151
421.613	163.855	1371.165	1797.152
422.628	142.346	1454.359	1797.217
