DTS Sentinel unit serial number:	SN413079Multiplexer serial number:	ORYXHardware model number:	OX4-SRSoftware version number:	ORYX F/W v4.00 Oryx Data Collector v3.7.2.0data status	okinstallation	princeton_trtdifferential loss correction	single-endedforward channel	channel 3reverse channel	N/Adate	2019/09/13time	00:56:35forward acquisition time	60.00reverse acquisition time	0.00gamma	496.2192k internal	0.2332k external	0.2332temperature offset calibration	1.0117default loss term (dB/km)	0.3790temperature slope calibration	1.0000multiplexer offset coefficient	1.0000multiplexer slope coefficient	1.0000fibre end	0.00T internal ref (°C)	28.09T ext. ref 1 (°C)	3.66T ext. ref 2 (°C)	22.63length (m)	temperature (°C)	Stokes	anti-Stokes-747.200	294.866	0.071	-0.130
-746.185	-4.537	-0.109	-0.076
-745.171	397.647	0.194	-0.409
-744.156	-85.122	-0.235	0.074
-743.142	-131.961	-0.397	-0.052
-742.127	199.265	-0.187	0.289
-741.112	-118.619	0.167	-0.030
-740.098	741.495	-0.063	0.170
-739.083	-200.000	0.034	-0.307
-738.069	-29.600	-0.288	0.166
-737.054	42.175	0.173	-0.158
-736.039	108.426	-0.157	-0.188
-735.025	476.465	0.175	0.399
-734.010	-5.872	-0.097	-0.067
-732.996	310.390	-0.136	-0.256
-731.981	-200.000	-0.037	-0.217
-730.966	-56.898	0.200	-0.089
-729.952	270.404	-0.063	0.112
-728.937	800.000	-0.077	-0.273
-727.923	-24.784	0.086	-0.051
-726.908	513.881	-0.071	0.166
-725.894	321.817	0.152	-0.291
-724.879	185.958	0.080	0.119
-723.864	250.939	0.103	0.175
-722.850	800.000	-0.021	0.078
-721.835	-115.858	-0.095	0.018
-720.821	-103.652	0.204	0.048
-719.806	254.492	0.122	-0.209
-718.791	-100.948	-0.214	-0.053
-717.777	443.860	0.083	0.182
-716.762	584.360	-0.005	0.013
-715.748	-200.000	0.000	-0.008
-714.733	-150.899	0.191	-0.014
-713.718	232.672	-0.154	-0.254
-712.704	658.806	-0.171	-0.443
-711.689	483.252	0.061	-0.139
-710.675	-200.000	0.005	-0.060
-709.660	-100.052	0.175	0.044
-708.645	34.896	0.271	-0.239
-707.631	626.902	0.042	0.107
-706.616	-68.683	-0.147	-0.057
-705.602	174.262	-0.090	0.130
-704.587	134.825	0.046	-0.060
-703.572	121.998	0.073	-0.091
-702.558	640.671	-0.059	-0.151
-701.543	-200.000	-0.032	-0.170
-700.529	-144.473	0.318	-0.030
-699.514	361.635	0.160	-0.323
-698.499	131.541	-0.178	-0.229
-697.485	-200.000	0.014	0.103
-696.470	22.206	0.061	-0.050
-695.456	-172.857	0.223	0.007
-694.441	800.000	0.097	0.351
-693.426	-200.000	0.004	-0.122
-692.412	-153.786	-0.081	-0.006
-691.397	-138.998	0.271	-0.030
-690.383	-200.000	0.025	0.285
-689.368	13.525	-0.147	0.115
-688.354	-19.139	-0.085	-0.053
-687.339	-150.668	-0.148	-0.011
-686.324	800.000	-0.101	0.346
-685.310	19.486	0.137	-0.111
-684.295	800.000	0.122	0.510
-683.281	765.727	0.137	-0.373
-682.266	-21.245	0.271	-0.166
-681.251	209.369	-0.081	-0.127
-680.237	-32.834	-0.276	0.154
-679.222	-48.380	0.075	0.036
-678.208	-200.000	0.024	0.213
-677.193	-200.000	-0.011	-0.155
-676.178	800.000	-0.107	-0.339
-675.164	-28.367	-0.025	0.014
-674.149	-27.195	-0.220	0.128
-673.135	-171.288	0.159	-0.005
-672.120	219.577	-0.158	0.254
-671.105	128.926	0.140	0.179
-670.091	187.420	-0.026	-0.038
-669.076	-42.106	-0.259	-0.133
-668.062	96.769	0.029	0.034
-667.047	-33.252	-0.448	0.249
-666.032	800.000	-0.046	0.169
-665.018	15.564	-0.071	0.056
-664.003	114.753	0.340	-0.416
-662.989	-141.427	-0.241	0.024
-661.974	-200.000	-0.006	0.316
-660.959	-119.029	0.187	0.033
-659.945	-130.218	0.137	-0.019
-658.930	110.418	-0.237	0.286
-657.916	-51.357	0.118	-0.055
-656.901	-200.000	0.026	-0.293
-655.886	-166.454	0.130	-0.005
-654.872	-81.935	0.157	-0.051
-653.857	252.753	-0.023	0.039
-652.843	-24.903	-0.264	0.157
-651.828	-149.767	-0.131	-0.010
-650.814	230.479	0.006	0.010
-649.799	-200.000	0.032	0.142
-648.784	75.350	-0.219	-0.231
-647.770	-89.790	-0.110	-0.032
-646.755	-10.706	0.328	-0.218
-645.741	17.673	-0.193	-0.154
-644.726	800.000	0.113	0.475
-643.711	800.000	-0.027	-0.106
-642.697	-32.605	-0.149	-0.083
-641.682	36.941	0.121	0.107
-640.668	800.000	-0.027	0.090
-639.653	-200.000	-0.042	-0.385
-638.638	269.578	0.091	0.160
-637.624	-68.413	-0.396	-0.154
-636.609	189.836	-0.027	-0.041
-635.595	-64.959	-0.444	0.180
-634.580	-46.571	0.274	-0.134
-633.565	-98.271	-0.268	0.069
-632.551	365.304	-0.037	-0.075
-631.536	59.108	-0.140	-0.138
-630.522	40.721	-0.124	-0.112
-629.507	-73.103	0.357	-0.131
-628.492	-70.636	0.145	-0.055
-627.478	-168.242	-0.262	0.010
-626.463	174.287	-0.104	-0.151
-625.449	-200.000	0.001	-0.028
-624.434	-162.868	0.225	0.011
-623.419	800.000	-0.115	-0.320
-622.405	800.000	-0.072	-0.223
-621.390	28.412	-0.259	-0.219
-620.376	-145.052	0.234	0.021
-619.361	-74.757	-0.176	0.063
-618.346	-110.233	-0.273	0.057
-617.332	53.735	0.109	0.105
-616.317	330.328	-0.132	-0.255
-615.303	-99.513	-0.161	-0.041
-614.288	-200.000	0.016	-0.183
-613.273	-137.463	0.217	-0.025
-612.259	39.862	-0.191	0.171
-611.244	-76.146	-0.183	0.065
-610.230	-134.944	-0.249	0.030
-609.215	208.476	-0.179	0.281
-608.201	-65.826	-0.215	0.086
-607.186	-62.654	0.179	-0.074
-606.171	800.000	-0.032	-0.129
-605.157	-63.440	-0.182	-0.075
-604.142	-49.808	-0.202	-0.096
-603.128	-51.334	-0.387	0.181
-602.113	118.423	-0.129	0.160
-601.098	-200.000	-0.290	-0.001
-600.084	282.627	0.083	-0.150
-599.069	-103.536	-0.135	-0.032
-598.055	-8.040	-0.281	-0.189
-597.040	393.107	-0.163	-0.340
-596.025	-47.185	-0.281	-0.137
-595.011	167.067	0.272	0.386
-593.996	-200.000	0.012	-0.054
-592.982	240.142	0.046	-0.077
-591.967	-92.565	0.140	0.039
-590.952	-200.000	-0.049	0.283
-589.938	39.878	0.045	0.040
-588.923	800.000	-0.007	0.024
-587.909	-165.962	-0.372	-0.016
-586.894	337.095	-0.119	0.232
-585.879	180.457	0.202	-0.297
-584.865	-168.403	-0.276	0.011
-583.850	-66.658	0.199	0.079
-582.836	-120.992	0.310	0.052
-581.821	-61.134	-0.218	-0.092
-580.806	-73.906	-0.385	-0.140
-579.792	350.913	-0.130	-0.257
-578.777	800.000	-0.039	-0.135
-577.763	140.059	-0.063	0.083
-576.748	-14.431	0.181	-0.117
-575.733	-200.000	-0.013	0.079
-574.719	-64.884	-0.164	0.066
-573.704	157.320	0.209	-0.289
-572.690	127.693	0.053	0.067
-571.675	256.787	0.063	0.108
-570.661	60.404	0.218	-0.216
-569.646	-200.000	0.017	0.101
-568.631	-77.524	0.212	-0.073
-567.617	-17.876	0.162	-0.101
-566.602	14.126	0.235	-0.183
-565.588	800.000	0.058	0.193
-564.573	800.000	-0.055	0.162
-563.558	800.000	-0.046	-0.157
-562.544	-52.087	-0.243	-0.113
-561.529	96.307	0.148	0.169
-560.515	59.239	-0.068	-0.066
-559.500	-59.455	-0.368	-0.158
-558.485	-61.895	-0.369	0.154
-557.471	-142.079	0.139	-0.014
-556.456	-130.339	-0.092	0.013
-555.442	324.407	0.088	-0.168
-554.427	439.661	-0.064	-0.140
-553.412	-173.959	-0.267	0.008
-552.398	105.957	0.015	0.018
-551.383	-84.842	0.298	-0.094
-550.369	-87.171	0.245	-0.074
-549.354	-150.599	-0.690	0.053
-548.339	-79.839	0.241	0.081
-547.325	116.893	0.160	-0.196
-546.310	-81.088	0.172	-0.057
-545.296	-200.000	-0.009	-0.063
-544.281	-97.653	-0.157	0.041
-543.266	-90.721	-0.142	-0.041
-542.252	100.077	-0.238	-0.276
-541.237	800.000	-0.029	-0.083
-540.223	-94.314	0.219	0.060
-539.208	-200.000	-0.033	0.188
-538.193	-200.000	-0.005	0.090
-537.179	222.560	0.203	-0.327
-536.164	-113.029	-0.257	0.051
-535.150	145.742	0.183	-0.245
-534.135	523.634	0.083	0.195
-533.121	242.265	-0.091	0.151
-532.106	-22.997	-0.344	0.207
-531.091	-150.782	0.117	0.009
-530.077	83.150	-0.106	0.115
-529.062	-130.489	-0.202	0.027
-528.048	267.217	-0.101	0.177
-527.033	211.255	0.129	0.202
-526.018	24.034	-0.048	0.039
-525.004	800.000	0.074	0.253
-523.989	-127.211	0.364	-0.053
-522.975	-92.962	-0.138	0.038
-521.960	47.947	-0.112	-0.104
-520.945	-200.000	-0.059	-0.299
-519.931	-25.230	-0.435	0.257
-518.916	173.092	-0.139	-0.200
-517.902	160.592	-0.131	0.183
-516.887	755.891	-0.053	-0.144
-515.872	-35.906	0.185	-0.100
-514.858	127.996	-0.112	-0.142
-513.843	260.254	-0.120	0.207
-512.829	-200.000	-0.017	0.080
-511.814	-97.566	-0.302	-0.078
-510.799	-36.886	0.186	0.100
-509.785	-200.000	0.016	0.197
-508.770	-136.947	-0.248	0.028
-507.756	-200.000	0.021	0.263
-506.741	-54.806	0.398	-0.179
-505.726	-132.511	0.294	-0.038
-504.712	-89.317	-0.252	-0.074
-503.697	-30.912	0.079	-0.045
-502.683	219.598	-0.076	-0.121
-501.668	800.000	-0.038	-0.149
-500.653	800.000	-0.032	0.093
-499.639	-200.000	0.019	-0.161
-498.624	800.000	0.097	-0.412
-497.610	495.754	-0.057	-0.131
-496.595	-41.053	0.213	0.110
-495.581	128.731	-0.044	-0.056
-494.566	-165.368	-0.078	-0.003
-493.551	-200.000	0.076	-0.398
-492.537	-62.991	0.316	-0.130
-491.522	-200.000	-0.038	-0.307
-490.508	-200.000	-0.005	0.196
-489.493	739.370	-0.076	0.203
-488.478	217.703	0.123	0.195
-487.464	42.733	0.114	-0.103
-486.449	-81.457	0.129	-0.042
-485.435	145.438	0.161	-0.215
-484.420	-68.186	-0.190	0.074
-483.405	378.602	0.059	-0.120
-482.391	-40.390	0.318	0.165
-481.376	-73.052	0.145	-0.053
-480.362	-200.000	0.049	0.230
-479.347	800.000	-0.154	0.442
-478.332	-200.000	0.026	0.227
-477.318	-98.365	0.228	0.058
-476.303	-46.994	-0.221	-0.107
-475.289	-3.238	0.232	0.161
-474.274	-200.000	0.012	0.323
-473.259	800.000	0.027	0.118
-472.245	-194.303	0.090	0.001
-471.230	-52.457	-0.221	-0.102
-470.216	800.000	-0.092	0.362
-469.201	-146.727	0.320	-0.028
-468.186	-200.000	0.030	-0.301
-467.172	-136.684	0.252	0.029
-466.157	-200.000	0.026	0.139
-465.143	-58.683	-0.273	0.118
-464.128	-38.801	-0.201	-0.105
-463.113	800.000	0.010	-0.043
-462.099	800.000	0.052	-0.152
-461.084	-200.000	-0.043	0.445
-460.070	72.248	-0.141	0.146
-459.055	-173.431	-0.130	0.004
-458.040	-144.024	-0.197	-0.018
-457.026	74.145	-0.142	-0.148
-456.011	-112.013	0.198	-0.040
-454.997	177.917	-0.102	0.148
-453.982	-200.000	-0.001	0.022
-452.968	-192.098	0.274	-0.003
-451.953	800.000	-0.099	-0.317
-450.938	171.321	0.260	0.371
-449.924	800.000	-0.017	-0.053
-448.909	366.130	0.060	-0.120
-447.895	30.245	-0.061	-0.052
-446.880	448.097	-0.075	-0.163
-445.865	375.827	0.020	-0.041
-444.851	-25.973	0.142	-0.083
-443.836	-106.955	-0.079	0.017
-442.822	-200.000	0.014	-0.309
-441.807	800.000	0.047	0.138
-440.792	-48.960	-0.293	-0.140
-439.778	54.485	-0.156	-0.149
-438.763	-200.000	-0.027	-0.164
-437.749	130.016	0.202	0.258
-436.734	7.745	-0.152	-0.113
-435.719	-95.247	0.104	-0.028
-434.705	109.865	0.309	-0.368
-433.690	148.296	0.148	-0.198
-432.676	404.973	0.101	0.212
-431.661	61.391	-0.065	-0.064
-430.646	-106.121	0.190	0.042
-429.632	3.193	-0.370	-0.267
-428.617	800.000	-0.025	0.085
-427.603	486.722	0.060	0.136
-426.588	-11.257	-0.350	-0.229
-425.573	602.075	-0.070	-0.172
-424.559	-31.375	-0.112	0.063
-423.544	-50.144	0.262	0.123
-422.530	-94.377	-0.268	0.073
-421.515	-51.845	-0.113	-0.052
-420.500	-200.000	0.021	-0.104
-419.486	132.222	0.252	0.322
-418.471	264.953	0.113	-0.196
-417.457	451.580	0.094	0.207
-416.442	-47.696	0.254	-0.122
-415.428	-200.000	0.023	-0.320
-414.413	-60.999	-0.148	-0.062
-413.398	-1.769	-0.282	-0.197
-412.384	-55.137	-0.547	0.245
-411.369	727.991	-0.120	0.319
-410.355	-125.667	0.052	0.008
-409.340	1.350	0.115	-0.082
-408.325	-31.105	-0.412	-0.231
-407.311	800.000	0.068	-0.253
-406.296	130.562	0.250	-0.318
-405.282	-88.546	-0.147	0.044
-404.267	-77.398	-0.064	0.022
-403.252	19.139	0.167	0.133
-402.238	800.000	0.062	-0.174
-401.223	5.098	0.391	-0.286
-400.209	46.539	-0.165	0.152
-399.194	-200.000	-0.016	0.123
-398.179	701.421	0.094	0.245
-397.165	87.959	0.135	-0.149
-396.150	475.215	0.071	0.160
-395.136	430.620	-0.065	0.140
-394.121	68.773	0.134	-0.137
-393.106	-187.415	0.144	0.002
-392.092	273.449	-0.128	-0.225
-391.077	-43.577	0.136	0.068
-390.063	-196.068	0.241	0.002
-389.048	-200.000	0.034	0.385
-388.033	220.776	0.119	0.189
-387.019	109.079	-0.120	0.143
-386.004	-112.346	-0.293	-0.058
-384.990	-23.182	0.195	0.116
-383.975	-110.072	0.344	0.071
-382.960	355.980	-0.111	-0.218
-381.946	-4.970	0.193	0.132
-380.931	539.680	-0.065	0.153
-379.917	-44.832	-0.241	-0.119
-378.902	-83.350	-0.083	0.027
-377.888	268.425	0.085	-0.148
-376.873	800.000	0.082	0.318
-375.858	-106.914	0.160	-0.035
-374.844	230.841	0.130	-0.210
-373.829	-122.185	0.090	-0.015
-372.815	-1.390	-0.205	0.143
-371.800	800.000	0.034	0.093
-370.785	202.340	-0.099	-0.152
-369.771	-74.063	0.101	-0.036
-368.756	-200.000	0.049	0.217
-367.742	129.471	-0.069	-0.088
-366.727	-108.607	0.159	0.034
-365.712	-164.473	0.140	-0.006
-364.698	10.811	0.064	-0.049
-363.683	-200.000	-0.054	0.363
-362.669	-200.000	-0.044	-0.220
-361.654	122.278	-0.095	0.118
-360.639	-58.218	-0.100	0.043
-359.625	-32.575	0.253	-0.140
-358.610	-200.000	0.013	0.288
-357.596	-136.678	0.264	-0.030
-356.581	263.804	0.107	0.185
-355.566	73.025	0.132	0.137
-354.552	800.000	-0.037	0.149
-353.537	47.271	0.330	-0.305
-352.523	137.710	0.177	0.230
-351.508	-71.502	0.283	0.105
-350.493	503.292	-0.134	-0.308
-349.479	234.935	-0.043	-0.070
-348.464	-200.000	-0.069	0.347
-347.450	469.662	0.132	0.294
-346.435	4.502	0.044	-0.032
-345.420	-119.677	0.195	0.033
-344.406	200.442	0.025	-0.037
-343.391	102.233	-0.242	0.280
-342.377	-62.932	-0.598	-0.245
-341.362	-98.080	0.146	0.037
-340.348	800.000	0.075	-0.323
-339.333	23.408	0.278	-0.226
-338.318	139.884	0.075	0.097
-337.304	-171.547	0.084	-0.003
-336.289	-24.473	0.278	0.164
-335.275	-200.000	-0.023	0.306
-334.260	-126.513	0.438	0.064
-333.245	387.960	0.037	-0.077
-332.231	756.446	-0.128	-0.343
-331.216	-200.000	0.025	-0.166
-330.202	27.602	0.211	-0.176
-329.187	22.142	-0.222	-0.179
-328.172	-200.000	-0.091	-0.482
-327.158	-111.957	0.356	-0.071
-326.143	2.425	0.084	0.060
-325.129	-101.771	0.324	-0.078
-324.114	15.042	0.408	-0.316
-323.099	151.203	0.166	-0.224
-322.085	164.971	-0.059	0.083
-321.070	701.265	-0.034	0.087
-320.056	217.859	-0.213	0.337
-319.041	-37.842	-0.363	0.191
-318.026	-131.858	0.188	-0.024
-317.012	5.155	-0.214	0.156
-315.997	573.596	-0.079	0.190
-314.983	198.314	0.158	-0.240
-313.968	87.249	-0.070	0.077
-312.953	-200.000	0.008	0.079
-311.939	-112.457	-0.159	0.031
-310.924	56.740	0.287	0.276
-309.910	800.000	0.032	0.129
-308.895	-81.000	-0.568	-0.186
-307.880	335.463	0.036	-0.070
-306.866	800.000	0.143	0.445
-305.851	-179.387	-0.074	0.002
-304.837	800.000	0.134	0.390
-303.822	-200.000	-0.023	0.238
-302.807	3.438	-0.122	0.088
-301.793	-117.556	-0.330	-0.059
-300.778	-64.182	-0.297	0.120
-299.764	709.339	0.065	-0.170
-298.749	800.000	0.069	-0.191
-297.735	12.774	-0.146	-0.112
-296.720	-200.000	0.021	0.285
-295.705	-100.742	0.324	0.079
-294.691	33.066	0.162	-0.139
-293.676	470.191	0.075	0.166
-292.662	-200.000	0.064	0.288
-291.647	-200.000	-0.009	0.141
-290.632	192.628	0.078	-0.117
-289.618	16.102	-0.215	0.167
-288.603	12.311	0.060	-0.045
-287.589	-13.302	0.253	-0.162
-286.574	-82.386	-0.180	-0.058
-285.559	800.000	-0.077	-0.265
-284.545	-166.841	0.180	0.007
-283.530	495.255	-0.102	-0.231
-282.516	54.303	0.220	0.210
-281.501	-165.870	0.255	0.011
-280.486	-46.810	0.309	-0.149
-279.472	-54.291	-0.114	-0.051
-278.457	207.692	-0.015	-0.024
-277.443	-67.956	-0.253	-0.097
-276.428	686.603	-0.068	0.175
-275.413	325.613	-0.063	-0.118
-274.399	-49.550	0.276	0.130
-273.384	-121.171	-0.428	-0.071
-272.370	-51.809	-0.216	-0.099
-271.355	-200.000	0.009	0.090
-270.340	-200.000	-0.034	-0.169
-269.326	800.000	0.105	0.294
-268.311	19.678	0.236	-0.187
-267.297	-18.217	0.260	0.161
-266.282	-65.425	0.146	-0.058
-265.267	304.926	-0.116	0.212
-264.253	-200.000	-0.037	-0.282
-263.238	156.976	-0.166	0.226
-262.224	-140.803	0.161	0.016
-261.209	343.990	-0.082	-0.159
-260.195	-200.000	0.008	0.180
-259.180	-200.000	-0.076	0.536
-258.165	14.219	0.050	0.038
-257.151	-72.467	0.116	0.042
-256.136	-124.832	0.152	0.023
-255.122	252.489	-0.036	-0.060
-254.107	104.461	-0.135	0.157
-253.092	-24.264	0.153	-0.090
-252.078	800.000	-0.137	0.412
-251.063	-34.813	0.122	-0.066
-250.049	-127.261	-0.180	-0.026
-249.034	-120.758	0.419	-0.070
-248.019	-138.449	-0.041	-0.004
-247.005	-68.978	-0.096	0.036
-245.990	-60.559	-0.338	-0.142
-244.976	-114.787	-0.038	0.007
-243.961	-200.000	-0.026	-0.275
-242.946	-99.029	0.403	-0.101
-241.932	-200.000	-0.013	0.129
-240.917	129.459	0.165	-0.208
-239.903	407.571	0.066	-0.139
-238.888	647.043	0.131	-0.330
-237.873	207.165	0.113	0.175
-236.859	-150.535	0.263	-0.020
-235.844	800.000	-0.020	-0.068
-234.830	253.323	-0.078	0.132
-233.815	-79.251	-0.091	0.030
-232.800	-200.000	-0.021	-0.220
-231.786	800.000	-0.025	-0.101
-230.771	-200.000	0.013	0.324
-229.757	69.489	-0.011	0.011
-228.742	-66.227	-0.365	0.143
-227.727	-44.676	-0.342	0.169
-226.713	-1.529	0.047	-0.033
-225.698	800.000	0.072	-0.272
-224.684	800.000	-0.033	0.096
-223.669	-71.019	0.265	0.098
-222.655	-200.000	0.001	0.161
-221.640	-149.390	-0.236	-0.018
-220.625	-11.265	-0.211	0.137
-219.611	-148.914	0.225	-0.018
-218.596	441.029	0.171	0.369
-217.582	-38.414	-0.156	-0.081
-216.567	-100.715	-0.156	0.038
-215.552	-108.581	-0.244	-0.052
-214.538	-200.000	0.024	0.307
-213.523	-200.000	0.007	-0.052
-212.509	-48.070	0.295	0.140
-211.494	-200.000	0.015	-0.314
-210.479	-49.707	0.390	0.183
-209.465	800.000	-0.013	-0.041
-208.450	800.000	-0.133	-0.453
-207.436	-75.498	-0.166	-0.058
-206.421	379.233	0.041	-0.083
-205.406	-165.024	-0.195	-0.009
-204.392	-14.592	-0.229	-0.145
-203.377	-200.000	-0.041	0.189
-202.363	-200.000	-0.054	-0.254
-201.348	-83.899	-0.180	0.057
-200.333	178.494	-0.291	0.419
-199.319	-33.113	0.367	0.201
-198.304	237.281	0.105	-0.171
-197.290	-60.928	-0.211	0.088
-196.275	520.928	0.098	0.225
-195.260	278.821	-0.108	0.189
-194.246	800.000	0.081	-0.290
-193.231	-200.000	0.066	-0.414
-192.217	-54.423	-0.401	-0.179
-191.202	-133.270	0.273	-0.034
-190.187	-34.314	0.272	0.147
-189.173	74.658	-0.160	-0.166
-188.158	-76.442	0.064	-0.022
-187.144	15.258	0.112	0.086
-186.129	209.306	-0.168	-0.259
-185.114	-89.446	-0.072	0.021
-184.100	224.061	-0.127	-0.203
-183.085	800.000	0.057	0.192
-182.071	-200.000	0.001	-0.307
-181.056	800.000	0.116	-0.388
-180.042	800.000	0.050	0.147
-179.027	-142.490	0.515	0.050
-178.012	-119.122	0.083	0.014
-176.998	-133.071	0.273	0.034
-175.983	-200.000	0.029	-0.350
-174.969	2.541	0.415	0.296
-173.954	451.704	-0.101	0.219
-172.939	245.977	-0.132	-0.219
-171.925	800.000	-0.094	0.282
-170.910	7.884	-0.162	0.119
-169.896	-200.000	-0.058	0.402
-168.881	28.620	-0.079	0.065
-167.866	-34.669	0.375	0.202
-166.852	203.291	0.074	-0.113
-165.837	-148.408	0.035	-0.003
-164.823	-82.295	0.279	-0.089
-163.808	15.415	-0.060	0.046
-162.793	-200.000	-0.029	0.180
-161.779	-80.034	0.144	0.047
-160.764	-73.589	0.101	0.036
-159.750	445.392	-0.147	0.317
-158.735	40.932	-0.228	0.202
-157.720	-92.741	-0.175	0.048
-156.706	-200.000	0.006	-0.193
-155.691	-147.220	0.220	0.018
-154.677	98.324	-0.104	0.118
-153.662	-16.763	-0.184	0.115
-152.647	-149.191	0.414	0.033
-151.633	-200.000	-0.030	0.179
-150.618	-63.111	-0.179	-0.073
-149.604	67.390	0.366	-0.367
-148.589	-200.000	0.001	-0.087
-147.574	-200.000	0.002	-0.185
-146.560	-200.000	-0.058	0.281
-145.545	-132.406	-0.047	-0.006
-144.531	-200.000	0.003	-0.147
-143.516	96.538	-0.150	0.169
-142.502	122.315	0.148	-0.182
-141.487	5.534	0.074	-0.054
-140.472	-200.000	0.004	0.117
-139.458	-23.246	-0.264	-0.156
-138.443	-159.051	0.319	-0.018
-137.429	21.709	0.038	-0.031
-136.414	-162.324	0.342	-0.017
-135.399	800.000	-0.034	-0.106
-134.385	-87.873	0.444	0.131
-133.370	-154.622	0.127	0.008
-132.356	-9.990	-0.103	-0.067
-131.341	-178.656	0.145	-0.003
-130.326	126.704	0.216	-0.269
-129.312	378.094	0.080	0.161
-128.297	-32.997	0.166	0.091
-127.283	5.673	-0.114	0.083
-126.268	-117.654	-0.036	-0.006
-125.253	-156.405	-0.184	0.011
-124.239	171.931	0.189	0.267
-123.224	104.228	-0.094	-0.109
-122.210	91.726	-0.138	0.153
-121.195	800.000	-0.080	0.286
-120.180	-18.143	-0.212	-0.130
-119.166	-55.330	0.224	0.099
-118.151	-123.916	0.322	0.050
-117.137	-200.000	-0.007	0.120
-116.122	-154.848	0.233	-0.015
-115.107	-103.869	0.247	-0.057
-114.093	36.220	0.147	0.127
-113.078	-22.947	-0.046	-0.027
-112.064	591.556	-0.108	-0.261
-111.049	116.485	0.103	-0.124
-110.034	-65.972	-0.158	0.062
-109.020	19.325	-0.268	-0.212
-108.005	-85.343	0.213	-0.065
-106.991	129.643	0.108	0.136
-105.976	57.545	0.098	-0.094
-104.962	308.462	0.129	0.236
-103.947	-77.259	-0.085	-0.029
-102.932	-85.964	0.096	0.029
-101.918	-200.000	-0.034	0.190
-100.903	4.499	0.352	-0.253
-99.889	394.797	-0.056	0.115
-98.874	800.000	0.132	-0.376
-97.859	154.217	-0.096	-0.129
-96.845	7.098	0.184	-0.135
-95.830	-116.556	-0.408	-0.074
-94.816	-191.844	0.076	0.001
-93.801	143.112	0.074	-0.097
-92.786	-141.521	0.346	0.034
-91.772	-49.992	0.098	-0.046
-90.757	-163.727	-0.248	0.011
-89.743	-7.662	-0.249	0.165
-88.728	182.108	0.077	-0.112
-87.713	-200.000	-0.004	-0.291
-86.699	-52.998	-0.213	0.096
-85.684	800.000	-0.047	-0.158
-84.670	99.563	-0.250	0.283
-83.655	-200.000	0.046	-0.217
-82.640	-171.376	0.290	-0.010
-81.626	113.257	0.073	0.086
-80.611	-19.083	-0.221	0.135
-79.597	308.666	0.222	0.406
-78.582	-152.507	0.137	-0.010
-77.567	133.562	-0.164	-0.208
-76.553	-181.634	0.367	0.007
-75.538	800.000	-0.058	-0.226
-74.524	421.396	-0.037	0.077
-73.509	-184.935	0.093	-0.001
-72.494	-98.489	-0.246	-0.062
-71.480	-200.000	-0.017	0.115
-70.465	-200.000	0.009	0.150
-69.451	-30.910	0.343	-0.190
-68.436	-54.139	0.191	-0.085
-67.422	24.664	-0.195	-0.158
-66.407	-26.749	-0.082	0.047
-65.392	340.410	0.097	0.185
-64.378	99.452	0.034	-0.038
-63.363	53.289	0.175	0.165
-62.349	341.984	-0.156	0.299
-61.334	119.318	-0.971	-1.177
-60.319	64.588	0.769	0.759
-59.305	-200.000	-0.221	-0.961
-58.290	88.120	0.725	0.788
-57.276	606.534	0.725	1.771
-56.261	-200.000	113.923	645.222
-55.246	532.674	1518.384	3519.548
-54.232	179.392	2681.908	3843.757
-53.217	109.651	2168.441	2544.975
-52.203	38.567	1699.603	1484.177
-51.188	31.209	1519.119	1276.435
-50.173	28.909	1494.966	1240.594
-49.159	52.769	1553.330	1453.707
-48.144	51.556	1568.155	1459.202
-47.130	31.364	1524.521	1281.841
-46.115	28.302	1510.097	1248.816
-45.100	28.225	1506.635	1245.378
-44.086	28.189	1504.569	1243.379
-43.071	28.158	1502.396	1241.320
-42.057	28.113	1501.242	1240.014
-41.042	28.143	1499.695	1238.891
-40.027	27.997	1498.619	1236.965
-39.013	28.129	1496.555	1236.102
-37.998	27.889	1495.639	1233.675
-36.984	28.023	1494.845	1233.877
-35.969	28.086	1492.981	1232.716
-34.954	28.103	1491.688	1231.711
-33.940	28.173	1489.876	1230.638
-32.925	28.070	1489.012	1229.181
-31.911	28.133	1487.411	1228.236
-30.896	28.165	1486.630	1227.760
-29.881	28.144	1485.092	1226.301
-28.867	28.157	1483.824	1225.291
-27.852	28.109	1482.758	1224.039
-26.838	28.048	1481.637	1222.656
-25.823	28.201	1479.423	1221.805
-24.809	28.145	1478.053	1220.251
-23.794	28.082	1477.380	1219.226
-22.779	28.182	1476.035	1218.734
-21.765	28.131	1474.794	1217.321
-20.750	28.114	1473.730	1216.282
-19.736	28.081	1472.397	1214.913
-18.721	28.034	1471.525	1213.833
-17.706	28.121	1470.437	1213.467
-16.692	28.075	1469.257	1212.142
-15.677	28.107	1468.163	1211.403
-14.663	28.145	1467.269	1210.869
-13.648	28.032	1466.597	1209.517
-12.633	28.106	1464.904	1208.563
-11.619	28.139	1464.283	1208.217
-10.604	28.067	1464.113	1207.554
-9.590	27.955	1463.012	1205.858
-8.575	28.094	1462.494	1206.300
-7.560	28.075	1460.828	1204.755
-6.546	28.151	1460.326	1204.795
-5.531	28.156	1459.104	1203.769
-4.517	28.056	1458.140	1202.269
-3.502	27.933	1457.809	1201.144
-2.487	28.014	1456.584	1200.617
-1.473	28.000	1455.611	1199.676
-0.458	28.091	1454.299	1199.144
0.556	29.445	1444.357	1187.647
1.571	26.175	1419.734	1146.571
2.586	22.570	1361.729	1077.630
3.600	20.816	1280.090	1002.842
4.615	19.507	1233.650	959.108
5.629	17.133	1177.256	902.580
6.644	10.197	1094.509	804.678
7.659	4.562	1056.606	749.628
8.673	3.878	1050.892	742.224
9.688	3.731	1047.413	738.997
10.702	3.482	1046.609	737.177
11.717	3.551	1044.509	735.960
12.731	6.010	1046.494	749.034
13.746	13.803	1056.769	793.729
14.761	20.580	1066.101	833.256
15.775	22.726	1067.561	844.611
16.790	22.239	1066.242	841.163
17.804	21.528	1064.379	836.222
18.819	20.818	1062.719	831.455
19.834	20.358	1061.849	828.508
20.848	20.450	1061.209	828.374
21.863	20.460	1060.955	828.149
22.877	20.284	1060.307	826.732
23.892	20.195	1059.614	825.697
24.907	20.025	1058.455	823.909
25.921	20.144	1057.299	823.502
26.936	19.988	1056.841	822.331
27.950	19.967	1055.847	821.387
28.965	19.914	1055.009	820.411
29.980	20.027	1053.549	819.735
30.994	20.090	1052.680	819.288
32.009	20.277	1052.057	819.614
33.023	20.393	1051.002	819.264
34.038	20.491	1050.138	818.981
35.053	20.121	1049.971	817.033
36.067	20.121	1048.138	815.537
37.082	19.980	1047.711	814.469
38.096	20.073	1046.981	814.266
39.111	20.235	1046.302	814.428
40.126	20.224	1045.558	813.726
41.140	20.057	1044.305	811.893
42.155	19.788	1042.727	809.338
43.169	19.567	1041.987	807.658
44.184	19.456	1040.878	806.207
45.199	19.490	1039.145	804.951
46.213	19.524	1038.570	804.595
47.228	19.666	1038.212	804.907
48.242	19.971	1037.662	805.832
49.257	20.162	1036.827	806.001
50.271	20.155	1035.738	805.050
51.286	20.174	1035.024	804.510
52.301	20.256	1034.646	804.528
53.315	20.261	1033.966	803.949
54.330	20.201	1032.392	802.376
55.344	19.922	1031.832	800.580
56.359	19.633	1030.920	798.465
57.374	19.745	1029.718	797.981
58.388	19.678	1028.880	796.951
59.403	19.550	1028.174	795.745
60.417	19.386	1027.273	794.222
61.432	19.485	1026.730	794.188
62.447	19.510	1025.995	793.664
63.461	19.466	1025.007	792.626
64.476	19.392	1024.404	791.749
65.490	19.321	1023.345	790.536
66.505	19.281	1022.380	789.540
67.520	19.315	1021.604	789.025
68.534	19.434	1021.252	789.226
69.549	19.264	1020.416	787.734
70.563	19.264	1019.341	786.835
71.578	19.087	1019.105	785.777
72.593	18.971	1017.854	784.211
73.607	18.996	1016.420	783.151
74.622	18.772	1016.014	781.751
75.636	18.940	1014.788	781.500
76.651	19.208	1013.541	781.689
77.666	19.101	1013.028	780.739
78.680	19.115	1012.486	780.316
79.695	19.113	1011.979	779.847
80.709	19.159	1011.543	779.648
81.724	19.428	1010.668	780.120
82.739	19.483	1010.072	779.842
83.753	19.437	1009.344	779.004
84.768	19.834	1009.056	780.502
85.782	20.263	1008.833	782.198
86.797	20.481	1008.355	782.740
87.812	20.609	1006.950	782.154
88.826	20.393	1006.262	780.578
89.841	20.181	1005.629	779.070
90.855	20.318	1005.004	779.131
91.870	20.464	1004.660	779.451
92.884	20.468	1004.023	778.905
93.899	20.567	1002.452	778.061
94.914	20.437	1001.940	777.011
95.928	20.480	1001.276	776.619
96.943	20.538	1000.306	776.057
97.957	20.330	999.438	774.388
98.972	20.204	998.336	772.902
99.987	20.444	997.287	773.090
101.001	20.395	996.899	772.503
102.016	20.379	996.443	772.012
103.030	20.332	995.012	770.624
104.045	20.358	993.955	769.857
105.060	20.314	993.306	769.090
106.074	20.349	991.680	767.915
107.089	19.909	991.034	765.402
108.103	19.687	989.680	763.311
109.118	19.492	988.951	761.819
110.133	19.429	987.754	760.550
111.147	19.184	987.262	759.025
112.162	19.275	985.831	758.258
113.176	19.283	984.807	757.439
114.191	19.398	984.525	757.660
115.206	19.642	983.607	757.958
116.220	19.628	982.834	757.232
117.235	19.430	982.000	755.656
118.249	19.519	981.054	755.251
119.264	19.507	979.928	754.264
120.279	19.398	978.688	752.767
121.293	19.107	978.662	751.413
122.308	19.083	977.767	750.552
123.322	19.101	976.641	749.702
124.337	18.756	975.998	747.639
125.352	18.812	974.629	746.767
126.366	18.922	973.531	746.339
127.381	18.844	972.609	745.226
128.395	18.905	971.998	744.959
129.410	19.000	970.728	744.329
130.424	18.980	970.341	743.878
131.439	19.203	969.032	743.774
132.454	19.379	968.513	744.067
133.468	19.421	968.078	743.849
134.483	19.395	967.537	743.258
135.497	19.461	967.037	743.090
136.512	19.362	966.635	742.290
137.527	19.498	965.421	741.878
138.541	19.656	964.417	741.717
139.556	19.520	963.884	740.658
140.570	19.546	963.574	740.467
141.585	19.797	962.384	740.563
142.600	20.094	962.208	741.631
143.614	20.142	961.838	741.488
144.629	20.127	960.747	740.518
145.643	20.384	960.265	741.176
146.658	20.330	959.108	739.988
147.673	20.190	957.666	738.214
148.687	19.749	957.022	735.777
149.702	19.626	956.185	734.546
150.716	19.527	954.893	733.066
151.731	19.605	953.719	732.432
152.746	19.638	953.284	732.172
153.760	19.648	952.557	731.592
154.775	19.756	951.614	731.260
155.789	19.854	951.237	731.318
156.804	19.771	950.697	730.490
157.819	19.806	949.946	729.994
158.833	19.952	949.041	729.851
159.848	20.169	948.485	730.273
160.862	20.245	948.391	730.456
161.877	20.275	947.148	729.558
162.892	19.835	946.188	726.905
163.906	19.595	944.600	724.613
164.921	19.512	943.893	723.662
165.935	19.387	943.195	722.539
166.950	19.599	942.214	722.610
167.964	19.863	940.660	722.455
168.979	19.855	939.979	721.835
169.994	19.651	939.166	720.298
171.008	19.551	937.923	718.864
172.023	19.699	937.448	719.051
173.037	19.841	937.546	719.656
174.052	20.217	936.538	720.381
175.067	20.028	935.722	718.902
176.081	19.631	934.753	716.448
177.096	19.413	933.233	714.317
178.110	19.387	932.928	713.912
179.125	19.416	932.070	713.313
180.140	19.514	930.877	712.744
181.154	19.593	930.513	712.728
182.169	19.881	930.179	713.597
183.183	20.057	929.963	714.094
184.198	19.853	929.869	713.118
185.213	20.097	928.349	712.893
186.227	20.138	927.720	712.514
187.242	20.092	927.744	712.282
188.256	20.336	926.782	712.481
189.271	20.325	926.335	712.029
190.286	20.450	925.517	711.851
191.300	20.167	924.917	710.166
192.315	19.671	922.974	706.582
193.329	19.203	922.497	704.245
194.344	19.311	921.656	703.981
195.359	19.444	921.710	704.500
196.373	19.645	920.928	704.659
197.388	19.764	920.450	704.718
198.402	19.976	920.169	705.305
199.417	20.233	920.123	706.252
200.432	20.405	920.391	707.095
201.446	20.471	919.765	706.824
202.461	20.644	919.381	707.169
203.475	20.864	918.546	707.356
204.490	20.696	918.075	706.251
205.504	20.345	916.751	703.747
206.519	20.295	915.623	702.616
207.534	20.054	915.178	701.236
208.548	20.204	913.877	700.785
209.563	20.048	913.611	699.888
210.577	20.124	912.704	699.436
211.592	20.241	912.366	699.587
212.607	20.389	911.877	699.747
213.621	20.522	912.119	700.405
214.636	20.576	910.905	699.632
215.650	20.469	910.161	698.565
216.665	20.495	909.616	698.192
217.680	20.438	909.707	697.971
218.694	20.765	909.234	698.858
219.709	20.652	909.181	698.303
220.723	20.681	907.720	697.233
221.738	20.655	906.850	696.402
222.753	20.525	906.170	695.298
223.767	20.419	905.380	694.204
224.782	20.518	905.043	694.279
225.796	20.735	904.118	694.375
226.811	20.841	903.733	694.441
227.826	20.752	902.831	693.332
228.840	20.485	901.979	691.553
229.855	20.369	901.390	690.582
230.869	20.267	900.941	689.770
231.884	20.472	899.799	689.647
232.899	20.170	899.178	687.914
233.913	20.205	898.200	687.241
234.928	19.949	897.769	685.838
235.942	19.864	896.521	684.488
236.957	19.850	895.969	683.952
237.972	20.008	895.010	683.783
238.986	19.918	894.762	683.178
240.001	20.064	894.268	683.316
241.015	20.052	893.303	682.469
242.030	20.039	892.911	682.060
243.045	20.141	892.427	682.029
244.059	20.331	891.725	682.181
245.074	20.286	891.525	681.789
246.088	20.327	891.153	681.608
247.103	20.562	890.099	681.662
248.117	20.705	889.971	682.063
249.132	20.928	889.301	682.361
250.147	21.155	889.560	683.389
251.161	21.382	888.868	683.686
252.176	21.622	888.262	684.096
253.190	21.637	887.690	683.654
254.205	21.503	887.581	682.986
255.220	21.853	886.625	683.556
256.234	21.569	886.196	682.058
257.249	21.569	885.386	681.373
258.263	21.463	884.974	680.585
259.278	21.624	884.254	680.597
260.293	21.388	883.878	679.330
261.307	21.615	883.015	679.486
262.322	21.653	882.873	679.465
263.336	21.700	882.193	679.065
264.351	21.654	881.407	678.221
265.366	21.673	880.841	677.797
266.380	21.628	880.459	677.268
267.395	21.694	879.551	676.767
268.409	21.615	878.848	675.861
269.424	21.343	878.084	674.164
270.439	21.529	876.958	673.958
271.453	21.469	876.192	673.079
272.468	21.338	875.140	671.706
273.482	21.189	874.645	670.694
274.497	21.198	874.666	670.685
275.512	21.272	873.216	669.799
276.526	21.121	872.815	668.855
277.541	21.198	872.148	668.578
278.555	21.332	871.803	668.766
279.570	21.562	871.344	669.234
280.585	21.659	871.418	669.605
281.599	21.795	870.659	669.481
282.614	21.547	870.138	668.074
283.628	21.234	869.485	666.319
284.643	21.356	868.346	665.854
285.657	21.276	867.910	665.157
286.672	21.255	867.205	664.476
287.687	21.308	866.912	664.396
288.701	21.243	866.777	663.986
289.716	21.259	866.264	663.595
290.730	21.317	865.467	663.146
291.745	21.286	864.916	662.545
292.760	21.508	863.756	662.441
293.774	21.621	863.663	662.738
294.789	21.641	863.512	662.638
295.803	21.869	862.635	662.769
296.818	21.493	862.069	660.854
297.833	21.350	861.159	659.561
298.847	21.380	860.543	659.144
299.862	21.397	860.052	658.772
300.876	21.446	859.252	658.284
301.891	21.570	859.010	658.508
302.906	21.792	858.221	658.678
303.920	22.009	857.590	658.950
304.935	22.095	857.475	659.128
305.949	22.209	857.188	659.278
306.964	22.071	856.571	658.226
307.979	21.825	855.608	656.508
308.993	21.790	855.059	655.895
310.008	21.895	854.447	655.760
311.022	21.928	854.284	655.700
312.037	21.919	853.632	655.111
313.052	21.799	852.819	653.978
314.066	21.513	851.811	652.085
315.081	21.335	851.109	650.826
316.095	21.214	850.966	650.206
317.110	21.368	850.010	649.992
318.125	21.272	849.387	649.103
319.139	21.302	848.757	648.675
320.154	21.246	848.699	648.365
321.168	21.319	847.916	647.982
322.183	21.406	847.351	647.813
323.197	21.475	846.924	647.687
324.212	21.390	846.793	647.214
325.227	21.409	846.002	646.624
326.241	21.448	845.523	646.342
327.256	21.396	844.907	645.621
328.270	21.473	843.664	644.898
329.285	21.398	843.384	644.351
330.300	21.352	842.839	643.709
331.314	21.360	842.168	643.169
332.329	21.380	841.423	642.616
333.343	21.591	841.118	643.104
334.358	21.728	840.858	643.351
335.373	21.669	840.596	642.877
336.387	21.793	839.984	642.804
337.402	21.846	839.514	642.584
338.416	22.043	838.935	642.804
339.431	22.208	838.806	643.253
340.446	22.368	838.148	643.275
341.460	22.306	838.045	642.912
342.475	22.419	837.633	642.952
343.489	22.677	836.730	643.144
344.504	22.701	836.295	642.839
345.519	22.727	835.943	642.609
346.533	22.811	835.315	642.375
347.548	22.568	835.133	641.293
348.562	22.532	833.971	640.212
349.577	22.198	833.029	638.221
350.592	21.941	832.417	636.764
351.606	21.749	831.881	635.600
352.621	21.577	831.293	634.473
353.635	21.767	830.847	634.761
354.650	21.961	830.372	635.046
355.665	21.868	830.143	634.478
356.679	22.033	830.151	635.024
357.694	22.044	829.988	634.882
358.708	22.126	828.942	634.325
359.723	21.998	828.646	633.578
360.738	22.130	827.756	633.318
361.752	22.040	827.406	632.670
362.767	22.099	827.034	632.542
363.781	22.415	826.634	633.318
364.796	22.506	826.438	633.439
365.810	22.570	826.336	633.536
366.825	22.843	825.959	634.169
367.840	22.977	825.911	634.559
368.854	23.054	825.037	634.107
369.869	22.726	824.569	632.515
370.883	22.444	823.735	630.809
371.898	22.532	822.933	630.455
372.913	22.674	822.500	630.573
373.927	22.810	822.105	630.700
374.942	22.697	821.164	629.522
375.956	22.680	820.267	628.717
376.971	22.828	819.848	628.867
377.986	22.912	819.732	629.020
379.000	23.132	819.174	629.320
380.015	23.111	819.012	629.065
381.029	22.980	818.191	627.914
382.044	22.930	817.291	626.991
383.059	22.953	816.786	626.629
384.073	23.037	816.501	626.654
385.088	22.935	815.806	625.703
386.102	22.623	814.884	623.837
387.117	22.551	813.970	622.827
388.132	22.298	814.210	622.061
389.146	22.399	813.228	621.613
390.161	22.314	812.934	621.032
391.175	22.596	812.693	621.787
392.190	22.829	812.731	622.584
393.205	22.987	811.970	622.501
394.219	22.690	811.152	620.777
395.234	22.594	810.630	619.983
396.248	22.370	810.038	618.688
397.263	22.419	809.272	618.219
398.278	22.154	809.033	617.052
399.292	22.174	808.281	616.495
400.307	22.192	807.766	616.109
401.321	22.026	807.486	615.259
402.336	22.105	807.358	615.387
403.350	22.356	806.954	615.900
404.365	22.602	806.506	616.367
405.380	22.860	805.985	616.815
406.394	23.027	805.956	617.322
407.409	23.248	805.770	617.896
408.423	23.165	805.494	617.341
409.438	23.423	804.860	617.699
410.453	23.368	804.439	617.128
411.467	23.376	804.121	616.860
412.482	23.494	803.525	616.755
413.496	23.460	803.135	616.286
414.511	23.735	803.303	617.315
415.526	23.549	802.293	615.839
416.540	23.458	802.040	615.276
417.555	23.269	801.883	614.443
418.569	23.304	801.254	614.026
419.584	23.291	800.251	613.159
420.599	23.410	799.652	613.059
421.613	163.427	1371.029	1797.494
422.628	141.948	1454.280	1797.580
