DTS Sentinel unit serial number:	SN413079Multiplexer serial number:	ORYXHardware model number:	OX4-SRSoftware version number:	ORYX F/W v4.00 Oryx Data Collector v3.7.2.0data status	okinstallation	princeton_trtdifferential loss correction	single-endedforward channel	channel 3reverse channel	N/Adate	2019/09/13time	09:52:34forward acquisition time	60.00reverse acquisition time	0.00gamma	496.2192k internal	0.2325k external	0.2325temperature offset calibration	1.0136default loss term (dB/km)	0.3790temperature slope calibration	1.0000multiplexer offset coefficient	1.0000multiplexer slope coefficient	1.0000fibre end	0.00T internal ref (°C)	30.02T ext. ref 1 (°C)	4.45T ext. ref 2 (°C)	27.14length (m)	temperature (°C)	Stokes	anti-Stokes-747.200	-200.000	-0.007	-0.121
-746.185	277.445	-0.132	0.236
-745.171	394.502	0.019	0.039
-744.156	-139.640	-0.448	-0.048
-743.142	88.891	0.211	-0.237
-742.127	-66.627	-0.526	-0.210
-741.112	-8.977	-0.059	-0.040
-740.098	-159.932	-0.314	0.017
-739.083	21.166	-0.115	0.094
-738.069	-31.116	-0.260	0.148
-737.054	-0.349	-0.160	0.115
-736.039	-94.794	-0.438	0.120
-735.025	-101.268	0.232	-0.057
-734.010	97.743	-0.119	-0.138
-732.996	3.138	0.159	-0.116
-731.981	323.581	0.029	-0.055
-730.966	19.139	0.171	-0.138
-729.952	104.666	-0.262	-0.311
-728.937	-84.479	-0.151	-0.048
-727.923	247.331	-0.253	-0.431
-726.908	-200.000	-0.021	-0.234
-725.894	464.052	-0.114	-0.258
-724.879	-200.000	0.066	-0.321
-723.864	17.696	0.365	-0.292
-722.850	55.559	-0.149	0.146
-721.835	-180.524	0.385	-0.008
-720.821	115.563	-0.117	-0.144
-719.806	800.000	-0.032	-0.097
-718.791	-173.799	-0.470	-0.014
-717.777	-92.158	-0.149	-0.042
-716.762	162.452	-0.032	0.046
-715.748	-200.000	0.034	-0.188
-714.733	3.246	0.130	0.095
-713.718	27.568	-0.104	-0.088
-712.704	-98.066	0.258	0.067
-711.689	239.126	0.083	0.139
-710.675	94.859	-0.072	-0.082
-709.660	-200.000	-0.049	-0.304
-708.645	-200.000	0.067	0.310
-707.631	-200.000	0.050	0.317
-706.616	49.207	-0.213	-0.202
-705.602	-57.671	-0.290	-0.128
-704.587	275.461	0.134	-0.239
-703.572	270.442	-0.049	0.087
-702.558	-80.238	-0.141	-0.047
-701.543	163.823	0.174	-0.247
-700.529	116.515	-0.190	0.235
-699.514	800.000	-0.070	-0.295
-698.499	-79.474	-0.127	0.043
-697.485	-105.657	-0.219	-0.050
-696.470	-78.382	-0.174	0.060
-695.456	800.000	-0.093	-0.261
-694.441	-86.757	0.265	0.082
-693.426	-123.559	0.333	-0.053
-692.412	-142.947	0.312	0.030
-691.397	14.534	-0.174	-0.137
-690.383	-155.633	-0.236	0.015
-689.368	-200.000	0.007	0.326
-688.354	67.254	-0.122	0.125
-687.339	-124.716	-0.257	-0.040
-686.324	-28.955	-0.322	0.186
-685.310	322.858	-0.200	0.383
-684.295	656.817	0.070	0.182
-683.281	-63.213	-0.356	-0.148
-682.266	800.000	0.049	0.168
-681.251	665.437	-0.111	-0.288
-680.237	-129.250	0.129	-0.018
-679.222	674.169	-0.087	-0.228
-678.208	230.290	-0.164	-0.270
-677.193	537.176	-0.081	-0.193
-676.178	-94.046	0.291	-0.080
-675.164	-136.129	0.233	-0.027
-674.149	800.000	0.053	-0.176
-673.135	-85.947	0.201	0.063
-672.120	222.858	-0.124	0.201
-671.105	-83.114	-0.306	0.099
-670.091	533.397	0.027	0.064
-669.076	62.477	0.283	-0.284
-668.062	-200.000	0.034	-0.204
-667.047	111.282	-0.124	-0.150
-666.032	81.409	0.325	-0.353
-665.018	-90.378	0.349	0.102
-664.003	-108.787	0.198	-0.043
-662.989	-84.759	-0.186	-0.059
-661.974	800.000	-0.124	-0.543
-660.959	28.055	0.226	-0.192
-659.945	-155.243	0.116	0.008
-658.930	121.887	-0.113	-0.142
-657.916	-66.148	-0.121	0.049
-656.901	-200.000	0.003	0.197
-655.886	-200.000	-0.033	-0.190
-654.872	55.587	0.297	-0.289
-653.857	447.162	-0.048	-0.107
-652.843	-200.000	-0.007	-0.214
-651.828	800.000	0.075	0.326
-650.814	21.530	-0.204	0.167
-649.799	-34.620	0.296	0.163
-648.784	-200.000	-0.021	-0.163
-647.770	-31.754	-0.111	-0.063
-646.755	-200.000	0.056	0.343
-645.741	-200.000	-0.010	0.148
-644.726	491.586	-0.083	0.192
-643.711	-96.272	-0.255	-0.068
-642.697	243.024	-0.143	0.241
-641.682	-159.918	0.097	-0.005
-640.668	-34.501	0.129	-0.071
-639.653	214.022	0.094	0.149
-638.638	-200.000	-0.022	-0.144
-637.624	-24.054	-0.216	0.130
-636.609	-200.000	-0.023	0.207
-635.595	84.503	-0.210	-0.231
-634.580	800.000	-0.024	0.101
-633.565	-200.000	0.058	-0.334
-632.551	-78.507	-0.063	-0.022
-631.536	63.319	0.117	-0.118
-630.522	144.647	0.132	-0.177
-629.507	184.539	-0.271	0.403
-628.492	800.000	-0.034	-0.106
-627.478	-200.000	0.007	-0.302
-626.463	-150.044	-0.277	-0.022
-625.449	-91.235	0.114	0.033
-624.434	-200.000	0.011	-0.057
-623.419	-165.218	0.509	0.023
-622.405	19.342	0.063	0.051
-621.390	-149.797	-0.273	0.022
-620.376	-153.047	0.237	0.017
-619.361	27.941	-0.202	0.171
-618.346	379.540	-0.061	0.126
-617.332	231.077	0.116	0.191
-616.317	-199.329	0.198	-0.001
-615.303	21.906	0.118	0.096
-614.288	-60.850	-0.130	-0.055
-613.273	154.989	0.021	0.029
-612.259	11.916	-0.159	-0.123
-611.244	800.000	-0.050	0.190
-610.230	-200.000	-0.023	0.123
-609.215	271.270	-0.116	-0.206
-608.201	-51.883	-0.215	0.101
-607.186	399.001	0.178	-0.375
-606.171	-200.000	-0.073	-0.396
-605.157	344.607	0.084	-0.166
-604.142	-200.000	0.010	-0.139
-603.128	-165.122	-0.276	-0.012
-602.113	-28.225	0.144	0.084
-601.098	-129.365	-0.048	-0.007
-600.084	530.697	-0.150	0.355
-599.069	67.993	-0.111	-0.114
-598.055	152.478	0.124	0.170
-597.040	-30.565	0.137	-0.078
-596.025	269.675	0.115	-0.203
-595.011	123.253	-0.200	0.252
-593.996	-200.000	0.002	0.079
-592.982	246.400	-0.172	-0.292
-591.967	233.357	-0.057	-0.095
-590.952	-23.046	-0.241	-0.145
-589.938	-104.695	0.273	0.063
-588.923	800.000	0.043	-0.180
-587.909	445.651	-0.103	0.227
-586.894	800.000	-0.007	-0.027
-585.879	-59.371	-0.294	-0.127
-584.865	14.336	0.124	-0.097
-583.850	-23.171	0.177	0.107
-582.836	-23.759	0.089	0.054
-581.821	162.535	-0.062	0.087
-580.806	-146.211	-0.262	-0.023
-579.792	-33.786	-0.136	-0.075
-578.777	-61.918	-0.088	-0.037
-577.763	202.053	-0.091	0.141
-576.748	-68.247	-0.222	-0.087
-575.733	800.000	-0.119	-0.384
-574.719	62.647	0.125	-0.125
-573.704	800.000	0.125	-0.390
-572.690	800.000	0.063	-0.267
-571.675	800.000	0.059	-0.166
-570.661	-8.763	-0.388	-0.261
-569.646	-113.635	-0.113	-0.022
-568.631	338.117	0.247	-0.482
-567.617	-27.730	-0.106	0.062
-566.602	800.000	-0.065	-0.188
-565.588	731.438	0.123	-0.330
-564.573	800.000	0.124	-0.410
-563.558	-129.840	-0.382	0.053
-562.544	-125.240	0.073	-0.011
-561.529	-200.000	0.017	0.093
-560.515	36.144	-0.158	-0.139
-559.500	-200.000	-0.001	-0.110
-558.485	-74.866	-0.262	0.094
-557.471	-140.940	-0.444	0.046
-556.456	122.444	0.127	0.158
-555.442	-107.629	-0.278	-0.061
-554.427	-77.426	-0.101	0.035
-553.412	170.718	0.071	0.102
-552.398	-200.000	0.011	0.274
-551.383	6.506	0.043	-0.032
-550.369	-36.188	0.212	0.115
-549.354	-5.813	-0.087	0.059
-548.339	-49.744	-0.192	-0.091
-547.325	-128.540	-0.470	0.067
-546.310	18.749	0.307	-0.246
-545.296	-200.000	-0.005	-0.231
-544.281	-110.203	-0.198	-0.041
-543.266	-200.000	-0.012	0.301
-542.252	-79.316	0.079	0.027
-541.237	800.000	-0.102	0.371
-540.223	-142.545	0.106	0.010
-539.208	183.532	0.150	-0.222
-538.193	800.000	-0.098	0.303
-537.179	299.540	0.048	-0.089
-536.164	-200.000	0.004	0.158
-535.150	102.056	0.233	0.272
-534.135	800.000	0.014	-0.052
-533.121	-141.358	0.304	-0.031
-532.106	-200.000	-0.025	0.408
-531.091	-67.228	0.021	-0.008
-530.077	35.042	0.086	0.076
-529.062	800.000	0.104	0.381
-528.048	-100.179	0.322	0.080
-527.033	479.556	-0.171	0.388
-526.018	21.812	-0.082	0.067
-525.004	-200.000	-0.012	0.116
-523.989	-68.831	0.225	-0.087
-522.975	-124.552	0.246	0.038
-521.960	-153.011	-0.349	-0.025
-520.945	-40.813	0.205	0.106
-519.931	100.122	-0.078	-0.090
-518.916	118.735	0.193	-0.238
-517.902	-116.041	-0.107	-0.020
-516.887	70.683	-0.196	-0.203
-515.872	800.000	-0.086	0.330
-514.858	491.688	-0.008	0.018
-513.843	-178.496	-0.161	0.004
-512.829	269.070	0.082	0.144
-511.814	-181.251	0.201	-0.004
-510.799	190.060	-0.084	-0.127
-509.785	-27.119	0.146	-0.085
-508.770	-0.345	0.081	0.058
-507.756	-200.000	0.029	-0.171
-506.741	-42.291	-0.235	-0.120
-505.726	-6.748	0.177	0.120
-504.712	458.947	0.143	-0.317
-503.697	115.161	0.007	-0.009
-502.683	-67.067	-0.098	-0.039
-501.668	297.152	0.077	-0.142
-500.653	-77.401	0.211	-0.073
-499.639	-179.962	0.444	-0.009
-498.624	-104.795	0.093	0.021
-497.610	-32.606	-0.108	0.060
-496.595	-74.183	-0.174	-0.063
-495.581	248.930	0.175	-0.297
-494.566	450.791	-0.099	-0.218
-493.551	279.868	0.093	-0.167
-492.537	-113.163	0.084	0.016
-491.522	357.841	0.082	-0.164
-490.508	-200.000	-0.008	-0.078
-489.493	-146.842	0.157	0.014
-488.478	-200.000	0.074	-0.365
-487.464	453.875	0.041	0.091
-486.449	-193.079	-0.317	-0.003
-485.435	47.472	-0.131	0.122
-484.420	105.892	0.357	0.421
-483.405	-4.762	-0.235	-0.162
-482.391	800.000	0.063	0.255
-481.376	125.911	-0.331	-0.418
-480.362	-27.664	0.046	-0.027
-479.347	223.177	-0.093	-0.149
-478.332	800.000	-0.021	-0.080
-477.318	42.170	-0.167	0.152
-476.303	-40.483	0.242	0.125
-475.289	126.312	0.289	0.365
-474.274	550.038	-0.047	-0.111
-473.259	406.924	0.076	0.160
-472.245	-133.451	-0.218	0.027
-471.230	-200.000	0.010	0.171
-470.216	-6.564	-0.101	0.069
-469.201	1.227	0.148	0.106
-468.186	-139.712	0.179	0.019
-467.172	-61.551	-0.262	0.110
-466.157	78.213	0.201	0.214
-465.143	391.905	-0.064	-0.133
-464.128	-200.000	0.015	0.100
-463.113	-200.000	-0.037	-0.167
-462.099	146.107	-0.232	-0.311
-461.084	-200.000	-0.058	-0.264
-460.070	-143.171	-0.123	0.012
-459.055	-59.114	-0.185	0.080
-458.040	234.187	-0.077	-0.127
-457.026	-9.149	0.165	-0.110
-456.011	-75.880	-0.328	0.116
-454.997	-200.000	-0.022	0.150
-453.982	-62.914	-0.420	0.173
-452.968	-98.956	0.190	-0.048
-451.953	-97.860	0.165	0.042
-450.938	214.349	-0.103	0.163
-449.924	-19.579	0.023	0.014
-448.909	-14.680	0.197	-0.126
-447.895	-61.953	-0.124	-0.052
-446.880	84.137	-0.113	0.123
-445.865	-181.644	0.193	-0.004
-444.851	596.815	0.081	0.199
-443.836	1.329	-0.203	0.145
-442.822	-113.086	0.136	0.027
-441.807	310.706	0.032	-0.060
-440.792	800.000	0.055	0.191
-439.778	-200.000	0.023	0.109
-438.763	-165.519	0.324	-0.014
-437.749	-51.877	0.163	0.076
-436.734	37.172	-0.196	0.173
-435.719	-200.000	0.007	0.139
-434.705	-53.473	0.362	0.165
-433.690	168.151	-0.080	0.113
-432.676	90.873	0.207	0.231
-431.661	-68.573	0.290	-0.112
-430.646	10.548	0.081	0.062
-429.632	-82.284	-0.047	-0.015
-428.617	269.600	-0.077	-0.134
-427.603	83.750	-0.135	-0.147
-426.588	-200.000	0.002	0.162
-425.573	-18.750	0.372	0.231
-424.559	574.126	-0.050	0.121
-423.544	-130.196	-0.285	0.039
-422.530	-91.510	0.142	-0.040
-421.515	-200.000	-0.029	0.156
-420.500	-41.928	0.047	-0.024
-419.486	-200.000	0.015	-0.392
-418.471	738.070	0.059	-0.158
-417.457	130.029	0.209	0.266
-416.442	2.940	-0.145	0.105
-415.428	-112.294	0.334	-0.067
-414.413	89.118	0.135	-0.150
-413.398	-200.000	-0.030	-0.326
-412.384	-200.000	0.051	-0.273
-411.369	-126.604	-0.091	0.013
-410.355	271.743	0.153	0.269
-409.340	212.154	-0.113	-0.177
-408.325	800.000	0.026	0.086
-407.311	-121.400	-0.312	-0.052
-406.296	-200.000	-0.007	-0.149
-405.282	57.293	-0.167	-0.163
-404.267	-155.149	0.036	-0.002
-403.252	-7.168	-0.214	-0.145
-402.238	-181.224	-0.316	0.006
-401.223	-28.728	0.280	0.161
-400.209	-13.486	-0.166	0.107
-399.194	283.416	0.163	-0.292
-398.179	-155.432	0.232	-0.015
-397.165	-6.025	-0.102	-0.069
-396.150	21.323	0.179	-0.145
-395.136	-200.000	0.001	0.021
-394.121	-184.350	-0.471	-0.008
-393.106	-97.319	0.510	0.132
-392.092	-87.133	-0.088	0.027
-391.077	-62.767	0.320	0.132
-390.063	151.321	0.093	-0.126
-389.048	-53.998	0.162	0.073
-388.033	-104.072	0.088	0.020
-387.019	800.000	0.050	-0.203
-386.004	181.960	0.163	0.239
-384.990	800.000	-0.065	-0.269
-383.975	-31.737	0.098	-0.055
-382.960	-116.648	0.432	0.079
-381.946	35.948	-0.152	-0.133
-380.931	-200.000	0.028	-0.171
-379.917	-127.423	0.065	0.009
-378.902	13.421	0.270	0.208
-377.888	800.000	-0.031	-0.109
-376.873	-64.963	0.116	-0.047
-375.858	71.882	-0.100	0.103
-374.844	800.000	0.031	-0.114
-373.829	-7.480	0.316	-0.213
-372.815	178.693	-0.030	-0.043
-371.800	-160.827	-0.330	-0.017
-370.785	-6.430	0.263	-0.178
-369.771	-37.302	0.095	0.050
-368.756	-200.000	-0.006	-0.028
-367.742	-200.000	-0.004	-0.065
-366.727	-200.000	-0.009	-0.304
-365.712	-200.000	-0.005	0.190
-364.698	-200.000	-0.005	0.282
-363.683	-59.127	0.200	0.086
-362.669	90.003	-0.083	-0.093
-361.654	351.761	-0.194	0.383
-360.639	-69.301	-0.223	0.085
-359.625	-156.188	0.211	-0.013
-358.610	-143.186	-0.350	-0.034
-357.596	-70.948	-0.178	-0.067
-356.581	19.076	-0.166	0.133
-355.566	-69.255	-0.139	-0.053
-354.552	-105.749	0.144	0.032
-353.537	144.289	0.071	0.095
-352.523	-2.721	0.252	-0.175
-351.508	-147.239	0.201	-0.017
-350.493	-0.407	-0.189	0.134
-349.479	94.333	-0.231	-0.261
-348.464	-103.170	-0.274	0.064
-347.450	27.990	-0.134	0.113
-346.435	182.980	0.078	-0.114
-345.420	419.826	-0.286	0.608
-344.406	354.982	0.101	-0.199
-343.391	800.000	0.120	-0.395
-342.377	60.362	0.170	0.167
-341.362	167.584	0.091	0.128
-340.348	-59.524	0.128	-0.055
-339.333	-144.583	-0.063	-0.006
-338.318	525.840	-0.042	-0.098
-337.304	-48.394	0.240	0.115
-336.289	643.190	0.035	0.089
-335.275	-163.204	-0.296	0.014
-334.260	-112.998	0.208	0.041
-333.245	-119.607	0.073	-0.013
-332.231	-47.009	0.213	0.103
-331.216	359.904	0.067	0.134
-330.202	324.354	-0.063	0.120
-329.187	129.188	0.148	0.187
-328.172	-83.100	-0.149	-0.048
-327.158	-72.325	0.227	0.083
-326.143	800.000	0.009	0.034
-325.129	249.712	-0.034	0.057
-324.114	-200.000	0.014	-0.230
-323.099	-6.616	0.126	-0.085
-322.085	800.000	-0.128	0.374
-321.070	-182.374	0.138	0.003
-320.056	-87.949	-0.076	-0.023
-319.041	426.738	0.054	-0.115
-318.026	-127.987	-0.294	0.042
-317.012	-150.559	0.133	-0.010
-315.997	35.510	0.257	0.224
-314.983	316.991	0.070	0.132
-313.968	318.312	0.083	-0.156
-312.953	-128.823	-0.459	0.064
-311.939	-2.294	-0.236	-0.164
-310.924	-58.342	-0.080	0.034
-309.910	-200.000	-0.048	-0.284
-308.895	140.468	-0.119	-0.156
-307.880	-200.000	0.020	-0.176
-306.866	-12.898	-0.214	-0.138
-305.851	800.000	0.027	-0.096
-304.837	-30.970	-0.230	0.129
-303.822	-127.797	0.250	0.036
-302.807	-56.539	-0.090	-0.040
-301.793	84.742	-0.357	-0.388
-300.778	33.544	-0.150	-0.129
-299.764	378.075	0.054	0.110
-298.749	155.480	-0.054	-0.074
-297.735	129.850	-0.152	0.193
-296.720	206.236	-0.083	0.128
-295.705	-84.441	-0.194	-0.061
-294.691	-162.222	0.143	-0.007
-293.676	-200.000	0.063	0.407
-292.662	-161.650	0.459	0.023
-291.647	34.032	-0.298	0.257
-290.632	800.000	0.056	0.172
-289.618	169.081	-0.054	0.076
-288.603	-200.000	0.008	0.250
-287.589	-111.903	-0.210	0.042
-286.574	306.716	0.105	-0.194
-285.559	-85.024	0.351	-0.109
-284.545	360.436	0.136	-0.270
-283.530	-85.286	0.217	0.067
-282.516	83.846	-0.237	0.256
-281.501	800.000	0.076	0.247
-280.486	209.051	0.138	0.214
-279.472	-117.964	-0.232	-0.041
-278.457	-177.864	-0.269	0.006
-277.443	32.874	0.290	0.248
-276.428	2.240	-0.059	-0.042
-275.413	-49.326	-0.231	-0.109
-274.399	-73.689	0.187	-0.067
-273.384	654.765	0.059	0.150
-272.370	43.256	0.284	0.257
-271.355	0.361	-0.360	-0.254
-270.340	276.431	-0.139	0.245
-269.326	177.008	0.151	0.217
-268.311	-200.000	0.017	0.083
-267.297	-158.430	-0.212	-0.012
-266.282	-51.539	0.480	-0.222
-265.267	-172.929	0.038	0.001
-264.253	-4.113	0.188	0.129
-263.238	800.000	-0.061	0.224
-262.224	800.000	-0.036	0.124
-261.209	-141.598	-0.270	0.027
-260.195	-8.867	0.111	0.073
-259.180	-200.000	0.031	-0.266
-258.165	-75.751	-0.454	0.159
-257.151	-200.000	-0.045	0.503
-256.136	1.857	0.366	-0.261
-255.122	-133.708	-0.205	0.025
-254.107	244.503	0.010	-0.016
-253.092	261.697	-0.105	0.181
-252.078	-129.594	-0.285	-0.039
-251.063	16.022	0.278	-0.217
-250.049	112.376	0.186	-0.222
-249.034	800.000	-0.025	0.074
-248.019	26.722	-0.189	0.156
-247.005	-25.542	-0.100	0.059
-245.990	800.000	0.079	-0.262
-244.976	-200.000	-0.004	0.323
-243.961	96.242	0.072	-0.081
-242.946	314.803	-0.128	0.239
-241.932	800.000	0.083	0.226
-240.917	-200.000	-0.038	0.197
-239.903	-200.000	0.012	0.057
-238.888	11.880	0.143	-0.109
-237.873	268.637	-0.041	0.071
-236.859	59.238	0.220	0.214
-235.844	-27.126	-0.481	0.278
-234.830	-118.124	0.307	0.054
-233.815	-27.543	0.029	0.017
-232.800	-41.618	0.025	-0.013
-231.786	800.000	0.063	-0.222
-230.771	-7.707	-0.324	-0.216
-229.757	-96.337	-0.134	-0.035
-228.742	800.000	0.056	-0.231
-227.727	-200.000	-0.001	-0.044
-226.713	800.000	0.087	-0.277
-225.698	800.000	0.065	-0.269
-224.684	800.000	-0.114	0.383
-223.669	568.256	0.130	0.312
-222.655	-106.745	0.177	-0.039
-221.640	298.764	0.049	0.090
-220.625	54.732	0.283	-0.270
-219.611	-68.276	-0.470	-0.181
-218.596	5.641	0.226	-0.165
-217.582	-200.000	0.036	-0.218
-216.567	-141.397	-0.207	-0.021
-215.552	-67.316	0.112	-0.044
-214.538	341.252	0.109	-0.211
-213.523	800.000	0.059	-0.181
-212.509	-17.858	0.075	-0.046
-211.494	-82.911	-0.167	0.053
-210.479	-164.794	-0.270	0.012
-209.465	-18.631	0.277	0.171
-208.450	-200.000	0.100	-0.449
-207.436	524.741	-0.079	-0.185
-206.421	412.944	0.120	-0.252
-205.406	-200.000	0.033	0.429
-204.392	14.730	-0.234	-0.181
-203.377	-40.455	0.524	0.269
-202.363	116.467	-0.162	0.196
-201.348	352.412	0.214	-0.419
-200.333	-200.000	-0.058	0.340
-199.319	689.009	0.054	0.138
-198.304	494.891	0.085	-0.194
-197.290	127.328	-0.284	0.356
-196.275	-99.184	0.520	0.130
-195.260	-70.073	-0.195	-0.073
-194.246	184.991	-0.265	0.389
-193.231	-4.053	0.219	0.150
-192.217	800.000	0.065	-0.230
-191.202	159.357	-0.109	-0.149
-190.187	-173.746	-0.207	0.006
-189.173	-36.728	-0.109	-0.058
-188.158	-200.000	0.017	-0.085
-187.144	-200.000	-0.035	0.386
-186.129	0.197	0.124	-0.088
-185.114	-112.362	-0.350	0.069
-184.100	-131.047	-0.199	-0.026
-183.085	10.198	-0.293	-0.220
-182.071	119.379	-0.162	-0.198
-181.056	85.633	-0.102	0.110
-180.042	-200.000	-0.070	0.587
-179.027	227.370	-0.094	0.150
-178.012	-78.828	0.203	-0.068
-176.998	-200.000	0.014	-0.164
-175.983	-200.000	-0.008	-0.134
-174.969	2.667	-0.156	-0.112
-173.954	-55.523	0.139	-0.061
-172.939	19.453	-0.144	0.114
-171.925	618.523	0.071	0.177
-170.910	-200.000	-0.021	-0.345
-169.896	234.971	-0.150	-0.245
-168.881	186.129	0.161	-0.236
-167.866	-59.124	0.051	0.022
-166.852	75.313	0.138	-0.143
-165.837	166.220	0.343	-0.479
-164.823	800.000	-0.095	-0.383
-163.808	-104.863	0.202	-0.046
-162.793	-106.631	0.278	-0.061
-161.779	-133.716	-0.125	-0.015
-160.764	100.292	0.089	-0.102
-159.750	609.893	-0.110	0.270
-158.735	-101.933	0.134	-0.032
-157.720	40.634	-0.238	-0.212
-156.706	-56.527	-0.409	0.179
-155.691	215.754	0.114	-0.178
-154.677	303.940	-0.074	-0.134
-153.662	19.291	0.238	0.189
-152.647	-200.000	0.053	0.239
-151.633	-61.233	0.262	0.109
-150.618	-160.280	-0.237	0.013
-149.604	-113.765	0.182	-0.035
-148.589	-139.148	0.071	0.008
-147.574	549.261	-0.059	0.140
-146.560	184.733	0.072	-0.105
-145.545	-158.918	-0.288	-0.016
-144.531	43.147	0.297	-0.267
-143.516	-23.439	0.214	0.127
-142.502	-121.565	-0.204	-0.033
-141.487	-100.761	-0.295	-0.072
-140.472	-200.000	0.044	0.229
-139.458	-81.014	-0.300	-0.098
-138.443	-158.523	-0.370	-0.021
-137.429	800.000	0.092	-0.290
-136.414	80.376	-0.281	0.298
-135.399	-18.323	0.207	-0.128
-134.385	-200.000	-0.047	-0.239
-133.370	-7.044	-0.232	0.155
-132.356	146.810	-0.097	0.128
-131.341	337.944	0.035	0.067
-130.326	44.034	-0.230	-0.207
-129.312	-163.627	-0.095	0.004
-128.297	-39.172	0.384	-0.199
-127.283	34.114	0.103	-0.088
-126.268	800.000	-0.051	0.160
-125.253	102.399	-0.256	0.295
-124.239	56.772	0.272	0.260
-123.224	-200.000	-0.010	0.107
-122.210	33.267	0.340	0.291
-121.195	-200.000	-0.151	-0.001
-120.180	-83.228	-0.469	-0.148
-119.166	17.032	-0.088	-0.069
-118.151	-200.000	-0.033	-0.286
-117.137	-200.000	0.007	-0.113
-116.122	142.824	0.312	-0.409
-115.107	-147.258	0.110	0.009
-114.093	-166.604	0.149	0.006
-113.078	71.877	-0.294	-0.301
-112.064	621.376	-0.080	-0.199
-111.049	-25.948	0.082	-0.047
-110.034	67.002	-0.049	-0.049
-109.020	-13.835	-0.169	0.108
-108.005	-112.717	0.249	0.049
-106.991	800.000	0.031	-0.097
-105.976	-89.546	0.133	-0.039
-104.962	800.000	-0.065	-0.278
-103.947	768.142	-0.173	-0.463
-102.932	-61.954	-0.013	-0.005
-101.918	9.661	0.069	0.052
-100.903	790.975	0.040	-0.107
-99.889	-10.862	-0.300	0.195
-98.874	61.082	-0.151	-0.148
-97.859	-41.416	0.115	0.058
-96.845	-164.562	0.093	0.004
-95.830	40.910	-0.144	-0.128
-94.816	183.568	-0.057	0.083
-93.801	800.000	0.077	-0.234
-92.786	127.287	0.325	-0.405
-91.772	-200.000	0.010	0.079
-90.757	104.361	0.221	0.256
-89.743	-43.023	0.086	-0.043
-88.728	627.323	0.049	0.123
-87.713	544.789	-0.145	-0.341
-86.699	181.924	-0.163	-0.236
-85.684	-52.893	-0.412	0.186
-84.670	-200.000	-0.003	-0.108
-83.655	24.157	-0.281	0.228
-82.640	-200.000	0.000	-0.339
-81.626	292.975	-0.031	-0.055
-80.611	-200.000	0.004	0.165
-79.597	61.335	-0.097	0.094
-78.582	-100.295	-0.309	-0.075
-77.567	-126.681	0.224	-0.033
-76.553	-200.000	0.020	0.122
-75.538	-27.880	-0.430	0.245
-74.524	800.000	0.030	-0.120
-73.509	-200.000	-0.039	-0.183
-72.494	-200.000	0.037	0.276
-71.480	800.000	-0.046	0.130
-70.465	-200.000	0.000	0.307
-69.451	278.163	-0.051	-0.090
-68.436	-82.104	-0.064	-0.021
-67.422	158.908	0.027	-0.036
-66.407	-78.268	0.106	-0.036
-65.392	2.038	0.088	-0.063
-64.378	-126.574	0.210	-0.031
-63.363	729.118	-0.084	0.220
-62.349	96.654	0.210	-0.237
-61.334	8.615	-1.125	-0.833
-60.319	178.150	0.314	0.450
-59.305	601.076	-0.313	-0.763
-58.290	185.880	0.665	0.972
-57.276	800.000	0.386	1.436
-56.261	-200.000	103.270	574.817
-55.246	515.741	1460.532	3351.290
-54.232	180.853	2664.535	3844.165
-53.217	113.233	2190.348	2609.778
-52.203	40.698	1710.690	1514.748
-51.188	33.013	1519.336	1292.915
-50.173	30.813	1491.827	1254.649
-49.159	50.696	1545.787	1437.031
-48.144	51.845	1562.798	1460.679
-47.130	33.467	1519.761	1296.176
-46.115	30.309	1504.699	1261.849
-45.100	30.070	1501.327	1257.351
-44.086	30.084	1500.006	1256.289
-43.071	29.977	1497.818	1253.679
-42.057	29.926	1495.878	1251.663
-41.042	29.978	1494.863	1251.115
-40.027	30.011	1492.749	1249.519
-39.013	29.981	1491.086	1247.878
-37.998	29.961	1490.279	1247.017
-36.984	30.041	1488.804	1246.268
-35.969	30.009	1487.274	1244.728
-34.954	29.889	1486.465	1243.192
-33.940	30.042	1484.736	1242.722
-32.925	30.051	1482.947	1241.238
-31.911	29.906	1482.400	1239.759
-30.896	30.030	1481.049	1239.409
-29.881	30.143	1479.245	1238.609
-28.867	30.044	1478.165	1236.990
-27.852	30.130	1476.558	1236.171
-26.838	30.090	1475.036	1234.581
-25.823	30.085	1473.711	1233.388
-24.809	30.118	1471.937	1232.077
-23.794	30.078	1470.630	1230.666
-22.779	30.053	1469.436	1229.452
-21.765	30.015	1469.017	1228.805
-20.750	30.059	1467.182	1227.511
-19.736	29.972	1466.620	1226.418
-18.721	29.991	1466.017	1225.991
-17.706	29.953	1464.410	1224.344
-16.692	30.062	1463.183	1223.987
-15.677	30.076	1462.003	1223.045
-14.663	30.042	1461.162	1222.072
-13.648	30.008	1460.456	1221.207
-12.633	30.055	1459.218	1220.434
-11.619	30.008	1458.751	1219.683
-10.604	30.056	1457.340	1218.774
-9.590	29.908	1456.538	1217.078
-8.575	30.042	1456.005	1217.469
-7.560	30.083	1454.440	1216.379
-6.546	29.873	1453.989	1214.577
-5.531	29.917	1453.531	1214.431
-4.517	29.924	1452.005	1213.155
-3.502	29.894	1451.287	1212.311
-2.487	29.997	1449.833	1211.722
-1.473	29.995	1448.860	1210.852
-0.458	29.901	1447.961	1209.432
0.556	31.908	1438.560	1200.043
1.571	28.979	1413.150	1160.299
2.586	25.548	1352.336	1089.523
3.600	23.913	1270.507	1014.190
4.615	22.195	1225.248	968.519
5.629	19.038	1168.711	907.128
6.644	11.433	1085.821	805.324
7.659	5.506	1046.952	748.159
8.673	4.623	1041.582	740.056
9.688	4.483	1038.117	736.861
10.702	4.245	1036.938	734.833
11.717	4.450	1034.849	734.256
12.731	7.148	1037.790	749.056
13.746	15.014	1047.994	793.802
14.761	20.965	1055.395	827.678
15.775	22.145	1056.142	833.796
16.790	21.701	1054.561	830.369
17.804	20.592	1052.562	823.474
18.819	19.763	1050.929	818.203
19.834	19.322	1049.888	815.232
20.848	19.196	1048.856	813.765
21.863	19.114	1047.973	812.618
22.877	19.025	1047.413	811.696
23.892	18.813	1046.927	810.244
24.907	18.667	1046.013	808.780
25.921	18.768	1044.908	808.330
26.936	18.699	1044.372	807.518
27.950	18.686	1043.563	806.759
28.965	18.822	1042.152	806.236
29.980	18.934	1041.009	805.803
30.994	18.899	1040.384	805.085
32.009	19.168	1039.124	805.298
33.023	19.105	1039.056	804.880
34.038	19.060	1037.957	803.747
35.053	19.138	1037.049	803.336
36.067	18.838	1036.102	801.134
37.082	18.764	1035.007	799.871
38.096	18.814	1034.669	799.773
39.111	18.917	1034.153	799.779
40.126	19.109	1032.514	799.336
41.140	18.962	1031.605	797.876
42.155	18.492	1030.463	794.744
43.169	18.432	1029.669	793.785
44.184	18.411	1028.154	792.449
45.199	18.413	1027.010	791.507
46.213	18.442	1026.430	791.125
47.228	18.450	1026.089	790.828
48.242	18.723	1025.046	791.214
49.257	18.704	1024.401	790.556
50.271	18.700	1023.076	789.444
51.286	18.838	1022.329	789.433
52.301	18.940	1021.667	789.322
53.315	18.860	1020.963	788.340
54.330	18.736	1020.379	787.250
55.344	18.661	1019.040	785.807
56.359	18.588	1017.961	784.569
57.374	18.621	1017.145	784.023
58.388	18.528	1016.354	782.919
59.403	18.444	1015.518	781.820
60.417	18.444	1014.831	781.223
61.432	18.407	1014.244	780.533
62.447	18.367	1013.342	779.590
63.461	18.290	1012.701	778.677
64.476	18.181	1011.941	777.526
65.490	18.130	1011.030	776.526
66.505	18.161	1010.089	775.877
67.520	18.132	1009.372	775.128
68.534	18.220	1008.677	774.923
69.549	18.205	1007.609	773.963
70.563	18.203	1006.985	773.407
71.578	18.152	1006.190	772.499
72.593	18.064	1005.373	771.404
73.607	17.895	1004.524	769.925
74.622	17.906	1003.233	768.917
75.636	17.770	1002.499	767.672
76.651	18.028	1001.567	768.051
77.666	17.973	1001.276	767.512
78.680	18.058	1000.108	766.931
79.695	18.017	999.824	766.463
80.709	18.239	999.003	766.762
81.724	18.159	998.645	766.058
82.739	18.505	997.592	766.731
83.753	18.472	997.055	766.102
84.768	18.669	996.610	766.574
85.782	18.985	996.214	767.610
86.797	19.197	995.353	767.826
87.812	19.096	994.848	766.920
88.826	18.986	993.524	765.342
89.841	18.866	993.030	764.358
90.855	18.928	991.904	763.699
91.870	19.027	991.316	763.617
92.884	19.093	990.687	763.361
93.899	19.054	990.306	762.824
94.914	19.174	989.037	762.311
95.928	19.117	988.655	761.695
96.943	19.258	987.812	761.605
97.957	18.990	986.965	759.698
98.972	18.948	985.925	758.646
99.987	18.964	985.074	757.994
101.001	18.967	985.054	757.928
102.016	19.079	983.669	757.288
103.030	18.874	982.905	755.732
104.045	19.201	981.280	755.847
105.060	19.075	980.645	754.740
106.074	18.842	980.330	753.409
107.089	18.731	978.952	751.800
108.103	18.417	978.321	749.871
109.118	18.389	976.485	748.276
110.133	18.191	976.255	747.172
111.147	18.255	975.335	746.676
112.162	18.272	974.066	745.716
113.176	18.305	973.326	745.225
114.191	18.351	972.539	744.759
115.206	18.503	972.002	744.940
116.220	18.466	971.199	744.098
117.235	18.379	970.410	743.050
118.249	18.319	969.454	741.994
119.264	18.287	968.845	741.324
120.279	18.054	967.877	739.507
121.293	18.134	967.015	739.131
122.308	18.192	965.971	738.518
123.322	17.923	965.158	736.669
124.337	17.964	963.961	735.868
125.352	17.964	963.169	735.200
126.366	18.053	962.001	734.625
127.381	18.007	961.101	733.675
128.395	17.941	960.547	732.903
129.410	18.040	959.245	732.268
130.424	18.118	958.161	731.712
131.439	18.163	957.743	731.519
132.454	18.404	956.794	731.759
133.468	18.349	956.332	731.108
134.483	18.376	955.402	730.448
135.497	18.415	955.019	730.257
136.512	18.265	954.943	729.494
137.527	18.344	953.643	728.774
138.541	18.347	953.190	728.372
139.556	18.380	952.248	727.730
140.570	18.398	951.649	727.286
141.585	18.564	950.870	727.327
142.600	18.817	950.264	727.875
143.614	18.841	949.921	727.646
144.629	18.953	948.791	727.191
145.643	18.878	948.844	726.849
146.658	19.027	947.350	726.270
147.673	18.853	946.136	724.541
148.687	18.606	945.413	722.886
149.702	18.449	944.437	721.414
150.716	18.461	943.281	720.516
151.731	18.397	942.621	719.680
152.746	18.538	941.484	719.341
153.760	18.457	941.379	718.853
154.775	18.402	940.791	718.113
155.789	18.582	939.892	718.116
156.804	18.683	939.178	717.928
157.819	18.638	938.405	717.088
158.833	18.657	937.945	716.753
159.848	18.956	937.409	717.527
160.862	18.964	936.699	716.952
161.877	18.965	936.019	716.374
162.892	18.824	934.559	714.608
163.906	18.462	933.890	712.528
164.921	18.373	932.552	711.074
165.935	18.528	931.543	710.881
166.950	18.651	930.623	710.629
167.964	18.576	930.150	709.893
168.979	18.643	928.904	709.156
169.994	18.691	927.819	708.462
171.008	18.509	927.288	707.245
172.023	18.562	926.720	706.966
173.037	18.717	926.088	707.060
174.052	19.040	925.207	707.656
175.067	18.916	924.705	706.699
176.081	18.661	923.459	704.639
177.096	18.412	922.793	703.044
178.110	18.473	921.700	702.402
179.125	18.382	921.436	701.764
180.140	18.469	920.524	701.362
181.154	18.668	919.818	701.576
182.169	18.792	919.006	701.401
183.183	18.834	919.404	701.816
184.198	18.877	918.555	701.281
185.213	18.968	917.599	700.860
186.227	18.979	916.718	700.168
187.242	19.061	916.838	700.530
188.256	18.963	916.164	699.556
189.271	19.145	915.181	699.484
190.286	19.342	914.161	699.441
191.300	19.014	913.656	697.665
192.315	18.557	912.341	694.748
193.329	18.260	911.503	692.845
194.344	18.300	910.809	692.418
195.359	18.483	910.398	692.786
196.373	18.742	909.597	693.159
197.388	18.927	909.559	693.816
198.402	18.964	909.238	693.656
199.417	19.095	909.026	693.961
200.432	19.145	908.740	693.884
201.446	19.228	908.606	694.057
202.461	19.417	908.196	694.440
203.475	19.546	907.370	694.266
204.490	19.512	906.535	693.430
205.504	19.213	905.667	691.505
206.519	19.197	904.445	690.447
207.534	19.062	904.190	689.651
208.548	19.088	903.136	688.888
209.563	19.085	902.319	688.194
210.577	19.115	901.919	687.946
211.592	19.066	901.560	687.417
212.607	19.239	900.798	687.465
213.621	19.383	900.415	687.688
214.636	19.367	899.528	686.887
215.650	19.238	898.947	685.869
216.665	19.373	898.584	686.065
217.680	19.358	897.963	685.470
218.694	19.536	897.591	685.835
219.709	19.363	897.585	685.080
220.723	19.571	896.329	684.887
221.738	19.535	895.831	684.303
222.753	19.385	895.168	683.142
223.767	19.330	894.465	682.330
224.782	19.574	893.336	682.369
225.796	19.536	893.442	682.243
226.811	19.605	892.416	681.670
227.826	19.631	891.733	681.192
228.840	19.675	890.850	680.627
229.855	19.290	890.232	678.579
230.869	19.459	889.477	678.609
231.884	19.277	888.925	677.413
232.899	19.346	888.467	677.276
233.913	19.313	887.401	676.272
234.928	19.121	887.027	675.176
235.942	18.972	886.134	673.854
236.957	19.196	885.045	673.842
237.972	19.026	884.603	672.782
238.986	19.049	884.393	672.649
240.001	19.123	883.545	672.236
241.015	19.124	882.685	671.526
242.030	19.273	881.743	671.328
243.045	19.353	881.826	671.645
244.059	19.467	880.996	671.396
245.074	19.323	880.947	670.741
246.088	19.539	879.758	670.613
247.103	19.577	879.332	670.378
248.117	19.711	879.225	670.756
249.132	19.730	878.838	670.477
250.147	19.932	878.404	670.867
251.161	20.174	877.793	671.281
252.176	20.370	877.130	671.472
253.190	20.264	876.576	670.580
254.205	20.319	875.963	670.262
255.220	20.426	875.425	670.205
256.234	20.441	874.536	669.522
257.249	20.314	874.068	668.618
258.263	20.268	873.880	668.235
259.278	20.165	873.208	667.268
260.293	20.390	872.135	667.252
261.307	20.442	872.161	667.414
262.322	20.234	871.485	666.039
263.336	20.447	870.991	666.418
264.351	20.565	870.370	666.336
265.366	20.556	869.665	665.701
266.380	20.647	868.833	665.356
267.395	20.567	868.093	664.426
268.409	20.329	867.471	662.981
269.424	20.390	866.336	662.287
270.439	20.379	865.889	661.846
271.453	20.293	865.117	660.868
272.468	20.191	864.277	659.779
273.482	20.088	863.773	658.947
274.497	20.034	863.466	658.447
275.512	20.217	862.607	658.429
276.526	20.117	861.901	657.452
277.541	20.242	860.974	657.163
278.555	20.104	861.226	656.774
279.570	20.175	860.790	656.650
280.585	20.471	860.265	657.313
281.599	20.671	859.554	657.467
282.614	20.464	858.470	655.799
283.628	20.398	857.983	655.119
284.643	20.283	857.213	654.041
285.657	20.284	857.049	653.860
286.672	20.371	856.577	653.770
287.687	20.362	855.719	653.023
288.701	20.505	855.208	653.115
289.716	20.387	855.235	652.633
290.730	20.402	854.546	652.106
291.745	20.549	853.472	651.779
292.760	20.356	853.153	650.755
293.774	20.509	852.382	650.682
294.789	20.688	852.061	651.051
295.803	20.648	851.703	650.568
296.818	20.554	851.233	649.801
297.833	20.486	850.138	648.654
298.847	20.324	849.547	647.541
299.862	20.424	848.692	647.204
300.876	20.539	848.214	647.210
301.891	20.597	847.929	647.153
302.906	20.794	847.265	647.319
303.920	20.866	846.881	647.238
304.935	21.034	846.107	647.211
305.949	21.044	845.867	647.009
306.964	21.067	844.982	646.359
307.979	20.820	844.265	644.839
308.993	20.772	843.977	644.386
310.008	21.004	843.201	644.593
311.022	20.993	842.755	644.154
312.037	20.842	841.959	642.933
313.052	20.731	841.563	642.162
314.066	20.587	840.902	641.070
315.081	20.400	840.449	639.978
316.095	20.384	839.820	639.383
317.110	20.459	839.180	639.116
318.125	20.466	838.491	638.561
319.139	20.560	837.954	638.441
320.154	20.416	837.808	637.744
321.168	20.421	837.406	637.401
322.183	20.509	836.821	637.223
323.197	20.679	836.152	637.279
324.212	20.635	835.601	636.641
325.227	20.678	835.083	636.348
326.241	20.743	834.274	635.910
327.256	20.567	834.036	635.031
328.270	20.529	833.468	634.404
329.285	20.634	833.149	634.488
330.300	20.447	832.238	633.057
331.314	20.431	831.541	632.411
332.329	20.571	830.854	632.342
333.343	20.656	830.516	632.338
334.358	20.830	830.612	632.990
335.373	20.894	829.731	632.493
336.387	20.797	829.381	631.817
337.402	21.000	828.510	631.836
338.416	21.059	828.190	631.750
339.431	21.129	827.878	631.709
340.446	21.332	827.179	631.853
341.460	21.468	826.523	631.786
342.475	21.427	825.997	631.181
343.489	21.471	825.750	631.096
344.504	21.417	825.220	630.440
345.519	21.642	824.792	630.870
346.533	21.725	824.341	630.765
347.548	21.613	823.926	629.989
348.562	21.335	823.250	628.417
349.577	21.196	822.745	627.477
350.592	21.116	821.762	626.383
351.606	20.946	821.579	625.579
352.621	20.901	821.149	625.036
353.635	21.079	820.220	624.910
354.650	20.935	820.235	624.351
355.665	21.042	819.632	624.220
356.679	21.252	819.156	624.554
357.694	21.279	818.673	624.224
358.708	21.266	818.433	623.940
359.723	21.179	817.420	622.803
360.738	21.181	817.287	622.653
361.752	21.188	816.808	622.259
362.767	21.413	816.239	622.571
363.781	21.329	816.111	622.119
364.796	21.622	815.375	622.544
365.810	21.586	814.912	622.008
366.825	21.866	814.902	622.941
367.840	22.023	814.816	623.379
368.854	21.951	813.948	622.404
369.869	21.731	813.415	621.161
370.883	21.519	812.957	620.005
371.898	21.513	812.383	619.492
372.913	21.692	811.779	619.607
373.927	21.686	811.454	619.284
374.942	21.775	810.466	618.788
375.956	21.630	809.680	617.624
376.971	21.745	809.423	617.777
377.986	21.966	808.845	618.062
379.000	21.890	808.807	617.709
380.015	22.043	808.429	617.905
381.029	22.094	807.453	617.284
382.044	22.025	806.761	616.457
383.059	22.014	806.206	615.941
384.073	21.942	805.892	615.393
385.088	21.940	805.228	614.826
386.102	21.705	804.533	613.417
387.117	21.611	803.842	612.506
388.132	21.610	803.217	611.973
389.146	21.584	803.044	611.697
390.161	21.723	802.300	611.561
391.175	21.805	802.570	612.000
392.190	21.940	802.074	612.037
393.205	21.817	801.378	611.024
394.219	21.724	800.798	610.204
395.234	21.594	800.380	609.377
396.248	21.604	799.897	608.990
397.263	21.521	799.112	608.052
398.278	21.578	798.627	607.828
399.292	21.376	798.087	606.661
400.307	21.417	797.786	606.520
401.321	21.464	797.036	606.058
402.336	21.538	797.180	606.373
403.350	21.784	796.462	606.625
404.365	21.758	796.208	606.285
405.380	21.834	795.952	606.301
406.394	21.883	795.765	606.274
407.409	22.185	795.281	606.896
408.423	22.324	794.873	607.009
409.438	22.223	794.604	606.402
410.453	22.243	794.204	606.110
411.467	22.396	793.618	606.138
412.482	22.364	793.035	605.529
413.496	22.536	792.579	605.719
414.511	22.624	792.666	606.033
415.526	22.594	792.022	605.384
416.540	22.379	791.842	604.457
417.555	22.342	791.224	603.803
418.569	22.391	790.715	603.531
419.584	22.500	790.044	603.338
420.599	22.553	789.632	603.151
421.613	163.685	1368.290	1797.201
422.628	141.889	1452.603	1797.297
