DTS Sentinel unit serial number:	SN413079Multiplexer serial number:	ORYXHardware model number:	OX4-SRSoftware version number:	ORYX F/W v4.00 Oryx Data Collector v3.7.2.0data status	okinstallation	princeton_trtdifferential loss correction	single-endedforward channel	channel 3reverse channel	N/Adate	2019/09/14time	21:28:34forward acquisition time	60.00reverse acquisition time	0.00gamma	496.2192k internal	0.2318k external	0.2318temperature offset calibration	0.9994default loss term (dB/km)	0.3790temperature slope calibration	1.0000multiplexer offset coefficient	1.0000multiplexer slope coefficient	1.0000fibre end	0.00T internal ref (°C)	32.89T ext. ref 1 (°C)	4.77T ext. ref 2 (°C)	27.74length (m)	temperature (°C)	Stokes	anti-Stokes-747.200	142.209	0.048	-0.064
-746.185	11.827	-0.276	0.214
-745.171	637.708	0.044	0.113
-744.156	24.994	0.100	0.084
-743.142	-103.849	-0.153	0.036
-742.127	800.000	-0.028	0.122
-741.112	-187.916	0.370	0.005
-740.098	800.000	0.039	-0.116
-739.083	800.000	0.089	0.305
-738.069	-200.000	-0.016	0.202
-737.054	-200.000	-0.009	0.141
-736.039	-97.643	0.303	0.079
-735.025	149.653	0.148	-0.203
-734.010	297.695	-0.090	0.168
-732.996	54.470	-0.313	-0.305
-731.981	-8.070	-0.106	-0.073
-730.966	309.455	0.146	0.276
-729.952	-200.000	-0.024	-0.215
-728.937	12.124	0.081	-0.063
-727.923	1.367	-0.234	0.170
-726.908	56.571	-0.308	-0.303
-725.894	800.000	-0.088	-0.344
-724.879	-19.592	-0.158	0.099
-723.864	-111.267	0.238	0.049
-722.850	150.924	-0.111	0.153
-721.835	564.212	-0.150	-0.367
-720.821	-121.851	-0.212	0.035
-719.806	158.964	0.151	0.212
-718.791	800.000	0.085	-0.354
-717.777	-200.000	0.037	-0.328
-716.762	-76.700	0.173	-0.061
-715.748	-98.188	-0.243	0.063
-714.733	-200.000	0.120	-0.599
-713.718	3.673	-0.101	-0.074
-712.704	28.979	0.071	0.061
-711.689	152.767	-0.030	-0.042
-710.675	358.115	0.066	0.133
-709.660	-180.133	-0.277	-0.006
-708.645	168.542	-0.111	-0.161
-707.631	-6.467	0.348	0.240
-706.616	-55.575	-0.391	-0.177
-705.602	-32.644	0.351	-0.197
-704.587	103.278	0.171	-0.202
-703.572	-77.568	-0.190	-0.066
-702.558	-186.666	0.408	-0.006
-701.543	221.938	-0.075	0.121
-700.529	-200.000	-0.046	-0.348
-699.514	-70.379	-0.403	0.154
-698.499	-16.980	-0.081	0.052
-697.485	-40.382	-0.348	-0.183
-696.470	-106.948	0.417	0.093
-695.456	318.738	-0.102	0.195
-694.441	128.220	0.298	-0.383
-693.426	-158.232	0.093	0.006
-692.412	502.980	-0.070	-0.163
-691.397	40.312	-0.239	0.217
-690.383	800.000	-0.081	-0.306
-689.368	-97.105	0.401	-0.106
-688.354	-200.000	-0.022	0.191
-687.339	-145.608	0.402	-0.036
-686.324	-82.804	-0.452	-0.148
-685.310	-110.495	-0.207	0.043
-684.295	-200.000	-0.010	0.293
-683.281	-10.750	-0.162	0.108
-682.266	-59.745	-0.257	0.111
-681.251	800.000	-0.049	-0.201
-680.237	800.000	-0.057	0.211
-679.222	-66.498	-0.241	0.096
-678.208	-100.940	-0.066	0.016
-677.193	766.843	-0.029	-0.080
-676.178	-88.521	-0.280	0.084
-675.164	-21.095	-0.205	-0.126
-674.149	179.067	0.086	-0.126
-673.135	-200.000	0.021	0.097
-672.120	-200.000	0.050	-0.368
-671.105	-129.049	-0.113	0.016
-670.091	-124.138	-0.218	0.035
-669.076	-123.406	0.494	0.080
-668.062	162.490	-0.050	-0.071
-667.047	-81.443	0.203	0.067
-666.032	-141.415	-0.166	-0.017
-665.018	112.042	-0.115	0.140
-664.003	-120.661	-0.127	0.022
-662.989	800.000	0.050	-0.151
-661.974	-50.257	-0.169	-0.080
-660.959	649.166	0.046	-0.119
-659.945	86.597	-0.065	-0.073
-658.930	77.187	0.105	0.113
-657.916	115.118	0.107	0.131
-656.901	185.403	0.081	0.121
-655.886	-200.000	-0.067	0.361
-654.872	136.573	0.024	0.032
-653.857	88.471	0.083	0.093
-652.843	-191.242	0.073	0.001
-651.828	240.468	-0.106	-0.178
-650.814	30.939	0.145	-0.125
-649.799	-200.000	-0.014	-0.082
-648.784	-200.000	0.002	0.052
-647.770	111.808	0.062	0.076
-646.755	7.353	0.273	0.205
-645.741	-71.461	0.113	-0.043
-644.726	-200.000	-0.016	0.203
-643.711	714.584	-0.075	0.201
-642.697	49.246	0.184	0.174
-641.682	-62.754	-0.196	0.082
-640.668	336.199	-0.011	-0.021
-639.653	-89.817	0.031	0.009
-638.638	-200.000	0.004	0.119
-637.624	-104.406	0.123	0.029
-636.609	-63.135	-0.149	-0.062
-635.595	-144.058	0.043	-0.004
-634.580	-108.689	-0.263	-0.057
-633.565	48.986	-0.180	-0.170
-632.551	41.945	0.255	0.233
-631.536	120.201	-0.163	-0.204
-630.522	800.000	0.019	-0.082
-629.507	-200.000	0.026	0.311
-628.492	128.883	-0.224	-0.288
-627.478	-114.118	-0.031	-0.006
-626.463	800.000	-0.064	-0.267
-625.449	-77.212	0.302	-0.106
-624.434	-76.011	0.054	-0.019
-623.419	-200.000	0.002	-0.280
-622.405	-200.000	0.030	-0.150
-621.390	-200.000	0.007	-0.212
-620.376	-107.732	0.273	-0.060
-619.361	198.352	-0.051	-0.078
-618.346	15.470	0.100	-0.079
-617.332	-200.000	0.016	-0.235
-616.317	-174.705	-0.343	0.010
-615.303	800.000	-0.171	-0.489
-614.288	142.798	-0.121	0.161
-613.273	182.119	-0.037	0.056
-612.259	90.770	0.064	0.072
-611.244	245.891	0.089	-0.152
-610.230	44.579	-0.090	-0.083
-609.215	232.485	-0.160	-0.264
-608.201	-200.000	-0.005	0.056
-607.186	20.927	0.216	-0.176
-606.171	-97.507	0.031	-0.008
-605.157	100.999	-0.149	0.174
-604.142	-200.000	0.019	0.180
-603.128	65.892	0.274	-0.279
-602.113	-177.212	-0.220	0.006
-601.098	-101.008	0.398	-0.098
-600.084	-200.000	0.007	-0.282
-599.069	159.373	-0.042	-0.058
-598.055	163.061	-0.155	-0.219
-597.040	145.685	0.116	-0.156
-596.025	-138.251	0.180	0.020
-595.011	160.853	-0.292	-0.411
-593.996	19.451	-0.206	-0.166
-592.982	127.355	-0.118	0.150
-591.967	743.544	-0.092	0.248
-590.952	800.000	-0.045	0.134
-589.938	-42.252	-0.111	-0.057
-588.923	-0.563	-0.047	0.034
-587.909	257.621	-0.082	0.142
-586.894	800.000	-0.114	-0.410
-585.879	-4.373	0.254	-0.177
-584.865	-200.000	0.004	0.278
-583.850	800.000	0.049	0.137
-582.836	-80.369	0.371	-0.125
-581.821	-55.490	0.060	0.027
-580.806	-64.360	-0.256	-0.105
-579.792	800.000	0.040	0.142
-578.777	339.733	-0.077	0.152
-577.763	97.232	-0.171	0.197
-576.748	214.940	-0.224	-0.357
-575.733	-200.000	-0.010	0.142
-574.719	-125.637	-0.102	-0.016
-573.704	21.540	-0.098	0.081
-572.690	-200.000	0.045	0.283
-571.675	186.286	-0.268	-0.400
-570.661	800.000	-0.060	0.190
-569.646	-128.770	-0.291	0.041
-568.631	541.440	0.079	-0.190
-567.617	-101.606	0.121	-0.030
-566.602	14.739	-0.189	-0.149
-565.588	202.235	-0.105	-0.163
-564.573	-3.259	-0.354	0.248
-563.558	351.651	0.074	-0.147
-562.544	-54.530	0.504	-0.229
-561.529	-25.908	0.201	-0.119
-560.515	-119.264	0.094	0.016
-559.500	-200.000	-0.070	-0.315
-558.485	-200.000	-0.053	0.326
-557.471	800.000	0.061	-0.222
-556.456	87.020	0.120	0.134
-555.442	36.847	-0.242	0.215
-554.427	131.877	-0.048	-0.063
-553.412	50.036	-0.071	0.067
-552.398	35.709	0.206	0.182
-551.383	-3.649	0.390	-0.272
-550.369	-122.987	0.179	-0.029
-549.354	664.305	0.051	0.133
-548.339	482.880	-0.078	0.179
-547.325	79.784	0.066	0.071
-546.310	-200.000	-0.021	-0.153
-545.296	-90.366	0.198	0.058
-544.281	-200.000	0.022	-0.237
-543.266	548.952	0.120	0.289
-542.252	-56.447	0.112	-0.050
-541.237	8.882	-0.198	0.150
-540.223	-92.166	0.193	0.055
-539.208	-38.203	-0.203	0.108
-538.193	-44.861	0.024	-0.012
-537.179	32.904	0.127	0.110
-536.164	-59.987	-0.235	0.101
-535.150	300.407	0.026	-0.048
-534.135	-14.787	0.220	-0.142
-533.121	800.000	0.101	0.361
-532.106	-89.060	0.118	0.035
-531.091	-104.874	0.281	-0.065
-530.077	143.256	-0.160	-0.214
-529.062	-200.000	0.001	0.115
-528.048	-200.000	-0.027	-0.185
-527.033	-73.625	-0.380	0.139
-526.018	-200.000	0.025	-0.302
-525.004	-8.199	0.092	-0.062
-523.989	800.000	-0.028	0.108
-522.975	54.001	0.150	0.145
-521.960	386.969	0.138	0.286
-520.945	-70.440	0.332	0.126
-519.931	-62.850	-0.137	-0.057
-518.916	797.078	0.154	0.425
-517.902	796.140	0.057	0.157
-516.887	-142.662	0.159	-0.016
-515.872	-200.000	0.009	0.473
-514.858	-149.141	0.212	0.017
-513.843	800.000	-0.015	0.055
-512.829	-117.717	-0.446	-0.081
-511.814	20.414	0.171	0.139
-510.799	800.000	-0.083	-0.317
-509.785	-96.284	0.242	0.064
-508.770	65.990	0.060	-0.061
-507.756	248.664	0.167	-0.284
-506.741	91.587	0.021	0.024
-505.726	24.410	0.163	0.135
-504.712	-12.497	0.232	0.152
-503.697	330.845	0.053	-0.103
-502.683	44.707	0.264	0.244
-501.668	-200.000	-0.039	-0.228
-500.653	49.698	-0.259	0.245
-499.639	-200.000	-0.009	-0.068
-498.624	92.935	-0.201	0.227
-497.610	-200.000	-0.026	0.181
-496.595	39.498	-0.158	-0.141
-495.581	-87.025	0.199	-0.061
-494.566	34.960	-0.050	0.043
-493.551	-142.645	-0.261	-0.026
-492.537	-10.093	-0.218	0.145
-491.522	-200.000	-0.023	-0.262
-490.508	32.387	-0.087	-0.075
-489.493	380.251	0.233	-0.478
-488.478	-75.103	-0.301	-0.108
-487.464	-156.627	0.262	0.016
-486.449	-86.007	0.178	-0.055
-485.435	-101.018	0.256	0.063
-484.420	182.403	-0.232	0.343
-483.405	-4.174	0.110	0.076
-482.391	-60.486	0.119	-0.051
-481.376	-159.542	-0.187	-0.010
-480.362	214.156	0.069	-0.109
-479.347	37.720	0.069	-0.061
-478.332	508.620	0.086	0.200
-477.318	-200.000	-0.005	0.214
-476.303	84.692	0.125	0.137
-475.289	-75.755	-0.245	0.087
-474.274	92.693	-0.054	-0.062
-473.259	-18.116	-0.208	-0.131
-472.245	-115.380	0.194	-0.037
-471.230	42.871	0.232	0.212
-470.216	429.496	0.092	-0.198
-469.201	-200.000	-0.039	0.304
-468.186	114.919	0.038	-0.046
-467.172	-14.001	0.147	-0.095
-466.157	41.039	-0.175	0.158
-465.143	-58.068	-0.292	0.127
-464.128	800.000	0.016	0.058
-463.113	0.891	0.256	-0.184
-462.099	167.442	0.110	0.156
-461.084	-34.021	-0.075	0.041
-460.070	-87.714	-0.333	0.101
-459.055	-46.890	0.282	-0.138
-458.040	-52.122	-0.123	0.057
-457.026	182.520	-0.191	-0.282
-456.011	800.000	-0.060	0.217
-454.997	-78.636	-0.321	-0.110
-453.982	-15.533	-0.227	0.145
-452.968	270.928	0.097	-0.171
-451.953	260.906	0.093	0.161
-450.938	-200.000	0.022	-0.146
-449.924	223.469	0.121	-0.195
-448.909	800.000	0.083	0.308
-447.895	224.554	0.203	0.328
-446.880	53.154	0.091	0.087
-445.865	-200.000	-0.036	-0.297
-444.851	-119.918	0.113	0.019
-443.836	10.418	0.482	0.367
-442.822	-106.796	-0.114	-0.025
-441.807	-17.854	-0.436	0.273
-440.792	158.376	-0.120	-0.167
-439.778	-33.398	-0.197	-0.109
-438.763	-185.904	-0.382	-0.006
-437.749	-45.830	0.013	-0.007
-436.734	8.913	-0.399	-0.301
-435.719	221.687	-0.130	-0.208
-434.705	-68.122	-0.430	0.168
-433.690	393.427	-0.104	0.217
-432.676	255.776	0.035	-0.060
-431.661	-52.170	-0.182	0.084
-430.646	152.379	-0.257	0.351
-429.632	800.000	0.110	0.378
-428.617	2.948	0.056	-0.041
-427.603	42.867	-0.275	0.251
-426.588	52.829	-0.182	-0.174
-425.573	114.672	-0.204	-0.249
-424.559	-200.000	-0.145	0.000
-423.544	-61.617	0.106	0.045
-422.530	-169.810	-0.510	0.018
-421.515	-76.674	-0.054	-0.019
-420.500	-129.739	0.114	0.016
-419.486	-12.172	-0.290	-0.190
-418.471	340.452	-0.019	0.038
-417.457	-200.000	0.007	0.075
-416.442	-136.996	0.141	0.016
-415.428	-37.274	-0.308	-0.165
-414.413	-33.168	-0.119	-0.066
-413.398	31.861	-0.217	-0.187
-412.384	342.270	-0.165	0.322
-411.369	-200.000	-0.030	-0.136
-410.355	-200.000	-0.014	0.116
-409.340	-6.314	0.147	0.100
-408.325	166.143	0.150	0.213
-407.311	-117.897	0.240	-0.043
-406.296	-32.140	-0.213	0.119
-405.282	-116.650	0.573	-0.105
-404.267	-52.928	0.206	-0.095
-403.252	21.862	-0.165	-0.134
-402.238	331.865	0.085	0.164
-401.223	-111.077	-0.175	0.036
-400.209	-173.651	-0.101	-0.003
-399.194	-95.550	0.230	0.062
-398.179	-129.370	0.315	-0.044
-397.165	306.546	-0.132	-0.246
-396.150	-88.567	-0.224	0.067
-395.136	234.433	-0.047	0.078
-394.121	-101.077	0.216	-0.053
-393.106	607.178	-0.087	-0.217
-392.092	-44.756	-0.199	0.099
-391.077	-142.528	-0.333	-0.033
-390.063	-117.466	0.189	-0.034
-389.048	107.274	0.245	-0.290
-388.033	-24.708	-0.059	0.035
-387.019	154.278	0.209	-0.286
-386.004	-79.340	0.041	0.014
-384.990	36.119	-0.222	0.195
-383.975	-71.246	-0.249	-0.093
-382.960	-200.000	0.090	0.000
-381.946	424.023	0.125	-0.267
-380.931	-33.894	-0.066	-0.036
-379.917	-200.000	0.013	0.174
-378.902	800.000	0.089	-0.280
-377.888	395.462	0.048	-0.101
-376.873	149.360	-0.147	-0.198
-375.858	424.672	-0.020	-0.043
-374.844	-76.194	0.322	-0.113
-373.829	-186.583	0.270	0.004
-372.815	244.998	-0.187	-0.313
-371.800	236.075	-0.224	-0.369
-370.785	515.411	0.046	-0.106
-369.771	161.874	-0.143	-0.200
-368.756	-42.068	0.145	0.074
-367.742	-86.647	0.030	0.009
-366.727	-200.000	0.028	0.244
-365.712	-115.362	0.040	-0.008
-364.698	-121.979	-0.191	-0.031
-363.683	-79.573	-0.336	-0.113
-362.669	752.400	-0.057	-0.153
-361.654	800.000	-0.085	-0.275
-360.639	-34.988	-0.086	0.047
-359.625	136.798	0.133	0.173
-358.610	80.768	-0.111	-0.119
-357.596	798.964	-0.075	0.207
-356.581	162.550	0.113	-0.158
-355.566	22.202	-0.183	-0.149
-354.552	-48.802	0.265	0.127
-353.537	397.875	-0.048	0.100
-352.523	800.000	-0.011	-0.032
-351.508	738.065	-0.046	0.124
-350.493	-56.673	-0.215	-0.095
-349.479	298.336	0.114	0.209
-348.464	61.095	0.222	0.219
-347.450	-115.391	-0.180	0.034
-346.435	87.057	0.081	0.089
-345.420	42.452	0.107	0.097
-344.406	75.033	0.134	-0.141
-343.391	-30.993	-0.091	-0.051
-342.377	800.000	0.024	0.069
-341.362	320.253	0.223	0.422
-340.348	-150.305	0.309	0.024
-339.333	-94.089	-0.249	0.068
-338.318	-200.000	0.027	0.160
-337.304	-200.000	-0.032	-0.209
-336.289	-33.131	-0.088	-0.048
-335.275	-166.585	-0.008	-0.000
-334.260	-74.646	0.305	-0.109
-333.245	-200.000	-0.153	0.682
-332.231	112.655	0.102	0.124
-331.216	800.000	-0.018	0.064
-330.202	39.075	0.233	0.207
-329.187	-79.297	-0.259	-0.088
-328.172	117.820	-0.149	-0.183
-327.158	-56.211	0.203	-0.090
-326.143	-123.606	-0.483	0.076
-325.129	8.354	-0.119	0.089
-324.114	201.089	-0.057	-0.087
-323.099	-48.244	-0.027	-0.013
-322.085	-164.586	0.262	-0.012
-321.070	467.658	-0.125	0.279
-320.056	-89.466	0.093	-0.027
-319.041	117.973	0.020	-0.025
-318.026	296.047	0.124	0.227
-317.012	131.269	-0.094	-0.120
-315.997	-160.990	0.267	-0.014
-314.983	-160.380	-0.249	0.013
-313.968	800.000	-0.071	0.256
-312.953	9.786	0.329	0.248
-311.939	-26.138	0.183	0.107
-310.924	-19.150	0.163	-0.101
-309.910	69.120	0.163	0.167
-308.895	-80.835	0.116	0.038
-307.880	800.000	0.017	0.065
-306.866	-155.866	-0.122	-0.008
-305.851	219.408	-0.011	-0.017
-304.837	170.989	-0.070	0.099
-303.822	-58.404	-0.169	-0.073
-302.807	297.787	0.207	0.379
-301.793	-81.824	0.063	0.021
-300.778	729.886	-0.033	-0.087
-299.764	-200.000	0.021	-0.196
-298.749	800.000	0.037	-0.128
-297.735	17.385	0.123	0.097
-296.720	-85.384	-0.298	-0.092
-295.705	172.031	-0.123	-0.176
-294.691	-200.000	0.011	-0.059
-293.676	126.248	0.217	0.273
-292.662	800.000	0.063	0.212
-291.647	-48.003	-0.179	-0.086
-290.632	72.822	0.073	-0.076
-289.618	193.108	0.182	-0.273
-288.603	-122.641	-0.122	0.020
-287.589	-6.771	-0.236	-0.160
-286.574	-71.032	0.325	-0.122
-285.559	9.690	0.061	-0.046
-284.545	-40.467	0.256	0.132
-283.530	-52.502	-0.150	0.069
-282.516	394.030	-0.020	0.042
-281.501	210.762	-0.167	-0.261
-280.486	125.245	-0.126	-0.158
-279.472	354.963	0.175	-0.346
-278.457	288.858	-0.236	-0.425
-277.443	800.000	-0.007	-0.025
-276.428	119.522	0.323	0.398
-275.413	190.684	0.330	-0.492
-274.399	-113.515	0.307	-0.060
-273.384	10.520	0.349	0.264
-272.370	338.632	0.015	-0.029
-271.355	-99.385	0.068	-0.017
-270.340	-140.445	-0.084	0.009
-269.326	160.349	0.012	-0.017
-268.311	507.757	-0.067	-0.154
-267.297	-132.296	-0.095	0.012
-266.282	-85.174	-0.047	0.014
-265.267	32.929	0.348	0.299
-264.253	-107.641	-0.085	0.018
-263.238	-121.173	0.352	-0.059
-262.224	800.000	0.059	-0.222
-261.209	-200.000	-0.086	-0.405
-260.195	166.025	0.108	0.151
-259.180	-53.263	0.112	-0.051
-258.165	-122.214	0.100	0.016
-257.151	-158.402	0.126	-0.007
-256.136	-200.000	0.038	-0.180
-255.122	-102.380	0.422	0.100
-254.107	800.000	0.034	-0.119
-253.092	-200.000	0.023	-0.120
-252.078	-200.000	-0.009	0.366
-251.063	202.545	0.177	-0.272
-250.049	-200.000	0.057	-0.575
-249.034	90.227	-0.015	0.016
-248.019	13.932	-0.150	0.116
-247.005	32.635	0.198	-0.170
-245.990	190.053	0.128	-0.191
-244.976	-25.266	0.304	0.178
-243.961	127.861	0.169	0.213
-242.946	182.512	-0.201	0.294
-241.932	-191.830	-0.316	0.003
-240.917	22.965	-0.061	-0.049
-239.903	-200.000	0.228	-0.001
-238.888	124.866	-0.230	-0.287
-237.873	-200.000	0.028	0.424
-236.859	-49.507	-0.236	0.112
-235.844	223.028	-0.075	0.119
-234.830	92.568	-0.290	0.324
-233.815	-8.020	-0.111	0.075
-232.800	3.906	-0.272	0.197
-231.786	-200.000	0.012	0.068
-230.771	-200.000	0.070	-0.382
-229.757	388.142	-0.072	0.149
-228.742	800.000	-0.045	0.185
-227.727	230.410	0.034	0.055
-226.713	-200.000	0.035	0.182
-225.698	319.815	0.097	0.182
-224.684	77.019	-0.152	-0.160
-223.669	173.160	0.053	-0.076
-222.655	-1.090	0.007	-0.005
-221.640	9.359	-0.057	-0.043
-220.625	-78.331	0.340	0.116
-219.611	800.000	-0.038	-0.151
-218.596	800.000	0.049	-0.201
-217.582	-54.556	-0.271	0.122
-216.567	-52.054	-0.244	-0.112
-215.552	550.835	0.105	0.251
-214.538	-76.240	-0.163	0.057
-213.523	-146.586	0.190	-0.016
-212.509	612.306	-0.104	0.257
-211.494	-126.109	-0.188	0.028
-210.479	-100.923	-0.219	-0.053
-209.465	800.000	-0.015	-0.050
-208.450	-105.364	0.216	-0.049
-207.436	-200.000	-0.054	-0.249
-206.421	-16.629	0.251	-0.158
-205.406	39.046	0.194	-0.172
-204.392	162.916	0.143	0.198
-203.377	-200.000	-0.023	0.277
-202.363	-88.658	0.048	-0.014
-201.348	-200.000	-0.003	-0.299
-200.333	-5.958	-0.217	-0.147
-199.319	177.667	0.227	-0.328
-198.304	317.122	0.120	-0.225
-197.290	-123.330	0.276	0.044
-196.275	-200.000	0.007	-0.050
-195.260	-31.174	0.380	0.212
-194.246	-200.000	0.035	-0.174
-193.231	-64.760	-0.354	-0.142
-192.217	29.526	0.055	-0.046
-191.202	-29.750	0.315	0.178
-190.187	800.000	-0.019	-0.060
-189.173	-200.000	0.071	0.361
-188.158	48.068	-0.144	-0.133
-187.144	-200.000	0.011	-0.238
-186.129	-58.393	-0.259	0.111
-185.114	76.018	-0.169	0.177
-184.100	179.171	-0.097	-0.140
-183.085	182.091	0.110	0.161
-182.071	-37.023	-0.092	-0.049
-181.056	-5.432	0.229	0.156
-180.042	236.785	0.141	0.232
-179.027	-67.200	0.149	0.058
-178.012	-40.412	-0.331	0.170
-176.998	-150.440	-0.118	-0.009
-175.983	498.257	0.157	-0.357
-174.969	-100.584	0.139	0.034
-173.954	412.763	-0.144	0.304
-172.939	259.823	0.119	0.203
-171.925	615.099	0.115	0.284
-170.910	25.834	-0.123	0.101
-169.896	-0.327	-0.271	0.191
-168.881	-200.000	-0.001	0.110
-167.866	-200.000	0.003	0.025
-166.852	-74.227	0.391	0.140
-165.837	-62.298	0.058	-0.024
-164.823	-59.469	-0.295	0.125
-163.808	-99.964	-0.082	0.020
-162.793	419.752	-0.101	0.214
-161.779	-111.665	-0.159	-0.032
-160.764	314.599	-0.093	-0.174
-159.750	-200.000	-0.052	-0.278
-158.735	-135.989	-0.078	-0.009
-157.720	737.674	-0.134	-0.355
-156.706	-98.037	0.044	-0.011
-155.691	-200.000	-0.013	-0.165
-154.677	126.599	-0.188	-0.236
-153.662	228.357	0.043	-0.070
-152.647	168.973	-0.035	0.049
-151.633	800.000	-0.120	0.342
-150.618	129.964	-0.146	0.185
-149.604	-160.118	-0.298	0.016
-148.589	40.874	-0.283	0.253
-147.574	-100.563	0.319	0.078
-146.560	-114.067	0.286	0.055
-145.545	-69.424	0.186	0.070
-144.531	56.903	-0.229	0.221
-143.516	-56.419	-0.077	-0.034
-142.502	408.161	0.100	0.208
-141.487	800.000	0.043	-0.125
-140.472	-44.380	-0.267	0.132
-139.458	-53.906	-0.283	0.127
-138.443	-200.000	-0.036	0.275
-137.429	33.894	0.134	0.115
-136.414	-66.998	0.223	-0.087
-135.399	-105.451	-0.219	0.049
-134.385	800.000	0.103	-0.400
-133.370	277.389	0.064	0.113
-132.356	173.285	-0.018	-0.026
-131.341	16.891	-0.399	0.312
-130.326	-200.000	0.043	-0.336
-129.312	800.000	-0.039	-0.122
-128.297	51.123	0.116	-0.109
-127.283	-200.000	-0.033	-0.399
-126.268	28.787	-0.168	0.141
-125.253	-35.182	-0.101	-0.054
-124.239	8.233	0.202	0.150
-123.224	-200.000	-0.011	-0.292
-122.210	443.030	-0.063	-0.137
-121.195	250.170	0.062	0.104
-120.180	-200.000	0.019	-0.181
-119.166	-118.480	-0.285	-0.050
-118.151	-12.198	0.272	0.176
-117.137	-1.947	-0.122	0.085
-116.122	-138.614	-0.263	0.028
-115.107	-132.179	0.062	-0.008
-114.093	17.550	0.122	-0.096
-113.078	-200.000	-0.021	0.164
-112.064	174.235	-0.095	-0.135
-111.049	-200.000	-0.101	-0.459
-110.034	306.052	-0.152	0.279
-109.020	167.947	0.196	0.275
-108.005	800.000	-0.059	-0.216
-106.991	-187.330	-0.121	-0.002
-105.976	-200.000	-0.007	0.067
-104.962	-138.659	-0.311	-0.034
-103.947	-196.015	0.080	0.001
-102.932	22.106	-0.028	-0.023
-101.918	-94.294	-0.036	-0.010
-100.903	-93.834	-0.359	0.098
-99.889	800.000	0.041	0.168
-98.874	-41.925	0.147	0.074
-97.859	214.908	0.019	-0.030
-96.845	17.442	-0.224	-0.175
-95.830	-87.407	-0.172	-0.052
-94.816	-150.735	-0.142	-0.011
-93.801	-200.000	-0.016	0.095
-92.786	800.000	0.049	0.201
-91.772	800.000	0.059	0.223
-90.757	27.439	-0.121	-0.100
-89.743	41.648	0.305	-0.273
-88.728	193.226	0.008	-0.013
-87.713	401.544	-0.113	0.234
-86.699	0.965	0.279	-0.197
-85.684	172.621	0.062	-0.089
-84.670	201.533	0.167	0.253
-83.655	-200.000	-0.035	0.399
-82.640	23.328	-0.268	0.217
-81.626	-146.067	-0.055	-0.005
-80.611	71.512	-0.222	0.228
-79.597	-90.478	0.249	-0.071
-78.582	-131.017	-0.316	0.042
-77.567	-110.128	0.173	0.036
-76.553	3.979	0.138	0.100
-75.538	800.000	-0.038	0.127
-74.524	-75.863	0.181	0.063
-73.509	13.451	0.118	-0.090
-72.494	-76.723	-0.165	0.057
-71.480	-200.000	-0.026	0.126
-70.465	800.000	-0.073	-0.242
-69.451	-103.613	0.348	-0.081
-68.436	-66.166	-0.060	-0.024
-67.422	103.605	0.085	0.099
-66.407	151.412	-0.275	0.370
-65.392	-48.780	0.370	-0.175
-64.378	123.392	0.103	0.127
-63.363	-131.619	-0.053	0.007
-62.349	-75.733	-0.305	-0.107
-61.334	11.509	-1.018	-0.769
-60.319	118.145	0.328	0.399
-59.305	556.877	-0.428	-1.017
-58.290	130.684	0.893	1.128
-57.276	530.472	0.584	1.360
-56.261	-200.000	96.149	573.267
-55.246	648.071	1379.145	3473.883
-54.232	198.210	2550.175	3841.435
-53.217	118.553	2163.674	2631.001
-52.203	43.391	1708.873	1538.096
-51.188	36.119	1521.442	1319.787
-50.173	33.714	1495.265	1280.823
-49.159	52.844	1542.978	1453.193
-48.144	54.690	1561.175	1482.931
-47.130	36.286	1520.998	1320.340
-46.115	33.227	1506.324	1286.778
-45.100	32.985	1503.158	1282.380
-44.086	32.950	1501.614	1280.775
-43.071	33.008	1499.350	1279.188
-42.057	32.933	1497.422	1276.980
-41.042	33.037	1496.130	1276.535
-40.027	32.992	1494.674	1274.939
-39.013	32.899	1493.255	1273.050
-37.998	32.933	1492.237	1272.356
-36.984	32.896	1490.873	1270.898
-35.969	32.864	1489.906	1269.804
-34.954	32.919	1488.518	1268.945
-33.940	32.920	1487.134	1267.722
-32.925	32.935	1485.521	1266.392
-31.911	32.894	1484.199	1264.945
-30.896	33.049	1482.622	1264.585
-29.881	33.004	1481.327	1263.127
-28.867	32.951	1479.612	1261.263
-27.852	32.921	1478.785	1260.306
-26.838	32.950	1477.037	1258.959
-25.823	32.965	1475.569	1257.760
-24.809	32.919	1473.941	1256.018
-23.794	32.841	1472.719	1254.409
-22.779	32.898	1471.358	1253.577
-21.765	32.952	1470.029	1252.749
-20.750	32.926	1468.978	1251.638
-19.736	32.937	1468.049	1250.869
-18.721	32.867	1467.206	1249.635
-17.706	32.804	1465.812	1247.984
-16.692	32.833	1464.679	1247.158
-15.677	32.832	1463.855	1246.401
-14.663	32.850	1462.870	1245.631
-13.648	32.848	1461.904	1244.746
-12.633	32.905	1460.913	1244.227
-11.619	32.802	1460.549	1243.193
-10.604	32.870	1459.060	1242.326
-9.590	32.889	1458.081	1241.563
-8.575	32.877	1457.482	1240.924
-7.560	32.860	1456.941	1240.305
-6.546	32.891	1455.493	1239.227
-5.531	32.817	1454.837	1238.135
-4.517	32.756	1454.443	1237.347
-3.502	32.771	1453.277	1236.405
-2.487	32.875	1451.772	1235.755
-1.473	32.839	1450.771	1234.621
-0.458	32.775	1449.668	1233.217
0.556	31.971	1440.353	1222.612
1.571	28.962	1415.288	1181.934
2.586	25.516	1354.625	1109.936
3.600	23.745	1273.757	1033.292
4.615	22.322	1228.956	988.870
5.629	19.205	1172.472	926.597
6.644	11.644	1088.247	822.067
7.659	5.624	1048.486	762.714
8.673	4.800	1043.402	754.956
9.688	4.762	1040.293	752.456
10.702	4.779	1038.263	751.003
11.717	4.738	1036.861	749.726
12.731	6.829	1038.801	761.145
13.746	13.942	1048.875	802.952
14.761	18.994	1055.281	832.292
15.775	18.772	1054.163	830.267
16.790	17.913	1051.381	823.857
17.804	16.651	1049.732	816.410
18.819	15.898	1047.686	811.118
19.834	15.453	1046.249	807.796
20.848	15.070	1045.124	805.013
21.863	14.909	1044.399	803.611
22.877	14.720	1043.631	802.040
23.892	14.625	1042.817	800.888
24.907	14.537	1041.714	799.546
25.921	14.554	1041.062	799.057
26.936	14.500	1040.705	798.455
27.950	14.538	1039.646	797.754
28.965	14.584	1038.676	797.159
29.980	14.591	1037.295	796.062
30.994	14.729	1036.377	795.945
32.009	14.858	1035.500	795.814
33.023	14.929	1034.532	795.336
34.038	14.851	1033.702	794.260
35.053	14.679	1033.115	792.921
36.067	14.731	1031.869	792.142
37.082	14.611	1030.934	790.783
38.096	14.683	1030.292	790.565
39.111	14.647	1029.774	789.923
40.126	14.800	1028.779	789.817
41.140	14.649	1027.409	787.979
42.155	14.568	1026.101	786.526
43.169	14.383	1025.600	785.201
44.184	14.375	1024.491	784.245
45.199	14.297	1023.135	782.769
46.213	14.291	1022.629	782.287
47.228	14.431	1021.516	782.022
48.242	14.524	1020.427	781.554
49.257	14.697	1019.591	781.655
50.271	14.647	1018.606	780.597
51.286	14.682	1017.497	779.842
52.301	14.623	1017.245	779.302
53.315	14.756	1016.059	778.949
54.330	14.500	1015.504	777.259
55.344	14.462	1014.679	776.384
56.359	14.503	1013.562	775.651
57.374	14.442	1012.717	774.652
58.388	14.409	1012.284	774.100
59.403	14.426	1011.066	773.176
60.417	14.313	1010.459	772.120
61.432	14.438	1009.577	771.956
62.447	14.434	1008.796	771.274
63.461	14.399	1007.975	770.417
64.476	14.376	1006.910	769.428
65.490	14.236	1006.357	768.292
66.505	14.345	1005.349	767.958
67.520	14.439	1004.480	767.655
68.534	14.430	1003.750	766.989
69.549	14.382	1002.994	766.123
70.563	14.353	1002.920	765.866
71.578	14.326	1001.801	764.818
72.593	14.337	1000.537	763.838
73.607	14.314	999.599	762.947
74.622	14.245	999.042	762.137
75.636	14.288	997.937	761.426
76.651	14.184	997.474	760.529
77.666	14.290	996.664	760.331
78.680	14.222	995.700	759.216
79.695	14.299	995.425	759.288
80.709	14.358	994.841	759.047
81.724	14.319	994.216	758.323
82.739	14.456	993.288	758.173
83.753	14.605	992.606	758.264
84.768	14.559	992.015	757.536
85.782	14.769	991.278	757.857
86.797	14.848	990.440	757.507
87.812	14.783	989.621	756.520
88.826	14.677	988.837	755.375
89.841	14.620	988.160	754.532
90.855	14.729	987.238	754.256
91.870	14.833	986.467	754.069
92.884	14.750	986.003	753.274
93.899	14.836	984.905	752.755
94.914	14.745	984.448	751.929
95.928	14.799	984.005	751.768
96.943	14.904	982.690	751.165
97.957	14.803	982.052	750.158
98.972	14.792	981.466	749.597
99.987	14.660	980.818	748.442
101.001	14.674	980.102	747.894
102.016	14.574	979.589	746.989
103.030	14.738	978.162	746.566
104.045	14.677	977.392	745.642
105.060	14.738	976.405	745.094
106.074	14.746	975.431	744.322
107.089	14.700	974.606	743.419
108.103	14.509	973.685	741.803
109.118	14.373	972.877	740.518
110.133	14.398	972.179	740.032
111.147	14.377	971.153	739.089
112.162	14.343	970.736	738.557
113.176	14.499	969.262	738.063
114.191	14.473	968.878	737.590
115.206	14.631	968.058	737.599
116.220	14.563	966.927	736.369
117.235	14.572	965.840	735.517
118.249	14.524	965.354	734.871
119.264	14.500	964.411	733.981
120.279	14.368	963.792	732.865
121.293	14.425	963.087	732.516
122.308	14.476	962.314	732.086
123.322	14.425	961.143	730.907
124.337	14.431	960.028	730.022
125.352	14.158	959.445	728.317
126.366	14.270	958.464	728.000
127.381	14.306	957.378	727.267
128.395	14.370	956.019	726.450
129.410	14.349	955.385	725.812
130.424	14.331	954.281	724.828
131.439	14.504	953.501	724.925
132.454	14.428	952.990	724.142
133.468	14.635	951.803	724.075
134.483	14.608	951.284	723.500
135.497	14.495	950.717	722.516
136.512	14.693	949.822	722.626
137.527	14.590	949.100	721.568
138.541	14.426	948.522	720.356
139.556	14.468	947.842	719.958
140.570	14.539	947.383	719.852
141.585	14.660	946.366	719.536
142.600	14.684	946.337	719.555
143.614	14.835	944.988	719.114
144.629	14.889	943.979	718.514
145.643	14.807	943.487	717.724
146.658	14.877	942.363	717.107
147.673	14.710	941.346	715.552
148.687	14.742	940.497	714.984
149.702	14.624	939.518	713.669
150.716	14.565	939.071	713.017
151.731	14.520	938.029	711.969
152.746	14.649	936.849	711.561
153.760	14.645	936.875	711.500
154.775	14.628	935.936	710.651
155.789	14.809	934.729	710.441
156.804	14.762	934.215	709.790
157.819	14.803	933.680	709.492
158.833	14.768	933.252	708.959
159.848	14.812	932.393	708.427
160.862	14.878	932.105	708.425
161.877	14.877	930.907	707.448
162.892	14.776	930.033	706.294
163.906	14.607	929.607	705.194
164.921	14.674	928.364	704.473
165.935	14.735	927.498	704.009
166.950	14.722	926.194	702.902
167.964	14.849	925.524	702.867
168.979	14.874	924.918	702.449
169.994	14.699	923.761	700.773
171.008	14.706	922.950	700.126
172.023	14.812	922.189	699.932
173.037	14.910	921.573	699.812
174.052	15.083	920.579	699.718
175.067	14.923	920.224	698.720
176.081	14.864	919.401	697.785
177.096	14.826	918.388	696.798
178.110	14.636	918.049	695.685
179.125	14.627	917.581	695.231
180.140	14.835	916.206	694.992
181.154	14.899	915.360	694.558
182.169	14.972	915.050	694.563
183.183	14.928	914.445	693.858
184.198	15.039	913.696	693.689
185.213	15.029	912.948	693.021
186.227	15.012	912.632	692.646
187.242	14.977	912.226	692.134
188.256	15.036	911.976	692.125
189.271	15.116	910.763	691.476
190.286	15.248	909.708	691.158
191.300	15.013	909.029	689.611
192.315	14.931	908.036	688.459
193.329	14.735	907.568	687.239
194.344	14.681	907.160	686.644
195.359	14.684	906.616	686.187
196.373	15.025	906.013	687.070
197.388	14.995	905.384	686.408
198.402	15.050	905.031	686.306
199.417	15.177	904.272	686.188
200.432	15.296	903.464	686.001
201.446	15.298	903.481	685.965
202.461	15.381	903.135	685.980
203.475	15.486	902.488	685.856
204.490	15.413	902.121	685.216
205.504	15.322	900.960	683.904
206.519	15.296	900.345	683.273
207.534	15.226	899.575	682.341
208.548	15.238	898.818	681.756
209.563	15.254	897.945	681.099
210.577	15.169	897.768	680.557
211.592	15.267	896.747	680.121
212.607	15.364	896.447	680.225
213.621	15.476	896.017	680.293
214.636	15.356	895.270	679.179
215.650	15.505	894.288	678.979
216.665	15.472	894.070	678.621
217.680	15.490	893.748	678.386
218.694	15.572	893.223	678.262
219.709	15.584	892.272	677.525
220.723	15.558	892.061	677.200
221.738	15.461	891.301	676.174
222.753	15.559	890.479	675.884
223.767	15.598	890.015	675.628
224.782	15.601	889.407	675.119
225.796	15.660	888.249	674.418
226.811	15.621	887.759	673.830
227.826	15.810	886.776	673.783
228.840	15.657	886.344	672.783
229.855	15.549	885.941	671.984
230.869	15.440	885.231	670.949
231.884	15.434	884.311	670.169
232.899	15.517	883.891	670.123
233.913	15.503	883.031	669.356
234.928	15.485	882.248	668.633
235.942	15.401	881.799	667.900
236.957	15.514	880.873	667.589
237.972	15.471	880.114	666.783
238.986	15.508	879.904	666.710
240.001	15.387	879.086	665.553
241.015	15.693	877.845	665.765
242.030	15.570	877.622	665.050
243.045	15.722	876.830	664.992
244.059	15.722	876.217	664.468
245.074	15.752	875.972	664.344
246.088	15.834	875.087	663.936
247.103	15.695	874.984	663.252
248.117	15.771	873.951	662.708
249.132	15.868	873.490	662.684
250.147	16.136	872.595	663.000
251.161	16.147	872.520	662.925
252.176	16.190	871.593	662.331
253.190	16.097	871.009	661.463
254.205	16.245	870.766	661.802
255.220	16.124	870.279	660.898
256.234	16.138	869.488	660.297
257.249	16.268	868.501	659.995
258.263	16.389	868.276	660.239
259.278	16.120	867.905	658.849
260.293	16.298	867.211	658.958
261.307	16.371	866.461	658.615
262.322	16.277	866.382	658.129
263.336	16.471	865.816	658.395
264.351	16.521	864.775	657.740
265.366	16.381	864.047	656.587
266.380	16.391	863.770	656.356
267.395	16.375	863.030	655.672
268.409	16.302	862.142	654.658
269.424	16.407	861.363	654.413
270.439	16.406	860.827	653.944
271.453	16.362	860.000	653.088
272.468	16.350	859.314	652.464
273.482	16.175	858.729	651.284
274.497	16.256	858.064	651.038
275.512	16.367	857.415	650.912
276.526	16.314	856.851	650.223
277.541	16.444	856.122	650.113
278.555	16.353	855.747	649.424
279.570	16.411	855.233	649.199
280.585	16.518	854.637	649.100
281.599	16.687	854.087	649.271
282.614	16.546	853.594	648.297
283.628	16.547	852.549	647.451
284.643	16.534	852.207	647.086
285.657	16.496	851.678	646.482
286.672	16.539	851.284	646.288
287.687	16.453	850.920	645.628
288.701	16.517	850.464	645.469
289.716	16.605	849.580	645.076
290.730	16.435	849.082	643.993
291.745	16.591	848.144	643.817
292.760	16.593	847.528	643.302
293.774	16.626	847.285	643.185
294.789	16.692	846.950	643.123
295.803	16.776	846.068	642.717
296.818	16.741	845.244	641.903
297.833	16.646	844.759	641.115
298.847	16.793	843.917	640.976
299.862	16.759	843.409	640.406
300.876	16.764	842.864	639.952
301.891	16.737	842.233	639.315
302.906	16.847	841.516	639.130
303.920	16.877	840.875	638.699
304.935	16.942	840.262	638.423
305.949	17.035	839.888	638.430
306.964	17.018	839.391	637.933
307.979	16.970	838.516	637.029
308.993	17.019	837.913	636.701
310.008	16.878	837.966	636.155
311.022	17.064	837.215	636.226
312.037	16.995	836.883	635.660
313.052	16.995	836.168	635.060
314.066	16.915	835.171	633.948
315.081	16.897	834.522	633.331
316.095	16.808	834.054	632.588
317.110	16.918	833.662	632.644
318.125	16.931	832.901	632.059
319.139	16.757	833.028	631.451
320.154	16.682	832.373	630.622
321.168	16.908	831.745	630.930
322.183	16.958	830.834	630.367
323.197	16.933	830.674	630.100
324.212	16.877	830.216	629.487
325.227	16.861	829.681	628.965
326.241	16.898	829.188	628.674
327.256	16.926	828.281	628.036
328.270	16.965	827.786	627.749
329.285	16.888	827.303	627.043
330.300	16.927	826.639	626.627
331.314	16.877	826.009	625.909
332.329	17.168	825.274	626.371
333.343	17.170	824.760	625.932
334.358	17.104	824.473	625.418
335.373	17.034	823.925	624.688
336.387	17.127	823.654	624.771
337.402	17.124	823.018	624.220
338.416	17.230	822.139	623.887
339.431	17.291	822.053	623.990
340.446	17.340	821.357	623.589
341.460	17.292	820.856	622.978
342.475	17.399	819.807	622.517
343.489	17.372	819.421	622.071
344.504	17.557	819.062	622.419
345.519	17.538	818.476	621.848
346.533	17.635	818.116	621.873
347.548	17.592	817.933	621.523
348.562	17.529	817.353	620.798
349.577	17.431	816.318	619.598
350.592	17.386	815.911	619.071
351.606	17.379	815.285	618.517
352.621	17.369	814.878	618.116
353.635	17.299	814.431	617.467
354.650	17.493	813.794	617.634
355.665	17.523	813.726	617.636
356.679	17.489	813.088	616.976
357.694	17.591	812.646	616.954
358.708	17.461	812.479	616.303
359.723	17.556	811.472	615.826
360.738	17.397	811.464	615.192
361.752	17.514	810.969	615.184
362.767	17.651	810.265	615.092
363.781	17.623	809.701	614.508
364.796	17.750	809.373	614.661
365.810	17.779	809.163	614.551
366.825	17.778	808.429	613.939
367.840	17.992	808.471	614.684
368.854	17.897	807.931	613.878
369.869	17.966	806.903	613.290
370.883	17.707	806.714	612.162
371.898	17.830	806.345	612.270
372.913	17.771	805.598	611.436
373.927	18.011	804.799	611.637
374.942	17.987	804.339	611.145
375.956	17.851	803.790	610.189
376.971	17.903	803.291	609.942
377.986	18.056	803.002	610.215
379.000	18.042	802.635	609.833
380.015	18.131	802.079	609.675
381.029	18.116	800.924	608.689
382.044	18.033	800.895	608.317
383.059	18.031	800.605	608.036
384.073	18.074	799.722	607.464
385.088	18.152	799.250	607.330
386.102	18.100	798.406	606.451
387.117	17.941	797.987	605.514
388.132	18.181	797.164	605.687
389.146	18.010	796.993	604.899
390.161	17.938	797.064	604.642
391.175	18.128	796.352	604.722
392.190	18.179	796.065	604.628
393.205	18.239	795.196	604.127
394.219	18.022	794.980	603.143
395.234	18.034	794.796	602.995
396.248	18.055	793.983	602.395
397.263	18.046	793.163	601.690
398.278	17.907	793.030	601.045
399.292	17.869	792.594	600.528
400.307	17.870	792.425	600.350
401.321	17.815	792.263	599.984
402.336	18.103	791.436	600.314
403.350	18.063	791.292	600.013
404.365	18.047	790.715	599.465
405.380	18.297	789.755	599.559
406.394	18.250	789.818	599.391
407.409	18.343	789.377	599.327
408.423	18.383	788.831	599.001
409.438	18.472	788.550	599.044
410.453	18.499	787.925	598.612
411.467	18.435	787.849	598.277
412.482	18.601	787.509	598.545
413.496	18.622	786.756	597.994
414.511	18.676	786.423	597.875
415.526	18.576	785.917	597.090
416.540	18.562	785.878	596.958
417.555	18.587	785.273	596.533
418.569	18.520	784.728	595.834
419.584	18.643	784.065	595.704
420.599	18.728	783.668	595.644
421.613	156.322	1369.575	1794.536
422.628	135.016	1454.937	1794.644
