DTS Sentinel unit serial number:	SN413079Multiplexer serial number:	ORYXHardware model number:	OX4-SRSoftware version number:	ORYX F/W v4.00 Oryx Data Collector v3.7.2.0data status	okinstallation	princeton_trtdifferential loss correction	single-endedforward channel	channel 3reverse channel	N/Adate	2019/09/19time	01:12:35forward acquisition time	60.00reverse acquisition time	0.00gamma	496.2192k internal	0.2348k external	0.2348temperature offset calibration	0.9995default loss term (dB/km)	0.3790temperature slope calibration	1.0000multiplexer offset coefficient	1.0000multiplexer slope coefficient	1.0000fibre end	0.00T internal ref (°C)	21.81T ext. ref 1 (°C)	0.71T ext. ref 2 (°C)	15.17length (m)	temperature (°C)	Stokes	anti-Stokes-747.200	800.000	-0.112	-0.344
-746.185	90.787	0.146	0.164
-745.171	152.267	-0.198	0.270
-744.156	58.080	-0.246	0.241
-743.142	3.022	0.214	-0.155
-742.127	-200.000	0.004	0.042
-741.112	-199.518	-0.159	-0.001
-740.098	651.780	-0.114	0.292
-739.083	95.214	0.214	-0.243
-738.069	324.373	0.146	0.278
-737.054	800.000	-0.095	0.396
-736.039	51.562	-0.114	-0.108
-735.025	-9.081	0.284	0.189
-734.010	-123.320	-0.264	0.042
-732.996	-107.622	-0.098	-0.021
-731.981	257.169	0.274	0.470
-730.966	416.194	0.091	0.193
-729.952	98.995	-0.007	-0.008
-728.937	-51.188	-0.198	-0.093
-727.923	-30.437	-0.079	-0.045
-726.908	179.191	-0.272	0.397
-725.894	-121.168	-0.075	-0.013
-724.879	168.383	-0.099	-0.140
-723.864	800.000	-0.021	-0.086
-722.850	800.000	-0.111	-0.392
-721.835	51.341	0.043	0.041
-720.821	-115.184	-0.233	0.044
-719.806	-13.549	-0.306	-0.198
-718.791	277.135	0.075	0.133
-717.777	-200.000	-0.035	-0.263
-716.762	-35.994	0.107	-0.058
-715.748	-117.685	-0.344	0.062
-714.733	-200.000	0.065	-0.298
-713.718	-180.903	-0.285	0.006
-712.704	51.875	-0.315	-0.299
-711.689	-200.000	-0.038	-0.192
-710.675	664.117	-0.064	0.165
-709.660	-103.569	-0.071	0.017
-708.645	-200.000	-0.026	0.146
-707.631	-116.777	0.337	0.062
-706.616	2.152	-0.211	-0.152
-705.602	-32.412	0.129	0.072
-704.587	-136.728	0.252	0.029
-703.572	-78.900	0.317	-0.108
-702.558	-17.155	-0.280	0.176
-701.543	86.467	0.068	-0.074
-700.529	246.008	0.163	-0.274
-699.514	3.165	-0.082	-0.060
-698.499	800.000	-0.123	-0.347
-697.485	-163.809	-0.417	-0.019
-696.470	-148.090	0.150	-0.012
-695.456	643.120	0.097	-0.247
-694.441	8.546	0.099	-0.074
-693.426	-87.359	-0.103	-0.031
-692.412	-140.091	0.156	-0.016
-691.397	-99.601	-0.284	0.071
-690.383	-55.172	-0.053	0.024
-689.368	-130.007	-0.032	0.004
-688.354	-29.808	-0.178	0.101
-687.339	161.280	-0.103	0.143
-686.324	454.379	0.083	0.184
-685.310	-45.513	-0.103	-0.051
-684.295	198.358	0.248	-0.378
-683.281	113.161	-0.139	-0.169
-682.266	126.658	-0.180	0.227
-681.251	-200.000	0.039	-0.228
-680.237	-119.211	-0.211	-0.037
-679.222	-123.828	-0.204	-0.032
-678.208	88.925	0.088	-0.098
-677.193	45.721	0.054	-0.049
-676.178	-21.413	-0.146	0.089
-675.164	-46.862	-0.317	0.154
-674.149	-200.000	-0.358	0.001
-673.135	126.059	0.218	-0.275
-672.120	-85.752	-0.132	0.041
-671.105	271.662	-0.064	-0.113
-670.091	-61.151	0.369	-0.155
-669.076	74.367	-0.250	0.261
-668.062	-107.026	-0.215	-0.047
-667.047	800.000	0.017	-0.066
-666.032	-5.527	0.328	-0.224
-665.018	126.841	-0.199	-0.251
-664.003	29.042	-0.137	0.116
-662.989	-122.593	-0.131	-0.021
-661.974	-150.946	0.336	0.025
-660.959	-130.085	-0.196	-0.027
-659.945	-155.764	0.209	0.013
-658.930	-31.991	-0.397	-0.222
-657.916	-200.000	0.039	0.179
-656.901	800.000	-0.079	0.242
-655.886	-28.804	0.222	-0.127
-654.872	17.242	0.164	0.130
-653.857	111.130	0.109	-0.131
-652.843	-88.651	-0.225	-0.067
-651.828	22.220	0.086	0.070
-650.814	56.816	-0.206	0.200
-649.799	488.322	0.054	0.122
-648.784	60.406	0.131	0.129
-647.770	-108.602	0.183	-0.039
-646.755	800.000	0.053	-0.222
-645.741	400.762	0.043	-0.090
-644.726	-200.000	0.042	0.331
-643.711	-55.772	-0.340	0.151
-642.697	224.375	0.313	0.504
-641.682	180.735	0.141	0.206
-640.668	-31.874	-0.322	0.179
-639.653	-93.979	0.118	0.032
-638.638	218.098	0.110	0.175
-637.624	39.007	0.178	-0.158
-636.609	19.983	0.055	-0.044
-635.595	-200.000	0.028	0.166
-634.580	233.049	0.054	0.088
-633.565	-102.525	0.305	-0.073
-632.551	-45.931	0.325	-0.159
-631.536	62.002	0.167	0.165
-630.522	-200.000	0.012	0.156
-629.507	-200.000	-0.037	0.203
-628.492	190.224	0.113	-0.169
-627.478	-83.844	-0.214	-0.068
-626.463	-200.000	-0.052	0.276
-625.449	259.421	-0.105	0.180
-624.434	97.578	-0.141	-0.161
-623.419	11.955	0.090	0.069
-622.405	-200.000	-0.011	0.154
-621.390	153.163	-0.166	-0.226
-620.376	40.261	0.288	-0.257
-619.361	52.601	-0.196	0.186
-618.346	-121.562	-0.362	0.060
-617.332	-71.284	-0.091	0.034
-616.317	-5.662	-0.302	0.206
-615.303	-44.896	0.175	0.087
-614.288	-200.000	-0.065	0.341
-613.273	268.189	-0.033	0.058
-612.259	320.430	-0.176	-0.332
-611.244	-74.003	0.476	-0.172
-610.230	144.775	0.085	-0.113
-609.215	-17.590	0.005	0.003
-608.201	-69.636	0.413	-0.157
-607.186	177.104	-0.063	0.091
-606.171	475.824	-0.080	0.180
-605.157	-200.000	-0.039	0.174
-604.142	219.431	-0.205	-0.326
-603.128	38.788	-0.107	-0.095
-602.113	-117.465	-0.139	-0.025
-601.098	423.000	0.157	0.334
-600.084	-187.378	-0.203	-0.003
-599.069	105.926	-0.169	0.199
-598.055	-148.542	0.203	0.016
-597.040	405.681	-0.077	-0.161
-596.025	68.682	0.277	0.283
-595.011	-200.000	0.040	0.232
-593.996	518.919	-0.158	-0.366
-592.982	187.063	-0.229	0.339
-591.967	6.728	0.241	-0.178
-590.952	-38.523	-0.220	0.115
-589.938	-55.958	-0.174	-0.077
-588.923	-200.000	-0.063	-0.354
-587.909	57.468	-0.215	0.208
-586.894	-166.044	-0.163	-0.007
-585.879	181.072	-0.076	-0.111
-584.865	-49.566	0.190	-0.090
-583.850	119.252	-0.102	0.126
-582.836	543.939	-0.024	0.057
-581.821	-200.000	0.002	0.312
-580.806	-101.309	0.356	-0.086
-579.792	42.310	0.122	-0.110
-578.777	380.567	-0.080	0.163
-577.763	-56.296	-0.291	-0.128
-576.748	-200.000	0.061	-0.280
-575.733	-200.000	0.031	0.172
-574.719	800.000	-0.088	-0.244
-573.704	342.040	-0.083	-0.162
-572.690	2.337	-0.275	-0.197
-571.675	-200.000	0.028	-0.312
-570.661	-200.000	0.001	-0.015
-569.646	-200.000	0.011	0.101
-568.631	-76.075	0.312	0.109
-567.617	-104.491	-0.106	-0.024
-566.602	300.252	0.093	0.170
-565.588	-200.000	0.037	0.257
-564.573	-74.781	0.314	0.112
-563.558	-104.660	0.220	-0.050
-562.544	36.837	0.156	-0.137
-561.529	800.000	-0.055	-0.197
-560.515	-120.891	-0.236	-0.039
-559.500	767.769	0.102	-0.276
-558.485	-200.000	-0.011	0.255
-557.471	-70.978	-0.286	-0.107
-556.456	-90.165	-0.400	-0.115
-555.442	51.071	0.102	0.096
-554.427	240.618	-0.086	0.142
-553.412	-50.636	-0.334	-0.156
-552.398	18.224	0.128	0.102
-551.383	146.925	-0.319	-0.426
-550.369	-72.164	0.443	0.163
-549.354	3.573	-0.140	0.101
-548.339	60.319	-0.168	0.165
-547.325	123.972	0.078	-0.097
-546.310	-200.000	-0.068	0.432
-545.296	124.733	0.134	0.167
-544.281	-69.008	0.235	0.090
-543.266	54.542	-0.204	0.195
-542.252	420.070	-0.144	0.306
-541.237	-200.000	0.006	0.110
-540.223	136.603	-0.081	-0.104
-539.208	-200.000	0.028	0.285
-538.193	-22.200	-0.249	-0.150
-537.179	243.334	0.181	-0.300
-536.164	36.715	0.134	0.117
-535.150	3.535	-0.161	-0.116
-534.135	-40.705	0.430	-0.221
-533.121	71.463	-0.194	0.200
-532.106	70.585	0.153	-0.157
-531.091	-108.940	-0.413	0.087
-530.077	-39.539	0.165	0.085
-529.062	182.493	0.184	0.269
-528.048	-137.124	-0.271	-0.031
-527.033	76.702	0.090	0.095
-526.018	-84.822	-0.376	-0.117
-525.004	56.672	-0.243	-0.235
-523.989	1.121	0.150	0.106
-522.975	-78.441	-0.210	-0.071
-521.960	-53.933	0.234	-0.106
-520.945	-200.000	0.027	-0.248
-519.931	51.404	-0.026	-0.025
-518.916	-3.696	0.148	-0.102
-517.902	56.874	0.052	-0.050
-516.887	0.933	-0.331	-0.235
-515.872	-200.000	-0.066	-0.354
-514.858	-200.000	0.059	0.287
-513.843	228.291	0.188	-0.303
-512.829	-23.856	0.292	0.173
-511.814	800.000	-0.103	-0.360
-510.799	800.000	-0.061	-0.172
-509.785	800.000	0.084	-0.312
-508.770	402.945	-0.181	-0.376
-507.756	-200.000	0.022	-0.157
-506.741	-200.000	0.036	-0.187
-505.726	238.481	0.258	-0.425
-504.712	-200.000	0.017	-0.361
-503.697	-200.000	-0.012	-0.156
-502.683	-19.451	0.140	-0.086
-501.668	-163.184	-0.083	-0.004
-500.653	800.000	0.026	0.079
-499.639	189.878	0.092	0.137
-498.624	-82.725	-0.148	-0.047
-497.610	569.187	-0.049	-0.118
-496.595	-200.000	-0.018	0.178
-495.581	-200.000	-0.084	0.441
-494.566	-124.730	0.285	-0.044
-493.551	20.890	0.091	0.073
-492.537	800.000	-0.036	0.131
-491.522	800.000	0.089	0.291
-490.508	44.609	-0.035	0.032
-489.493	-200.000	-0.015	-0.091
-488.478	130.458	0.165	0.210
-487.464	-82.000	-0.319	-0.103
-486.449	36.114	-0.103	0.090
-485.435	-44.657	0.108	-0.054
-484.420	-138.942	0.221	-0.024
-483.405	222.180	0.094	-0.149
-482.391	-200.000	0.011	0.208
-481.376	-82.525	-0.204	0.066
-480.362	-77.331	-0.222	-0.076
-479.347	600.419	0.060	-0.148
-478.332	-129.768	-0.154	-0.021
-477.318	-131.761	0.234	0.030
-476.303	102.291	-0.160	-0.185
-475.289	-200.000	0.032	-0.225
-474.274	800.000	-0.028	0.082
-473.259	226.860	-0.057	0.092
-472.245	-7.799	-0.171	0.114
-471.230	-73.060	0.200	0.072
-470.216	800.000	0.030	0.091
-469.201	-65.262	-0.224	0.089
-468.186	-125.654	0.321	-0.048
-467.172	-92.016	-0.313	0.088
-466.157	-59.053	0.074	0.032
-465.143	147.201	0.073	-0.097
-464.128	-64.459	0.294	0.118
-463.113	-121.172	0.233	0.039
-462.099	4.055	0.297	0.214
-461.084	-97.863	-0.386	0.099
-460.070	-200.000	0.093	-0.427
-459.055	-200.000	0.036	-0.453
-458.040	297.897	-0.201	-0.365
-457.026	170.286	0.186	-0.264
-456.011	-77.554	-0.090	-0.031
-454.997	494.231	0.169	0.384
-453.982	-200.000	0.029	-0.343
-452.968	-74.585	-0.170	-0.060
-451.953	35.626	0.407	0.353
-450.938	-85.035	-0.291	-0.090
-449.924	-116.848	0.138	0.025
-448.909	-200.000	-0.007	0.289
-447.895	208.652	-0.210	-0.324
-446.880	-3.172	0.212	-0.146
-445.865	363.474	0.095	0.188
-444.851	50.275	-0.079	-0.073
-443.836	-115.409	-0.159	-0.030
-442.822	800.000	0.049	0.152
-441.807	0.611	0.243	-0.172
-440.792	602.611	0.134	0.329
-439.778	-29.745	-0.097	0.054
-438.763	-13.571	0.170	0.109
-437.749	-132.049	0.227	0.029
-436.734	-200.000	-0.015	0.212
-435.719	-103.503	-0.220	-0.051
-434.705	800.000	-0.066	-0.269
-433.690	6.264	0.357	0.262
-432.676	-45.844	-0.147	-0.071
-431.661	288.751	-0.117	0.209
-430.646	-123.767	-0.088	-0.014
-429.632	-200.000	-0.107	-0.479
-428.617	15.692	0.311	-0.241
-427.603	503.827	-0.046	-0.104
-426.588	-60.276	-0.196	0.082
-425.573	-200.000	-0.037	-0.169
-424.559	-200.000	-0.001	-0.220
-423.544	800.000	-0.125	0.427
-422.530	-200.000	-0.038	-0.276
-421.515	425.669	-0.032	-0.068
-420.500	-66.494	-0.231	0.090
-419.486	295.972	0.107	-0.194
-418.471	800.000	-0.026	-0.082
-417.457	172.487	0.119	-0.169
-416.442	-200.000	0.007	-0.050
-415.428	61.821	0.178	0.175
-414.413	141.969	0.175	-0.229
-413.398	-118.711	0.250	0.043
-412.384	249.600	-0.190	0.318
-411.369	-179.571	0.347	-0.007
-410.355	27.162	-0.388	-0.322
-409.340	-76.785	-0.115	-0.040
-408.325	-92.731	-0.144	-0.040
-407.311	-200.000	0.038	-0.197
-406.296	584.705	0.084	0.204
-405.282	800.000	0.067	-0.290
-404.267	-21.547	-0.278	0.167
-403.252	183.693	0.218	-0.318
-402.238	-43.840	0.113	-0.056
-401.223	800.000	0.175	0.574
-400.209	55.068	0.257	-0.244
-399.194	-200.000	-0.074	-0.432
-398.179	-110.524	-0.137	-0.028
-397.165	-111.863	-0.153	0.030
-396.150	70.372	-0.251	0.256
-395.136	41.069	-0.495	0.441
-394.121	800.000	-0.054	0.202
-393.106	528.650	-0.102	-0.238
-392.092	7.534	-0.185	-0.137
-391.077	-28.491	0.161	-0.091
-390.063	-200.000	0.037	0.174
-389.048	-58.707	0.317	0.135
-388.033	50.113	-0.020	-0.019
-387.019	-200.000	-0.035	0.290
-386.004	373.815	0.148	-0.297
-384.990	-5.149	-0.245	-0.166
-383.975	-172.838	0.060	0.002
-382.960	-154.751	-0.214	-0.014
-381.946	800.000	-0.045	0.170
-380.931	-200.000	-0.013	-0.118
-379.917	-80.686	-0.391	-0.128
-378.902	800.000	0.073	0.261
-377.888	-65.684	0.197	-0.078
-376.873	191.726	-0.199	-0.295
-375.858	302.965	-0.083	0.151
-374.844	-81.681	0.314	0.102
-373.829	-69.026	-0.201	0.076
-372.815	-27.509	0.125	0.072
-371.800	104.452	-0.109	0.127
-370.785	134.593	-0.093	0.119
-369.771	-90.261	-0.146	-0.042
-368.756	-143.283	0.246	0.023
-367.742	-45.187	-0.371	-0.181
-366.727	421.774	0.123	0.260
-365.712	-156.086	-0.235	-0.015
-364.698	-200.000	-0.052	0.275
-363.683	-200.000	-0.025	-0.130
-362.669	209.814	-0.172	0.265
-361.654	-200.000	0.036	-0.156
-360.639	-200.000	-0.019	0.156
-359.625	4.500	0.342	-0.247
-358.610	-200.000	0.033	-0.273
-357.596	111.022	-0.186	0.220
-356.581	-37.320	-0.404	-0.212
-355.566	60.790	-0.144	0.140
-354.552	-161.186	0.283	0.015
-353.537	-200.000	-0.007	-0.269
-352.523	800.000	0.058	-0.213
-351.508	-110.356	-0.148	-0.030
-350.493	-168.841	-0.420	0.016
-349.479	200.363	0.112	-0.169
-348.464	121.299	-0.164	-0.200
-347.450	-54.703	0.372	-0.165
-346.435	-200.000	-0.003	-0.178
-345.420	800.000	-0.058	0.160
-344.406	-141.934	0.257	0.025
-343.391	319.480	0.089	-0.165
-342.377	102.193	-0.192	0.221
-341.362	154.722	0.097	-0.131
-340.348	-200.000	0.028	-0.324
-339.333	-70.068	0.131	0.049
-338.318	-151.287	0.390	0.029
-337.304	-200.000	-0.032	-0.503
-336.289	-21.689	0.192	0.115
-335.275	25.507	0.072	0.059
-334.260	239.621	0.057	-0.093
-333.245	-200.000	0.013	-0.074
-332.231	-67.183	-0.285	-0.110
-331.216	-200.000	0.015	-0.216
-330.202	-200.000	-0.006	-0.262
-329.187	-101.827	-0.106	-0.025
-328.172	150.220	-0.127	0.170
-327.158	800.000	0.036	-0.120
-326.143	26.884	-0.037	0.031
-325.129	-123.188	-0.045	-0.007
-324.114	632.145	-0.043	0.108
-323.099	-200.000	-0.030	0.146
-322.085	-80.848	-0.182	-0.059
-321.070	124.126	-0.049	-0.060
-320.056	-11.776	-0.189	0.122
-319.041	-161.277	0.286	0.015
-318.026	800.000	0.042	0.127
-317.012	-123.647	0.274	-0.043
-315.997	-124.501	0.106	-0.016
-314.983	-20.825	-0.239	0.144
-313.968	-101.584	0.206	-0.049
-312.953	133.137	0.085	-0.108
-311.939	800.000	0.073	-0.208
-310.924	73.712	-0.260	0.267
-309.910	800.000	0.083	0.262
-308.895	-200.000	-0.000	0.183
-307.880	-66.723	0.368	-0.143
-306.866	276.434	-0.153	0.267
-305.851	-200.000	0.031	0.386
-304.837	-12.456	-0.101	0.065
-303.822	51.308	0.257	0.239
-302.807	621.209	0.092	0.228
-301.793	-200.000	-0.029	-0.132
-300.778	-200.000	-0.031	0.154
-299.764	432.070	-0.186	0.397
-298.749	-58.536	0.128	-0.055
-297.735	-98.064	-0.169	-0.043
-296.720	-36.955	0.260	-0.137
-295.705	-14.166	0.198	0.126
-294.691	62.058	-0.186	0.182
-293.676	-103.374	0.274	0.063
-292.662	20.510	0.064	0.051
-291.647	256.143	-0.150	-0.252
-290.632	800.000	-0.114	0.398
-289.618	-55.316	-0.196	0.087
-288.603	-133.769	0.009	0.001
-287.589	800.000	0.090	-0.315
-286.574	-78.060	0.029	-0.010
-285.559	-164.545	0.519	0.023
-284.545	-200.000	0.001	0.213
-283.530	-200.000	-0.014	-0.199
-282.516	-181.616	-0.137	-0.003
-281.501	-200.000	0.016	0.217
-280.486	-39.957	-0.156	-0.080
-279.472	-130.183	-0.137	-0.018
-278.457	-19.023	0.094	0.057
-277.443	-115.944	-0.160	0.029
-276.428	21.034	0.113	0.090
-275.413	-81.948	-0.245	-0.079
-274.399	-71.114	0.190	-0.070
-273.384	326.587	-0.117	0.220
-272.370	-200.000	-0.033	-0.388
-271.355	44.495	-0.139	-0.126
-270.340	800.000	-0.114	0.344
-269.326	-150.705	-0.132	-0.010
-268.311	-91.385	0.146	0.041
-267.297	291.451	0.057	-0.101
-266.282	40.208	0.095	-0.084
-265.267	110.638	0.134	0.158
-264.253	55.108	-0.115	0.109
-263.238	503.780	-0.030	0.067
-262.224	-200.000	0.031	-0.411
-261.209	800.000	0.059	-0.209
-260.195	-118.350	-0.221	0.039
-259.180	430.737	0.015	-0.032
-258.165	150.798	0.170	-0.226
-257.151	-9.385	-0.072	-0.047
-256.136	800.000	-0.083	0.314
-255.122	-99.589	0.076	0.019
-254.107	94.115	0.223	-0.248
-253.092	18.947	-0.297	0.233
-252.078	-28.351	0.346	0.196
-251.063	-200.000	0.061	0.300
-250.049	-200.000	-0.027	0.179
-249.034	71.391	-0.236	-0.240
-248.019	296.462	0.183	-0.330
-247.005	177.810	-0.163	-0.233
-245.990	-149.070	0.257	0.020
-244.976	800.000	-0.118	-0.377
-243.961	257.948	-0.095	0.161
-242.946	800.000	0.059	0.189
-241.932	-73.879	0.155	0.055
-240.917	-175.308	0.183	-0.005
-239.903	-81.640	-0.155	0.050
-238.888	-33.512	0.138	0.075
-237.873	-200.000	0.021	0.143
-236.859	64.156	-0.087	0.086
-235.844	702.906	-0.046	-0.118
-234.830	-200.000	-0.020	0.367
-233.815	118.783	-0.126	-0.152
-232.800	159.746	-0.161	0.219
-231.786	-89.884	-0.273	-0.078
-230.771	-32.628	-0.076	0.042
-229.757	103.906	0.051	0.058
-228.742	-92.662	-0.265	0.073
-227.727	-200.000	-0.001	0.083
-226.713	-200.000	-0.030	0.215
-225.698	-200.000	-0.007	0.087
-224.684	-200.000	0.017	0.174
-223.669	-200.000	0.005	-0.025
-222.655	-200.000	0.016	0.486
-221.640	-83.774	-0.258	-0.081
-220.625	-27.712	0.276	-0.157
-219.611	283.377	-0.087	0.153
-218.596	307.914	-0.027	0.049
-217.582	168.219	-0.134	-0.187
-216.567	-61.230	0.176	-0.072
-215.552	79.055	0.134	0.141
-214.538	-168.688	0.193	-0.007
-213.523	800.000	-0.085	0.235
-212.509	-200.000	0.024	-0.150
-211.494	-200.000	0.025	0.229
-210.479	-22.126	-0.035	-0.021
-209.465	50.619	-0.039	-0.036
-208.450	-54.686	0.297	0.131
-207.436	-3.664	-0.186	-0.126
-206.421	258.869	0.081	-0.136
-205.406	-100.179	0.173	0.042
-204.392	-200.000	-0.011	0.210
-203.377	-82.327	0.185	0.059
-202.363	-200.000	-0.048	0.226
-201.348	265.608	0.143	0.243
-200.333	44.411	-0.049	0.044
-199.319	-118.817	-0.137	0.024
-198.304	60.570	-0.042	-0.041
-197.290	-73.336	0.082	0.029
-196.275	198.836	-0.198	-0.296
-195.260	800.000	0.040	-0.145
-194.246	65.609	-0.128	0.126
-193.231	-159.393	0.107	-0.006
-192.217	-111.012	0.015	-0.003
-191.202	-128.200	0.133	-0.019
-190.187	147.317	0.165	-0.217
-189.173	-100.692	-0.045	-0.011
-188.158	-200.000	-0.013	-0.124
-187.144	-164.290	0.402	-0.018
-186.129	217.362	-0.093	0.145
-185.114	46.343	0.099	0.090
-184.100	11.540	0.099	-0.074
-183.085	-181.844	-0.227	-0.004
-182.071	52.506	-0.161	0.150
-181.056	-139.041	-0.214	-0.023
-180.042	800.000	0.048	0.188
-179.027	-116.971	0.310	0.055
-178.012	-200.000	0.002	0.098
-176.998	-4.886	0.062	0.042
-175.983	117.883	-0.111	-0.133
-174.969	-200.000	-0.002	-0.092
-173.954	267.808	-0.178	-0.304
-172.939	-103.436	0.204	0.047
-171.925	-23.349	-0.162	0.095
-170.910	6.483	0.160	-0.116
-169.896	-88.648	-0.336	0.098
-168.881	800.000	0.026	0.081
-167.866	-200.000	0.086	-0.562
-166.852	186.445	-0.056	-0.082
-165.837	-128.870	0.069	-0.010
-164.823	24.380	-0.353	-0.285
-163.808	-103.301	0.011	-0.003
-162.793	81.230	-0.069	0.072
-161.779	62.510	0.055	0.054
-160.764	144.887	0.187	-0.245
-159.750	-55.400	0.281	0.123
-158.735	-200.000	-0.079	0.419
-157.720	-84.233	0.480	-0.148
-156.706	-65.842	-0.126	0.049
-155.691	-200.000	0.016	-0.118
-154.677	53.121	-0.079	-0.073
-153.662	156.428	0.141	-0.190
-152.647	-200.000	0.004	-0.343
-151.633	493.515	-0.093	0.209
-150.618	-110.495	-0.200	0.040
-149.604	-200.000	0.034	-0.209
-148.589	62.217	0.134	0.130
-147.574	241.976	-0.149	-0.243
-146.560	547.667	0.068	-0.160
-145.545	92.873	0.226	0.250
-144.531	36.482	-0.242	0.208
-143.516	597.623	-0.028	-0.067
-142.502	-137.536	0.168	-0.018
-141.487	-29.056	-0.205	0.115
-140.472	-80.381	0.194	-0.063
-139.458	-200.000	-0.015	-0.269
-138.443	28.884	0.183	0.151
-137.429	-200.000	0.018	-0.136
-136.414	99.028	0.072	0.081
-135.399	164.121	-0.110	0.151
-134.385	-8.318	-0.171	0.112
-133.370	8.900	0.156	-0.115
-132.356	800.000	0.070	0.243
-131.341	800.000	0.024	0.102
-130.326	108.242	-0.106	0.123
-129.312	110.275	0.055	0.065
-128.297	-83.868	0.219	0.068
-127.283	271.793	-0.106	-0.182
-126.268	101.886	-0.164	0.187
-125.253	-200.000	-0.062	0.478
-124.239	167.269	-0.227	-0.315
-123.224	-121.206	-0.067	-0.011
-122.210	214.702	0.108	-0.166
-121.195	800.000	0.024	0.093
-120.180	291.299	-0.146	0.259
-119.166	-69.312	0.279	-0.105
-118.151	240.346	0.104	-0.169
-117.137	-127.894	0.173	-0.024
-116.122	800.000	-0.062	0.238
-115.107	800.000	-0.085	-0.300
-114.093	-92.144	-0.239	-0.066
-113.078	800.000	0.036	-0.139
-112.064	-169.262	0.410	0.015
-111.049	-27.133	-0.203	-0.115
-110.034	800.000	-0.093	0.320
-109.020	248.369	0.030	0.050
-108.005	112.730	-0.104	-0.123
-106.991	165.757	0.197	0.272
-105.976	-123.556	0.360	-0.056
-104.962	3.878	0.080	0.057
-103.947	115.858	0.200	0.239
-102.932	-122.347	-0.175	0.028
-101.918	800.000	-0.023	0.089
-100.903	-200.000	-0.011	-0.076
-99.889	800.000	-0.077	-0.231
-98.874	-18.920	0.151	0.091
-97.859	-14.954	0.235	-0.147
-96.845	264.961	0.041	0.069
-95.830	70.183	-0.163	0.164
-94.816	180.543	-0.155	-0.221
-93.801	412.491	0.055	0.113
-92.786	165.882	-0.189	0.261
-91.772	800.000	-0.025	0.097
-90.757	-200.000	0.007	0.092
-89.743	-42.516	-0.241	0.120
-88.728	41.206	-0.061	-0.053
-87.713	800.000	0.050	0.142
-86.699	-39.599	-0.186	-0.095
-85.684	-51.748	-0.104	-0.047
-84.670	355.929	-0.205	-0.398
-83.655	19.267	-0.336	-0.263
-82.640	382.039	0.082	0.165
-81.626	23.011	0.062	-0.050
-80.611	22.223	-0.165	0.131
-79.597	-200.000	0.001	0.174
-78.582	238.893	0.030	0.048
-77.567	-123.585	-0.178	0.028
-76.553	-200.000	0.030	0.136
-75.538	-152.258	0.159	-0.011
-74.524	-36.641	-0.216	0.113
-73.509	-84.126	-0.046	0.014
-72.494	164.313	-0.248	-0.340
-71.480	258.091	-0.192	0.321
-70.465	312.512	-0.059	0.108
-69.451	800.000	0.044	0.140
-68.436	147.989	-0.107	0.140
-67.422	-183.410	-0.277	-0.005
-66.407	83.888	-0.146	-0.155
-65.392	450.625	-0.105	0.225
-64.378	-191.359	0.244	-0.002
-63.363	-200.000	-0.034	-0.292
-62.349	-123.970	0.355	-0.054
-61.334	20.626	-1.337	-1.052
-60.319	20.746	0.677	0.534
-59.305	800.000	-0.338	-1.262
-58.290	370.305	0.692	1.364
-57.276	800.000	0.555	1.725
-56.261	-200.000	134.523	687.812
-55.246	353.549	1667.682	3219.310
-54.232	134.808	2802.412	3538.216
-53.217	90.732	2191.047	2387.264
-52.203	32.020	1706.458	1430.164
-51.188	24.837	1528.308	1231.579
-50.173	23.123	1505.584	1201.586
-49.159	47.784	1581.163	1435.164
-48.144	44.328	1591.663	1420.529
-47.130	25.013	1539.218	1241.388
-46.115	22.122	1523.728	1208.987
-45.100	21.925	1519.613	1204.322
-44.086	21.930	1517.816	1202.887
-43.071	21.802	1516.380	1200.822
-42.057	21.708	1515.091	1199.112
-41.042	21.677	1513.578	1197.655
-40.027	21.768	1511.622	1196.682
-39.013	21.701	1510.684	1195.432
-37.998	21.735	1509.302	1194.527
-36.984	21.812	1507.827	1193.833
-35.969	21.700	1507.240	1192.556
-34.954	21.718	1505.767	1191.470
-33.940	21.745	1504.069	1190.260
-32.925	21.744	1502.681	1189.108
-31.911	21.789	1501.081	1188.101
-30.896	21.795	1500.404	1187.558
-29.881	21.909	1499.027	1187.193
-28.867	21.753	1497.484	1184.866
-27.852	21.839	1495.790	1184.059
-26.838	21.884	1494.594	1183.373
-25.823	21.848	1492.878	1181.721
-24.809	21.776	1491.609	1180.185
-23.794	21.766	1490.080	1178.861
-22.779	21.922	1488.672	1178.750
-21.765	21.870	1487.724	1177.604
-20.750	21.844	1486.996	1176.808
-19.736	21.796	1485.815	1175.501
-18.721	21.836	1484.843	1174.959
-17.706	21.844	1483.633	1174.008
-16.692	21.793	1482.700	1172.880
-15.677	21.930	1481.225	1172.583
-14.663	21.895	1480.600	1171.804
-13.648	21.804	1479.332	1170.150
-12.633	21.890	1478.251	1169.821
-11.619	21.908	1477.812	1169.547
-10.604	21.915	1476.456	1168.476
-9.590	21.806	1476.730	1167.916
-8.575	21.773	1475.472	1166.655
-7.560	21.852	1474.475	1166.350
-6.546	21.842	1473.629	1165.565
-5.531	21.813	1472.661	1164.564
-4.517	21.846	1471.685	1163.963
-3.502	21.840	1470.404	1162.865
-2.487	21.877	1469.422	1162.288
-1.473	21.822	1468.715	1161.319
-0.458	21.775	1467.784	1160.221
0.556	20.868	1456.935	1148.020
1.571	17.500	1432.944	1107.152
2.586	14.026	1369.668	1036.541
3.600	12.397	1285.033	962.867
4.615	11.422	1241.149	924.381
5.629	10.186	1184.721	875.592
6.644	5.526	1103.764	792.144
7.659	1.344	1069.014	746.604
8.673	0.793	1063.996	740.337
9.688	0.714	1060.951	737.769
10.702	0.677	1059.407	736.450
11.717	0.656	1057.366	734.861
12.731	2.378	1057.465	743.239
13.746	8.060	1064.963	776.180
14.761	14.219	1073.593	812.556
15.775	17.036	1076.786	828.676
16.790	17.034	1075.066	827.266
17.804	16.075	1073.161	821.059
18.819	15.184	1071.575	815.439
19.834	14.796	1069.981	812.269
20.848	14.662	1068.970	810.777
21.863	14.395	1068.405	808.982
22.877	14.090	1067.596	806.818
23.892	14.004	1066.517	805.514
24.907	13.773	1066.186	804.075
25.921	13.727	1065.356	803.152
26.936	13.854	1064.172	802.802
27.950	13.759	1063.997	802.140
28.965	13.957	1062.868	802.175
29.980	13.932	1062.184	801.466
30.994	14.027	1060.747	800.768
32.009	14.032	1060.380	800.449
33.023	14.108	1059.831	800.329
34.038	14.033	1058.893	799.189
35.053	14.053	1057.640	798.268
36.067	14.092	1056.863	797.795
37.082	13.864	1056.540	796.388
38.096	13.977	1055.397	795.997
39.111	14.050	1054.402	795.528
40.126	14.040	1053.563	794.774
41.140	13.845	1053.110	793.432
42.155	13.813	1051.730	792.167
43.169	13.762	1051.240	791.486
44.184	13.832	1049.615	790.526
45.199	13.648	1048.947	789.077
46.213	13.799	1047.706	788.794
47.228	13.817	1046.755	788.094
48.242	13.875	1045.582	787.416
49.257	13.955	1044.553	786.948
50.271	13.758	1044.320	785.770
51.286	13.843	1043.026	785.129
52.301	13.971	1041.962	784.863
53.315	13.857	1041.365	783.806
54.330	13.908	1040.792	783.544
55.344	13.889	1039.418	782.353
56.359	13.826	1038.661	781.417
57.374	13.854	1037.996	780.979
58.388	13.870	1037.388	780.530
59.403	13.835	1036.665	779.753
60.417	13.729	1035.808	778.540
61.432	13.737	1035.158	778.018
62.447	13.762	1034.004	777.202
63.461	13.814	1033.667	777.125
64.476	13.675	1032.487	775.515
65.490	13.782	1031.655	775.325
66.505	13.778	1030.522	774.382
67.520	13.887	1030.032	774.458
68.534	13.731	1029.392	773.178
69.549	13.843	1028.220	772.752
70.563	13.853	1027.972	772.542
71.578	13.711	1027.025	771.103
72.593	13.858	1025.940	770.901
73.607	13.835	1024.931	769.971
74.622	13.849	1023.626	768.985
75.636	13.623	1023.494	767.774
76.651	13.671	1022.410	767.114
77.666	13.717	1021.559	766.619
78.680	13.683	1021.066	766.024
79.695	13.866	1019.968	765.979
80.709	13.667	1019.775	764.846
81.724	13.703	1018.792	764.211
82.739	13.827	1018.110	764.201
83.753	13.971	1016.701	763.736
84.768	13.870	1016.315	762.914
85.782	13.941	1015.447	762.521
86.797	13.961	1014.099	761.532
87.812	14.049	1013.746	761.606
88.826	13.917	1012.769	760.201
89.841	13.906	1012.272	759.708
90.855	13.933	1011.057	758.851
91.870	13.829	1010.788	758.108
92.884	13.964	1009.942	758.025
93.899	14.037	1009.012	757.591
94.914	14.010	1008.266	756.840
95.928	14.030	1007.944	756.625
96.943	14.076	1007.387	756.347
97.957	14.000	1005.909	754.826
98.972	14.019	1005.400	754.464
99.987	14.005	1004.482	753.645
101.001	14.023	1003.743	753.102
102.016	13.984	1003.413	752.612
103.030	14.021	1002.407	751.958
104.045	13.897	1001.682	750.789
105.060	14.212	1000.065	750.931
106.074	14.041	999.263	749.492
107.089	14.056	998.390	748.836
108.103	13.884	997.805	747.559
109.118	13.919	996.836	746.926
110.133	13.841	996.263	746.077
111.147	13.949	995.209	745.706
112.162	13.884	994.313	744.678
113.176	13.954	993.298	744.168
114.191	13.988	992.561	743.703
115.206	13.913	991.745	742.691
116.220	13.925	990.907	742.051
117.235	13.862	990.009	741.028
118.249	13.995	988.926	740.748
119.264	14.003	987.973	740.002
120.279	14.065	987.162	739.607
121.293	13.993	986.375	738.629
122.308	14.053	985.662	738.297
123.322	13.872	985.195	737.077
124.337	14.002	983.965	736.670
125.352	13.910	982.584	735.165
126.366	13.854	981.704	734.193
127.381	13.871	980.599	733.377
128.395	13.904	979.724	732.802
129.410	13.897	978.470	731.767
130.424	13.729	978.336	730.864
131.439	13.949	977.213	730.927
132.454	13.937	976.493	730.271
133.468	13.916	975.663	729.495
134.483	13.867	975.149	728.829
135.497	13.991	973.860	728.345
136.512	13.909	973.505	727.659
137.527	13.986	972.124	726.900
138.541	13.981	971.676	726.477
139.556	14.013	970.765	725.872
140.570	14.185	970.221	726.150
141.585	14.049	969.250	724.768
142.600	14.041	968.939	724.435
143.614	14.088	968.226	724.042
144.629	14.068	967.416	723.287
145.643	14.138	966.729	723.014
146.658	14.136	966.040	722.424
147.673	14.187	964.526	721.450
148.687	14.105	963.806	720.490
149.702	13.999	963.533	719.763
150.716	14.124	962.229	719.269
151.731	14.135	961.374	718.614
152.746	14.046	960.381	717.422
153.760	14.189	960.029	717.714
154.775	14.023	959.254	716.353
155.789	14.159	958.666	716.436
156.804	14.119	957.578	715.389
157.819	14.254	956.902	715.401
158.833	14.148	956.790	714.798
159.848	14.258	955.491	714.236
160.862	14.313	954.985	714.031
161.877	14.331	954.274	713.516
162.892	14.247	953.448	712.474
163.906	14.225	952.603	711.684
164.921	14.279	951.792	711.246
165.935	14.178	950.497	709.785
166.950	14.217	949.686	709.282
167.964	14.259	948.986	708.875
168.979	14.280	947.716	707.952
169.994	14.245	946.868	707.108
171.008	14.246	945.884	706.318
172.023	14.332	945.212	706.117
173.037	14.380	944.457	705.695
174.052	14.497	943.529	705.434
175.067	14.399	942.987	704.552
176.081	14.398	942.592	704.189
177.096	14.264	941.573	702.801
178.110	14.422	940.656	702.720
179.125	14.453	939.645	702.031
180.140	14.307	938.931	700.823
181.154	14.352	938.550	700.666
182.169	14.429	938.132	700.617
183.183	14.428	937.732	700.249
184.198	14.496	936.614	699.638
185.213	14.538	935.535	698.946
186.227	14.459	935.401	698.453
187.242	14.556	934.462	698.098
188.256	14.487	934.177	697.536
189.271	14.548	933.240	697.029
190.286	14.623	932.266	696.551
191.300	14.571	931.245	695.509
192.315	14.393	930.896	694.448
193.329	14.371	930.371	693.900
194.344	14.354	929.522	693.135
195.359	14.436	929.187	693.164
196.373	14.635	928.287	693.259
197.388	14.603	927.862	692.747
198.402	14.626	927.423	692.456
199.417	14.701	926.921	692.328
200.432	14.776	926.253	692.079
201.446	14.816	925.728	691.791
202.461	14.777	925.766	691.598
203.475	14.989	924.673	691.595
204.490	14.866	924.416	690.836
205.504	14.763	923.462	689.638
206.519	14.753	923.011	689.196
207.534	14.879	921.758	688.721
208.548	14.819	921.126	687.939
209.563	14.854	920.600	687.627
210.577	14.785	920.106	686.917
211.592	14.762	919.469	686.287
212.607	14.813	918.999	686.082
213.621	14.974	917.873	685.842
214.636	14.803	917.459	684.773
215.650	14.878	916.779	684.511
216.665	14.960	916.283	684.413
217.680	15.030	915.665	684.179
218.694	15.007	915.137	683.630
219.709	15.014	914.531	683.144
220.723	14.986	913.892	682.491
221.738	15.173	912.937	682.481
222.753	14.909	912.636	681.119
223.767	14.894	912.041	680.555
224.782	15.080	910.684	680.239
225.796	15.078	910.032	679.682
226.811	15.158	909.520	679.564
227.826	15.152	908.923	679.035
228.840	15.096	908.249	678.246
229.855	15.204	907.413	677.998
230.869	15.216	906.650	677.415
231.884	15.126	906.188	676.646
232.899	15.079	905.457	675.853
233.913	15.105	904.612	675.267
234.928	14.978	904.152	674.351
235.942	15.075	903.099	673.898
236.957	15.135	902.854	673.894
237.972	15.102	902.292	673.284
238.986	15.203	901.104	672.743
240.001	15.230	900.788	672.557
241.015	15.162	900.357	671.901
242.030	15.290	899.415	671.653
243.045	15.199	898.664	670.666
244.059	15.261	898.375	670.640
245.074	15.333	897.599	670.290
246.088	15.178	897.281	669.373
247.103	15.379	896.271	669.361
248.117	15.431	895.386	668.852
249.132	15.387	895.073	668.380
250.147	15.424	894.628	668.139
251.161	15.512	894.018	667.974
252.176	15.428	893.394	667.112
253.190	15.599	892.152	666.807
254.205	15.599	892.037	666.662
255.220	15.576	891.406	666.038
256.234	15.717	890.617	665.949
257.249	15.656	889.828	665.058
258.263	15.529	889.853	664.515
259.278	15.743	888.910	664.599
260.293	15.606	888.567	663.743
261.307	15.548	888.340	663.287
262.322	15.730	887.285	663.158
263.336	15.763	886.752	662.829
264.351	15.688	886.036	661.940
265.366	15.784	885.447	661.819
266.380	15.833	885.070	661.671
267.395	15.857	883.969	660.883
268.409	15.840	883.342	660.292
269.424	15.732	882.764	659.376
270.439	15.705	882.332	658.891
271.453	15.831	881.139	658.432
272.468	15.744	880.543	657.592
273.482	15.867	879.531	657.255
274.497	15.986	879.294	657.485
275.512	15.860	878.490	656.336
276.526	15.941	877.350	655.739
277.541	15.870	876.894	655.067
278.555	15.928	876.246	654.748
279.570	15.978	875.807	654.559
280.585	16.025	875.428	654.397
281.599	16.063	874.877	654.075
282.614	15.968	874.383	653.280
283.628	15.965	873.459	652.522
284.643	16.100	872.730	652.439
285.657	16.082	872.440	652.097
286.672	16.042	871.904	651.483
287.687	16.137	871.048	651.152
288.701	16.113	870.676	650.723
289.716	16.126	870.256	650.404
290.730	16.267	869.379	650.234
291.745	16.160	869.127	649.577
292.760	16.209	868.370	649.139
293.774	16.176	867.960	648.648
294.789	16.321	867.314	648.667
295.803	16.100	866.645	647.262
296.818	16.217	865.974	647.151
297.833	16.342	865.169	646.972
298.847	16.237	864.287	645.852
299.862	16.247	863.809	645.475
300.876	16.204	863.305	644.879
301.891	16.388	862.324	644.792
302.906	16.597	861.533	644.940
303.920	16.504	861.048	644.166
304.935	16.373	860.443	643.156
305.949	16.350	860.132	642.779
306.964	16.512	859.332	642.740
307.979	16.374	858.622	641.629
308.993	16.609	858.245	642.182
310.008	16.598	857.661	641.647
311.022	16.560	856.993	640.947
312.037	16.633	856.389	640.715
313.052	16.608	856.194	640.416
314.066	16.587	855.409	639.693
315.081	16.602	854.577	639.070
316.095	16.618	854.146	638.753
317.110	16.607	853.975	638.527
318.125	16.484	853.281	637.490
319.139	16.508	852.763	637.134
320.154	16.526	852.380	636.861
321.168	16.684	851.585	636.803
322.183	16.700	851.136	636.471
323.197	16.484	851.009	635.508
324.212	16.661	850.475	635.718
325.227	16.795	849.390	635.354
326.241	16.635	849.424	634.722
327.256	16.588	848.535	633.826
328.270	16.764	847.887	633.947
329.285	16.687	847.269	633.138
330.300	16.754	846.810	632.990
331.314	16.775	845.877	632.318
332.329	16.699	845.463	631.668
333.343	16.678	844.625	630.906
334.358	16.804	843.931	630.803
335.373	16.870	843.471	630.648
336.387	16.805	843.126	630.094
337.402	16.770	842.994	629.809
338.416	16.737	841.914	628.823
339.431	16.846	841.458	628.831
340.446	16.826	841.159	628.476
341.460	16.924	840.595	628.365
342.475	17.011	839.934	628.135
343.489	17.159	838.946	627.888
344.504	16.867	839.350	627.057
345.519	16.983	838.425	626.738
346.533	17.107	837.792	626.667
347.548	17.024	837.319	625.950
348.562	17.064	836.706	625.585
349.577	17.094	836.216	625.273
350.592	17.129	835.606	624.890
351.606	17.127	835.106	624.455
352.621	17.243	834.459	624.341
353.635	17.011	834.546	623.499
354.650	17.025	834.033	623.110
355.665	17.166	833.801	623.401
356.679	17.037	833.484	622.637
357.694	17.170	832.627	622.427
358.708	17.162	832.019	621.891
359.723	17.139	831.639	621.467
360.738	17.132	831.246	621.092
361.752	17.205	830.516	620.758
362.767	17.185	829.963	620.215
363.781	17.302	829.745	620.427
364.796	17.255	829.056	619.685
365.810	17.304	828.750	619.579
366.825	17.355	828.604	619.602
367.840	17.358	828.026	619.124
368.854	17.361	827.602	618.765
369.869	17.504	827.112	618.863
370.883	17.501	826.169	618.091
371.898	17.453	825.838	617.616
372.913	17.541	825.141	617.359
373.927	17.495	824.593	616.726
374.942	17.489	824.204	616.361
375.956	17.469	823.392	615.626
376.971	17.722	822.446	615.777
377.986	17.569	822.236	615.012
379.000	17.604	821.808	614.766
380.015	17.842	821.051	615.002
381.029	17.659	820.761	614.070
382.044	17.616	820.240	613.474
383.059	17.633	819.474	612.907
384.073	17.713	818.897	612.706
385.088	17.753	818.726	612.671
386.102	17.744	817.940	611.995
387.117	17.696	817.744	611.622
388.132	17.672	817.094	610.997
389.146	17.560	816.875	610.375
390.161	17.778	815.983	610.436
391.175	17.973	815.772	610.922
392.190	17.676	815.911	609.909
393.205	17.884	815.256	610.109
394.219	17.838	814.343	609.206
395.234	17.859	814.010	608.979
396.248	17.756	813.571	608.232
397.263	17.780	812.680	607.594
398.278	17.868	812.563	607.768
399.292	17.684	812.065	606.688
400.307	17.793	811.864	606.870
401.321	17.813	811.573	606.670
402.336	17.818	811.107	606.288
403.350	17.613	810.693	605.194
404.365	17.806	810.091	605.376
405.380	17.838	809.557	605.038
406.394	18.011	808.733	604.982
407.409	17.848	808.904	604.479
408.423	17.992	808.362	604.529
409.438	17.992	807.903	604.133
410.453	18.085	807.842	604.363
411.467	18.143	806.916	603.821
412.482	18.007	806.755	603.168
413.496	18.082	805.741	602.619
414.511	18.201	805.821	603.046
415.526	18.077	805.288	602.158
416.540	18.292	804.181	602.030
417.555	18.312	804.189	602.056
418.569	18.167	803.970	601.328
419.584	18.170	803.596	601.004
420.599	18.187	802.934	600.518
421.613	116.233	1298.792	1491.435
422.628	100.417	1370.976	1491.504
