DTS Sentinel unit serial number:	SN413079Multiplexer serial number:	ORYXHardware model number:	OX4-SRSoftware version number:	ORYX F/W v4.00 Oryx Data Collector v3.7.2.0data status	okinstallation	princeton_trtdifferential loss correction	single-endedforward channel	channel 3reverse channel	N/Adate	2019/09/12time	11:34:11forward acquisition time	60.00reverse acquisition time	0.00gamma	496.2192k internal	0.2294k external	0.2294temperature offset calibration	1.0041default loss term (dB/km)	0.3790temperature slope calibration	1.0000multiplexer offset coefficient	1.0000multiplexer slope coefficient	1.0000fibre end	0.00T internal ref (°C)	39.44T ext. ref 1 (°C)	1.98T ext. ref 2 (°C)	36.49length (m)	temperature (°C)	Stokes	anti-Stokes-747.200	-200.000	-0.015	0.119
-746.185	-200.000	-0.051	0.236
-745.171	-92.151	0.286	0.083
-744.156	800.000	-0.052	0.168
-743.142	-128.045	0.147	0.021
-742.127	600.333	-0.046	0.117
-741.112	-157.705	-0.310	-0.019
-740.098	15.687	0.246	0.198
-739.083	31.659	-0.201	-0.177
-738.069	218.728	0.346	0.565
-737.054	-84.988	0.143	-0.046
-736.039	300.964	-0.257	0.486
-735.025	800.000	0.017	-0.054
-734.010	-141.263	-0.337	-0.035
-732.996	-200.000	0.005	-0.199
-731.981	69.944	0.150	-0.158
-730.966	-4.923	0.034	-0.024
-729.952	65.015	-0.074	0.076
-728.937	209.866	0.066	0.106
-727.923	683.374	-0.104	-0.278
-726.908	-166.252	-0.171	0.007
-725.894	-29.100	-0.192	0.113
-724.879	800.000	0.074	-0.303
-723.864	735.979	0.102	0.279
-722.850	-32.797	-0.098	0.056
-721.835	-117.452	0.279	-0.052
-720.821	-92.131	0.219	0.063
-719.806	-40.619	-0.107	0.057
-718.791	234.881	-0.192	-0.323
-717.777	-47.780	-0.413	-0.204
-716.762	364.264	-0.175	-0.359
-715.748	-33.847	0.076	-0.043
-714.733	-85.015	-0.241	-0.077
-713.718	-200.000	-0.004	0.316
-712.704	-17.785	0.224	-0.144
-711.689	800.000	-0.077	0.249
-710.675	-200.000	0.019	0.110
-709.660	58.046	-0.132	0.132
-708.645	-83.629	0.222	0.073
-707.631	-163.452	-0.104	-0.005
-706.616	-169.487	-0.365	0.014
-705.602	186.744	0.104	0.157
-704.587	800.000	-0.025	-0.089
-703.572	-200.000	-0.028	0.265
-702.558	99.501	0.252	-0.298
-701.543	44.359	0.149	-0.140
-700.529	-76.805	0.122	-0.044
-699.514	-37.957	-0.179	-0.097
-698.499	-61.432	-0.330	0.142
-697.485	-24.820	0.116	-0.071
-696.470	154.583	-0.251	-0.353
-695.456	58.811	-0.055	0.055
-694.441	307.601	-0.077	-0.146
-693.426	276.520	0.201	0.365
-692.412	-24.204	0.205	0.125
-691.397	800.000	-0.024	-0.082
-690.383	-200.000	-0.071	0.327
-689.368	7.072	0.321	-0.245
-688.354	328.196	-0.193	0.379
-687.339	-82.137	0.225	0.075
-686.324	179.152	0.073	-0.109
-685.310	392.676	-0.109	0.231
-684.295	243.051	0.056	-0.095
-683.281	800.000	-0.053	0.186
-682.266	249.047	-0.078	0.134
-681.251	-25.235	-0.144	0.087
-680.237	11.746	-0.359	0.281
-679.222	72.481	-0.136	-0.145
-678.208	-120.245	0.201	-0.035
-677.193	-93.128	0.287	0.082
-676.178	-152.191	0.119	-0.009
-675.164	163.961	0.149	0.214
-674.149	-122.079	0.343	-0.057
-673.135	-160.211	-0.161	0.009
-672.120	-200.000	-0.004	-0.296
-671.105	299.866	0.162	0.304
-670.091	-66.154	0.468	-0.190
-669.076	800.000	-0.080	0.265
-668.062	309.886	0.189	-0.361
-667.047	23.700	0.078	-0.065
-666.032	205.072	-0.113	-0.179
-665.018	-35.138	0.078	-0.043
-664.003	388.892	0.093	0.196
-662.989	-25.154	-0.183	0.111
-661.974	96.451	-0.163	-0.191
-660.959	-16.976	-0.190	-0.122
-659.945	-200.000	-0.029	-0.198
-658.930	-200.000	0.030	0.168
-657.916	800.000	-0.083	0.313
-656.901	-110.176	0.131	-0.028
-655.886	-82.255	-0.332	0.110
-654.872	98.445	0.052	0.062
-653.857	55.642	-0.194	0.191
-652.843	800.000	0.074	0.328
-651.828	-42.789	-0.062	0.032
-650.814	-199.070	0.374	0.002
-649.799	-109.083	-0.393	0.085
-648.784	79.398	0.088	-0.096
-647.770	-110.309	0.050	-0.011
-646.755	574.051	0.163	0.406
-645.741	-113.030	-0.156	0.031
-644.726	-126.275	-0.014	-0.002
-643.711	-28.640	-0.245	0.144
-642.697	148.918	-0.194	-0.267
-641.682	8.661	0.097	-0.074
-640.668	45.106	-0.260	0.244
-639.653	-22.771	-0.304	0.187
-638.638	-199.387	0.059	-0.000
-637.624	582.899	-0.121	-0.303
-636.609	209.823	-0.240	-0.383
-635.595	105.860	-0.082	-0.099
-634.580	-111.467	-0.231	-0.048
-633.565	216.800	-0.217	-0.351
-632.551	87.017	-0.103	-0.115
-631.536	9.239	0.187	0.144
-630.522	-119.373	-0.142	0.025
-629.507	-168.225	0.052	0.002
-628.492	-200.000	-0.011	-0.093
-627.478	-200.000	0.059	0.304
-626.463	-170.226	-0.207	-0.007
-625.449	47.516	0.370	0.351
-624.434	-134.669	-0.352	-0.044
-623.419	-67.934	-0.278	0.110
-622.405	-77.778	0.291	0.102
-621.390	64.821	-0.172	-0.176
-620.376	99.366	0.206	0.242
-619.361	-200.000	-0.035	-0.241
-618.346	-14.014	-0.072	-0.048
-617.332	326.915	0.066	-0.129
-616.317	500.922	-0.067	0.157
-615.303	-83.487	-0.276	-0.090
-614.288	-172.429	0.106	-0.003
-613.273	-162.210	0.254	-0.013
-612.259	-200.000	0.013	-0.113
-611.244	-25.252	0.201	-0.121
-610.230	-50.968	-0.116	0.055
-609.215	-71.341	-0.199	0.076
-608.201	752.200	0.037	-0.101
-607.186	-44.986	-0.331	-0.167
-606.171	-76.760	-0.424	-0.151
-605.157	800.000	-0.055	0.192
-604.142	-117.990	0.235	-0.043
-603.128	-71.551	-0.208	0.079
-602.113	658.695	-0.092	-0.240
-601.098	-168.428	-0.400	-0.016
-600.084	-112.244	0.593	0.121
-599.069	-114.241	-0.494	-0.097
-598.055	359.531	-0.113	0.229
-597.040	383.546	0.095	0.199
-596.025	406.586	-0.048	0.103
-595.011	134.351	0.134	0.177
-593.996	246.120	0.093	0.160
-592.982	-200.000	-0.015	-0.166
-591.967	303.499	0.022	0.042
-590.952	-98.830	-0.413	-0.107
-589.938	563.652	0.118	0.290
-588.923	651.991	0.027	0.071
-587.909	210.721	-0.152	-0.243
-586.894	412.517	-0.097	-0.210
-585.879	-90.541	0.080	0.024
-584.865	-200.000	0.021	-0.131
-583.850	-200.000	0.041	-0.374
-582.836	8.784	0.216	-0.165
-581.821	67.533	0.130	-0.135
-580.806	308.236	-0.071	-0.134
-579.792	742.364	0.186	-0.507
-578.777	309.709	0.087	-0.165
-577.763	-39.360	-0.220	0.117
-576.748	99.234	0.098	-0.115
-575.733	-123.175	0.142	-0.023
-574.719	111.695	-0.082	0.101
-573.704	432.745	0.105	0.232
-572.690	800.000	-0.027	0.096
-571.675	-136.668	0.339	0.040
-570.661	-142.608	-0.197	-0.020
-569.646	427.005	-0.107	-0.234
-568.631	436.032	-0.066	0.145
-567.617	800.000	0.062	-0.179
-566.602	208.734	0.086	-0.137
-565.588	800.000	0.111	-0.331
-564.573	-51.986	-0.203	0.096
-563.558	116.668	-0.116	-0.145
-562.544	-200.000	-0.032	0.197
-561.529	800.000	0.034	0.109
-560.515	800.000	-0.034	0.131
-559.500	-200.000	0.026	-0.310
-558.485	-200.000	-0.030	0.245
-557.471	318.760	-0.150	-0.288
-556.456	-69.530	-0.237	0.092
-555.442	561.661	0.060	-0.148
-554.427	702.426	0.083	0.221
-553.412	-41.009	0.263	-0.138
-552.398	7.580	-0.256	0.195
-551.383	141.764	-0.326	0.439
-550.369	35.797	-0.283	0.253
-549.354	-55.998	0.234	-0.106
-548.339	115.102	0.126	0.156
-547.325	-200.000	-0.020	-0.212
-546.310	800.000	0.060	-0.182
-545.296	-200.000	0.036	0.217
-544.281	-99.664	-0.367	0.093
-543.266	159.922	-0.169	0.239
-542.252	-200.000	-0.002	0.191
-541.237	5.045	0.037	0.028
-540.223	-111.420	-0.357	-0.074
-539.208	-79.498	0.168	-0.058
-538.193	-82.607	-0.216	0.071
-537.179	27.493	0.121	0.104
-536.164	120.962	0.102	0.128
-535.150	-113.867	0.059	-0.012
-534.135	-67.633	0.190	0.076
-533.121	-200.000	0.013	0.143
-532.106	-64.148	0.043	0.018
-531.091	-147.429	0.106	-0.009
-530.077	-91.777	-0.122	0.035
-529.062	-81.896	-0.239	-0.079
-528.048	32.610	0.070	-0.061
-527.033	148.280	0.224	0.307
-526.018	74.128	0.287	0.306
-525.004	258.803	0.085	-0.149
-523.989	228.615	0.220	-0.363
-522.975	-184.325	0.043	0.001
-521.960	-200.000	0.029	-0.463
-520.945	2.901	0.027	-0.020
-519.931	180.535	-0.172	0.255
-518.916	-26.895	-0.119	0.071
-517.902	619.655	-0.105	0.267
-516.887	56.530	-0.195	-0.192
-515.872	-82.754	0.156	0.051
-514.858	42.922	-0.266	-0.246
-513.843	545.397	0.081	0.196
-512.829	-130.127	0.216	0.030
-511.814	-137.323	-0.317	0.036
-510.799	622.118	-0.109	-0.278
-509.785	-176.050	-0.055	0.001
-508.770	578.004	0.051	-0.126
-507.756	191.145	0.097	0.147
-506.741	12.996	-0.107	0.084
-505.726	7.958	-0.314	-0.238
-504.712	207.271	-0.130	-0.206
-503.697	-200.000	-0.041	0.337
-502.683	800.000	-0.014	0.052
-501.668	-200.000	-0.030	0.284
-500.653	339.683	-0.140	0.276
-499.639	-25.965	0.064	0.038
-498.624	-200.000	-0.012	-0.111
-497.610	-190.499	0.174	0.002
-496.595	-40.409	-0.324	-0.170
-495.581	800.000	0.076	-0.328
-494.566	180.933	-0.216	-0.321
-493.551	-74.591	-0.278	-0.101
-492.537	-43.695	-0.251	0.128
-491.522	760.986	-0.067	0.183
-490.508	-18.203	-0.254	0.161
-489.493	-159.083	0.034	-0.002
-488.478	-105.969	0.153	-0.035
-487.464	157.799	0.023	-0.032
-486.449	-125.181	0.121	0.019
-485.435	32.031	0.260	-0.226
-484.420	-3.526	0.165	-0.116
-483.405	800.000	0.048	0.148
-482.391	800.000	-0.087	-0.269
-481.376	-200.000	0.015	-0.084
-480.362	-200.000	-0.074	0.353
-479.347	-46.058	0.115	-0.057
-478.332	2.432	-0.182	0.133
-477.318	-10.199	-0.281	0.189
-476.303	-200.000	-0.053	0.322
-475.289	21.594	0.082	0.067
-474.274	34.810	-0.116	-0.102
-473.259	800.000	0.070	0.250
-472.245	406.501	-0.073	0.157
-471.230	1.371	0.153	-0.112
-470.216	-164.864	0.173	0.008
-469.201	-138.313	-0.199	0.022
-468.186	-144.631	-0.383	-0.036
-467.172	-145.864	-0.193	0.017
-466.157	-55.524	-0.054	0.024
-465.143	-200.000	-0.053	0.389
-464.128	-200.000	-0.020	0.141
-463.113	68.906	0.229	-0.238
-462.099	800.000	-0.051	-0.159
-461.084	800.000	-0.047	-0.170
-460.070	-152.313	-0.346	-0.025
-459.055	-59.773	0.244	-0.105
-458.040	-32.591	-0.163	0.092
-457.026	800.000	0.021	0.063
-456.011	-160.908	-0.481	0.026
-454.997	403.758	0.148	0.316
-453.982	-138.004	0.241	0.027
-452.968	-169.199	0.257	0.010
-451.953	48.341	-0.221	0.209
-450.938	-154.865	0.115	0.008
-449.924	-2.962	0.251	0.177
-448.909	-17.832	-0.057	-0.036
-447.895	-138.454	0.089	-0.010
-446.880	-200.000	-0.021	-0.096
-445.865	-37.513	-0.292	0.157
-444.851	-137.328	0.366	0.042
-443.836	327.414	-0.059	-0.113
-442.822	-84.860	0.183	-0.058
-441.807	-79.689	-0.276	-0.094
-440.792	556.804	-0.049	-0.118
-439.778	-96.663	0.111	-0.030
-438.763	606.686	0.042	0.105
-437.749	-137.970	0.080	0.009
-436.734	-8.276	-0.186	0.127
-435.719	-200.000	0.038	0.196
-434.705	800.000	-0.008	0.028
-433.690	234.191	-0.146	-0.244
-432.676	-200.000	-0.011	0.146
-431.661	349.004	0.077	-0.154
-430.646	-200.000	0.009	-0.284
-429.632	186.241	0.029	0.044
-428.617	499.760	-0.110	-0.256
-427.603	-43.008	-0.237	-0.122
-426.588	173.079	-0.071	0.103
-425.573	769.025	0.029	0.081
-424.559	-122.870	0.552	-0.090
-423.544	-133.771	0.342	0.043
-422.530	-200.000	0.001	0.015
-421.515	-153.588	-0.195	0.014
-420.500	-200.000	0.030	0.193
-419.486	98.790	-0.119	0.139
-418.471	591.029	0.110	-0.273
-417.457	-114.029	-0.062	-0.012
-416.442	-200.000	0.029	-0.232
-415.428	149.073	0.130	0.177
-414.413	-67.442	0.327	0.130
-413.398	-200.000	-0.003	-0.181
-412.384	800.000	0.096	-0.293
-411.369	-4.389	0.213	-0.149
-410.355	-143.665	-0.090	-0.009
-409.340	110.263	-0.093	-0.112
-408.325	-200.000	-0.070	-0.326
-407.311	533.249	0.036	0.086
-406.296	89.544	-0.230	0.259
-405.282	-61.647	0.325	-0.137
-404.267	234.796	-0.261	-0.434
-403.252	-40.626	-0.038	0.020
-402.238	-84.270	0.581	-0.186
-401.223	119.490	0.127	-0.158
-400.209	-200.000	-0.004	0.132
-399.194	85.967	-0.128	0.142
-398.179	-53.556	-0.086	0.040
-397.165	196.976	0.065	-0.100
-396.150	-200.000	-0.007	-0.174
-395.136	-84.267	-0.300	0.096
-394.121	129.379	-0.226	-0.291
-393.106	800.000	-0.087	-0.320
-392.092	800.000	-0.039	0.116
-391.077	353.483	-0.029	0.058
-390.063	-85.959	0.198	-0.062
-389.048	63.666	-0.203	-0.206
-388.033	176.998	0.057	0.083
-387.019	-58.744	0.095	-0.041
-386.004	-76.997	0.149	0.052
-384.990	800.000	-0.110	0.322
-383.975	109.186	-0.049	0.059
-382.960	-106.031	0.167	-0.038
-381.946	-76.927	0.074	0.026
-380.931	-113.172	0.232	-0.046
-379.917	800.000	0.087	0.252
-378.902	800.000	0.023	0.093
-377.888	-200.000	0.037	0.340
-376.873	-6.073	0.266	-0.183
-375.858	-95.213	0.121	0.033
-374.844	-66.121	0.297	0.120
-373.829	597.711	0.050	0.126
-372.815	39.704	0.430	0.389
-371.800	316.777	0.109	0.208
-370.785	-167.771	0.161	-0.006
-369.771	123.270	-0.109	-0.138
-368.756	-53.662	-0.463	-0.213
-367.742	-200.000	-0.045	0.287
-366.727	-200.000	-0.003	0.096
-365.712	579.142	-0.024	0.060
-364.698	-4.990	-0.242	-0.168
-363.683	-200.000	-0.068	-0.423
-362.669	-200.000	-0.031	0.360
-361.654	-200.000	-0.005	0.067
-360.639	52.636	0.142	-0.137
-359.625	-200.000	-0.019	0.108
-358.610	-88.641	-0.221	0.066
-357.596	105.470	-0.096	0.114
-356.581	128.583	0.042	0.054
-355.566	-151.058	0.329	-0.025
-354.552	-94.349	0.136	-0.038
-353.537	-200.000	0.072	0.414
-352.523	235.644	0.084	-0.140
-351.508	-83.186	0.189	0.061
-350.493	-200.000	0.031	0.257
-349.479	-92.582	0.362	-0.102
-348.464	251.338	0.131	-0.224
-347.450	419.323	-0.134	-0.288
-346.435	-70.995	-0.364	-0.138
-345.420	6.245	-0.173	-0.129
-344.406	659.832	-0.054	0.141
-343.391	28.447	0.340	0.289
-342.377	-200.000	-0.087	0.514
-341.362	252.092	0.120	0.206
-340.348	89.284	0.317	-0.355
-339.333	800.000	-0.089	-0.332
-338.318	13.860	0.238	-0.186
-337.304	-30.159	0.348	0.199
-336.289	163.312	0.087	0.123
-335.275	-150.641	0.220	-0.017
-334.260	64.795	0.188	0.191
-333.245	99.750	-0.170	-0.198
-332.231	-112.030	0.260	-0.053
-331.216	-149.453	0.309	-0.025
-330.202	122.187	0.070	-0.088
-329.187	-139.634	-0.201	-0.022
-328.172	-179.575	0.116	-0.003
-327.158	-10.267	-0.165	-0.110
-326.143	106.343	0.163	0.195
-325.129	444.693	0.082	-0.181
-324.114	54.430	-0.047	0.046
-323.099	216.786	0.063	0.101
-322.085	-200.000	0.000	-0.089
-321.070	-105.938	-0.364	0.082
-320.056	49.726	0.137	0.130
-319.041	-24.690	-0.437	-0.261
-318.026	-200.000	0.028	-0.174
-317.012	-200.000	-0.033	0.211
-315.997	-200.000	-0.051	0.339
-314.983	128.451	-0.162	-0.207
-313.968	18.988	-0.135	0.109
-312.953	104.193	0.151	-0.178
-311.939	50.961	0.246	-0.235
-310.924	241.192	0.055	0.093
-309.910	-200.000	0.009	0.087
-308.895	-195.247	0.219	-0.002
-307.880	683.886	-0.078	0.204
-306.866	371.910	-0.100	-0.205
-305.851	-200.000	-0.002	0.145
-304.837	800.000	-0.069	0.299
-303.822	800.000	0.070	-0.207
-302.807	516.173	0.122	-0.287
-301.793	-182.187	-0.180	0.003
-300.778	376.468	0.131	0.269
-299.764	442.173	0.146	-0.320
-298.749	189.245	-0.113	0.171
-297.735	-86.290	-0.079	-0.024
-296.720	-200.000	0.014	0.206
-295.705	119.606	-0.219	0.273
-294.691	-97.931	0.153	-0.040
-293.676	80.975	0.191	0.207
-292.662	-200.000	0.043	-0.274
-291.647	-83.118	-0.169	-0.055
-290.632	163.081	-0.140	0.198
-289.618	312.219	-0.031	0.058
-288.603	-200.000	-0.036	0.205
-287.589	214.532	0.179	-0.285
-286.574	158.083	-0.135	0.188
-285.559	-96.657	-0.104	-0.027
-284.545	107.705	-0.177	-0.212
-283.530	-65.887	-0.305	0.122
-282.516	109.481	0.109	0.131
-281.501	-19.312	-0.146	-0.091
-280.486	54.566	-0.272	0.264
-279.472	26.680	-0.171	0.144
-278.457	65.484	0.188	0.191
-277.443	800.000	0.094	0.270
-276.428	-80.184	-0.137	0.046
-275.413	-200.000	0.042	0.251
-274.399	-200.000	-0.016	-0.252
-273.384	-18.002	0.086	-0.054
-272.370	209.391	-0.140	0.220
-271.355	760.411	-0.043	-0.116
-270.340	-200.000	-0.010	0.131
-269.326	11.615	0.219	-0.168
-268.311	800.000	0.090	-0.321
-267.297	800.000	-0.052	-0.198
-266.282	-53.989	0.062	-0.028
-265.267	-148.671	0.071	0.006
-264.253	201.538	0.081	0.125
-263.238	-36.896	-0.413	0.222
-262.224	-200.000	0.015	-0.563
-261.209	-200.000	-0.030	0.264
-260.195	-31.203	-0.095	0.054
-259.180	-100.240	0.200	0.050
-258.165	293.124	0.031	-0.057
-257.151	433.411	0.098	-0.214
-256.136	-35.278	0.314	-0.171
-255.122	104.506	-0.105	-0.124
-254.107	-133.482	0.058	0.007
-253.092	58.725	0.207	0.204
-252.078	42.107	0.150	-0.136
-251.063	49.701	-0.201	-0.190
-250.049	-174.253	0.057	-0.002
-249.034	-158.352	0.120	-0.007
-248.019	-200.000	0.000	-0.017
-247.005	-108.209	-0.170	-0.037
-245.990	85.870	-0.118	0.130
-244.976	15.984	-0.034	0.027
-243.961	-119.955	0.232	0.040
-242.946	75.378	0.240	-0.254
-241.932	-52.597	0.299	-0.139
-240.917	-25.674	0.231	-0.137
-239.903	-200.000	0.007	-0.157
-238.888	-16.446	-0.157	-0.100
-237.873	-156.218	-0.386	-0.024
-236.859	-30.842	-0.219	-0.124
-235.844	-32.616	-0.021	-0.012
-234.830	-200.000	0.050	-0.430
-233.815	-85.723	0.188	0.058
-232.800	-132.233	-0.063	0.008
-231.786	-200.000	-0.002	-0.427
-230.771	-28.228	0.187	0.108
-229.757	329.096	0.025	0.049
-228.742	800.000	-0.079	0.312
-227.727	-14.717	0.212	0.137
-226.713	-200.000	0.014	0.272
-225.698	306.056	0.121	0.225
-224.684	248.977	0.086	-0.146
-223.669	-9.401	0.328	0.219
-222.655	-63.415	0.042	0.017
-221.640	101.621	0.217	-0.254
-220.625	212.172	0.177	-0.279
-219.611	-122.249	-0.189	-0.031
-218.596	249.349	0.128	0.218
-217.582	800.000	-0.019	0.077
-216.567	-49.914	0.072	-0.034
-215.552	800.000	0.051	-0.174
-214.538	-95.575	-0.141	0.038
-213.523	800.000	-0.039	0.170
-212.509	-10.281	0.108	0.072
-211.494	-126.132	0.046	-0.007
-210.479	608.520	0.161	0.403
-209.465	146.823	0.218	0.294
-208.450	8.374	-0.221	-0.166
-207.436	-76.140	0.077	0.027
-206.421	-21.258	0.175	-0.107
-205.406	203.410	-0.062	0.095
-204.392	13.465	-0.084	0.065
-203.377	4.544	0.271	-0.199
-202.363	-97.327	-0.262	-0.068
-201.348	-148.786	0.444	-0.036
-200.333	-7.672	0.179	-0.121
-199.319	53.718	-0.124	-0.120
-198.304	-101.390	0.412	-0.100
-197.290	41.364	0.091	-0.082
-196.275	-200.000	0.050	0.250
-195.260	-67.891	0.066	0.026
-194.246	211.632	-0.147	0.231
-193.231	-125.251	-0.173	-0.026
-192.217	-200.000	0.002	0.042
-191.202	578.703	-0.017	-0.041
-190.187	800.000	0.052	-0.166
-189.173	161.942	0.196	0.274
-188.158	-200.000	-0.015	-0.236
-187.144	-162.346	-0.137	-0.007
-186.129	444.593	0.156	0.342
-185.114	-54.462	-0.274	-0.124
-184.100	-200.000	-0.020	0.094
-183.085	422.984	0.141	-0.303
-182.071	-46.040	-0.133	-0.066
-181.056	-200.000	-0.010	-0.073
-180.042	48.175	0.078	-0.073
-179.027	28.943	0.130	-0.110
-178.012	-32.825	0.147	-0.082
-176.998	-200.000	-0.016	-0.271
-175.983	-200.000	0.022	-0.439
-174.969	-116.037	-0.347	-0.065
-173.954	-72.495	-0.089	0.033
-172.939	-51.229	0.202	0.095
-171.925	-43.464	0.169	0.085
-170.910	-200.000	0.030	-0.180
-169.896	-10.275	0.042	0.028
-168.881	800.000	-0.041	0.131
-167.866	-200.000	-0.008	0.299
-166.852	-20.387	-0.194	-0.119
-165.837	800.000	0.089	0.267
-164.823	-200.000	0.039	-0.283
-163.808	115.540	-0.070	0.086
-162.793	-101.199	-0.175	-0.043
-161.779	-200.000	-0.007	0.171
-160.764	520.443	-0.060	0.141
-159.750	-27.339	0.173	-0.101
-158.735	443.430	0.151	-0.331
-157.720	-200.000	0.030	0.363
-156.706	10.968	-0.173	0.132
-155.691	-81.718	0.218	0.072
-154.677	-42.540	0.179	-0.091
-153.662	604.856	-0.044	0.108
-152.647	-158.203	-0.309	0.018
-151.633	2.356	-0.136	-0.098
-150.618	161.246	-0.359	-0.502
-149.604	-58.648	-0.117	0.051
-148.589	89.112	0.040	0.045
-147.574	105.469	-0.042	-0.050
-146.560	53.160	-0.164	0.157
-145.545	105.014	0.140	-0.164
-144.531	-42.401	0.322	0.164
-143.516	355.209	-0.041	0.082
-142.502	-18.636	0.190	-0.118
-141.487	-81.002	0.383	-0.127
-140.472	-76.198	-0.355	0.125
-139.458	6.515	-0.102	0.076
-138.443	-200.000	0.076	-0.346
-137.429	-47.570	0.182	-0.088
-136.414	-200.000	-0.006	-0.227
-135.399	246.792	-0.032	-0.053
-134.385	323.118	0.156	0.297
-133.370	-200.000	-0.017	-0.260
-132.356	-123.168	0.476	0.076
-131.341	21.217	0.068	0.055
-130.326	-93.754	-0.079	0.022
-129.312	-45.556	-0.293	-0.145
-128.297	-67.324	0.206	0.081
-127.283	-84.042	-0.252	-0.080
-126.268	800.000	-0.048	-0.204
-125.253	-200.000	-0.059	0.330
-124.239	45.882	-0.125	0.116
-123.224	-200.000	-0.022	-0.236
-122.210	69.773	0.065	0.067
-121.195	-103.462	-0.203	0.048
-120.180	372.744	0.072	-0.147
-119.166	274.117	-0.017	0.030
-118.151	-40.801	0.118	0.061
-117.137	28.029	-0.061	0.051
-116.122	391.396	0.018	-0.037
-115.107	-200.000	0.041	0.186
-114.093	424.710	-0.093	0.200
-113.078	-200.000	0.017	0.149
-112.064	297.919	-0.126	-0.230
-111.049	800.000	0.081	0.290
-110.034	20.822	0.182	-0.147
-109.020	-133.904	-0.236	0.029
-108.005	-116.180	0.264	-0.049
-106.991	-50.314	0.172	0.081
-105.976	188.886	0.100	-0.150
-104.962	-55.699	-0.292	-0.130
-103.947	-19.710	-0.169	-0.104
-102.932	-48.829	0.258	0.124
-101.918	13.688	0.188	0.145
-100.903	800.000	-0.010	0.043
-99.889	-77.800	0.501	0.173
-98.874	800.000	0.024	-0.082
-97.859	16.933	-0.311	-0.245
-96.845	177.605	0.064	0.094
-95.830	800.000	0.125	0.425
-94.816	-200.000	0.003	-0.050
-93.801	-144.835	-0.175	0.016
-92.786	-83.075	0.251	-0.081
-91.772	-50.619	-0.224	-0.105
-90.757	190.405	-0.155	0.233
-89.743	-130.871	0.393	-0.053
-88.728	-88.425	0.251	-0.075
-87.713	800.000	-0.118	0.473
-86.699	279.795	0.063	-0.112
-85.684	-100.068	-0.272	0.068
-84.670	-49.846	-0.220	-0.104
-83.655	80.626	0.237	-0.254
-82.640	-116.225	0.068	0.013
-81.626	608.106	0.040	0.099
-80.611	-50.880	-0.326	-0.153
-79.597	204.598	0.129	-0.200
-78.582	-134.714	0.121	0.015
-77.567	537.496	0.035	-0.083
-76.553	4.931	-0.343	0.251
-75.538	-200.000	-0.001	0.482
-74.524	-113.567	0.021	-0.004
-73.509	-105.752	0.092	-0.021
-72.494	-150.048	0.264	-0.020
-71.480	9.404	0.209	-0.158
-70.465	-41.446	0.203	0.104
-69.451	800.000	-0.084	0.249
-68.436	-86.199	0.086	-0.026
-67.422	-200.000	0.022	0.156
-66.407	-200.000	-0.017	-0.349
-65.392	-200.000	0.003	-0.122
-64.378	-70.314	0.165	-0.062
-63.363	-41.957	-0.251	0.128
-62.349	-25.344	-0.088	-0.052
-61.334	42.475	-0.757	-0.685
-60.319	92.580	0.062	0.070
-59.305	-200.000	0.101	-0.777
-58.290	580.155	0.328	0.800
-57.276	733.866	0.661	1.762
-56.261	-200.000	78.354	509.287
-55.246	488.996	1363.610	3101.324
-54.232	143.890	2593.509	3441.432
-53.217	112.377	2261.209	2722.296
-52.203	49.481	1787.506	1674.368
-51.188	42.640	1589.677	1440.212
-50.173	40.141	1560.335	1395.964
-49.159	55.889	1598.907	1543.063
-48.144	60.876	1619.140	1598.108
-47.130	43.192	1582.146	1437.096
-46.115	39.804	1567.505	1399.763
-45.100	39.610	1564.173	1395.359
-44.086	39.606	1561.892	1393.243
-43.071	39.417	1560.116	1390.266
-42.057	39.404	1558.299	1388.505
-41.042	39.421	1556.836	1387.265
-40.027	39.430	1555.322	1385.920
-39.013	39.353	1553.240	1383.472
-37.998	39.429	1551.864	1382.723
-36.984	39.368	1551.345	1381.778
-35.969	39.583	1549.598	1381.674
-34.954	39.470	1548.321	1379.692
-33.940	39.415	1547.106	1378.171
-32.925	39.454	1545.379	1376.849
-31.911	39.496	1544.012	1375.870
-30.896	39.639	1542.442	1375.414
-29.881	39.465	1541.606	1373.401
-28.867	39.523	1540.206	1372.499
-27.852	39.561	1538.568	1371.250
-26.838	39.537	1537.295	1369.898
-25.823	39.505	1535.467	1367.989
-24.809	39.440	1534.229	1366.385
-23.794	39.569	1531.833	1365.086
-22.779	39.407	1531.018	1363.183
-21.765	39.469	1530.161	1362.801
-20.750	39.478	1528.884	1361.669
-19.736	39.436	1527.411	1360.010
-18.721	39.417	1526.768	1359.258
-17.706	39.521	1525.115	1358.445
-16.692	39.452	1524.204	1357.104
-15.677	39.359	1523.554	1355.832
-14.663	39.300	1522.542	1354.470
-13.648	39.357	1521.222	1353.638
-12.633	39.419	1519.933	1352.862
-11.619	39.455	1519.222	1352.424
-10.604	39.401	1518.213	1351.102
-9.590	39.411	1517.141	1350.161
-8.575	39.407	1516.476	1349.491
-7.560	39.357	1515.767	1348.460
-6.546	39.336	1514.831	1347.432
-5.531	39.323	1513.796	1346.366
-4.517	39.346	1512.927	1345.699
-3.502	39.290	1512.247	1344.657
-2.487	39.316	1510.684	1343.391
-1.473	39.289	1509.880	1342.440
-0.458	39.346	1508.823	1341.837
0.556	39.711	1499.517	1332.634
1.571	37.048	1472.148	1290.503
2.586	33.513	1408.443	1211.995
3.600	31.563	1323.270	1126.868
4.615	29.527	1273.822	1072.849
5.629	24.247	1213.017	992.241
6.644	12.416	1119.682	854.643
7.659	3.587	1073.223	774.935
8.673	2.291	1067.477	764.243
9.688	1.951	1064.183	760.124
10.702	1.812	1062.265	757.994
11.717	1.846	1060.474	756.818
12.731	5.247	1065.214	777.075
13.746	16.145	1080.752	843.089
14.761	24.092	1091.804	891.605
15.775	25.395	1091.916	898.133
16.790	25.502	1091.303	898.086
17.804	25.329	1090.267	896.289
18.819	25.052	1090.248	894.813
19.834	25.112	1089.123	894.108
20.848	25.350	1088.541	894.739
21.863	25.395	1088.237	894.634
22.877	25.462	1088.118	894.788
23.892	25.267	1087.240	893.018
24.907	25.319	1086.190	892.334
25.921	25.226	1085.699	891.394
26.936	25.306	1084.792	890.966
27.950	25.357	1083.635	890.190
28.965	25.279	1082.579	888.857
29.980	25.132	1080.812	886.600
30.994	25.115	1079.965	885.741
32.009	25.400	1079.091	886.355
33.023	25.437	1078.298	885.808
34.038	25.215	1077.161	883.701
35.053	25.150	1076.821	883.024
36.067	25.266	1076.298	883.085
37.082	25.289	1075.212	882.229
38.096	25.259	1074.762	881.634
39.111	25.415	1074.236	881.892
40.126	25.572	1072.964	881.543
41.140	25.502	1071.780	880.149
42.155	25.238	1070.551	877.769
43.169	24.931	1069.223	875.101
44.184	24.866	1068.377	874.013
45.199	24.965	1067.189	873.449
46.213	24.913	1066.366	872.445
47.228	24.815	1065.572	871.238
48.242	25.072	1064.682	871.686
49.257	25.098	1064.358	871.471
50.271	25.169	1063.560	871.085
51.286	25.352	1062.821	871.289
52.301	25.345	1062.098	870.586
53.315	25.354	1061.372	869.955
54.330	25.360	1060.341	869.066
55.344	25.197	1060.029	867.942
56.359	25.193	1058.789	866.833
57.374	25.212	1058.421	866.543
58.388	25.133	1057.394	865.248
59.403	24.991	1056.181	863.493
60.417	25.143	1055.322	863.447
61.432	24.786	1055.022	861.407
62.447	24.860	1054.253	861.057
63.461	25.006	1053.406	860.990
64.476	25.257	1052.708	861.550
65.490	25.036	1051.723	859.609
66.505	24.881	1051.070	858.256
67.520	24.935	1050.076	857.627
68.534	25.049	1049.535	857.652
69.549	24.936	1048.551	856.236
70.563	24.639	1046.932	853.419
71.578	24.527	1046.194	852.207
72.593	24.485	1045.395	851.280
73.607	24.407	1044.333	849.967
74.622	24.449	1043.224	849.193
75.636	24.637	1042.778	849.647
76.651	24.913	1041.994	850.245
77.666	24.728	1041.486	848.874
78.680	24.633	1040.236	847.332
79.695	24.776	1039.605	847.420
80.709	24.806	1039.091	847.070
81.724	25.008	1038.030	847.081
82.739	24.851	1037.638	845.945
83.753	24.927	1036.586	845.374
84.768	25.131	1036.118	845.879
85.782	25.417	1035.722	846.826
86.797	25.714	1035.487	847.960
87.812	25.722	1034.256	846.914
88.826	25.499	1033.258	844.974
89.841	25.339	1032.639	843.640
90.855	25.531	1032.126	844.052
91.870	25.673	1031.025	843.740
92.884	25.570	1030.436	842.701
93.899	25.501	1029.095	841.209
94.914	25.268	1028.143	839.264
95.928	25.364	1027.994	839.517
96.943	25.555	1026.552	839.156
97.957	25.305	1025.498	837.058
98.972	24.940	1024.266	834.277
99.987	24.839	1022.730	832.482
101.001	24.854	1022.776	832.516
102.016	25.173	1022.260	833.507
103.030	25.078	1021.315	832.220
104.045	25.124	1020.558	831.743
105.060	25.035	1019.095	830.063
106.074	24.865	1018.002	828.315
107.089	24.837	1017.191	827.450
108.103	25.145	1016.991	828.636
109.118	25.417	1015.626	828.706
110.133	24.995	1015.122	826.275
111.147	24.995	1013.956	825.254
112.162	24.764	1013.075	823.402
113.176	24.630	1011.594	821.508
114.191	24.715	1011.308	821.594
115.206	25.041	1009.659	821.676
116.220	24.613	1009.017	819.121
117.235	24.519	1007.845	817.665
118.249	24.707	1007.090	817.841
119.264	24.663	1006.779	817.314
120.279	24.561	1005.701	815.903
121.293	24.502	1005.356	815.280
122.308	24.753	1004.203	815.417
123.322	24.677	1003.623	814.527
124.337	24.608	1002.296	813.064
125.352	24.527	1000.972	811.552
126.366	24.051	999.812	808.379
127.381	23.827	998.171	805.963
128.395	24.330	997.784	807.859
129.410	24.957	998.049	810.843
130.424	25.184	997.001	810.948
131.439	25.199	995.995	810.126
132.454	25.236	995.130	809.515
133.468	25.192	994.395	808.648
134.483	25.045	993.680	807.332
135.497	25.054	993.273	806.969
136.512	25.430	992.710	808.132
137.527	25.389	991.706	807.059
138.541	25.355	990.991	806.256
139.556	25.493	989.975	805.975
140.570	25.365	989.532	804.969
141.585	25.496	988.690	804.799
142.600	25.574	987.894	804.430
143.614	25.384	987.040	802.816
144.629	25.621	986.250	803.160
145.643	25.842	985.539	803.493
146.658	25.653	984.179	801.475
147.673	25.488	983.147	799.830
148.687	25.307	982.127	798.124
149.702	25.309	980.906	797.068
150.716	25.120	980.443	795.785
151.731	25.111	979.065	794.553
152.746	25.228	978.468	794.519
153.760	25.470	977.993	795.133
154.775	25.599	977.049	794.865
155.789	25.626	976.086	794.131
156.804	25.486	975.456	792.928
157.819	25.527	974.146	791.974
158.833	25.405	973.939	791.202
159.848	25.590	973.019	791.198
160.862	25.611	972.168	790.526
161.877	25.592	971.297	789.667
162.892	25.438	970.122	787.966
163.906	25.475	969.649	787.675
164.921	25.516	968.579	786.913
165.935	25.519	967.331	785.842
166.950	25.612	966.501	785.505
167.964	25.616	965.380	784.544
168.979	25.479	964.595	783.240
169.994	25.370	963.545	781.842
171.008	25.283	962.786	780.780
172.023	25.463	961.874	780.749
173.037	25.620	961.104	780.740
174.052	25.584	959.525	779.232
175.067	25.290	958.745	777.255
176.081	25.206	957.891	776.133
177.096	25.396	957.058	776.209
178.110	25.468	956.352	775.877
179.125	25.104	955.566	773.603
180.140	24.996	953.954	771.762
181.154	24.883	953.667	770.975
182.169	25.001	953.382	771.184
183.183	25.212	952.995	771.710
184.198	25.573	952.357	772.679
185.213	25.498	951.853	771.879
186.227	25.306	951.255	770.504
187.242	25.537	950.865	771.108
188.256	25.506	950.258	770.414
189.271	25.485	949.586	769.714
190.286	25.694	948.575	769.721
191.300	25.463	947.554	767.835
192.315	24.950	946.250	764.520
193.329	24.186	944.497	759.781
194.344	23.711	943.521	756.904
195.359	24.392	943.830	759.987
196.373	25.140	944.406	763.571
197.388	25.402	944.109	764.377
198.402	25.336	943.221	763.309
199.417	25.392	942.706	763.066
200.432	25.446	942.596	763.138
201.446	25.305	941.845	761.865
202.461	25.048	940.799	759.862
203.475	25.108	940.530	759.829
204.490	24.736	939.134	757.061
205.504	23.539	936.574	749.875
206.519	23.824	936.998	751.352
207.534	24.863	937.163	755.808
208.548	25.055	936.128	755.716
209.563	25.273	936.458	756.834
210.577	25.298	936.032	756.530
211.592	25.071	934.778	754.491
212.607	25.503	934.795	756.257
213.621	25.644	934.387	756.453
214.636	25.498	933.200	754.813
215.650	25.587	932.770	754.772
216.665	25.558	932.182	754.109
217.680	25.632	932.062	754.255
218.694	25.684	931.511	753.960
219.709	25.302	930.707	751.640
220.723	25.028	929.730	749.642
221.738	25.313	928.949	750.135
222.753	25.418	928.299	749.983
223.767	25.355	927.909	749.339
224.782	25.467	926.874	748.902
225.796	25.625	926.524	749.212
226.811	25.850	925.852	749.537
227.826	25.301	925.093	746.574
228.840	24.419	923.575	741.620
229.855	24.543	922.396	741.122
230.869	24.568	922.291	741.077
231.884	24.437	920.965	739.404
232.899	24.381	920.828	738.997
233.913	25.094	921.271	742.240
234.928	25.259	920.614	742.328
235.942	25.210	919.938	741.515
236.957	25.297	919.205	741.217
237.972	24.918	918.258	738.824
238.986	24.905	917.493	738.088
240.001	25.066	916.653	738.010
241.015	25.097	915.782	737.372
242.030	25.075	915.732	737.174
243.045	25.222	915.084	737.194
244.059	25.304	914.880	737.301
245.074	25.617	914.128	737.913
246.088	25.412	913.335	736.367
247.103	25.113	912.384	734.310
248.117	25.081	911.963	733.777
249.132	25.534	912.550	736.041
250.147	25.845	912.246	737.003
251.161	26.049	911.522	737.182
252.176	26.337	911.101	737.956
253.190	26.308	909.917	736.811
254.205	26.360	909.666	736.754
255.220	26.550	909.445	737.286
256.234	26.481	908.605	736.258
257.249	26.389	907.839	735.200
258.263	26.252	907.412	734.232
259.278	26.262	906.552	733.511
260.293	26.269	906.128	733.129
261.307	26.318	905.965	733.135
262.322	26.303	905.024	732.245
263.336	26.090	904.679	731.038
264.351	25.757	902.881	728.177
265.366	24.589	900.965	721.848
266.380	24.169	900.265	719.528
267.395	24.994	900.557	723.029
268.409	25.807	901.005	726.606
269.424	25.796	899.838	725.558
270.439	25.961	899.515	725.897
271.453	25.974	899.337	725.740
272.468	26.093	897.936	725.024
273.482	26.209	897.956	725.442
274.497	26.529	897.738	726.486
275.512	26.202	896.471	724.086
276.526	25.586	895.074	720.428
277.541	25.643	894.896	720.449
278.555	26.014	894.877	721.856
279.570	26.106	893.494	721.045
280.585	25.820	892.648	719.154
281.599	25.911	892.436	719.281
282.614	25.975	892.000	719.122
283.628	25.610	890.889	716.709
284.643	25.184	890.244	714.430
285.657	25.667	889.987	716.085
286.672	25.629	889.078	715.139
287.687	25.154	888.269	712.539
288.701	25.334	887.969	712.950
289.716	25.707	887.992	714.386
290.730	25.334	887.134	712.153
291.745	25.195	886.601	711.112
292.760	25.218	885.318	710.111
293.774	25.082	884.673	708.993
294.789	26.029	885.281	713.163
295.803	26.661	885.377	715.673
296.818	26.643	884.885	715.143
297.833	26.736	884.272	714.949
298.847	26.339	883.468	712.673
299.862	26.143	882.145	710.772
300.876	26.305	881.821	711.084
301.891	26.515	881.767	711.803
302.906	26.627	881.280	711.788
303.920	26.260	880.180	709.395
304.935	26.043	879.330	707.797
305.949	26.480	879.114	709.273
306.964	26.772	878.726	710.042
307.979	26.281	878.025	707.492
308.993	26.260	877.567	706.976
310.008	26.659	876.663	707.746
311.022	26.904	876.529	708.533
312.037	26.536	876.038	706.633
313.052	26.316	875.150	704.999
314.066	26.174	874.267	703.670
315.081	25.476	873.072	699.928
316.095	24.820	871.543	696.091
317.110	25.349	872.022	698.471
318.125	26.217	872.140	701.877
319.139	25.813	871.168	699.463
320.154	24.693	869.037	693.351
321.168	24.259	868.232	690.965
322.183	24.709	868.717	693.034
323.197	25.631	869.365	697.065
324.212	26.158	868.437	698.300
325.227	26.368	867.943	698.652
326.241	26.528	867.643	698.967
327.256	26.368	866.993	697.763
328.270	26.099	866.988	696.657
329.285	25.976	866.281	695.556
330.300	25.988	865.100	694.592
331.314	25.756	864.190	692.905
332.329	25.781	863.635	692.495
333.343	26.207	863.368	693.859
334.358	26.501	863.230	694.813
335.373	26.459	863.065	694.458
336.387	26.592	862.433	694.398
337.402	26.704	862.016	694.431
338.416	27.061	861.082	694.982
339.431	26.747	861.108	693.743
340.446	26.795	860.499	693.372
341.460	27.136	859.533	693.834
342.475	27.096	859.134	693.298
343.489	26.723	858.654	691.427
344.504	26.836	857.969	691.247
345.519	27.211	857.487	692.226
346.533	27.188	857.489	692.075
347.548	27.302	857.056	692.100
348.562	27.306	856.707	691.773
349.577	27.220	855.503	690.412
350.592	27.232	855.074	690.049
351.606	27.181	854.861	689.624
352.621	27.187	854.191	689.046
353.635	27.174	853.461	688.347
354.650	27.120	852.995	687.707
355.665	26.732	852.124	685.475
356.679	25.698	850.363	680.092
357.694	25.498	850.080	679.051
358.708	26.173	850.201	681.638
359.723	26.129	849.315	680.701
360.738	26.335	849.497	681.563
361.752	26.855	848.939	683.013
362.767	27.048	848.827	683.590
363.781	27.266	848.570	684.141
364.796	27.531	848.743	685.217
365.810	27.677	848.152	685.227
366.825	27.762	847.703	685.124
367.840	27.865	847.061	684.932
368.854	27.464	846.757	683.119
369.869	27.091	845.783	680.878
370.883	26.954	844.805	679.515
371.898	26.993	844.062	679.003
372.913	26.951	843.521	678.352
373.927	26.959	842.940	677.855
374.942	27.148	842.307	677.991
375.956	27.271	841.987	678.134
376.971	27.346	841.435	677.907
377.986	27.444	840.774	677.680
379.000	27.590	840.332	677.804
380.015	27.580	840.147	677.562
381.029	27.429	839.368	676.310
382.044	27.359	838.689	675.444
383.059	27.595	838.382	676.013
384.073	27.602	837.812	675.519
385.088	27.659	837.130	675.121
386.102	27.655	836.641	674.651
387.117	27.336	836.243	673.090
388.132	27.331	835.372	672.314
389.146	27.258	834.635	671.389
390.161	26.580	833.538	667.947
391.175	26.799	832.878	668.167
392.190	27.091	833.632	669.790
393.205	27.151	833.130	669.546
394.219	26.133	831.425	664.374
395.234	24.583	828.960	656.652
396.248	23.825	828.025	653.070
397.263	24.790	828.624	657.032
398.278	26.617	829.973	664.754
399.292	27.205	829.727	666.658
400.307	26.822	829.228	664.794
401.321	26.795	828.847	664.329
402.336	26.882	828.320	664.168
403.350	27.057	828.434	664.839
404.365	27.546	828.280	666.446
405.380	27.922	828.192	667.690
406.394	28.204	827.700	668.264
407.409	28.401	827.342	668.638
408.423	28.406	826.585	667.985
409.438	28.406	825.765	667.261
410.453	28.238	825.668	666.511
411.467	28.199	825.518	666.191
412.482	28.202	825.301	665.968
413.496	28.096	824.002	664.474
414.511	28.437	823.870	665.550
415.526	28.472	823.420	665.255
416.540	28.345	823.235	664.585
417.555	28.317	822.693	663.985
418.569	27.867	821.927	661.681
419.584	27.957	821.285	661.431
420.599	28.056	821.044	661.535
421.613	97.476	1270.316	1393.387
422.628	84.109	1335.804	1393.507
