DTS Sentinel unit serial number:	SN413079Multiplexer serial number:	ORYXHardware model number:	OX4-SRSoftware version number:	ORYX F/W v4.00 Oryx Data Collector v3.7.2.0data status	okinstallation	princeton_trtdifferential loss correction	single-endedforward channel	channel 3reverse channel	N/Adate	2019/09/11time	13:30:11forward acquisition time	60.00reverse acquisition time	0.00gamma	496.2192k internal	0.2293k external	0.2293temperature offset calibration	0.9976default loss term (dB/km)	0.3790temperature slope calibration	1.0000multiplexer offset coefficient	1.0000multiplexer slope coefficient	1.0000fibre end	0.00T internal ref (°C)	41.95T ext. ref 1 (°C)	0.83T ext. ref 2 (°C)	37.40length (m)	temperature (°C)	Stokes	anti-Stokes-747.200	44.011	-0.350	0.328
-746.185	-32.990	0.200	0.114
-745.171	87.262	0.032	-0.036
-744.156	-44.593	0.140	0.071
-743.142	478.434	0.132	0.306
-742.127	-143.959	-0.151	-0.015
-741.112	800.000	0.047	-0.203
-740.098	43.472	-0.266	0.249
-739.083	-3.375	-0.254	-0.181
-738.069	-62.672	-0.049	-0.021
-737.054	67.928	-0.047	-0.049
-736.039	106.007	-0.269	0.326
-735.025	-200.000	-0.094	0.514
-734.010	-200.000	-0.006	0.129
-732.996	-111.751	0.100	-0.021
-731.981	1.671	-0.079	0.058
-730.966	800.000	0.053	-0.152
-729.952	170.601	0.239	0.351
-728.937	261.350	0.015	0.027
-727.923	68.971	-0.130	0.136
-726.908	-50.111	-0.299	0.145
-725.894	800.000	0.050	-0.212
-724.879	-168.846	-0.343	0.013
-723.864	-200.000	-0.026	0.355
-722.850	396.961	0.095	-0.202
-721.835	-193.812	-0.362	0.003
-720.821	-166.891	0.148	-0.006
-719.806	310.773	-0.055	-0.106
-718.791	36.054	0.123	0.111
-717.777	67.767	-0.120	0.125
-716.762	-115.362	0.092	-0.018
-715.748	-84.032	-0.502	0.163
-714.733	12.014	-0.137	-0.108
-713.718	-177.802	0.301	-0.007
-712.704	-200.000	-0.015	-0.333
-711.689	608.413	0.066	0.168
-710.675	-200.000	0.024	-0.226
-709.660	140.462	0.261	0.352
-708.645	-30.369	-0.110	0.064
-707.631	161.952	-0.128	0.184
-706.616	-35.760	-0.236	-0.131
-705.602	-109.044	0.243	0.053
-704.587	53.781	-0.198	-0.194
-703.572	-164.350	0.047	-0.002
-702.558	800.000	-0.145	0.428
-701.543	-156.066	-0.202	-0.013
-700.529	160.877	0.071	-0.102
-699.514	377.758	-0.210	-0.438
-698.499	394.056	-0.066	0.140
-697.485	-64.536	0.250	0.104
-696.470	364.918	-0.102	-0.209
-695.456	63.780	0.081	-0.083
-694.441	140.572	-0.063	-0.085
-693.426	308.941	-0.049	0.094
-692.412	-59.567	0.105	0.046
-691.397	8.696	-0.169	-0.130
-690.383	-120.280	-0.076	-0.013
-689.368	-59.936	-0.122	-0.053
-688.354	45.943	-0.081	-0.077
-687.339	-31.679	-0.100	-0.057
-686.324	29.492	-0.041	-0.036
-685.310	-105.429	-0.119	0.028
-684.295	-200.000	-0.018	-0.098
-683.281	585.389	0.087	-0.219
-682.266	-200.000	-0.003	0.330
-681.251	546.010	0.011	0.026
-680.237	-101.079	-0.267	0.067
-679.222	-12.510	0.091	-0.060
-678.208	474.344	0.012	-0.027
-677.193	800.000	-0.082	-0.278
-676.178	800.000	0.071	-0.272
-675.164	590.042	-0.104	-0.261
-674.149	-200.000	-0.017	0.196
-673.135	-200.000	-0.010	-0.125
-672.120	-26.332	0.416	0.249
-671.105	-200.000	0.040	-0.236
-670.091	-32.476	-0.028	0.016
-669.076	7.175	-0.295	0.224
-668.062	618.126	0.011	-0.028
-667.047	-53.751	-0.047	-0.022
-666.032	90.596	0.045	0.052
-665.018	-200.000	-0.022	0.127
-664.003	-18.520	-0.244	0.155
-662.989	-48.497	0.159	0.078
-661.974	-158.469	-0.274	0.016
-660.959	-10.694	0.014	0.009
-659.945	39.907	-0.178	0.163
-658.930	63.569	0.172	-0.176
-657.916	-36.596	-0.225	0.124
-656.901	800.000	-0.032	-0.137
-655.886	6.243	-0.127	-0.096
-654.872	104.112	-0.216	-0.259
-653.857	143.327	-0.177	0.240
-652.843	7.486	-0.232	-0.177
-651.828	-139.640	0.081	0.009
-650.814	69.516	-0.027	0.028
-649.799	79.206	-0.177	0.193
-648.784	-171.617	-0.158	-0.005
-647.770	-165.137	-0.095	-0.004
-646.755	701.889	-0.215	-0.577
-645.741	176.748	-0.116	-0.172
-644.726	242.029	0.240	0.408
-643.711	59.725	-0.148	-0.149
-642.697	118.231	-0.099	0.124
-641.682	-200.000	-0.064	0.293
-640.668	-27.917	0.189	-0.112
-639.653	-3.003	-0.466	-0.331
-638.638	-200.000	0.008	-0.113
-637.624	22.330	0.095	-0.079
-636.609	218.247	-0.136	-0.221
-635.595	454.117	0.142	0.320
-634.580	800.000	0.076	0.216
-633.565	800.000	0.111	-0.361
-632.551	-7.603	-0.119	0.082
-631.536	-48.245	0.139	0.068
-630.522	98.484	0.122	-0.143
-629.507	800.000	-0.096	-0.280
-628.492	-27.989	0.068	-0.040
-627.478	111.818	0.091	-0.111
-626.463	-118.316	-0.395	0.072
-625.449	271.828	0.039	-0.070
-624.434	-200.000	-0.046	0.241
-623.419	176.541	0.139	-0.206
-622.405	519.885	-0.173	0.412
-621.390	33.470	-0.159	-0.141
-620.376	52.832	0.028	-0.027
-619.361	242.370	-0.049	0.083
-618.346	-200.000	0.018	-0.083
-617.332	-78.448	0.206	-0.072
-616.317	-200.000	0.047	-0.210
-615.303	72.608	-0.025	-0.027
-614.288	-58.317	0.274	0.121
-613.273	3.506	-0.189	-0.140
-612.259	800.000	0.059	0.176
-611.244	-172.357	0.269	-0.009
-610.230	-155.897	-0.163	0.011
-609.215	-200.000	0.043	-0.213
-608.201	-71.671	-0.030	-0.011
-607.186	800.000	-0.107	-0.313
-606.171	-66.093	-0.341	-0.138
-605.157	105.625	0.097	-0.117
-604.142	-182.597	-0.287	-0.005
-603.128	365.468	0.084	0.172
-602.113	570.819	-0.077	0.190
-601.098	67.951	0.158	-0.165
-600.084	800.000	0.044	-0.157
-599.069	-106.255	-0.471	0.107
-598.055	-200.000	-0.014	-0.225
-597.040	23.270	0.067	0.056
-596.025	-2.254	0.134	0.096
-595.011	-26.440	-0.233	0.139
-593.996	-200.000	-0.044	-0.259
-592.982	76.751	-0.093	-0.100
-591.967	-200.000	-0.034	-0.258
-590.952	-200.000	-0.002	-0.340
-589.938	-37.203	0.145	-0.079
-588.923	96.283	0.100	-0.117
-587.909	-79.249	0.367	0.126
-586.894	-113.035	-0.394	0.079
-585.879	-54.098	0.303	0.140
-584.865	-200.000	0.034	0.295
-583.850	-200.000	-0.023	0.232
-582.836	-71.179	-0.232	0.088
-581.821	0.022	-0.148	-0.107
-580.806	49.493	0.193	0.185
-579.792	-151.372	0.217	0.016
-578.777	21.526	-0.357	0.295
-577.763	-14.771	-0.018	-0.012
-576.748	-147.881	-0.248	-0.021
-575.733	-13.127	0.174	-0.115
-574.719	436.492	-0.059	0.130
-573.704	44.526	-0.181	0.169
-572.690	73.234	-0.264	0.281
-571.675	-52.231	-0.304	-0.143
-570.661	-200.000	0.084	-0.475
-569.646	64.005	0.151	0.154
-568.631	-28.020	-0.215	0.127
-567.617	-200.000	0.014	0.265
-566.602	-200.000	0.021	-0.153
-565.588	145.044	-0.111	0.151
-564.573	-39.270	0.296	-0.158
-563.558	-99.721	-0.153	-0.039
-562.544	378.253	0.156	-0.324
-561.529	-64.061	0.277	-0.115
-560.515	79.070	-0.094	-0.102
-559.500	800.000	-0.034	-0.145
-558.485	427.472	-0.041	0.090
-557.471	-177.790	-0.200	-0.005
-556.456	-82.287	0.243	-0.080
-555.442	-39.207	-0.235	-0.125
-554.427	-156.610	0.414	0.026
-553.412	-34.801	-0.165	-0.092
-552.398	-4.650	-0.241	-0.169
-551.383	-200.000	-0.011	-0.117
-550.369	-200.000	0.006	-0.239
-549.354	-141.091	0.181	-0.019
-548.339	299.926	-0.072	0.135
-547.325	-200.000	-0.034	0.179
-546.310	-200.000	-0.022	-0.132
-545.296	-139.032	-0.313	0.034
-544.281	-200.000	-0.024	0.174
-543.266	800.000	0.095	-0.304
-542.252	800.000	0.084	0.368
-541.237	-200.000	-0.000	0.201
-540.223	541.011	-0.106	0.257
-539.208	146.005	-0.055	0.075
-538.193	-81.599	-0.343	-0.114
-537.179	66.836	0.180	0.186
-536.164	-110.700	-0.387	0.081
-535.150	-200.000	0.001	0.021
-534.135	-187.299	-0.196	0.003
-533.121	363.449	0.111	0.227
-532.106	180.894	-0.034	-0.051
-531.091	-14.272	-0.114	0.075
-530.077	800.000	-0.072	0.269
-529.062	-3.605	0.299	0.211
-528.048	111.313	-0.133	0.163
-527.033	669.596	0.066	-0.172
-526.018	56.978	-0.210	0.207
-525.004	-200.000	0.023	0.236
-523.989	-86.005	-0.269	0.084
-522.975	-200.000	0.019	0.289
-521.960	265.115	-0.091	0.161
-520.945	63.628	-0.229	-0.233
-519.931	800.000	-0.041	-0.141
-518.916	195.146	0.166	0.256
-517.902	-41.866	-0.274	-0.143
-516.887	-200.000	0.053	-0.280
-515.872	-142.610	0.155	-0.015
-514.858	-200.000	0.012	-0.078
-513.843	-200.000	-0.006	0.068
-512.829	800.000	-0.048	-0.140
-511.814	-200.000	-0.027	-0.305
-510.799	-200.000	0.012	-0.488
-509.785	-200.000	-0.006	0.145
-508.770	-82.506	0.112	-0.037
-507.756	35.713	-0.082	0.073
-506.741	-174.599	-0.149	0.004
-505.726	127.890	-0.144	-0.186
-504.712	800.000	-0.123	-0.345
-503.697	34.307	0.063	-0.056
-502.683	144.978	-0.020	0.028
-501.668	-76.957	0.223	-0.079
-500.653	130.881	-0.056	0.073
-499.639	290.801	-0.125	-0.231
-498.624	506.914	0.057	-0.134
-497.610	-95.054	-0.188	0.051
-496.595	-80.619	0.239	-0.081
-495.581	18.655	-0.159	0.129
-494.566	-48.221	-0.178	0.087
-493.551	-10.970	0.277	-0.185
-492.537	136.471	-0.219	-0.289
-491.522	738.699	0.087	0.236
-490.508	800.000	0.095	0.312
-489.493	496.489	-0.061	0.141
-488.478	429.413	-0.049	0.108
-487.464	-83.766	-0.176	-0.057
-486.449	-75.354	0.406	-0.147
-485.435	20.836	0.263	-0.216
-484.420	-47.546	0.208	0.102
-483.405	-14.225	0.190	-0.124
-482.391	-148.933	-0.221	0.018
-481.376	166.082	-0.008	-0.012
-480.362	77.213	0.113	-0.121
-479.347	-158.795	0.363	-0.021
-478.332	64.771	0.124	-0.127
-477.318	-30.202	-0.188	-0.108
-476.303	800.000	-0.047	0.182
-475.289	-200.000	-0.073	-0.397
-474.274	169.473	-0.049	0.071
-473.259	800.000	0.010	-0.037
-472.245	-107.162	0.106	-0.024
-471.230	30.330	-0.054	-0.047
-470.216	800.000	0.070	0.226
-469.201	412.529	-0.129	0.278
-468.186	45.477	0.081	0.076
-467.172	800.000	-0.055	0.190
-466.157	-200.000	-0.002	0.064
-465.143	-134.165	-0.300	-0.037
-464.128	-154.506	-0.414	0.028
-463.113	800.000	0.068	-0.200
-462.099	-136.392	0.171	-0.020
-461.084	-200.000	0.025	0.278
-460.070	4.832	0.292	0.217
-459.055	-44.989	0.249	-0.126
-458.040	-10.643	-0.038	0.025
-457.026	246.010	-0.079	-0.134
-456.011	28.483	-0.153	-0.131
-454.997	-200.000	0.000	-0.044
-453.982	374.231	-0.156	0.321
-452.968	-81.285	0.271	0.090
-451.953	502.554	0.131	-0.305
-450.938	19.292	0.288	-0.234
-449.924	92.493	0.032	0.036
-448.909	-190.644	0.207	0.002
-447.895	800.000	-0.048	-0.210
-446.880	-10.255	0.257	0.173
-445.865	-200.000	0.013	0.316
-444.851	-157.640	-0.304	-0.018
-443.836	-57.570	0.111	0.049
-442.822	-120.487	-0.342	0.059
-441.807	-185.662	0.340	-0.005
-440.792	-34.779	-0.136	-0.075
-439.778	800.000	-0.080	0.298
-438.763	-134.306	-0.172	0.021
-437.749	174.887	0.148	0.217
-436.734	7.183	-0.213	-0.160
-435.719	-65.865	-0.235	0.095
-434.705	564.662	-0.096	-0.236
-433.690	-130.083	-0.389	-0.054
-432.676	-101.417	-0.360	0.089
-431.661	800.000	0.049	-0.216
-430.646	-200.000	0.002	-0.368
-429.632	-16.013	0.198	0.127
-428.617	-57.329	0.098	-0.044
-427.603	175.273	-0.092	0.135
-426.588	800.000	0.057	0.166
-425.573	110.346	0.071	-0.087
-424.559	-93.680	0.147	-0.041
-423.544	297.194	0.091	0.169
-422.530	800.000	-0.035	0.132
-421.515	-91.779	0.204	-0.059
-420.500	355.685	0.071	0.143
-419.486	-66.191	-0.158	-0.064
-418.471	-124.474	0.070	0.011
-417.457	52.977	0.128	-0.123
-416.442	158.913	0.042	0.060
-415.428	-136.818	-0.319	0.037
-414.413	800.000	0.042	-0.174
-413.398	-40.359	-0.208	-0.109
-412.384	-200.000	-0.020	0.176
-411.369	151.877	0.074	-0.102
-410.355	319.680	-0.033	-0.064
-409.340	-200.000	0.050	0.597
-408.325	-200.000	0.004	0.127
-407.311	-125.016	-0.104	-0.016
-406.296	800.000	-0.098	-0.321
-405.282	22.424	0.327	0.270
-404.267	-86.218	0.250	-0.078
-403.252	27.703	-0.138	-0.117
-402.238	186.515	-0.189	-0.283
-401.223	-108.297	-0.142	0.031
-400.209	-200.000	-0.014	0.182
-399.194	198.975	0.286	-0.443
-398.179	766.648	-0.048	-0.131
-397.165	19.961	0.123	-0.100
-396.150	-106.618	-0.323	0.072
-395.136	-82.154	0.092	-0.030
-394.121	94.115	0.283	0.324
-393.106	26.632	-0.191	-0.161
-392.092	57.995	-0.223	0.221
-391.077	800.000	-0.032	-0.128
-390.063	-105.427	0.140	0.032
-389.048	180.315	0.161	0.238
-388.033	174.985	-0.205	0.299
-387.019	800.000	0.023	-0.089
-386.004	7.769	0.267	-0.202
-384.990	411.721	0.101	-0.215
-383.975	19.246	-0.202	0.163
-382.960	135.905	0.093	-0.122
-381.946	-102.077	0.111	-0.027
-380.931	121.668	-0.246	0.310
-379.917	181.570	0.146	-0.216
-378.902	149.969	-0.114	0.156
-377.888	-75.252	-0.236	-0.085
-376.873	-69.790	-0.200	-0.077
-375.858	800.000	-0.028	0.121
-374.844	233.758	-0.187	0.311
-373.829	-51.719	0.375	-0.176
-372.815	-200.000	-0.014	-0.080
-371.800	188.975	0.039	-0.059
-370.785	-38.446	-0.078	0.042
-369.771	81.790	0.121	-0.132
-368.756	-200.000	0.008	0.156
-367.742	-88.376	0.348	0.105
-366.727	-200.000	-0.012	-0.208
-365.712	-28.726	-0.286	-0.166
-364.698	-78.352	-0.327	-0.113
-363.683	198.935	-0.176	-0.272
-362.669	-72.213	0.308	-0.115
-361.654	265.367	-0.087	0.153
-360.639	-162.385	0.240	-0.012
-359.625	800.000	0.038	-0.106
-358.610	-0.063	-0.210	0.151
-357.596	-119.799	-0.364	0.063
-356.581	-101.847	0.195	-0.047
-355.566	800.000	0.045	-0.132
-354.552	56.104	-0.148	-0.145
-353.537	-117.623	0.184	-0.033
-352.523	-200.000	-0.009	-0.359
-351.508	-8.636	0.173	-0.117
-350.493	-200.000	-0.026	-0.190
-349.479	-200.000	0.023	-0.119
-348.464	-200.000	-0.036	0.186
-347.450	-54.586	0.030	-0.014
-346.435	-85.350	-0.271	-0.085
-345.420	-7.361	0.212	-0.145
-344.406	-200.000	0.416	0.001
-343.391	-141.190	-0.183	-0.019
-342.377	597.371	-0.151	0.377
-341.362	75.260	-0.236	-0.250
-340.348	113.917	-0.029	-0.036
-339.333	-122.152	0.041	0.007
-338.318	26.596	0.160	-0.135
-337.304	800.000	0.074	0.250
-336.289	-40.994	-0.277	0.144
-335.275	-200.000	-0.033	-0.222
-334.260	296.310	0.079	0.147
-333.245	268.366	-0.075	0.133
-332.231	-72.937	-0.096	-0.035
-331.216	-21.096	-0.061	0.037
-330.202	22.733	0.122	0.101
-329.187	800.000	0.082	-0.228
-328.172	-115.117	0.189	-0.036
-327.158	-21.854	0.249	-0.153
-326.143	-26.803	-0.174	0.102
-325.129	430.028	-0.181	0.394
-324.114	261.952	0.138	0.241
-323.099	-98.669	0.254	0.065
-322.085	-17.237	0.147	-0.093
-321.070	-21.582	0.255	0.156
-320.056	-23.765	0.032	-0.019
-319.041	-200.000	-0.001	0.290
-318.026	-125.632	0.152	0.023
-317.012	-31.161	0.163	0.092
-315.997	800.000	0.024	-0.104
-314.983	-47.109	-0.168	0.082
-313.968	-79.205	0.083	0.028
-312.953	-200.000	0.027	-0.153
-311.939	136.925	-0.172	-0.226
-310.924	61.082	-0.219	0.219
-309.910	109.327	-0.073	0.088
-308.895	-28.607	0.070	-0.041
-307.880	-87.999	-0.259	0.078
-306.866	211.127	0.155	-0.245
-305.851	139.363	-0.097	0.128
-304.837	-119.683	0.344	-0.060
-303.822	800.000	-0.099	0.274
-302.807	59.341	-0.082	0.081
-301.793	296.124	-0.061	-0.113
-300.778	-200.000	0.001	-0.215
-299.764	376.338	0.169	-0.347
-298.749	-180.893	-0.285	0.006
-297.735	-134.077	0.105	-0.013
-296.720	-127.636	-0.085	-0.012
-295.705	-49.190	0.226	0.109
-294.691	45.716	-0.170	-0.158
-293.676	-200.000	-0.031	-0.534
-292.662	-14.761	-0.123	-0.079
-291.647	800.000	-0.079	0.247
-290.632	-168.007	0.203	-0.008
-289.618	424.726	0.011	-0.024
-288.603	-32.432	0.356	-0.200
-287.589	-4.121	-0.170	0.118
-286.574	187.724	-0.136	0.203
-285.559	-153.441	0.221	-0.015
-284.545	233.929	0.189	0.312
-283.530	-105.563	0.053	0.012
-282.516	-91.162	-0.284	-0.082
-281.501	66.050	0.178	0.181
-280.486	114.096	0.362	0.442
-279.472	-2.588	-0.189	-0.133
-278.457	104.053	0.141	0.167
-277.443	-200.000	0.002	0.350
-276.428	390.280	-0.102	0.213
-275.413	63.715	-0.237	-0.239
-274.399	-0.714	0.273	0.194
-273.384	-18.294	0.083	-0.052
-272.370	-126.969	-0.242	-0.036
-271.355	-111.782	-0.183	-0.037
-270.340	342.465	0.085	0.166
-269.326	-141.755	-0.268	-0.027
-268.311	800.000	-0.077	0.237
-267.297	74.946	-0.051	-0.054
-266.282	536.381	-0.039	0.093
-265.267	1.775	-0.319	-0.231
-264.253	-200.000	-0.012	-0.187
-263.238	-14.008	0.109	0.071
-262.224	497.949	0.041	-0.094
-261.209	232.251	-0.246	0.406
-260.195	3.553	0.280	0.205
-259.180	672.583	-0.024	0.062
-258.165	176.171	0.029	0.042
-257.151	-26.443	-0.184	0.108
-256.136	168.278	0.096	0.138
-255.122	-63.120	0.074	0.031
-254.107	-189.974	0.156	-0.002
-253.092	-158.517	0.056	-0.003
-252.078	79.523	-0.071	0.076
-251.063	800.000	-0.038	-0.108
-250.049	-73.787	0.103	-0.038
-249.034	800.000	-0.052	-0.202
-248.019	-180.924	0.059	0.001
-247.005	-200.000	-0.017	-0.249
-245.990	-71.824	0.069	0.026
-244.976	-103.382	-0.248	-0.059
-243.961	-196.294	0.298	-0.002
-242.946	196.751	0.062	0.095
-241.932	88.670	0.111	-0.124
-240.917	-155.841	0.431	0.028
-239.903	124.973	0.283	-0.357
-238.888	-200.000	-0.042	-0.223
-237.873	-128.953	-0.400	0.056
-236.859	-63.210	0.167	0.069
-235.844	193.265	0.132	-0.200
-234.830	800.000	0.084	-0.237
-233.815	283.788	-0.110	0.198
-232.800	346.544	0.086	0.169
-231.786	285.583	-0.166	-0.300
-230.771	195.498	-0.159	-0.242
-229.757	800.000	-0.103	0.363
-228.742	-130.343	-0.313	0.043
-227.727	90.575	0.129	0.145
-226.713	-50.453	0.102	-0.048
-225.698	404.924	0.156	0.330
-224.684	-200.000	0.033	-0.315
-223.669	341.122	0.124	-0.243
-222.655	-91.369	0.246	-0.070
-221.640	38.539	-0.144	0.129
-220.625	187.891	-0.045	0.068
-219.611	-150.415	0.416	0.032
-218.596	521.096	-0.133	-0.312
-217.582	-66.705	-0.174	-0.069
-216.567	-148.594	-0.234	0.019
-215.552	211.058	0.061	-0.096
-214.538	364.752	-0.142	0.287
-213.523	500.484	-0.085	0.196
-212.509	-13.472	0.212	0.137
-211.494	117.581	0.289	-0.356
-210.479	303.638	-0.100	-0.187
-209.465	115.696	0.106	-0.130
-208.450	-200.000	-0.008	0.124
-207.436	-51.402	0.386	0.181
-206.421	800.000	0.046	0.170
-205.406	-36.876	0.375	0.201
-204.392	-29.373	0.335	0.192
-203.377	65.838	0.081	-0.082
-202.363	-106.177	0.297	-0.067
-201.348	800.000	0.074	-0.222
-200.333	-200.000	0.005	-0.298
-199.319	41.166	-0.183	-0.166
-198.304	-17.470	0.297	-0.187
-197.290	356.051	0.072	0.143
-196.275	-82.592	-0.337	-0.109
-195.260	-200.000	0.039	-0.251
-194.246	-20.755	-0.165	0.102
-193.231	40.623	0.082	0.074
-192.217	-50.914	-0.262	0.123
-191.202	-200.000	-0.149	0.662
-190.187	270.332	0.125	-0.221
-189.173	226.468	-0.203	0.330
-188.158	-66.555	0.253	0.100
-187.144	800.000	0.046	0.197
-186.129	-17.600	-0.145	-0.091
-185.114	86.607	0.190	-0.210
-184.100	-160.561	-0.247	0.013
-183.085	-45.394	-0.083	0.041
-182.071	-86.514	0.463	-0.142
-181.056	-106.433	0.221	0.049
-180.042	179.533	-0.120	0.176
-179.027	-200.000	-0.013	0.126
-178.012	800.000	-0.046	-0.176
-176.998	201.820	0.249	0.384
-175.983	-200.000	-0.013	0.157
-174.969	120.860	-0.091	0.113
-173.954	-52.878	0.128	0.059
-172.939	-104.729	0.075	-0.017
-171.925	-132.915	0.187	-0.024
-170.910	-129.918	0.221	0.030
-169.896	-10.179	0.376	0.250
-168.881	100.882	-0.092	0.107
-167.866	-91.459	0.238	0.068
-166.852	87.691	0.061	0.068
-165.837	-200.000	-0.024	-0.179
-164.823	-200.000	-0.003	0.078
-163.808	268.592	0.156	-0.273
-162.793	46.442	-0.287	-0.266
-161.779	4.366	-0.141	-0.103
-160.764	-32.742	0.538	0.299
-159.750	-13.406	-0.195	0.126
-158.735	-131.900	-0.485	0.063
-157.720	206.620	0.113	0.176
-156.706	145.285	0.106	0.142
-155.691	69.997	0.198	0.204
-154.677	800.000	-0.051	-0.160
-153.662	340.145	-0.068	-0.133
-152.647	687.267	-0.067	-0.175
-151.633	800.000	0.044	0.154
-150.618	-12.835	-0.083	0.054
-149.604	366.939	0.158	-0.319
-148.589	305.527	0.082	-0.153
-147.574	-105.571	-0.154	0.035
-146.560	-200.000	0.009	-0.152
-145.545	-153.026	-0.251	-0.018
-144.531	-12.476	-0.262	0.171
-143.516	25.498	-0.159	-0.132
-142.502	769.248	-0.156	-0.424
-141.487	-29.676	0.152	-0.087
-140.472	9.081	-0.060	-0.045
-139.458	271.360	-0.181	0.319
-138.443	-200.000	0.024	0.148
-137.429	-102.110	-0.282	0.068
-136.414	249.316	0.141	0.239
-135.399	-200.000	-0.048	0.399
-134.385	96.657	-0.237	-0.272
-133.370	-200.000	-0.003	-0.115
-132.356	-31.676	-0.375	-0.210
-131.341	-126.126	0.225	-0.034
-130.326	-27.075	0.122	-0.071
-129.312	-141.262	-0.085	0.009
-128.297	-43.694	-0.200	0.101
-127.283	800.000	0.098	0.307
-126.268	-1.294	0.341	0.240
-125.253	-68.751	0.150	0.058
-124.239	-57.208	0.529	0.233
-123.224	233.292	0.066	0.108
-122.210	69.341	-0.198	-0.204
-121.195	263.798	-0.061	0.105
-120.180	-80.545	0.139	-0.046
-119.166	-141.098	-0.292	-0.030
-118.151	404.460	-0.101	-0.212
-117.137	-200.000	0.002	-0.181
-116.122	325.385	-0.120	0.228
-115.107	-200.000	-0.029	0.289
-114.093	-107.947	0.410	-0.089
-113.078	263.003	-0.234	-0.405
-112.064	56.122	0.236	-0.229
-111.049	393.859	-0.046	0.095
-110.034	-200.000	-0.012	0.064
-109.020	166.154	0.046	-0.065
-108.005	234.200	0.110	0.181
-106.991	182.021	0.131	0.192
-105.976	-12.445	0.397	0.258
-104.962	38.560	0.071	0.063
-103.947	800.000	-0.032	0.120
-102.932	-30.792	-0.225	0.127
-101.918	-79.363	0.160	-0.054
-100.903	51.989	-0.267	0.253
-99.889	95.095	-0.112	0.127
-98.874	31.825	-0.106	0.091
-97.859	-81.450	-0.067	-0.022
-96.845	41.987	-0.201	0.182
-95.830	281.603	0.133	-0.237
-94.816	161.337	0.031	0.043
-93.801	-200.000	0.023	0.282
-92.786	100.482	-0.205	0.237
-91.772	-81.624	-0.319	-0.104
-90.757	-119.338	-0.323	0.056
-89.743	-122.040	-0.209	0.034
-88.728	-42.859	-0.137	-0.069
-87.713	-91.387	-0.199	-0.057
-86.699	-37.836	0.122	-0.065
-85.684	-200.000	-0.011	0.127
-84.670	-6.348	0.049	0.033
-83.655	174.188	0.059	0.085
-82.640	489.135	-0.125	-0.284
-81.626	251.775	-0.084	-0.143
-80.611	800.000	0.065	-0.182
-79.597	-200.000	0.013	-0.181
-78.582	139.072	0.096	-0.126
-77.567	504.724	0.056	-0.129
-76.553	-36.192	-0.106	0.057
-75.538	-184.491	0.264	-0.004
-74.524	-42.622	-0.122	0.062
-73.509	296.346	-0.197	-0.361
-72.494	-170.043	-0.288	-0.010
-71.480	34.572	-0.068	0.059
-70.465	-3.096	0.257	-0.179
-69.451	-107.572	-0.125	-0.027
-68.436	-144.046	0.279	0.026
-67.422	331.089	0.045	0.086
-66.407	-27.593	0.287	0.166
-65.392	-112.086	-0.234	0.047
-64.378	-181.221	0.173	0.003
-63.363	168.256	-0.107	0.151
-62.349	800.000	0.011	0.042
-61.334	-0.113	-0.964	-0.683
-60.319	84.943	0.212	0.232
-59.305	-200.000	-0.008	-0.975
-58.290	800.000	0.208	0.715
-57.276	800.000	0.597	1.695
-56.261	-200.000	75.566	534.117
-55.246	560.176	1308.567	3147.371
-54.232	145.433	2551.702	3401.951
-53.217	119.217	2254.740	2777.017
-52.203	53.277	1772.517	1690.850
-51.188	45.673	1566.851	1441.385
-50.173	42.745	1537.232	1393.828
-49.159	58.657	1574.463	1539.217
-48.144	64.858	1594.093	1601.693
-47.130	45.913	1556.626	1433.424
-46.115	42.187	1542.476	1394.475
-45.100	42.080	1538.505	1390.090
-44.086	42.049	1537.213	1388.650
-43.071	41.997	1534.841	1386.094
-42.057	41.977	1533.070	1384.304
-41.042	41.945	1531.416	1382.529
-40.027	42.014	1529.933	1381.615
-39.013	41.926	1529.340	1380.416
-37.998	41.979	1527.321	1378.905
-36.984	41.968	1526.215	1377.775
-35.969	41.988	1525.047	1376.801
-34.954	42.046	1523.467	1375.718
-33.940	42.017	1521.820	1373.979
-32.925	41.981	1520.497	1372.487
-31.911	41.991	1519.395	1371.501
-30.896	42.007	1518.629	1370.868
-29.881	41.997	1516.932	1369.210
-28.867	42.041	1515.566	1368.227
-27.852	41.945	1514.885	1366.902
-26.838	42.033	1512.539	1365.328
-25.823	41.951	1510.684	1363.043
-24.809	41.942	1509.289	1361.668
-23.794	41.938	1507.430	1359.912
-22.779	42.031	1506.057	1359.251
-21.765	42.013	1505.944	1358.968
-20.750	42.000	1504.668	1357.677
-19.736	42.018	1503.318	1356.531
-18.721	41.982	1501.346	1354.450
-17.706	41.866	1500.609	1352.949
-16.692	41.977	1499.636	1352.766
-15.677	41.965	1498.772	1351.855
-14.663	41.915	1497.726	1350.520
-13.648	41.957	1496.556	1349.693
-12.633	41.847	1495.961	1348.358
-11.619	41.877	1495.383	1347.990
-10.604	41.827	1494.048	1346.398
-9.590	41.962	1492.914	1346.226
-8.575	41.837	1492.507	1344.967
-7.560	41.947	1491.357	1344.617
-6.546	41.927	1490.647	1343.789
-5.531	41.953	1489.245	1342.645
-4.517	41.847	1488.738	1341.423
-3.502	41.893	1487.717	1340.763
-2.487	41.808	1486.959	1339.451
-1.473	41.822	1485.766	1338.421
-0.458	41.973	1483.807	1337.614
0.556	40.949	1474.911	1328.011
1.571	38.381	1447.407	1286.271
2.586	34.908	1385.491	1209.228
3.600	33.280	1302.407	1126.931
4.615	31.240	1253.704	1072.984
5.629	25.537	1193.752	990.277
6.644	12.433	1099.168	844.815
7.659	2.591	1050.461	758.758
8.673	1.068	1044.903	747.173
9.688	0.870	1041.943	744.018
10.702	0.710	1040.290	741.986
11.717	0.682	1038.741	740.679
12.731	4.692	1044.346	764.339
13.746	16.070	1060.097	832.267
14.761	23.116	1068.927	874.072
15.775	23.178	1068.521	873.972
16.790	23.160	1067.442	872.920
17.804	23.035	1066.493	871.452
18.819	22.786	1065.546	869.374
19.834	22.918	1064.908	869.430
20.848	23.041	1064.500	869.621
21.863	22.995	1064.416	869.251
22.877	23.084	1063.548	868.902
23.892	23.010	1063.289	868.249
24.907	22.855	1062.427	866.708
25.921	22.822	1061.693	865.872
26.936	23.001	1060.586	865.769
27.950	22.952	1059.436	864.511
28.965	22.886	1058.687	863.502
29.980	22.678	1056.782	860.860
30.994	22.762	1055.521	860.164
32.009	22.827	1055.071	860.037
33.023	23.172	1054.061	860.819
34.038	22.775	1053.274	858.167
35.053	22.908	1052.212	857.871
36.067	22.964	1051.796	857.732
37.082	22.913	1051.063	856.810
38.096	23.067	1050.260	856.826
39.111	23.037	1049.760	856.195
40.126	23.172	1048.889	856.065
41.140	23.193	1047.971	855.338
42.155	22.835	1045.835	851.792
43.169	22.571	1044.856	849.647
44.184	22.538	1043.786	848.546
45.199	22.665	1042.837	848.309
46.213	22.542	1041.667	846.692
47.228	22.633	1040.998	846.509
48.242	22.725	1040.318	846.323
49.257	22.834	1039.376	846.003
50.271	22.861	1038.818	845.606
51.286	22.966	1037.960	845.331
52.301	23.036	1037.397	845.133
53.315	22.947	1036.347	843.780
54.330	22.991	1035.919	843.567
55.344	22.966	1034.827	842.482
56.359	22.879	1034.243	841.518
57.374	23.039	1033.066	841.249
58.388	22.742	1032.204	839.061
59.403	22.765	1031.381	838.426
60.417	22.668	1031.283	837.811
61.432	22.590	1030.196	836.486
62.447	22.590	1029.326	835.702
63.461	22.702	1029.079	835.959
64.476	22.689	1028.096	835.025
65.490	22.707	1027.027	834.166
66.505	22.649	1026.223	833.166
67.520	22.604	1025.441	832.246
68.534	22.684	1024.591	831.860
69.549	22.721	1023.912	831.411
70.563	22.276	1022.573	828.153
71.578	22.179	1021.840	827.032
72.593	22.231	1021.388	826.837
73.607	22.211	1019.890	825.456
74.622	22.001	1019.636	824.193
75.636	22.444	1018.584	825.347
76.651	22.683	1017.385	825.420
77.666	22.598	1016.517	824.245
78.680	22.394	1015.870	822.692
79.695	22.299	1015.833	822.147
80.709	22.507	1015.286	822.603
81.724	22.650	1014.320	822.417
82.739	22.599	1013.326	821.301
83.753	22.488	1012.604	820.125
84.768	22.796	1011.987	820.985
85.782	23.247	1010.998	822.203
86.797	23.358	1010.597	822.321
87.812	23.254	1009.860	821.167
88.826	23.066	1008.885	819.429
89.841	23.064	1008.185	818.778
90.855	23.122	1007.133	818.123
91.870	23.293	1006.311	818.171
92.884	23.026	1005.810	816.457
93.899	23.112	1004.530	815.744
94.914	22.947	1003.911	814.407
95.928	23.145	1003.301	814.755
96.943	23.057	1001.985	813.208
97.957	22.906	1000.798	811.478
98.972	22.671	999.579	809.341
99.987	22.512	998.745	807.865
101.001	22.534	998.369	807.592
102.016	22.870	997.630	808.462
103.030	22.930	996.870	808.048
104.045	22.806	995.636	806.410
105.060	22.747	994.411	805.075
106.074	22.588	993.187	803.288
107.089	22.527	992.631	802.488
108.103	22.874	992.465	803.866
109.118	23.030	991.511	803.730
110.133	22.769	990.663	801.784
111.147	22.598	989.512	800.008
112.162	22.623	988.058	798.876
113.176	22.346	986.875	796.592
114.191	22.462	986.127	796.445
115.206	22.656	985.582	796.811
116.220	22.308	984.491	794.287
117.235	22.056	983.320	792.133
118.249	22.450	982.787	793.410
119.264	22.358	982.121	792.387
120.279	22.239	981.024	790.899
121.293	22.401	979.671	790.465
122.308	22.341	979.662	790.119
123.322	22.393	978.452	789.304
124.337	22.396	977.320	788.336
125.352	22.161	976.490	786.546
126.366	21.903	974.449	783.680
127.381	21.701	973.274	781.765
128.395	22.048	973.196	783.179
129.410	22.635	973.176	785.714
130.424	22.799	972.377	785.727
131.439	22.860	971.014	784.828
132.454	22.726	970.108	783.433
133.468	22.875	969.388	783.441
134.483	22.916	968.262	782.645
135.497	22.962	967.521	782.181
136.512	23.178	967.185	782.793
137.527	23.186	966.324	782.061
138.541	23.118	965.909	781.360
139.556	23.126	964.932	780.535
140.570	23.119	964.013	779.689
141.585	23.172	963.506	779.444
142.600	23.161	962.669	778.652
143.614	23.133	961.595	777.587
144.629	23.284	960.761	777.511
145.643	23.484	960.014	777.713
146.658	23.316	959.406	776.416
147.673	23.315	957.875	775.104
148.687	23.040	956.826	772.985
149.702	22.935	955.825	771.650
150.716	22.879	954.937	770.617
151.731	22.903	953.957	769.863
152.746	22.871	953.122	768.982
153.760	23.166	952.282	769.518
154.775	23.369	951.865	769.999
155.789	23.246	951.091	768.770
156.804	23.307	949.867	767.976
157.819	23.268	948.830	766.902
158.833	23.239	948.016	766.051
159.848	23.395	947.558	766.287
160.862	23.284	946.795	765.123
161.877	23.201	945.963	764.025
162.892	23.188	945.180	763.266
163.906	23.332	943.752	762.669
164.921	23.248	943.481	762.020
165.935	23.155	942.162	760.486
166.950	23.228	940.872	759.693
167.964	23.288	939.991	759.171
168.979	23.218	938.996	758.001
169.994	23.219	937.837	757.000
171.008	22.934	937.475	755.422
172.023	23.143	936.293	755.299
173.037	23.226	935.541	754.978
174.052	23.189	934.402	753.835
175.067	23.070	933.310	752.381
176.081	22.953	932.317	751.018
177.096	23.063	932.064	751.214
178.110	22.997	931.295	750.248
179.125	22.796	929.749	748.082
180.140	22.572	928.883	746.371
181.154	22.599	928.051	745.750
182.169	22.582	927.676	745.311
183.183	23.021	927.498	746.958
184.198	23.133	927.389	747.276
185.213	23.206	926.370	746.700
186.227	22.987	925.916	745.343
187.242	23.186	925.184	745.527
188.256	23.284	924.465	745.292
189.271	23.335	923.377	744.567
190.286	23.366	922.463	743.893
191.300	23.104	922.012	742.364
192.315	22.684	920.754	739.523
193.329	22.053	918.702	735.169
194.344	21.565	917.865	732.392
195.359	22.137	918.219	735.003
196.373	22.826	918.544	738.081
197.388	23.111	918.270	738.985
198.402	23.007	917.441	737.821
199.417	23.058	916.908	737.539
200.432	23.107	916.620	737.446
201.446	23.038	915.615	736.285
202.461	22.753	914.512	734.149
203.475	22.701	914.547	733.894
204.490	22.545	912.892	731.854
205.504	21.217	910.827	724.628
206.519	21.686	910.580	726.310
207.534	22.566	910.990	730.220
208.548	22.697	910.400	730.225
209.563	22.993	910.426	731.407
210.577	23.214	909.472	731.490
211.592	22.869	908.788	729.452
212.607	23.149	908.694	730.468
213.621	23.266	908.308	730.573
214.636	23.198	907.326	729.439
215.650	23.359	906.753	729.577
216.665	23.263	906.144	728.626
217.680	23.316	905.485	728.254
218.694	23.325	905.331	728.102
219.709	22.993	904.417	725.936
220.723	22.715	903.445	723.952
221.738	22.915	902.839	724.221
222.753	23.041	902.411	724.332
223.767	22.891	902.103	723.406
224.782	23.146	901.049	723.541
225.796	23.174	900.711	723.319
226.811	23.514	899.680	723.815
227.826	23.230	898.458	721.610
228.840	22.305	897.109	716.697
229.855	22.150	896.717	715.690
230.869	22.391	896.333	716.300
231.884	22.153	895.353	714.486
232.899	22.096	894.528	713.533
233.913	22.797	894.983	716.679
234.928	23.100	894.282	717.283
235.942	22.989	893.459	716.110
236.957	23.096	892.838	715.984
237.972	22.668	891.988	713.506
238.986	22.583	891.434	712.655
240.001	22.921	890.414	713.142
241.015	22.820	890.077	712.404
242.030	22.765	889.550	711.696
243.045	22.905	889.426	712.098
244.059	23.075	888.540	712.008
245.074	23.287	888.035	712.395
246.088	23.212	886.853	711.082
247.103	22.939	886.127	709.343
248.117	22.759	885.942	708.406
249.132	23.430	885.378	710.583
250.147	23.692	885.683	711.818
251.161	23.863	884.867	711.782
252.176	23.897	884.591	711.633
253.190	23.770	884.274	710.807
254.205	23.908	883.626	710.775
255.220	24.145	883.027	711.177
256.234	24.152	882.521	710.735
257.249	23.952	882.115	709.549
258.263	23.883	881.280	708.540
259.278	23.691	880.969	707.460
260.293	23.902	880.509	707.870
261.307	23.987	879.767	707.547
262.322	23.954	878.741	706.528
263.336	23.828	878.203	705.536
264.351	23.350	876.954	702.573
265.366	22.271	874.883	696.579
266.380	21.858	873.895	694.100
267.395	22.740	874.263	697.818
268.409	23.460	874.419	700.728
269.424	23.586	873.661	700.558
270.439	23.704	873.425	700.770
271.453	23.878	872.609	700.741
272.468	23.764	871.825	699.602
273.482	24.007	871.156	699.958
274.497	24.031	871.123	699.962
275.512	23.901	870.286	698.718
276.526	23.352	868.680	695.211
277.541	23.516	868.440	695.602
278.555	23.914	868.444	697.106
279.570	23.738	867.544	695.631
280.585	23.400	867.177	693.953
281.599	23.518	866.272	693.627
282.614	23.638	866.241	694.011
283.628	23.339	864.649	691.506
284.643	22.781	864.118	688.845
285.657	23.341	863.762	690.684
286.672	23.158	863.430	689.643
287.687	22.727	862.350	687.044
288.701	22.976	861.985	687.661
289.716	23.456	861.900	689.399
290.730	23.126	860.646	687.053
291.745	22.928	860.492	686.101
292.760	22.845	859.268	684.743
293.774	22.695	858.618	683.582
294.789	23.584	859.452	687.632
295.803	24.219	859.694	690.224
296.818	24.407	858.462	689.901
297.833	24.374	858.477	689.725
298.847	24.137	857.345	687.839
299.862	23.689	856.473	685.352
300.876	23.978	855.588	685.695
301.891	24.395	855.075	686.829
302.906	24.493	854.424	686.625
303.920	23.936	853.929	684.023
304.935	23.840	852.631	682.555
305.949	24.204	852.824	684.044
306.964	24.233	852.478	683.819
307.979	24.054	851.725	682.467
308.993	24.039	851.158	681.894
310.008	24.302	850.774	682.534
311.022	24.464	850.541	682.906
312.037	24.368	849.710	681.815
313.052	24.000	849.399	680.099
314.066	23.984	848.346	679.133
315.081	23.375	846.758	675.480
316.095	22.616	845.696	671.684
317.110	23.129	845.460	673.389
318.125	23.946	846.166	677.005
319.139	23.655	845.070	674.960
320.154	22.614	843.388	669.606
321.168	22.018	842.114	666.273
322.183	22.705	842.302	668.970
323.197	23.498	843.098	672.550
324.212	23.912	842.526	673.602
325.227	24.111	841.805	673.719
326.241	24.156	841.989	673.980
327.256	24.033	841.094	672.738
328.270	23.816	840.676	671.523
329.285	23.947	839.727	671.200
330.300	23.757	839.189	669.995
331.314	23.485	838.415	668.292
332.329	23.396	837.928	667.509
333.343	23.899	837.398	668.921
334.358	24.006	837.263	669.157
335.373	24.189	836.653	669.298
336.387	24.264	836.251	669.199
337.402	24.418	835.899	669.437
338.416	24.562	835.309	669.443
339.431	24.459	834.858	668.638
340.446	24.557	834.419	668.595
341.460	24.845	833.854	669.159
342.475	24.685	833.200	667.975
343.489	24.679	832.197	667.090
344.504	24.576	831.826	666.350
345.519	24.773	831.586	666.832
346.533	25.030	831.370	667.559
347.548	25.125	830.884	667.463
348.562	25.094	830.281	666.804
349.577	25.073	829.560	666.087
350.592	24.980	829.133	665.340
351.606	24.839	828.652	664.374
352.621	24.803	828.251	663.858
353.635	24.857	827.831	663.664
354.650	24.780	826.968	662.626
355.665	24.463	826.069	660.675
356.679	23.541	824.258	655.764
357.694	23.306	823.992	654.624
358.708	23.832	824.148	656.635
359.723	23.961	823.525	656.557
360.738	24.235	822.771	656.908
361.752	24.645	823.019	658.558
362.767	24.700	822.655	658.409
363.781	24.937	822.666	659.234
364.796	25.225	822.645	660.220
365.810	25.318	822.032	660.008
366.825	25.486	821.762	660.354
367.840	25.245	821.565	659.248
368.854	25.233	820.625	658.395
369.869	24.828	819.663	656.080
370.883	24.642	818.897	654.727
371.898	24.714	818.565	654.668
372.913	24.582	817.940	653.625
373.927	24.504	817.306	652.777
374.942	24.794	816.485	653.122
375.956	25.043	815.636	653.291
376.971	25.023	815.626	653.152
377.986	25.002	815.130	652.622
379.000	25.190	814.892	653.059
380.015	25.149	814.672	652.677
381.029	25.134	813.706	651.789
382.044	25.030	813.040	650.821
383.059	25.208	812.686	651.127
384.073	25.244	811.688	650.398
385.088	25.109	811.968	650.076
386.102	25.272	811.020	649.851
387.117	25.161	810.374	648.875
388.132	25.001	809.589	647.608
389.146	24.780	809.221	646.458
390.161	24.234	808.230	643.638
391.175	24.288	807.856	643.478
392.190	24.854	807.810	645.429
393.205	24.879	807.554	645.255
394.219	24.003	805.896	640.721
395.234	22.357	803.773	633.060
396.248	21.744	802.382	629.708
397.263	22.455	803.438	633.037
398.278	24.580	804.241	641.252
399.292	24.959	804.444	642.717
400.307	24.772	803.178	640.977
401.321	24.510	803.389	640.149
402.336	24.730	802.621	640.270
403.350	25.108	802.483	641.454
404.365	25.460	802.424	642.610
405.380	25.706	802.684	643.644
406.394	25.986	802.160	644.166
407.409	26.147	801.784	644.380
408.423	26.157	801.392	644.044
409.438	25.991	800.731	642.864
410.453	25.889	800.549	642.299
411.467	26.055	800.043	642.427
412.482	25.998	799.299	641.568
413.496	26.041	798.635	641.133
414.511	26.212	798.267	641.388
415.526	25.987	798.495	640.714
416.540	26.152	797.712	640.616
417.555	25.946	797.098	639.335
418.569	25.883	795.911	638.104
419.584	25.678	795.672	637.131
420.599	25.705	795.623	637.129
421.613	91.425	1253.457	1353.883
422.628	78.095	1320.160	1354.023
