DTS Sentinel unit serial number:	SN413079Multiplexer serial number:	ORYXHardware model number:	OX4-SRSoftware version number:	ORYX F/W v4.00 Oryx Data Collector v3.7.2.0data status	okinstallation	princeton_trtdifferential loss correction	single-endedforward channel	channel 3reverse channel	N/Adate	2019/09/17time	20:04:34forward acquisition time	60.00reverse acquisition time	0.00gamma	496.2192k internal	0.2326k external	0.2326temperature offset calibration	0.9948default loss term (dB/km)	0.3790temperature slope calibration	1.0000multiplexer offset coefficient	1.0000multiplexer slope coefficient	1.0000fibre end	0.00T internal ref (°C)	32.86T ext. ref 1 (°C)	0.22T ext. ref 2 (°C)	22.75length (m)	temperature (°C)	Stokes	anti-Stokes-747.200	354.834	0.106	-0.213
-746.185	19.913	-0.175	-0.143
-745.171	-97.127	0.300	0.079
-744.156	-200.000	0.052	0.292
-743.142	-73.001	0.159	-0.059
-742.127	-200.000	-0.044	-0.000
-741.112	-200.000	0.028	0.515
-740.098	-200.000	-0.018	0.159
-739.083	439.712	0.092	0.203
-738.069	132.620	-0.141	0.183
-737.054	-62.691	0.030	-0.013
-736.039	-23.596	0.064	0.039
-735.025	-1.527	0.075	0.053
-734.010	158.722	-0.235	-0.329
-732.996	124.926	0.217	0.276
-731.981	800.000	-0.033	-0.112
-730.966	-162.848	-0.345	0.017
-729.952	-111.622	-0.523	-0.107
-728.937	17.696	0.120	0.096
-727.923	-200.000	-0.007	-0.105
-726.908	800.000	0.033	0.114
-725.894	-137.184	-0.306	-0.035
-724.879	800.000	-0.008	-0.033
-723.864	194.944	-0.282	-0.432
-722.850	-12.839	-0.038	-0.025
-721.835	-134.746	0.068	0.008
-720.821	-200.000	-0.021	-0.124
-719.806	-34.079	-0.225	-0.124
-718.791	-200.000	-0.059	-0.359
-717.777	353.100	0.221	-0.442
-716.762	117.657	-0.015	0.018
-715.748	-55.021	-0.118	0.054
-714.733	-200.000	0.004	0.109
-713.718	93.989	-0.143	0.163
-712.704	85.151	0.090	-0.100
-711.689	-109.348	-0.257	0.055
-710.675	800.000	0.035	-0.144
-709.660	-120.317	-0.138	-0.024
-708.645	-125.438	-0.419	-0.064
-707.631	-62.160	0.333	-0.140
-706.616	-68.804	0.127	-0.050
-705.602	-58.302	-0.214	-0.094
-704.587	-28.640	0.058	0.033
-703.572	317.281	-0.068	0.129
-702.558	-200.000	0.017	-0.145
-701.543	-200.000	0.006	-0.165
-700.529	-92.514	0.198	-0.056
-699.514	-41.812	-0.235	0.122
-698.499	-30.728	0.224	0.128
-697.485	-200.000	-0.001	-0.190
-696.470	-112.326	0.330	0.066
-695.456	246.500	-0.187	-0.317
-694.441	154.159	0.089	0.123
-693.426	-126.272	0.064	-0.010
-692.412	-1.622	-0.157	-0.111
-691.397	19.317	0.213	-0.172
-690.383	489.017	-0.116	0.267
-689.368	-63.087	0.228	-0.095
-688.354	370.249	-0.029	0.060
-687.339	-173.328	-0.063	0.002
-686.324	71.452	-0.139	0.145
-685.310	-107.681	-0.129	-0.028
-684.295	204.845	0.065	-0.102
-683.281	-200.000	-0.016	-0.330
-682.266	-74.673	-0.352	-0.127
-681.251	800.000	-0.093	-0.293
-680.237	40.455	-0.391	0.354
-679.222	530.715	-0.077	0.182
-678.208	-117.249	-0.287	-0.052
-677.193	-184.745	-0.268	-0.004
-676.178	28.457	0.296	-0.252
-675.164	184.507	0.214	0.319
-674.149	79.366	-0.149	0.161
-673.135	26.643	0.035	0.029
-672.120	20.206	-0.069	0.056
-671.105	64.379	-0.143	-0.145
-670.091	-200.000	-0.091	-0.430
-669.076	-200.000	0.004	-0.115
-668.062	-57.429	0.096	0.043
-667.047	425.998	0.128	-0.277
-666.032	-83.487	-0.377	-0.121
-665.018	800.000	0.050	0.188
-664.003	-149.389	-0.179	-0.014
-662.989	431.699	0.059	0.129
-661.974	-64.891	0.399	0.162
-660.959	4.422	0.124	-0.091
-659.945	-48.415	0.247	-0.120
-658.930	-107.801	0.279	0.061
-657.916	73.912	-0.213	0.224
-656.901	-156.812	-0.218	0.013
-655.886	-128.020	0.179	-0.026
-654.872	-82.476	0.056	0.018
-653.857	-179.176	0.446	0.010
-652.843	89.574	-0.068	-0.076
-651.828	-108.047	0.234	-0.051
-650.814	88.278	-0.182	-0.203
-649.799	155.269	0.107	0.148
-648.784	-30.257	0.165	0.094
-647.770	-200.000	-0.031	0.184
-646.755	477.437	-0.058	-0.131
-645.741	-180.553	0.218	0.005
-644.726	-200.000	0.019	0.168
-643.711	-200.000	0.030	0.189
-642.697	-200.000	-0.050	-0.294
-641.682	-200.000	-0.004	0.079
-640.668	161.085	0.139	-0.195
-639.653	-31.828	-0.195	-0.110
-638.638	710.143	-0.016	0.043
-637.624	26.268	0.215	0.181
-636.609	-17.275	-0.265	0.168
-635.595	102.671	0.088	-0.103
-634.580	800.000	-0.017	0.062
-633.565	462.562	0.067	0.150
-632.551	800.000	0.063	-0.246
-631.536	-188.941	0.176	0.002
-630.522	-47.603	-0.235	0.115
-629.507	192.748	-0.150	0.228
-628.492	-76.205	-0.031	-0.011
-627.478	311.592	-0.033	0.063
-626.463	800.000	-0.104	0.306
-625.449	-37.213	0.185	-0.099
-624.434	404.083	0.058	-0.123
-623.419	-32.368	-0.203	0.114
-622.405	31.492	-0.253	-0.219
-621.390	-106.578	-0.181	-0.041
-620.376	-106.235	0.103	-0.023
-619.361	79.924	-0.095	-0.102
-618.346	800.000	0.060	-0.223
-617.332	68.054	-0.180	0.185
-616.317	-92.904	0.520	-0.146
-615.303	-73.826	-0.131	-0.048
-614.288	240.718	0.162	-0.271
-613.273	800.000	0.061	-0.236
-612.259	-133.779	-0.205	0.026
-611.244	-40.453	-0.173	0.090
-610.230	58.676	0.285	0.281
-609.215	-77.440	0.013	-0.005
-608.201	21.971	-0.174	-0.142
-607.186	529.033	-0.151	-0.357
-606.171	-82.625	-0.245	-0.080
-605.157	-28.991	0.284	0.164
-604.142	800.000	-0.020	0.066
-603.128	-190.368	0.330	0.004
-602.113	-200.000	-0.008	-0.233
-601.098	-52.296	-0.299	-0.139
-600.084	-117.635	0.206	-0.037
-599.069	-164.426	0.225	0.010
-598.055	48.626	-0.170	0.159
-597.040	-104.288	-0.215	0.050
-596.025	800.000	0.048	0.193
-595.011	97.824	0.166	0.192
-593.996	-81.845	-0.155	0.051
-592.982	-36.676	0.170	-0.092
-591.967	-111.734	0.161	0.033
-590.952	-147.117	-0.183	-0.016
-589.938	118.128	0.071	0.087
-588.923	800.000	0.010	-0.036
-587.909	800.000	0.048	-0.155
-586.894	98.815	0.259	-0.300
-585.879	-45.257	0.154	-0.077
-584.865	510.141	0.119	-0.277
-583.850	273.926	-0.136	0.241
-582.836	3.180	-0.257	-0.187
-581.821	-130.125	0.112	0.015
-580.806	-81.756	-0.256	-0.084
-579.792	26.206	0.103	0.086
-578.777	-160.926	-0.179	-0.009
-577.763	19.351	0.335	0.269
-576.748	45.441	0.038	-0.035
-575.733	-200.000	0.032	-0.217
-574.719	84.352	-0.104	-0.114
-573.704	44.721	0.243	-0.224
-572.690	109.154	0.230	0.276
-571.675	-143.444	0.197	-0.019
-570.661	-200.000	0.031	-0.272
-569.646	267.887	-0.203	0.357
-568.631	-200.000	0.047	0.350
-567.617	-111.326	-0.264	-0.054
-566.602	-120.570	0.390	0.066
-565.588	-200.000	-0.024	-0.290
-564.573	800.000	-0.109	-0.312
-563.558	154.006	0.108	-0.148
-562.544	-200.000	0.015	0.128
-561.529	-121.376	0.212	-0.035
-560.515	-101.421	-0.146	0.036
-559.500	-25.668	0.255	-0.151
-558.485	800.000	0.086	0.323
-557.471	321.151	0.064	-0.121
-556.456	-200.000	-0.042	-0.261
-555.442	-120.521	0.219	0.037
-554.427	778.240	0.142	0.388
-553.412	-39.389	0.384	0.202
-552.398	220.455	0.013	-0.022
-551.383	-113.281	-0.131	-0.026
-550.369	-30.481	-0.047	0.026
-549.354	161.619	0.086	-0.120
-548.339	-31.272	-0.184	0.104
-547.325	-200.000	0.009	0.139
-546.310	800.000	-0.086	0.321
-545.296	-200.000	-0.039	-0.228
-544.281	316.618	0.061	-0.115
-543.266	12.448	-0.153	-0.118
-542.252	800.000	0.074	-0.288
-541.237	-164.701	0.230	-0.010
-540.223	-6.517	0.312	0.212
-539.208	-107.377	0.204	-0.045
-538.193	399.452	-0.046	-0.096
-537.179	-118.115	-0.158	-0.028
-536.164	-70.489	0.116	0.044
-535.150	61.532	0.086	0.086
-534.135	-111.738	-0.288	-0.058
-533.121	-139.436	0.207	0.022
-532.106	-85.544	-0.103	0.032
-531.091	-107.026	-0.172	-0.038
-530.077	-200.000	0.024	-0.318
-529.062	-87.980	0.127	-0.038
-528.048	-200.000	-0.021	-0.121
-527.033	-45.509	-0.283	-0.140
-526.018	-21.468	0.166	-0.101
-525.004	96.742	-0.191	-0.219
-523.989	203.220	0.062	0.096
-522.975	-125.312	-0.388	0.059
-521.960	249.509	-0.218	0.370
-520.945	-101.561	0.119	-0.029
-519.931	306.793	0.145	-0.270
-518.916	515.582	-0.188	-0.438
-517.902	800.000	0.059	-0.169
-516.887	258.300	0.097	0.167
-515.872	-71.235	0.176	-0.066
-514.858	423.236	0.244	0.524
-513.843	14.735	-0.178	-0.139
-512.829	-108.878	0.327	0.070
-511.814	597.563	0.018	0.045
-510.799	-124.327	-0.124	-0.019
-509.785	82.935	-0.273	0.297
-508.770	-200.000	0.069	-0.460
-507.756	202.659	-0.188	-0.291
-506.741	130.829	-0.115	-0.147
-505.726	-120.625	0.725	-0.123
-504.712	-93.076	-0.314	0.087
-503.697	800.000	0.033	0.126
-502.683	135.455	-0.073	-0.094
-501.668	800.000	0.041	0.131
-500.653	146.489	0.119	-0.159
-499.639	506.456	0.106	-0.246
-498.624	12.463	-0.548	-0.422
-497.610	128.182	0.097	-0.124
-496.595	-72.911	-0.240	-0.088
-495.581	-128.262	0.516	0.073
-494.566	-63.753	-0.118	0.048
-493.551	212.371	0.137	-0.216
-492.537	-51.216	-0.087	0.040
-491.522	-73.901	-0.225	-0.082
-490.508	43.686	0.225	-0.206
-489.493	-19.476	0.251	-0.155
-488.478	148.990	0.081	-0.110
-487.464	60.414	-0.309	0.305
-486.449	96.533	0.267	-0.305
-485.435	-200.000	0.032	-0.214
-484.420	-11.684	0.110	-0.072
-483.405	-136.723	0.146	0.017
-482.391	-200.000	-0.067	-0.411
-481.376	-200.000	-0.001	-0.205
-480.362	-140.572	0.232	0.024
-479.347	-30.500	0.161	-0.091
-478.332	174.907	-0.050	-0.072
-477.318	-114.399	-0.165	0.032
-476.303	800.000	0.046	-0.152
-475.289	758.635	-0.014	-0.037
-474.274	-17.491	0.130	-0.082
-473.259	-108.707	-0.176	-0.038
-472.245	22.806	-0.065	0.054
-471.230	-200.000	-0.002	-0.026
-470.216	-16.672	0.106	-0.067
-469.201	-8.464	-0.226	0.152
-468.186	65.876	0.155	0.157
-467.172	800.000	0.133	-0.539
-466.157	113.655	0.133	-0.161
-465.143	-163.107	-0.217	0.010
-464.128	585.902	-0.030	0.074
-463.113	800.000	0.073	-0.210
-462.099	22.784	0.080	-0.065
-461.084	248.572	0.087	0.147
-460.070	-156.603	-0.172	0.011
-459.055	127.390	0.053	0.067
-458.040	-122.577	0.256	0.042
-457.026	159.080	0.161	0.223
-456.011	-200.000	-0.001	-0.058
-454.997	22.918	-0.159	0.130
-453.982	800.000	-0.038	-0.107
-452.968	-200.000	0.007	-0.191
-451.953	-75.489	-0.111	0.039
-450.938	-107.805	0.138	-0.030
-449.924	-49.545	0.141	-0.067
-448.909	800.000	0.034	-0.107
-447.895	-2.433	0.149	0.104
-446.880	-79.131	0.029	-0.010
-445.865	-77.765	-0.087	-0.030
-444.851	-177.977	-0.171	0.004
-443.836	-111.538	0.165	0.033
-442.822	-9.282	0.159	-0.106
-441.807	118.247	-0.286	0.351
-440.792	-45.183	0.232	-0.115
-439.778	-172.452	-0.182	0.006
-438.763	-178.926	0.274	-0.006
-437.749	-11.206	-0.240	-0.158
-436.734	127.557	0.124	-0.157
-435.719	-128.886	-0.189	0.027
-434.705	35.486	-0.172	0.150
-433.690	800.000	0.116	0.319
-432.676	104.638	-0.303	0.355
-431.661	-156.675	0.036	-0.002
-430.646	131.049	0.255	-0.327
-429.632	175.493	0.048	-0.069
-428.617	-89.222	0.300	0.088
-427.603	-89.834	0.076	-0.022
-426.588	108.380	-0.185	0.220
-425.573	-48.834	-0.121	-0.058
-424.559	-8.879	-0.086	0.057
-423.544	-43.840	-0.311	-0.156
-422.530	541.552	-0.061	-0.144
-421.515	-20.372	-0.082	0.050
-420.500	102.546	0.218	-0.254
-419.486	35.678	-0.151	-0.132
-418.471	-182.914	-0.113	-0.002
-417.457	27.374	0.028	0.023
-416.442	800.000	0.079	-0.238
-415.428	-31.507	-0.265	0.148
-414.413	-172.413	-0.096	-0.003
-413.398	-24.302	-0.038	-0.022
-412.384	21.182	-0.095	-0.077
-411.369	370.518	-0.085	-0.171
-410.355	56.146	0.223	-0.216
-409.340	-14.211	0.196	-0.126
-408.325	-200.000	-0.017	-0.102
-407.311	-18.850	-0.096	-0.060
-406.296	-80.473	0.018	0.006
-405.282	-53.793	-0.138	-0.063
-404.267	586.378	0.030	0.073
-403.252	-200.000	-0.028	0.324
-402.238	0.345	-0.258	0.184
-401.223	-200.000	-0.055	0.277
-400.209	32.798	-0.092	-0.079
-399.194	-200.000	0.031	-0.312
-398.179	110.957	0.078	0.094
-397.165	-133.079	-0.162	-0.020
-396.150	-200.000	-0.007	0.139
-395.136	-101.176	0.385	-0.094
-394.121	-86.015	-0.121	0.037
-393.106	55.436	-0.030	0.029
-392.092	-152.030	-0.314	-0.023
-391.077	1.054	-0.206	-0.147
-390.063	52.880	-0.219	-0.209
-389.048	800.000	-0.051	0.143
-388.033	0.413	-0.253	0.180
-387.019	-0.102	-0.175	0.124
-386.004	-190.076	-0.152	0.002
-384.990	244.509	0.033	-0.055
-383.975	-200.000	-0.084	-0.422
-382.960	-200.000	0.207	-0.000
-381.946	-87.283	0.078	-0.024
-380.931	136.439	0.063	-0.081
-379.917	-200.000	0.012	0.086
-378.902	586.151	0.133	0.326
-377.888	-49.394	-0.198	0.094
-376.873	284.104	0.047	0.083
-375.858	-82.182	-0.121	-0.039
-374.844	-98.877	0.149	-0.038
-373.829	-88.028	0.131	0.039
-372.815	-200.000	0.036	0.335
-371.800	-200.000	-0.003	-0.016
-370.785	647.380	0.047	-0.120
-369.771	-167.626	-0.137	0.005
-368.756	403.523	0.085	-0.178
-367.742	-140.535	0.173	-0.018
-366.727	5.901	-0.357	0.263
-365.712	-69.793	-0.218	0.083
-364.698	299.120	-0.098	0.180
-363.683	-59.998	-0.315	0.134
-362.669	-127.277	-0.058	0.008
-361.654	-76.470	0.214	-0.075
-360.639	703.394	0.152	-0.398
-359.625	-45.070	0.150	-0.074
-358.610	-200.000	0.047	-0.311
-357.596	-136.581	0.256	0.029
-356.581	-200.000	0.024	0.122
-355.566	-127.518	0.423	0.061
-354.552	-200.000	0.006	0.063
-353.537	127.539	-0.168	-0.212
-352.523	-175.663	0.171	0.005
-351.508	-117.842	0.038	0.007
-350.493	-7.417	-0.280	-0.189
-349.479	800.000	-0.029	0.099
-348.464	-74.346	-0.266	0.095
-347.450	800.000	0.089	-0.289
-346.435	800.000	0.029	0.113
-345.420	-200.000	-0.011	-0.051
-344.406	-72.182	-0.135	-0.050
-343.391	207.337	-0.246	0.381
-342.377	-84.149	-0.285	0.090
-341.362	100.305	-0.131	0.151
-340.348	193.997	0.041	-0.062
-339.333	-19.567	0.122	-0.075
-338.318	182.793	0.076	-0.111
-337.304	-123.856	-0.180	0.028
-336.289	-59.265	0.184	0.079
-335.275	-94.264	-0.202	-0.055
-334.260	-200.000	0.035	0.196
-333.245	7.424	-0.198	0.147
-332.231	-200.000	0.006	0.108
-331.216	35.936	-0.031	0.027
-330.202	-200.000	-0.066	0.339
-329.187	-34.276	-0.235	0.128
-328.172	-37.408	0.194	0.103
-327.158	-73.774	0.066	-0.024
-326.143	-94.389	-0.130	0.035
-325.129	-200.000	-0.002	0.169
-324.114	-128.713	0.107	0.015
-323.099	-91.779	-0.097	-0.027
-322.085	-108.546	0.118	-0.025
-321.070	-74.717	0.242	-0.086
-320.056	293.574	0.135	0.245
-319.041	243.341	0.146	0.242
-318.026	-34.726	0.126	0.069
-317.012	-69.775	-0.030	0.011
-315.997	-3.290	-0.223	-0.154
-314.983	3.237	-0.434	0.313
-313.968	-90.337	-0.161	0.046
-312.953	525.203	0.178	0.416
-311.939	-110.124	-0.293	-0.061
-310.924	779.182	-0.052	0.142
-309.910	-200.000	-0.033	-0.215
-308.895	135.389	0.196	0.253
-307.880	-63.784	-0.048	0.019
-306.866	372.764	-0.143	0.289
-305.851	800.000	-0.059	0.233
-304.837	-61.094	-0.098	-0.041
-303.822	453.156	0.092	-0.201
-302.807	13.522	-0.264	-0.203
-301.793	36.219	0.186	0.163
-300.778	-81.083	0.281	0.092
-299.764	-122.672	0.053	0.009
-298.749	132.265	-0.280	-0.357
-297.735	40.873	-0.175	-0.156
-296.720	122.984	-0.080	-0.099
-295.705	-179.517	0.211	0.005
-294.691	69.960	0.097	0.099
-293.676	-184.436	-0.449	0.007
-292.662	259.560	0.050	-0.085
-291.647	-89.432	0.179	0.052
-290.632	212.943	-0.084	0.131
-289.618	257.938	-0.084	0.143
-288.603	16.311	-0.030	0.023
-287.589	-7.909	0.165	0.110
-286.574	-200.000	0.041	0.208
-285.559	33.466	-0.209	-0.180
-284.545	-160.860	-0.299	-0.016
-283.530	119.012	-0.087	0.106
-282.516	-98.399	0.069	0.018
-281.501	-164.497	0.177	0.008
-280.486	-33.373	0.152	0.083
-279.472	-87.921	0.132	0.039
-278.457	506.041	-0.085	-0.195
-277.443	-3.419	-0.016	-0.011
-276.428	-96.884	-0.106	0.027
-275.413	490.622	0.128	0.290
-274.399	-33.157	-0.283	0.155
-273.384	5.822	0.037	0.027
-272.370	-48.904	-0.274	0.130
-271.355	-124.537	0.128	-0.020
-270.340	335.116	-0.059	-0.112
-269.326	51.189	0.090	-0.084
-268.311	-66.989	-0.381	-0.149
-267.297	-200.000	0.030	0.138
-266.282	765.547	0.075	-0.203
-265.267	511.734	-0.135	0.311
-264.253	306.331	-0.069	0.127
-263.238	46.757	0.202	-0.186
-262.224	-68.545	0.093	-0.036
-261.209	219.131	0.165	0.262
-260.195	800.000	-0.027	0.111
-259.180	-22.880	-0.338	0.202
-258.165	-150.576	0.046	-0.003
-257.151	800.000	-0.050	0.155
-256.136	-78.130	-0.183	-0.062
-255.122	800.000	-0.056	-0.214
-254.107	50.433	0.307	0.287
-253.092	-31.645	-0.056	-0.031
-252.078	-0.457	0.154	-0.108
-251.063	343.956	-0.140	0.273
-250.049	-15.649	0.304	-0.192
-249.034	-166.634	-0.329	-0.014
-248.019	-200.000	-0.399	-0.002
-247.005	-78.508	-0.087	0.029
-245.990	234.486	0.216	-0.353
-244.976	221.429	-0.061	0.097
-243.961	-23.690	-0.282	0.167
-242.946	800.000	-0.132	0.455
-241.932	428.696	0.185	-0.396
-240.917	-86.921	0.412	-0.124
-239.903	25.659	-0.127	-0.105
-238.888	-200.000	0.022	-0.096
-237.873	-6.637	-0.277	-0.187
-236.859	-200.000	0.062	0.475
-235.844	287.957	0.174	0.311
-234.830	264.716	0.084	-0.145
-233.815	1.831	0.113	-0.080
-232.800	249.286	-0.103	0.172
-231.786	-94.310	0.185	-0.050
-230.771	800.000	-0.043	0.151
-229.757	800.000	0.049	0.198
-228.742	800.000	0.046	-0.153
-227.727	553.141	0.073	-0.174
-226.713	52.921	-0.140	0.133
-225.698	35.298	-0.265	0.230
-224.684	-22.021	0.179	-0.108
-223.669	-69.925	0.310	-0.117
-222.655	199.185	-0.087	-0.132
-221.640	46.569	0.115	-0.105
-220.625	240.161	0.093	-0.153
-219.611	12.561	-0.117	-0.089
-218.596	-157.158	-0.376	-0.023
-217.582	-25.632	0.238	0.139
-216.567	13.984	-0.023	0.017
-215.552	-160.671	-0.092	-0.005
-214.538	659.219	-0.178	0.452
-213.523	-200.000	-0.011	-0.434
-212.509	-51.325	0.114	0.052
-211.494	-93.655	0.497	-0.135
-210.479	708.354	-0.052	0.136
-209.465	-200.000	0.018	0.424
-208.450	-16.429	-0.288	-0.180
-207.436	718.278	0.042	-0.111
-206.421	-3.406	0.110	0.075
-205.406	-200.000	0.017	0.085
-204.392	-107.488	-0.054	-0.012
-203.377	42.855	-0.145	0.131
-202.363	132.274	0.129	-0.164
-201.348	-200.000	0.032	-0.160
-200.333	-78.769	-0.269	0.091
-199.319	143.403	0.118	0.155
-198.304	-94.087	0.416	0.113
-197.290	-200.000	-0.005	0.092
-196.275	-200.000	0.008	-0.040
-195.260	-149.553	0.278	-0.022
-194.246	-132.062	-0.349	-0.045
-193.231	-200.000	0.045	0.539
-192.217	130.201	0.062	0.078
-191.202	86.180	0.205	0.223
-190.187	133.876	0.117	0.149
-189.173	-200.000	0.033	0.367
-188.158	156.928	-0.086	-0.118
-187.144	387.010	0.046	-0.094
-186.129	374.879	-0.087	-0.176
-185.114	-142.488	0.305	0.030
-184.100	-28.662	-0.186	0.105
-183.085	-154.209	0.095	-0.006
-182.071	-120.748	0.274	-0.046
-181.056	-73.347	-0.075	-0.027
-180.042	-200.000	0.015	0.153
-179.027	-113.505	0.237	0.046
-178.012	-200.000	0.013	-0.079
-176.998	-62.961	-0.240	0.098
-175.983	-57.241	0.177	-0.077
-174.969	-200.000	-0.014	0.169
-173.954	10.481	0.343	0.258
-172.939	-5.830	-0.103	-0.070
-171.925	-137.573	0.177	-0.020
-170.910	-32.237	0.325	-0.179
-169.896	-36.695	-0.361	-0.191
-168.881	-103.669	-0.397	-0.092
-167.866	-63.931	0.165	-0.067
-166.852	800.000	0.039	0.138
-165.837	181.228	-0.225	0.326
-164.823	339.337	-0.167	-0.321
-163.808	285.822	-0.080	0.143
-162.793	-152.995	0.189	-0.013
-161.779	800.000	0.121	0.379
-160.764	383.714	0.080	0.163
-159.750	260.719	-0.163	-0.278
-158.735	-200.000	0.033	-0.155
-157.720	-51.976	0.130	-0.060
-156.706	-55.911	-0.337	0.148
-155.691	404.489	0.052	-0.107
-154.677	-13.473	-0.227	-0.145
-153.662	-89.823	0.198	-0.057
-152.647	539.195	-0.057	0.134
-151.633	-38.527	0.129	-0.067
-150.618	297.055	-0.099	-0.178
-149.604	-100.409	-0.318	0.078
-148.589	-101.271	0.276	-0.067
-147.574	-200.000	0.009	-0.109
-146.560	-96.421	0.217	-0.057
-145.545	-176.989	-0.215	0.005
-144.531	120.611	0.058	-0.071
-143.516	154.675	-0.172	0.233
-142.502	-200.000	0.029	-0.263
-141.487	391.088	0.058	0.118
-140.472	12.727	-0.285	0.217
-139.458	-7.984	-0.129	0.086
-138.443	-200.000	0.014	0.095
-137.429	-200.000	-0.039	0.281
-136.414	263.700	-0.228	0.390
-135.399	757.175	-0.069	-0.185
-134.385	-200.000	-0.056	-0.433
-133.370	137.902	-0.179	-0.231
-132.356	-200.000	0.082	0.413
-131.341	323.163	-0.060	-0.113
-130.326	195.980	0.040	-0.060
-129.312	-200.000	-0.022	0.097
-128.297	-86.104	0.458	0.139
-127.283	48.507	-0.039	-0.036
-126.268	-52.935	0.283	-0.128
-125.253	150.705	0.076	0.101
-124.239	-200.000	0.073	-0.347
-123.224	92.083	0.190	-0.211
-122.210	215.648	0.117	0.184
-121.195	-200.000	0.024	-0.195
-120.180	-68.046	-0.072	0.028
-119.166	37.633	-0.217	0.189
-118.151	-47.539	0.200	0.096
-117.137	-158.875	-0.172	0.010
-116.122	-200.000	0.015	-0.101
-115.107	644.912	0.035	0.088
-114.093	47.489	0.113	-0.104
-113.078	800.000	0.061	-0.240
-112.064	-69.854	0.154	0.058
-111.049	-200.000	-0.008	-0.226
-110.034	-200.000	0.007	0.061
-109.020	780.891	0.091	0.244
-108.005	-169.692	-0.247	0.009
-106.991	132.095	0.160	0.202
-105.976	-13.942	0.315	0.200
-104.962	205.600	-0.256	-0.391
-103.947	286.880	-0.070	-0.124
-102.932	139.400	0.089	0.116
-101.918	135.759	0.092	0.118
-100.903	-35.516	0.140	0.075
-99.889	-62.059	0.184	-0.076
-98.874	-77.146	0.258	0.089
-97.859	78.177	0.128	-0.135
-96.845	169.229	0.146	0.204
-95.830	-127.330	0.247	0.035
-94.816	533.921	0.266	0.619
-93.801	-112.990	-0.285	-0.055
-92.786	-200.000	0.005	-0.165
-91.772	321.057	0.206	-0.385
-90.757	800.000	-0.046	-0.129
-89.743	171.817	-0.133	-0.188
-88.728	204.401	0.155	-0.236
-87.713	342.568	-0.177	0.340
-86.699	-21.440	-0.130	0.078
-85.684	-104.014	-0.154	-0.035
-84.670	-74.274	-0.112	-0.040
-83.655	-138.320	0.331	-0.036
-82.640	-200.000	-0.044	-0.217
-81.626	-200.000	-0.249	0.001
-80.611	-3.214	0.251	-0.172
-79.597	693.329	0.095	-0.244
-78.582	-12.852	-0.284	0.182
-77.567	65.934	0.056	0.056
-76.553	-4.632	0.263	0.178
-75.538	-200.000	-0.031	0.426
-74.524	800.000	-0.006	-0.027
-73.509	123.193	-0.139	-0.172
-72.494	-72.516	-0.173	-0.063
-71.480	-200.000	-0.018	0.335
-70.465	800.000	-0.077	0.308
-69.451	-200.000	0.014	-0.203
-68.436	-200.000	-0.045	-0.322
-67.422	-5.067	0.187	0.126
-66.407	-30.356	-0.238	-0.133
-65.392	-110.029	0.501	0.103
-64.378	-19.493	-0.141	-0.086
-63.363	14.159	0.312	0.238
-62.349	209.824	-0.108	0.166
-61.334	37.060	-0.659	-0.573
-60.319	212.151	0.410	0.635
-59.305	711.718	-0.420	-1.091
-58.290	200.426	0.754	1.137
-57.276	269.831	0.854	1.473
-56.261	-200.000	95.568	576.635
-55.246	520.637	1389.955	3200.508
-54.232	160.981	2558.355	3509.503
-53.217	111.329	2159.393	2555.603
-52.203	43.090	1703.916	1526.314
-51.188	35.997	1515.411	1309.399
-50.173	33.609	1487.960	1269.665
-49.159	53.486	1536.779	1446.917
-48.144	55.005	1555.257	1474.593
-47.130	36.223	1514.874	1310.266
-46.115	33.129	1500.083	1276.566
-45.100	32.907	1497.323	1272.672
-44.086	32.904	1495.238	1270.827
-43.071	32.848	1493.166	1268.639
-42.057	32.739	1492.066	1266.928
-41.042	32.903	1490.198	1266.390
-40.027	32.846	1488.819	1264.786
-39.013	32.807	1487.238	1263.132
-37.998	32.719	1486.356	1261.743
-36.984	32.875	1484.800	1261.412
-35.969	32.806	1483.679	1259.949
-34.954	32.902	1481.705	1258.866
-33.940	32.839	1480.656	1257.503
-32.925	32.886	1479.339	1256.650
-31.911	32.892	1478.449	1255.881
-30.896	32.866	1476.976	1254.409
-29.881	32.984	1475.611	1253.982
-28.867	32.928	1473.824	1252.044
-27.852	32.856	1472.913	1250.744
-26.838	32.890	1471.587	1249.794
-25.823	32.896	1469.973	1248.414
-24.809	32.914	1468.288	1247.049
-23.794	32.877	1467.068	1245.719
-22.779	32.931	1465.772	1244.928
-21.765	32.844	1464.894	1243.554
-20.750	32.872	1463.539	1242.542
-19.736	32.908	1462.448	1241.801
-18.721	32.823	1461.587	1240.462
-17.706	32.905	1460.342	1239.896
-16.692	32.807	1459.225	1238.257
-15.677	32.815	1458.250	1237.433
-14.663	32.940	1456.983	1237.129
-13.648	32.878	1456.240	1236.039
-12.633	32.814	1455.444	1234.897
-11.619	32.875	1454.413	1234.374
-10.604	32.931	1453.575	1233.977
-9.590	32.775	1452.793	1232.248
-8.575	32.863	1451.448	1231.629
-7.560	32.857	1450.749	1230.950
-6.546	32.845	1450.304	1230.446
-5.531	32.841	1449.582	1229.758
-4.517	32.839	1448.316	1228.624
-3.502	32.795	1447.015	1227.180
-2.487	32.860	1446.243	1226.901
-1.473	32.872	1445.393	1226.211
-0.458	32.784	1443.999	1224.405
0.556	30.511	1433.103	1208.537
1.571	25.892	1404.951	1155.163
2.586	20.545	1341.198	1069.831
3.600	17.968	1257.258	987.899
4.615	16.440	1212.525	944.136
5.629	14.168	1157.909	889.395
6.644	7.312	1075.524	791.893
7.659	1.300	1035.722	733.532
8.673	0.420	1029.836	725.070
9.688	0.158	1027.367	722.012
10.702	0.135	1025.762	720.709
11.717	0.158	1023.899	719.447
12.731	2.424	1025.459	731.316
13.746	9.603	1035.296	772.804
14.761	15.707	1042.729	807.689
15.775	17.114	1043.743	815.161
16.790	16.644	1041.495	811.080
17.804	15.507	1040.240	804.587
18.819	14.593	1038.014	798.424
19.834	14.217	1036.664	795.517
20.848	13.958	1035.534	793.340
21.863	13.681	1034.845	791.420
22.877	13.484	1033.937	789.715
23.892	13.203	1033.505	787.978
24.907	13.018	1032.633	786.364
25.921	13.040	1031.937	785.868
26.936	13.113	1031.260	785.628
27.950	13.325	1030.479	785.970
28.965	13.193	1029.690	784.674
29.980	13.224	1029.340	784.487
30.994	13.287	1028.470	784.053
32.009	13.374	1027.423	783.597
33.023	13.426	1026.682	783.207
34.038	13.295	1026.264	782.201
35.053	13.269	1025.482	781.413
36.067	13.385	1024.105	780.839
37.082	13.238	1023.811	779.854
38.096	13.281	1022.623	779.085
39.111	13.428	1021.778	779.060
40.126	13.315	1021.292	778.093
41.140	13.313	1019.712	776.810
42.155	13.229	1018.680	775.559
43.169	13.150	1018.071	774.657
44.184	13.184	1016.955	773.898
45.199	13.119	1015.796	772.644
46.213	13.186	1014.919	772.221
47.228	13.177	1014.095	771.485
48.242	13.192	1013.500	771.035
49.257	13.189	1012.229	769.986
50.271	13.166	1011.555	769.296
51.286	13.334	1010.303	769.056
52.301	13.402	1009.581	768.755
53.315	13.227	1008.890	767.350
54.330	13.313	1008.077	767.062
55.344	13.230	1007.392	766.087
56.359	13.138	1006.294	764.761
57.374	13.211	1005.229	764.218
58.388	13.220	1004.808	763.873
59.403	13.248	1003.831	763.195
60.417	13.175	1002.797	762.005
61.432	13.240	1002.160	761.750
62.447	13.083	1001.389	760.373
63.461	13.116	1000.837	760.040
64.476	13.241	999.564	759.583
65.490	13.209	998.706	758.713
66.505	13.023	998.350	757.522
67.520	13.161	996.938	757.019
68.534	13.200	996.090	756.486
69.549	13.167	995.904	756.124
70.563	13.119	995.005	755.157
71.578	12.979	994.447	754.024
72.593	13.073	993.455	753.636
73.607	13.031	992.674	752.786
74.622	13.044	991.448	751.847
75.636	13.056	990.735	751.298
76.651	12.994	990.194	750.540
77.666	13.047	989.418	750.124
78.680	12.956	988.627	749.045
79.695	12.928	987.901	748.301
80.709	13.005	987.588	748.346
81.724	13.150	986.375	748.017
82.739	13.190	985.691	747.617
83.753	13.157	984.965	746.848
84.768	13.261	984.019	746.534
85.782	13.292	983.355	746.103
86.797	13.364	982.280	745.548
87.812	13.282	981.679	744.656
88.826	13.259	980.910	743.905
89.841	13.164	980.296	742.945
90.855	13.224	979.274	742.373
91.870	13.285	978.619	742.087
92.884	13.333	977.580	741.447
93.899	13.360	977.436	741.392
94.914	13.322	976.671	740.579
95.928	13.341	976.257	740.282
96.943	13.415	975.334	739.848
97.957	13.402	974.263	738.915
98.972	13.264	973.738	737.834
99.987	13.385	972.524	737.388
101.001	13.403	971.980	736.991
102.016	13.225	971.418	735.707
103.030	13.239	970.348	734.892
104.045	13.343	969.386	734.562
105.060	13.270	968.370	733.403
106.074	13.392	967.101	732.918
107.089	13.231	966.397	731.606
108.103	13.257	965.431	730.926
109.118	13.193	964.283	729.710
110.133	13.157	963.818	729.132
111.147	13.297	962.955	729.033
112.162	13.269	961.835	727.998
113.176	13.116	961.565	727.054
114.191	13.170	960.655	726.543
115.206	13.235	959.561	725.934
116.220	13.334	958.450	725.465
117.235	13.230	958.099	724.676
118.249	13.329	957.170	724.346
119.264	13.234	956.467	723.331
120.279	13.092	955.579	721.978
121.293	13.253	954.788	722.019
122.308	13.254	954.167	721.489
123.322	13.145	953.571	720.500
124.337	13.233	952.110	719.715
125.352	13.181	951.491	718.958
126.366	13.124	950.085	717.585
127.381	13.257	948.994	717.274
128.395	13.259	948.172	716.596
129.410	13.168	947.482	715.619
130.424	13.203	946.943	715.301
131.439	13.276	945.193	714.231
132.454	13.076	945.178	713.291
133.468	13.264	944.299	713.376
134.483	13.311	943.324	712.778
135.497	13.264	942.558	711.933
136.512	13.208	942.019	711.225
137.527	13.314	940.902	710.774
138.541	13.244	940.355	709.997
139.556	13.217	939.811	709.406
140.570	13.299	939.119	709.175
141.585	13.168	938.604	708.159
142.600	13.382	937.689	708.324
143.614	13.312	936.889	707.358
144.629	13.327	936.254	706.877
145.643	13.547	934.903	706.733
146.658	13.423	934.639	705.944
147.673	13.461	933.532	705.207
148.687	13.376	932.799	704.228
149.702	13.377	932.108	703.650
150.716	13.356	931.064	702.711
151.731	13.345	930.022	701.814
152.746	13.396	929.519	701.590
153.760	13.394	929.104	701.206
154.775	13.356	928.128	700.247
155.789	13.328	927.545	699.625
156.804	13.370	926.807	699.185
157.819	13.480	925.900	698.904
158.833	13.387	925.437	698.098
159.848	13.547	924.630	698.103
160.862	13.654	923.688	697.783
161.877	13.540	923.280	696.929
162.892	13.522	922.002	695.832
163.906	13.583	921.169	695.395
164.921	13.352	921.278	694.448
165.935	13.593	919.596	694.127
166.950	13.498	918.594	692.910
167.964	13.449	917.767	692.020
168.979	13.376	917.158	691.197
169.994	13.642	915.762	691.193
171.008	13.486	915.599	690.360
172.023	13.629	914.171	689.814
173.037	13.540	913.737	689.057
174.052	13.814	912.778	689.412
175.067	13.571	912.347	688.014
176.081	13.577	911.884	687.631
177.096	13.538	910.533	686.390
178.110	13.568	909.856	685.941
179.125	13.559	909.365	685.474
180.140	13.566	908.392	684.709
181.154	13.607	907.493	684.140
182.169	13.651	906.964	683.864
183.183	13.762	906.137	683.635
184.198	13.672	905.822	682.966
185.213	13.821	904.670	682.651
186.227	13.753	904.075	681.864
187.242	13.905	903.811	682.226
188.256	13.780	903.157	681.158
189.271	13.798	902.522	680.694
190.286	13.970	901.487	680.556
191.300	13.642	901.343	679.046
192.315	13.593	900.524	678.169
193.329	13.645	899.555	677.592
194.344	13.721	899.252	677.612
195.359	13.468	899.155	676.447
196.373	13.836	898.066	677.070
197.388	13.732	897.698	676.305
198.402	13.866	897.176	676.399
199.417	13.974	896.618	676.360
200.432	14.017	896.294	676.232
201.446	13.883	895.916	675.342
202.461	14.031	895.219	675.358
203.475	14.110	895.096	675.523
204.490	13.988	894.380	674.427
205.504	14.032	893.416	673.823
206.519	14.110	892.383	673.298
207.534	14.062	891.831	672.627
208.548	13.962	891.139	671.640
209.563	14.110	890.513	671.709
210.577	14.148	889.357	670.930
211.592	14.113	889.016	670.474
212.607	14.153	888.322	670.051
213.621	14.101	888.179	669.673
214.636	14.157	887.328	669.198
215.650	14.199	886.771	668.888
216.665	14.198	886.093	668.314
217.680	14.169	885.917	668.007
218.694	14.222	885.010	667.477
219.709	14.281	884.320	667.134
220.723	14.296	883.938	666.845
221.738	14.370	883.217	666.539
222.753	14.233	882.621	665.483
223.767	14.317	881.721	665.078
224.782	14.346	881.256	664.788
225.796	14.426	880.282	664.312
226.811	14.316	879.820	663.467
227.826	14.373	879.206	663.170
228.840	14.265	878.604	662.228
229.855	14.275	878.067	661.806
230.869	14.329	877.058	661.201
231.884	14.373	876.353	660.785
232.899	14.297	875.512	659.792
233.913	14.389	874.797	659.560
234.928	14.373	874.340	659.091
235.942	14.399	873.872	658.783
236.957	14.409	872.772	657.935
237.972	14.289	872.318	657.061
238.986	14.442	871.962	657.339
240.001	14.331	871.550	656.534
241.015	14.494	870.296	656.173
242.030	14.526	869.663	655.762
243.045	14.452	869.137	655.017
244.059	14.489	868.518	654.636
245.074	14.571	868.010	654.519
246.088	14.395	867.296	653.230
247.103	14.511	866.704	653.183
248.117	14.654	866.022	653.172
249.132	14.714	865.400	652.877
250.147	14.712	865.256	652.704
251.161	14.673	864.822	652.166
252.176	14.772	863.687	651.638
253.190	14.805	862.898	651.115
254.205	14.844	862.238	650.710
255.220	14.915	861.884	650.662
256.234	14.928	860.812	649.845
257.249	14.987	860.323	649.649
258.263	15.003	860.102	649.486
259.278	15.061	859.397	649.121
260.293	14.894	859.259	648.312
261.307	14.981	858.414	647.955
262.322	14.952	858.103	647.549
263.336	14.949	857.442	646.984
264.351	15.107	856.589	646.894
265.366	15.077	856.166	646.398
266.380	15.251	855.205	646.286
267.395	15.120	854.627	645.290
268.409	15.081	854.192	644.755
269.424	15.095	853.283	644.062
270.439	15.140	852.684	643.729
271.453	15.066	851.913	642.804
272.468	15.108	850.988	642.210
273.482	15.123	850.682	641.981
274.497	15.150	849.935	641.465
275.512	15.018	849.384	640.485
276.526	15.065	848.707	640.099
277.541	15.268	847.770	640.108
278.555	15.107	847.645	639.344
279.570	15.244	847.040	639.355
280.585	15.213	846.738	638.950
281.599	15.354	845.856	638.767
282.614	15.212	845.356	637.790
283.628	15.281	844.672	637.480
284.643	15.183	844.320	636.788
285.657	15.235	843.771	636.515
286.672	15.263	843.296	636.207
287.687	15.333	842.539	635.844
288.701	15.252	842.321	635.317
289.716	15.375	841.813	635.344
290.730	15.388	840.957	634.690
291.745	15.314	840.614	634.093
292.760	15.326	839.819	633.484
293.774	15.383	838.948	632.986
294.789	15.545	838.415	633.138
295.803	15.372	838.078	632.177
296.818	15.431	837.379	631.817
297.833	15.439	836.661	631.247
298.847	15.470	835.789	630.651
299.862	15.471	835.390	630.299
300.876	15.412	834.750	629.536
301.891	15.565	833.762	629.310
302.906	15.539	833.370	628.862
303.920	15.699	832.751	628.935
304.935	15.629	832.210	628.211
305.949	15.749	831.480	628.053
306.964	15.775	830.630	627.450
307.979	15.899	830.104	627.462
308.993	15.688	829.974	626.519
310.008	15.717	829.642	626.322
311.022	15.851	828.885	626.194
312.037	15.722	828.194	625.138
313.052	15.692	827.926	624.768
314.066	15.871	826.895	624.601
315.081	15.583	826.720	623.343
316.095	15.910	825.878	623.864
317.110	15.608	825.683	622.545
318.125	15.603	825.187	622.097
319.139	15.721	824.847	622.223
320.154	15.651	824.269	621.472
321.168	15.888	823.485	621.699
322.183	15.851	822.918	621.082
323.197	15.810	822.061	620.227
324.212	15.862	822.090	620.385
325.227	15.656	821.741	619.309
326.241	15.804	820.855	619.134
327.256	15.858	820.296	618.855
328.270	15.826	819.677	618.215
329.285	15.838	819.315	617.932
330.300	15.919	818.786	617.774
331.314	16.050	817.687	617.370
332.329	16.021	817.118	616.779
333.343	15.889	816.921	616.095
334.358	16.024	816.298	616.062
335.373	16.082	815.547	615.653
336.387	16.151	815.187	615.581
337.402	16.106	814.705	614.996
338.416	16.129	814.083	614.558
339.431	16.150	813.882	614.428
340.446	16.069	813.358	613.684
341.460	16.244	812.623	613.708
342.475	16.118	812.205	612.881
343.489	16.323	811.111	612.747
344.504	16.357	810.748	612.543
345.519	16.330	810.728	612.373
346.533	16.236	810.377	611.715
347.548	16.295	809.748	611.399
348.562	16.300	809.025	610.817
349.577	16.369	808.283	610.453
350.592	16.228	808.124	609.769
351.606	16.170	808.025	609.430
352.621	16.246	807.166	609.002
353.635	16.259	806.313	608.350
354.650	16.310	806.064	608.295
355.665	16.350	805.792	608.178
356.679	16.332	805.405	607.769
357.694	16.463	804.826	607.748
358.708	16.360	804.211	606.860
359.723	16.281	803.861	606.260
360.738	16.429	802.971	606.063
361.752	16.409	802.616	605.671
362.767	16.490	802.283	605.658
363.781	16.518	802.037	605.517
364.796	16.539	801.254	604.949
365.810	16.667	800.840	605.039
366.825	16.651	800.396	604.594
367.840	16.704	800.416	604.744
368.854	16.580	799.781	603.768
369.869	16.396	799.472	602.825
370.883	16.494	798.925	602.711
371.898	16.629	798.135	602.540
372.913	16.655	798.018	602.492
373.927	16.773	797.094	602.158
374.942	16.783	796.627	601.789
375.956	16.818	795.690	601.152
376.971	16.710	795.542	600.604
377.986	16.720	795.144	600.287
379.000	16.756	794.611	599.959
380.015	16.836	793.858	599.620
381.029	16.950	792.853	599.212
382.044	16.880	792.669	598.769
383.059	17.026	791.989	598.718
384.073	16.938	791.486	597.976
385.088	17.041	791.199	598.071
386.102	16.828	790.763	596.937
387.117	17.020	789.895	596.906
388.132	16.918	789.611	596.278
389.146	16.863	789.533	595.974
390.161	16.886	789.175	595.732
391.175	16.940	788.349	595.245
392.190	17.049	788.122	595.402
393.205	16.929	787.947	594.798
394.219	17.021	787.094	594.422
395.234	16.970	786.718	593.908
396.248	16.934	786.460	593.533
397.263	16.944	785.794	593.015
398.278	16.926	785.339	592.555
399.292	16.930	784.927	592.205
400.307	16.996	784.542	592.094
401.321	16.860	784.244	591.341
402.336	16.944	783.913	591.334
403.350	16.990	783.337	591.005
404.365	17.084	783.134	591.128
405.380	17.187	782.429	590.903
406.394	17.336	781.585	590.728
407.409	17.225	781.075	589.907
408.423	17.340	780.871	590.098
409.438	17.230	780.596	589.459
410.453	17.260	780.212	589.220
411.467	17.345	779.535	588.950
412.482	17.453	778.695	588.635
413.496	17.329	778.766	588.210
414.511	17.413	778.325	588.114
415.526	17.421	778.213	588.006
416.540	17.573	777.581	588.001
417.555	17.383	777.411	587.163
418.569	17.305	777.295	586.756
419.584	17.391	776.821	586.641
420.599	17.368	776.164	586.015
421.613	108.437	1287.860	1461.578
422.628	92.648	1362.402	1461.651
