DTS Sentinel unit serial number:	SN413079Multiplexer serial number:	ORYXHardware model number:	OX4-SRSoftware version number:	ORYX F/W v4.00 Oryx Data Collector v3.7.2.0data status	okinstallation	princeton_trtdifferential loss correction	single-endedforward channel	channel 3reverse channel	N/Adate	2019/09/15time	06:12:35forward acquisition time	60.00reverse acquisition time	0.00gamma	496.2192k internal	0.2324k external	0.2324temperature offset calibration	0.9980default loss term (dB/km)	0.3790temperature slope calibration	1.0000multiplexer offset coefficient	1.0000multiplexer slope coefficient	1.0000fibre end	0.00T internal ref (°C)	30.56T ext. ref 1 (°C)	4.84T ext. ref 2 (°C)	25.03length (m)	temperature (°C)	Stokes	anti-Stokes-747.200	19.634	-0.336	-0.273
-746.185	96.551	-0.298	0.344
-745.171	8.054	0.452	0.343
-744.156	-200.000	-0.027	0.435
-743.142	431.023	0.074	0.162
-742.127	-16.266	-0.321	-0.206
-741.112	219.282	0.094	-0.152
-740.098	-200.000	-0.324	0.000
-739.083	328.187	0.106	0.205
-738.069	66.202	0.191	-0.195
-737.054	-53.328	0.350	0.162
-736.039	43.643	-0.242	-0.223
-735.025	-200.000	-0.025	0.208
-734.010	-168.790	0.284	-0.011
-732.996	-81.434	-0.364	0.121
-731.981	800.000	-0.025	-0.108
-730.966	-200.000	-0.014	0.107
-729.952	-196.470	0.212	-0.001
-728.937	-200.000	-0.189	0.001
-727.923	-200.000	-0.011	-0.159
-726.908	50.076	0.253	-0.241
-725.894	800.000	-0.103	0.396
-724.879	-44.881	-0.163	-0.082
-723.864	277.337	-0.156	0.281
-722.850	-79.616	0.219	0.075
-721.835	72.570	-0.121	0.127
-720.821	86.593	0.102	0.113
-719.806	250.676	-0.059	0.102
-718.791	-101.475	0.220	-0.054
-717.777	194.464	0.100	0.152
-716.762	-114.874	0.340	-0.065
-715.748	-9.641	0.028	-0.019
-714.733	-57.919	-0.136	0.060
-713.718	728.055	-0.150	0.403
-712.704	800.000	0.088	0.329
-711.689	151.253	-0.018	0.025
-710.675	-71.631	-0.140	-0.053
-709.660	346.489	-0.088	-0.174
-708.645	248.105	-0.079	0.136
-707.631	446.730	-0.029	0.064
-706.616	-56.301	0.221	0.099
-705.602	324.822	-0.092	-0.178
-704.587	-39.741	0.206	-0.109
-703.572	800.000	0.060	0.238
-702.558	8.853	0.172	0.131
-701.543	180.777	-0.037	-0.055
-700.529	-188.913	0.270	-0.003
-699.514	-200.000	-0.019	-0.509
-698.499	121.751	-0.117	0.147
-697.485	-200.000	0.029	-0.162
-696.470	29.744	0.078	-0.067
-695.456	170.746	0.122	0.176
-694.441	-9.368	0.244	-0.164
-693.426	-10.391	-0.278	0.186
-692.412	122.313	-0.065	0.082
-691.397	-148.791	-0.061	-0.005
-690.383	-98.778	-0.443	-0.113
-689.368	-106.759	-0.355	-0.079
-688.354	314.663	-0.195	-0.370
-687.339	-122.455	-0.128	-0.021
-686.324	212.054	-0.111	-0.176
-685.310	367.426	-0.084	-0.170
-684.295	-200.000	-0.014	-0.213
-683.281	800.000	-0.087	-0.279
-682.266	-50.581	-0.200	-0.095
-681.251	-15.023	0.273	0.176
-680.237	40.992	-0.192	0.175
-679.222	-41.674	-0.068	-0.035
-678.208	-158.106	-0.277	-0.016
-677.193	-200.000	-0.030	-0.182
-676.178	-131.018	-0.145	0.019
-675.164	38.605	0.046	0.042
-674.149	-200.000	-0.039	0.388
-673.135	182.001	-0.137	-0.203
-672.120	-200.000	-0.012	-0.327
-671.105	-51.860	0.152	-0.071
-670.091	-172.109	0.118	0.004
-669.076	139.985	-0.108	-0.143
-668.062	-123.932	0.511	-0.081
-667.047	-79.125	-0.057	0.020
-666.032	-102.166	0.079	-0.019
-665.018	-200.000	0.004	-0.044
-664.003	174.905	-0.070	-0.102
-662.989	-48.179	0.082	0.040
-661.974	-200.000	0.013	-0.268
-660.959	-127.656	-0.416	0.061
-659.945	0.198	0.129	-0.092
-658.930	0.477	-0.092	0.066
-657.916	43.844	-0.129	-0.119
-656.901	-47.828	-0.178	0.087
-655.886	-200.000	-0.029	-0.206
-654.872	-132.245	-0.157	-0.020
-653.857	-11.026	-0.024	0.016
-652.843	247.196	0.119	0.202
-651.828	354.898	0.197	-0.394
-650.814	53.596	-0.284	0.274
-649.799	-200.000	0.013	0.103
-648.784	-7.490	-0.077	-0.052
-647.770	800.000	-0.091	0.341
-646.755	125.064	0.089	-0.112
-645.741	-200.000	-0.015	-0.142
-644.726	11.942	0.048	0.037
-643.711	-78.937	-0.094	0.032
-642.697	-200.000	-0.064	-0.309
-641.682	800.000	-0.077	-0.283
-640.668	-129.348	0.305	-0.043
-639.653	-94.724	-0.189	0.051
-638.638	-87.374	-0.170	-0.052
-637.624	275.145	0.148	0.264
-636.609	800.000	-0.014	0.050
-635.595	-200.000	-0.022	-0.255
-634.580	-200.000	0.033	0.262
-633.565	118.847	0.192	0.238
-632.551	-200.000	-0.003	0.126
-631.536	111.025	0.263	0.318
-630.522	-110.693	-0.332	-0.069
-629.507	-133.671	0.174	0.022
-628.492	-131.770	-0.391	-0.051
-627.478	-117.156	0.095	0.017
-626.463	-29.705	-0.335	-0.192
-625.449	-200.000	0.006	-0.231
-624.434	561.370	0.142	0.345
-623.419	-4.671	-0.101	-0.070
-622.405	-136.126	0.112	-0.013
-621.390	800.000	-0.044	0.136
-620.376	-84.198	-0.309	-0.098
-619.361	-134.345	0.100	-0.012
-618.346	800.000	-0.052	0.153
-617.332	-6.484	-0.212	-0.145
-616.317	-130.121	0.403	0.055
-615.303	53.156	0.021	-0.020
-614.288	368.000	0.045	0.091
-613.273	-73.822	-0.031	0.011
-612.259	540.275	-0.079	-0.190
-611.244	713.151	-0.088	0.234
-610.230	-24.524	0.399	0.238
-609.215	-38.934	0.224	0.118
-608.201	57.342	0.070	-0.069
-607.186	800.000	0.097	-0.353
-606.171	18.239	-0.170	0.136
-605.157	468.345	-0.124	0.279
-604.142	22.216	-0.134	0.110
-603.128	269.078	-0.138	-0.243
-602.113	-200.000	-0.015	-0.129
-601.098	-200.000	-0.002	-0.140
-600.084	152.029	0.076	-0.104
-599.069	318.181	-0.055	-0.104
-598.055	-148.193	0.313	-0.026
-597.040	-200.000	0.007	0.160
-596.025	-150.813	0.123	0.009
-595.011	68.493	-0.038	0.039
-593.996	-81.346	0.149	0.049
-592.982	-19.198	0.142	0.088
-591.967	357.373	0.050	-0.100
-590.952	39.931	-0.265	0.239
-589.938	21.417	0.236	0.192
-588.923	174.921	-0.084	-0.122
-587.909	423.333	0.007	-0.015
-586.894	-200.000	-0.062	0.308
-585.879	-22.747	0.023	-0.014
-584.865	800.000	-0.062	0.240
-583.850	-200.000	0.007	0.143
-582.836	-0.766	-0.168	-0.119
-581.821	558.582	-0.165	0.399
-580.806	105.927	-0.344	0.408
-579.792	800.000	0.030	0.086
-578.777	-200.000	-0.025	-0.364
-577.763	190.959	-0.129	0.194
-576.748	-8.858	-0.213	-0.143
-575.733	370.383	-0.078	-0.159
-574.719	-30.500	0.085	0.048
-573.704	88.998	-0.175	-0.195
-572.690	-33.928	-0.268	-0.148
-571.675	-46.497	0.314	0.154
-570.661	448.553	0.095	0.210
-569.646	307.100	0.084	-0.156
-568.631	144.468	0.092	-0.124
-567.617	-127.403	0.252	-0.037
-566.602	-200.000	0.005	0.288
-565.588	131.261	0.120	0.155
-564.573	126.522	-0.075	-0.096
-563.558	-200.000	0.215	0.000
-562.544	468.361	-0.082	-0.185
-561.529	800.000	0.062	-0.201
-560.515	400.243	0.096	-0.202
-559.500	-54.495	0.157	-0.071
-558.485	-179.950	0.200	0.004
-557.471	456.765	0.173	-0.386
-556.456	-105.839	-0.284	0.064
-555.442	-40.979	0.270	-0.140
-554.427	100.431	-0.097	-0.113
-553.412	188.205	0.211	0.316
-552.398	-200.000	-0.011	0.316
-551.383	-123.925	-0.491	0.078
-550.369	80.291	-0.122	0.132
-549.354	205.724	0.107	0.167
-548.339	-50.757	-0.099	-0.047
-547.325	-139.554	0.168	-0.018
-546.310	-17.479	0.177	-0.112
-545.296	-200.000	-0.022	-0.348
-544.281	12.804	-0.159	-0.123
-543.266	65.148	-0.077	0.078
-542.252	57.319	-0.117	0.114
-541.237	34.481	-0.280	-0.245
-540.223	40.350	-0.333	-0.300
-539.208	-29.719	-0.150	-0.086
-538.193	800.000	-0.088	-0.295
-537.179	-30.960	-0.106	-0.060
-536.164	23.554	0.243	-0.200
-535.150	92.365	0.162	0.182
-534.135	45.910	-0.132	0.122
-533.121	493.964	0.083	0.190
-532.106	-58.104	-0.214	-0.093
-531.091	23.283	0.316	-0.260
-530.077	-45.250	0.259	0.129
-529.062	-200.000	0.047	-0.240
-528.048	-47.716	-0.071	-0.035
-527.033	58.074	-0.129	-0.127
-526.018	396.073	0.115	-0.240
-525.004	261.149	-0.203	-0.352
-523.989	-67.041	-0.326	-0.129
-522.975	-28.763	-0.262	0.151
-521.960	-3.820	0.234	-0.162
-520.945	-47.021	-0.158	-0.077
-519.931	-148.963	0.147	0.012
-518.916	800.000	-0.036	-0.115
-517.902	71.124	-0.107	-0.110
-516.887	-128.201	0.110	0.016
-515.872	-108.333	0.444	-0.096
-514.858	66.247	-0.139	-0.141
-513.843	-200.000	0.026	-0.132
-512.829	2.627	-0.058	0.042
-511.814	-200.000	0.045	0.339
-510.799	-200.000	-0.008	0.059
-509.785	800.000	0.106	-0.324
-508.770	800.000	0.047	0.185
-507.756	800.000	-0.107	0.434
-506.741	-200.000	0.061	-0.289
-505.726	-148.476	-0.086	-0.007
-504.712	-27.119	0.178	-0.104
-503.697	381.011	-0.118	-0.242
-502.683	-122.220	0.205	-0.034
-501.668	-117.424	0.293	0.053
-500.653	667.035	-0.133	-0.343
-499.639	167.816	0.106	0.150
-498.624	-14.435	0.090	-0.058
-497.610	-85.903	-0.178	0.055
-496.595	-26.178	-0.181	-0.106
-495.581	800.000	-0.101	0.304
-494.566	185.345	-0.183	0.271
-493.551	307.784	-0.131	-0.244
-492.537	30.456	-0.142	0.122
-491.522	-92.347	0.237	-0.067
-490.508	-200.000	-0.061	-0.280
-489.493	-102.878	0.311	0.074
-488.478	-146.702	-0.170	-0.015
-487.464	800.000	0.018	-0.062
-486.449	-24.882	-0.114	0.068
-485.435	800.000	-0.026	-0.079
-484.420	-200.000	-0.003	-0.187
-483.405	52.261	-0.134	0.128
-482.391	-66.331	-0.277	-0.110
-481.376	99.924	0.162	0.188
-480.362	-43.076	-0.269	0.136
-479.347	-60.205	0.210	-0.090
-478.332	800.000	-0.046	0.191
-477.318	-119.620	-0.128	-0.022
-476.303	-200.000	0.041	0.354
-475.289	30.696	-0.035	0.030
-474.274	-200.000	-0.016	-0.080
-473.259	31.537	0.218	-0.187
-472.245	415.047	0.089	0.190
-471.230	-142.532	0.346	-0.034
-470.216	800.000	-0.012	0.034
-469.201	800.000	-0.053	0.147
-468.186	-23.745	0.334	0.200
-467.172	-200.000	0.004	-0.160
-466.157	-200.000	0.003	-0.189
-465.143	146.339	-0.083	-0.111
-464.128	-200.000	0.004	-0.033
-463.113	-106.043	-0.180	0.040
-462.099	151.269	0.138	0.187
-461.084	143.934	0.177	-0.236
-460.070	-4.401	0.157	-0.109
-459.055	-100.020	-0.185	0.046
-458.040	-126.594	0.267	0.040
-457.026	-22.856	-0.149	-0.090
-456.011	-200.000	0.026	-0.180
-454.997	124.765	-0.355	0.447
-453.982	317.031	-0.065	-0.123
-452.968	800.000	-0.060	0.237
-451.953	540.697	-0.077	-0.183
-450.938	-51.402	0.116	-0.054
-449.924	-61.265	0.189	-0.079
-448.909	-200.000	0.021	0.107
-447.895	-46.399	0.312	-0.153
-446.880	-98.974	-0.039	-0.010
-445.865	-15.509	-0.519	0.331
-444.851	534.684	0.089	-0.211
-443.836	80.263	0.087	0.093
-442.822	-68.332	-0.221	0.085
-441.807	-22.796	-0.072	0.043
-440.792	80.293	0.072	-0.077
-439.778	38.371	0.229	-0.203
-438.763	800.000	0.039	-0.117
-437.749	-200.000	-0.000	-0.130
-436.734	27.964	0.250	0.210
-435.719	800.000	-0.099	0.355
-434.705	170.309	0.224	-0.320
-433.690	-65.522	0.055	0.022
-432.676	800.000	-0.036	0.150
-431.661	-47.784	0.167	0.081
-430.646	-129.172	-0.052	-0.007
-429.632	-108.650	0.047	0.010
-428.617	-36.347	-0.069	-0.037
-427.603	92.344	-0.119	0.134
-426.588	-200.000	-0.015	-0.142
-425.573	-46.338	0.315	-0.154
-424.559	584.489	0.074	0.180
-423.544	-110.683	0.183	0.038
-422.530	-30.757	0.298	-0.168
-421.515	-118.222	0.225	-0.040
-420.500	-115.059	0.217	0.041
-419.486	102.937	-0.230	0.269
-418.471	-140.567	0.379	-0.039
-417.457	102.179	-0.056	0.066
-416.442	13.913	0.182	0.141
-415.428	-200.000	0.011	-0.055
-414.413	32.530	0.114	0.098
-413.398	-200.000	-0.003	0.086
-412.384	-38.353	0.234	-0.123
-411.369	-54.230	-0.371	-0.168
-410.355	-200.000	-0.007	0.099
-409.340	-177.299	-0.306	-0.008
-408.325	-200.000	0.044	-0.246
-407.311	-50.647	-0.194	-0.091
-406.296	-120.957	-0.413	-0.069
-405.282	63.168	-0.167	-0.166
-404.267	108.472	0.119	0.142
-403.252	-124.167	-0.265	-0.041
-402.238	-200.000	-0.007	0.080
-401.223	-17.955	-0.375	-0.234
-400.209	-200.000	-0.002	0.080
-399.194	-85.324	-0.374	0.116
-398.179	-76.349	0.206	-0.072
-397.165	800.000	-0.096	0.284
-396.150	800.000	0.024	-0.099
-395.136	-92.659	-0.278	0.078
-394.121	800.000	-0.102	0.361
-393.106	800.000	-0.053	-0.209
-392.092	800.000	-0.074	0.222
-391.077	800.000	0.126	0.350
-390.063	-13.816	0.095	0.061
-389.048	-200.000	0.000	0.035
-388.033	85.096	0.204	0.223
-387.019	76.609	-0.169	0.179
-386.004	209.591	0.213	0.332
-384.990	124.046	0.181	0.227
-383.975	-114.575	-0.221	-0.042
-382.960	-59.461	0.207	0.089
-381.946	8.112	0.134	0.100
-380.931	-46.591	-0.186	-0.091
-379.917	-108.298	-0.119	0.026
-378.902	-200.000	0.010	-0.131
-377.888	15.563	-0.341	0.267
-376.873	-200.000	0.021	0.127
-375.858	337.539	0.087	0.168
-374.844	-99.431	-0.065	0.016
-373.829	-165.797	0.145	0.006
-372.815	-60.932	-0.177	0.075
-371.800	10.104	0.115	-0.087
-370.785	-72.510	-0.238	0.088
-369.771	-170.942	-0.115	-0.004
-368.756	82.157	0.129	0.139
-367.742	800.000	-0.017	-0.069
-366.727	176.054	-0.125	0.180
-365.712	800.000	0.044	0.190
-364.698	26.899	0.224	-0.186
-363.683	20.597	-0.307	-0.247
-362.669	-47.967	-0.120	0.057
-361.654	-155.232	0.226	0.015
-360.639	66.172	0.360	0.364
-359.625	196.312	0.131	0.198
-358.610	-200.000	0.015	-0.266
-357.596	-95.917	-0.234	-0.062
-356.581	110.904	-0.250	0.299
-355.566	300.016	0.208	0.382
-354.552	-200.000	-0.049	-0.351
-353.537	294.930	-0.160	-0.291
-352.523	479.660	0.155	0.350
-351.508	-91.683	-0.162	0.046
-350.493	7.043	-0.212	-0.157
-349.479	26.263	-0.226	0.188
-348.464	-113.697	-0.082	-0.016
-347.450	-12.012	-0.120	0.078
-346.435	-74.261	-0.192	0.069
-345.420	75.624	-0.017	-0.018
-344.406	-115.181	-0.047	0.009
-343.391	-4.014	0.047	0.032
-342.377	330.170	0.072	-0.139
-341.362	584.496	-0.045	0.109
-340.348	74.727	-0.055	-0.058
-339.333	-18.491	-0.156	0.097
-338.318	416.644	0.136	0.287
-337.304	-200.000	0.098	0.461
-336.289	273.905	-0.157	-0.275
-335.275	-96.871	-0.120	0.031
-334.260	243.080	0.120	0.200
-333.245	-60.793	-0.109	-0.046
-332.231	-186.939	-0.099	0.001
-331.216	6.807	0.237	-0.175
-330.202	-200.000	-0.003	0.194
-329.187	-109.929	-0.276	0.057
-328.172	-119.066	-0.199	0.035
-327.158	-200.000	0.015	-0.333
-326.143	-25.902	0.331	-0.194
-325.129	-34.857	0.447	-0.242
-324.114	45.439	0.107	0.098
-323.099	-200.000	0.017	0.115
-322.085	-200.000	0.101	0.512
-321.070	-192.041	-0.291	0.003
-320.056	91.285	0.413	0.460
-319.041	-55.934	0.091	0.040
-318.026	-35.733	0.376	0.202
-317.012	78.458	-0.340	-0.361
-315.997	-114.186	0.318	0.061
-314.983	39.341	0.183	-0.163
-313.968	-200.000	0.033	0.191
-312.953	-72.641	-0.127	0.046
-311.939	82.866	-0.093	0.100
-310.924	-15.299	0.241	-0.153
-309.910	71.240	0.167	0.172
-308.895	-149.348	0.314	0.025
-307.880	800.000	0.007	-0.026
-306.866	298.281	-0.038	-0.069
-305.851	800.000	-0.093	0.314
-304.837	-164.103	0.365	0.017
-303.822	334.221	0.109	0.208
-302.807	171.015	-0.074	0.106
-301.793	-93.481	0.430	0.118
-300.778	267.668	-0.173	-0.300
-299.764	800.000	0.052	-0.157
-298.749	-200.000	-0.055	0.440
-297.735	800.000	0.012	0.035
-296.720	-66.778	0.144	0.056
-295.705	-200.000	-0.093	-0.464
-294.691	67.278	0.185	-0.187
-293.676	-125.320	0.280	0.042
-292.662	-22.013	-0.536	-0.323
-291.647	188.484	-0.222	-0.329
-290.632	94.585	0.147	-0.165
-289.618	-52.378	-0.064	-0.029
-288.603	800.000	0.014	-0.045
-287.589	-200.000	-0.062	0.335
-286.574	-200.000	-0.028	-0.240
-285.559	50.403	-0.299	-0.280
-284.545	-89.479	-0.173	0.050
-283.530	-127.604	0.038	-0.005
-282.516	-108.858	-0.034	-0.007
-281.501	-126.704	-0.266	-0.039
-280.486	-19.069	0.315	-0.194
-279.472	207.292	0.153	0.236
-278.457	372.255	-0.105	-0.211
-277.443	800.000	0.041	-0.118
-276.428	-200.000	0.065	0.405
-275.413	-200.000	0.018	-0.112
-274.399	186.611	0.172	0.254
-273.384	755.547	-0.083	-0.223
-272.370	-200.000	0.040	-0.220
-271.355	-3.306	0.192	-0.133
-270.340	-200.000	-0.006	-0.091
-269.326	-108.268	0.088	0.019
-268.311	89.788	0.216	-0.239
-267.297	92.290	-0.243	-0.271
-266.282	225.365	0.143	-0.229
-265.267	-102.880	0.407	0.096
-264.253	-22.463	-0.210	-0.126
-263.238	400.624	-0.180	-0.375
-262.224	-185.346	0.281	0.004
-261.209	-200.000	0.020	-0.235
-260.195	-107.830	0.152	-0.033
-259.180	10.259	0.047	0.035
-258.165	-89.434	0.118	0.034
-257.151	-5.664	0.058	0.040
-256.136	-31.720	-0.096	-0.053
-255.122	-200.000	0.058	-0.360
-254.107	800.000	-0.011	-0.036
-253.092	139.050	0.097	0.127
-252.078	324.727	0.062	-0.117
-251.063	71.492	0.074	0.076
-250.049	160.884	0.142	0.196
-249.034	186.472	0.184	-0.271
-248.019	77.398	-0.241	0.254
-247.005	39.002	0.162	-0.143
-245.990	428.661	0.122	-0.261
-244.976	78.444	0.162	-0.171
-243.961	362.354	-0.040	-0.080
-242.946	154.029	0.143	-0.194
-241.932	-49.131	-0.126	-0.059
-240.917	-200.000	-0.025	0.118
-239.903	695.386	0.137	-0.357
-238.888	-12.538	0.091	-0.059
-237.873	-133.761	-0.232	0.029
-236.859	189.020	0.041	0.061
-235.844	73.778	-0.190	-0.197
-234.830	-200.000	-0.024	-0.315
-233.815	-200.000	0.029	0.263
-232.800	-200.000	0.004	-0.026
-231.786	11.356	0.202	0.153
-230.771	-191.809	0.232	0.002
-229.757	-96.436	0.110	-0.029
-228.742	175.601	0.102	-0.146
-227.727	176.960	-0.023	0.033
-226.713	33.366	0.062	0.053
-225.698	-200.000	0.005	-0.293
-224.684	800.000	0.049	-0.150
-223.669	100.400	-0.041	-0.047
-222.655	800.000	0.107	0.356
-221.640	-132.791	-0.494	-0.062
-220.625	-38.559	0.156	-0.081
-219.611	164.667	-0.089	0.124
-218.596	-85.189	-0.420	-0.130
-217.582	-78.745	0.189	0.064
-216.567	84.724	-0.103	0.111
-215.552	-200.000	0.021	0.242
-214.538	-67.402	-0.336	-0.130
-213.523	194.496	-0.191	-0.287
-212.509	195.373	-0.129	0.194
-211.494	73.670	-0.430	-0.445
-210.479	555.501	0.119	-0.283
-209.465	7.102	-0.132	0.097
-208.450	101.222	-0.176	-0.203
-207.436	347.664	-0.079	0.154
-206.421	-142.825	0.148	-0.014
-205.406	-113.802	0.080	-0.015
-204.392	-200.000	-0.007	-0.153
-203.377	-70.017	0.291	-0.109
-202.363	110.887	0.263	0.312
-201.348	-14.257	-0.214	0.136
-200.333	-39.656	0.032	-0.017
-199.319	89.086	-0.213	-0.234
-198.304	53.585	-0.221	-0.209
-197.290	-48.701	-0.134	-0.064
-196.275	299.894	-0.038	-0.069
-195.260	178.532	-0.096	0.139
-194.246	70.589	-0.151	0.154
-193.231	310.196	0.081	0.150
-192.217	15.183	0.039	0.030
-191.202	-50.942	-0.276	-0.128
-190.187	-131.729	-0.174	0.023
-189.173	152.710	-0.024	0.032
-188.158	111.971	-0.045	-0.053
-187.144	11.519	0.046	-0.035
-186.129	32.021	0.186	0.158
-185.114	32.902	0.210	0.180
-184.100	-200.000	-0.106	0.501
-183.085	-89.204	0.204	0.059
-182.071	760.010	-0.068	0.182
-181.056	-87.778	0.343	-0.102
-180.042	-160.503	-0.328	-0.017
-179.027	-200.000	0.029	0.218
-178.012	-200.000	-0.010	-0.056
-176.998	-58.928	0.451	0.192
-175.983	-64.501	-0.090	-0.036
-174.969	23.078	0.102	0.082
-173.954	150.549	-0.190	0.254
-172.939	43.962	-0.131	-0.119
-171.925	-110.613	-0.135	0.028
-170.910	-200.000	0.001	-0.073
-169.896	-200.000	-0.004	0.120
-168.881	405.498	0.103	0.214
-167.866	-41.243	-0.304	0.155
-166.852	291.095	-0.132	0.236
-165.837	-4.454	-0.210	-0.143
-164.823	-68.385	-0.329	-0.126
-163.808	244.243	-0.217	-0.359
-162.793	268.802	0.115	0.199
-161.779	-142.806	0.256	-0.025
-160.764	-200.000	-0.050	-0.230
-159.750	-200.000	0.016	-0.196
-158.735	-200.000	-0.051	0.345
-157.720	-200.000	-0.000	-0.141
-156.706	-65.346	-0.258	-0.102
-155.691	46.305	0.179	-0.164
-154.677	95.747	0.119	-0.134
-153.662	-124.450	0.026	0.004
-152.647	-109.636	0.054	-0.011
-151.633	83.772	0.256	0.275
-150.618	-84.123	0.395	-0.124
-149.604	-98.451	0.125	-0.032
-148.589	-122.409	-0.080	-0.013
-147.574	800.000	0.038	-0.151
-146.560	-40.598	-0.418	-0.214
-145.545	-200.000	-0.022	0.104
-144.531	-114.475	-0.228	0.043
-143.516	366.556	0.082	0.163
-142.502	800.000	-0.138	0.416
-141.487	-63.533	0.280	-0.113
-140.472	-56.480	0.078	-0.034
-139.458	128.866	0.080	-0.101
-138.443	-162.810	-0.192	-0.009
-137.429	115.102	-0.281	-0.338
-136.414	97.335	-0.334	-0.377
-135.399	252.902	-0.136	-0.229
-134.385	47.691	-0.147	-0.135
-133.370	357.350	-0.269	-0.529
-132.356	-49.964	0.245	-0.114
-131.341	800.000	0.097	-0.308
-130.326	-200.000	0.004	0.039
-129.312	36.496	0.177	-0.154
-128.297	-200.000	0.018	-0.289
-127.283	-195.327	-0.258	-0.002
-126.268	-200.000	0.024	0.174
-125.253	800.000	-0.057	-0.203
-124.239	336.591	0.012	-0.023
-123.224	-32.369	-0.064	0.035
-122.210	5.914	0.258	0.188
-121.195	-141.354	-0.432	-0.043
-120.180	-93.094	0.061	0.017
-119.166	206.325	-0.077	0.119
-118.151	800.000	-0.051	0.152
-117.137	18.262	-0.092	-0.072
-116.122	-116.832	-0.229	-0.041
-115.107	46.132	-0.264	-0.241
-114.093	60.809	0.117	-0.114
-113.078	167.381	-0.090	-0.126
-112.064	-78.065	0.240	-0.082
-111.049	-8.649	-0.047	-0.031
-110.034	-50.939	0.139	0.064
-109.020	-200.000	0.010	-0.083
-108.005	170.349	0.115	0.162
-106.991	74.627	-0.089	0.092
-105.976	-87.312	-0.300	0.090
-104.962	-109.051	0.119	0.025
-103.947	-1.268	-0.306	0.213
-102.932	-17.471	-0.068	0.042
-101.918	-154.060	0.063	-0.004
-100.903	-45.306	0.291	0.142
-99.889	227.609	-0.071	-0.114
-98.874	41.382	-0.181	0.161
-97.859	-16.231	0.329	-0.206
-96.845	331.363	0.063	0.119
-95.830	-122.899	0.260	-0.041
-94.816	83.913	0.025	-0.027
-93.801	-92.105	-0.091	0.025
-92.786	32.068	0.083	0.071
-91.772	52.821	0.105	0.099
-90.757	-200.000	0.006	0.248
-89.743	85.012	0.065	0.070
-88.728	-37.351	0.059	0.031
-87.713	-40.479	-0.103	0.053
-86.699	176.652	0.249	0.357
-85.684	-27.902	-0.060	-0.034
-84.670	800.000	-0.138	-0.419
-83.655	-200.000	0.009	0.227
-82.640	20.226	-0.267	0.212
-81.626	-141.721	-0.115	0.011
-80.611	-76.761	0.126	-0.043
-79.597	232.412	-0.029	0.047
-78.582	249.840	0.049	0.082
-77.567	-200.000	0.078	0.364
-76.553	-116.252	-0.238	-0.043
-75.538	-0.620	-0.222	0.155
-74.524	-150.881	-0.120	0.009
-73.509	-110.860	0.041	0.008
-72.494	-32.259	0.224	0.123
-71.480	419.105	-0.102	0.214
-70.465	-200.000	-0.037	-0.355
-69.451	-200.000	-0.002	0.019
-68.436	254.716	-0.127	-0.214
-67.422	653.831	0.093	0.235
-66.407	92.902	-0.083	-0.092
-65.392	-32.438	-0.127	0.069
-64.378	58.535	-0.173	-0.167
-63.363	214.336	0.091	0.141
-62.349	-159.194	-0.229	0.013
-61.334	176.649	-0.773	-1.104
-60.319	538.832	0.186	0.434
-59.305	453.678	-0.572	-1.244
-58.290	243.813	0.668	1.101
-57.276	428.182	0.749	1.590
-56.261	-200.000	103.687	593.925
-55.246	550.410	1440.928	3396.180
-54.232	186.271	2628.629	3842.867
-53.217	115.700	2168.251	2605.475
-52.203	41.288	1697.099	1507.689
-51.188	33.712	1506.986	1287.589
-50.173	31.315	1479.719	1248.249
-49.159	52.491	1533.217	1437.923
-48.144	52.984	1550.762	1457.675
-47.130	33.911	1508.134	1289.718
-46.115	30.807	1493.092	1255.900
-45.100	30.662	1489.207	1251.610
-44.086	30.627	1487.303	1249.723
-43.071	30.568	1485.727	1247.955
-42.057	30.547	1483.783	1246.131
-41.042	30.529	1482.908	1245.224
-40.027	30.485	1481.070	1243.340
-39.013	30.541	1479.649	1242.470
-37.998	30.586	1478.159	1241.472
-36.984	30.558	1477.262	1240.483
-35.969	30.489	1475.683	1238.643
-34.954	30.512	1474.262	1237.557
-33.940	30.505	1473.031	1236.429
-32.925	30.583	1471.513	1235.623
-31.911	30.600	1470.538	1234.869
-30.896	30.702	1469.010	1234.215
-29.881	30.619	1467.940	1232.714
-28.867	30.747	1466.256	1232.101
-27.852	30.692	1465.051	1230.676
-26.838	30.628	1463.595	1228.982
-25.823	30.561	1461.840	1227.016
-24.809	30.622	1460.401	1226.158
-23.794	30.722	1458.983	1225.583
-22.779	30.744	1457.649	1224.554
-21.765	30.557	1457.167	1222.871
-20.750	30.564	1456.076	1221.956
-19.736	30.634	1454.647	1221.164
-18.721	30.543	1453.863	1219.865
-17.706	30.505	1452.857	1218.722
-16.692	30.561	1451.205	1217.656
-15.677	30.538	1450.312	1216.704
-14.663	30.595	1448.873	1215.820
-13.648	30.594	1448.302	1215.289
-12.633	30.468	1447.765	1213.965
-11.619	30.448	1446.905	1213.066
-10.604	30.546	1445.912	1212.822
-9.590	30.521	1445.363	1212.155
-8.575	30.525	1444.105	1211.077
-7.560	30.516	1443.508	1210.468
-6.546	30.385	1442.681	1208.876
-5.531	30.436	1441.778	1208.403
-4.517	30.523	1440.559	1207.895
-3.502	30.460	1439.840	1206.840
-2.487	30.493	1438.687	1206.035
-1.473	30.479	1437.970	1205.295
-0.458	30.466	1436.602	1204.021
0.556	29.337	1427.197	1193.090
1.571	26.325	1401.629	1152.435
2.586	22.864	1344.435	1084.107
3.600	21.349	1264.578	1010.867
4.615	19.975	1218.686	966.433
5.629	17.390	1163.483	908.784
6.644	10.697	1082.068	811.758
7.659	5.589	1044.213	758.595
8.673	4.904	1039.282	751.641
9.688	4.809	1036.082	748.803
10.702	4.869	1034.396	747.807
11.717	4.768	1032.530	745.910
12.731	6.682	1034.303	756.302
13.746	13.127	1043.167	793.782
14.761	18.069	1049.190	822.125
15.775	18.296	1048.470	822.577
16.790	17.419	1046.252	816.558
17.804	16.504	1044.116	810.438
18.819	15.428	1042.225	803.746
19.834	15.101	1041.059	801.213
20.848	14.761	1040.167	798.826
21.863	14.560	1039.246	797.091
22.877	14.280	1038.596	795.186
23.892	14.114	1037.588	793.551
24.907	14.199	1036.538	793.080
25.921	14.050	1036.400	792.196
26.936	14.091	1035.634	791.738
27.950	14.251	1034.019	791.192
28.965	14.091	1033.618	790.054
29.980	14.231	1032.055	789.456
30.994	14.274	1031.199	788.934
32.009	14.444	1029.963	788.724
33.023	14.326	1029.778	787.953
34.038	14.391	1028.577	787.273
35.053	14.312	1027.600	786.083
36.067	14.207	1026.926	784.999
37.082	14.170	1026.049	784.089
38.096	14.173	1025.058	783.273
39.111	14.305	1024.593	783.470
40.126	14.389	1023.336	782.836
41.140	14.248	1022.241	781.266
42.155	14.155	1020.839	779.689
43.169	14.070	1020.067	778.633
44.184	14.014	1019.175	777.623
45.199	13.974	1018.278	776.682
46.213	13.997	1016.967	775.719
47.228	13.966	1016.533	775.174
48.242	14.103	1015.690	775.104
49.257	14.240	1014.430	774.711
50.271	14.226	1013.300	773.715
51.286	14.214	1012.483	772.965
52.301	14.264	1011.828	772.628
53.315	14.186	1011.276	771.777
54.330	14.290	1010.112	771.300
55.344	14.062	1009.557	769.754
56.359	14.044	1008.416	768.733
57.374	14.183	1007.374	768.513
58.388	13.974	1007.062	767.241
59.403	13.957	1005.964	766.261
60.417	13.870	1005.680	765.573
61.432	13.893	1004.797	764.940
62.447	14.056	1003.362	764.531
63.461	13.988	1002.539	763.523
64.476	13.969	1001.810	762.811
65.490	13.862	1001.074	761.694
66.505	13.908	999.731	760.814
67.520	14.014	999.018	760.693
68.534	13.938	998.596	759.954
69.549	13.941	997.769	759.273
70.563	13.917	997.291	758.730
71.578	13.953	996.298	758.075
72.593	13.954	995.417	757.341
73.607	13.890	994.249	756.094
74.622	13.844	993.328	755.117
75.636	13.901	992.717	754.844
76.651	13.910	991.581	753.954
77.666	13.889	991.407	753.660
78.680	13.922	990.407	752.983
79.695	13.809	990.381	752.382
80.709	14.026	989.420	752.569
81.724	13.984	988.533	751.639
82.739	13.858	987.977	750.579
83.753	13.973	987.502	750.671
84.768	14.028	986.812	750.327
85.782	14.280	986.138	750.888
86.797	14.300	985.246	750.230
87.812	14.285	984.106	749.228
88.826	14.201	983.633	748.428
89.841	14.133	983.172	747.702
90.855	14.255	981.858	747.185
91.870	14.259	981.660	746.988
92.884	14.218	980.782	746.069
93.899	14.274	979.800	745.506
94.914	14.308	978.789	744.823
95.928	14.301	978.217	744.288
96.943	14.511	977.454	744.582
97.957	14.530	976.529	743.898
98.972	14.282	975.999	742.319
99.987	14.187	975.620	741.543
101.001	14.348	974.190	741.106
102.016	14.347	973.543	740.547
103.030	14.312	972.754	739.725
104.045	14.382	971.800	739.246
105.060	14.443	970.620	738.553
106.074	14.185	970.509	737.260
107.089	14.190	969.165	736.192
108.103	14.111	968.247	735.084
109.118	13.993	967.269	733.752
110.133	13.927	967.219	733.359
111.147	14.009	966.048	732.768
112.162	13.974	965.134	731.855
113.176	14.114	964.407	731.858
114.191	14.018	963.442	730.635
115.206	14.249	962.238	730.676
116.220	14.074	962.004	729.662
117.235	13.993	960.997	728.478
118.249	14.013	960.345	728.007
119.264	14.151	959.074	727.584
120.279	13.961	958.574	726.312
121.293	13.916	958.107	725.694
122.308	13.979	957.011	725.074
123.322	13.992	956.145	724.412
124.337	13.854	955.358	723.152
125.352	13.939	954.280	722.641
126.366	14.004	953.136	721.994
127.381	14.006	952.077	721.135
128.395	13.942	951.277	720.190
129.410	14.043	950.081	719.657
130.424	13.957	949.485	718.768
131.439	13.936	948.749	718.060
132.454	14.016	948.021	717.787
133.468	14.111	946.940	717.318
134.483	14.203	946.417	717.254
135.497	14.204	946.004	716.882
136.512	14.264	944.793	716.160
137.527	13.985	944.715	714.837
138.541	14.126	943.554	714.500
139.556	14.086	943.193	713.991
140.570	14.062	942.004	712.927
141.585	14.351	940.934	713.292
142.600	14.184	940.837	712.439
143.614	14.365	940.122	712.608
144.629	14.455	939.068	712.132
145.643	14.424	938.500	711.504
146.658	14.374	937.645	710.582
147.673	14.262	937.017	709.566
148.687	14.212	936.002	708.522
149.702	14.232	935.424	708.105
150.716	14.404	933.687	707.458
151.731	14.178	933.488	706.287
152.746	14.099	932.958	705.487
153.760	14.396	931.718	705.746
154.775	14.214	931.302	704.595
155.789	14.313	930.569	704.399
156.804	14.350	929.607	703.763
157.819	14.391	928.748	703.225
158.833	14.405	928.552	703.073
159.848	14.462	927.872	702.735
160.862	14.582	926.804	702.369
161.877	14.512	926.758	701.979
162.892	14.420	925.450	700.541
163.906	14.233	924.972	699.331
164.921	14.340	923.983	698.970
165.935	14.234	922.724	697.512
166.950	14.291	921.775	696.969
167.964	14.287	921.203	696.458
168.979	14.343	920.206	695.880
169.994	14.462	918.863	695.297
171.008	14.348	918.279	694.318
172.023	14.335	917.334	693.490
173.037	14.412	916.661	693.239
174.052	14.434	916.537	693.175
175.067	14.450	915.676	692.528
176.081	14.448	914.551	691.608
177.096	14.203	914.031	690.140
178.110	14.282	912.996	689.624
179.125	14.357	912.393	689.417
180.140	14.413	911.778	689.122
181.154	14.439	910.954	688.546
182.169	14.549	909.774	688.050
183.183	14.591	909.235	687.752
184.198	14.529	908.973	687.237
185.213	14.574	908.158	686.745
186.227	14.667	907.434	686.522
187.242	14.593	907.249	686.015
188.256	14.560	907.040	685.662
189.271	14.744	905.779	685.403
190.286	14.808	905.067	685.065
191.300	14.682	904.129	683.778
192.315	14.368	903.240	681.762
193.329	14.365	902.812	681.367
194.344	14.431	902.293	681.184
195.359	14.488	901.647	680.867
196.373	14.561	901.126	680.711
197.388	14.675	900.211	680.424
198.402	14.725	900.502	680.788
199.417	14.759	899.971	680.466
200.432	14.915	899.352	680.573
201.446	14.874	899.049	680.118
202.461	14.950	898.581	680.012
203.475	14.947	897.880	679.409
204.490	15.121	896.775	679.216
205.504	15.009	896.128	678.213
206.519	14.969	895.184	677.277
207.534	14.732	894.874	676.022
208.548	14.962	893.704	676.008
209.563	14.833	893.776	675.481
210.577	14.901	892.587	674.797
211.592	14.766	892.506	674.131
212.607	14.872	892.039	674.146
213.621	14.994	891.008	673.801
214.636	14.943	890.569	673.202
215.650	15.000	889.709	672.725
216.665	15.024	889.283	672.437
217.680	15.031	888.951	672.157
218.694	15.048	888.199	671.597
219.709	15.278	887.595	672.000
220.723	15.113	887.189	670.972
221.738	15.152	886.285	670.389
222.753	15.185	885.787	670.083
223.767	15.055	884.981	668.893
224.782	15.071	884.372	668.438
225.796	15.156	883.628	668.157
226.811	15.309	883.062	668.278
227.826	15.208	882.115	667.101
228.840	15.187	881.700	666.646
229.855	15.072	881.080	665.662
230.869	15.119	880.296	665.194
231.884	15.248	879.343	664.928
232.899	15.039	879.098	663.857
233.913	15.210	877.988	663.637
234.928	15.191	877.528	663.155
235.942	15.049	876.797	661.982
236.957	15.001	876.082	661.195
237.972	15.050	875.622	660.979
238.986	15.010	875.378	660.579
240.001	15.065	874.690	660.221
241.015	15.068	873.813	659.513
242.030	15.058	873.230	658.975
243.045	15.206	872.480	658.929
244.059	15.196	872.050	658.510
245.074	15.269	871.452	658.285
246.088	15.244	870.498	657.410
247.103	15.384	870.215	657.686
248.117	15.350	869.584	657.017
249.132	15.294	869.062	656.347
250.147	15.537	868.660	656.936
251.161	15.579	868.194	656.688
252.176	15.492	867.594	655.838
253.190	15.674	866.765	655.861
254.205	15.871	865.745	655.799
255.220	15.769	865.520	655.175
256.234	15.760	864.565	654.358
257.249	15.748	864.211	653.985
258.263	15.710	863.637	653.346
259.278	15.714	863.315	653.058
260.293	15.790	862.233	652.478
261.307	15.842	862.320	652.686
262.322	15.934	861.535	652.393
263.336	15.844	861.141	651.690
264.351	15.857	860.654	651.312
265.366	15.859	859.953	650.732
266.380	16.003	859.262	650.706
267.395	15.974	858.136	649.686
268.409	15.969	857.581	649.189
269.424	15.983	857.310	648.979
270.439	15.823	857.088	648.139
271.453	15.851	855.557	647.031
272.468	15.883	855.079	646.735
273.482	15.880	854.406	646.156
274.497	15.776	853.853	645.283
275.512	16.062	852.493	645.294
276.526	15.926	852.217	644.508
277.541	15.994	851.484	644.157
278.555	15.886	851.273	643.525
279.570	16.047	850.663	643.623
280.585	16.036	850.177	643.157
281.599	16.053	849.774	642.858
282.614	16.157	848.787	642.451
283.628	16.021	848.205	641.435
284.643	15.898	848.293	640.978
285.657	16.067	847.324	640.831
286.672	16.103	846.785	640.505
287.687	15.979	846.565	639.809
288.701	16.162	845.953	639.986
289.716	16.110	845.518	639.403
290.730	16.041	844.875	638.597
291.745	16.317	843.933	638.874
292.760	16.331	843.088	638.229
293.774	16.236	842.842	637.629
294.789	16.317	841.961	637.211
295.803	16.286	841.566	636.738
296.818	16.389	840.793	636.485
297.833	16.293	840.179	635.603
298.847	16.110	839.567	634.398
299.862	16.314	838.911	634.611
300.876	16.191	838.476	633.764
301.891	16.288	837.474	633.315
302.906	16.387	836.906	633.199
303.920	16.318	836.748	632.766
304.935	16.449	835.909	632.567
305.949	16.445	835.373	632.088
306.964	16.515	835.011	632.022
307.979	16.451	834.158	631.079
308.993	16.576	833.568	631.045
310.008	16.436	833.247	630.224
311.022	16.453	832.894	629.963
312.037	16.538	831.951	629.512
313.052	16.468	831.724	629.026
314.066	16.407	831.264	628.395
315.081	16.437	830.501	627.874
316.095	16.447	829.865	627.374
317.110	16.197	829.326	625.981
318.125	16.462	828.644	626.395
319.139	16.334	828.321	625.621
320.154	16.356	828.049	625.444
321.168	16.413	827.145	624.913
322.183	16.429	826.704	624.584
323.197	16.526	826.069	624.408
324.212	16.555	825.534	624.054
325.227	16.598	824.905	623.683
326.241	16.502	824.874	623.249
327.256	16.583	823.665	622.581
328.270	16.519	823.269	621.990
329.285	16.581	822.771	621.786
330.300	16.537	822.296	621.210
331.314	16.553	821.728	620.788
332.329	16.617	821.055	620.458
333.343	16.707	820.341	620.194
334.358	16.734	820.145	620.090
335.373	16.733	819.697	619.693
336.387	16.790	818.796	619.163
337.402	16.811	818.359	618.856
338.416	16.812	818.145	618.643
339.431	16.955	817.473	618.603
340.446	16.848	817.002	617.801
341.460	16.981	816.477	617.831
342.475	17.011	815.909	617.459
343.489	17.054	815.129	616.970
344.504	16.978	815.004	616.545
345.519	16.974	814.807	616.323
346.533	17.099	813.718	615.898
347.548	17.070	813.398	615.497
348.562	17.135	812.810	615.234
349.577	17.080	811.802	614.217
350.592	17.012	811.541	613.719
351.606	16.851	811.468	613.030
352.621	16.865	810.810	612.526
353.635	16.951	810.197	612.322
354.650	16.994	809.782	612.110
355.665	17.062	809.217	611.872
356.679	17.057	809.012	611.644
357.694	17.198	808.199	611.485
358.708	17.031	807.651	610.413
359.723	17.134	807.052	610.277
360.738	17.128	806.503	609.787
361.752	17.145	806.093	609.486
362.767	17.133	805.813	609.176
363.781	17.172	805.994	609.400
364.796	17.260	805.378	609.193
365.810	17.350	804.698	608.949
366.825	17.346	804.610	608.814
367.840	17.345	804.197	608.444
368.854	17.418	803.640	608.229
369.869	17.467	803.165	607.992
370.883	17.420	802.604	607.343
371.898	17.430	801.921	606.809
372.913	17.379	801.169	606.004
373.927	17.534	800.914	606.312
374.942	17.515	800.409	605.807
375.956	17.427	799.568	604.806
376.971	17.514	798.986	604.621
377.986	17.649	798.286	604.516
379.000	17.544	798.149	603.986
380.015	17.702	797.683	604.139
381.029	17.655	797.306	603.633
382.044	17.654	796.748	603.154
383.059	17.706	796.053	602.758
384.073	17.621	795.395	601.908
385.088	17.666	795.043	601.745
386.102	17.550	794.425	600.817
387.117	17.595	793.853	600.490
388.132	17.623	793.137	599.992
389.146	17.534	793.097	599.598
390.161	17.647	792.565	599.539
391.175	17.521	792.442	598.949
392.190	17.563	792.240	598.891
393.205	17.707	791.500	598.786
394.219	17.626	790.935	598.021
395.234	17.667	790.559	597.826
396.248	17.608	790.039	597.173
397.263	17.541	789.496	596.474
398.278	17.453	789.286	595.955
399.292	17.612	788.202	595.639
400.307	17.687	787.803	595.547
401.321	17.672	787.529	595.237
402.336	17.684	787.426	595.148
403.350	17.385	787.542	594.138
404.365	17.630	786.536	594.182
405.380	17.843	785.760	594.285
406.394	17.795	785.531	593.894
407.409	17.989	784.922	594.054
408.423	18.033	784.675	593.966
409.438	17.855	784.392	593.080
410.453	18.090	784.062	593.596
411.467	18.110	783.632	593.287
412.482	18.081	782.862	592.550
413.496	18.142	782.850	592.701
414.511	18.164	782.217	592.246
415.526	18.129	782.104	591.985
416.540	18.222	781.486	591.788
417.555	17.992	781.228	590.745
418.569	18.016	780.959	590.573
419.584	18.058	780.780	590.529
420.599	18.221	779.764	590.271
421.613	156.990	1369.614	1795.815
422.628	135.484	1455.547	1795.904
