DTS Sentinel unit serial number:	SN413079Multiplexer serial number:	ORYXHardware model number:	OX4-SRSoftware version number:	ORYX F/W v4.00 Oryx Data Collector v3.7.2.0data status	okinstallation	princeton_trtdifferential loss correction	single-endedforward channel	channel 3reverse channel	N/Adate	2019/09/13time	07:48:35forward acquisition time	60.00reverse acquisition time	0.00gamma	496.2192k internal	0.2336k external	0.2336temperature offset calibration	1.0141default loss term (dB/km)	0.3790temperature slope calibration	1.0000multiplexer offset coefficient	1.0000multiplexer slope coefficient	1.0000fibre end	0.00T internal ref (°C)	26.56T ext. ref 1 (°C)	4.22T ext. ref 2 (°C)	23.00length (m)	temperature (°C)	Stokes	anti-Stokes-747.200	127.659	0.099	-0.126
-746.185	-26.178	-0.234	-0.138
-745.171	-66.901	0.198	-0.078
-744.156	-102.726	0.363	0.087
-743.142	-85.833	0.185	0.058
-742.127	167.554	0.044	-0.062
-741.112	-145.926	0.395	0.035
-740.098	800.000	0.050	0.189
-739.083	346.132	0.136	0.268
-738.069	110.261	-0.208	0.250
-737.054	195.729	0.120	-0.183
-736.039	481.634	-0.110	-0.250
-735.025	493.763	-0.058	0.133
-734.010	585.546	-0.072	-0.178
-732.996	83.154	0.108	-0.118
-731.981	-43.387	-0.146	-0.074
-730.966	101.889	-0.055	-0.064
-729.952	91.450	-0.118	0.133
-728.937	-32.561	0.038	0.021
-727.923	-45.774	-0.137	-0.068
-726.908	504.540	-0.020	0.047
-725.894	-81.247	-0.315	-0.104
-724.879	-166.571	-0.283	0.012
-723.864	-200.000	-0.014	0.268
-722.850	-200.000	0.010	-0.135
-721.835	-107.503	-0.276	-0.061
-720.821	800.000	-0.166	0.469
-719.806	-169.081	-0.133	-0.005
-718.791	-1.630	-0.088	-0.063
-717.777	-200.000	-0.000	-0.202
-716.762	-200.000	0.045	-0.311
-715.748	568.769	-0.113	-0.275
-714.733	-200.000	0.002	-0.253
-713.718	-200.000	-0.034	-0.249
-712.704	-200.000	0.030	0.178
-711.689	-5.328	0.169	0.116
-710.675	-46.310	0.124	-0.061
-709.660	28.400	-0.383	-0.325
-708.645	184.568	-0.092	0.137
-707.631	-106.868	-0.118	0.026
-706.616	404.802	0.100	0.212
-705.602	-79.594	0.137	0.046
-704.587	122.287	0.145	0.181
-703.572	430.691	-0.063	-0.137
-702.558	800.000	0.110	-0.310
-701.543	150.573	-0.098	-0.133
-700.529	157.738	-0.050	-0.070
-699.514	-106.337	-0.271	-0.061
-698.499	444.821	-0.139	-0.305
-697.485	109.365	0.254	0.305
-696.470	450.622	-0.109	0.241
-695.456	-200.000	0.028	-0.181
-694.441	-200.000	-0.010	-0.262
-693.426	-101.439	-0.476	-0.116
-692.412	287.032	-0.245	0.444
-691.397	-50.334	-0.088	0.042
-690.383	147.747	-0.180	-0.243
-689.368	-200.000	-0.018	0.092
-688.354	-200.000	-0.008	0.127
-687.339	-149.483	-0.283	0.022
-686.324	-200.000	0.018	-0.268
-685.310	-200.000	-0.087	-0.388
-684.295	-44.974	-0.027	-0.013
-683.281	800.000	0.034	0.139
-682.266	-81.640	-0.092	-0.030
-681.251	323.867	0.055	0.105
-680.237	-200.000	-0.046	-0.310
-679.222	141.008	-0.134	0.177
-678.208	-25.856	-0.283	-0.167
-677.193	84.944	-0.117	-0.128
-676.178	-110.291	0.135	0.028
-675.164	-200.000	0.011	0.084
-674.149	143.406	-0.123	-0.163
-673.135	56.359	-0.078	-0.076
-672.120	-119.424	0.134	-0.023
-671.105	55.438	-0.148	0.144
-670.091	-22.917	-0.131	-0.079
-669.076	287.901	0.221	-0.400
-668.062	203.215	0.162	-0.251
-667.047	-75.932	-0.092	0.033
-666.032	-78.695	-0.175	0.060
-665.018	360.152	-0.026	-0.051
-664.003	800.000	0.001	-0.003
-662.989	-2.171	-0.222	0.156
-661.974	-21.521	-0.122	0.074
-660.959	-13.497	-0.247	0.160
-659.945	42.019	0.246	-0.224
-658.930	-200.000	-0.026	0.249
-657.916	-38.434	-0.183	-0.097
-656.901	12.685	0.438	-0.338
-655.886	-126.428	0.209	-0.031
-654.872	-132.950	-0.073	0.009
-653.857	-44.054	-0.183	0.092
-652.843	19.641	-0.286	0.231
-651.828	127.789	-0.142	0.180
-650.814	-87.381	-0.268	-0.081
-649.799	15.698	0.155	0.122
-648.784	-138.185	0.369	0.041
-647.770	568.597	0.056	-0.136
-646.755	57.151	0.179	-0.175
-645.741	-116.843	-0.133	0.024
-644.726	-148.448	-0.160	0.013
-643.711	82.005	-0.195	-0.212
-642.697	416.076	0.118	-0.252
-641.682	-135.340	0.119	0.014
-640.668	-200.000	0.020	-0.120
-639.653	-123.966	-0.278	0.044
-638.638	-54.041	-0.341	0.155
-637.624	-163.293	0.326	-0.016
-636.609	-80.892	0.211	0.070
-635.595	-200.000	0.001	-0.165
-634.580	-200.000	-0.047	0.305
-633.565	-110.941	-0.131	0.027
-632.551	199.577	0.150	-0.230
-631.536	-78.532	-0.245	-0.084
-630.522	-200.000	0.033	0.310
-629.507	47.612	-0.186	-0.174
-628.492	33.706	0.196	0.170
-627.478	87.245	-0.238	0.263
-626.463	800.000	0.095	-0.297
-625.449	-12.240	-0.318	-0.208
-624.434	4.410	0.270	0.198
-623.419	-53.388	0.350	-0.160
-622.405	113.952	-0.112	-0.136
-621.390	127.503	0.177	-0.225
-620.376	-40.477	-0.162	-0.084
-619.361	342.828	-0.014	0.027
-618.346	-104.352	-0.220	0.051
-617.332	-115.038	-0.273	-0.052
-616.317	159.192	0.023	-0.032
-615.303	-0.988	0.269	0.190
-614.288	800.000	-0.043	0.157
-613.273	-7.135	-0.168	-0.114
-612.259	-64.819	-0.198	-0.080
-611.244	-61.513	0.181	-0.076
-610.230	800.000	-0.059	0.220
-609.215	-200.000	-0.082	-0.412
-608.201	-144.788	0.318	-0.029
-607.186	-45.430	-0.053	-0.026
-606.171	553.817	-0.055	-0.133
-605.157	800.000	-0.179	-0.495
-604.142	337.666	0.102	0.198
-603.128	-84.762	0.069	0.022
-602.113	-67.611	-0.382	0.150
-601.098	-120.853	0.220	0.037
-600.084	-78.237	0.115	-0.040
-599.069	-6.904	0.102	-0.069
-598.055	135.188	-0.126	0.163
-597.040	800.000	-0.043	0.170
-596.025	-123.243	-0.278	0.044
-595.011	82.252	-0.282	-0.305
-593.996	799.952	0.097	-0.268
-592.982	250.595	-0.134	0.227
-591.967	215.398	-0.120	-0.190
-590.952	-100.847	0.435	-0.107
-589.938	-200.000	-0.013	0.177
-588.923	-44.601	-0.335	-0.167
-587.909	30.122	-0.158	-0.135
-586.894	-40.044	0.154	-0.080
-585.879	86.150	-0.042	0.046
-584.865	129.065	-0.127	-0.162
-583.850	-64.727	0.081	-0.033
-582.836	124.664	0.191	0.240
-581.821	503.572	0.060	0.139
-580.806	-80.887	0.304	-0.101
-579.792	-150.359	-0.179	0.014
-578.777	109.645	0.053	-0.064
-577.763	554.780	-0.182	-0.437
-576.748	16.183	-0.240	-0.189
-575.733	642.468	-0.098	-0.248
-574.719	-61.252	-0.373	-0.157
-573.704	-200.000	0.015	-0.241
-572.690	243.891	-0.075	-0.125
-571.675	79.695	-0.255	-0.273
-570.661	91.152	-0.193	-0.216
-569.646	-200.000	-0.020	-0.172
-568.631	-200.000	0.041	-0.293
-567.617	-65.916	0.075	0.030
-566.602	318.258	0.134	-0.253
-565.588	-23.096	-0.118	0.071
-564.573	713.028	0.113	0.298
-563.558	-170.877	0.142	0.005
-562.544	-131.018	-0.296	-0.039
-561.529	16.373	0.165	0.130
-560.515	-200.000	0.062	-0.359
-559.500	204.550	-0.072	-0.111
-558.485	800.000	-0.095	-0.310
-557.471	15.266	0.145	0.113
-556.456	-48.885	-0.213	0.102
-555.442	-50.034	0.085	0.040
-554.427	800.000	-0.055	0.238
-553.412	800.000	-0.033	-0.132
-552.398	437.391	-0.206	0.447
-551.383	7.478	-0.174	-0.129
-550.369	-11.885	0.308	0.201
-549.354	-130.053	-0.265	-0.036
-548.339	218.079	-0.122	-0.193
-547.325	-85.946	0.157	-0.048
-546.310	-200.000	0.010	0.130
-545.296	418.326	0.080	-0.170
-544.281	335.366	0.080	-0.155
-543.266	-120.634	-0.187	-0.032
-542.252	3.148	0.189	0.137
-541.237	47.342	0.257	-0.238
-540.223	-82.237	-0.172	0.056
-539.208	-200.000	0.036	-0.186
-538.193	-200.000	0.006	-0.259
-537.179	88.114	0.037	0.040
-536.164	157.496	0.095	-0.131
-535.150	-200.000	-0.007	0.080
-534.135	800.000	0.100	0.312
-533.121	-47.216	0.303	-0.147
-532.106	306.651	-0.105	0.195
-531.091	-200.000	0.031	-0.264
-530.077	-8.155	-0.106	-0.071
-529.062	671.860	-0.199	-0.513
-528.048	-172.789	-0.269	-0.008
-527.033	-69.328	-0.217	0.083
-526.018	-45.996	-0.086	0.042
-525.004	-200.000	-0.001	-0.243
-523.989	-200.000	-0.008	-0.085
-522.975	4.534	-0.217	0.159
-521.960	-88.464	0.110	0.033
-520.945	-122.168	-0.220	0.036
-519.931	191.835	-0.130	0.194
-518.916	48.609	-0.199	0.186
-517.902	434.591	0.021	0.046
-516.887	199.824	-0.153	-0.233
-515.872	-22.811	0.245	-0.147
-514.858	-126.459	-0.270	0.040
-513.843	59.651	0.154	-0.151
-512.829	-200.000	-0.010	-0.155
-511.814	244.662	-0.210	0.351
-510.799	-74.793	-0.102	0.036
-509.785	-200.000	0.022	-0.210
-508.770	-62.201	-0.166	0.069
-507.756	-56.820	-0.050	0.022
-506.741	-200.000	0.054	0.247
-505.726	-132.345	0.184	0.024
-504.712	-18.534	0.298	0.185
-503.697	52.614	-0.338	0.321
-502.683	-200.000	0.025	-0.142
-501.668	-86.829	0.259	-0.079
-500.653	9.805	0.312	-0.236
-499.639	-99.292	-0.282	-0.071
-498.624	-71.880	-0.142	-0.052
-497.610	-185.737	0.172	-0.003
-496.595	80.912	-0.191	-0.205
-495.581	-81.609	-0.154	0.050
-494.566	27.337	0.096	0.080
-493.551	62.034	-0.168	-0.167
-492.537	-154.230	-0.061	0.004
-491.522	111.006	0.171	-0.205
-490.508	106.911	-0.138	0.163
-489.493	-56.756	0.154	-0.068
-488.478	-5.823	0.180	0.123
-487.464	-49.288	0.066	-0.032
-486.449	-173.875	0.220	0.006
-485.435	121.321	-0.247	0.305
-484.420	-121.352	-0.212	0.035
-483.405	-149.927	0.113	-0.009
-482.391	9.471	0.109	0.082
-481.376	-48.053	0.287	0.138
-480.362	50.150	0.102	-0.095
-479.347	800.000	-0.100	0.320
-478.332	55.346	0.281	0.271
-477.318	800.000	-0.041	0.119
-476.303	547.740	0.090	-0.213
-475.289	-97.935	-0.439	0.112
-474.274	-200.000	0.074	0.336
-473.259	417.014	0.114	-0.241
-472.245	-146.600	-0.231	0.020
-471.230	-200.000	-0.014	-0.147
-470.216	14.457	-0.138	-0.107
-469.201	442.023	-0.154	-0.334
-468.186	-109.043	0.225	0.048
-467.172	-200.000	0.122	-0.554
-466.157	-125.190	0.426	-0.065
-465.143	17.663	0.228	0.180
-464.128	23.661	-0.301	-0.246
-463.113	-200.000	0.069	0.315
-462.099	-150.010	0.129	-0.010
-461.084	-200.000	-0.033	-0.146
-460.070	-15.955	-0.461	-0.291
-459.055	91.869	-0.132	-0.147
-458.040	-200.000	-0.003	0.092
-457.026	800.000	-0.061	0.207
-456.011	-109.375	0.254	-0.053
-454.997	-78.525	-0.192	0.065
-453.982	-200.000	-0.015	-0.135
-452.968	260.929	-0.108	0.186
-451.953	-200.000	-0.025	0.159
-450.938	-200.000	0.018	0.483
-449.924	-37.991	-0.271	0.143
-448.909	97.476	-0.108	0.123
-447.895	-77.001	0.307	0.106
-446.880	111.519	0.147	-0.176
-445.865	-117.799	-0.350	0.062
-444.851	-53.122	0.294	0.134
-443.836	-71.167	0.077	-0.029
-442.822	-200.000	-0.044	-0.682
-441.807	69.521	0.215	-0.219
-440.792	560.774	-0.149	0.357
-439.778	191.390	-0.209	-0.312
-438.763	-200.000	-0.004	-0.031
-437.749	-200.000	0.019	-0.232
-436.734	211.590	-0.172	-0.269
-435.719	-200.000	0.021	-0.254
-434.705	-77.615	0.296	-0.102
-433.690	-200.000	-0.004	-0.064
-432.676	-119.754	0.286	-0.049
-431.661	-48.576	-0.241	-0.115
-430.646	-200.000	0.015	0.116
-429.632	-129.554	-0.081	0.011
-428.617	-125.021	-0.018	0.003
-427.603	18.391	0.247	0.196
-426.588	800.000	-0.031	0.117
-425.573	-20.765	0.245	-0.149
-424.559	-81.277	-0.103	0.034
-423.544	48.487	0.069	0.064
-422.530	-200.000	0.011	0.055
-421.515	-149.077	0.359	-0.029
-420.500	-54.200	0.263	0.119
-419.486	-200.000	0.048	-0.267
-418.471	415.605	0.036	0.076
-417.457	-35.581	-0.150	0.081
-416.442	225.269	0.014	-0.023
-415.428	278.002	-0.215	0.379
-414.413	-200.000	-0.008	0.222
-413.398	215.369	-0.141	0.222
-412.384	-71.878	-0.427	0.157
-411.369	249.761	0.088	0.149
-410.355	32.274	-0.126	-0.108
-409.340	316.150	0.143	-0.267
-408.325	800.000	0.058	-0.189
-407.311	-200.000	-0.001	0.153
-406.296	-163.098	0.092	0.004
-405.282	800.000	0.111	-0.384
-404.267	483.564	0.050	-0.112
-403.252	-89.753	-0.259	0.075
-402.238	-151.797	0.179	0.013
-401.223	72.608	0.026	0.027
-400.209	-179.416	-0.192	-0.004
-399.194	51.568	-0.018	-0.017
-398.179	-130.313	0.319	0.043
-397.165	-200.000	0.023	0.183
-396.150	499.433	-0.130	0.296
-395.136	-80.579	-0.118	-0.039
-394.121	451.590	-0.086	-0.188
-393.106	5.192	0.157	-0.115
-392.092	-47.929	0.279	0.134
-391.077	-200.000	-0.014	-0.093
-390.063	16.672	-0.088	0.069
-389.048	-137.795	0.376	-0.042
-388.033	719.830	0.131	-0.346
-387.019	-200.000	-0.018	-0.203
-386.004	800.000	0.137	-0.384
-384.990	-154.421	0.157	-0.010
-383.975	-27.874	-0.136	-0.078
-382.960	53.256	0.087	0.082
-381.946	79.424	0.131	0.139
-380.931	800.000	0.138	-0.416
-379.917	-76.329	-0.182	0.063
-378.902	99.174	0.037	-0.042
-377.888	229.330	-0.183	0.296
-376.873	692.391	-0.113	-0.293
-375.858	68.264	0.299	-0.304
-374.844	800.000	0.015	0.061
-373.829	-15.417	0.111	-0.070
-372.815	167.242	-0.119	0.167
-371.800	-87.764	-0.091	0.027
-370.785	254.488	-0.132	0.223
-369.771	725.297	0.027	0.071
-368.756	-95.175	0.292	0.078
-367.742	-75.925	-0.154	-0.054
-366.727	51.173	-0.109	0.102
-365.712	-6.488	0.154	0.104
-364.698	-117.537	-0.203	0.036
-363.683	-200.000	-0.012	0.512
-362.669	4.068	0.073	0.053
-361.654	-200.000	-0.005	-0.072
-360.639	-200.000	0.024	0.308
-359.625	151.015	0.243	0.327
-358.610	705.199	0.093	0.243
-357.596	-122.332	0.334	0.054
-356.581	800.000	-0.028	0.077
-355.566	-6.211	0.198	0.134
-354.552	-200.000	0.010	0.304
-353.537	-200.000	-0.005	-0.046
-352.523	205.024	0.045	0.069
-351.508	-85.821	-0.198	0.061
-350.493	-19.157	0.315	0.193
-349.479	-6.202	-0.097	-0.066
-348.464	-200.000	-0.004	-0.085
-347.450	-56.526	-0.213	-0.093
-346.435	-35.741	-0.244	-0.131
-345.420	194.930	-0.073	0.110
-344.406	313.383	-0.149	-0.277
-343.391	332.870	0.170	-0.325
-342.377	-127.878	0.210	-0.030
-341.362	800.000	-0.076	-0.277
-340.348	-146.458	-0.304	-0.026
-339.333	-27.839	0.109	0.063
-338.318	9.134	-0.158	0.118
-337.304	-156.889	0.254	0.015
-336.289	170.296	-0.141	-0.199
-335.275	800.000	-0.090	-0.250
-334.260	255.748	0.071	-0.121
-333.245	-200.000	-0.008	-0.238
-332.231	6.296	-0.062	0.046
-331.216	-56.718	-0.095	-0.042
-330.202	-119.903	0.153	-0.026
-329.187	-11.094	-0.068	0.044
-328.172	-93.284	-0.084	0.023
-327.158	-111.300	0.236	-0.048
-326.143	-54.319	0.134	0.060
-325.129	88.749	0.135	0.148
-324.114	800.000	0.064	0.235
-323.099	-200.000	0.000	0.052
-322.085	-68.943	-0.298	0.113
-321.070	248.262	0.087	0.146
-320.056	-99.625	-0.083	-0.021
-319.041	-200.000	0.025	-0.283
-318.026	148.945	-0.109	0.146
-317.012	451.966	-0.100	-0.219
-315.997	316.324	0.230	0.429
-314.983	398.680	0.069	0.144
-313.968	41.865	-0.278	-0.249
-312.953	10.625	-0.284	0.214
-311.939	800.000	0.106	0.311
-310.924	-21.515	-0.357	0.215
-309.910	800.000	0.153	0.575
-308.895	-70.792	-0.198	-0.074
-307.880	-34.587	0.131	-0.071
-306.866	699.140	-0.107	0.279
-305.851	363.887	0.056	0.111
-304.837	-19.232	0.318	-0.195
-303.822	800.000	0.034	-0.111
-302.807	-145.379	0.297	-0.026
-301.793	-28.617	-0.088	-0.050
-300.778	17.075	-0.224	0.175
-299.764	-200.000	-0.067	-0.363
-298.749	-28.644	0.164	-0.093
-297.735	133.129	-0.103	-0.131
-296.720	-160.228	-0.092	-0.005
-295.705	208.717	-0.069	0.107
-294.691	-200.000	-0.000	0.379
-293.676	584.692	-0.092	0.224
-292.662	800.000	-0.053	0.146
-291.647	-200.000	0.052	0.309
-290.632	11.791	0.066	0.050
-289.618	-4.609	-0.193	-0.131
-288.603	-200.000	-0.025	0.177
-287.589	-200.000	0.028	0.166
-286.574	-152.040	-0.071	-0.005
-285.559	8.447	0.204	-0.152
-284.545	26.206	-0.083	0.068
-283.530	-89.636	-0.155	0.045
-282.516	-20.940	0.335	0.202
-281.501	88.103	-0.051	-0.055
-280.486	-88.230	-0.339	-0.100
-279.472	-7.654	-0.180	0.120
-278.457	299.502	0.114	0.208
-277.443	27.076	0.290	0.240
-276.428	94.184	-0.212	0.237
-275.413	-69.490	-0.246	-0.093
-274.399	-200.000	-0.015	-0.336
-273.384	800.000	0.034	-0.097
-272.370	4.426	0.331	0.239
-271.355	64.898	-0.121	0.121
-270.340	362.788	-0.030	0.058
-269.326	16.526	0.369	-0.287
-268.311	23.375	0.269	0.218
-267.297	-200.000	0.033	-0.178
-266.282	252.886	-0.061	-0.102
-265.267	245.023	0.100	0.165
-264.253	800.000	-0.053	0.190
-263.238	-19.542	-0.204	-0.125
-262.224	-53.334	0.084	0.038
-261.209	-18.445	-0.115	-0.071
-260.195	-153.310	-0.477	0.033
-259.180	-183.198	-0.183	-0.003
-258.165	293.489	-0.228	0.411
-257.151	138.742	0.173	-0.224
-256.136	2.592	-0.279	-0.200
-255.122	80.135	-0.085	0.090
-254.107	-125.122	-0.034	0.005
-253.092	98.298	-0.078	0.089
-252.078	113.133	0.046	-0.055
-251.063	-200.000	-0.028	0.614
-250.049	-200.000	0.077	0.335
-249.034	2.008	-0.175	0.124
-248.019	-27.136	0.143	0.082
-247.005	-167.247	0.251	-0.010
-245.990	-86.614	-0.105	0.032
-244.976	182.000	0.030	-0.043
-243.961	-200.000	-0.003	0.096
-242.946	238.289	0.132	-0.216
-241.932	97.422	0.216	-0.244
-240.917	-177.168	-0.221	0.005
-239.903	-15.766	0.378	0.237
-238.888	-152.897	-0.131	-0.009
-237.873	42.338	-0.187	-0.168
-236.859	800.000	0.055	0.233
-235.844	800.000	0.023	-0.090
-234.830	-34.142	0.200	0.108
-233.815	-135.718	-0.287	0.034
-232.800	-82.654	-0.262	-0.084
-231.786	-136.090	0.078	0.009
-230.771	49.012	0.130	-0.120
-229.757	-6.774	0.223	-0.149
-228.742	800.000	0.064	0.254
-227.727	-200.000	0.014	-0.187
-226.713	5.347	0.268	-0.195
-225.698	-158.044	-0.234	-0.014
-224.684	71.703	0.104	-0.106
-223.669	432.701	-0.129	-0.276
-222.655	-141.045	0.364	-0.037
-221.640	2.133	0.345	0.245
-220.625	450.932	0.060	0.131
-219.611	-135.920	0.221	0.026
-218.596	-200.000	-0.049	0.248
-217.582	-101.753	0.255	-0.061
-216.567	317.329	-0.137	0.255
-215.552	168.497	0.230	-0.322
-214.538	2.674	0.320	0.228
-213.523	-15.220	0.369	0.233
-212.509	47.711	-0.199	0.182
-211.494	52.744	-0.231	0.217
-210.479	-140.600	-0.046	0.005
-209.465	390.022	0.029	0.058
-208.450	-50.903	-0.081	0.037
-207.436	47.195	0.125	0.115
-206.421	800.000	0.014	0.045
-205.406	19.271	0.234	0.185
-204.392	-71.612	-0.363	0.133
-203.377	800.000	-0.049	0.183
-202.363	114.693	0.167	-0.200
-201.348	-47.236	0.165	0.079
-200.333	-74.804	-0.055	-0.020
-199.319	348.276	0.093	0.180
-198.304	-200.000	0.035	0.194
-197.290	257.367	0.134	-0.227
-196.275	72.635	0.162	0.167
-195.260	151.483	-0.109	0.145
-194.246	-157.549	-0.185	0.011
-193.231	800.000	0.050	-0.150
-192.217	-59.649	0.053	-0.022
-191.202	-85.629	-0.134	0.041
-190.187	-37.238	0.199	0.105
-189.173	-59.450	0.302	-0.128
-188.158	170.776	0.136	0.192
-187.144	191.574	0.178	-0.264
-186.129	-134.025	-0.219	0.027
-185.114	20.186	-0.165	-0.131
-184.100	307.585	-0.098	0.180
-183.085	-96.052	-0.221	0.058
-182.071	-200.000	0.007	0.182
-181.056	786.396	0.077	-0.208
-180.042	-200.000	0.218	0.001
-179.027	123.516	0.046	-0.057
-178.012	124.807	0.303	0.375
-176.998	-67.620	-0.138	0.053
-175.983	-75.525	0.214	-0.075
-174.969	-50.076	-0.236	0.110
-173.954	-131.168	0.261	0.034
-172.939	17.266	-0.046	0.036
-171.925	64.781	0.066	0.066
-170.910	-94.859	-0.252	-0.067
-169.896	-17.766	0.107	-0.066
-168.881	385.363	0.204	0.413
-167.866	-200.000	0.007	-0.234
-166.852	-200.000	0.054	0.275
-165.837	159.717	0.050	0.069
-164.823	85.882	-0.168	-0.181
-163.808	-200.000	0.026	-0.305
-162.793	117.595	0.036	-0.043
-161.779	67.014	-0.054	-0.054
-160.764	-74.859	-0.196	-0.069
-159.750	-200.000	-0.039	-0.239
-158.735	22.152	0.093	-0.075
-157.720	800.000	-0.128	-0.379
-156.706	800.000	0.041	-0.135
-155.691	-156.838	-0.178	-0.011
-154.677	-124.593	-0.125	-0.019
-153.662	-111.657	-0.211	0.042
-152.647	21.738	0.130	0.104
-151.633	142.431	0.089	-0.116
-150.618	-49.716	-0.336	0.157
-149.604	209.547	0.172	-0.265
-148.589	-200.000	-0.049	-0.238
-147.574	8.427	0.183	0.135
-146.560	-200.000	0.000	-0.391
-145.545	515.905	-0.027	-0.061
-144.531	800.000	-0.067	0.229
-143.516	-17.114	-0.336	0.208
-142.502	119.627	-0.234	-0.285
-141.487	-6.024	-0.272	0.182
-140.472	35.616	0.046	0.040
-139.458	457.860	0.058	-0.126
-138.443	270.312	0.116	-0.200
-137.429	143.169	-0.135	0.176
-136.414	166.790	-0.207	-0.288
-135.399	169.442	-0.182	0.256
-134.385	165.767	-0.190	-0.264
-133.370	-136.797	-0.341	0.039
-132.356	800.000	0.078	-0.247
-131.341	-61.000	0.162	-0.067
-130.326	-1.932	-0.203	0.140
-129.312	-90.688	-0.276	0.078
-128.297	-108.008	-0.289	0.061
-127.283	37.885	0.063	0.055
-126.268	-200.000	-0.003	-0.255
-125.253	-124.010	0.340	-0.052
-124.239	-110.650	-0.227	-0.046
-123.224	-89.853	0.315	0.090
-122.210	134.911	0.193	0.246
-121.195	-51.534	0.260	-0.119
-120.180	-200.000	-0.012	-0.102
-119.166	224.463	-0.126	0.200
-118.151	-101.672	0.215	0.051
-117.137	27.389	0.096	-0.079
-116.122	-200.000	-0.089	-0.409
-115.107	-123.181	-0.157	-0.025
-114.093	800.000	-0.022	-0.083
-113.078	-26.999	0.337	0.193
-112.064	252.258	-0.152	0.254
-111.049	-200.000	-0.011	0.058
-110.034	-20.477	-0.085	-0.051
-109.020	114.106	0.302	-0.360
-108.005	-37.871	-0.237	-0.123
-106.991	21.898	0.217	-0.174
-105.976	-103.870	0.309	0.071
-104.962	565.821	0.033	-0.078
-103.947	83.829	-0.075	0.080
-102.932	56.060	0.177	0.169
-101.918	-75.563	-0.270	0.094
-100.903	108.653	0.142	0.166
-99.889	130.469	0.027	-0.034
-98.874	-49.417	0.127	0.059
-97.859	-173.285	0.559	-0.017
-96.845	-40.680	-0.174	0.089
-95.830	231.986	0.065	0.104
-94.816	-200.000	0.018	-0.335
-93.801	-45.450	0.114	0.055
-92.786	115.470	0.020	-0.024
-91.772	-75.948	-0.034	-0.012
-90.757	29.095	-0.122	0.101
-89.743	800.000	0.053	0.194
-88.728	-131.995	-0.038	-0.005
-87.713	-29.750	0.199	0.111
-86.699	-35.024	-0.184	0.098
-85.684	149.614	0.045	-0.059
-84.670	-200.000	0.023	0.324
-83.655	296.579	0.177	0.317
-82.640	273.023	-0.136	0.235
-81.626	357.662	0.033	0.064
-80.611	-102.393	-0.135	0.032
-79.597	22.026	0.225	0.179
-78.582	-8.499	0.331	0.218
-77.567	-133.107	0.307	-0.038
-76.553	48.769	-0.193	0.177
-75.538	800.000	0.074	0.278
-74.524	390.465	0.138	0.280
-73.509	-13.372	-0.126	0.080
-72.494	665.685	0.126	0.318
-71.480	-57.706	-0.132	0.057
-70.465	216.664	-0.137	-0.213
-69.451	-200.000	-0.007	-0.075
-68.436	139.740	-0.020	-0.026
-67.422	568.298	0.065	0.155
-66.407	-39.841	-0.183	0.093
-65.392	196.715	0.122	0.182
-64.378	-200.000	0.281	0.001
-63.363	800.000	0.159	-0.515
-62.349	-150.348	-0.188	0.014
-61.334	82.871	-1.219	-1.296
-60.319	160.034	0.298	0.405
-59.305	498.182	-0.510	-1.149
-58.290	800.000	0.452	1.355
-57.276	800.000	0.375	1.475
-56.261	-200.000	117.127	661.240
-55.246	524.663	1541.071	3543.959
-54.232	175.228	2712.679	3841.789
-53.217	107.135	2180.728	2533.139
-52.203	37.373	1697.107	1470.403
-51.188	29.610	1512.883	1258.115
-50.173	27.440	1487.595	1222.485
-49.159	51.751	1547.827	1439.165
-48.144	49.857	1562.428	1439.730
-47.130	29.804	1517.890	1263.401
-46.115	26.780	1502.950	1230.429
-45.100	26.622	1499.091	1226.154
-44.086	26.570	1497.057	1224.084
-43.071	26.523	1495.640	1222.560
-42.057	26.460	1493.779	1220.571
-41.042	26.492	1493.087	1220.168
-40.027	26.650	1490.821	1219.332
-39.013	26.524	1489.342	1217.225
-37.998	26.528	1488.270	1216.327
-36.984	26.583	1486.792	1215.444
-35.969	26.567	1485.548	1214.274
-34.954	26.592	1483.581	1212.784
-33.940	26.470	1482.992	1211.438
-32.925	26.552	1481.800	1210.964
-31.911	26.673	1479.629	1209.951
-30.896	26.665	1478.611	1209.017
-29.881	26.591	1477.431	1207.508
-28.867	26.652	1476.155	1206.826
-27.852	26.593	1475.711	1206.020
-26.838	26.644	1473.858	1204.798
-25.823	26.615	1472.316	1203.295
-24.809	26.573	1470.856	1201.777
-23.794	26.526	1469.259	1200.111
-22.779	26.561	1467.932	1199.213
-21.765	26.610	1467.036	1198.760
-20.750	26.680	1465.686	1198.067
-19.736	26.584	1464.817	1196.679
-18.721	26.586	1463.694	1195.723
-17.706	26.499	1462.693	1194.290
-16.692	26.644	1461.125	1193.914
-15.677	26.515	1460.460	1192.475
-14.663	26.590	1459.551	1192.175
-13.648	26.434	1458.959	1190.622
-12.633	26.554	1457.829	1190.442
-11.619	26.522	1456.990	1189.500
-10.604	26.513	1456.121	1188.683
-9.590	26.505	1454.833	1187.531
-8.575	26.554	1454.187	1187.276
-7.560	26.558	1453.261	1186.498
-6.546	26.553	1452.391	1185.712
-5.531	26.533	1451.554	1184.848
-4.517	26.554	1450.598	1184.162
-3.502	26.499	1449.613	1182.951
-2.487	26.504	1448.913	1182.362
-1.473	26.530	1447.469	1181.309
-0.458	26.560	1446.197	1180.420
0.556	28.493	1436.379	1170.147
1.571	25.658	1412.261	1132.584
2.586	22.576	1352.370	1065.852
3.600	21.043	1270.661	992.646
4.615	19.503	1226.194	949.361
5.629	17.099	1169.501	892.761
6.644	10.391	1087.792	797.402
7.659	5.106	1050.653	744.931
8.673	4.437	1045.291	737.884
9.688	4.230	1041.776	734.356
10.702	4.060	1040.234	732.400
11.717	4.164	1038.252	731.434
12.731	6.666	1040.784	744.975
13.746	13.930	1050.152	786.111
14.761	20.282	1058.178	822.247
15.775	22.196	1059.763	832.475
16.790	21.817	1058.840	829.887
17.804	20.799	1056.444	823.123
18.819	19.934	1054.809	817.694
19.834	19.561	1053.483	814.834
20.848	19.511	1052.970	814.128
21.863	19.613	1052.760	814.375
22.877	19.448	1051.623	812.645
23.892	19.130	1050.836	810.469
24.907	18.966	1050.243	809.170
25.921	19.085	1048.990	808.693
26.936	19.117	1048.382	808.299
27.950	19.136	1047.498	807.635
28.965	19.092	1046.308	806.441
29.980	19.181	1045.283	805.995
30.994	19.367	1044.217	805.972
32.009	19.475	1043.629	805.955
33.023	19.425	1043.213	805.326
34.038	19.365	1042.775	804.637
35.053	19.257	1041.738	803.263
36.067	19.159	1040.184	801.539
37.082	19.222	1039.007	800.852
38.096	19.171	1038.859	800.431
39.111	19.335	1037.860	800.352
40.126	19.369	1037.511	800.170
41.140	19.229	1036.054	798.327
42.155	18.889	1034.636	795.590
43.169	18.700	1033.645	793.880
44.184	18.695	1032.260	792.724
45.199	18.602	1031.302	791.490
46.213	18.631	1030.762	791.140
47.228	18.758	1029.861	790.961
48.242	19.064	1028.931	791.586
49.257	19.110	1028.552	791.434
50.271	19.149	1027.702	790.891
51.286	19.079	1026.920	789.899
52.301	19.248	1025.774	789.720
53.315	19.302	1025.037	789.334
54.330	19.180	1024.246	788.092
55.344	18.988	1023.251	786.382
56.359	18.918	1022.219	785.198
57.374	18.841	1021.387	784.139
58.388	18.843	1020.951	783.745
59.403	18.742	1019.636	782.206
60.417	18.785	1018.668	781.590
61.432	18.669	1018.562	780.909
62.447	18.440	1018.186	779.513
63.461	18.634	1016.715	779.196
64.476	18.507	1015.927	777.951
65.490	18.495	1014.474	776.714
66.505	18.489	1013.894	776.174
67.520	18.530	1012.981	775.593
68.534	18.572	1012.527	775.366
69.549	18.502	1011.672	774.324
70.563	18.617	1010.610	773.961
71.578	18.447	1010.177	772.797
72.593	18.464	1008.879	771.809
73.607	18.217	1008.093	770.032
74.622	18.194	1007.343	769.284
75.636	18.334	1006.457	769.168
76.651	18.302	1005.914	768.542
77.666	18.289	1005.176	767.851
78.680	18.397	1004.053	767.412
79.695	18.493	1003.631	767.452
80.709	18.495	1003.156	767.028
81.724	18.482	1002.935	766.732
82.739	18.704	1001.482	766.546
83.753	18.762	1001.272	766.577
84.768	19.006	1000.485	766.994
85.782	19.277	1000.369	768.044
86.797	19.524	999.649	768.524
87.812	19.536	998.574	767.685
88.826	19.410	997.508	766.235
89.841	19.200	996.749	764.654
90.855	19.394	995.930	764.816
91.870	19.395	995.871	764.709
92.884	19.433	994.919	764.080
93.899	19.336	994.193	763.024
94.914	19.408	992.958	762.327
95.928	19.535	992.465	762.442
96.943	19.522	991.795	761.802
97.957	19.287	990.821	759.950
98.972	19.244	989.821	758.927
99.987	19.263	988.856	758.203
101.001	19.387	988.248	758.217
102.016	19.338	987.612	757.443
103.030	19.453	986.216	756.810
104.045	19.391	985.281	755.757
105.060	19.361	985.045	755.378
106.074	19.359	983.965	754.474
107.089	19.065	982.795	752.222
108.103	18.620	982.344	749.870
109.118	18.681	980.321	748.523
110.133	18.551	979.844	747.526
111.147	18.460	979.032	746.445
112.162	18.644	977.979	746.376
113.176	18.690	977.012	745.773
114.191	18.739	976.446	745.486
115.206	18.777	975.996	745.241
116.220	18.760	974.962	744.311
117.235	18.689	974.091	743.276
118.249	18.684	973.236	742.536
119.264	18.638	972.339	741.583
120.279	18.639	971.502	740.887
121.293	18.516	970.900	739.833
122.308	18.426	969.791	738.533
123.322	18.319	969.113	737.491
124.337	18.306	967.633	736.242
125.352	18.447	966.509	735.930
126.366	18.294	965.488	734.427
127.381	18.164	965.059	733.478
128.395	18.359	963.843	733.324
129.410	18.391	962.659	732.497
130.424	18.351	961.965	731.732
131.439	18.487	961.462	731.867
132.454	18.616	960.128	731.338
133.468	18.653	960.092	731.400
134.483	18.630	959.370	730.689
135.497	18.748	958.527	730.486
136.512	18.847	957.811	730.297
137.527	18.714	957.425	729.372
138.541	18.729	956.602	728.741
139.556	18.813	955.662	728.318
140.570	18.798	955.741	728.253
141.585	18.870	954.526	727.568
142.600	19.213	954.310	728.788
143.614	19.156	953.386	727.776
144.629	19.379	952.676	728.113
145.643	19.438	952.058	727.823
146.658	19.492	950.794	727.021
147.673	19.269	949.866	725.309
148.687	19.031	948.909	723.514
149.702	18.910	948.190	722.392
150.716	18.825	946.837	720.942
151.731	18.715	946.197	719.929
152.746	18.918	945.040	719.836
153.760	18.881	944.463	719.179
154.775	18.908	944.043	718.907
155.789	18.984	943.413	718.682
156.804	19.084	942.399	718.263
157.819	19.065	941.739	717.615
158.833	19.229	941.251	717.863
159.848	19.390	940.554	717.939
160.862	19.383	940.374	717.711
161.877	19.377	939.647	717.065
162.892	19.002	938.086	714.256
163.906	18.833	936.827	712.532
164.921	18.639	936.098	711.110
165.935	18.857	935.122	711.207
166.950	18.870	934.299	710.575
167.964	18.815	933.584	709.741
168.979	19.026	932.410	709.655
169.994	18.804	931.247	707.794
171.008	18.865	930.463	707.385
172.023	18.948	929.856	707.203
173.037	19.034	929.114	706.930
174.052	19.312	928.696	707.689
175.067	19.192	928.173	706.736
176.081	19.007	926.418	704.579
177.096	18.765	925.799	703.055
178.110	18.813	924.652	702.318
179.125	18.705	924.711	701.860
180.140	18.893	923.171	701.397
181.154	19.049	922.402	701.385
182.169	19.014	922.835	701.510
183.183	19.225	922.115	701.762
184.198	19.258	921.745	701.553
185.213	19.218	920.955	700.724
186.227	19.398	920.078	700.726
187.242	19.292	920.133	700.279
188.256	19.467	919.507	700.448
189.271	19.463	918.592	699.674
190.286	19.655	917.892	699.857
191.300	19.406	916.715	697.890
192.315	19.019	915.173	695.090
193.329	18.688	914.499	693.182
194.344	18.749	914.414	693.303
195.359	18.763	913.861	692.876
196.373	18.919	913.566	693.222
197.388	19.167	912.954	693.695
198.402	19.290	912.408	693.715
199.417	19.574	912.411	694.797
200.432	19.712	912.131	695.078
201.446	19.828	911.766	695.203
202.461	19.888	911.321	695.044
203.475	19.978	910.779	694.930
204.490	19.990	910.023	694.340
205.504	19.571	908.777	691.652
206.519	19.499	908.109	690.792
207.534	19.442	907.278	689.873
208.548	19.381	906.487	688.967
209.563	19.465	906.002	688.870
210.577	19.387	905.355	688.005
211.592	19.467	905.047	688.033
212.607	19.633	904.504	688.218
213.621	19.753	904.083	688.315
214.636	19.820	902.987	687.685
215.650	19.629	902.380	686.405
216.665	19.720	901.912	686.350
217.680	19.679	901.755	686.007
218.694	19.866	901.203	686.268
219.709	20.001	900.626	686.302
220.723	19.875	899.915	685.201
221.738	19.818	898.996	684.216
222.753	19.816	898.184	683.529
223.767	19.658	897.844	682.584
224.782	19.769	897.391	682.619
225.796	20.086	896.162	682.873
226.811	20.087	895.929	682.637
227.826	19.979	895.074	681.504
228.840	19.811	894.254	680.157
229.855	19.677	893.725	679.168
230.869	19.665	892.852	678.398
231.884	19.712	892.169	678.002
232.899	19.722	891.247	677.283
233.913	19.586	890.427	676.066
234.928	19.470	890.226	675.398
235.942	19.455	889.239	674.530
236.957	19.408	888.425	673.670
237.972	19.267	887.650	672.476
238.986	19.384	887.604	672.834
240.001	19.537	886.533	672.562
241.015	19.516	886.154	672.130
242.030	19.545	885.393	671.610
243.045	19.668	885.112	671.813
244.059	19.656	884.791	671.464
245.074	19.663	883.921	670.771
246.088	19.718	883.046	670.262
247.103	19.892	882.620	670.553
248.117	20.090	882.061	670.836
249.132	20.224	881.870	671.151
250.147	20.435	881.789	671.845
251.161	20.734	881.034	672.363
252.176	20.754	880.097	671.667
253.190	20.787	879.898	671.582
254.205	20.717	879.328	670.818
255.220	20.799	878.864	670.722
256.234	20.721	878.125	669.798
257.249	20.681	877.531	669.131
258.263	20.738	877.054	668.928
259.278	20.626	876.194	667.784
260.293	20.683	875.868	667.695
261.307	20.783	875.142	667.467
262.322	20.778	875.111	667.362
263.336	20.911	874.161	667.088
264.351	20.961	873.307	666.570
265.366	20.925	872.778	665.970
266.380	20.930	872.370	665.618
267.395	20.772	871.951	664.638
268.409	20.670	870.920	663.402
269.424	20.758	869.829	662.847
270.439	20.705	869.410	662.269
271.453	20.751	868.508	661.699
272.468	20.589	867.748	660.445
273.482	20.531	867.261	659.795
274.497	20.538	866.623	659.277
275.512	20.542	865.901	658.686
276.526	20.594	865.137	658.245
277.541	20.502	864.548	657.388
278.555	20.664	863.547	657.181
279.570	20.772	863.871	657.777
280.585	20.874	863.912	658.136
281.599	21.087	862.575	657.863
282.614	20.853	862.122	656.577
283.628	20.527	861.339	654.693
284.643	20.717	860.569	654.767
285.657	20.632	860.177	654.092
286.672	20.660	859.695	653.773
287.687	20.653	859.298	653.385
288.701	20.762	858.863	653.406
289.716	20.711	858.275	652.710
290.730	20.705	857.623	652.133
291.745	20.721	857.365	651.941
292.760	20.911	856.447	651.894
293.774	20.747	856.066	650.935
294.789	20.949	855.472	651.180
295.803	21.142	854.581	651.164
296.818	20.819	854.337	649.714
297.833	20.680	853.704	648.657
298.847	20.796	852.444	648.075
299.862	20.765	852.293	647.787
300.876	20.787	851.649	647.323
301.891	20.809	851.656	647.352
302.906	20.952	851.032	647.351
303.920	21.205	850.007	647.455
304.935	21.316	849.613	647.507
305.949	21.421	849.057	647.416
306.964	21.582	847.920	647.087
307.979	21.111	847.728	645.141
308.993	21.232	846.700	644.747
310.008	21.134	846.781	644.392
311.022	21.424	846.184	644.951
312.037	21.216	845.807	643.840
313.052	21.076	844.914	642.587
314.066	20.977	844.155	641.587
315.081	20.727	843.512	640.123
316.095	20.917	842.802	640.227
317.110	20.803	842.803	639.749
318.125	20.797	842.093	639.133
319.139	20.840	841.112	638.491
320.154	20.761	840.988	638.049
321.168	20.726	840.294	637.337
322.183	20.898	839.926	637.633
323.197	20.984	839.158	637.308
324.212	21.073	838.766	637.279
325.227	20.897	838.561	636.424
326.241	20.974	837.922	636.163
327.256	20.840	837.280	635.133
328.270	20.881	836.259	634.451
329.285	20.937	835.954	634.366
330.300	20.828	835.376	633.476
331.314	20.800	834.835	632.906
332.329	20.955	834.189	632.923
333.343	21.054	833.713	632.864
334.358	21.335	833.168	633.413
335.373	21.237	832.696	632.646
336.387	21.185	832.042	631.902
337.402	21.479	831.598	632.573
338.416	21.348	831.417	631.908
339.431	21.546	830.677	632.004
340.446	21.644	830.402	632.094
341.460	21.697	829.774	631.750
342.475	21.881	829.296	631.992
343.489	21.873	829.192	631.828
344.504	21.705	828.966	630.997
345.519	21.947	827.889	630.988
346.533	22.014	827.654	630.996
347.548	22.008	826.841	630.298
348.562	21.892	826.184	629.325
349.577	21.733	824.881	627.707
350.592	21.476	824.656	626.562
351.606	21.296	824.416	625.679
352.621	21.230	823.976	625.054
353.635	21.410	823.310	625.135
354.650	21.400	823.126	624.904
355.665	21.294	822.699	624.147
356.679	21.607	822.222	624.848
357.694	21.615	821.763	624.471
358.708	21.645	821.027	623.963
359.723	21.666	820.578	623.641
360.738	21.582	820.400	623.152
361.752	21.654	819.696	622.820
362.767	21.804	819.102	622.845
363.781	21.809	818.822	622.597
364.796	21.959	818.433	622.776
365.810	22.013	818.390	622.882
366.825	22.052	818.200	622.820
367.840	22.292	817.478	623.066
368.854	22.182	817.456	622.602
369.869	22.128	816.731	621.804
370.883	22.064	815.953	620.930
371.898	22.145	815.536	620.844
372.913	22.215	814.831	620.502
373.927	22.306	814.288	620.352
374.942	22.303	813.557	619.730
375.956	22.082	812.649	618.208
376.971	22.112	812.654	618.263
377.986	22.261	812.177	618.368
379.000	22.433	811.748	618.591
380.015	22.409	811.267	618.084
381.029	22.326	810.761	617.353
382.044	22.170	810.091	616.243
383.059	22.426	809.462	616.606
384.073	22.497	808.620	616.157
385.088	22.422	808.315	615.609
386.102	22.077	807.363	613.625
387.117	21.824	806.963	612.383
388.132	21.934	806.150	612.094
389.146	21.930	805.776	611.743
390.161	21.987	805.521	611.695
391.175	22.171	805.224	612.055
392.190	22.348	805.173	612.580
393.205	22.255	804.515	611.698
394.219	22.141	803.971	610.836
395.234	21.937	803.188	609.481
396.248	21.895	802.912	609.069
397.263	21.745	802.142	607.913
398.278	21.899	801.380	607.812
399.292	21.779	800.903	606.983
400.307	21.737	800.518	606.493
401.321	21.820	800.327	606.582
402.336	21.778	800.107	606.217
403.350	21.871	800.109	606.485
404.365	22.020	799.239	606.285
405.380	22.212	798.775	606.542
406.394	22.271	798.834	606.736
407.409	22.574	798.391	607.391
408.423	22.567	797.868	606.916
409.438	22.709	797.393	606.991
410.453	22.665	797.189	606.628
411.467	22.779	796.930	606.769
412.482	22.840	796.427	606.544
413.496	22.855	795.882	606.124
414.511	22.787	795.510	605.555
415.526	22.946	794.964	605.631
416.540	22.891	794.569	605.087
417.555	22.912	793.728	604.466
418.569	22.719	793.527	603.601
419.584	22.769	793.383	603.609
420.599	22.647	792.882	602.757
421.613	165.244	1369.081	1795.988
422.628	143.397	1453.016	1796.068
