DTS Sentinel unit serial number:	SN413079Multiplexer serial number:	ORYXHardware model number:	OX4-SRSoftware version number:	ORYX F/W v4.00 Oryx Data Collector v3.7.2.0data status	okinstallation	princeton_trtdifferential loss correction	single-endedforward channel	channel 3reverse channel	N/Adate	2019/09/14time	08:40:35forward acquisition time	60.00reverse acquisition time	0.00gamma	496.2192k internal	0.2327k external	0.2327temperature offset calibration	1.0047default loss term (dB/km)	0.3790temperature slope calibration	1.0000multiplexer offset coefficient	1.0000multiplexer slope coefficient	1.0000fibre end	0.00T internal ref (°C)	28.91T ext. ref 1 (°C)	3.67T ext. ref 2 (°C)	26.36length (m)	temperature (°C)	Stokes	anti-Stokes-747.200	-101.664	0.051	0.012
-746.185	35.133	-0.187	0.165
-745.171	-82.751	0.392	0.128
-744.156	-200.000	-0.061	0.316
-743.142	344.355	0.080	0.158
-742.127	0.262	0.087	0.063
-741.112	-200.000	-0.030	0.300
-740.098	-99.317	0.318	-0.081
-739.083	-200.000	0.020	0.119
-738.069	-133.199	-0.225	0.029
-737.054	-170.570	0.200	-0.007
-736.039	-200.000	-0.028	-0.187
-735.025	-200.000	-0.025	0.142
-734.010	16.500	-0.158	0.126
-732.996	39.197	-0.217	-0.195
-731.981	599.365	0.064	0.159
-730.966	89.864	-0.152	0.172
-729.952	402.433	0.133	-0.281
-728.937	-79.793	-0.102	-0.034
-727.923	186.023	-0.224	0.335
-726.908	-200.000	-0.011	0.075
-725.894	-200.000	0.022	-0.134
-724.879	22.203	-0.187	-0.154
-723.864	209.414	-0.175	0.277
-722.850	590.470	-0.150	0.372
-721.835	87.733	0.136	-0.152
-720.821	800.000	0.030	-0.122
-719.806	-200.000	0.035	-0.392
-718.791	-134.657	-0.523	0.064
-717.777	-65.386	0.284	0.115
-716.762	10.281	0.134	-0.103
-715.748	800.000	-0.033	-0.124
-714.733	-200.000	-0.022	0.193
-713.718	800.000	-0.067	-0.198
-712.704	455.513	-0.108	-0.241
-711.689	-39.694	0.272	0.143
-710.675	-139.720	0.154	-0.016
-709.660	-154.748	0.220	-0.015
-708.645	148.932	0.228	-0.310
-707.631	-77.144	-0.171	0.060
-706.616	474.410	0.052	-0.119
-705.602	-110.525	-0.366	-0.076
-704.587	-41.362	0.176	0.091
-703.572	-200.000	0.020	0.165
-702.558	-200.000	-0.015	0.119
-701.543	-68.301	0.317	-0.124
-700.529	-200.000	0.017	-0.127
-699.514	-143.355	0.079	-0.008
-698.499	-200.000	-0.065	-0.291
-697.485	-61.486	-0.308	-0.130
-696.470	800.000	0.057	0.211
-695.456	-152.598	-0.291	-0.021
-694.441	628.846	0.083	-0.211
-693.426	371.826	0.097	-0.198
-692.412	-200.000	-0.007	0.096
-691.397	43.263	0.292	0.269
-690.383	68.274	0.166	0.172
-689.368	11.905	0.197	0.152
-688.354	227.793	-0.144	-0.236
-687.339	-161.226	-0.217	0.011
-686.324	-128.248	0.075	-0.011
-685.310	241.544	0.084	0.142
-684.295	142.196	-0.237	0.316
-683.281	-122.366	0.133	-0.022
-682.266	-73.277	-0.391	-0.144
-681.251	-70.995	-0.186	-0.070
-680.237	-200.000	-0.032	0.229
-679.222	39.839	0.190	-0.171
-678.208	94.061	0.285	0.325
-677.193	68.449	0.147	-0.151
-676.178	-106.449	-0.045	0.010
-675.164	800.000	-0.020	-0.089
-674.149	800.000	0.055	-0.152
-673.135	800.000	-0.016	-0.070
-672.120	132.199	-0.211	-0.273
-671.105	192.326	0.129	0.195
-670.091	-13.485	0.110	0.072
-669.076	3.745	-0.253	-0.185
-668.062	1.054	-0.152	-0.109
-667.047	735.693	-0.104	-0.280
-666.032	541.101	-0.201	0.481
-665.018	399.768	-0.094	0.199
-664.003	-200.000	0.014	-0.150
-662.989	65.049	0.179	-0.182
-661.974	-49.405	-0.141	0.068
-660.959	-130.741	-0.202	0.027
-659.945	94.423	-0.162	0.185
-658.930	-48.597	0.269	-0.130
-657.916	187.557	0.095	-0.143
-656.901	800.000	-0.042	0.126
-655.886	-166.993	0.172	0.007
-654.872	186.552	-0.107	0.159
-653.857	66.292	-0.076	-0.078
-652.843	321.872	0.148	-0.284
-651.828	-1.131	-0.179	-0.127
-650.814	-200.000	0.033	0.341
-649.799	-200.000	-0.033	0.328
-648.784	-200.000	0.021	0.307
-647.770	800.000	0.101	-0.304
-646.755	-69.377	-0.243	0.094
-645.741	8.305	0.251	-0.189
-644.726	96.601	0.043	0.049
-643.711	-121.215	0.336	0.056
-642.697	-160.320	-0.227	0.012
-641.682	-68.656	-0.303	-0.118
-640.668	60.560	0.052	0.052
-639.653	106.843	0.150	-0.178
-638.638	-200.000	0.014	-0.076
-637.624	78.698	-0.025	-0.027
-636.609	-13.917	-0.087	0.057
-635.595	-70.167	-0.385	0.147
-634.580	135.082	-0.094	0.122
-633.565	-168.248	-0.268	-0.010
-632.551	800.000	-0.065	-0.252
-631.536	31.062	-0.180	-0.155
-630.522	79.072	0.135	-0.146
-629.507	18.382	-0.184	-0.148
-628.492	-110.157	0.273	0.057
-627.478	-200.000	-0.023	-0.229
-626.463	-106.161	0.200	-0.045
-625.449	-80.387	-0.218	-0.073
-624.434	-200.000	0.034	-0.313
-623.419	-42.216	0.209	0.107
-622.405	800.000	-0.118	0.386
-621.390	132.032	-0.224	-0.290
-620.376	-109.203	0.160	-0.034
-619.361	80.724	-0.169	0.183
-618.346	-143.162	0.267	0.026
-617.332	-81.114	0.130	0.043
-616.317	800.000	-0.054	-0.233
-615.303	-51.305	-0.348	-0.163
-614.288	-200.000	-0.008	0.126
-613.273	-200.000	-0.029	0.151
-612.259	-134.774	0.142	0.017
-611.244	-124.677	-0.321	0.050
-610.230	800.000	0.085	0.362
-609.215	-82.554	-0.089	0.029
-608.201	-114.699	-0.234	0.045
-607.186	-72.899	0.145	0.053
-606.171	196.098	-0.026	-0.040
-605.157	-200.000	0.050	0.288
-604.142	738.737	-0.023	-0.063
-603.128	-47.523	-0.430	0.210
-602.113	-78.100	0.240	-0.083
-601.098	800.000	0.085	-0.310
-600.084	-47.225	0.098	-0.048
-599.069	-35.727	0.414	-0.225
-598.055	-79.682	-0.244	0.083
-597.040	609.970	-0.032	-0.079
-596.025	39.452	0.078	-0.070
-595.011	-105.684	-0.149	0.034
-593.996	-160.796	0.318	0.017
-592.982	-200.000	0.007	-0.143
-591.967	-5.164	0.074	0.051
-590.952	45.811	0.219	-0.203
-589.938	-200.000	0.056	0.274
-588.923	800.000	-0.094	-0.303
-587.909	-156.885	-0.137	0.008
-586.894	320.735	0.140	-0.266
-585.879	93.549	-0.304	-0.345
-584.865	-200.000	0.041	-0.289
-583.850	-69.176	0.144	0.055
-582.836	-142.309	0.124	0.012
-581.821	-76.614	-0.218	-0.077
-580.806	-200.000	0.034	-0.290
-579.792	3.248	-0.174	0.127
-578.777	654.344	0.073	0.188
-577.763	81.910	-0.089	0.097
-576.748	-32.579	0.288	-0.161
-575.733	-200.000	0.049	-0.226
-574.719	382.622	-0.064	-0.133
-573.704	-48.277	0.303	0.146
-572.690	-96.082	-0.480	-0.128
-571.675	-50.019	0.138	-0.066
-570.661	-200.000	0.019	0.344
-569.646	-79.296	0.117	-0.040
-568.631	-200.000	-0.007	-0.080
-567.617	-88.903	0.401	-0.119
-566.602	-100.747	-0.212	0.052
-565.588	-149.227	0.166	0.013
-564.573	-200.000	0.042	-0.324
-563.558	198.234	0.119	-0.182
-562.544	291.778	-0.123	0.223
-561.529	118.646	-0.049	0.060
-560.515	-200.000	0.025	0.260
-559.500	495.357	0.079	-0.181
-558.485	-72.481	-0.505	-0.187
-557.471	-47.752	0.126	0.061
-556.456	-51.642	0.140	0.066
-555.442	-6.065	0.243	0.166
-554.427	-38.228	0.132	0.070
-553.412	-200.000	-0.017	-0.119
-552.398	-200.000	0.007	-0.100
-551.383	413.741	0.082	0.175
-550.369	18.924	0.278	0.223
-549.354	4.992	-0.124	0.091
-548.339	800.000	-0.075	0.277
-547.325	-200.000	0.018	0.096
-546.310	156.307	0.181	0.250
-545.296	132.686	-0.122	-0.157
-544.281	65.789	0.185	0.188
-543.266	-200.000	-0.032	0.172
-542.252	-200.000	0.037	0.161
-541.237	-200.000	0.004	-0.328
-540.223	800.000	0.185	0.564
-539.208	-28.746	0.086	-0.050
-538.193	-71.835	0.138	0.052
-537.179	194.343	-0.079	-0.120
-536.164	-90.613	-0.361	-0.104
-535.150	-26.818	-0.111	-0.065
-534.135	58.600	0.279	-0.274
-533.121	-130.864	-0.127	0.017
-532.106	-22.015	-0.080	-0.049
-531.091	-81.023	0.040	-0.013
-530.077	113.367	0.146	-0.177
-529.062	41.210	0.162	-0.147
-528.048	298.351	-0.064	0.118
-527.033	-164.530	0.156	0.007
-526.018	-172.679	0.356	-0.011
-525.004	23.569	-0.143	0.117
-523.989	-176.987	0.199	0.005
-522.975	255.016	-0.174	-0.297
-521.960	-82.899	0.102	0.033
-520.945	-48.183	-0.237	-0.114
-519.931	281.182	0.067	-0.120
-518.916	-129.820	-0.205	0.028
-517.902	-200.000	0.018	-0.274
-516.887	-200.000	-0.035	-0.391
-515.872	-79.823	-0.443	-0.149
-514.858	-83.146	0.372	0.120
-513.843	15.948	0.171	-0.135
-512.829	-200.000	0.076	-0.369
-511.814	-150.104	0.016	-0.001
-510.799	115.996	0.090	0.110
-509.785	-133.924	0.317	-0.039
-508.770	-13.458	-0.204	-0.132
-507.756	2.578	-0.235	-0.170
-506.741	114.976	-0.167	0.203
-505.726	-55.716	0.197	0.088
-504.712	524.994	-0.093	0.219
-503.697	-200.000	-0.009	-0.082
-502.683	-108.123	-0.302	-0.065
-501.668	-79.865	0.087	-0.029
-500.653	-200.000	0.017	0.094
-499.639	-145.609	-0.364	0.033
-498.624	-33.328	0.356	0.197
-497.610	387.510	-0.136	0.281
-496.595	149.633	0.157	-0.212
-495.581	-87.929	-0.235	-0.070
-494.566	300.756	-0.166	-0.305
-493.551	-182.644	-0.255	-0.005
-492.537	-144.525	-0.262	-0.024
-491.522	800.000	0.028	-0.098
-490.508	-98.119	-0.192	-0.049
-489.493	-88.951	0.278	-0.082
-488.478	177.290	0.020	0.029
-487.464	-46.606	0.124	-0.061
-486.449	-66.212	0.149	-0.059
-485.435	166.236	0.132	-0.186
-484.420	-102.166	-0.486	-0.117
-483.405	-21.684	-0.106	-0.064
-482.391	281.695	0.096	0.172
-481.376	-95.036	0.401	0.108
-480.362	118.045	0.037	0.045
-479.347	154.975	0.190	0.261
-478.332	-200.000	-0.012	-0.080
-477.318	454.368	-0.117	-0.258
-476.303	800.000	0.060	0.252
-475.289	326.806	0.101	0.193
-474.274	-30.987	-0.165	0.093
-473.259	-200.000	-0.057	0.513
-472.245	-200.000	0.040	-0.280
-471.230	-121.908	-0.023	0.004
-470.216	113.786	-0.097	0.117
-469.201	800.000	0.096	-0.302
-468.186	-5.975	0.164	-0.112
-467.172	131.036	-0.087	-0.111
-466.157	44.878	0.116	0.106
-465.143	-1.934	-0.230	-0.161
-464.128	52.994	0.315	0.300
-463.113	-140.409	0.191	0.020
-462.099	-75.124	0.321	-0.115
-461.084	-18.515	-0.171	0.107
-460.070	597.226	-0.057	0.141
-459.055	431.964	0.132	-0.285
-458.040	695.243	-0.073	0.191
-457.026	-59.746	0.109	0.046
-456.011	-200.000	0.044	0.429
-454.997	800.000	0.082	-0.231
-453.982	14.648	-0.048	-0.038
-452.968	-77.007	0.163	-0.057
-451.953	-200.000	-0.019	0.314
-450.938	-32.142	-0.168	-0.094
-449.924	-171.367	-0.034	0.001
-448.909	800.000	0.034	0.116
-447.895	-86.513	-0.127	-0.039
-446.880	24.356	0.137	-0.113
-445.865	-200.000	-0.029	-0.528
-444.851	97.457	-0.078	0.089
-443.836	-200.000	0.056	0.277
-442.822	-154.248	-0.266	0.018
-441.807	1.050	0.056	0.040
-440.792	-41.142	0.250	0.129
-439.778	200.668	0.092	-0.141
-438.763	-104.833	-0.244	0.056
-437.749	5.167	-0.121	0.089
-436.734	-69.944	0.118	-0.045
-435.719	72.344	-0.171	-0.177
-434.705	51.253	0.249	0.236
-433.690	107.083	0.131	-0.155
-432.676	131.196	-0.150	0.192
-431.661	394.403	0.051	-0.106
-430.646	-69.991	-0.287	-0.109
-429.632	-200.000	-0.026	-0.153
-428.617	314.297	0.098	-0.183
-427.603	-21.867	-0.178	-0.108
-426.588	800.000	-0.071	-0.276
-425.573	-89.803	0.146	0.043
-424.559	486.706	-0.042	0.095
-423.544	197.206	-0.113	0.172
-422.530	-200.000	0.042	-0.240
-421.515	-200.000	-0.013	-0.121
-420.500	69.403	0.111	0.113
-419.486	127.268	0.114	0.144
-418.471	146.202	-0.145	-0.194
-417.457	-200.000	0.031	0.244
-416.442	-200.000	0.221	-0.001
-415.428	7.041	0.146	-0.109
-414.413	-72.021	0.103	0.038
-413.398	-85.956	0.325	0.100
-412.384	-39.385	-0.224	-0.117
-411.369	219.838	0.258	-0.411
-410.355	-200.000	-0.019	0.165
-409.340	-77.009	0.391	-0.136
-408.325	-155.908	0.379	0.024
-407.311	-200.000	0.015	0.070
-406.296	-200.000	-0.028	-0.153
-405.282	518.485	0.165	0.385
-404.267	33.494	-0.144	0.125
-403.252	800.000	-0.063	0.180
-402.238	74.380	0.104	-0.109
-401.223	800.000	-0.070	0.260
-400.209	-70.935	-0.069	0.026
-399.194	297.465	0.096	-0.175
-398.179	752.609	0.082	0.222
-397.165	94.711	0.132	-0.149
-396.150	96.364	-0.161	0.184
-395.136	23.154	0.221	0.180
-394.121	-13.622	0.079	0.051
-393.106	20.528	-0.190	0.153
-392.092	800.000	0.064	0.218
-391.077	-77.330	-0.391	0.135
-390.063	-200.000	0.040	0.412
-389.048	800.000	-0.073	0.268
-388.033	-61.425	-0.202	-0.085
-387.019	-49.534	0.253	-0.120
-386.004	-144.373	0.171	0.016
-384.990	129.521	-0.185	0.235
-383.975	-200.000	-0.024	-0.210
-382.960	137.618	-0.162	0.211
-381.946	-36.312	0.274	0.147
-380.931	800.000	0.048	-0.150
-379.917	69.932	0.248	0.254
-378.902	-46.395	0.323	-0.158
-377.888	-200.000	-0.003	-0.244
-376.873	79.709	-0.125	-0.134
-375.858	-130.565	-0.224	-0.030
-374.844	-124.704	-0.207	0.032
-373.829	556.515	0.067	0.161
-372.815	-146.761	0.445	0.038
-371.800	-200.000	0.061	0.494
-370.785	10.217	0.072	0.055
-369.771	-54.637	0.312	-0.140
-368.756	367.237	0.112	0.224
-367.742	-103.497	0.159	-0.037
-366.727	-200.000	-0.078	-0.356
-365.712	-200.000	-0.030	0.199
-364.698	43.433	-0.119	0.108
-363.683	-86.404	0.132	0.040
-362.669	26.913	-0.228	0.190
-361.654	92.195	-0.191	0.213
-360.639	-162.781	-0.063	0.003
-359.625	-75.867	0.391	-0.138
-358.610	149.235	0.214	-0.288
-357.596	205.199	-0.037	0.058
-356.581	-108.432	-0.411	0.088
-355.566	-200.000	-0.003	-0.073
-354.552	-34.288	0.163	0.089
-353.537	-48.304	-0.239	-0.114
-352.523	133.336	-0.049	-0.062
-351.508	-200.000	-0.035	-0.212
-350.493	-18.125	-0.334	0.208
-349.479	-143.046	0.408	0.039
-348.464	-96.355	0.193	0.051
-347.450	800.000	-0.146	-0.543
-346.435	-141.827	0.154	-0.015
-345.420	-79.797	-0.128	-0.043
-344.406	-102.842	0.076	-0.018
-343.391	89.573	-0.142	-0.157
-342.377	-100.164	-0.139	-0.034
-341.362	517.415	-0.154	-0.357
-340.348	185.252	-0.121	-0.178
-339.333	343.285	-0.156	0.304
-338.318	196.539	-0.120	-0.182
-337.304	-48.112	0.348	0.167
-336.289	441.375	0.020	0.044
-335.275	288.372	0.172	-0.309
-334.260	-200.000	0.004	0.090
-333.245	-200.000	-0.036	0.192
-332.231	167.860	0.207	-0.292
-331.216	-112.598	-0.300	-0.059
-330.202	800.000	0.049	-0.146
-329.187	-200.000	-0.031	-0.243
-328.172	-128.491	-0.102	0.014
-327.158	175.340	-0.186	-0.268
-326.143	-86.737	0.128	0.039
-325.129	-68.614	-0.359	0.138
-324.114	800.000	0.015	-0.047
-323.099	-200.000	0.032	0.400
-322.085	-200.000	0.059	0.338
-321.070	81.529	0.117	0.126
-320.056	-200.000	0.024	0.144
-319.041	-200.000	0.036	0.201
-318.026	172.541	-0.042	0.061
-317.012	-51.401	0.167	0.077
-315.997	800.000	-0.011	-0.037
-314.983	6.905	0.182	0.135
-313.968	110.817	-0.188	0.224
-312.953	-200.000	0.046	0.308
-311.939	268.847	-0.016	-0.028
-310.924	54.871	0.079	-0.076
-309.910	34.353	0.187	0.161
-308.895	427.502	-0.101	-0.216
-307.880	122.305	0.170	0.210
-306.866	-117.127	0.225	0.041
-305.851	-59.837	0.197	-0.083
-304.837	120.253	-0.170	-0.209
-303.822	1.888	-0.120	0.086
-302.807	-200.000	0.030	0.390
-301.793	381.353	0.043	-0.088
-300.778	-5.511	0.021	0.014
-299.764	283.891	-0.082	0.146
-298.749	-21.395	0.340	0.206
-297.735	-200.000	-0.097	-0.449
-296.720	-136.368	-0.294	0.034
-295.705	64.599	0.124	0.124
-294.691	-89.899	0.258	0.075
-293.676	-38.031	-0.254	-0.134
-292.662	-200.000	0.343	-0.001
-291.647	-200.000	-0.028	-0.259
-290.632	110.131	0.172	-0.205
-289.618	315.522	-0.115	-0.216
-288.603	-78.239	-0.086	-0.029
-287.589	800.000	0.047	0.154
-286.574	-200.000	-0.022	0.104
-285.559	-19.176	-0.265	0.163
-284.545	-132.485	0.299	0.038
-283.530	-107.933	-0.317	0.068
-282.516	-3.574	-0.134	-0.092
-281.501	219.397	0.082	-0.131
-280.486	-24.780	-0.221	0.130
-279.472	-12.579	-0.111	-0.072
-278.457	-45.038	-0.226	-0.111
-277.443	-35.097	0.320	0.173
-276.428	-19.934	-0.148	-0.090
-275.413	-179.653	0.254	0.005
-274.399	-200.000	-0.018	0.077
-273.384	800.000	0.060	0.237
-272.370	800.000	-0.018	-0.074
-271.355	-65.124	-0.124	0.049
-270.340	112.789	-0.086	-0.103
-269.326	762.306	0.063	-0.168
-268.311	28.292	-0.135	0.113
-267.297	262.384	-0.103	0.176
-266.282	5.802	0.107	-0.079
-265.267	176.587	0.074	-0.106
-264.253	800.000	0.095	0.296
-263.238	-2.902	-0.177	-0.122
-262.224	-31.584	0.355	-0.197
-261.209	-10.037	-0.153	-0.101
-260.195	-75.576	0.347	-0.122
-259.180	172.764	0.110	-0.156
-258.165	241.634	-0.097	0.161
-257.151	-37.045	-0.248	-0.131
-256.136	212.343	-0.071	-0.111
-255.122	78.957	-0.108	-0.114
-254.107	-200.000	-0.011	0.212
-253.092	54.927	0.161	0.154
-252.078	-200.000	-0.067	-0.315
-251.063	-79.079	-0.188	-0.063
-250.049	-200.000	0.013	-0.115
-249.034	-62.915	-0.264	-0.108
-248.019	75.472	-0.196	0.205
-247.005	-88.639	-0.187	-0.055
-245.990	177.818	0.137	0.197
-244.976	19.671	-0.200	-0.159
-243.961	-200.000	-0.001	0.218
-242.946	-11.042	0.182	-0.119
-241.932	-200.000	-0.006	0.138
-240.917	-63.728	0.181	0.073
-239.903	157.952	-0.157	0.216
-238.888	166.367	0.138	-0.194
-237.873	-200.000	-0.049	-0.263
-236.859	-134.196	0.493	0.060
-235.844	-108.987	-0.396	0.083
-234.830	-39.268	-0.387	0.201
-233.815	12.160	-0.179	0.136
-232.800	-200.000	0.020	-0.277
-231.786	462.996	-0.057	-0.126
-230.771	-121.937	0.323	0.053
-229.757	-200.000	-0.026	-0.198
-228.742	-111.755	0.050	0.010
-227.727	134.427	0.223	0.286
-226.713	17.526	0.200	0.157
-225.698	-200.000	-0.035	0.244
-224.684	1.038	-0.263	0.186
-223.669	337.719	0.019	-0.037
-222.655	-50.995	-0.352	0.163
-221.640	-191.646	-0.147	0.001
-220.625	-115.146	-0.082	-0.015
-219.611	-200.000	-0.018	-0.342
-218.596	-200.000	-0.006	0.184
-217.582	11.327	-0.266	0.201
-216.567	59.824	-0.114	-0.111
-215.552	99.873	0.155	-0.178
-214.538	800.000	0.036	0.101
-213.523	-25.685	-0.135	0.079
-212.509	-20.976	-0.441	0.267
-211.494	-146.936	0.401	-0.034
-210.479	24.063	-0.132	0.107
-209.465	-142.064	0.288	0.028
-208.450	-168.767	-0.490	-0.018
-207.436	490.457	-0.156	0.352
-206.421	45.769	0.167	-0.153
-205.406	136.094	-0.078	0.101
-204.392	-200.000	-0.031	-0.191
-203.377	520.903	0.159	-0.369
-202.363	-2.523	-0.288	-0.199
-201.348	800.000	-0.070	0.226
-200.333	800.000	0.043	0.167
-199.319	800.000	-0.037	0.128
-198.304	36.272	0.074	0.064
-197.290	-200.000	-0.057	0.388
-196.275	-129.402	-0.339	-0.046
-195.260	800.000	-0.072	0.225
-194.246	285.462	0.099	-0.176
-193.231	-144.838	-0.314	-0.028
-192.217	-35.647	0.027	-0.015
-191.202	118.764	0.089	-0.108
-190.187	86.901	0.100	-0.109
-189.173	153.129	-0.076	0.103
-188.158	61.736	0.117	0.114
-187.144	74.824	-0.138	0.144
-186.129	-200.000	0.006	-0.078
-185.114	-16.368	0.160	0.100
-184.100	519.208	0.109	0.252
-183.085	800.000	0.055	-0.168
-182.071	47.496	-0.260	-0.239
-181.056	-27.341	0.069	-0.040
-180.042	-200.000	0.142	0.001
-179.027	-9.497	-0.090	-0.059
-178.012	-192.081	-0.301	-0.003
-176.998	-141.276	-0.215	0.022
-175.983	-200.000	0.006	-0.167
-174.969	-61.097	0.140	0.058
-173.954	-200.000	-0.030	-0.131
-172.939	175.285	-0.163	-0.233
-171.925	800.000	-0.058	0.208
-170.910	-50.256	-0.190	-0.088
-169.896	430.109	-0.038	-0.082
-168.881	373.676	-0.046	-0.093
-167.866	9.704	0.082	-0.062
-166.852	-122.222	0.237	-0.038
-165.837	-4.395	-0.238	-0.162
-164.823	7.840	0.091	0.067
-163.808	-116.889	0.185	-0.033
-162.793	-86.154	-0.518	-0.157
-161.779	-131.501	0.261	0.034
-160.764	287.453	0.113	0.202
-159.750	554.822	0.141	0.335
-158.735	-200.000	-0.032	-0.178
-157.720	241.437	0.117	-0.192
-156.706	-61.148	-0.179	0.074
-155.691	21.067	0.209	-0.167
-154.677	-200.000	-0.003	-0.224
-153.662	318.046	-0.091	0.170
-152.647	-141.727	0.068	-0.007
-151.633	-200.000	-0.012	0.060
-150.618	117.195	-0.175	0.211
-149.604	800.000	0.062	-0.174
-148.589	437.585	0.119	-0.256
-147.574	-151.830	0.091	-0.007
-146.560	-200.000	0.010	-0.248
-145.545	431.039	0.020	-0.043
-144.531	-71.148	-0.327	0.121
-143.516	800.000	-0.003	0.007
-142.502	177.047	0.214	0.306
-141.487	30.592	0.081	0.068
-140.472	42.613	-0.086	0.077
-139.458	191.225	-0.065	0.097
-138.443	-46.310	0.283	-0.137
-137.429	-0.862	0.213	-0.149
-136.414	120.468	-0.161	-0.197
-135.399	-193.874	-0.166	-0.001
-134.385	-32.847	-0.166	-0.091
-133.370	63.889	0.197	0.195
-132.356	279.824	-0.211	0.371
-131.341	-129.469	-0.207	-0.028
-130.326	-91.079	0.203	-0.057
-129.312	-112.983	0.241	-0.047
-128.297	-200.000	0.039	0.227
-127.283	-7.742	-0.131	0.087
-126.268	-200.000	0.041	0.211
-125.253	-82.264	-0.148	-0.047
-124.239	800.000	-0.032	0.089
-123.224	-52.089	-0.313	-0.143
-122.210	-200.000	0.052	0.358
-121.195	130.956	0.181	0.229
-120.180	-200.000	-0.076	0.396
-119.166	-2.252	-0.018	0.012
-118.151	50.053	-0.106	0.098
-117.137	800.000	-0.071	0.281
-116.122	800.000	0.039	0.123
-115.107	52.175	0.171	0.161
-114.093	-162.305	-0.382	-0.019
-113.078	-96.810	-0.116	0.030
-112.064	232.011	-0.256	-0.413
-111.049	56.431	0.280	-0.267
-110.034	-200.000	-0.090	0.396
-109.020	800.000	0.008	-0.029
-108.005	-147.821	0.179	-0.015
-106.991	800.000	-0.055	0.229
-105.976	-54.924	0.345	0.153
-104.962	800.000	0.087	-0.280
-103.947	800.000	-0.035	-0.104
-102.932	65.619	-0.167	0.167
-101.918	-200.000	-0.002	0.399
-100.903	-18.361	-0.160	-0.098
-99.889	-200.000	-0.032	0.190
-98.874	-120.576	0.138	-0.023
-97.859	224.211	-0.123	0.195
-96.845	-200.000	0.015	-0.158
-95.830	66.793	0.221	-0.221
-94.816	-76.098	0.150	-0.052
-93.801	490.350	0.073	0.164
-92.786	506.584	-0.145	0.330
-91.772	-200.000	0.015	0.254
-90.757	-33.924	-0.195	-0.105
-89.743	89.953	0.117	0.129
-88.728	486.679	-0.091	-0.205
-87.713	594.725	0.093	0.227
-86.699	-200.000	0.020	-0.175
-85.684	45.670	-0.179	0.162
-84.670	-61.606	0.266	-0.110
-83.655	-133.139	-0.083	0.010
-82.640	800.000	0.084	0.331
-81.626	800.000	0.030	-0.125
-80.611	-68.599	0.255	-0.097
-79.597	-59.325	0.531	0.224
-78.582	-200.000	0.007	0.096
-77.567	-90.344	-0.133	-0.038
-76.553	140.503	0.064	0.083
-75.538	576.326	-0.082	-0.197
-74.524	38.626	0.286	0.251
-73.509	-200.000	-0.017	0.267
-72.494	1.858	-0.360	-0.255
-71.480	84.355	-0.171	-0.184
-70.465	-107.991	-0.367	0.078
-69.451	-7.750	-0.253	-0.168
-68.436	-1.293	0.234	0.162
-67.422	800.000	-0.036	0.148
-66.407	800.000	-0.049	0.196
-65.392	-74.659	-0.110	-0.039
-64.378	-200.000	0.006	0.083
-63.363	-102.753	-0.174	-0.041
-62.349	125.325	0.092	-0.114
-61.334	76.350	-0.881	-0.916
-60.319	263.827	0.321	0.548
-59.305	370.118	-0.571	-1.136
-58.290	280.105	0.733	1.285
-57.276	379.467	0.749	1.506
-56.261	-200.000	105.498	591.094
-55.246	503.324	1492.343	3387.359
-54.232	175.762	2697.032	3840.110
-53.217	109.443	2198.853	2584.770
-52.203	39.407	1719.517	1511.468
-51.188	31.958	1530.739	1294.326
-50.173	29.670	1504.320	1256.404
-49.159	50.104	1559.447	1444.533
-48.144	50.414	1575.895	1461.862
-47.130	32.282	1532.213	1297.602
-46.115	29.224	1517.279	1263.962
-45.100	29.092	1513.959	1260.245
-44.086	29.042	1511.973	1258.203
-43.071	29.024	1509.412	1255.900
-42.057	28.876	1508.201	1253.830
-41.042	28.905	1506.866	1252.866
-40.027	28.963	1505.607	1252.164
-39.013	28.946	1503.734	1250.444
-37.998	28.901	1502.471	1249.037
-36.984	28.766	1501.760	1247.480
-35.969	28.939	1499.850	1247.014
-34.954	28.897	1498.518	1245.573
-33.940	28.848	1497.448	1244.305
-32.925	28.940	1495.406	1243.182
-31.911	28.879	1494.435	1241.915
-30.896	28.960	1493.257	1241.433
-29.881	28.961	1491.651	1240.054
-28.867	28.933	1490.876	1239.174
-27.852	28.914	1489.995	1238.262
-26.838	28.984	1488.118	1237.126
-25.823	28.975	1486.995	1236.079
-24.809	29.006	1484.696	1234.326
-23.794	28.946	1483.402	1232.800
-22.779	28.935	1482.398	1231.845
-21.765	29.015	1481.212	1231.345
-20.750	29.024	1480.231	1230.540
-19.736	28.997	1478.737	1229.072
-18.721	28.883	1477.592	1227.306
-17.706	28.875	1476.720	1226.484
-16.692	28.867	1475.564	1225.422
-15.677	28.820	1474.924	1224.524
-14.663	29.009	1473.122	1224.243
-13.648	28.932	1472.383	1223.068
-12.633	28.969	1470.963	1222.084
-11.619	28.793	1470.807	1220.738
-10.604	28.900	1469.559	1220.358
-9.590	28.822	1468.819	1219.183
-8.575	28.841	1468.142	1218.698
-7.560	28.912	1467.174	1218.312
-6.546	28.801	1466.584	1217.045
-5.531	28.853	1465.273	1216.247
-4.517	28.878	1464.391	1215.632
-3.502	28.896	1463.485	1214.953
-2.487	28.819	1462.665	1213.716
-1.473	28.828	1461.622	1212.858
-0.458	28.890	1459.880	1211.773
0.556	29.330	1450.466	1202.966
1.571	27.050	1425.990	1167.919
2.586	24.187	1365.413	1100.549
3.600	22.889	1282.044	1025.727
4.615	21.316	1236.259	980.195
5.629	18.040	1178.731	916.946
6.644	10.096	1094.961	811.957
7.659	4.396	1056.056	755.365
8.673	3.655	1050.575	747.792
9.688	3.677	1047.418	745.587
10.702	3.639	1045.929	744.279
11.717	3.698	1044.244	743.298
12.731	5.836	1046.262	754.965
13.746	13.249	1056.234	797.997
14.761	18.981	1063.286	831.033
15.775	19.641	1063.715	834.485
16.790	18.958	1061.819	829.627
17.804	18.121	1059.488	823.702
18.819	17.097	1057.821	817.405
19.834	16.657	1056.671	814.331
20.848	16.542	1055.629	812.903
21.863	16.229	1055.025	810.862
22.877	16.016	1054.480	809.345
23.892	15.805	1053.804	807.742
24.907	15.849	1052.743	807.068
25.921	15.757	1052.179	806.124
26.936	15.775	1051.008	805.243
27.950	15.761	1050.214	804.495
28.965	15.918	1049.146	804.359
29.980	16.006	1047.431	803.391
30.994	16.085	1046.647	803.093
32.009	16.036	1046.129	802.393
33.023	16.178	1045.326	802.381
34.038	16.053	1044.531	801.106
35.053	15.973	1043.670	799.996
36.067	15.943	1042.490	798.875
37.082	15.937	1041.356	797.909
38.096	16.019	1040.970	797.931
39.111	16.089	1040.192	797.594
40.126	16.153	1038.968	796.891
41.140	15.989	1037.790	795.141
42.155	15.830	1036.840	793.592
43.169	15.669	1035.643	791.849
44.184	15.719	1034.768	791.346
45.199	15.627	1033.704	790.030
46.213	15.731	1032.655	789.647
47.228	15.707	1031.710	788.740
48.242	15.806	1031.213	788.755
49.257	15.903	1030.340	788.470
50.271	15.901	1029.304	787.598
51.286	15.870	1028.611	786.853
52.301	15.977	1027.593	786.507
53.315	15.988	1026.732	785.828
54.330	15.898	1025.836	784.654
55.344	15.910	1024.351	783.504
56.359	15.804	1023.814	782.532
57.374	15.694	1023.222	781.500
58.388	15.867	1021.983	781.284
59.403	15.609	1021.611	779.737
60.417	15.616	1020.579	778.913
61.432	15.553	1019.984	778.097
62.447	15.481	1019.685	777.465
63.461	15.574	1018.496	776.922
64.476	15.539	1017.106	775.631
65.490	15.478	1016.553	774.858
66.505	15.546	1015.197	774.069
67.520	15.454	1014.925	773.370
68.534	15.635	1013.817	773.290
69.549	15.562	1013.127	772.360
70.563	15.629	1012.425	772.064
71.578	15.529	1011.778	771.044
72.593	15.578	1010.499	770.226
73.607	15.461	1009.668	768.985
74.622	15.461	1008.549	768.066
75.636	15.480	1008.028	767.688
76.651	15.487	1007.151	766.987
77.666	15.480	1006.421	766.329
78.680	15.540	1005.698	765.985
79.695	15.585	1005.140	765.697
80.709	15.505	1004.938	765.112
81.724	15.597	1003.773	764.577
82.739	15.577	1003.398	764.131
83.753	15.721	1002.701	764.186
84.768	15.741	1001.612	763.381
85.782	15.987	1001.237	764.141
86.797	16.096	1000.649	764.122
87.812	16.121	999.830	763.539
88.826	16.073	998.316	762.097
89.841	15.892	997.891	760.892
90.855	16.158	996.687	761.104
91.870	16.073	996.458	760.478
92.884	16.065	995.876	759.934
93.899	16.054	995.096	759.221
94.914	16.139	993.674	758.451
95.928	16.087	993.580	758.076
96.943	16.128	992.473	757.348
97.957	16.037	991.861	756.406
98.972	15.989	991.014	755.481
99.987	16.003	990.002	754.705
101.001	16.066	989.344	754.418
102.016	16.063	988.555	753.737
103.030	16.017	988.077	753.100
104.045	15.956	986.846	751.821
105.060	16.078	985.922	751.595
106.074	15.965	984.846	750.204
107.089	15.726	984.271	748.635
108.103	15.686	982.965	747.399
109.118	15.617	982.051	746.334
110.133	15.553	980.922	745.123
111.147	15.692	979.992	744.968
112.162	15.580	979.276	743.862
113.176	15.591	978.673	743.387
114.191	15.645	977.871	742.951
115.206	15.799	976.607	742.603
116.220	15.684	976.115	741.658
117.235	15.736	975.362	741.246
118.249	15.679	974.554	740.318
119.264	15.674	974.007	739.813
120.279	15.661	972.963	738.899
121.293	15.557	972.292	737.865
122.308	15.521	971.513	737.053
123.322	15.563	970.152	736.141
124.337	15.445	969.646	735.174
125.352	15.408	968.296	733.920
126.366	15.595	967.379	733.980
127.381	15.496	966.024	732.457
128.395	15.539	965.474	732.161
129.410	15.516	964.655	731.376
130.424	15.419	964.221	730.558
131.439	15.560	963.061	730.228
132.454	15.598	962.195	729.670
133.468	15.837	961.198	729.887
134.483	15.706	961.054	729.147
135.497	15.682	960.402	728.484
136.512	15.803	959.139	727.985
137.527	15.900	958.453	727.818
138.541	15.707	958.045	726.608
139.556	15.693	957.208	725.850
140.570	15.716	956.671	725.479
141.585	15.726	955.813	724.808
142.600	15.983	955.399	725.534
143.614	15.958	954.620	724.770
144.629	15.996	953.556	724.063
145.643	16.145	952.779	724.048
146.658	15.964	951.893	722.536
147.673	15.903	951.194	721.680
148.687	15.800	950.139	720.373
149.702	15.817	949.282	719.734
150.716	15.728	948.396	718.616
151.731	15.836	947.588	718.403
152.746	15.850	946.760	717.772
153.760	15.865	945.861	717.089
154.775	15.763	945.371	716.222
155.789	16.009	944.320	716.407
156.804	15.924	943.710	715.521
157.819	16.001	943.297	715.470
158.833	15.988	942.668	714.876
159.848	16.163	941.701	714.822
160.862	16.113	941.308	714.247
161.877	16.081	940.539	713.464
162.892	16.028	939.247	712.198
163.906	15.803	938.572	710.672
164.921	15.754	937.765	709.791
165.935	15.775	936.763	709.061
166.950	15.792	935.459	708.082
167.964	15.878	935.112	708.119
168.979	16.015	933.513	707.419
169.994	16.006	932.339	706.430
171.008	15.844	931.800	705.279
172.023	16.031	931.044	705.430
173.037	15.956	930.638	704.743
174.052	16.254	929.726	705.235
175.067	16.126	929.470	704.444
176.081	16.030	928.372	703.149
177.096	15.821	927.351	701.445
178.110	15.710	927.169	700.781
179.125	15.944	925.839	700.686
180.140	15.987	924.837	700.048
181.154	15.891	924.709	699.490
182.169	16.053	923.817	699.424
183.183	16.118	923.485	699.380
184.198	16.324	922.826	699.673
185.213	16.287	921.988	698.823
186.227	16.237	921.589	698.251
187.242	16.304	921.082	698.081
188.256	16.418	920.215	697.836
189.271	16.392	919.455	697.088
190.286	16.540	918.985	697.283
191.300	16.198	918.002	695.065
192.315	16.010	917.267	693.671
193.329	15.883	916.273	692.340
194.344	15.880	915.747	691.866
195.359	15.854	915.521	691.526
196.373	15.983	915.374	691.884
197.388	16.223	914.207	691.929
198.402	16.367	913.978	692.283
199.417	16.582	913.530	692.762
200.432	16.528	913.097	692.151
201.446	16.699	912.736	692.514
202.461	16.636	912.418	691.956
203.475	16.806	911.617	691.983
204.490	16.863	910.762	691.506
205.504	16.530	909.566	689.176
206.519	16.507	909.205	688.751
207.534	16.470	908.348	687.887
208.548	16.422	907.509	686.996
209.563	16.342	907.282	686.442
210.577	16.437	906.397	686.096
211.592	16.284	906.056	685.156
212.607	16.435	905.202	685.063
213.621	16.692	905.027	685.910
214.636	16.750	903.769	685.130
215.650	16.573	903.406	684.080
216.665	16.647	902.896	683.931
217.680	16.635	902.872	683.802
218.694	16.627	902.392	683.349
219.709	16.904	901.414	683.663
220.723	16.695	900.918	682.385
221.738	16.738	899.799	681.650
222.753	16.635	899.502	680.952
223.767	16.596	898.855	680.243
224.782	16.789	897.877	680.216
225.796	16.952	897.047	680.181
226.811	16.878	896.472	679.391
227.826	16.803	895.782	678.505
228.840	16.850	894.900	677.964
229.855	16.715	894.551	677.103
230.869	16.792	893.606	676.633
231.884	16.717	892.710	675.596
232.899	16.739	892.142	675.196
233.913	16.597	891.470	674.060
234.928	16.498	891.122	673.344
235.942	16.458	890.172	672.407
236.957	16.574	889.508	672.306
237.972	16.611	888.784	671.850
238.986	16.637	888.360	671.572
240.001	16.729	887.423	671.169
241.015	16.605	887.249	670.485
242.030	16.697	886.407	670.153
243.045	16.786	886.043	670.172
244.059	16.845	885.144	669.665
245.074	16.878	884.484	669.238
246.088	16.911	883.990	668.933
247.103	16.872	883.572	668.403
248.117	16.963	882.880	668.181
249.132	17.194	882.211	668.523
250.147	17.192	882.406	668.604
251.161	17.375	881.214	668.361
252.176	17.389	880.792	668.037
253.190	17.459	879.994	667.649
254.205	17.483	879.426	667.254
255.220	17.509	879.035	666.997
256.234	17.444	878.130	666.000
257.249	17.569	877.290	665.793
258.263	17.543	877.283	665.625
259.278	17.448	876.595	664.671
260.293	17.520	876.062	664.490
261.307	17.574	875.534	664.242
262.322	17.593	874.862	663.747
263.336	17.635	874.575	663.636
264.351	17.619	873.535	662.726
265.366	17.738	873.115	662.812
266.380	17.602	872.389	661.672
267.395	17.739	871.507	661.474
268.409	17.647	870.829	660.545
269.424	17.558	870.085	659.578
270.439	17.612	869.434	659.236
271.453	17.636	868.571	658.617
272.468	17.345	868.152	657.115
273.482	17.497	867.152	656.887
274.497	17.473	866.652	656.358
275.512	17.455	865.965	655.712
276.526	17.453	865.501	655.294
277.541	17.632	864.438	655.117
278.555	17.619	864.095	654.750
279.570	17.697	863.946	654.878
280.585	17.737	863.564	654.688
281.599	17.768	862.785	654.158
282.614	17.699	861.977	653.220
283.628	17.575	861.218	652.113
284.643	17.619	861.049	652.097
285.657	17.693	860.181	651.664
286.672	17.771	859.903	651.693
287.687	17.722	859.162	650.887
288.701	17.630	859.150	650.469
289.716	17.676	858.594	650.169
290.730	17.710	857.746	649.595
291.745	17.773	856.653	648.950
292.760	17.759	856.154	648.462
293.774	17.985	855.744	648.951
294.789	17.807	855.325	647.903
295.803	17.860	854.957	647.769
296.818	17.850	854.258	647.144
297.833	17.774	853.216	646.008
298.847	17.741	852.805	645.514
299.862	17.874	851.832	645.225
300.876	17.856	851.390	644.762
301.891	17.926	850.515	644.310
302.906	17.897	850.579	644.190
303.920	18.146	849.472	644.234
304.935	18.250	848.729	644.005
305.949	18.245	848.416	643.690
306.964	18.204	847.799	643.014
307.979	18.153	846.864	642.056
308.993	18.159	846.766	641.947
310.008	18.154	846.344	641.552
311.022	18.254	845.767	641.433
312.037	18.316	844.930	640.971
313.052	18.119	844.661	639.974
314.066	18.020	843.869	638.949
315.081	17.949	843.403	638.272
316.095	17.856	842.805	637.415
317.110	18.013	842.386	637.630
318.125	18.037	841.967	637.343
319.139	18.039	840.992	636.559
320.154	18.028	840.277	635.919
321.168	17.948	840.025	635.372
322.183	18.001	839.634	635.218
323.197	18.133	839.216	635.336
324.212	18.127	838.509	634.725
325.227	18.152	838.145	634.486
326.241	18.111	837.493	633.784
327.256	18.142	836.620	633.180
328.270	18.123	836.138	632.691
329.285	18.132	835.565	632.232
330.300	18.128	835.051	631.774
331.314	18.012	835.101	631.327
332.329	18.165	834.006	631.009
333.343	18.086	833.508	630.284
334.358	18.234	832.949	630.352
335.373	18.318	832.283	630.102
336.387	18.228	832.199	629.651
337.402	18.270	831.798	629.446
338.416	18.512	830.567	629.347
339.431	18.661	830.320	629.651
340.446	18.499	830.028	628.781
341.460	18.645	829.213	628.641
342.475	18.834	828.357	628.629
343.489	18.560	828.338	627.554
344.504	18.697	827.708	627.524
345.519	18.792	826.893	627.197
346.533	18.954	826.682	627.574
347.548	18.877	826.350	626.986
348.562	18.737	825.877	626.060
349.577	18.685	824.788	624.991
350.592	18.488	824.437	623.950
351.606	18.342	823.818	622.896
352.621	18.368	823.369	622.598
353.635	18.443	823.310	622.771
354.650	18.598	822.537	622.693
355.665	18.519	822.054	621.984
356.679	18.565	821.350	621.563
357.694	18.597	820.852	621.247
358.708	18.821	820.372	621.638
359.723	18.619	819.966	620.546
360.738	18.687	819.395	620.307
361.752	18.563	819.090	619.571
362.767	18.689	818.896	619.824
363.781	18.939	818.369	620.273
364.796	18.954	817.688	619.757
365.810	18.922	817.618	619.532
366.825	19.041	817.462	619.787
367.840	19.108	816.601	619.321
368.854	19.140	816.023	618.946
369.869	19.007	815.903	618.321
370.883	18.996	815.414	617.855
371.898	19.009	814.683	617.295
372.913	19.101	814.069	617.104
373.927	19.052	813.850	616.708
374.942	19.050	812.791	615.841
375.956	19.031	812.081	615.185
376.971	19.126	811.806	615.259
377.986	19.258	811.123	615.157
379.000	19.376	811.006	615.436
380.015	19.349	810.506	614.906
381.029	19.333	809.680	614.170
382.044	19.257	809.203	613.480
383.059	19.159	808.679	612.681
384.073	19.370	808.036	612.890
385.088	19.218	807.663	612.014
386.102	19.125	806.841	611.005
387.117	19.197	805.767	610.393
388.132	19.230	805.590	610.322
389.146	19.027	805.767	609.682
390.161	19.183	805.198	609.753
391.175	19.362	804.656	609.919
392.190	19.198	804.613	609.252
393.205	19.199	804.257	608.933
394.219	19.214	803.328	608.229
395.234	19.106	802.855	607.437
396.248	19.222	802.333	607.395
397.263	18.947	801.882	606.033
398.278	18.912	801.323	605.432
399.292	19.203	800.689	605.923
400.307	19.014	800.733	605.240
401.321	19.127	799.719	604.818
402.336	19.110	799.632	604.638
403.350	19.263	799.399	604.944
404.365	19.324	798.952	604.766
405.380	19.353	798.711	604.632
406.394	19.391	798.135	604.275
407.409	19.479	797.622	604.141
408.423	19.484	797.547	604.048
409.438	19.541	796.848	603.667
410.453	19.688	796.244	603.669
411.467	19.606	796.300	603.370
412.482	19.773	795.686	603.435
413.496	19.842	794.965	603.075
414.511	19.731	794.891	602.579
415.526	19.823	794.547	602.586
416.540	19.836	793.770	601.987
417.555	19.758	793.622	601.551
418.569	19.786	792.947	601.083
419.584	19.667	792.743	600.463
420.599	19.746	792.448	600.460
421.613	159.395	1370.085	1793.787
422.628	138.072	1454.262	1793.878
