DTS Sentinel unit serial number:	SN413079Multiplexer serial number:	ORYXHardware model number:	OX4-SRSoftware version number:	ORYX F/W v4.00 Oryx Data Collector v3.7.2.0data status	okinstallation	princeton_trtdifferential loss correction	single-endedforward channel	channel 3reverse channel	N/Adate	2019/09/16time	13:20:35forward acquisition time	60.00reverse acquisition time	0.00gamma	496.2192k internal	0.2294k external	0.2294temperature offset calibration	0.9934default loss term (dB/km)	0.3790temperature slope calibration	1.0000multiplexer offset coefficient	1.0000multiplexer slope coefficient	1.0000fibre end	0.00T internal ref (°C)	41.37T ext. ref 1 (°C)	13.73T ext. ref 2 (°C)	39.31length (m)	temperature (°C)	Stokes	anti-Stokes-747.200	-181.160	-0.099	-0.002
-746.185	-200.000	0.009	0.256
-745.171	-74.639	0.074	-0.027
-744.156	246.518	0.039	-0.067
-743.142	-49.517	-0.153	0.075
-742.127	-55.395	-0.058	-0.027
-741.112	-200.000	0.011	-0.290
-740.098	800.000	-0.029	0.113
-739.083	-200.000	0.002	-0.009
-738.069	-49.832	0.127	0.062
-737.054	308.192	0.088	0.168
-736.039	-40.941	0.163	-0.086
-735.025	-144.209	0.027	0.003
-734.010	23.174	-0.412	-0.346
-732.996	792.895	-0.145	-0.407
-731.981	800.000	-0.037	-0.132
-730.966	129.029	0.079	-0.103
-729.952	-200.000	-0.028	0.168
-728.937	-35.919	-0.295	-0.163
-727.923	70.019	-0.106	0.112
-726.908	-200.000	-0.046	-0.298
-725.894	-200.000	0.043	-0.398
-724.879	5.318	-0.295	0.223
-723.864	365.391	0.077	0.158
-722.850	268.664	-0.098	-0.175
-721.835	12.144	0.162	-0.127
-720.821	-200.000	-0.052	-0.275
-719.806	-48.848	-0.224	-0.110
-718.791	-200.000	-0.006	0.293
-717.777	-200.000	0.013	-0.256
-716.762	-200.000	0.005	-0.025
-715.748	-28.424	0.037	-0.022
-714.733	76.715	-0.186	-0.202
-713.718	-5.900	-0.317	-0.222
-712.704	-26.149	-0.121	0.073
-711.689	-127.131	0.228	0.034
-710.675	256.877	-0.191	0.336
-709.660	-91.057	-0.156	0.046
-708.645	-200.000	-0.003	-0.215
-707.631	261.413	0.034	0.060
-706.616	185.732	0.085	0.130
-705.602	800.000	0.027	0.111
-704.587	102.867	0.064	0.076
-703.572	-120.656	0.181	0.031
-702.558	44.011	-0.261	0.244
-701.543	-200.000	0.035	0.235
-700.529	-200.000	-0.041	-0.319
-699.514	800.000	-0.093	0.385
-698.499	-200.000	0.000	0.081
-697.485	100.536	-0.356	-0.422
-696.470	-69.071	-0.355	-0.139
-695.456	800.000	0.061	-0.172
-694.441	-200.000	-0.030	0.229
-693.426	192.140	-0.172	-0.265
-692.412	8.574	-0.171	0.132
-691.397	11.188	0.092	-0.072
-690.383	-76.037	-0.219	0.079
-689.368	50.068	0.159	0.153
-688.354	-200.000	-0.009	-0.044
-687.339	23.114	-0.283	-0.237
-686.324	92.234	-0.295	-0.340
-685.310	27.127	-0.049	-0.042
-684.295	-52.051	0.191	-0.091
-683.281	-40.762	0.214	-0.113
-682.266	-200.000	0.007	0.240
-681.251	-47.646	0.135	-0.067
-680.237	304.659	-0.158	-0.299
-679.222	-165.233	0.376	-0.017
-678.208	-200.000	0.016	-0.473
-677.193	-106.132	-0.284	0.065
-676.178	-200.000	-0.049	-0.324
-675.164	90.097	-0.060	-0.068
-674.149	288.214	-0.174	-0.321
-673.135	114.693	0.185	0.229
-672.120	-157.588	0.232	0.014
-671.105	256.359	-0.222	-0.389
-670.091	139.735	0.141	-0.189
-669.076	-44.617	0.333	0.169
-668.062	-49.602	0.150	0.073
-667.047	175.966	0.223	-0.330
-666.032	-111.036	-0.211	0.044
-665.018	6.935	0.191	-0.145
-664.003	-122.667	-0.259	0.043
-662.989	-99.220	-0.137	-0.035
-661.974	-71.722	-0.241	0.092
-660.959	218.836	0.117	0.191
-659.945	-23.242	0.097	-0.059
-658.930	-81.627	0.181	-0.061
-657.916	-41.597	-0.192	-0.101
-656.901	800.000	-0.054	-0.189
-655.886	-131.334	0.128	-0.017
-654.872	-12.730	-0.217	0.144
-653.857	164.730	-0.300	-0.431
-652.843	-66.600	-0.094	0.038
-651.828	-40.211	-0.309	-0.164
-650.814	45.033	0.206	0.194
-649.799	-200.000	-0.001	-0.081
-648.784	40.187	0.185	0.169
-647.770	-200.000	-0.035	-0.185
-646.755	109.755	-0.236	-0.288
-645.741	-111.710	-0.232	-0.048
-644.726	195.585	-0.048	-0.074
-643.711	157.573	0.154	-0.217
-642.697	-108.146	-0.319	0.070
-641.682	-200.000	-0.010	-0.265
-640.668	185.957	0.196	0.296
-639.653	-200.000	0.005	-0.150
-638.638	-94.720	-0.276	0.076
-637.624	-17.229	-0.094	-0.060
-636.609	563.959	0.076	-0.189
-635.595	220.309	0.049	-0.081
-634.580	102.416	-0.091	0.109
-633.565	17.364	-0.085	-0.069
-632.551	-200.000	-0.020	-0.142
-631.536	8.973	-0.175	0.134
-630.522	-94.841	-0.154	-0.043
-629.507	-67.548	-0.194	-0.078
-628.492	18.762	0.176	0.143
-627.478	-200.000	0.008	-0.244
-626.463	-127.120	0.062	0.009
-625.449	-194.836	-0.140	0.001
-624.434	244.273	-0.055	0.094
-623.419	-129.431	0.149	-0.021
-622.405	-200.000	-0.012	-0.332
-621.390	-60.360	0.224	0.097
-620.376	100.723	0.256	-0.303
-619.361	800.000	0.065	0.281
-618.346	-23.492	0.163	0.099
-617.332	-200.000	-0.018	0.231
-616.317	-200.000	0.022	0.108
-615.303	-189.472	-0.093	0.001
-614.288	-80.487	0.291	0.099
-613.273	160.229	-0.189	0.268
-612.259	-96.363	-0.193	-0.052
-611.244	19.073	-0.271	-0.221
-610.230	-116.575	0.045	0.008
-609.215	49.560	0.078	0.075
-608.201	800.000	0.069	0.240
-607.186	-156.017	0.188	-0.012
-606.171	-66.465	-0.146	-0.059
-605.157	90.784	0.035	0.040
-604.142	58.571	-0.076	0.076
-603.128	-109.281	-0.118	-0.025
-602.113	-200.000	-0.047	-0.282
-601.098	279.538	0.103	-0.188
-600.084	162.529	0.220	0.314
-599.069	36.856	0.102	0.091
-598.055	93.169	-0.229	0.263
-597.040	-81.190	-0.365	0.123
-596.025	292.145	0.059	-0.109
-595.011	-200.000	0.005	-0.028
-593.996	49.325	0.139	-0.133
-592.982	-200.000	-0.010	0.239
-591.967	491.620	-0.009	-0.022
-590.952	-200.000	0.069	-0.423
-589.938	800.000	-0.091	-0.286
-588.923	-9.132	-0.201	-0.137
-587.909	800.000	-0.063	0.235
-586.894	-148.303	-0.315	-0.026
-585.879	-42.939	0.109	0.056
-584.865	800.000	-0.016	-0.045
-583.850	43.555	0.112	0.104
-582.836	43.406	-0.012	-0.011
-581.821	10.571	0.081	0.062
-580.806	88.156	0.250	0.282
-579.792	-126.623	0.147	0.022
-578.777	-143.075	-0.079	0.008
-577.763	27.604	-0.148	-0.126
-576.748	151.216	0.122	-0.168
-575.733	355.344	-0.144	0.291
-574.719	-29.742	0.183	-0.106
-573.704	-124.610	-0.174	0.027
-572.690	-116.055	-0.094	-0.018
-571.675	-62.598	0.131	-0.055
-570.661	800.000	0.050	0.155
-569.646	6.357	-0.032	0.024
-568.631	386.136	-0.052	-0.109
-567.617	-200.000	0.009	-0.065
-566.602	800.000	0.045	-0.144
-565.588	-31.882	-0.067	0.038
-564.573	61.409	-0.186	0.188
-563.558	158.811	-0.243	-0.342
-562.544	-41.480	0.239	-0.125
-561.529	149.240	0.167	0.230
-560.515	43.877	0.256	-0.238
-559.500	800.000	0.024	-0.073
-558.485	366.194	-0.179	-0.367
-557.471	-102.633	-0.212	-0.051
-556.456	88.915	0.225	-0.254
-555.442	72.859	0.088	-0.094
-554.427	-130.885	-0.243	0.033
-553.412	-70.034	0.216	0.083
-552.398	-200.000	-0.036	-0.297
-551.383	-1.860	0.232	0.165
-550.369	270.419	-0.091	-0.163
-549.354	260.879	0.100	0.175
-548.339	-150.570	-0.131	-0.010
-547.325	-7.524	-0.140	0.096
-546.310	-173.023	0.192	-0.006
-545.296	-200.000	0.007	-0.060
-544.281	-200.000	-0.002	-0.079
-543.266	67.307	-0.102	0.106
-542.252	-200.000	-0.006	0.278
-541.237	38.219	-0.309	-0.279
-540.223	-75.557	0.253	0.091
-539.208	164.176	-0.056	-0.080
-538.193	39.853	-0.134	-0.122
-537.179	504.356	-0.102	-0.240
-536.164	187.241	0.117	0.178
-535.150	-83.389	-0.195	-0.063
-534.135	617.743	-0.024	0.061
-533.121	-19.668	0.101	-0.063
-532.106	-1.413	0.155	-0.111
-531.091	147.437	-0.246	-0.336
-530.077	466.441	-0.189	0.430
-529.062	-52.170	-0.317	-0.149
-528.048	-200.000	-0.032	-0.277
-527.033	-64.583	0.329	-0.136
-526.018	-169.915	-0.276	-0.010
-525.004	80.527	0.269	0.294
-523.989	-157.509	0.191	0.012
-522.975	291.730	0.192	-0.355
-521.960	-200.000	0.014	-0.108
-520.945	289.509	-0.066	-0.122
-519.931	800.000	0.091	0.388
-518.916	26.654	0.112	-0.095
-517.902	84.592	-0.396	0.439
-516.887	-173.269	0.110	0.003
-515.872	-177.464	0.314	-0.008
-514.858	-110.753	0.345	-0.072
-513.843	0.697	0.345	-0.251
-512.829	-143.094	0.087	-0.008
-511.814	15.243	0.254	0.202
-510.799	-200.000	-0.001	0.265
-509.785	-139.793	0.263	0.028
-508.770	-113.848	-0.345	0.068
-507.756	139.411	0.073	-0.097
-506.741	-40.291	0.090	-0.048
-505.726	-200.000	0.035	-0.180
-504.712	3.822	-0.175	-0.129
-503.697	-74.027	-0.112	0.041
-502.683	800.000	-0.071	0.264
-501.668	-23.199	0.151	-0.092
-500.653	-27.821	0.193	-0.113
-499.639	65.690	-0.057	0.059
-498.624	-50.403	0.133	-0.064
-497.610	-131.046	-0.178	0.024
-496.595	-25.058	0.132	0.079
-495.581	-200.000	0.005	-0.241
-494.566	-200.000	0.013	-0.140
-493.551	8.151	0.023	-0.017
-492.537	-47.862	0.282	0.138
-491.522	800.000	-0.048	-0.177
-490.508	-159.376	0.145	-0.008
-489.493	506.244	-0.053	0.124
-488.478	-45.958	-0.119	0.060
-487.464	207.768	0.050	-0.079
-486.449	-200.000	-0.030	0.323
-485.435	-200.000	-0.006	0.191
-484.420	800.000	-0.048	-0.211
-483.405	237.211	0.147	0.246
-482.391	-19.451	0.138	0.087
-481.376	-66.003	0.040	-0.016
-480.362	800.000	0.105	0.370
-479.347	128.821	0.105	0.136
-478.332	32.200	-0.101	-0.088
-477.318	-28.437	-0.288	-0.168
-476.303	-76.181	0.234	-0.084
-475.289	-131.168	-0.126	0.017
-474.274	-200.000	-0.003	0.212
-473.259	184.125	0.234	-0.351
-472.245	-138.940	-0.126	-0.014
-471.230	278.266	-0.177	-0.318
-470.216	-78.355	0.166	-0.058
-469.201	-53.509	-0.157	-0.072
-468.186	31.441	0.344	0.299
-467.172	-75.469	0.059	-0.021
-466.157	-184.235	-0.416	0.007
-465.143	-6.570	-0.136	0.094
-464.128	631.985	0.072	0.185
-463.113	-115.451	0.146	0.028
-462.099	-73.349	-0.150	0.056
-461.084	-200.000	-0.051	0.488
-460.070	-200.000	-0.016	-0.106
-459.055	-191.248	0.336	0.003
-458.040	30.303	-0.191	-0.165
-457.026	-200.000	-0.048	0.266
-456.011	236.249	0.114	0.190
-454.997	50.124	-0.173	0.165
-453.982	-113.515	0.135	-0.027
-452.968	367.522	-0.084	-0.172
-451.953	56.463	-0.048	-0.047
-450.938	278.984	0.096	0.172
-449.924	-200.000	-0.019	-0.136
-448.909	800.000	0.041	-0.126
-447.895	-77.913	-0.221	-0.077
-446.880	384.034	0.095	-0.198
-445.865	800.000	-0.031	0.114
-444.851	430.090	-0.150	-0.328
-443.836	-140.196	-0.372	-0.039
-442.822	2.682	0.138	0.101
-441.807	-200.000	0.004	-0.402
-440.792	152.966	0.164	-0.227
-439.778	518.472	-0.220	-0.521
-438.763	-12.869	0.185	-0.122
-437.749	800.000	0.095	0.277
-436.734	-200.000	0.001	0.219
-435.719	142.669	-0.066	0.089
-434.705	800.000	0.080	0.245
-433.690	694.357	-0.054	-0.144
-432.676	97.556	-0.091	0.106
-431.661	-200.000	0.026	-0.161
-430.646	1.659	0.013	-0.009
-429.632	44.165	-0.169	0.157
-428.617	346.245	0.042	0.083
-427.603	79.445	0.071	-0.077
-426.588	-36.356	0.163	-0.089
-425.573	-200.000	-0.044	0.193
-424.559	2.264	-0.242	0.177
-423.544	34.371	-0.195	0.172
-422.530	-46.936	-0.073	0.036
-421.515	-155.790	-0.189	-0.012
-420.500	73.868	-0.177	0.187
-419.486	-200.000	0.008	0.128
-418.471	-16.558	-0.223	-0.143
-417.457	-200.000	0.049	-0.216
-416.442	-120.747	0.340	-0.058
-415.428	-165.526	-0.273	0.012
-414.413	235.201	-0.089	-0.148
-413.398	-142.667	-0.266	-0.026
-412.384	24.491	0.233	0.194
-411.369	2.117	0.191	0.140
-410.355	-200.000	0.017	-0.300
-409.340	-37.025	-0.138	-0.074
-408.325	214.411	0.054	-0.086
-407.311	-95.785	-0.184	0.050
-406.296	-59.398	0.024	0.011
-405.282	-117.609	-0.252	-0.046
-404.267	13.638	0.265	-0.207
-403.252	-149.611	-0.254	-0.020
-402.238	59.889	-0.081	0.081
-401.223	-113.750	0.118	-0.023
-400.209	708.318	0.183	0.487
-399.194	138.403	-0.079	0.104
-398.179	-200.000	-0.008	-0.090
-397.165	-33.692	0.434	-0.242
-396.150	356.295	0.160	0.322
-395.136	-98.554	0.433	0.112
-394.121	601.701	-0.215	0.540
-393.106	-92.881	-0.018	0.005
-392.092	43.275	-0.308	-0.284
-391.077	-112.175	0.166	-0.034
-390.063	347.079	-0.115	-0.228
-389.048	-179.414	0.059	0.001
-388.033	-200.000	-0.038	-0.185
-387.019	32.549	-0.237	-0.207
-386.004	-136.511	-0.238	0.028
-384.990	-156.816	0.101	-0.006
-383.975	-156.981	0.470	0.029
-382.960	160.449	-0.092	0.129
-381.946	-52.960	0.113	0.052
-380.931	6.402	0.048	0.036
-379.917	-200.000	-0.004	-0.046
-378.902	-200.000	-0.022	0.348
-377.888	404.755	0.186	0.396
-376.873	-95.728	0.357	0.096
-375.858	97.185	-0.045	-0.052
-374.844	93.968	0.143	-0.163
-373.829	160.943	-0.179	0.252
-372.815	-161.532	-0.455	0.024
-371.800	-53.619	-0.097	0.045
-370.785	-144.453	0.368	0.034
-369.771	-200.000	0.058	-0.262
-368.756	87.264	0.215	-0.240
-367.742	645.361	-0.116	-0.298
-366.727	-90.859	-0.280	0.081
-365.712	-109.194	0.259	0.055
-364.698	384.870	0.097	0.201
-363.683	-92.742	0.024	0.007
-362.669	-200.000	-0.051	0.241
-361.654	10.531	-0.143	-0.110
-360.639	196.544	-0.021	0.032
-359.625	25.412	0.312	-0.262
-358.610	-103.387	0.365	-0.087
-357.596	-95.613	-0.249	0.067
-356.581	-200.000	-0.001	0.153
-355.566	-57.375	0.103	0.046
-354.552	-80.501	-0.216	-0.073
-353.537	800.000	-0.050	0.158
-352.523	334.696	0.141	0.274
-351.508	-200.000	0.005	0.040
-350.493	-200.000	0.044	-0.195
-349.479	-67.131	-0.261	-0.104
-348.464	-200.000	-0.026	-0.212
-347.450	-200.000	0.054	-0.295
-346.435	-190.896	0.212	-0.002
-345.420	-76.948	0.215	-0.076
-344.406	-10.108	0.300	0.200
-343.391	800.000	0.065	-0.226
-342.377	71.806	-0.090	0.094
-341.362	11.644	-0.290	0.224
-340.348	376.522	-0.116	-0.238
-339.333	232.798	0.107	-0.177
-338.318	-134.047	0.100	0.012
-337.304	-9.047	0.186	-0.126
-336.289	78.461	-0.028	0.030
-335.275	-200.000	0.008	0.054
-334.260	642.723	0.047	-0.121
-333.245	-171.778	-0.272	-0.009
-332.231	-61.078	0.391	-0.166
-331.216	-41.476	0.051	0.026
-330.202	-18.670	0.185	0.116
-329.187	33.692	-0.281	0.246
-328.172	652.246	-0.057	-0.146
-327.158	234.251	0.188	-0.311
-326.143	800.000	-0.111	0.444
-325.129	113.624	0.056	0.068
-324.114	-200.000	-0.006	0.070
-323.099	-148.386	0.179	-0.015
-322.085	800.000	-0.088	0.261
-321.070	-200.000	-0.044	-0.393
-320.056	-4.460	-0.052	0.036
-319.041	-31.783	-0.084	0.047
-318.026	271.830	0.071	0.126
-317.012	-56.269	-0.352	-0.158
-315.997	59.784	-0.117	0.116
-314.983	-111.672	0.092	-0.019
-313.968	26.359	-0.058	0.049
-312.953	-200.000	0.026	0.183
-311.939	-200.000	-0.063	-0.312
-310.924	33.558	-0.255	-0.222
-309.910	643.518	0.035	0.089
-308.895	-11.226	0.094	0.062
-307.880	-200.000	0.140	0.000
-306.866	19.381	0.211	0.171
-305.851	800.000	-0.089	0.296
-304.837	243.195	0.146	0.246
-303.822	-200.000	-0.007	-0.229
-302.807	376.002	-0.102	-0.209
-301.793	-29.123	0.092	0.053
-300.778	-120.719	0.249	0.042
-299.764	-86.702	0.038	-0.012
-298.749	475.338	0.147	0.334
-297.735	800.000	0.048	-0.142
-296.720	-9.557	-0.163	0.109
-295.705	-15.020	-0.128	-0.082
-294.691	800.000	-0.033	0.127
-293.676	-200.000	-0.032	-0.182
-292.662	800.000	-0.034	-0.107
-291.647	-200.000	0.003	-0.217
-290.632	95.557	0.144	-0.165
-289.618	64.525	0.194	0.197
-288.603	-200.000	0.011	-0.103
-287.589	800.000	-0.127	0.370
-286.574	-200.000	-0.004	0.087
-285.559	-200.000	-0.006	-0.402
-284.545	-75.432	0.205	-0.073
-283.530	-200.000	0.022	0.236
-282.516	113.942	-0.256	-0.312
-281.501	112.416	-0.108	0.131
-280.486	-200.000	0.035	0.240
-279.472	-126.097	-0.411	0.062
-278.457	-79.296	0.098	0.033
-277.443	800.000	-0.111	-0.360
-276.428	-24.263	-0.068	0.041
-275.413	25.071	-0.232	0.193
-274.399	221.964	-0.028	-0.045
-273.384	-171.250	-0.316	0.011
-272.370	633.932	0.100	-0.254
-271.355	97.125	0.140	0.162
-270.340	-200.000	0.015	-0.128
-269.326	-164.909	-0.075	0.003
-268.311	632.979	-0.111	0.282
-267.297	-100.742	-0.351	0.087
-266.282	-148.873	0.273	-0.022
-265.267	-180.211	-0.132	0.003
-264.253	-50.084	-0.279	0.133
-263.238	800.000	-0.045	0.141
-262.224	65.650	0.234	-0.238
-261.209	-76.945	-0.197	0.069
-260.195	337.554	0.078	0.152
-259.180	-200.000	0.003	-0.092
-258.165	-92.692	-0.188	0.053
-257.151	184.432	0.096	-0.143
-256.136	122.505	-0.217	0.272
-255.122	-97.902	-0.200	0.052
-254.107	231.513	0.082	0.134
-253.092	182.974	0.099	0.146
-252.078	115.880	0.183	-0.225
-251.063	729.749	0.165	0.442
-250.049	-51.671	0.151	0.071
-249.034	34.646	0.269	-0.236
-248.019	379.863	0.027	0.056
-247.005	-0.786	-0.236	0.168
-245.990	-200.000	-0.050	0.333
-244.976	747.424	-0.070	-0.189
-243.961	-47.471	-0.108	-0.053
-242.946	-83.483	0.282	0.090
-241.932	-125.763	-0.167	0.025
-240.917	-200.000	0.054	-0.254
-239.903	58.347	-0.204	0.200
-238.888	-200.000	-0.019	-0.100
-237.873	800.000	-0.033	0.118
-236.859	-44.929	0.208	0.104
-235.844	7.126	-0.110	0.082
-234.830	-74.872	0.136	-0.049
-233.815	-150.026	-0.155	0.012
-232.800	800.000	-0.072	-0.211
-231.786	-200.000	0.028	0.200
-230.771	24.277	-0.203	-0.168
-229.757	-4.367	-0.111	0.077
-228.742	-3.691	0.231	-0.161
-227.727	97.100	-0.152	-0.175
-226.713	800.000	-0.102	0.292
-225.698	10.893	-0.137	0.105
-224.684	800.000	0.009	0.039
-223.669	-200.000	-0.035	0.302
-222.655	-80.215	0.345	-0.116
-221.640	-200.000	0.010	-0.067
-220.625	-200.000	0.010	0.127
-219.611	-200.000	-0.019	0.230
-218.596	-76.431	0.081	0.029
-217.582	181.032	-0.268	-0.394
-216.567	614.961	-0.037	-0.092
-215.552	-110.273	-0.227	-0.047
-214.538	-200.000	0.020	0.126
-213.523	19.067	0.015	0.012
-212.509	800.000	-0.189	-0.584
-211.494	-39.575	0.241	0.126
-210.479	69.660	-0.229	0.236
-209.465	800.000	-0.009	0.027
-208.450	-200.000	-0.024	-0.136
-207.436	-200.000	0.036	0.251
-206.421	6.956	-0.151	0.113
-205.406	45.434	0.147	0.136
-204.392	267.113	-0.077	-0.135
-203.377	80.067	-0.095	-0.103
-202.363	-200.000	-0.001	-0.079
-201.348	-132.337	-0.065	-0.008
-200.333	-200.000	0.010	-0.231
-199.319	264.395	0.080	-0.140
-198.304	111.248	0.258	-0.311
-197.290	-200.000	0.050	-0.256
-196.275	-17.992	0.147	0.092
-195.260	355.654	-0.099	0.198
-194.246	206.675	-0.081	-0.126
-193.231	-82.238	-0.206	-0.067
-192.217	-75.029	0.236	-0.085
-191.202	240.053	0.012	0.020
-190.187	-200.000	0.050	0.232
-189.173	-87.083	-0.282	0.086
-188.158	-200.000	-0.001	0.147
-187.144	800.000	0.012	0.041
-186.129	-90.482	-0.303	0.088
-185.114	-39.207	0.122	0.064
-184.100	-200.000	0.044	0.440
-183.085	800.000	-0.049	0.169
-182.071	800.000	-0.036	-0.126
-181.056	332.289	0.008	-0.015
-180.042	-28.908	-0.243	0.140
-179.027	-200.000	0.002	0.037
-178.012	-58.705	0.228	0.099
-176.998	33.097	0.157	-0.136
-175.983	-48.602	-0.193	0.093
-174.969	-141.488	0.250	-0.025
-173.954	90.976	0.102	-0.115
-172.939	186.756	-0.050	-0.074
-171.925	-127.538	-0.154	0.022
-170.910	385.141	-0.122	0.251
-169.896	-130.997	0.182	-0.024
-168.881	6.430	0.156	0.116
-167.866	-200.000	-0.018	-0.111
-166.852	-161.970	-0.172	0.009
-165.837	186.258	0.211	-0.314
-164.823	-17.811	0.192	-0.120
-163.808	136.850	0.108	-0.140
-162.793	-141.711	-0.101	0.010
-161.779	-2.719	0.292	-0.204
-160.764	-200.000	0.004	-0.270
-159.750	-133.143	0.102	0.013
-158.735	-49.689	0.177	0.084
-157.720	-200.000	-0.015	0.244
-156.706	140.252	0.073	-0.096
-155.691	59.646	0.047	0.047
-154.677	-45.854	-0.037	-0.018
-153.662	-200.000	-0.012	-0.273
-152.647	174.381	0.229	0.331
-151.633	11.674	-0.076	0.058
-150.618	742.591	0.116	0.311
-149.604	36.650	-0.225	-0.198
-148.589	-74.890	0.164	0.059
-147.574	-200.000	0.040	0.189
-146.560	-89.343	0.259	-0.076
-145.545	-181.501	-0.090	0.002
-144.531	184.291	0.179	0.265
-143.516	-200.000	0.054	0.340
-142.502	738.995	-0.048	0.128
-141.487	-183.121	0.091	0.002
-140.472	-75.554	0.320	0.114
-139.458	-169.999	-0.137	0.005
-138.443	800.000	-0.045	-0.154
-137.429	-73.548	0.306	-0.111
-136.414	132.319	0.063	0.081
-135.399	-47.229	-0.112	-0.054
-134.385	36.175	-0.228	0.200
-133.370	-73.571	0.153	0.056
-132.356	106.308	-0.134	0.158
-131.341	-200.000	0.030	0.262
-130.326	-162.239	0.433	-0.022
-129.312	33.746	-0.136	0.118
-128.297	-51.108	-0.299	0.140
-127.283	165.568	0.149	-0.210
-126.268	132.005	-0.051	-0.066
-125.253	150.364	-0.109	0.147
-124.239	800.000	0.113	0.387
-123.224	105.003	-0.255	0.300
-122.210	-90.812	0.377	-0.108
-121.195	337.595	0.181	-0.351
-120.180	47.815	-0.437	-0.407
-119.166	800.000	0.068	-0.242
-118.151	-200.000	0.033	0.244
-117.137	-54.216	-0.196	-0.089
-116.122	270.039	0.115	0.203
-115.107	-164.015	0.289	-0.013
-114.093	52.494	0.210	0.200
-113.078	100.541	-0.075	-0.087
-112.064	-71.972	0.123	0.046
-111.049	-65.429	-0.270	0.108
-110.034	800.000	-0.040	0.137
-109.020	-32.648	0.133	-0.074
-108.005	-200.000	0.046	0.480
-106.991	23.074	0.086	0.071
-105.976	-109.738	0.253	-0.053
-104.962	-32.279	0.128	-0.071
-103.947	-200.000	0.078	0.512
-102.932	-164.382	-0.201	0.009
-101.918	491.550	0.020	0.046
-100.903	800.000	-0.026	0.076
-99.889	-200.000	0.009	-0.056
-98.874	82.815	0.194	0.210
-97.859	-52.488	0.163	0.075
-96.845	-33.245	-0.004	-0.002
-95.830	97.726	-0.253	0.290
-94.816	163.485	-0.222	-0.312
-93.801	-10.127	-0.268	0.178
-92.786	750.227	0.059	0.160
-91.772	-200.000	0.000	0.282
-90.757	-23.447	-0.039	0.023
-89.743	103.510	-0.151	-0.177
-88.728	44.721	-0.151	0.138
-87.713	-76.139	-0.161	-0.057
-86.699	-200.000	0.017	-0.080
-85.684	26.308	-0.232	-0.193
-84.670	232.240	-0.118	-0.193
-83.655	800.000	0.066	0.195
-82.640	139.366	-0.251	-0.330
-81.626	282.648	0.105	-0.188
-80.611	-200.000	-0.047	0.240
-79.597	17.547	-0.120	0.095
-78.582	200.838	-0.223	-0.341
-77.567	-200.000	0.008	-0.043
-76.553	-200.000	-0.042	-0.209
-75.538	-112.618	-0.227	0.045
-74.524	-200.000	0.053	0.324
-73.509	-84.835	0.302	-0.094
-72.494	542.979	0.076	0.181
-71.480	21.792	-0.216	-0.175
-70.465	88.036	0.077	0.085
-69.451	66.708	-0.056	0.057
-68.436	-200.000	0.090	-0.392
-67.422	81.222	0.031	0.033
-66.407	653.184	0.104	-0.266
-65.392	-56.714	0.186	-0.082
-64.378	-200.000	-0.008	-0.220
-63.363	179.842	0.074	-0.107
-62.349	43.512	0.039	0.035
-61.334	99.407	-0.860	-0.990
-60.319	169.520	-0.208	0.296
-59.305	313.296	-0.300	-0.561
-58.290	127.134	0.554	0.700
-57.276	485.515	0.796	1.804
-56.261	-200.000	75.931	520.411
-55.246	510.376	1347.173	3119.074
-54.232	139.532	2600.215	3407.478
-53.217	116.950	2272.977	2778.255
-52.203	52.416	1781.962	1692.597
-51.188	44.947	1574.486	1442.894
-50.173	42.116	1544.296	1395.483
-49.159	58.050	1581.465	1541.427
-48.144	64.170	1600.912	1603.318
-47.130	45.405	1564.117	1436.383
-46.115	41.692	1549.685	1397.168
-45.100	41.587	1545.799	1392.877
-44.086	41.308	1543.903	1389.171
-43.071	41.336	1542.419	1387.972
-42.057	41.274	1540.470	1385.734
-41.042	41.317	1538.918	1384.579
-40.027	41.344	1537.297	1383.258
-39.013	41.421	1535.496	1382.115
-37.998	41.340	1534.800	1380.875
-36.984	41.342	1533.292	1379.471
-35.969	41.429	1532.118	1378.965
-34.954	41.474	1530.422	1377.695
-33.940	41.477	1528.617	1376.038
-32.925	41.414	1526.880	1373.985
-31.911	41.423	1525.693	1372.923
-30.896	41.398	1525.016	1372.085
-29.881	41.459	1523.157	1370.776
-28.867	41.456	1522.256	1369.892
-27.852	41.477	1520.286	1368.213
-26.838	41.466	1519.227	1367.128
-25.823	41.466	1517.534	1365.551
-24.809	41.434	1515.406	1363.360
-23.794	41.492	1514.387	1362.784
-22.779	41.350	1513.765	1361.203
-21.765	41.427	1512.225	1360.288
-20.750	41.424	1511.331	1359.408
-19.736	41.400	1510.182	1358.161
-18.721	41.384	1509.214	1357.128
-17.706	41.429	1507.780	1356.091
-16.692	41.431	1506.505	1354.899
-15.677	41.313	1505.572	1353.209
-14.663	41.378	1504.439	1352.574
-13.648	41.303	1503.166	1350.869
-12.633	41.256	1502.351	1349.765
-11.619	41.366	1501.634	1349.813
-10.604	41.214	1501.134	1348.284
-9.590	41.221	1500.042	1347.293
-8.575	41.305	1499.148	1347.008
-7.560	41.333	1497.892	1346.015
-6.546	41.285	1497.072	1344.899
-5.531	41.216	1496.471	1343.839
-4.517	41.282	1495.208	1343.099
-3.502	41.206	1494.491	1341.890
-2.487	41.277	1493.299	1341.245
-1.473	41.242	1492.396	1340.145
-0.458	41.344	1490.818	1339.359
0.556	39.604	1481.942	1330.521
1.571	37.342	1455.885	1291.990
2.586	33.727	1393.003	1213.021
3.600	31.467	1309.521	1126.632
4.615	28.902	1259.083	1068.260
5.629	25.763	1203.223	1003.316
6.644	19.809	1119.439	902.404
7.659	14.699	1076.928	842.343
8.673	13.810	1071.521	833.575
9.688	13.784	1068.493	831.020
10.702	13.667	1066.810	829.052
11.717	13.659	1065.140	827.638
12.731	15.949	1067.588	840.915
13.746	20.956	1074.752	871.582
14.761	21.666	1073.767	874.251
15.775	18.472	1068.630	854.103
16.790	16.935	1065.403	843.806
17.804	15.900	1062.844	836.562
18.819	14.779	1061.513	829.877
19.834	14.324	1059.735	826.158
20.848	14.014	1058.006	823.197
21.863	13.752	1057.271	821.259
22.877	13.406	1056.633	818.978
23.892	13.315	1055.749	817.770
24.907	13.155	1055.452	816.677
25.921	13.208	1054.331	815.998
26.936	13.099	1053.804	814.979
27.950	13.245	1052.422	814.561
28.965	13.222	1051.742	813.847
29.980	13.258	1050.785	813.215
30.994	13.389	1049.393	812.706
32.009	13.479	1048.005	812.000
33.023	13.409	1047.782	811.414
34.038	13.389	1047.137	810.746
35.053	13.473	1046.071	810.256
36.067	13.318	1044.998	808.598
37.082	13.318	1044.274	807.965
38.096	13.272	1043.468	807.045
39.111	13.461	1042.557	807.190
40.126	13.515	1041.685	806.708
41.140	13.323	1040.657	804.908
42.155	13.256	1039.511	803.625
43.169	13.176	1039.159	802.890
44.184	13.238	1037.592	801.910
45.199	13.089	1036.493	800.269
46.213	13.130	1035.309	799.483
47.228	13.180	1034.373	798.931
48.242	13.131	1033.633	798.049
49.257	13.343	1032.376	798.033
50.271	13.278	1031.518	796.988
51.286	13.281	1030.402	796.067
52.301	13.236	1030.011	795.479
53.315	13.205	1029.008	794.487
54.330	13.261	1027.897	793.823
55.344	13.231	1027.338	793.178
56.359	13.178	1026.389	792.123
57.374	13.253	1025.451	791.688
58.388	13.169	1024.911	790.798
59.403	13.165	1024.032	790.030
60.417	13.249	1023.149	789.683
61.432	13.048	1022.931	788.485
62.447	13.108	1021.499	787.597
63.461	13.120	1021.006	787.203
64.476	13.055	1019.773	785.875
65.490	13.092	1019.411	785.702
66.505	13.072	1018.367	784.730
67.520	13.102	1017.498	784.136
68.534	13.132	1016.926	783.769
69.549	13.066	1016.164	782.798
70.563	13.120	1015.627	782.571
71.578	13.174	1014.742	782.073
72.593	13.022	1013.768	780.537
73.607	13.016	1012.816	779.709
74.622	12.895	1012.131	778.539
75.636	12.958	1011.246	778.086
76.651	13.016	1010.263	777.534
77.666	13.074	1009.476	777.133
78.680	13.019	1008.887	776.350
79.695	12.984	1008.270	775.643
80.709	12.990	1007.860	775.289
81.724	13.110	1007.077	775.182
82.739	13.179	1006.284	774.826
83.753	13.104	1005.738	773.986
84.768	13.261	1004.724	773.869
85.782	13.343	1003.967	773.605
86.797	13.460	1003.105	773.416
87.812	13.391	1002.000	772.176
88.826	13.269	1001.423	771.093
89.841	13.306	1000.822	770.733
90.855	13.248	999.910	769.695
91.870	13.315	998.818	769.094
92.884	13.311	998.582	768.829
93.899	13.395	997.904	768.627
94.914	13.304	997.176	767.576
95.928	13.484	996.037	767.465
96.943	13.475	995.306	766.794
97.957	13.391	994.722	765.888
98.972	13.408	993.760	765.157
99.987	13.377	993.310	764.601
101.001	13.429	992.430	764.097
102.016	13.415	991.595	763.319
103.030	13.435	990.159	762.240
104.045	13.234	989.563	760.786
105.060	13.508	988.050	760.816
106.074	13.431	987.459	759.942
107.089	13.266	986.729	758.554
108.103	13.224	986.170	757.863
109.118	13.158	984.857	756.488
110.133	13.142	983.981	755.674
111.147	13.077	983.427	754.884
112.162	13.259	982.587	755.005
113.176	13.170	982.176	754.217
114.191	13.263	980.991	753.661
115.206	13.303	979.984	753.005
116.220	13.241	979.125	751.995
117.235	13.306	978.253	751.553
118.249	13.347	977.783	751.313
119.264	13.268	976.575	749.961
120.279	13.263	975.740	749.230
121.293	13.175	975.328	748.446
122.308	13.128	974.404	747.462
123.322	13.080	973.551	746.523
124.337	13.170	971.926	745.618
125.352	13.330	970.667	745.306
126.366	13.183	969.804	743.917
127.381	13.104	968.880	742.788
128.395	13.240	967.957	742.622
129.410	13.220	967.255	741.928
130.424	13.241	966.099	741.071
131.439	13.211	965.500	740.410
132.454	13.159	964.856	739.618
133.468	13.319	964.168	739.742
134.483	13.314	963.650	739.257
135.497	13.418	962.478	738.755
136.512	13.289	962.193	737.900
137.527	13.329	961.377	737.386
138.541	13.396	960.691	737.092
139.556	13.376	959.652	736.139
140.570	13.336	959.136	735.503
141.585	13.368	958.261	734.907
142.600	13.540	957.407	734.952
143.614	13.560	956.696	734.430
144.629	13.431	955.910	733.188
145.643	13.525	955.207	733.003
146.658	13.514	954.291	732.187
147.673	13.521	953.317	731.404
148.687	13.390	952.433	730.081
149.702	13.414	951.228	729.202
150.716	13.399	950.853	728.783
151.731	13.300	949.995	727.625
152.746	13.375	949.020	727.142
153.760	13.404	948.268	726.629
154.775	13.280	947.779	725.646
155.789	13.345	946.706	725.047
156.804	13.460	945.887	724.858
157.819	13.353	945.787	724.249
158.833	13.496	944.688	723.967
159.848	13.360	944.232	722.961
160.862	13.442	943.314	722.554
161.877	13.521	942.756	722.407
162.892	13.431	941.862	721.265
163.906	13.448	940.745	720.421
164.921	13.371	940.410	719.765
165.935	13.514	939.134	719.346
166.950	13.339	938.279	717.867
167.964	13.461	937.172	717.484
168.979	13.562	935.931	716.906
169.994	13.541	935.206	716.199
171.008	13.527	934.218	715.320
172.023	13.390	933.984	714.483
173.037	13.485	933.111	714.163
174.052	13.611	932.559	714.220
175.067	13.700	931.598	713.804
176.081	13.466	930.816	712.135
177.096	13.576	930.236	712.100
178.110	13.535	929.167	711.044
179.125	13.622	928.464	710.815
180.140	13.485	927.988	709.804
181.154	13.549	927.325	709.508
182.169	13.516	926.641	708.778
183.183	13.725	926.061	709.168
184.198	13.515	925.880	708.067
185.213	13.697	924.631	707.826
186.227	13.767	923.945	707.536
187.242	13.769	923.446	707.101
188.256	13.722	923.240	706.681
189.271	13.802	922.204	706.165
190.286	13.683	921.611	705.143
191.300	13.757	920.272	704.369
192.315	13.663	920.000	703.703
193.329	13.433	919.609	702.366
194.344	13.550	918.763	702.153
195.359	13.508	918.307	701.563
196.373	13.721	917.342	701.665
197.388	13.832	916.864	701.706
198.402	13.862	916.418	701.430
199.417	13.904	915.967	701.198
200.432	13.983	915.527	701.134
201.446	13.988	915.183	700.828
202.461	13.925	914.890	700.277
203.475	13.952	914.323	699.894
204.490	14.047	913.506	699.606
205.504	14.052	912.856	699.070
206.519	13.844	911.901	697.401
207.534	13.994	910.932	697.228
208.548	13.905	910.407	696.394
209.563	14.088	909.743	696.588
210.577	14.055	908.855	695.709
211.592	13.925	908.462	694.804
212.607	14.118	907.974	695.175
213.621	14.308	907.191	695.309
214.636	14.074	906.747	693.929
215.650	14.089	905.797	693.203
216.665	14.104	905.358	692.871
217.680	14.162	904.701	692.544
218.694	14.247	904.332	692.557
219.709	14.207	904.029	692.095
220.723	14.254	903.064	691.492
221.738	14.338	902.230	691.143
222.753	14.232	901.518	690.096
223.767	14.340	900.640	689.810
224.782	14.198	900.082	688.734
225.796	14.328	899.459	688.732
226.811	14.391	898.859	688.474
227.826	14.295	898.200	687.510
228.840	14.292	897.471	686.881
229.855	14.218	897.028	686.175
230.869	14.335	896.526	686.213
231.884	14.327	895.489	685.324
232.899	14.241	894.825	684.403
233.913	14.379	893.873	684.180
234.928	14.320	893.673	683.723
235.942	14.442	892.578	683.328
236.957	14.269	892.135	682.218
237.972	14.318	891.362	681.766
238.986	14.255	890.832	681.041
240.001	14.271	890.317	680.655
241.015	14.348	889.660	680.406
242.030	14.293	888.961	679.587
243.045	14.450	888.093	679.503
244.059	14.384	887.477	678.703
245.074	14.325	886.855	677.928
246.088	14.555	885.947	678.110
247.103	14.661	885.443	678.095
248.117	14.501	885.155	677.162
249.132	14.430	884.778	676.527
250.147	14.605	884.351	676.850
251.161	14.713	883.572	676.633
252.176	14.860	882.699	676.500
253.190	14.874	881.620	675.667
254.205	14.875	881.430	675.466
255.220	14.721	881.310	674.694
256.234	14.782	880.126	673.975
257.249	14.800	879.574	673.563
258.263	14.907	878.835	673.367
259.278	14.912	878.542	673.104
260.293	14.930	877.916	672.637
261.307	15.063	876.897	672.330
262.322	14.952	876.760	671.721
263.336	14.888	876.565	671.257
264.351	14.986	875.484	670.761
265.366	14.956	875.060	670.258
266.380	14.960	874.434	669.736
267.395	15.069	873.495	669.391
268.409	14.987	873.034	668.653
269.424	14.970	872.172	667.863
270.439	14.886	871.179	666.710
271.453	15.088	870.393	666.856
272.468	15.059	869.754	666.192
273.482	15.006	869.054	665.383
274.497	15.003	868.922	665.213
275.512	15.011	868.011	664.486
276.526	14.896	867.737	663.762
277.541	14.970	866.592	663.123
278.555	15.106	866.117	663.238
279.570	15.189	865.608	663.117
280.585	15.175	865.255	662.732
281.599	15.365	864.425	662.789
282.614	15.213	864.042	661.838
283.628	15.246	863.045	661.144
284.643	15.132	862.870	660.503
285.657	15.257	862.140	660.378
286.672	15.190	861.879	659.857
287.687	15.292	860.994	659.521
288.701	15.265	860.851	659.247
289.716	15.267	860.157	658.666
290.730	15.295	859.720	658.383
291.745	15.265	859.152	657.773
292.760	15.275	858.246	657.057
293.774	15.367	857.770	656.998
294.789	15.415	857.194	656.686
295.803	15.447	856.783	656.437
296.818	15.401	856.082	655.662
297.833	15.333	855.076	654.569
298.847	15.355	854.511	654.163
299.862	15.423	853.910	653.910
300.876	15.418	853.331	653.390
301.891	15.531	852.377	653.041
302.906	15.411	851.865	652.127
303.920	15.628	851.481	652.617
304.935	15.630	850.662	651.939
305.949	15.614	850.100	651.388
306.964	15.796	849.141	651.299
307.979	15.771	848.805	650.889
308.993	15.556	848.466	649.741
310.008	15.681	847.967	649.783
311.022	15.685	846.967	648.974
312.037	15.567	846.820	648.347
313.052	15.684	846.222	648.284
314.066	15.654	845.263	647.377
315.081	15.645	845.011	647.093
316.095	15.523	844.574	646.231
317.110	15.495	844.146	645.737
318.125	15.738	843.199	645.889
319.139	15.561	842.738	644.800
320.154	15.660	842.283	644.776
321.168	15.739	841.810	644.658
322.183	15.761	841.163	644.192
323.197	15.777	840.773	643.898
324.212	15.809	840.162	643.494
325.227	15.788	839.892	643.148
326.241	15.782	839.106	642.469
327.256	15.819	838.132	641.808
328.270	15.807	838.001	641.604
329.285	15.784	837.558	641.119
330.300	15.713	836.660	640.104
331.314	15.864	836.013	640.128
332.329	15.973	835.574	640.151
333.343	15.780	834.981	638.906
334.358	15.830	834.536	638.698
335.373	16.023	834.008	638.969
336.387	15.903	833.467	638.044
337.402	16.036	832.769	637.958
338.416	15.924	832.361	637.166
339.431	15.935	831.742	636.675
340.446	16.073	831.282	636.790
341.460	16.045	830.616	636.118
342.475	16.194	829.923	636.090
343.489	16.204	829.402	635.675
344.504	16.214	829.059	635.392
345.519	16.287	828.139	634.903
346.533	16.356	827.672	634.749
347.548	16.332	827.241	634.275
348.562	16.222	827.085	633.686
349.577	16.199	826.399	633.016
350.592	16.109	826.145	632.430
351.606	16.000	825.752	631.664
352.621	16.099	825.141	631.513
353.635	15.953	824.744	630.603
354.650	16.032	824.138	630.382
355.665	16.227	824.071	631.002
356.679	16.276	823.407	630.622
357.694	16.414	822.799	630.616
358.708	16.252	822.580	629.788
359.723	16.241	821.647	628.978
360.738	16.286	821.244	628.779
361.752	16.306	820.648	628.341
362.767	16.265	820.362	627.914
363.781	16.356	819.713	627.702
364.796	16.519	819.307	627.938
365.810	16.380	819.223	627.302
366.825	16.395	818.892	627.052
367.840	16.601	818.260	627.274
368.854	16.576	818.030	626.951
369.869	16.622	817.036	626.304
370.883	16.530	816.576	625.556
371.898	16.497	816.059	624.982
372.913	16.504	815.462	624.493
373.927	16.681	814.726	624.530
374.942	16.723	813.937	624.025
375.956	16.650	813.270	623.187
376.971	16.532	813.428	622.819
377.986	16.783	812.292	622.817
379.000	16.901	812.153	623.092
380.015	16.693	811.724	621.941
381.029	16.899	810.947	622.046
382.044	16.760	810.746	621.326
383.059	16.827	810.122	621.039
384.073	16.928	809.419	620.815
385.088	16.883	808.963	620.247
386.102	16.826	808.439	619.582
387.117	16.678	808.012	618.659
388.132	16.757	807.174	618.249
389.146	16.716	807.049	617.950
390.161	16.779	806.575	617.764
391.175	16.802	806.389	617.649
392.190	16.930	805.760	617.582
393.205	16.971	805.088	617.159
394.219	16.891	804.653	616.480
395.234	16.915	804.271	616.220
396.248	16.738	803.841	615.192
397.263	16.879	802.966	614.980
398.278	16.735	802.938	614.382
399.292	16.698	802.712	614.021
400.307	16.778	802.399	614.015
401.321	16.793	801.845	613.591
402.336	16.928	801.155	613.500
403.350	16.901	800.751	613.039
404.365	17.001	800.247	612.961
405.380	17.020	799.865	612.680
406.394	17.230	799.349	612.989
407.409	17.172	799.017	612.473
408.423	17.019	798.993	611.846
409.438	17.131	798.141	611.544
410.453	17.241	797.620	611.486
411.467	17.198	797.352	611.071
412.482	17.266	796.879	610.900
413.496	17.228	796.290	610.259
414.511	17.319	795.982	610.296
415.526	17.252	795.674	609.764
416.540	17.230	795.504	609.500
417.555	17.193	794.981	608.913
418.569	17.235	794.499	608.639
419.584	17.216	793.898	608.057
420.599	17.398	793.343	608.231
421.613	90.056	1260.084	1359.398
422.628	76.642	1328.099	1359.521
