DTS Sentinel unit serial number:	SN413079Multiplexer serial number:	ORYXHardware model number:	OX4-SRSoftware version number:	ORYX F/W v4.00 Oryx Data Collector v3.7.2.0data status	okinstallation	princeton_trtdifferential loss correction	single-endedforward channel	channel 3reverse channel	N/Adate	2019/09/12time	23:04:34forward acquisition time	60.00reverse acquisition time	0.00gamma	496.2192k internal	0.2328k external	0.2328temperature offset calibration	1.0132default loss term (dB/km)	0.3790temperature slope calibration	1.0000multiplexer offset coefficient	1.0000multiplexer slope coefficient	1.0000fibre end	0.00T internal ref (°C)	29.25T ext. ref 1 (°C)	3.73T ext. ref 2 (°C)	23.86length (m)	temperature (°C)	Stokes	anti-Stokes-747.200	-60.900	0.218	0.093
-746.185	-139.379	-0.197	-0.021
-745.171	800.000	-0.063	-0.183
-744.156	-200.000	-0.044	0.585
-743.142	255.412	-0.190	0.328
-742.127	-89.038	-0.283	0.084
-741.112	137.537	0.218	0.288
-740.098	-126.898	-0.402	0.060
-739.083	-200.000	0.020	0.162
-738.069	-200.000	-0.029	0.225
-737.054	-161.465	0.254	0.013
-736.039	18.431	-0.177	0.142
-735.025	-69.192	0.102	0.040
-734.010	-108.953	0.120	-0.026
-732.996	800.000	-0.173	-0.570
-731.981	40.111	-0.240	0.218
-730.966	-99.798	-0.228	-0.058
-729.952	-200.000	0.026	-0.290
-728.937	2.259	-0.071	0.051
-727.923	75.828	0.165	0.175
-726.908	-38.990	-0.246	-0.130
-725.894	-189.937	-0.400	-0.005
-724.879	800.000	0.017	-0.075
-723.864	621.031	-0.072	-0.184
-722.850	220.627	-0.072	0.116
-721.835	-22.437	-0.081	-0.049
-720.821	-157.658	-0.116	0.007
-719.806	-200.000	-0.021	-0.216
-718.791	489.080	0.074	-0.170
-717.777	-43.175	-0.296	-0.151
-716.762	-71.239	-0.319	0.121
-715.748	158.620	-0.075	0.105
-714.733	-56.523	-0.126	-0.056
-713.718	74.311	-0.098	-0.104
-712.704	-200.000	-0.011	-0.249
-711.689	18.326	0.087	-0.070
-710.675	135.813	-0.165	0.217
-709.660	426.410	0.036	-0.077
-708.645	13.191	0.303	0.236
-707.631	328.503	0.112	0.216
-706.616	77.248	0.181	-0.194
-705.602	6.795	0.180	-0.135
-704.587	134.734	-0.246	-0.321
-703.572	-78.070	0.082	0.028
-702.558	-19.139	0.130	0.082
-701.543	800.000	-0.070	0.283
-700.529	313.221	-0.144	0.273
-699.514	505.419	0.029	-0.069
-698.499	-126.950	0.393	-0.058
-697.485	-167.754	-0.174	-0.007
-696.470	542.428	-0.073	-0.176
-695.456	800.000	0.095	0.382
-694.441	-43.838	-0.129	-0.065
-693.426	-62.669	-0.081	0.034
-692.412	-200.000	0.035	0.340
-691.397	-200.000	-0.181	0.000
-690.383	800.000	0.054	-0.159
-689.368	-200.000	0.038	-0.216
-688.354	356.920	-0.040	0.080
-687.339	98.678	0.267	0.309
-686.324	800.000	-0.049	0.141
-685.310	85.557	-0.176	-0.194
-684.295	88.320	-0.047	-0.052
-683.281	-200.000	0.012	-0.408
-682.266	-50.470	-0.116	-0.055
-681.251	-46.351	-0.254	-0.125
-680.237	-200.000	0.039	-0.280
-679.222	143.865	0.028	-0.037
-678.208	572.978	0.066	-0.162
-677.193	-90.816	0.386	0.112
-676.178	-141.635	-0.237	0.024
-675.164	-200.000	0.026	-0.151
-674.149	800.000	0.063	-0.198
-673.135	186.261	0.116	-0.173
-672.120	-200.000	-0.065	-0.330
-671.105	-200.000	-0.001	0.009
-670.091	-73.490	0.208	0.076
-669.076	-200.000	-0.014	0.077
-668.062	-200.000	-0.020	0.184
-667.047	-41.659	0.148	0.077
-666.032	8.287	-0.151	-0.114
-665.018	-105.745	0.245	0.056
-664.003	800.000	0.096	0.291
-662.989	800.000	0.038	0.110
-661.974	-200.000	0.085	0.513
-660.959	105.995	0.161	-0.191
-659.945	41.191	-0.173	0.157
-658.930	253.043	-0.143	-0.245
-657.916	-200.000	0.006	0.188
-656.901	36.732	0.116	-0.103
-655.886	-14.984	0.286	0.184
-654.872	-92.690	0.241	0.068
-653.857	-138.252	-0.258	-0.029
-652.843	-5.606	0.058	-0.040
-651.828	-29.221	-0.231	-0.133
-650.814	41.940	0.176	-0.161
-649.799	-113.974	-0.210	0.041
-648.784	-200.000	-0.001	0.058
-647.770	-109.040	0.094	-0.020
-646.755	397.894	-0.139	-0.291
-645.741	-200.000	0.050	-0.256
-644.726	260.724	-0.086	-0.150
-643.711	373.304	0.042	-0.085
-642.697	328.709	-0.217	0.419
-641.682	-200.000	-0.020	0.192
-640.668	-151.697	-0.123	0.009
-639.653	-102.769	-0.114	0.027
-638.638	-116.918	-0.254	0.047
-637.624	-151.162	-0.179	0.013
-636.609	15.009	0.319	0.250
-635.595	24.983	0.048	-0.040
-634.580	484.407	-0.131	-0.300
-633.565	-142.258	0.226	-0.022
-632.551	-113.501	-0.324	-0.064
-631.536	67.004	-0.157	0.160
-630.522	-200.000	0.052	-0.257
-629.507	800.000	-0.010	0.040
-628.492	384.540	-0.104	0.216
-627.478	-165.111	0.134	-0.006
-626.463	-126.064	-0.171	-0.026
-625.449	-200.000	0.038	-0.262
-624.434	12.778	-0.202	0.156
-623.419	-161.572	0.251	-0.013
-622.405	90.627	-0.054	0.061
-621.390	-89.616	-0.364	-0.107
-620.376	-129.841	0.122	-0.017
-619.361	783.301	-0.055	-0.151
-618.346	800.000	-0.057	-0.229
-617.332	800.000	-0.085	0.273
-616.317	22.078	0.391	-0.320
-615.303	-200.000	0.002	-0.071
-614.288	188.784	-0.258	-0.388
-613.273	-200.000	-0.001	-0.117
-612.259	-122.218	-0.142	-0.023
-611.244	-36.896	0.077	0.041
-610.230	19.428	0.238	-0.192
-609.215	-165.643	-0.256	-0.011
-608.201	-200.000	-0.016	-0.078
-607.186	-86.978	-0.278	0.085
-606.171	-110.137	-0.482	0.101
-605.157	-87.834	0.272	0.082
-604.142	-68.704	0.022	0.008
-603.128	-168.803	-0.302	0.011
-602.113	411.867	0.114	0.242
-601.098	-200.000	-0.016	-0.079
-600.084	-154.172	0.058	0.004
-599.069	-124.650	-0.208	0.032
-598.055	-124.361	-0.274	-0.043
-597.040	-200.000	-0.063	-0.348
-596.025	78.154	0.143	0.153
-595.011	-83.279	0.227	-0.073
-593.996	-200.000	-0.015	0.339
-592.982	-84.284	0.219	0.069
-591.967	-22.251	-0.156	-0.095
-590.952	-49.469	-0.350	-0.167
-589.938	104.329	-0.112	-0.132
-588.923	-132.324	0.230	0.030
-587.909	-200.000	-0.031	-0.220
-586.894	140.567	0.141	0.186
-585.879	13.019	-0.072	-0.056
-584.865	659.026	-0.036	0.092
-583.850	-66.327	0.188	-0.075
-582.836	-200.000	0.004	0.156
-581.821	-109.515	0.120	0.025
-580.806	741.628	-0.066	0.177
-579.792	-200.000	-0.032	0.242
-578.777	800.000	-0.056	-0.191
-577.763	93.743	-0.049	0.056
-576.748	-110.582	-0.298	0.062
-575.733	200.148	-0.127	0.195
-574.719	-33.755	-0.269	0.148
-573.704	800.000	-0.049	0.149
-572.690	-48.281	-0.132	0.064
-571.675	325.607	-0.048	0.092
-570.661	-43.843	-0.183	0.092
-569.646	-200.000	-0.029	0.126
-568.631	-41.901	-0.182	-0.093
-567.617	263.394	0.041	0.071
-566.602	-0.994	-0.132	-0.093
-565.588	118.132	0.116	0.143
-564.573	-200.000	-0.013	-0.104
-563.558	-200.000	0.007	0.138
-562.544	58.731	-0.171	0.168
-561.529	189.780	-0.415	0.622
-560.515	505.092	-0.036	0.083
-559.500	109.623	-0.041	0.049
-558.485	400.976	0.121	-0.255
-557.471	15.153	0.125	-0.098
-556.456	-18.087	0.212	0.133
-555.442	-200.000	0.037	-0.235
-554.427	211.752	-0.202	0.319
-553.412	114.560	-0.194	-0.237
-552.398	-81.314	0.063	-0.021
-551.383	-71.712	0.135	0.050
-550.369	-108.720	-0.217	0.047
-549.354	345.533	-0.092	0.181
-548.339	800.000	0.003	0.012
-547.325	272.115	0.108	0.190
-546.310	135.247	0.106	-0.138
-545.296	800.000	-0.068	-0.245
-544.281	25.119	0.036	-0.030
-543.266	287.921	-0.244	-0.441
-542.252	-135.099	0.356	0.043
-541.237	-200.000	-0.008	0.086
-540.223	-200.000	0.209	0.000
-539.208	800.000	-0.055	-0.174
-538.193	-200.000	0.010	0.143
-537.179	-27.216	0.391	-0.228
-536.164	65.703	-0.273	0.277
-535.150	787.082	0.152	0.416
-534.135	-93.199	-0.346	0.096
-533.121	54.141	0.096	-0.092
-532.106	107.519	0.083	-0.098
-531.091	-200.000	0.163	0.000
-530.077	-13.453	0.150	0.097
-529.062	78.980	-0.038	0.041
-528.048	-200.000	-0.003	0.164
-527.033	104.066	0.154	-0.181
-526.018	-30.913	0.076	0.043
-525.004	-200.000	-0.080	0.461
-523.989	-43.674	0.141	0.071
-522.975	-44.552	0.046	-0.023
-521.960	-200.000	-0.004	-0.227
-520.945	379.900	0.120	0.245
-519.931	-200.000	0.011	0.134
-518.916	800.000	-0.078	-0.244
-517.902	-102.051	0.331	-0.080
-516.887	69.194	-0.049	-0.051
-515.872	15.408	0.185	0.145
-514.858	-164.862	-0.114	0.005
-513.843	178.288	0.224	-0.326
-512.829	-63.561	0.153	0.063
-511.814	-132.657	0.113	0.015
-510.799	700.602	0.047	-0.124
-509.785	257.030	-0.124	0.212
-508.770	142.251	-0.122	-0.162
-507.756	-131.770	0.080	0.011
-506.741	-200.000	0.005	-0.124
-505.726	26.841	-0.134	0.112
-504.712	16.152	0.166	0.131
-503.697	227.007	0.110	-0.178
-502.683	-55.311	0.135	-0.061
-501.668	56.224	-0.506	0.491
-500.653	-39.969	0.152	-0.079
-499.639	-20.608	-0.055	0.034
-498.624	-200.000	0.009	0.180
-497.610	800.000	0.035	-0.108
-496.595	543.630	0.243	0.580
-495.581	-113.894	-0.028	-0.005
-494.566	-77.153	-0.153	0.053
-493.551	20.179	0.339	0.273
-492.537	-107.901	-0.324	-0.070
-491.522	24.459	0.123	-0.101
-490.508	-6.291	-0.051	-0.034
-489.493	800.000	0.074	0.259
-488.478	418.945	0.078	0.166
-487.464	114.982	0.075	0.091
-486.449	46.473	-0.257	-0.238
-485.435	-200.000	0.005	-0.345
-484.420	-127.208	-0.124	-0.018
-483.405	-23.905	0.223	-0.133
-482.391	269.013	-0.098	-0.172
-481.376	186.492	-0.075	0.111
-480.362	-77.155	0.309	0.107
-479.347	-200.000	-0.013	0.181
-478.332	800.000	-0.029	-0.111
-477.318	74.132	0.178	-0.186
-476.303	-114.625	-0.232	0.044
-475.289	602.575	0.090	0.223
-474.274	-200.000	-0.015	-0.273
-473.259	800.000	0.070	0.217
-472.245	137.662	0.093	-0.122
-471.230	369.538	-0.121	0.244
-470.216	370.365	-0.076	-0.153
-469.201	-19.168	0.079	0.049
-468.186	-66.167	-0.146	0.058
-467.172	800.000	0.164	0.507
-466.157	349.810	0.125	0.245
-465.143	344.965	-0.041	0.080
-464.128	-64.574	-0.102	0.041
-463.113	-200.000	-0.032	0.215
-462.099	-126.028	0.139	0.021
-461.084	-191.751	0.315	0.003
-460.070	299.823	-0.067	-0.123
-459.055	-200.000	0.047	-0.245
-458.040	800.000	-0.017	0.065
-457.026	27.606	-0.196	0.165
-456.011	800.000	-0.062	0.196
-454.997	-200.000	-0.028	-0.143
-453.982	800.000	-0.037	-0.160
-452.968	58.260	0.210	0.205
-451.953	63.824	-0.244	-0.244
-450.938	170.024	0.070	-0.100
-449.924	-200.000	0.013	0.072
-448.909	134.078	-0.167	-0.215
-447.895	67.121	0.191	0.194
-446.880	-48.013	-0.118	-0.057
-445.865	425.624	-0.075	0.160
-444.851	-18.552	0.291	-0.181
-443.836	273.047	0.154	0.271
-442.822	-74.926	-0.094	-0.034
-441.807	-66.104	0.279	-0.111
-440.792	800.000	-0.075	0.287
-439.778	-200.000	0.028	0.218
-438.763	-200.000	0.005	-0.059
-437.749	71.416	-0.194	-0.200
-436.734	-55.498	0.313	-0.140
-435.719	-73.084	-0.102	0.037
-434.705	159.987	0.089	0.124
-433.690	349.493	-0.227	-0.445
-432.676	114.024	-0.047	0.058
-431.661	-59.571	0.124	0.053
-430.646	76.369	0.080	-0.084
-429.632	800.000	0.039	0.130
-428.617	55.089	-0.099	0.095
-427.603	-200.000	-0.001	-0.094
-426.588	151.995	0.095	-0.129
-425.573	-58.636	0.242	-0.104
-424.559	-43.620	0.094	-0.047
-423.544	-200.000	-0.021	-0.234
-422.530	95.865	-0.105	-0.120
-421.515	-34.418	0.196	0.107
-420.500	283.810	-0.190	0.339
-419.486	-107.425	0.243	0.053
-418.471	-200.000	-0.019	-0.364
-417.457	-200.000	0.011	-0.161
-416.442	577.239	0.021	-0.051
-415.428	177.628	0.069	0.100
-414.413	47.520	-0.130	-0.120
-413.398	152.710	-0.151	-0.205
-412.384	-200.000	-0.028	0.153
-411.369	800.000	-0.045	-0.132
-410.355	-200.000	-0.057	-0.287
-409.340	-200.000	0.063	-0.309
-408.325	586.857	0.158	-0.386
-407.311	36.553	0.234	-0.206
-406.296	800.000	-0.124	0.375
-405.282	-103.393	-0.090	0.021
-404.267	800.000	0.055	-0.190
-403.252	-200.000	-0.026	0.221
-402.238	-125.479	-0.343	0.052
-401.223	313.184	-0.063	0.118
-400.209	509.579	-0.132	-0.306
-399.194	-6.876	-0.125	0.084
-398.179	43.209	0.205	-0.186
-397.165	23.908	0.105	0.086
-396.150	800.000	0.032	-0.122
-395.136	-163.008	-0.232	0.011
-394.121	-96.548	-0.221	-0.058
-393.106	31.105	-0.124	0.106
-392.092	31.171	-0.070	-0.059
-391.077	76.627	0.093	-0.098
-390.063	17.465	0.281	0.222
-389.048	626.517	0.088	0.220
-388.033	-151.570	0.179	0.013
-387.019	-134.899	0.266	-0.032
-386.004	-78.521	0.137	0.047
-384.990	522.136	0.053	0.123
-383.975	-54.010	-0.118	0.053
-382.960	-200.000	-0.001	-0.016
-381.946	243.249	0.085	0.142
-380.931	-42.242	0.149	0.075
-379.917	800.000	0.022	0.082
-378.902	19.769	0.087	0.069
-377.888	-85.750	-0.204	0.063
-376.873	-148.626	0.245	-0.020
-375.858	168.181	-0.132	-0.186
-374.844	470.216	0.058	0.129
-373.829	-85.950	-0.043	-0.013
-372.815	370.788	-0.088	0.178
-371.800	-11.978	-0.073	-0.048
-370.785	-35.947	0.112	0.060
-369.771	28.951	-0.107	0.090
-368.756	268.236	-0.057	0.099
-367.742	146.937	0.127	-0.170
-366.727	66.698	-0.084	0.085
-365.712	-115.017	-0.207	0.039
-364.698	-200.000	0.001	0.099
-363.683	-123.784	-0.227	0.036
-362.669	-79.922	0.213	-0.071
-361.654	489.003	-0.134	0.305
-360.639	188.193	-0.103	-0.153
-359.625	-36.629	0.405	-0.216
-358.610	-200.000	0.011	0.146
-357.596	342.695	0.164	0.318
-356.581	293.936	-0.118	-0.214
-355.566	-11.469	0.148	-0.097
-354.552	130.029	0.062	-0.079
-353.537	-200.000	-0.000	0.241
-352.523	-200.000	0.007	0.033
-351.508	56.161	0.158	-0.152
-350.493	340.225	0.092	-0.178
-349.479	-0.041	-0.254	-0.179
-348.464	-101.048	-0.261	-0.063
-347.450	-192.148	0.158	-0.002
-346.435	-104.772	-0.281	0.064
-345.420	-133.738	-0.295	0.036
-344.406	73.327	0.117	-0.122
-343.391	-200.000	-0.027	0.123
-342.377	-134.536	0.165	-0.020
-341.362	-200.000	-0.015	-0.296
-340.348	-144.305	0.238	0.022
-339.333	-94.844	-0.201	-0.054
-338.318	-75.812	-0.034	0.012
-337.304	548.737	0.009	-0.020
-336.289	-200.000	0.008	0.051
-335.275	-200.000	0.005	-0.050
-334.260	1.288	0.040	-0.028
-333.245	-185.122	0.229	0.004
-332.231	-124.736	-0.313	0.048
-331.216	-89.452	-0.091	0.027
-330.202	-111.032	0.230	0.047
-329.187	311.831	0.046	0.086
-328.172	304.303	0.036	-0.065
-327.158	285.760	-0.020	-0.036
-326.143	-59.679	-0.134	-0.057
-325.129	443.001	-0.090	-0.195
-324.114	453.777	0.073	-0.161
-323.099	-200.000	0.002	-0.183
-322.085	570.897	-0.146	-0.352
-321.070	346.287	0.092	-0.179
-320.056	-59.983	0.241	0.102
-319.041	-200.000	-0.005	-0.024
-318.026	-200.000	-0.003	-0.070
-317.012	193.975	0.071	-0.106
-315.997	-48.987	0.274	0.130
-314.983	331.862	-0.091	0.174
-313.968	213.048	-0.086	-0.135
-312.953	-154.742	0.332	-0.022
-311.939	800.000	-0.095	0.265
-310.924	228.983	0.108	-0.174
-309.910	-200.000	-0.032	0.307
-308.895	-26.478	-0.075	0.043
-307.880	-9.303	-0.272	0.180
-306.866	5.727	0.112	0.082
-305.851	-109.506	0.271	0.057
-304.837	-17.366	-0.116	-0.072
-303.822	-80.034	-0.090	-0.030
-302.807	280.021	-0.136	0.242
-301.793	800.000	-0.129	0.396
-300.778	-200.000	0.040	-0.183
-299.764	-2.063	0.184	-0.128
-298.749	53.445	-0.261	0.248
-297.735	275.986	0.057	0.101
-296.720	-119.320	0.169	-0.029
-295.705	-38.221	0.323	-0.170
-294.691	2.983	-0.089	-0.064
-293.676	-70.760	-0.123	0.046
-292.662	36.023	-0.138	0.120
-291.647	-200.000	0.024	-0.391
-290.632	37.779	-0.169	-0.148
-289.618	-77.558	-0.205	0.070
-288.603	49.704	0.130	0.121
-287.589	-9.254	-0.217	0.143
-286.574	-169.053	-0.278	-0.010
-285.559	1.093	0.256	0.182
-284.545	-96.676	-0.168	0.044
-283.530	173.388	-0.130	-0.186
-282.516	77.137	-0.111	-0.117
-281.501	-116.886	-0.114	-0.021
-280.486	800.000	0.083	0.350
-279.472	-109.408	0.219	0.046
-278.457	117.594	-0.277	-0.337
-277.443	10.694	0.253	0.191
-276.428	800.000	-0.049	-0.188
-275.413	800.000	0.034	-0.101
-274.399	-64.566	-0.173	0.070
-273.384	-32.496	-0.146	0.080
-272.370	-200.000	-0.047	-0.260
-271.355	55.330	-0.242	-0.231
-270.340	-112.492	-0.095	0.019
-269.326	800.000	0.040	0.158
-268.311	-200.000	-0.067	-0.545
-267.297	800.000	0.088	0.263
-266.282	-20.670	0.285	-0.173
-265.267	-200.000	-0.007	-0.099
-264.253	-4.830	0.188	-0.128
-263.238	20.204	0.132	-0.106
-262.224	-200.000	-0.013	0.120
-261.209	34.927	0.093	0.080
-260.195	703.900	-0.134	0.349
-259.180	196.716	-0.131	-0.198
-258.165	-160.233	-0.474	-0.025
-257.151	-151.297	0.198	-0.015
-256.136	-36.048	0.137	-0.073
-255.122	-36.668	0.134	-0.071
-254.107	41.851	-0.049	-0.044
-253.092	-200.000	0.025	0.147
-252.078	86.504	0.259	-0.282
-251.063	-41.142	0.342	0.175
-250.049	800.000	0.046	0.159
-249.034	800.000	0.075	0.309
-248.019	-200.000	-0.068	0.406
-247.005	-91.256	-0.080	0.023
-245.990	8.346	-0.098	0.073
-244.976	-62.677	0.145	0.059
-243.961	2.612	0.258	0.184
-242.946	-200.000	0.044	0.217
-241.932	20.642	0.206	0.165
-240.917	-200.000	-0.037	-0.264
-239.903	-127.330	0.195	-0.028
-238.888	271.071	0.185	0.323
-237.873	-200.000	-0.001	0.093
-236.859	-113.428	-0.173	-0.033
-235.844	-103.030	-0.194	-0.046
-234.830	-103.806	-0.177	-0.041
-233.815	592.763	0.041	0.100
-232.800	28.996	0.130	0.109
-231.786	-51.101	0.372	-0.172
-230.771	197.292	-0.103	0.155
-229.757	-93.094	-0.305	0.084
-228.742	-47.349	-0.105	-0.051
-227.727	19.489	0.077	0.061
-226.713	161.300	-0.341	-0.470
-225.698	24.315	0.150	-0.123
-224.684	28.689	0.137	-0.115
-223.669	-9.365	0.145	-0.096
-222.655	800.000	0.020	0.082
-221.640	800.000	-0.088	0.310
-220.625	-17.719	-0.256	-0.159
-219.611	258.092	-0.179	0.305
-218.596	-200.000	-0.035	-0.197
-217.582	800.000	-0.014	0.052
-216.567	800.000	0.006	0.016
-215.552	-47.620	-0.157	-0.075
-214.538	-200.000	0.059	-0.395
-213.523	-96.175	0.216	0.056
-212.509	-110.694	0.147	-0.030
-211.494	30.652	-0.149	0.126
-210.479	-113.735	0.239	0.046
-209.465	800.000	-0.077	-0.285
-208.450	-75.230	-0.266	0.094
-207.436	199.132	0.040	0.061
-206.421	-79.025	-0.194	0.065
-205.406	-153.287	0.146	0.010
-204.392	800.000	-0.005	-0.019
-203.377	-88.899	0.296	0.087
-202.363	48.774	0.118	0.109
-201.348	5.333	0.152	0.111
-200.333	-129.693	0.487	-0.066
-199.319	130.515	0.151	-0.191
-198.304	-51.205	-0.159	-0.074
-197.290	800.000	0.146	-0.409
-196.275	800.000	-0.050	0.170
-195.260	-81.476	0.178	-0.058
-194.246	-200.000	-0.019	-0.369
-193.231	-82.063	-0.354	-0.114
-192.217	-10.254	-0.268	0.175
-191.202	-52.894	-0.215	-0.098
-190.187	800.000	0.012	-0.040
-189.173	-118.005	0.550	-0.097
-188.158	-87.811	-0.138	0.041
-187.144	-115.336	0.304	-0.057
-186.129	61.612	0.213	-0.209
-185.114	-57.887	0.356	-0.153
-184.100	-200.000	0.019	-0.158
-183.085	-86.485	0.070	0.021
-182.071	164.884	-0.115	-0.160
-181.056	165.662	-0.218	0.303
-180.042	-200.000	-0.035	0.396
-179.027	-110.728	-0.112	-0.023
-178.012	224.915	0.028	0.044
-176.998	-200.000	-0.002	-0.027
-175.983	-200.000	-0.004	-0.207
-174.969	-200.000	0.175	-0.000
-173.954	161.917	-0.128	0.177
-172.939	800.000	-0.075	-0.237
-171.925	78.161	0.052	-0.055
-170.910	-93.477	0.351	-0.096
-169.896	65.799	0.109	-0.109
-168.881	800.000	-0.083	-0.232
-167.866	800.000	-0.021	-0.071
-166.852	-200.000	0.013	-0.070
-165.837	-99.820	0.330	0.081
-164.823	-200.000	-0.036	-0.218
-163.808	236.825	-0.224	-0.365
-162.793	3.915	0.320	0.230
-161.779	-128.165	0.120	-0.017
-160.764	4.845	-0.316	-0.229
-159.750	89.646	0.126	-0.138
-158.735	374.113	-0.066	0.132
-157.720	-132.287	-0.117	-0.015
-156.706	-12.991	-0.063	0.040
-155.691	-116.831	0.195	-0.035
-154.677	-17.858	-0.224	0.138
-153.662	209.183	-0.020	0.030
-152.647	-200.000	-0.320	-0.001
-151.633	85.471	-0.158	0.171
-150.618	-119.748	-0.297	-0.050
-149.604	-141.033	-0.351	0.035
-148.589	-146.980	0.114	-0.010
-147.574	2.888	0.020	0.014
-146.560	-45.581	0.094	0.046
-145.545	-200.000	0.015	0.430
-144.531	-156.403	0.147	0.009
-143.516	-96.659	0.168	0.044
-142.502	-200.000	-0.001	0.028
-141.487	676.532	0.020	0.051
-140.472	-64.117	0.292	0.117
-139.458	-200.000	-0.004	-0.108
-138.443	86.472	-0.249	-0.270
-137.429	87.010	-0.022	0.024
-136.414	127.107	-0.104	-0.130
-135.399	-200.000	0.017	0.216
-134.385	-92.187	-0.292	0.081
-133.370	-200.000	0.035	0.308
-132.356	-159.802	-0.241	-0.013
-131.341	-0.419	0.117	0.082
-130.326	-36.821	0.251	0.132
-129.312	-83.923	0.047	0.015
-128.297	401.158	0.019	0.040
-127.283	-200.000	0.088	-0.496
-126.268	634.778	-0.106	-0.264
-125.253	-124.565	-0.216	0.033
-124.239	81.581	0.155	0.165
-123.224	-200.000	0.006	0.140
-122.210	-61.598	0.162	0.067
-121.195	262.896	-0.004	-0.006
-120.180	752.820	0.092	0.244
-119.166	-200.000	0.026	0.170
-118.151	-200.000	0.023	-0.120
-117.137	43.828	-0.224	0.202
-116.122	130.150	-0.124	-0.156
-115.107	-87.908	0.181	0.053
-114.093	-188.735	0.235	-0.003
-113.078	81.660	-0.085	0.091
-112.064	2.966	-0.284	0.203
-111.049	308.151	-0.032	0.059
-110.034	-98.854	0.121	0.030
-109.020	800.000	-0.046	-0.143
-108.005	-16.669	0.181	0.113
-106.991	800.000	-0.036	0.153
-105.976	-167.331	-0.236	-0.009
-104.962	183.217	-0.062	-0.091
-103.947	71.844	-0.212	0.216
-102.932	349.275	-0.129	0.250
-101.918	-27.950	0.204	-0.116
-100.903	28.661	0.308	0.256
-99.889	-123.137	0.165	0.026
-98.874	-10.866	0.106	-0.069
-97.859	180.095	0.111	-0.160
-96.845	800.000	-0.049	-0.163
-95.830	120.026	0.122	0.149
-94.816	265.635	-0.123	0.210
-93.801	-200.000	0.005	-0.225
-92.786	-112.897	0.229	-0.045
-91.772	181.310	-0.026	-0.038
-90.757	-200.000	-0.015	0.263
-89.743	-100.427	0.090	-0.022
-88.728	-8.181	-0.076	0.050
-87.713	-79.144	-0.112	0.037
-86.699	-91.019	-0.319	0.090
-85.684	-65.786	0.195	-0.077
-84.670	168.890	0.032	-0.044
-83.655	45.528	0.171	-0.155
-82.640	-200.000	-0.011	-0.069
-81.626	187.671	0.037	-0.054
-80.611	9.492	-0.076	-0.056
-79.597	-145.824	-0.192	-0.017
-78.582	-97.767	-0.256	0.065
-77.567	-200.000	-0.055	-0.263
-76.553	-44.525	0.110	-0.054
-75.538	-103.920	0.232	0.053
-74.524	-127.383	0.318	-0.045
-73.509	-200.000	-0.021	0.176
-72.494	-200.000	-0.032	0.263
-71.480	257.969	-0.102	-0.172
-70.465	0.213	-0.078	-0.054
-69.451	385.216	0.176	-0.357
-68.436	58.627	0.209	0.202
-67.422	800.000	0.052	0.206
-66.407	76.898	0.293	0.305
-65.392	168.524	-0.124	-0.174
-64.378	116.773	0.233	0.280
-63.363	-200.000	0.020	0.192
-62.349	-169.204	-0.113	-0.004
-61.334	176.431	-0.778	-1.110
-60.319	267.508	0.329	0.564
-59.305	-200.000	-0.013	-0.713
-58.290	281.148	0.539	0.946
-57.276	763.979	0.514	1.369
-56.261	-200.000	109.957	603.126
-55.246	502.442	1504.843	3411.652
-54.232	177.779	2686.814	3842.717
-53.217	108.307	2173.763	2544.238
-52.203	39.239	1704.498	1496.291
-51.188	32.422	1520.702	1288.414
-50.173	30.005	1495.166	1250.434
-49.159	50.313	1553.358	1439.648
-48.144	50.508	1569.114	1455.538
-47.130	32.560	1523.674	1291.674
-46.115	29.509	1509.677	1258.988
-45.100	29.328	1505.805	1254.478
-44.086	29.422	1503.415	1253.071
-43.071	29.204	1501.477	1249.933
-42.057	29.206	1499.756	1248.462
-41.042	29.230	1498.536	1247.559
-40.027	29.247	1497.234	1246.541
-39.013	29.225	1495.996	1245.310
-37.998	29.221	1493.978	1243.555
-36.984	29.210	1493.434	1242.979
-35.969	29.196	1491.784	1241.465
-34.954	29.126	1490.549	1239.912
-33.940	29.143	1488.935	1238.634
-32.925	29.205	1487.696	1237.972
-31.911	29.282	1486.204	1237.200
-30.896	29.395	1484.776	1236.722
-29.881	29.412	1483.596	1235.804
-28.867	29.401	1482.535	1234.793
-27.852	29.266	1481.112	1232.661
-26.838	29.238	1480.212	1231.676
-25.823	29.312	1478.707	1230.868
-24.809	29.386	1476.850	1229.766
-23.794	29.254	1475.456	1227.674
-22.779	29.252	1474.540	1226.852
-21.765	29.305	1473.456	1226.257
-20.750	29.370	1472.421	1225.776
-19.736	29.311	1471.161	1224.288
-18.721	29.291	1469.927	1223.076
-17.706	29.167	1469.416	1221.782
-16.692	29.294	1467.648	1221.103
-15.677	29.257	1466.742	1220.059
-14.663	29.242	1465.895	1219.207
-13.648	29.198	1464.942	1218.071
-12.633	29.174	1463.669	1216.807
-11.619	29.286	1462.804	1216.780
-10.604	29.207	1462.199	1215.708
-9.590	29.290	1461.044	1215.246
-8.575	29.231	1460.575	1214.421
-7.560	29.126	1459.703	1212.957
-6.546	29.240	1458.615	1212.755
-5.531	29.228	1458.057	1212.163
-4.517	29.113	1457.016	1210.494
-3.502	29.172	1455.817	1209.836
-2.487	29.182	1454.572	1208.817
-1.473	29.026	1454.111	1207.365
-0.458	29.176	1452.513	1206.973
0.556	30.778	1442.907	1195.414
1.571	27.689	1417.415	1154.672
2.586	24.064	1358.217	1084.316
3.600	22.261	1276.936	1009.002
4.615	20.931	1230.861	965.146
5.629	18.374	1174.440	907.296
6.644	10.898	1092.022	806.593
7.659	4.796	1053.520	748.811
8.673	3.964	1047.840	740.726
9.688	3.642	1044.837	737.000
10.702	3.623	1042.421	735.141
11.717	3.682	1040.708	734.146
12.731	6.557	1042.759	749.206
13.746	14.439	1053.764	794.767
14.761	21.259	1063.422	834.685
15.775	23.372	1065.349	846.226
16.790	23.065	1063.458	843.182
17.804	22.326	1061.831	838.298
18.819	21.752	1060.615	834.535
19.834	21.425	1059.491	832.021
20.848	21.395	1058.583	831.089
21.863	21.446	1058.996	831.585
22.877	21.232	1058.432	830.051
23.892	21.185	1056.978	828.613
24.907	21.131	1056.041	827.552
25.921	21.124	1055.198	826.782
26.936	20.985	1054.328	825.369
27.950	20.943	1053.551	824.489
28.965	20.893	1052.461	823.326
29.980	20.811	1051.423	822.054
30.994	21.108	1050.152	822.388
32.009	21.377	1049.100	822.759
33.023	21.402	1048.690	822.480
34.038	21.222	1048.309	821.266
35.053	21.192	1047.091	820.098
36.067	21.053	1046.003	818.518
37.082	20.887	1045.309	817.126
38.096	20.996	1044.572	816.990
39.111	21.217	1043.662	817.239
40.126	21.293	1042.736	816.795
41.140	21.028	1041.866	814.807
42.155	20.771	1040.258	812.278
43.169	20.505	1039.245	810.171
44.184	20.482	1037.841	808.900
45.199	20.529	1036.558	808.048
46.213	20.520	1036.198	807.653
47.228	20.577	1035.414	807.236
48.242	20.700	1035.518	807.817
49.257	21.167	1034.281	808.944
50.271	21.159	1033.189	807.984
51.286	21.115	1032.924	807.501
52.301	21.197	1031.839	806.958
53.315	21.187	1031.049	806.225
54.330	21.236	1030.458	805.917
55.344	20.776	1029.632	803.077
56.359	20.834	1028.329	802.258
57.374	20.618	1027.641	800.657
58.388	20.571	1026.922	799.806
59.403	20.604	1026.071	799.224
60.417	20.467	1024.867	797.590
61.432	20.582	1024.074	797.426
62.447	20.345	1023.884	796.124
63.461	20.348	1022.911	795.308
64.476	20.287	1021.934	794.203
65.490	20.176	1021.392	793.202
66.505	20.191	1020.338	792.383
67.520	20.160	1019.266	791.335
68.534	20.284	1018.791	791.461
69.549	20.159	1017.942	790.163
70.563	20.179	1016.819	789.312
71.578	20.035	1016.242	788.139
72.593	19.914	1014.982	786.543
73.607	19.560	1014.189	784.255
74.622	19.657	1012.938	783.657
75.636	19.870	1012.316	784.073
76.651	19.816	1012.104	783.590
77.666	19.816	1011.023	782.685
78.680	20.067	1009.959	782.927
79.695	20.007	1009.373	782.133
80.709	19.947	1009.141	781.613
81.724	20.204	1008.463	782.177
82.739	20.338	1007.817	782.213
83.753	20.344	1007.082	781.600
84.768	20.770	1006.790	783.220
85.782	21.137	1006.376	784.479
86.797	21.612	1005.954	786.215
87.812	21.434	1005.635	785.098
88.826	21.238	1004.431	783.210
89.841	21.098	1003.657	781.910
90.855	21.237	1002.934	781.897
91.870	21.452	1002.121	782.158
92.884	21.440	1001.576	781.608
93.899	21.337	1000.900	780.550
94.914	21.333	999.721	779.544
95.928	21.387	998.916	779.089
96.943	21.411	998.354	778.691
97.957	21.234	997.389	777.078
98.972	21.137	996.411	775.816
99.987	21.069	995.542	774.771
101.001	21.319	995.034	775.416
102.016	21.316	993.789	774.365
103.030	21.108	992.912	772.691
104.045	21.285	992.070	772.752
105.060	21.304	991.041	771.965
106.074	21.179	990.185	770.679
107.089	21.085	988.676	769.022
108.103	20.675	988.318	766.867
109.118	20.383	987.140	764.602
110.133	20.390	985.739	763.480
111.147	20.250	984.774	762.049
112.162	20.078	984.077	760.686
113.176	20.057	983.303	759.931
114.191	20.184	982.712	759.960
115.206	20.441	981.790	760.308
116.220	20.361	981.289	759.501
117.235	20.456	979.942	758.808
118.249	20.168	979.426	757.082
119.264	20.203	978.363	756.348
120.279	20.056	977.608	755.056
121.293	19.844	976.859	753.486
122.308	19.905	975.685	752.778
123.322	19.719	975.040	751.407
124.337	19.729	973.812	750.438
125.352	19.741	972.372	749.312
126.366	19.712	971.616	748.540
127.381	19.717	970.253	747.446
128.395	19.641	969.640	746.576
129.410	19.963	968.683	747.164
130.424	19.916	968.081	746.432
131.439	19.807	967.506	745.453
132.454	20.295	967.001	747.098
133.468	20.350	966.642	746.992
134.483	20.277	965.846	745.996
135.497	20.422	964.970	745.879
136.512	20.400	964.193	745.116
137.527	20.441	963.455	744.654
138.541	20.333	963.048	743.814
139.556	20.476	962.048	743.587
140.570	20.428	961.491	742.883
141.585	20.648	960.680	743.133
142.600	20.859	960.822	744.077
143.614	21.112	959.474	744.045
144.629	21.141	959.234	743.919
145.643	21.380	958.506	744.306
146.658	21.231	957.601	742.904
147.673	20.998	956.261	740.808
148.687	20.623	955.099	738.251
149.702	20.597	954.251	737.421
150.716	20.450	952.933	735.715
151.731	20.433	951.671	734.601
152.746	20.452	951.232	734.280
153.760	20.591	950.738	734.420
154.775	20.520	950.055	733.529
155.789	20.707	949.493	733.818
156.804	20.661	948.896	733.098
157.819	20.808	947.793	732.798
158.833	20.912	947.093	732.628
159.848	21.048	946.882	732.973
160.862	21.222	946.324	733.207
161.877	21.240	945.421	732.519
162.892	20.775	944.072	729.459
163.906	20.408	943.012	727.042
164.921	20.307	942.186	725.919
165.935	20.308	940.985	724.932
166.950	20.280	940.087	724.059
167.964	20.581	939.338	724.675
168.979	20.681	938.198	724.144
169.994	20.477	937.184	722.452
171.008	20.364	936.122	721.098
172.023	20.430	935.862	721.109
173.037	20.894	935.374	722.594
174.052	21.208	934.998	723.539
175.067	21.084	933.481	721.792
176.081	20.698	932.892	719.674
177.096	20.349	931.447	717.056
178.110	20.204	930.840	715.928
179.125	20.244	930.367	715.662
180.140	20.276	929.431	715.011
181.154	20.299	929.243	714.900
182.169	20.735	928.567	716.110
183.183	20.905	928.309	716.547
184.198	20.957	928.024	716.479
185.213	20.925	926.727	715.282
186.227	20.858	926.561	714.813
187.242	20.978	925.776	714.636
188.256	21.075	925.151	714.488
189.271	21.203	924.775	714.658
190.286	21.280	924.145	714.423
191.300	21.105	923.033	712.785
192.315	20.516	921.606	709.220
193.329	20.074	920.529	706.526
194.344	20.217	920.195	706.792
195.359	20.364	919.958	707.144
196.373	20.536	919.047	707.081
197.388	20.646	919.218	707.598
198.402	20.828	918.886	708.019
199.417	21.233	918.260	709.119
200.432	21.432	918.172	709.796
201.446	21.487	918.339	710.083
202.461	21.493	917.960	709.755
203.475	21.593	917.068	709.406
204.490	21.670	916.339	709.092
205.504	21.258	915.141	706.435
206.519	21.023	914.103	704.621
207.534	20.939	913.474	703.736
208.548	20.938	912.579	702.980
209.563	20.995	911.890	702.617
210.577	21.025	911.184	702.134
211.592	21.022	910.776	701.743
212.607	21.465	910.072	702.919
213.621	21.481	910.189	703.011
214.636	21.385	909.257	701.845
215.650	21.355	908.804	701.312
216.665	21.304	908.604	700.889
217.680	21.325	907.632	700.165
218.694	21.578	907.477	700.997
219.709	21.572	907.011	700.550
220.723	21.611	905.713	699.639
221.738	21.368	905.510	698.453
222.753	21.268	904.639	697.316
223.767	21.174	903.837	696.265
224.782	21.370	902.951	696.302
225.796	21.508	902.844	696.704
226.811	21.754	902.142	697.080
227.826	21.609	901.307	695.798
228.840	21.245	900.658	693.790
229.855	21.184	899.370	692.492
230.869	21.359	898.677	692.593
231.884	21.060	898.467	691.185
232.899	21.114	897.505	690.597
233.913	20.955	896.374	689.038
234.928	20.935	895.809	688.463
235.942	20.716	895.549	687.339
236.957	20.619	894.644	686.202
237.972	20.665	893.875	685.729
238.986	20.739	893.152	685.406
240.001	20.674	892.934	684.922
241.015	20.706	891.760	684.088
242.030	20.701	891.441	683.761
243.045	21.052	890.719	684.527
244.059	21.062	890.591	684.407
245.074	21.148	889.954	684.192
246.088	21.194	889.277	683.791
247.103	21.367	888.862	684.089
248.117	21.403	888.798	684.122
249.132	21.708	888.324	684.886
250.147	22.030	888.160	685.958
251.161	22.439	887.616	687.075
252.176	22.505	887.141	686.903
253.190	22.496	886.764	686.517
254.205	22.519	886.152	686.070
255.220	22.721	885.821	686.541
256.234	22.542	884.751	684.955
257.249	22.444	884.272	684.141
258.263	22.437	883.674	683.592
259.278	22.379	882.931	682.733
260.293	22.223	882.438	681.685
261.307	22.475	881.819	682.124
262.322	22.497	881.529	681.922
263.336	22.588	880.467	681.394
264.351	22.432	880.585	680.822
265.366	22.332	879.875	679.827
266.380	22.438	879.055	679.541
267.395	22.463	878.635	679.252
268.409	22.355	877.725	678.072
269.424	22.356	876.677	677.207
270.439	22.234	876.340	676.420
271.453	22.354	875.080	675.846
272.468	21.941	874.726	673.927
273.482	22.026	874.062	673.684
274.497	22.236	873.076	673.667
275.512	22.083	872.664	672.702
276.526	22.024	871.927	671.849
277.541	21.975	871.348	671.158
278.555	22.172	870.216	670.978
279.570	22.266	870.600	671.574
280.585	22.432	870.553	672.113
281.599	22.723	869.582	672.413
282.614	22.317	868.897	670.275
283.628	22.090	867.924	668.601
284.643	21.985	867.184	667.576
285.657	22.087	866.796	667.605
286.672	22.072	866.384	667.170
287.687	22.091	865.754	666.700
288.701	22.214	865.300	666.759
289.716	22.140	864.872	666.088
290.730	22.202	863.858	665.483
291.745	22.196	863.839	665.385
292.760	22.285	862.743	664.818
293.774	22.228	862.558	664.404
294.789	22.566	862.153	665.309
295.803	22.636	861.669	665.140
296.818	22.240	861.124	663.166
297.833	22.206	860.134	662.218
298.847	22.151	859.104	661.159
299.862	22.093	858.667	660.545
300.876	22.205	858.555	660.823
301.891	22.334	857.939	660.776
302.906	22.668	857.231	661.425
303.920	22.830	857.002	661.798
304.935	22.904	856.290	661.466
305.949	23.234	855.914	662.350
306.964	22.962	855.412	660.888
307.979	22.691	854.100	658.801
308.993	22.694	853.548	658.331
310.008	22.598	853.486	657.867
311.022	22.680	852.925	657.679
312.037	22.751	852.456	657.525
313.052	22.547	851.502	655.973
314.066	22.299	850.798	654.451
315.081	22.072	849.935	652.883
316.095	22.058	849.368	652.338
317.110	21.933	849.274	651.742
318.125	22.156	848.101	651.613
319.139	21.963	847.949	650.723
320.154	21.920	847.153	649.894
321.168	21.894	846.870	649.525
322.183	22.183	846.280	650.086
323.197	22.260	845.757	649.910
324.212	22.312	845.109	649.545
325.227	22.215	844.689	648.808
326.241	22.184	843.966	648.079
327.256	22.024	843.858	647.351
328.270	22.021	843.106	646.703
329.285	21.940	842.607	645.968
330.300	22.034	842.046	645.827
331.314	22.084	841.013	645.159
332.329	22.003	840.648	644.524
333.343	22.246	839.957	644.827
334.358	22.558	839.975	645.930
335.373	22.623	839.633	645.848
336.387	22.603	839.212	645.393
337.402	22.683	838.476	645.064
338.416	22.886	837.508	645.003
339.431	22.951	837.847	645.443
340.446	23.070	837.420	645.493
341.460	23.213	837.053	645.674
342.475	23.303	836.225	645.307
343.489	23.487	835.812	645.600
344.504	23.435	835.625	645.211
345.519	23.467	835.243	644.974
346.533	23.573	834.740	644.913
347.548	23.486	834.021	643.985
348.562	23.276	833.347	642.645
349.577	22.902	832.057	640.240
350.592	22.713	831.389	638.985
351.606	22.535	830.599	637.676
352.621	22.374	830.345	636.841
353.635	22.494	830.011	636.965
354.650	22.635	829.788	637.247
355.665	22.634	829.331	636.834
356.679	22.782	828.652	636.790
357.694	22.846	828.601	636.927
358.708	22.987	827.767	636.737
359.723	22.868	826.842	635.540
360.738	22.831	826.109	634.787
361.752	22.802	825.871	634.445
362.767	22.964	825.326	634.551
363.781	23.144	825.394	635.193
364.796	23.358	825.447	635.946
365.810	23.568	824.842	636.177
366.825	23.642	824.685	636.266
367.840	23.610	824.615	636.042
368.854	23.645	824.135	635.739
369.869	23.372	823.348	634.100
370.883	23.250	822.266	632.773
371.898	23.180	821.897	632.183
372.913	23.424	821.448	632.652
373.927	23.483	820.740	632.263
374.942	23.551	819.810	631.734
375.956	23.263	819.408	630.343
376.971	23.510	819.173	630.984
377.986	23.737	818.499	631.215
379.000	23.817	818.055	631.101
380.015	23.962	817.493	631.127
381.029	23.770	816.920	629.948
382.044	23.732	816.432	629.381
383.059	23.791	815.856	629.092
384.073	23.770	815.124	628.397
385.088	23.771	814.018	627.493
386.102	23.453	813.648	626.028
387.117	23.302	813.242	625.128
388.132	23.220	812.473	624.192
389.146	23.116	812.014	623.418
390.161	23.089	811.681	623.013
391.175	23.372	811.425	623.755
392.190	23.601	811.359	624.455
393.205	23.527	810.831	623.736
394.219	23.258	809.872	621.998
395.234	23.198	809.209	621.221
396.248	22.973	808.590	619.904
397.263	22.938	808.380	619.563
398.278	22.995	807.464	619.006
399.292	22.766	807.336	618.053
400.307	22.747	806.732	617.468
401.321	22.744	806.419	617.162
402.336	22.787	806.018	616.953
403.350	22.973	805.594	617.223
404.365	23.274	804.979	617.749
405.380	23.462	805.057	618.407
406.394	23.729	805.005	619.245
407.409	23.968	804.223	619.419
408.423	24.062	804.272	619.730
409.438	24.043	804.015	619.411
410.453	24.192	803.164	619.219
411.467	24.197	802.931	619.001
412.482	24.147	802.323	618.305
413.496	24.201	801.871	618.091
414.511	24.276	801.886	618.305
415.526	24.345	801.411	618.123
416.540	24.190	800.613	616.916
417.555	24.204	800.095	616.513
418.569	24.112	799.707	615.841
419.584	24.172	799.261	615.648
420.599	24.019	798.831	614.738
421.613	163.066	1371.476	1796.982
422.628	141.587	1454.888	1797.055
