DTS Sentinel unit serial number:	SN413079Multiplexer serial number:	ORYXHardware model number:	OX4-SRSoftware version number:	ORYX F/W v4.00 Oryx Data Collector v3.7.2.0data status	okinstallation	princeton_trtdifferential loss correction	single-endedforward channel	channel 3reverse channel	N/Adate	2019/09/11time	22:50:11forward acquisition time	60.00reverse acquisition time	0.00gamma	496.2192k internal	0.2316k external	0.2316temperature offset calibration	1.0046default loss term (dB/km)	0.3790temperature slope calibration	1.0000multiplexer offset coefficient	1.0000multiplexer slope coefficient	1.0000fibre end	0.00T internal ref (°C)	34.75T ext. ref 1 (°C)	1.83T ext. ref 2 (°C)	29.34length (m)	temperature (°C)	Stokes	anti-Stokes-747.200	-200.000	0.043	-0.405
-746.185	-6.187	0.301	0.208
-745.171	-89.378	-0.171	0.051
-744.156	-5.470	-0.138	-0.096
-743.142	460.552	-0.057	0.128
-742.127	759.399	0.146	0.402
-741.112	-119.752	0.174	-0.030
-740.098	370.149	-0.167	0.344
-739.083	-159.626	0.048	0.003
-738.069	-75.460	0.294	-0.106
-737.054	-93.159	0.339	0.096
-736.039	-2.583	0.064	-0.046
-735.025	9.912	0.202	-0.156
-734.010	-131.805	-0.161	0.021
-732.996	800.000	0.043	-0.129
-731.981	6.551	-0.177	0.133
-730.966	102.874	-0.130	-0.154
-729.952	356.281	0.088	-0.177
-728.937	659.901	-0.042	0.110
-727.923	-10.953	0.215	-0.144
-726.908	561.200	-0.060	-0.147
-725.894	-148.814	0.136	-0.011
-724.879	217.329	-0.059	-0.096
-723.864	554.867	0.070	0.170
-722.850	-200.000	0.031	-0.285
-721.835	15.978	-0.201	-0.161
-720.821	86.365	0.312	-0.348
-719.806	-156.629	0.268	-0.017
-718.791	14.680	0.087	0.069
-717.777	-127.801	0.083	-0.012
-716.762	-40.250	-0.287	-0.151
-715.748	168.903	0.102	-0.147
-714.733	-200.000	-0.016	-0.391
-713.718	94.345	-0.235	0.270
-712.704	518.344	0.041	0.097
-711.689	-185.935	0.357	-0.005
-710.675	-57.855	0.115	-0.051
-709.660	71.273	-0.048	0.050
-708.645	111.010	0.225	-0.274
-707.631	45.284	0.138	0.128
-706.616	-108.200	0.449	0.098
-705.602	319.754	-0.031	-0.060
-704.587	-111.866	-0.333	0.068
-703.572	-91.888	0.456	-0.131
-702.558	-121.008	-0.101	-0.017
-701.543	800.000	0.031	-0.130
-700.529	-115.033	-0.317	0.061
-699.514	-1.044	-0.281	-0.201
-698.499	-9.081	0.087	-0.059
-697.485	101.485	-0.277	-0.327
-696.470	33.206	0.196	0.172
-695.456	800.000	-0.084	-0.272
-694.441	-200.000	-0.124	0.592
-693.426	49.145	0.262	-0.249
-692.412	494.098	0.022	-0.051
-691.397	1.738	0.149	0.108
-690.383	-49.324	-0.063	0.031
-689.368	-50.008	0.072	0.034
-688.354	-197.733	-0.628	0.004
-687.339	391.332	0.082	0.173
-686.324	-26.808	-0.152	0.090
-685.310	486.478	0.136	-0.315
-684.295	-125.297	-0.281	0.043
-683.281	-200.000	0.009	0.207
-682.266	215.857	-0.077	-0.124
-681.251	-29.869	-0.176	0.101
-680.237	-83.129	0.347	-0.113
-679.222	62.366	0.181	0.182
-678.208	458.539	0.070	-0.156
-677.193	38.019	-0.169	-0.151
-676.178	-37.441	0.039	-0.021
-675.164	332.665	-0.006	0.012
-674.149	93.453	0.196	-0.225
-673.135	-176.970	0.163	0.004
-672.120	212.178	0.168	-0.267
-671.105	-200.000	0.015	0.243
-670.091	-26.555	0.368	-0.218
-669.076	580.934	0.061	-0.151
-668.062	-64.559	0.161	-0.066
-667.047	159.942	0.189	0.266
-666.032	50.684	-0.169	-0.161
-665.018	428.206	-0.043	-0.093
-664.003	800.000	0.019	-0.057
-662.989	3.033	0.258	0.190
-661.974	92.294	0.099	0.112
-660.959	-200.000	-0.006	0.200
-659.945	112.071	-0.190	0.232
-658.930	104.062	-0.294	-0.349
-657.916	-13.718	0.027	-0.018
-656.901	332.101	-0.017	-0.034
-655.886	-117.756	-0.095	-0.017
-654.872	2.968	-0.272	0.200
-653.857	-193.627	0.344	-0.003
-652.843	-54.634	0.231	-0.105
-651.828	-200.000	-0.002	-0.046
-650.814	-108.397	-0.104	0.023
-649.799	-67.256	0.162	0.064
-648.784	54.754	-0.034	0.033
-647.770	769.068	-0.134	-0.368
-646.755	84.022	-0.196	-0.216
-645.741	-26.462	0.040	-0.024
-644.726	5.601	-0.331	0.247
-643.711	76.527	0.170	-0.182
-642.697	-200.000	-0.010	0.187
-641.682	-65.759	-0.235	-0.095
-640.668	62.350	0.180	0.181
-639.653	-178.024	0.297	-0.007
-638.638	-200.000	-0.020	-0.217
-637.624	256.552	-0.191	0.331
-636.609	800.000	0.090	-0.262
-635.595	196.003	0.050	0.077
-634.580	60.149	-0.171	-0.170
-633.565	185.737	-0.053	-0.079
-632.551	-200.000	-0.004	0.114
-631.536	22.384	-0.105	0.086
-630.522	-136.072	0.140	0.017
-629.507	-200.000	0.008	0.305
-628.492	195.396	-0.125	0.192
-627.478	-100.621	-0.259	0.065
-626.463	-200.000	-0.029	0.200
-625.449	-200.000	-0.079	-0.000
-624.434	-43.012	0.026	0.013
-623.419	287.807	-0.073	-0.134
-622.405	7.911	-0.100	-0.076
-621.390	-64.644	-0.373	-0.152
-620.376	-153.877	0.185	-0.013
-619.361	800.000	0.016	-0.070
-618.346	800.000	-0.070	-0.250
-617.332	406.618	0.147	-0.314
-616.317	-32.518	-0.099	-0.055
-615.303	-105.390	0.164	0.038
-614.288	-95.330	-0.290	0.079
-613.273	191.898	0.247	0.375
-612.259	-200.000	0.082	0.484
-611.244	-21.418	0.253	0.156
-610.230	263.272	0.076	-0.134
-609.215	358.839	0.094	0.190
-608.201	-152.536	0.317	0.023
-607.186	36.490	-0.419	0.373
-606.171	-200.000	0.007	0.135
-605.157	12.386	0.527	0.409
-604.142	409.511	-0.054	-0.116
-603.128	385.192	-0.060	-0.124
-602.113	-63.919	0.223	-0.092
-601.098	158.499	0.159	0.222
-600.084	4.587	-0.187	-0.138
-599.069	-200.000	0.012	0.192
-598.055	1.596	-0.099	0.072
-597.040	-63.578	0.283	-0.117
-596.025	-200.000	0.021	0.189
-595.011	7.394	0.133	-0.100
-593.996	-96.724	-0.154	-0.041
-592.982	247.053	-0.113	-0.193
-591.967	-143.529	0.063	0.006
-590.952	-110.221	0.165	0.035
-589.938	563.153	0.122	-0.297
-588.923	-200.000	0.048	-0.268
-587.909	-200.000	-0.014	0.127
-586.894	167.434	0.170	0.244
-585.879	-73.744	-0.221	-0.081
-584.865	-200.000	-0.014	-0.339
-583.850	-78.417	-0.189	0.065
-582.836	33.549	0.278	-0.243
-581.821	-144.205	0.073	0.007
-580.806	367.318	-0.124	-0.252
-579.792	-64.828	0.280	0.114
-578.777	-70.014	0.168	0.064
-577.763	-200.000	-0.035	0.289
-576.748	-40.059	-0.102	-0.054
-575.733	-200.000	0.017	0.124
-574.719	-200.000	0.002	-0.144
-573.704	800.000	-0.054	-0.177
-572.690	657.098	0.108	0.278
-571.675	800.000	-0.046	0.135
-570.661	-90.498	0.215	-0.063
-569.646	303.210	-0.086	0.161
-568.631	800.000	-0.043	-0.171
-567.617	397.308	0.269	-0.566
-566.602	800.000	-0.048	0.191
-565.588	800.000	0.053	0.230
-564.573	-200.000	0.024	0.383
-563.558	-175.638	-0.180	-0.005
-562.544	800.000	-0.050	-0.154
-561.529	800.000	0.035	0.098
-560.515	15.187	-0.282	0.222
-559.500	133.349	-0.127	-0.165
-558.485	-90.982	-0.211	0.061
-557.471	272.237	0.187	-0.333
-556.456	-200.000	0.003	0.140
-555.442	-180.687	-0.036	0.001
-554.427	800.000	0.111	0.352
-553.412	65.751	-0.133	0.135
-552.398	-200.000	-0.044	0.197
-551.383	-200.000	0.034	-0.301
-550.369	32.403	0.036	-0.031
-549.354	-28.888	-0.017	-0.010
-548.339	800.000	0.096	-0.405
-547.325	-60.680	0.121	0.052
-546.310	-90.556	-0.408	0.119
-545.296	-99.984	0.090	-0.023
-544.281	12.706	0.107	0.083
-543.266	287.435	0.061	0.111
-542.252	40.688	-0.065	-0.059
-541.237	65.381	0.211	-0.215
-540.223	-48.753	-0.123	-0.059
-539.208	-23.831	0.298	-0.180
-538.193	29.705	0.154	-0.132
-537.179	-53.236	0.348	-0.160
-536.164	-72.458	-0.158	-0.059
-535.150	519.285	-0.091	-0.214
-534.135	800.000	-0.035	-0.149
-533.121	246.104	0.058	-0.098
-532.106	4.023	-0.262	-0.192
-531.091	-200.000	0.051	-0.375
-530.077	42.077	-0.218	-0.199
-529.062	139.605	-0.148	-0.195
-528.048	800.000	-0.075	0.219
-527.033	800.000	0.053	0.174
-526.018	203.044	0.057	0.089
-525.004	800.000	-0.093	0.330
-523.989	427.327	-0.053	-0.116
-522.975	257.512	-0.121	-0.209
-521.960	412.809	-0.073	-0.156
-520.945	-119.268	-0.267	-0.047
-519.931	-57.979	0.123	-0.054
-518.916	27.038	0.086	0.072
-517.902	800.000	0.116	-0.421
-516.887	138.048	-0.093	-0.122
-515.872	276.580	-0.117	0.210
-514.858	800.000	0.049	0.187
-513.843	108.677	-0.131	0.157
-512.829	28.188	-0.138	-0.117
-511.814	227.937	-0.218	0.357
-510.799	66.505	0.115	-0.118
-509.785	677.149	0.177	0.463
-508.770	245.620	0.127	0.215
-507.756	-12.817	-0.139	-0.091
-506.741	-157.989	-0.233	0.014
-505.726	-115.858	-0.069	0.013
-504.712	-74.079	0.168	-0.061
-503.697	-200.000	-0.036	-0.288
-502.683	209.064	-0.073	-0.114
-501.668	-200.000	-0.004	-0.026
-500.653	-200.000	0.019	0.249
-499.639	-15.929	0.125	-0.080
-498.624	156.492	-0.239	0.331
-497.610	528.620	0.161	0.382
-496.595	637.190	0.079	0.201
-495.581	92.069	0.181	0.204
-494.566	-68.836	0.276	-0.107
-493.551	39.711	0.083	-0.075
-492.537	55.574	0.162	-0.157
-491.522	-200.000	-0.028	-0.516
-490.508	-0.633	-0.149	0.106
-489.493	-200.000	-0.014	-0.089
-488.478	-26.892	0.237	0.139
-487.464	-9.513	-0.285	0.191
-486.449	100.768	-0.160	0.186
-485.435	-200.000	-0.052	0.234
-484.420	-78.633	0.153	-0.052
-483.405	-121.975	0.118	-0.019
-482.391	108.992	-0.131	0.157
-481.376	-36.787	0.294	-0.158
-480.362	-200.000	0.019	0.258
-479.347	483.318	-0.104	0.237
-478.332	-16.186	-0.068	-0.044
-477.318	363.062	-0.077	-0.155
-476.303	258.680	-0.130	-0.225
-475.289	800.000	-0.055	0.200
-474.274	-50.351	0.372	0.176
-473.259	20.982	-0.176	-0.143
-472.245	-200.000	0.037	-0.361
-471.230	-25.463	0.118	0.070
-470.216	-200.000	0.002	-0.090
-469.201	82.131	0.070	-0.076
-468.186	577.626	-0.141	0.345
-467.172	-124.453	-0.124	-0.019
-466.157	34.997	-0.182	-0.160
-465.143	137.811	-0.235	-0.308
-464.128	140.505	0.169	0.223
-463.113	-113.958	0.434	-0.084
-462.099	799.491	-0.054	0.148
-461.084	-160.117	0.096	0.005
-460.070	-8.418	0.036	-0.024
-459.055	-26.385	-0.250	0.147
-458.040	-91.424	-0.157	-0.045
-457.026	-131.528	0.232	0.031
-456.011	800.000	-0.072	0.252
-454.997	-155.519	0.290	0.019
-453.982	800.000	-0.035	0.137
-452.968	-60.993	-0.174	-0.074
-451.953	97.787	0.240	0.276
-450.938	-110.161	-0.622	0.130
-449.924	330.386	-0.064	-0.124
-448.909	-200.000	-0.019	-0.487
-447.895	-197.454	0.191	-0.001
-446.880	-200.000	0.012	0.272
-445.865	120.550	-0.051	0.064
-444.851	198.474	0.173	-0.265
-443.836	56.091	-0.127	-0.124
-442.822	-200.000	0.001	0.252
-441.807	-105.995	-0.241	-0.054
-440.792	-162.158	-0.118	-0.006
-439.778	538.590	0.073	-0.173
-438.763	-200.000	0.021	0.251
-437.749	-153.927	-0.328	0.022
-436.734	7.148	-0.185	0.138
-435.719	800.000	0.014	0.040
-434.705	68.996	-0.235	0.242
-433.690	66.397	0.122	0.124
-432.676	-110.937	0.587	0.121
-431.661	-13.613	-0.128	0.083
-430.646	129.072	-0.090	0.115
-429.632	15.508	-0.150	-0.118
-428.617	114.387	0.115	-0.141
-427.603	379.240	0.054	0.111
-426.588	-200.000	0.023	0.138
-425.573	800.000	-0.046	0.170
-424.559	-149.980	0.364	0.028
-423.544	271.192	-0.056	0.099
-422.530	13.073	0.142	0.110
-421.515	12.605	-0.059	0.045
-420.500	-129.201	0.251	-0.035
-419.486	49.847	-0.178	0.168
-418.471	-115.264	0.321	-0.061
-417.457	-83.051	0.213	-0.069
-416.442	410.212	-0.114	-0.241
-415.428	705.920	0.069	0.182
-414.413	374.941	0.152	0.310
-413.398	60.165	-0.281	0.278
-412.384	-61.940	0.243	-0.102
-411.369	154.885	0.136	-0.186
-410.355	-169.517	-0.122	-0.004
-409.340	-45.986	0.226	-0.111
-408.325	800.000	0.061	-0.210
-407.311	71.688	-0.099	-0.103
-406.296	-123.930	-0.211	-0.033
-405.282	-41.299	0.262	0.135
-404.267	-164.947	-0.216	0.010
-403.252	187.851	-0.042	-0.063
-402.238	800.000	-0.046	-0.149
-401.223	-126.054	-0.105	0.016
-400.209	-113.267	0.097	-0.019
-399.194	800.000	-0.014	0.045
-398.179	-200.000	-0.005	-0.088
-397.165	-95.379	0.251	0.067
-396.150	-24.715	-0.152	0.090
-395.136	-1.961	0.284	0.199
-394.121	-40.775	-0.212	-0.110
-393.106	-200.000	-0.018	-0.238
-392.092	156.632	0.076	-0.105
-391.077	-162.332	0.149	0.007
-390.063	-200.000	-0.013	-0.191
-389.048	-21.986	0.352	0.213
-388.033	-129.494	0.333	0.046
-387.019	-155.163	-0.237	0.015
-386.004	106.209	0.064	0.076
-384.990	499.604	-0.094	-0.216
-383.975	703.211	-0.083	-0.218
-382.960	-200.000	-0.046	-0.230
-381.946	312.917	-0.064	-0.120
-380.931	-72.190	-0.077	-0.029
-379.917	-137.669	-0.123	-0.014
-378.902	457.198	0.123	-0.273
-377.888	-200.000	0.003	0.368
-376.873	-87.062	-0.134	0.041
-375.858	2.303	-0.199	0.144
-374.844	-119.631	0.230	0.040
-373.829	-200.000	0.060	0.331
-372.815	496.494	0.072	-0.165
-371.800	-174.739	0.347	0.010
-370.785	-18.779	-0.188	-0.117
-369.771	-40.456	0.147	0.076
-368.756	49.474	-0.098	0.093
-367.742	-75.048	-0.157	0.056
-366.727	131.348	0.006	-0.007
-365.712	-97.273	-0.051	0.013
-364.698	-87.797	-0.407	-0.122
-363.683	-73.650	-0.249	-0.090
-362.669	-165.752	-0.121	-0.005
-361.654	44.583	0.200	-0.183
-360.639	277.896	-0.070	-0.124
-359.625	-74.856	0.368	0.132
-358.610	178.400	-0.045	0.066
-357.596	125.878	-0.094	-0.119
-356.581	800.000	-0.042	0.142
-355.566	29.323	-0.220	0.187
-354.552	-200.000	0.049	-0.303
-353.537	-27.626	0.344	-0.199
-352.523	-17.384	-0.201	-0.126
-351.508	223.915	-0.111	-0.178
-350.493	-74.939	-0.261	0.093
-349.479	376.634	0.181	0.368
-348.464	83.458	-0.199	0.217
-347.450	51.465	0.120	-0.113
-346.435	-62.792	0.120	0.049
-345.420	-162.052	0.059	-0.003
-344.406	1.574	0.164	-0.118
-343.391	800.000	-0.038	0.152
-342.377	29.708	-0.199	0.169
-341.362	-200.000	-0.018	-0.317
-340.348	458.182	0.063	-0.140
-339.333	-115.017	0.286	0.054
-338.318	-127.075	-0.382	-0.056
-337.304	181.634	0.192	-0.282
-336.289	272.334	0.191	-0.335
-335.275	547.164	-0.126	-0.300
-334.260	-99.617	-0.249	-0.062
-333.245	800.000	0.047	0.149
-332.231	-200.000	0.029	-0.164
-331.216	246.200	0.093	-0.157
-330.202	34.169	-0.152	-0.132
-329.187	606.178	-0.129	-0.320
-328.172	230.704	0.225	-0.367
-327.158	-54.839	0.304	0.137
-326.143	278.758	-0.093	0.165
-325.129	-200.000	-0.019	0.351
-324.114	30.430	-0.226	-0.193
-323.099	-39.639	-0.069	0.036
-322.085	-57.596	-0.217	0.095
-321.070	62.147	-0.196	-0.195
-320.056	-200.000	-0.087	-0.518
-319.041	47.037	0.140	0.130
-318.026	-172.472	0.310	-0.010
-317.012	-200.000	-0.033	-0.167
-315.997	-139.814	-0.205	0.022
-314.983	-100.631	0.414	-0.102
-313.968	127.249	0.074	0.093
-312.953	800.000	0.051	-0.151
-311.939	-152.387	0.176	-0.013
-310.924	-165.657	-0.045	-0.002
-309.910	633.385	0.078	0.197
-308.895	-200.000	0.047	-0.231
-307.880	97.026	0.117	-0.134
-306.866	800.000	0.048	-0.153
-305.851	-60.122	-0.320	0.136
-304.837	-169.454	0.208	-0.008
-303.822	148.730	0.071	-0.096
-302.807	-200.000	0.036	-0.222
-301.793	-83.092	0.070	0.022
-300.778	609.899	-0.143	-0.356
-299.764	167.215	0.097	-0.138
-298.749	141.820	-0.181	-0.239
-297.735	485.204	-0.076	0.172
-296.720	-53.909	-0.413	-0.188
-295.705	17.874	-0.087	-0.069
-294.691	800.000	0.107	0.408
-293.676	-200.000	0.081	-0.484
-292.662	27.772	-0.113	-0.095
-291.647	120.677	-0.254	-0.314
-290.632	266.829	-0.238	0.414
-289.618	-66.902	0.132	-0.052
-288.603	259.595	0.231	0.398
-287.589	800.000	-0.047	-0.184
-286.574	-61.540	0.215	-0.090
-285.559	-23.124	0.263	-0.157
-284.545	-100.796	0.259	0.064
-283.530	800.000	0.037	-0.133
-282.516	-45.502	-0.031	-0.015
-281.501	-200.000	0.014	-0.084
-280.486	51.136	-0.203	0.192
-279.472	370.290	0.102	0.206
-278.457	324.434	-0.041	0.078
-277.443	82.972	-0.201	0.217
-276.428	-95.983	-0.083	0.022
-275.413	-56.376	0.196	-0.087
-274.399	-86.922	-0.169	0.051
-273.384	-6.447	0.091	0.062
-272.370	800.000	-0.023	0.090
-271.355	352.734	0.059	-0.116
-270.340	-200.000	0.007	0.080
-269.326	43.490	0.232	-0.211
-268.311	-2.113	-0.162	-0.113
-267.297	-200.000	0.053	0.271
-266.282	800.000	0.093	-0.330
-265.267	126.450	0.152	0.191
-264.253	-47.563	-0.269	0.130
-263.238	483.889	-0.053	0.119
-262.224	-200.000	0.004	0.045
-261.209	178.652	0.166	0.241
-260.195	800.000	0.030	-0.114
-259.180	73.752	0.082	-0.085
-258.165	-200.000	0.018	-0.123
-257.151	-62.727	-0.169	-0.070
-256.136	193.864	-0.092	-0.138
-255.122	-200.000	0.018	-0.333
-254.107	-41.918	0.143	0.073
-253.092	-200.000	0.028	-0.158
-252.078	72.237	-0.115	0.119
-251.063	-29.824	-0.157	-0.089
-250.049	307.003	0.119	0.220
-249.034	-60.667	0.183	0.077
-248.019	-90.721	-0.183	0.052
-247.005	435.534	-0.084	0.181
-245.990	45.286	-0.090	-0.083
-244.976	170.654	-0.040	0.056
-243.961	-172.044	-0.125	0.004
-242.946	-200.000	-0.027	0.179
-241.932	-12.901	0.328	-0.212
-240.917	97.246	-0.063	0.071
-239.903	24.365	-0.139	-0.114
-238.888	-169.243	-0.388	0.014
-237.873	-107.545	0.015	-0.003
-236.859	-200.000	0.021	0.151
-235.844	-142.452	0.315	-0.031
-234.830	-200.000	0.002	0.108
-233.815	120.832	0.285	-0.352
-232.800	-40.320	0.158	-0.082
-231.786	241.200	-0.171	0.283
-230.771	265.747	0.117	0.203
-229.757	23.984	0.084	0.069
-228.742	42.514	0.066	0.060
-227.727	49.724	0.118	0.110
-226.713	9.053	-0.231	0.173
-225.698	521.359	-0.157	0.365
-224.684	-135.751	-0.364	0.043
-223.669	-101.485	-0.220	0.053
-222.655	175.529	-0.182	0.262
-221.640	167.534	-0.080	-0.113
-220.625	-200.000	0.038	0.345
-219.611	-165.493	0.171	-0.007
-218.596	-200.000	0.041	-0.348
-217.582	68.663	0.266	-0.271
-216.567	-9.459	0.378	0.251
-215.552	-20.848	-0.125	0.076
-214.538	800.000	0.024	-0.089
-213.523	133.635	0.090	0.116
-212.509	486.345	-0.265	-0.600
-211.494	-89.645	0.168	0.049
-210.479	3.836	0.131	0.095
-209.465	-52.273	-0.133	-0.061
-208.450	-159.633	0.349	-0.019
-207.436	119.773	-0.191	-0.235
-206.421	237.535	-0.085	0.140
-205.406	39.806	-0.124	-0.111
-204.392	-139.547	-0.118	-0.012
-203.377	800.000	0.053	0.186
-202.363	-151.931	0.127	0.009
-201.348	-127.533	-0.298	-0.043
-200.333	49.620	0.280	0.261
-199.319	111.496	-0.187	0.224
-198.304	160.342	0.184	0.255
-197.290	-22.548	-0.158	0.095
-196.275	28.188	0.007	-0.006
-195.260	-95.102	0.279	-0.075
-194.246	-0.411	-0.028	-0.019
-193.231	-27.702	0.225	0.129
-192.217	-200.000	0.004	0.131
-191.202	96.493	0.055	-0.062
-190.187	-125.738	-0.290	-0.044
-189.173	16.777	0.198	-0.155
-188.158	-65.517	0.121	-0.048
-187.144	224.347	0.148	-0.237
-186.129	-69.719	0.241	-0.091
-185.114	281.595	-0.181	-0.322
-184.100	245.864	0.090	-0.151
-183.085	-136.719	-0.329	0.038
-182.071	610.280	0.101	0.249
-181.056	24.934	0.070	-0.058
-180.042	-81.829	0.124	-0.040
-179.027	-28.035	-0.131	0.075
-178.012	-16.989	0.300	-0.188
-176.998	-49.218	-0.302	0.143
-175.983	-200.000	-0.011	-0.060
-174.969	-146.681	-0.369	0.032
-173.954	9.274	-0.351	0.263
-172.939	800.000	0.095	-0.291
-171.925	-140.538	-0.258	0.027
-170.910	53.940	0.180	-0.172
-169.896	-176.538	-0.058	0.001
-168.881	-66.060	-0.124	0.049
-167.866	-200.000	0.024	0.138
-166.852	800.000	0.092	0.315
-165.837	50.248	-0.261	0.244
-164.823	165.451	-0.184	0.257
-163.808	668.101	0.158	0.405
-162.793	-38.724	0.128	-0.067
-161.779	800.000	-0.138	-0.389
-160.764	59.077	-0.428	-0.417
-159.750	90.340	0.081	-0.090
-158.735	237.655	-0.158	0.259
-157.720	15.347	0.124	-0.097
-156.706	-200.000	-0.016	0.197
-155.691	800.000	0.065	-0.225
-154.677	21.224	-0.163	0.131
-153.662	800.000	0.164	0.488
-152.647	-88.688	-0.252	0.074
-151.633	-105.104	0.319	-0.072
-150.618	-55.699	0.143	-0.063
-149.604	211.714	0.136	-0.211
-148.589	-110.958	-0.036	0.007
-147.574	-182.936	-0.302	0.005
-146.560	-27.271	-0.140	0.081
-145.545	109.478	-0.177	0.210
-144.531	589.014	-0.079	0.193
-143.516	-68.588	0.125	-0.048
-142.502	87.219	0.183	0.200
-141.487	91.893	-0.093	0.103
-140.472	-200.000	0.015	-0.115
-139.458	444.318	-0.114	-0.247
-138.443	800.000	0.062	-0.204
-137.429	-113.488	-0.224	0.043
-136.414	263.845	0.158	0.273
-135.399	-200.000	-0.009	0.208
-134.385	-200.000	0.001	-0.167
-133.370	-200.000	-0.026	0.256
-132.356	290.053	-0.101	-0.181
-131.341	162.960	-0.085	0.118
-130.326	70.969	0.179	-0.184
-129.312	-186.977	-0.239	0.003
-128.297	53.176	-0.112	-0.106
-127.283	-200.000	-0.025	-0.121
-126.268	-122.929	0.172	0.027
-125.253	-93.727	0.132	0.036
-124.239	800.000	-0.071	-0.221
-123.224	-99.685	0.108	-0.027
-122.210	75.401	-0.144	-0.150
-121.195	-108.389	0.155	0.033
-120.180	-12.962	0.107	-0.069
-119.166	317.628	-0.084	0.156
-118.151	358.671	0.073	0.144
-117.137	-150.990	0.197	-0.015
-116.122	3.727	-0.103	-0.074
-115.107	-125.639	-0.137	-0.020
-114.093	-10.458	-0.283	-0.185
-113.078	-27.903	-0.235	-0.135
-112.064	143.212	0.148	-0.195
-111.049	-200.000	0.042	-0.260
-110.034	800.000	-0.024	-0.075
-109.020	180.858	-0.146	-0.211
-108.005	-12.690	-0.212	0.137
-106.991	1.844	0.026	0.018
-105.976	-98.192	0.263	-0.067
-104.962	-4.506	-0.194	-0.133
-103.947	216.495	-0.064	-0.100
-102.932	46.984	0.172	-0.158
-101.918	-94.793	-0.159	-0.043
-100.903	-54.996	0.096	-0.043
-99.889	-100.096	0.161	0.040
-98.874	76.429	0.219	-0.229
-97.859	73.707	-0.157	0.162
-96.845	-0.411	0.120	0.084
-95.830	-85.840	0.341	-0.104
-94.816	68.580	0.034	0.034
-93.801	66.573	-0.105	-0.105
-92.786	-200.000	-0.006	0.075
-91.772	130.000	-0.136	0.172
-90.757	-124.138	-0.170	-0.026
-89.743	800.000	0.074	-0.278
-88.728	-200.000	0.004	-0.070
-87.713	90.089	-0.195	-0.215
-86.699	512.170	0.049	0.113
-85.684	143.716	-0.086	0.113
-84.670	-94.663	-0.113	-0.030
-83.655	51.789	-0.189	-0.177
-82.640	-47.257	0.222	0.107
-81.626	-15.085	-0.193	0.122
-80.611	800.000	0.022	-0.093
-79.597	800.000	0.081	-0.319
-78.582	-120.048	-0.106	0.018
-77.567	800.000	0.077	0.247
-76.553	-51.170	0.269	-0.125
-75.538	-154.684	-0.034	0.002
-74.524	-95.572	0.195	-0.052
-73.509	-148.397	0.224	-0.018
-72.494	-145.874	0.100	0.009
-71.480	-200.000	0.003	-0.271
-70.465	-77.542	-0.079	-0.027
-69.451	-200.000	0.009	0.148
-68.436	70.155	0.300	0.306
-67.422	16.861	-0.058	-0.045
-66.407	-200.000	-0.030	-0.246
-65.392	-58.343	0.203	0.087
-64.378	-65.451	0.201	0.080
-63.363	800.000	-0.136	0.404
-62.349	-200.000	-0.013	0.177
-61.334	7.127	-0.914	-0.673
-60.319	14.729	0.576	0.444
-59.305	-200.000	-0.046	-1.166
-58.290	800.000	0.258	0.961
-57.276	-200.000	0.392	1.725
-56.261	-200.000	97.747	590.554
-55.246	564.568	1383.324	3305.788
-54.232	154.033	2583.811	3494.364
-53.217	115.520	2178.113	2625.311
-52.203	45.452	1715.070	1561.079
-51.188	37.929	1527.500	1338.901
-50.173	35.463	1500.698	1298.699
-49.159	55.468	1551.865	1481.026
-48.144	59.229	1571.098	1525.156
-47.130	38.241	1525.353	1338.945
-46.115	34.949	1509.748	1302.825
-45.100	34.774	1506.392	1298.685
-44.086	34.838	1505.124	1297.978
-43.071	34.724	1503.385	1295.652
-42.057	34.721	1501.148	1293.654
-41.042	34.683	1500.057	1292.402
-40.027	34.786	1498.733	1291.909
-39.013	34.819	1496.783	1290.397
-37.998	34.733	1496.084	1289.163
-36.984	34.671	1494.935	1287.703
-35.969	34.729	1493.383	1286.705
-34.954	34.795	1491.727	1285.672
-33.940	34.758	1490.349	1284.190
-32.925	34.760	1489.150	1283.115
-31.911	34.766	1488.191	1282.281
-30.896	34.858	1486.587	1281.464
-29.881	34.813	1485.115	1279.844
-28.867	34.780	1483.754	1278.394
-27.852	34.773	1482.331	1277.076
-26.838	34.803	1481.225	1276.270
-25.823	34.775	1479.732	1274.749
-24.809	34.746	1478.304	1273.275
-23.794	34.746	1476.829	1271.952
-22.779	34.800	1475.346	1270.984
-21.765	34.777	1474.237	1269.828
-20.750	34.830	1473.387	1269.394
-19.736	34.728	1472.605	1267.993
-18.721	34.805	1471.020	1267.089
-17.706	34.774	1470.327	1266.233
-16.692	34.750	1469.230	1265.081
-15.677	34.682	1468.429	1263.895
-14.663	34.769	1467.073	1263.252
-13.648	34.727	1466.309	1262.263
-12.633	34.726	1465.477	1261.492
-11.619	34.767	1464.225	1260.632
-10.604	34.711	1463.436	1259.537
-9.590	34.681	1463.012	1258.922
-8.575	34.704	1462.022	1258.171
-7.560	34.760	1460.956	1257.573
-6.546	34.798	1459.687	1256.684
-5.531	34.634	1459.450	1255.348
-4.517	34.684	1458.375	1254.706
-3.502	34.720	1457.208	1253.889
-2.487	34.794	1456.084	1253.356
-1.473	34.694	1455.265	1251.945
-0.458	34.752	1453.760	1250.978
0.556	34.858	1444.342	1239.779
1.571	31.950	1418.591	1199.018
2.586	28.618	1358.427	1127.628
3.600	26.924	1277.365	1050.447
4.615	25.412	1231.123	1003.892
5.629	21.582	1173.541	936.408
6.644	11.215	1086.334	815.146
7.659	3.021	1042.979	743.059
8.673	2.040	1037.308	734.234
9.688	1.823	1033.964	730.763
10.702	1.695	1032.687	729.182
11.717	1.773	1030.700	728.086
12.731	5.380	1035.135	748.448
13.746	15.404	1049.285	807.046
14.761	23.048	1059.280	851.630
15.775	24.760	1060.458	860.746
16.790	24.863	1060.034	860.823
17.804	24.740	1059.033	859.341
18.819	24.504	1058.649	857.823
19.834	24.748	1057.528	858.005
20.848	24.759	1057.261	857.766
21.863	24.761	1057.067	857.544
22.877	24.862	1056.729	857.675
23.892	24.884	1056.121	857.215
24.907	24.667	1055.104	855.273
25.921	24.815	1054.342	855.290
26.936	24.689	1053.900	854.253
27.950	24.740	1052.668	853.421
28.965	24.729	1051.263	852.155
29.980	24.562	1050.151	850.381
30.994	24.637	1048.444	849.282
32.009	24.718	1048.132	849.339
33.023	24.826	1047.482	849.247
34.038	24.586	1046.274	847.055
35.053	24.680	1045.276	846.619
36.067	24.839	1045.004	847.078
37.082	24.820	1043.931	846.044
38.096	24.815	1043.714	845.769
39.111	24.945	1042.691	845.476
40.126	25.064	1041.891	845.316
41.140	25.003	1040.405	843.746
42.155	24.739	1039.369	841.591
43.169	24.347	1038.295	838.803
44.184	24.393	1036.750	837.697
45.199	24.507	1035.769	837.367
46.213	24.431	1035.025	836.335
47.228	24.257	1034.719	835.195
48.242	24.511	1033.476	835.309
49.257	24.649	1032.354	834.973
50.271	24.717	1031.967	834.905
51.286	24.816	1031.361	834.801
52.301	24.785	1030.644	834.002
53.315	24.852	1029.817	833.571
54.330	24.911	1028.890	833.022
55.344	24.605	1028.422	831.144
56.359	24.686	1027.687	830.853
57.374	24.744	1026.382	829.995
58.388	24.618	1025.595	828.701
59.403	24.455	1025.239	827.583
60.417	24.531	1024.376	827.165
61.432	24.466	1023.566	826.138
62.447	24.492	1022.976	825.708
63.461	24.452	1022.528	825.090
64.476	24.549	1021.364	824.524
65.490	24.610	1020.348	823.913
66.505	24.587	1019.306	822.893
67.520	24.399	1019.188	821.858
68.534	24.583	1018.125	821.775
69.549	24.508	1016.780	820.271
70.563	24.028	1016.058	817.414
71.578	24.064	1015.053	816.697
72.593	24.053	1014.446	816.088
73.607	23.850	1013.261	814.132
74.622	24.038	1012.086	813.977
75.636	24.157	1011.750	814.178
76.651	24.293	1011.406	814.448
77.666	24.300	1009.939	813.229
78.680	24.155	1009.265	811.952
79.695	24.210	1008.438	811.465
80.709	24.332	1008.292	811.833
81.724	24.377	1007.425	811.267
82.739	24.316	1006.383	810.078
83.753	24.343	1005.876	809.723
84.768	24.637	1005.047	810.318
85.782	24.824	1004.703	810.813
86.797	25.142	1003.720	811.387
87.812	24.972	1003.195	810.124
88.826	24.907	1001.932	808.737
89.841	24.979	1001.030	808.267
90.855	25.076	1000.442	808.155
91.870	24.957	1000.145	807.306
92.884	24.907	999.310	806.335
93.899	24.936	998.013	805.347
94.914	24.689	997.296	803.590
95.928	24.884	996.768	803.969
96.943	24.994	995.614	803.462
97.957	24.763	994.358	801.338
98.972	24.368	993.584	798.876
99.987	24.210	992.699	797.387
101.001	24.495	991.613	797.720
102.016	24.610	991.668	798.206
103.030	24.731	990.462	797.706
104.045	24.637	989.578	796.504
105.060	24.563	988.351	795.115
106.074	24.369	987.192	793.248
107.089	24.438	986.638	793.042
108.103	24.690	986.402	793.900
109.118	24.837	985.216	793.530
110.133	24.435	984.396	791.018
111.147	24.494	982.846	789.961
112.162	24.476	982.108	789.220
113.176	24.111	981.155	786.773
114.191	24.273	980.492	786.886
115.206	24.454	979.470	786.796
116.220	24.057	978.380	784.099
117.235	24.072	977.360	783.280
118.249	24.163	977.242	783.518
119.264	24.190	976.091	782.640
120.279	24.144	975.281	781.721
121.293	24.141	974.516	781.025
122.308	24.282	973.933	781.108
123.322	24.353	972.833	780.469
124.337	24.171	971.866	778.828
125.352	24.065	970.459	777.167
126.366	23.733	968.657	774.207
127.381	23.375	967.673	771.793
128.395	23.827	967.883	773.864
129.410	24.543	967.127	776.302
130.424	24.669	966.896	776.597
131.439	24.752	965.647	775.887
132.454	24.693	964.316	774.492
133.468	24.591	964.011	773.734
134.483	24.430	963.374	772.460
135.497	24.619	962.396	772.425
136.512	24.821	961.746	772.707
137.527	24.841	961.240	772.319
138.541	24.770	960.758	771.556
139.556	24.802	960.071	771.075
140.570	24.784	958.876	769.969
141.585	24.942	957.848	769.754
142.600	25.015	957.767	769.936
143.614	24.899	956.060	767.997
144.629	25.025	955.650	768.138
145.643	25.208	955.110	768.419
146.658	25.185	953.645	767.076
147.673	25.046	952.463	765.466
148.687	24.987	951.062	764.018
149.702	24.880	950.124	762.742
150.716	24.652	949.570	761.258
151.731	24.630	948.725	760.419
152.746	24.702	948.169	760.213
153.760	24.916	947.453	760.482
154.775	25.028	946.684	760.273
155.789	25.049	945.701	759.505
156.804	25.033	944.789	758.639
157.819	24.991	943.965	757.732
158.833	25.141	942.940	757.473
159.848	24.994	943.135	756.944
160.862	25.255	941.885	756.973
161.877	25.061	941.014	755.390
162.892	24.991	939.994	754.210
163.906	24.955	939.359	753.481
164.921	24.982	938.264	752.648
165.935	25.046	937.090	751.911
166.950	25.077	936.016	751.112
167.964	24.943	935.512	750.079
168.979	25.087	934.239	749.595
169.994	24.963	932.928	747.958
171.008	24.840	932.151	746.755
172.023	25.049	931.302	746.880
173.037	25.159	930.849	746.910
174.052	24.960	929.641	745.047
175.067	24.833	928.644	743.654
176.081	24.818	928.015	743.022
177.096	24.743	927.594	742.309
178.110	24.806	926.970	742.003
179.125	24.714	925.255	740.186
180.140	24.365	924.547	738.110
181.154	24.312	924.101	737.470
182.169	24.385	923.740	737.420
183.183	24.764	923.030	738.349
184.198	24.936	922.620	738.665
185.213	24.945	921.766	737.955
186.227	25.007	921.128	737.635
187.242	25.055	920.898	737.583
188.256	25.104	919.863	736.892
189.271	25.068	919.011	735.993
190.286	25.158	918.582	735.956
191.300	25.172	917.298	734.917
192.315	24.440	916.273	731.035
193.329	23.655	914.775	726.563
194.344	23.350	914.052	724.679
195.359	23.922	914.015	726.921
196.373	24.729	914.630	730.649
197.388	24.903	914.350	731.069
198.402	24.886	913.554	730.299
199.417	24.865	913.068	729.760
200.432	24.859	912.360	729.104
201.446	24.864	911.522	728.390
202.461	24.414	911.104	726.163
203.475	24.639	910.561	726.580
204.490	24.239	908.535	723.274
205.504	23.133	906.404	717.036
206.519	23.481	906.816	718.710
207.534	24.557	907.183	723.295
208.548	24.462	906.579	722.366
209.563	24.841	906.691	723.924
210.577	24.919	905.422	723.161
211.592	24.523	904.850	721.044
212.607	25.024	904.532	722.748
213.621	25.168	904.118	722.932
214.636	24.969	903.284	721.400
215.650	25.072	902.947	721.482
216.665	25.019	902.127	720.551
217.680	25.142	901.930	720.825
218.694	25.212	901.623	720.795
219.709	24.946	900.261	718.575
220.723	24.505	899.121	715.834
221.738	24.660	898.897	716.214
222.753	24.902	898.621	716.902
223.767	24.947	897.840	716.392
224.782	25.053	897.021	716.102
225.796	25.121	896.551	715.934
226.811	25.194	896.036	715.752
227.826	24.930	894.691	713.563
228.840	24.027	893.041	708.590
229.855	23.890	892.528	707.574
230.869	24.265	891.970	708.560
231.884	23.958	891.186	706.655
232.899	23.856	890.980	706.023
233.913	24.660	891.032	709.195
234.928	24.944	890.484	709.821
235.942	24.665	889.884	708.174
236.957	24.719	889.376	707.924
237.972	24.506	888.014	705.931
238.986	24.317	887.554	704.760
240.001	24.634	887.015	705.518
241.015	24.611	886.528	704.980
242.030	24.646	885.641	704.349
243.045	24.707	885.252	704.217
244.059	24.924	884.697	704.567
245.074	25.079	884.308	704.804
246.088	25.004	883.554	703.847
247.103	24.570	882.685	701.388
248.117	24.636	882.124	701.138
249.132	25.175	882.056	703.137
250.147	25.566	881.781	704.389
251.161	25.654	880.881	703.953
252.176	25.733	880.812	704.144
253.190	25.815	879.995	703.746
254.205	25.802	879.515	703.251
255.220	26.016	879.184	703.760
256.234	25.992	878.653	703.179
257.249	25.933	877.827	702.225
258.263	25.783	877.041	700.948
259.278	25.738	877.010	700.687
260.293	25.670	876.925	700.293
261.307	25.919	875.712	700.231
262.322	25.788	875.160	699.217
263.336	25.653	874.519	698.120
264.351	25.192	872.916	694.992
265.366	24.039	871.246	689.142
266.380	23.622	870.301	686.721
267.395	24.603	870.668	690.742
268.409	25.404	870.896	693.959
269.424	25.443	869.989	693.325
270.439	25.489	869.765	693.262
271.453	25.549	869.219	692.998
272.468	25.545	868.792	692.583
273.482	25.699	868.360	692.767
274.497	25.907	867.674	692.960
275.512	25.721	866.339	691.118
276.526	24.961	865.173	687.210
277.541	25.474	864.368	688.476
278.555	25.580	864.850	689.207
279.570	25.535	864.184	688.442
280.585	25.168	863.553	686.474
281.599	25.409	862.747	686.695
282.614	25.331	862.562	686.187
283.628	25.128	861.322	684.365
284.643	24.715	860.236	681.868
285.657	25.103	860.153	683.219
286.672	24.970	859.962	682.503
287.687	24.505	858.667	679.644
288.701	24.869	858.575	680.896
289.716	25.180	858.438	681.908
290.730	25.031	857.502	680.541
291.745	24.744	856.928	678.935
292.760	24.709	855.492	677.604
293.774	24.488	855.144	676.433
294.789	25.371	855.755	680.200
295.803	26.133	855.522	682.839
296.818	26.170	855.437	682.850
297.833	26.171	854.582	682.112
298.847	25.974	853.278	680.269
299.862	25.615	852.415	678.167
300.876	25.802	852.112	678.569
301.891	26.200	851.833	679.787
302.906	26.136	851.571	679.275
303.920	25.798	850.079	676.756
304.935	25.703	849.286	675.708
305.949	25.994	849.684	677.059
306.964	26.125	849.062	676.993
307.979	25.861	848.239	675.288
308.993	25.805	847.975	674.809
310.008	26.197	847.354	675.724
311.022	26.233	847.429	675.857
312.037	26.031	846.875	674.598
313.052	25.836	846.095	673.191
314.066	25.785	845.199	672.229
315.081	25.133	843.673	668.524
316.095	24.397	842.632	664.897
317.110	24.933	842.579	666.794
318.125	25.723	842.871	669.909
319.139	25.289	842.010	667.551
320.154	24.186	840.000	661.804
321.168	23.866	838.870	659.665
322.183	24.461	839.177	662.059
323.197	25.339	839.925	665.846
324.212	25.544	839.817	666.462
325.227	25.752	839.426	666.863
326.241	25.908	838.859	666.930
327.256	25.830	837.876	665.802
328.270	25.758	837.194	664.937
329.285	25.747	836.745	664.480
330.300	25.582	835.899	663.142
331.314	25.236	835.633	661.596
332.329	25.350	834.991	661.448
333.343	25.640	834.752	662.270
334.358	25.903	834.345	662.856
335.373	25.922	833.833	662.458
336.387	26.064	833.135	662.365
337.402	26.114	833.475	662.762
338.416	26.459	832.553	663.235
339.431	26.363	831.896	662.302
340.446	26.362	831.499	661.923
341.460	26.581	831.118	662.364
342.475	26.645	830.128	661.748
343.489	26.425	829.425	660.329
344.504	26.189	829.345	659.344
345.519	26.642	828.314	660.118
346.533	26.784	828.498	660.723
347.548	26.814	828.351	660.655
348.562	26.908	827.506	660.265
349.577	26.841	827.156	659.684
350.592	26.887	826.090	658.943
351.606	26.679	825.865	657.951
352.621	26.747	825.443	657.804
353.635	26.610	824.418	656.432
354.650	26.402	824.481	655.670
355.665	26.098	823.401	653.649
356.679	25.168	821.563	648.770
357.694	25.053	821.540	648.280
358.708	25.567	821.422	649.989
359.723	25.744	820.430	649.785
360.738	25.886	820.337	650.166
361.752	26.288	820.366	651.579
362.767	26.429	820.269	651.956
363.781	26.612	820.205	652.505
364.796	26.874	819.768	653.043
365.810	27.038	819.537	653.392
366.825	27.178	818.752	653.212
367.840	27.160	818.271	652.704
368.854	27.042	817.525	651.628
369.869	26.585	817.122	649.612
370.883	26.299	816.296	647.873
371.898	26.528	815.739	648.191
372.913	26.485	815.565	647.841
373.927	26.407	814.918	646.993
374.942	26.661	813.824	646.975
375.956	26.774	813.203	646.825
376.971	26.766	812.884	646.487
377.986	26.882	812.638	646.647
379.000	27.144	811.920	646.953
380.015	27.121	811.628	646.579
381.029	26.933	811.039	645.384
382.044	26.926	810.343	644.749
383.059	27.076	809.856	644.838
384.073	26.980	809.539	644.187
385.088	27.089	808.998	644.087
386.102	27.145	808.318	643.688
387.117	26.932	807.574	642.281
388.132	26.794	807.095	641.357
389.146	26.693	806.143	640.188
390.161	26.100	805.456	637.492
391.175	26.162	804.935	637.241
392.190	26.664	805.177	639.149
393.205	26.793	804.436	638.958
394.219	25.823	802.931	634.291
395.234	24.146	800.726	626.601
396.248	23.317	799.558	622.719
397.263	24.480	800.611	627.575
398.278	26.213	802.014	634.713
399.292	26.711	801.749	636.195
400.307	26.400	801.089	634.525
401.321	26.282	800.802	633.828
402.336	26.419	800.161	633.746
403.350	26.609	800.343	634.499
404.365	27.081	800.334	636.089
405.380	27.497	800.050	637.263
406.394	27.784	799.696	637.929
407.409	27.980	799.073	638.059
408.423	27.789	798.850	637.159
409.438	27.755	797.979	636.288
410.453	27.793	797.919	636.316
411.467	27.787	797.443	635.860
412.482	27.755	797.058	635.384
413.496	27.996	796.213	635.492
414.511	27.867	796.092	634.892
415.526	27.859	795.497	634.333
416.540	27.753	795.339	633.784
417.555	27.671	795.035	633.199
418.569	27.461	793.973	631.571
419.584	27.349	793.773	630.968
420.599	27.580	792.690	630.848
421.613	108.656	1280.248	1446.267
422.628	93.470	1351.316	1446.414
