DTS Sentinel unit serial number:	SN413079Multiplexer serial number:	ORYXHardware model number:	OX4-SRSoftware version number:	ORYX F/W v4.00 Oryx Data Collector v3.7.2.0data status	okinstallation	princeton_trtdifferential loss correction	single-endedforward channel	channel 3reverse channel	N/Adate	2019/09/12time	06:26:10forward acquisition time	60.00reverse acquisition time	0.00gamma	496.2192k internal	0.2320k external	0.2320temperature offset calibration	1.0032default loss term (dB/km)	0.3790temperature slope calibration	1.0000multiplexer offset coefficient	1.0000multiplexer slope coefficient	1.0000fibre end	0.00T internal ref (°C)	32.16T ext. ref 1 (°C)	1.57T ext. ref 2 (°C)	27.36length (m)	temperature (°C)	Stokes	anti-Stokes-747.200	664.065	-0.149	0.390
-746.185	17.159	-0.141	-0.113
-745.171	800.000	-0.048	-0.165
-744.156	800.000	-0.076	-0.253
-743.142	-146.488	0.065	-0.006
-742.127	-153.535	-0.369	-0.026
-741.112	-132.712	0.412	0.053
-740.098	-79.783	-0.367	0.125
-739.083	-68.754	0.185	-0.072
-738.069	-141.553	0.176	0.018
-737.054	-52.920	0.120	0.056
-736.039	800.000	-0.021	-0.066
-735.025	570.941	0.028	0.069
-734.010	-40.640	-0.323	-0.170
-732.996	130.739	-0.111	0.145
-731.981	-52.711	0.442	0.206
-730.966	-200.000	0.036	0.448
-729.952	-200.000	-0.018	-0.227
-728.937	-169.762	-0.165	0.006
-727.923	-75.548	-0.255	-0.092
-726.908	-120.225	0.267	-0.046
-725.894	-200.000	-0.178	-0.000
-724.879	-91.447	-0.325	0.094
-723.864	-70.467	0.384	0.147
-722.850	4.213	0.189	-0.140
-721.835	-104.007	-0.122	-0.029
-720.821	227.802	-0.175	-0.288
-719.806	800.000	0.052	-0.187
-718.791	800.000	0.074	-0.215
-717.777	-47.019	0.103	-0.051
-716.762	-200.000	-0.037	0.340
-715.748	-200.000	-0.003	-0.447
-714.733	84.563	0.136	-0.151
-713.718	155.786	0.044	-0.061
-712.704	117.171	-0.150	0.186
-711.689	-139.947	0.448	-0.048
-710.675	-50.079	0.157	-0.075
-709.660	-80.809	0.060	0.020
-708.645	-200.000	0.031	-0.209
-707.631	-200.000	-0.020	0.178
-706.616	36.253	0.184	0.164
-705.602	800.000	0.089	-0.299
-704.587	739.609	-0.023	0.063
-703.572	-19.787	0.273	-0.170
-702.558	-200.000	-0.008	0.102
-701.543	29.789	-0.172	-0.148
-700.529	-200.000	-0.076	0.384
-699.514	-200.000	0.030	0.189
-698.499	-200.000	-0.058	0.315
-697.485	-144.168	-0.287	0.027
-696.470	-115.019	0.283	0.054
-695.456	59.152	0.194	0.193
-694.441	-18.452	0.084	0.053
-693.426	-156.172	-0.322	-0.020
-692.412	-49.220	-0.226	-0.109
-691.397	356.613	0.041	-0.083
-690.383	333.772	-0.049	0.096
-689.368	-106.683	-0.054	-0.012
-688.354	800.000	0.079	0.294
-687.339	-200.000	-0.082	-0.543
-686.324	-200.000	-0.015	-0.254
-685.310	800.000	0.030	-0.101
-684.295	-48.929	0.215	0.104
-683.281	385.107	0.045	-0.093
-682.266	800.000	-0.033	0.122
-681.251	41.967	-0.106	-0.097
-680.237	312.977	0.041	0.078
-679.222	-138.389	-0.415	0.046
-678.208	-136.607	-0.080	0.009
-677.193	-13.135	0.061	-0.040
-676.178	-56.301	-0.253	-0.113
-675.164	-105.503	0.201	0.046
-674.149	-54.592	0.238	0.109
-673.135	-77.609	-0.036	-0.012
-672.120	50.019	0.128	-0.122
-671.105	-200.000	-0.014	-0.139
-670.091	71.771	0.265	-0.277
-669.076	28.621	-0.273	-0.233
-668.062	45.939	-0.242	-0.226
-667.047	722.759	0.105	-0.282
-666.032	-152.880	-0.348	-0.025
-665.018	-179.908	0.241	-0.005
-664.003	-140.993	0.041	-0.004
-662.989	-200.000	0.030	-0.239
-661.974	29.906	0.045	-0.039
-660.959	-121.225	0.113	0.019
-659.945	66.219	0.108	-0.111
-658.930	341.988	-0.119	0.235
-657.916	-79.359	-0.334	0.114
-656.901	-96.193	-0.162	0.043
-655.886	-200.000	0.029	0.214
-654.872	30.574	0.303	-0.261
-653.857	17.687	0.163	0.130
-652.843	-106.995	-0.196	-0.044
-651.828	-15.887	-0.153	-0.098
-650.814	-200.000	0.012	-0.124
-649.799	175.683	0.210	0.307
-648.784	504.752	-0.162	0.377
-647.770	-200.000	0.023	0.194
-646.755	516.657	-0.060	-0.141
-645.741	-108.173	-0.308	0.067
-644.726	321.477	-0.044	-0.085
-643.711	800.000	-0.036	-0.122
-642.697	204.631	-0.073	-0.114
-641.682	-200.000	0.016	-0.082
-640.668	230.604	0.189	-0.312
-639.653	-10.565	-0.095	0.064
-638.638	343.518	0.067	-0.132
-637.624	-58.250	-0.063	-0.027
-636.609	800.000	-0.136	-0.435
-635.595	241.275	-0.053	-0.089
-634.580	-33.681	-0.146	0.081
-633.565	-158.592	0.237	0.014
-632.551	-120.055	0.266	-0.046
-631.536	590.079	0.080	-0.199
-630.522	407.145	0.053	-0.112
-629.507	-110.700	-0.039	0.008
-628.492	-200.000	0.007	-0.049
-627.478	13.565	-0.088	-0.069
-626.463	-200.000	0.010	0.338
-625.449	-100.326	-0.030	0.008
-624.434	1.512	0.117	-0.085
-623.419	31.865	-0.253	-0.220
-622.405	8.503	-0.083	-0.063
-621.390	161.230	0.172	-0.243
-620.376	-45.313	0.078	0.039
-619.361	-200.000	-0.058	0.254
-618.346	329.054	-0.088	-0.171
-617.332	-52.174	-0.099	0.046
-616.317	335.799	0.037	0.072
-615.303	12.896	-0.187	-0.146
-614.288	58.217	0.113	0.111
-613.273	-52.512	0.083	0.039
-612.259	800.000	-0.058	-0.244
-611.244	46.109	-0.237	-0.221
-610.230	-94.792	0.332	-0.090
-609.215	-67.788	-0.255	-0.100
-608.201	429.256	0.160	-0.347
-607.186	-200.000	0.035	0.229
-606.171	209.828	-0.031	0.049
-605.157	-111.817	0.321	0.065
-604.142	-200.000	0.092	0.452
-603.128	-198.373	0.170	0.001
-602.113	-173.414	-0.297	0.009
-601.098	3.574	-0.241	-0.176
-600.084	-200.000	-0.013	-0.266
-599.069	299.335	0.144	0.267
-598.055	54.051	-0.061	0.059
-597.040	-39.057	0.218	0.115
-596.025	-64.522	0.174	0.071
-595.011	-92.171	-0.143	0.041
-593.996	153.586	-0.466	0.642
-592.982	267.025	0.139	-0.245
-591.967	121.559	-0.113	0.142
-590.952	-65.138	0.243	-0.098
-589.938	800.000	-0.037	-0.128
-588.923	-93.461	-0.250	0.069
-587.909	-200.000	0.041	0.307
-586.894	49.468	-0.294	0.278
-585.879	-119.728	-0.318	0.055
-584.865	-41.165	-0.139	-0.072
-583.850	-59.266	-0.230	0.100
-582.836	168.628	0.109	-0.156
-581.821	-200.000	0.041	-0.206
-580.806	57.534	-0.148	0.146
-579.792	40.242	0.226	-0.204
-578.777	800.000	-0.060	-0.179
-577.763	-21.994	-0.202	0.124
-576.748	-139.366	0.299	-0.032
-575.733	-13.860	0.186	0.121
-574.719	-92.057	-0.183	-0.052
-573.704	264.708	0.153	0.267
-572.690	111.469	0.093	0.113
-571.675	197.022	-0.026	0.040
-570.661	57.137	-0.169	0.166
-569.646	800.000	0.067	0.263
-568.631	19.177	-0.013	-0.011
-567.617	292.011	-0.220	-0.403
-566.602	800.000	0.062	-0.253
-565.588	41.854	-0.037	0.034
-564.573	25.536	-0.113	0.094
-563.558	378.171	0.094	0.192
-562.544	-200.000	-0.001	-0.271
-561.529	673.889	-0.123	-0.320
-560.515	-103.712	-0.544	-0.128
-559.500	187.221	-0.096	0.144
-558.485	-3.202	-0.157	-0.110
-557.471	-200.000	0.034	0.155
-556.456	395.427	-0.040	0.083
-555.442	206.050	-0.047	-0.074
-554.427	-200.000	-0.010	-0.192
-553.412	174.544	0.125	-0.182
-552.398	704.050	-0.028	-0.073
-551.383	2.381	0.245	0.178
-550.369	36.331	0.267	-0.236
-549.354	111.894	-0.107	0.130
-548.339	-139.059	-0.265	-0.029
-547.325	-141.907	-0.432	-0.043
-546.310	266.403	0.062	-0.108
-545.296	57.009	-0.371	0.363
-544.281	11.990	-0.199	0.153
-543.266	-44.748	-0.150	0.075
-542.252	-118.844	-0.270	-0.048
-541.237	800.000	-0.041	-0.148
-540.223	203.860	-0.106	0.164
-539.208	-174.979	0.270	-0.008
-538.193	16.268	-0.207	0.164
-537.179	335.470	0.091	-0.178
-536.164	49.616	0.503	0.476
-535.150	492.816	0.186	0.427
-534.135	-7.179	0.382	0.260
-533.121	224.131	-0.086	0.139
-532.106	-200.000	0.069	-0.339
-531.091	75.124	0.056	-0.059
-530.077	274.262	-0.027	0.048
-529.062	45.994	-0.276	0.256
-528.048	109.724	0.111	-0.133
-527.033	-96.737	0.228	-0.060
-526.018	338.435	-0.068	-0.133
-525.004	-200.000	0.018	-0.132
-523.989	221.713	-0.077	-0.124
-522.975	-123.349	0.358	-0.057
-521.960	-200.000	0.030	-0.181
-520.945	511.022	0.047	0.109
-519.931	30.983	0.051	0.044
-518.916	687.645	0.082	-0.215
-517.902	104.449	0.216	0.255
-516.887	-24.993	-0.163	-0.097
-515.872	-200.000	0.012	-0.189
-514.858	-18.190	-0.228	-0.143
-513.843	800.000	-0.141	0.484
-512.829	800.000	0.107	0.308
-511.814	-200.000	-0.009	-0.291
-510.799	-200.000	0.052	0.261
-509.785	-162.139	0.161	0.008
-508.770	-200.000	0.009	0.062
-507.756	25.034	-0.096	-0.080
-506.741	-177.430	0.241	0.006
-505.726	-2.057	0.204	-0.143
-504.712	85.266	0.138	-0.152
-503.697	150.461	0.127	0.173
-502.683	-200.000	0.010	0.066
-501.668	-200.000	-0.006	0.110
-500.653	800.000	-0.092	0.260
-499.639	120.961	-0.069	0.086
-498.624	800.000	0.059	-0.169
-497.610	-200.000	-0.019	0.208
-496.595	-200.000	-0.012	-0.083
-495.581	-36.977	-0.144	0.077
-494.566	-42.252	0.207	0.106
-493.551	800.000	0.029	-0.091
-492.537	-14.586	0.284	0.183
-491.522	42.311	0.385	0.351
-490.508	800.000	0.163	-0.511
-489.493	-200.000	-0.009	0.101
-488.478	-124.928	-0.090	-0.014
-487.464	-200.000	-0.002	0.038
-486.449	-99.668	-0.214	-0.054
-485.435	800.000	-0.083	0.338
-484.420	800.000	-0.015	0.055
-483.405	175.381	0.124	-0.179
-482.391	-172.675	-0.387	-0.012
-481.376	-39.620	0.154	-0.080
-480.362	-17.599	0.186	0.117
-479.347	-61.552	0.354	-0.149
-478.332	-62.984	0.203	-0.084
-477.318	-92.871	-0.052	0.015
-476.303	-79.400	-0.285	0.097
-475.289	800.000	0.029	-0.108
-474.274	-84.671	0.244	0.077
-473.259	349.137	-0.077	0.152
-472.245	-182.839	-0.214	-0.004
-471.230	169.005	0.185	0.264
-470.216	166.412	-0.156	0.221
-469.201	-184.546	-0.324	-0.005
-468.186	-37.319	0.115	-0.061
-467.172	246.292	-0.176	0.297
-466.157	31.380	-0.178	-0.153
-465.143	568.384	-0.049	0.118
-464.128	800.000	0.042	0.163
-463.113	-150.977	-0.098	0.007
-462.099	-57.018	-0.157	-0.069
-461.084	71.966	-0.106	0.110
-460.070	-200.000	0.014	0.152
-459.055	-172.168	-0.353	0.011
-458.040	14.774	0.266	0.208
-457.026	-200.000	0.011	0.060
-456.011	55.026	0.080	-0.078
-454.997	-21.327	0.182	0.111
-453.982	34.524	0.201	0.175
-452.968	-77.459	-0.087	0.030
-451.953	-86.364	-0.146	-0.045
-450.938	800.000	-0.020	0.056
-449.924	125.213	0.126	-0.159
-448.909	800.000	-0.054	-0.178
-447.895	-71.799	-0.375	-0.140
-446.880	-200.000	0.018	-0.224
-445.865	-33.888	0.112	0.062
-444.851	29.566	0.168	-0.143
-443.836	-200.000	-0.002	-0.310
-442.822	-80.560	0.165	-0.055
-441.807	25.483	0.038	-0.032
-440.792	-95.482	-0.083	0.022
-439.778	800.000	-0.050	-0.181
-438.763	800.000	0.067	-0.191
-437.749	-51.389	-0.033	0.015
-436.734	-126.711	0.053	-0.008
-435.719	600.662	-0.101	0.252
-434.705	-96.147	-0.409	0.109
-433.690	-130.179	-0.279	0.038
-432.676	-200.000	0.024	0.199
-431.661	-200.000	0.001	0.042
-430.646	-68.138	-0.246	-0.096
-429.632	-48.405	-0.368	-0.177
-428.617	-48.138	-0.015	0.007
-427.603	-200.000	0.038	0.203
-426.588	-200.000	-0.012	-0.122
-425.573	299.340	0.037	-0.068
-424.559	115.811	-0.087	0.107
-423.544	-200.000	0.029	0.258
-422.530	150.888	0.184	-0.250
-421.515	-33.200	-0.132	-0.073
-420.500	-200.000	-0.005	-0.219
-419.486	8.495	-0.233	-0.175
-418.471	-200.000	-0.036	-0.199
-417.457	-54.919	0.151	-0.068
-416.442	-74.742	-0.246	-0.088
-415.428	800.000	0.065	-0.185
-414.413	-200.000	0.020	-0.369
-413.398	-89.895	0.329	0.096
-412.384	-200.000	-0.006	0.230
-411.369	-200.000	-0.002	-0.311
-410.355	47.334	0.321	-0.299
-409.340	306.530	-0.063	0.117
-408.325	-123.652	-0.195	-0.031
-407.311	-166.664	-0.161	-0.007
-406.296	-88.575	0.194	-0.058
-405.282	-96.897	-0.205	-0.054
-404.267	169.162	-0.057	-0.081
-403.252	-72.040	0.406	0.150
-402.238	162.654	-0.254	-0.356
-401.223	67.402	-0.012	0.012
-400.209	-200.000	-0.110	-0.514
-399.194	110.048	-0.072	-0.087
-398.179	-200.000	-0.017	0.158
-397.165	89.603	0.151	-0.169
-396.150	-200.000	0.015	0.128
-395.136	-56.958	-0.327	-0.144
-394.121	-51.594	0.242	-0.112
-393.106	800.000	0.053	0.177
-392.092	66.296	-0.277	-0.281
-391.077	-191.080	-0.172	-0.002
-390.063	80.942	0.188	0.202
-389.048	-200.000	-0.091	-0.000
-388.033	-8.091	-0.169	-0.113
-387.019	-47.290	-0.157	-0.076
-386.004	800.000	0.032	0.131
-384.990	-200.000	0.052	0.271
-383.975	-79.560	0.159	0.053
-382.960	62.383	-0.258	0.257
-381.946	-200.000	0.041	0.272
-380.931	106.933	-0.125	-0.147
-379.917	-75.768	0.219	-0.077
-378.902	25.832	0.154	0.128
-377.888	229.685	-0.085	-0.138
-376.873	-200.000	-0.039	-0.439
-375.858	543.307	0.101	-0.240
-374.844	36.131	0.247	-0.217
-373.829	-69.937	0.095	0.036
-372.815	-200.000	0.125	0.560
-371.800	-200.000	0.031	0.555
-370.785	181.639	-0.161	-0.237
-369.771	751.803	0.088	-0.237
-368.756	-200.000	-0.065	-0.318
-367.742	-20.755	0.201	-0.123
-366.727	-151.230	-0.243	-0.018
-365.712	688.769	-0.115	0.300
-364.698	-64.304	0.199	-0.081
-363.683	-200.000	0.014	-0.096
-362.669	-85.036	-0.249	0.078
-361.654	-66.491	0.306	-0.121
-360.639	-96.016	0.058	0.015
-359.625	-200.000	0.003	0.104
-358.610	-200.000	-0.021	-0.227
-357.596	539.764	0.043	0.102
-356.581	800.000	0.114	-0.423
-355.566	59.815	0.052	-0.051
-354.552	41.761	-0.245	-0.221
-353.537	488.006	0.077	0.175
-352.523	800.000	0.051	0.154
-351.508	124.743	-0.162	0.204
-350.493	-45.561	0.316	-0.156
-349.479	800.000	0.067	0.236
-348.464	177.854	-0.118	-0.172
-347.450	-61.023	-0.159	-0.067
-346.435	-153.420	0.154	-0.011
-345.420	-30.438	0.229	0.129
-344.406	94.390	0.024	0.028
-343.391	-67.363	-0.251	-0.098
-342.377	-157.252	-0.428	0.026
-341.362	6.618	0.225	-0.167
-340.348	8.312	0.192	0.144
-339.333	12.821	-0.201	-0.154
-338.318	-200.000	0.038	0.288
-337.304	-32.404	-0.190	0.106
-336.289	31.849	0.275	0.236
-335.275	-48.352	-0.100	0.048
-334.260	-60.598	0.198	-0.084
-333.245	-107.767	0.122	0.026
-332.231	-69.213	-0.130	-0.050
-331.216	-17.622	0.034	-0.021
-330.202	101.535	0.068	0.079
-329.187	-38.813	0.238	0.125
-328.172	-74.675	-0.090	-0.032
-327.158	70.752	-0.128	0.132
-326.143	-138.329	0.090	0.010
-325.129	800.000	0.082	-0.239
-324.114	-26.480	-0.294	0.171
-323.099	-56.088	-0.112	-0.050
-322.085	45.949	-0.081	0.075
-321.070	-131.624	0.149	-0.019
-320.056	-103.089	0.252	-0.059
-319.041	201.097	0.082	-0.126
-318.026	75.891	0.045	0.047
-317.012	30.353	0.319	-0.271
-315.997	-200.000	0.014	-0.065
-314.983	206.915	0.066	0.103
-313.968	800.000	0.106	0.332
-312.953	800.000	-0.032	0.102
-311.939	125.781	-0.077	-0.097
-310.924	800.000	0.099	0.274
-309.910	-200.000	0.028	-0.250
-308.895	-34.250	-0.307	0.167
-307.880	37.403	0.031	0.027
-306.866	-86.486	-0.172	-0.052
-305.851	-200.000	0.014	0.154
-304.837	128.892	-0.129	0.164
-303.822	37.657	0.077	-0.068
-302.807	-200.000	-0.005	-0.062
-301.793	38.291	-0.032	-0.028
-300.778	800.000	-0.012	0.046
-299.764	-200.000	-0.021	-0.310
-298.749	-162.271	0.131	0.006
-297.735	-200.000	0.026	0.236
-296.720	631.937	0.087	-0.220
-295.705	254.257	0.111	-0.189
-294.691	-77.129	0.189	0.065
-293.676	-133.312	-0.050	-0.006
-292.662	800.000	-0.013	-0.057
-291.647	-82.267	-0.314	0.102
-290.632	179.617	-0.201	0.292
-289.618	-44.187	-0.073	0.037
-288.603	130.238	0.076	0.097
-287.589	-103.569	0.201	-0.047
-286.574	46.903	-0.202	-0.187
-285.559	51.587	-0.137	-0.129
-284.545	729.582	0.026	0.068
-283.530	593.355	0.090	-0.222
-282.516	-200.000	-0.016	0.151
-281.501	-76.728	-0.127	-0.044
-280.486	800.000	-0.071	0.234
-279.472	-41.320	0.186	0.095
-278.457	800.000	-0.075	0.227
-277.443	-200.000	0.058	0.433
-276.428	-42.501	0.147	0.074
-275.413	-36.804	-0.145	0.077
-274.399	-69.716	0.229	0.087
-273.384	5.272	0.145	-0.106
-272.370	-180.034	-0.265	0.006
-271.355	204.424	0.050	0.078
-270.340	-200.000	-0.001	-0.149
-269.326	27.194	-0.172	-0.144
-268.311	411.351	-0.125	-0.263
-267.297	68.840	-0.173	-0.177
-266.282	-68.538	0.210	0.081
-265.267	141.141	0.053	0.069
-264.253	-1.732	0.217	0.152
-263.238	-200.000	0.039	-0.265
-262.224	-107.706	0.262	0.057
-261.209	11.003	0.143	0.109
-260.195	-101.645	0.283	-0.068
-259.180	290.174	0.079	-0.141
-258.165	-190.180	0.306	0.003
-257.151	-200.000	-0.016	0.144
-256.136	-200.000	0.010	0.101
-255.122	-200.000	-0.038	-0.192
-254.107	-200.000	-0.001	-0.090
-253.092	341.515	-0.144	0.278
-252.078	66.918	0.150	0.152
-251.063	-6.366	-0.193	-0.131
-250.049	-200.000	-0.008	-0.127
-249.034	45.346	0.425	0.389
-248.019	-33.267	-0.096	0.053
-247.005	-77.678	0.197	0.068
-245.990	-77.671	0.114	-0.039
-244.976	-187.102	-0.098	-0.001
-243.961	-130.629	0.287	-0.038
-242.946	-34.720	0.579	0.314
-241.932	171.976	-0.087	-0.124
-240.917	-118.157	-0.262	-0.046
-239.903	-200.000	0.007	-0.219
-238.888	549.558	0.045	-0.108
-237.873	-200.000	0.014	0.474
-236.859	-140.883	-0.128	0.013
-235.844	634.134	-0.095	-0.239
-234.830	-178.135	0.209	0.005
-233.815	800.000	-0.073	0.220
-232.800	-2.728	0.240	0.166
-231.786	-93.751	0.238	-0.065
-230.771	-122.798	-0.069	-0.011
-229.757	217.974	0.058	-0.092
-228.742	615.132	0.122	-0.303
-227.727	37.427	0.110	-0.097
-226.713	41.556	-0.228	0.204
-225.698	101.752	-0.094	-0.108
-224.684	201.792	-0.117	0.179
-223.669	-112.489	-0.275	-0.054
-222.655	-65.694	-0.335	0.133
-221.640	-95.088	-0.302	-0.081
-220.625	-120.237	-0.142	0.024
-219.611	44.190	-0.243	0.221
-218.596	-85.599	0.317	-0.098
-217.582	-91.891	0.076	-0.021
-216.567	-28.409	-0.208	0.119
-215.552	103.139	0.134	0.156
-214.538	-123.169	-0.254	0.040
-213.523	410.620	0.227	0.478
-212.509	-200.000	-0.032	-0.206
-211.494	93.254	-0.109	-0.122
-210.479	-123.044	0.277	-0.044
-209.465	120.079	0.193	0.237
-208.450	-200.000	0.008	-0.082
-207.436	-100.244	-0.097	-0.024
-206.421	-28.846	0.045	-0.025
-205.406	-60.490	-0.056	-0.024
-204.392	800.000	-0.083	-0.305
-203.377	248.502	0.119	-0.199
-202.363	-67.576	-0.037	-0.015
-201.348	76.394	-0.118	0.123
-200.333	-142.903	-0.259	-0.025
-199.319	-200.000	-0.015	-0.088
-198.304	-68.984	-0.040	-0.015
-197.290	-81.369	-0.159	0.052
-196.275	205.812	0.123	-0.189
-195.260	800.000	-0.092	-0.264
-194.246	-10.123	0.251	-0.165
-193.231	-44.687	0.356	0.176
-192.217	-58.028	-0.206	0.089
-191.202	-105.407	-0.175	-0.039
-190.187	-143.562	-0.052	-0.005
-189.173	-200.000	0.003	-0.103
-188.158	-103.917	-0.167	-0.039
-187.144	-200.000	0.024	-0.345
-186.129	-106.577	0.066	0.015
-185.114	-99.827	-0.244	0.060
-184.100	130.023	0.084	-0.107
-183.085	768.952	-0.047	-0.127
-182.071	152.882	0.114	0.154
-181.056	77.204	0.052	-0.055
-180.042	800.000	-0.083	-0.297
-179.027	-35.514	0.067	-0.036
-178.012	93.784	-0.214	-0.240
-176.998	-59.935	-0.198	-0.084
-175.983	205.940	0.077	-0.118
-174.969	113.831	0.121	0.146
-173.954	-43.850	0.213	0.106
-172.939	-200.000	-0.012	0.103
-171.925	-48.747	0.166	-0.079
-170.910	28.165	-0.052	0.044
-169.896	-94.037	0.353	-0.096
-168.881	-116.106	0.123	0.023
-167.866	-99.123	-0.197	0.049
-166.852	-85.118	0.230	-0.071
-165.837	-62.412	-0.211	0.087
-164.823	800.000	-0.102	-0.281
-163.808	-9.931	0.282	0.186
-162.793	-40.383	-0.261	0.134
-161.779	-56.582	0.118	-0.052
-160.764	347.631	-0.144	0.279
-159.750	-200.000	0.033	0.400
-158.735	-200.000	0.021	0.108
-157.720	222.820	-0.146	0.232
-156.706	-200.000	0.035	-0.233
-155.691	-17.183	0.212	-0.132
-154.677	800.000	-0.016	-0.046
-153.662	-58.850	0.339	-0.145
-152.647	446.309	-0.018	-0.039
-151.633	-29.665	0.238	0.134
-150.618	-9.223	0.311	0.206
-149.604	800.000	-0.046	0.129
-148.589	-200.000	-0.005	0.174
-147.574	-93.654	-0.063	0.017
-146.560	13.282	-0.100	-0.077
-145.545	-16.606	-0.121	0.075
-144.531	-139.604	-0.113	-0.012
-143.516	-127.825	0.415	0.059
-142.502	189.978	0.221	0.328
-141.487	-119.742	-0.279	0.048
-140.472	58.697	-0.090	0.087
-139.458	-124.639	0.535	0.082
-138.443	800.000	-0.045	0.162
-137.429	379.134	0.067	-0.136
-136.414	-200.000	0.017	0.368
-135.399	-13.937	-0.143	0.091
-134.385	-125.769	-0.062	-0.009
-133.370	76.301	-0.121	-0.127
-132.356	608.621	0.081	0.200
-131.341	-200.000	-0.013	0.065
-130.326	386.891	-0.230	-0.470
-129.312	-105.096	0.310	-0.070
-128.297	103.657	-0.097	0.112
-127.283	-66.588	-0.175	0.069
-126.268	-5.013	-0.158	-0.107
-125.253	15.698	-0.098	0.076
-124.239	-200.000	0.002	0.065
-123.224	349.608	0.170	-0.331
-122.210	70.980	0.335	-0.342
-121.195	-108.786	0.418	-0.088
-120.180	-50.402	-0.075	0.035
-119.166	-30.622	0.294	0.164
-118.151	-91.285	-0.148	0.042
-117.137	-132.163	0.273	-0.035
-116.122	43.729	-0.181	0.163
-115.107	-200.000	0.050	-0.224
-114.093	216.306	0.197	0.309
-113.078	-200.000	0.010	0.252
-112.064	336.420	-0.157	0.302
-111.049	76.308	-0.097	-0.102
-110.034	515.443	0.068	0.158
-109.020	-200.000	-0.009	-0.170
-108.005	800.000	-0.140	-0.480
-106.991	-200.000	-0.017	-0.186
-105.976	7.745	0.197	0.146
-104.962	164.913	0.130	-0.181
-103.947	-47.393	-0.292	0.140
-102.932	-200.000	-0.014	0.079
-101.918	54.781	-0.209	0.199
-100.903	132.138	0.025	0.032
-99.889	-80.913	0.266	-0.087
-98.874	-149.405	0.354	0.028
-97.859	-104.392	-0.226	-0.052
-96.845	-133.326	-0.140	0.017
-95.830	-49.742	-0.083	-0.039
-94.816	-200.000	0.001	0.095
-93.801	-80.388	-0.142	0.047
-92.786	155.874	0.025	0.035
-91.772	-200.000	0.008	0.083
-90.757	-67.585	0.059	0.023
-89.743	36.539	0.122	-0.106
-88.728	-200.000	-0.010	-0.089
-87.713	354.913	0.107	0.209
-86.699	-39.538	-0.066	0.034
-85.684	-200.000	0.012	-0.132
-84.670	438.509	-0.063	-0.136
-83.655	-200.000	-0.031	0.267
-82.640	-76.675	-0.470	0.162
-81.626	-200.000	0.034	0.282
-80.611	-121.313	0.050	0.008
-79.597	-22.718	0.171	0.102
-78.582	-90.682	0.087	-0.025
-77.567	0.474	0.279	-0.196
-76.553	800.000	-0.083	-0.287
-75.538	800.000	0.090	-0.278
-74.524	-22.513	-0.110	-0.066
-73.509	36.001	0.150	0.130
-72.494	-146.739	0.059	-0.005
-71.480	-200.000	0.019	0.233
-70.465	-200.000	0.034	0.173
-69.451	-68.110	-0.437	-0.168
-68.436	-1.166	0.267	0.186
-67.422	-200.000	-0.064	-0.311
-66.407	209.272	-0.004	-0.007
-65.392	502.067	-0.061	-0.140
-64.378	-200.000	-0.120	-0.000
-63.363	-16.842	0.084	-0.053
-62.349	65.608	0.076	-0.075
-61.334	20.003	-0.957	-0.760
-60.319	12.781	0.782	0.595
-59.305	-200.000	-0.180	-0.949
-58.290	441.981	0.575	1.239
-57.276	249.819	0.723	1.207
-56.261	-200.000	95.866	595.803
-55.246	566.459	1372.883	3279.266
-54.232	160.984	2550.710	3507.989
-53.217	112.303	2162.696	2574.432
-52.203	42.862	1708.395	1532.502
-51.188	35.338	1522.117	1314.042
-50.173	32.978	1495.094	1274.758
-49.159	52.009	1544.087	1447.489
-48.144	53.893	1561.310	1476.504
-47.130	35.513	1521.660	1314.642
-46.115	32.361	1506.952	1280.467
-45.100	32.239	1503.640	1276.771
-44.086	32.241	1501.560	1274.968
-43.071	32.346	1499.005	1273.460
-42.057	32.157	1498.207	1271.451
-41.042	32.286	1496.248	1270.613
-40.027	32.141	1495.269	1268.747
-39.013	32.099	1493.891	1267.245
-37.998	32.135	1492.299	1266.086
-36.984	32.216	1491.351	1265.778
-35.969	32.125	1490.144	1264.090
-34.954	32.224	1488.643	1263.434
-33.940	32.171	1486.964	1261.602
-32.925	32.266	1485.619	1261.051
-31.911	32.253	1484.373	1259.858
-30.896	32.129	1483.168	1257.952
-29.881	32.289	1481.660	1257.694
-28.867	32.187	1480.440	1255.927
-27.852	32.193	1478.992	1254.688
-26.838	32.275	1477.575	1253.985
-25.823	32.196	1475.918	1252.001
-24.809	32.265	1473.908	1250.701
-23.794	32.200	1472.809	1249.289
-22.779	32.196	1471.733	1248.304
-21.765	32.186	1470.769	1247.367
-20.750	32.304	1468.766	1246.400
-19.736	32.169	1468.558	1245.281
-18.721	32.130	1467.439	1244.025
-17.706	32.020	1466.535	1242.479
-16.692	32.140	1464.851	1241.796
-15.677	32.108	1464.145	1240.938
-14.663	32.175	1462.587	1240.011
-13.648	32.053	1462.052	1238.705
-12.633	32.140	1460.852	1238.209
-11.619	32.063	1460.313	1237.201
-10.604	32.040	1460.089	1236.805
-9.590	32.099	1458.361	1235.680
-8.575	32.101	1457.835	1235.203
-7.560	32.145	1456.616	1234.407
-6.546	32.149	1455.525	1233.465
-5.531	32.106	1454.738	1232.466
-4.517	32.034	1453.880	1231.212
-3.502	32.016	1453.051	1230.347
-2.487	32.151	1451.581	1229.939
-1.473	32.220	1450.304	1229.256
-0.458	32.161	1449.347	1228.014
0.556	32.036	1440.088	1217.270
1.571	29.241	1414.600	1177.787
2.586	25.950	1358.508	1110.745
3.600	24.260	1279.631	1036.347
4.615	22.921	1232.311	990.432
5.629	19.238	1174.337	924.038
6.644	9.631	1087.491	807.689
7.659	2.689	1046.455	743.571
8.673	1.852	1041.043	735.621
9.688	1.553	1038.320	732.194
10.702	1.437	1036.402	730.215
11.717	1.428	1034.458	728.741
12.731	4.314	1037.227	744.490
13.746	13.822	1051.362	800.628
14.761	22.278	1062.254	849.891
15.775	24.550	1064.781	862.829
16.790	24.987	1064.321	864.489
17.804	24.811	1063.810	863.150
18.819	24.654	1062.985	861.645
19.834	24.845	1062.106	861.778
20.848	24.874	1061.851	861.634
21.863	24.961	1061.796	861.932
22.877	24.901	1061.231	861.111
23.892	24.872	1060.667	860.436
24.907	24.813	1059.366	859.021
25.921	25.004	1059.079	859.628
26.936	24.882	1058.098	858.173
27.950	24.820	1057.198	857.071
28.965	24.773	1056.435	856.149
29.980	24.727	1054.477	854.268
30.994	24.801	1052.976	853.329
32.009	24.901	1052.753	853.550
33.023	24.924	1052.032	852.999
34.038	24.803	1050.608	851.195
35.053	24.807	1049.701	850.402
36.067	24.880	1049.563	850.560
37.082	24.849	1048.480	849.462
38.096	24.977	1047.842	849.475
39.111	25.136	1047.315	849.726
40.126	25.249	1046.088	849.190
41.140	25.118	1045.092	847.688
42.155	24.876	1043.431	845.124
43.169	24.534	1042.540	842.715
44.184	24.490	1041.440	841.545
45.199	24.609	1040.553	841.313
46.213	24.607	1039.094	840.050
47.228	24.403	1039.094	839.016
48.242	24.754	1038.073	839.764
49.257	24.767	1037.096	838.960
50.271	24.822	1036.341	838.533
51.286	24.908	1035.942	838.540
52.301	24.908	1035.887	838.419
53.315	25.023	1034.938	838.115
54.330	24.936	1034.319	837.133
55.344	24.849	1032.954	835.552
56.359	24.941	1032.159	835.261
57.374	25.017	1031.158	834.731
58.388	24.659	1030.523	832.478
59.403	24.678	1029.699	831.827
60.417	24.703	1029.104	831.390
61.432	24.599	1028.485	830.332
62.447	24.545	1027.489	829.204
63.461	24.748	1026.425	829.215
64.476	24.684	1026.144	828.617
65.490	24.764	1024.594	827.661
66.505	24.575	1024.288	826.468
67.520	24.550	1023.642	825.755
68.534	24.789	1022.819	826.124
69.549	24.548	1022.415	824.613
70.563	24.340	1020.398	821.952
71.578	24.068	1020.109	820.395
72.593	24.244	1018.985	820.229
73.607	24.046	1018.339	818.723
74.622	23.999	1017.154	817.482
75.636	24.338	1016.492	818.435
76.651	24.506	1016.121	818.832
77.666	24.528	1015.012	817.970
78.680	24.243	1014.165	815.911
79.695	24.298	1013.770	815.770
80.709	24.320	1013.335	815.450
81.724	24.460	1012.636	815.455
82.739	24.443	1011.611	814.480
83.753	24.383	1011.013	813.654
84.768	24.625	1010.145	813.985
85.782	25.144	1009.427	815.693
86.797	25.309	1008.614	815.717
87.812	25.289	1007.756	814.859
88.826	25.174	1006.906	813.579
89.841	24.988	1006.602	812.415
90.855	25.072	1005.482	811.820
91.870	25.308	1004.627	812.125
92.884	25.171	1003.873	810.825
93.899	24.976	1002.755	808.970
94.914	24.943	1001.746	807.937
95.928	25.053	1001.133	807.866
96.943	25.098	1000.398	807.404
97.957	24.817	999.045	804.977
98.972	24.659	997.955	803.316
99.987	24.385	996.872	801.146
101.001	24.533	996.377	801.341
102.016	24.807	995.766	802.008
103.030	24.932	994.990	801.868
104.045	24.799	994.004	800.410
105.060	24.666	992.731	798.720
106.074	24.565	991.501	797.209
107.089	24.531	990.753	796.387
108.103	24.840	990.481	797.472
109.118	24.917	990.084	797.426
110.133	24.627	988.583	794.857
111.147	24.612	987.492	793.842
112.162	24.511	986.592	792.601
113.176	24.347	985.223	790.701
114.191	24.508	984.537	790.797
115.206	24.640	983.540	790.508
116.220	24.211	982.745	787.906
117.235	24.070	981.845	786.488
118.249	24.252	981.599	787.027
119.264	24.425	980.188	786.587
120.279	24.207	979.864	785.299
121.293	24.285	978.666	784.614
122.308	24.202	978.578	784.105
123.322	24.281	977.972	783.900
124.337	24.218	976.622	782.473
125.352	24.262	974.620	780.993
126.366	23.827	973.162	777.848
127.381	23.476	971.987	775.308
128.395	24.032	972.178	777.821
129.410	24.669	971.833	780.261
130.424	24.783	971.509	780.429
131.439	24.746	970.235	779.173
132.454	24.801	969.119	778.449
133.468	24.846	968.146	777.793
134.483	24.689	967.738	776.715
135.497	24.691	967.341	776.335
136.512	24.915	966.519	776.580
137.527	24.978	965.644	776.080
138.541	25.075	964.680	775.656
139.556	25.024	964.261	775.033
140.570	25.147	963.148	774.599
141.585	25.132	962.578	774.006
142.600	25.105	961.940	773.309
143.614	25.060	960.948	772.248
144.629	25.116	960.136	771.770
145.643	25.382	959.533	772.363
146.658	25.280	958.187	770.769
147.673	25.139	956.956	769.107
148.687	24.929	956.488	767.764
149.702	25.025	955.297	767.151
150.716	24.821	954.202	765.330
151.731	24.700	953.501	764.184
152.746	24.874	952.657	764.181
153.760	24.970	952.341	764.271
154.775	25.167	951.463	764.337
155.789	25.128	950.616	763.424
156.804	25.142	950.095	762.999
157.819	25.098	948.378	761.364
158.833	25.252	947.704	761.408
159.848	25.360	946.710	761.001
160.862	25.440	945.933	760.647
161.877	25.160	945.321	758.906
162.892	25.126	944.554	758.079
163.906	25.172	943.741	757.550
164.921	25.205	943.119	757.124
165.935	25.230	941.252	755.664
166.950	25.268	940.997	755.553
167.964	25.232	940.115	754.628
168.979	25.170	938.987	753.395
169.994	25.105	937.964	752.234
171.008	24.961	936.944	750.748
172.023	25.062	936.520	750.765
173.037	25.167	935.814	750.569
174.052	25.100	934.851	749.449
175.067	24.857	934.026	747.709
176.081	24.967	932.661	747.010
177.096	25.011	931.974	746.575
178.110	25.049	931.079	745.949
179.125	24.790	930.194	744.097
180.140	24.547	928.623	741.768
181.154	24.719	928.032	741.941
182.169	24.625	928.205	741.627
183.183	25.003	927.866	742.855
184.198	25.224	927.591	743.489
185.213	25.227	926.735	742.745
186.227	25.219	925.735	741.849
187.242	25.128	925.825	741.479
188.256	25.110	924.760	740.484
189.271	25.283	923.925	740.465
190.286	25.197	923.412	739.631
191.300	25.219	922.390	738.838
192.315	24.707	921.062	735.603
193.329	23.692	919.788	730.348
194.344	23.475	918.630	728.472
195.359	23.883	919.257	730.582
196.373	24.919	919.312	734.819
197.388	25.229	918.829	735.636
198.402	25.201	918.406	735.120
199.417	25.131	917.975	734.422
200.432	25.124	917.462	733.916
201.446	24.876	916.714	732.240
202.461	24.728	915.814	730.851
203.475	24.872	915.212	730.895
204.490	24.377	913.794	727.679
205.504	23.235	911.803	721.380
206.519	23.671	911.672	722.986
207.534	24.533	912.035	726.721
208.548	24.730	911.686	727.178
209.563	25.042	911.371	728.131
210.577	25.043	910.730	727.557
211.592	24.726	910.070	725.682
212.607	25.148	909.524	726.892
213.621	25.401	909.086	727.504
214.636	25.359	908.399	726.719
215.650	25.283	907.893	725.942
216.665	25.309	907.062	725.320
217.680	25.300	906.792	725.002
218.694	25.446	906.068	724.949
219.709	25.050	904.801	722.274
220.723	24.602	904.204	719.931
221.738	24.888	904.052	720.896
222.753	25.156	903.238	721.263
223.767	24.976	902.773	720.104
224.782	25.272	901.698	720.369
225.796	25.310	901.423	720.239
226.811	25.496	900.826	720.443
227.826	24.997	899.868	717.614
228.840	24.122	898.311	712.810
229.855	24.172	897.647	712.420
230.869	24.515	897.393	713.525
231.884	24.041	896.508	710.867
232.899	24.145	895.711	710.589
233.913	24.950	895.789	713.797
234.928	25.105	895.597	714.198
235.942	24.853	895.200	712.814
236.957	24.994	894.628	712.858
237.972	24.765	893.142	710.701
238.986	24.592	892.779	709.663
240.001	24.743	892.140	709.689
241.015	24.760	891.496	709.180
242.030	24.810	890.979	708.908
243.045	24.932	890.366	708.840
244.059	25.070	890.071	709.087
245.074	25.101	889.932	709.037
246.088	25.217	888.679	708.434
247.103	24.842	887.775	706.172
248.117	24.787	887.887	705.980
249.132	25.341	887.506	707.800
250.147	25.672	887.370	708.933
251.161	25.762	886.715	708.699
252.176	25.922	886.368	708.989
253.190	26.015	885.475	708.579
254.205	25.920	885.323	708.022
255.220	26.249	884.380	708.496
256.234	26.235	884.031	708.099
257.249	25.910	883.595	706.414
258.263	26.001	882.487	705.821
259.278	25.858	882.021	704.827
260.293	26.001	881.484	704.892
261.307	26.014	881.164	704.627
262.322	26.132	880.335	704.360
263.336	25.826	879.691	702.591
264.351	25.306	878.619	699.647
265.366	24.332	876.353	693.989
266.380	23.996	875.364	691.840
267.395	24.780	875.839	695.201
268.409	25.601	876.360	698.747
269.424	25.587	875.313	697.793
270.439	25.684	874.783	697.687
271.453	25.880	874.388	698.071
272.468	25.758	873.776	697.046
273.482	25.893	873.491	697.280
274.497	26.187	872.861	697.851
275.512	25.911	871.850	695.917
276.526	25.347	870.720	692.778
277.541	25.516	870.447	693.150
278.555	25.822	870.100	693.991
279.570	25.642	869.740	692.951
280.585	25.460	868.678	691.341
281.599	25.582	868.323	691.469
282.614	25.602	868.141	691.340
283.628	25.208	866.833	688.722
284.643	24.772	865.874	686.227
285.657	25.216	865.903	687.895
286.672	25.255	864.843	687.140
287.687	24.779	864.174	684.728
288.701	25.077	864.176	685.807
289.716	25.444	863.907	686.938
290.730	25.096	862.925	684.764
291.745	24.895	862.175	683.342
292.760	24.901	861.111	682.461
293.774	24.766	860.667	681.536
294.789	25.684	861.687	685.782
295.803	26.328	861.412	687.953
296.818	26.298	861.107	687.536
297.833	26.423	860.525	687.488
298.847	26.049	859.327	685.047
299.862	25.844	858.192	683.305
300.876	25.942	858.115	683.555
301.891	26.297	857.627	684.450
302.906	26.405	856.989	684.292
303.920	25.960	855.895	681.674
304.935	25.953	855.153	680.996
305.949	26.156	855.236	681.771
306.964	26.237	854.868	681.722
307.979	25.956	853.955	679.873
308.993	26.046	853.311	679.640
310.008	26.314	853.276	680.563
311.022	26.582	852.940	681.242
312.037	26.257	852.452	679.570
313.052	26.145	851.462	678.297
314.066	25.980	850.734	677.041
315.081	25.438	848.992	673.563
316.095	24.603	848.145	669.704
317.110	25.089	848.509	671.750
318.125	25.962	848.647	675.071
319.139	25.546	847.615	672.635
320.154	24.353	845.843	666.715
321.168	23.963	844.921	664.473
322.183	24.529	845.524	667.001
323.197	25.385	845.756	670.322
324.212	25.786	845.369	671.450
325.227	25.993	845.144	671.984
326.241	26.055	844.482	671.628
327.256	25.938	843.592	670.425
328.270	25.791	843.340	669.622
329.285	25.832	842.360	668.937
330.300	25.610	841.914	667.699
331.314	25.509	840.612	666.234
332.329	25.443	840.371	665.737
333.343	25.912	839.953	667.086
334.358	26.162	839.978	667.971
335.373	26.145	839.395	667.385
336.387	26.168	838.820	666.954
337.402	26.385	838.558	667.489
338.416	26.606	838.122	667.895
339.431	26.610	837.122	667.054
340.446	26.659	836.960	667.049
341.460	26.918	836.746	667.771
342.475	26.691	836.033	666.309
343.489	26.588	834.933	664.995
344.504	26.475	834.725	664.354
345.519	26.862	834.275	665.359
346.533	27.105	833.801	665.813
347.548	26.980	833.722	665.230
348.562	27.098	833.428	665.370
349.577	27.151	832.713	664.936
350.592	26.906	832.074	663.471
351.606	26.877	831.330	662.711
352.621	26.798	831.390	662.414
353.635	26.796	830.507	661.644
354.650	26.787	829.845	661.024
355.665	26.198	829.238	658.335
356.679	25.318	827.206	653.464
357.694	25.207	827.115	652.928
358.708	25.721	827.156	654.775
359.723	25.788	826.351	654.320
360.738	26.068	826.027	655.024
361.752	26.487	825.951	656.428
362.767	26.616	825.569	656.533
363.781	26.847	825.534	657.283
364.796	27.230	825.074	658.246
365.810	27.400	824.778	658.566
366.825	27.392	824.626	658.359
367.840	27.407	824.093	657.928
368.854	27.169	823.512	656.546
369.869	26.797	822.461	654.308
370.883	26.612	822.182	653.361
371.898	26.697	821.357	652.956
372.913	26.524	820.561	651.641
373.927	26.643	820.061	651.614
374.942	26.710	819.620	651.446
375.956	26.960	818.970	651.771
376.971	26.930	818.676	651.371
377.986	27.157	817.952	651.553
379.000	27.376	817.790	652.150
380.015	27.205	817.455	651.213
381.029	27.172	816.359	650.166
382.044	27.084	815.790	649.338
383.059	27.319	815.211	649.660
384.073	27.114	815.167	648.837
385.088	27.292	814.293	648.715
386.102	27.327	813.985	648.539
387.117	27.136	812.990	647.010
388.132	27.030	812.546	646.221
389.146	26.865	811.955	645.106
390.161	26.384	810.581	642.249
391.175	26.525	810.425	642.570
392.190	26.935	810.654	644.150
393.205	26.835	810.173	643.357
394.219	25.869	808.366	638.443
395.234	24.160	806.019	630.492
396.248	23.534	804.973	627.405
397.263	24.703	805.989	632.276
398.278	26.334	807.644	639.295
399.292	26.839	807.256	640.715
400.307	26.656	806.373	639.312
401.321	26.404	806.122	638.168
402.336	26.600	805.651	638.427
403.350	26.871	805.773	639.424
404.365	27.294	805.861	640.926
405.380	27.523	805.688	641.539
406.394	27.876	805.499	642.573
407.409	28.091	804.939	642.826
408.423	28.056	804.302	642.140
409.438	27.958	803.623	641.197
410.453	27.949	803.417	640.943
411.467	28.083	802.967	640.996
412.482	27.970	802.256	639.978
413.496	27.928	801.927	639.510
414.511	28.095	801.766	639.911
415.526	27.980	801.231	639.025
416.540	27.910	800.864	638.432
417.555	28.019	800.249	638.264
418.569	27.686	799.425	636.388
419.584	27.539	799.223	635.658
420.599	27.555	798.809	635.331
421.613	110.288	1285.903	1460.020
422.628	95.046	1356.858	1460.093
