DTS Sentinel unit serial number:	SN413079Multiplexer serial number:	ORYXHardware model number:	OX4-SRSoftware version number:	ORYX F/W v4.00 Oryx Data Collector v3.7.2.0data status	okinstallation	princeton_trtdifferential loss correction	single-endedforward channel	channel 3reverse channel	N/Adate	2019/09/12time	19:01:04forward acquisition time	15.00reverse acquisition time	0.00gamma	496.2192k internal	0.2319k external	0.2319temperature offset calibration	1.0093default loss term (dB/km)	0.3790temperature slope calibration	1.0000multiplexer offset coefficient	1.0000multiplexer slope coefficient	1.0000fibre end	0.00T internal ref (°C)	32.75T ext. ref 1 (°C)	3.02T ext. ref 2 (°C)	27.31length (m)	temperature (°C)	Stokes	anti-Stokes-747.200	800.000	0.256	0.756
-746.185	-200.000	-0.342	0.001
-745.171	-50.737	-0.740	0.352
-744.156	41.018	0.580	-0.530
-743.142	15.281	0.188	-0.149
-742.127	-200.000	-0.004	0.167
-741.112	-200.000	0.012	0.188
-740.098	-200.000	-0.083	0.763
-739.083	-200.000	-0.031	0.206
-738.069	800.000	0.042	0.159
-737.054	-200.000	-0.164	-0.800
-736.039	277.882	0.074	-0.134
-735.025	49.246	0.539	0.512
-734.010	-8.111	-0.498	-0.339
-732.996	165.336	-0.328	0.469
-731.981	-106.342	0.437	0.099
-730.966	-7.984	-0.363	0.248
-729.952	-200.000	0.018	0.224
-728.937	-200.000	0.122	0.566
-727.923	123.914	-0.367	0.466
-726.908	-7.149	0.119	0.081
-725.894	-54.548	-0.569	0.260
-724.879	62.961	0.663	0.671
-723.864	282.089	-0.023	-0.042
-722.850	302.583	0.514	0.961
-721.835	188.496	-0.174	-0.263
-720.821	800.000	-0.287	-1.044
-719.806	18.646	-0.503	-0.406
-718.791	516.141	-0.172	-0.406
-717.777	235.451	0.035	-0.058
-716.762	-101.393	-0.252	0.062
-715.748	800.000	-0.262	0.762
-714.733	800.000	0.136	-0.422
-713.718	47.580	-0.277	0.262
-712.704	31.242	0.312	-0.270
-711.689	319.350	0.240	0.460
-710.675	800.000	0.123	-0.435
-709.660	200.431	0.275	0.427
-708.645	-93.626	0.626	-0.175
-707.631	-96.542	0.851	-0.227
-706.616	-200.000	0.002	0.028
-705.602	6.195	0.571	0.428
-704.587	-27.267	0.866	-0.509
-703.572	-54.237	-0.227	0.104
-702.558	330.532	-0.212	-0.413
-701.543	104.167	0.376	-0.447
-700.529	184.732	-0.515	0.771
-699.514	-128.631	0.621	0.089
-698.499	113.190	0.141	-0.173
-697.485	-200.000	0.087	-0.578
-696.470	338.053	-0.112	0.219
-695.456	134.816	-0.075	0.098
-694.441	-103.555	0.910	0.216
-693.426	276.805	-0.163	-0.292
-692.412	240.511	0.103	0.174
-691.397	-47.599	-0.638	0.313
-690.383	-200.000	0.114	-0.659
-689.368	-200.000	0.031	-0.708
-688.354	-24.296	0.892	-0.537
-687.339	-92.778	0.341	0.096
-686.324	336.865	-0.221	-0.434
-685.310	319.203	-0.448	-0.858
-684.295	6.384	-0.264	-0.198
-683.281	1.133	-0.826	0.599
-682.266	23.905	-0.180	-0.150
-681.251	-76.138	0.349	0.124
-680.237	-40.192	0.531	-0.279
-679.222	-64.545	1.246	0.511
-678.208	-108.068	-0.441	0.097
-677.193	-200.000	-0.008	0.389
-676.178	800.000	0.122	-0.356
-675.164	-69.018	-0.580	-0.226
-674.149	-48.026	-0.844	-0.412
-673.135	800.000	0.106	-0.457
-672.120	-6.572	-0.437	0.300
-671.105	240.536	-0.019	-0.031
-670.091	-200.000	-0.034	0.870
-669.076	-90.910	-0.159	-0.046
-668.062	10.821	0.631	0.486
-667.047	-100.112	0.556	0.140
-666.032	-140.172	-0.549	-0.058
-665.018	-185.467	0.267	-0.004
-664.003	-141.223	-0.142	0.015
-662.989	18.350	-0.379	-0.305
-661.974	-90.639	0.454	-0.132
-660.959	800.000	0.263	0.856
-659.945	-12.543	0.452	0.298
-658.930	-200.000	-0.070	-0.664
-657.916	-158.118	0.530	0.031
-656.901	523.488	-0.325	0.771
-655.886	219.923	0.524	-0.846
-654.872	-200.000	-0.119	0.586
-653.857	-200.000	-0.048	-0.299
-652.843	410.680	-0.431	-0.922
-651.828	479.409	0.357	-0.817
-650.814	-10.825	1.137	0.757
-649.799	-12.879	-0.664	-0.436
-648.784	237.777	0.235	0.394
-647.770	19.505	-0.330	-0.267
-646.755	-151.784	0.665	0.049
-645.741	-37.824	0.321	-0.172
-644.726	800.000	-0.214	-0.848
-643.711	44.594	0.555	-0.514
-642.697	762.610	0.065	0.177
-641.682	-0.265	-0.631	-0.452
-640.668	-200.000	-0.058	-0.312
-639.653	35.357	0.165	-0.146
-638.638	-113.658	-0.838	0.165
-637.624	-43.615	0.781	-0.397
-636.609	-200.000	-0.100	0.728
-635.595	276.790	-0.318	0.569
-634.580	313.704	-0.223	-0.422
-633.565	-200.000	-0.014	-0.819
-632.551	17.903	0.426	-0.342
-631.536	-200.000	-0.102	-1.366
-630.522	-200.000	0.016	0.438
-629.507	-89.159	-0.824	0.245
-628.492	-18.800	0.588	0.369
-627.478	13.520	0.344	-0.269
-626.463	62.134	0.505	0.507
-625.449	-200.000	0.138	-0.826
-624.434	-200.000	-1.064	0.001
-623.419	174.788	0.539	0.785
-622.405	161.209	0.465	0.654
-621.390	15.282	0.284	-0.224
-620.376	-103.781	0.247	-0.058
-619.361	800.000	-0.220	0.617
-618.346	101.403	-0.335	0.392
-617.332	-200.000	-0.064	-0.292
-616.317	669.931	0.099	-0.259
-615.303	-17.335	-0.596	-0.378
-614.288	-200.000	0.008	0.105
-613.273	-200.000	0.096	1.201
-612.259	13.047	0.303	0.236
-611.244	800.000	-0.074	0.205
-610.230	800.000	0.159	-0.527
-609.215	-32.519	-0.503	0.282
-608.201	800.000	-0.084	-0.269
-607.186	117.148	-0.320	-0.396
-606.171	-80.397	-0.433	-0.145
-605.157	800.000	0.186	-0.632
-604.142	287.006	-0.263	0.478
-603.128	-200.000	-0.147	0.890
-602.113	800.000	-0.131	0.484
-601.098	-77.170	0.501	-0.176
-600.084	-150.885	-0.813	0.062
-599.069	-200.000	0.091	-0.762
-598.055	-200.000	0.030	0.227
-597.040	-90.732	0.329	0.096
-596.025	-95.793	-0.909	0.244
-595.011	647.307	-0.254	-0.652
-593.996	-16.166	0.244	0.156
-592.982	163.819	0.257	-0.364
-591.967	-96.777	-0.670	-0.177
-590.952	-200.000	0.125	-0.735
-589.938	266.197	-0.238	0.417
-588.923	-2.121	-0.228	-0.161
-587.909	225.697	0.355	0.578
-586.894	800.000	0.181	0.540
-585.879	-200.000	0.018	0.185
-584.865	34.047	-0.389	0.341
-583.850	-200.000	-0.057	0.282
-582.836	-200.000	-0.034	0.268
-581.821	-117.134	0.757	-0.139
-580.806	-93.395	0.510	0.142
-579.792	-40.381	-0.687	0.359
-578.777	-82.848	-0.661	0.215
-577.763	131.671	-0.126	-0.163
-576.748	-95.542	0.500	0.135
-575.733	-83.951	-0.453	-0.145
-574.719	305.205	-0.186	-0.348
-573.704	-56.064	0.596	0.267
-572.690	-9.781	-0.217	-0.145
-571.675	41.698	0.361	-0.328
-570.661	-175.689	-0.439	-0.012
-569.646	-91.126	0.260	-0.075
-568.631	394.069	0.170	-0.355
-567.617	391.933	-0.138	0.289
-566.602	-144.608	-0.556	0.052
-565.588	-180.309	0.912	-0.019
-564.573	648.226	0.038	-0.096
-563.558	-147.702	0.574	-0.048
-562.544	659.177	0.200	0.517
-561.529	-61.491	-0.581	0.245
-560.515	365.930	0.203	0.411
-559.500	264.838	0.384	0.671
-558.485	-200.000	-0.067	-0.360
-557.471	-91.775	0.799	-0.228
-556.456	800.000	-0.195	-0.550
-555.442	-69.779	-0.984	0.377
-554.427	103.486	0.296	-0.349
-553.412	253.596	-0.238	0.408
-552.398	-200.000	-0.016	0.423
-551.383	-87.265	-0.339	-0.103
-550.369	-91.631	-0.527	0.151
-549.354	81.318	0.294	-0.319
-548.339	-200.000	0.027	0.776
-547.325	-16.058	-0.542	-0.346
-546.310	800.000	0.048	-0.135
-545.296	-113.434	-0.686	-0.135
-544.281	800.000	0.144	-0.548
-543.266	-32.845	0.320	0.178
-542.252	74.155	-0.072	0.076
-541.237	-156.371	-0.585	0.037
-540.223	-107.730	-0.475	0.104
-539.208	435.770	0.255	0.556
-538.193	471.403	-0.054	-0.121
-537.179	-134.781	-0.568	-0.069
-536.164	-41.986	0.355	0.183
-535.150	68.794	0.160	0.165
-534.135	-200.000	-0.133	0.616
-533.121	800.000	0.042	-0.178
-532.106	-200.000	0.009	0.333
-531.091	74.692	0.301	-0.318
-530.077	-0.289	0.195	0.139
-529.062	-200.000	0.063	0.502
-528.048	-69.238	-0.318	0.123
-527.033	-172.122	-0.431	0.014
-526.018	-70.698	-0.813	0.308
-525.004	-32.374	-0.961	0.538
-523.989	265.048	-0.094	0.164
-522.975	800.000	-0.063	-0.248
-521.960	70.557	0.441	-0.458
-520.945	348.862	-0.287	0.568
-519.931	-118.103	0.909	0.163
-518.916	123.060	-0.457	0.573
-517.902	-200.000	-0.008	-0.861
-516.887	-25.428	-0.113	-0.067
-515.872	-127.517	-0.669	-0.097
-514.858	462.893	0.374	0.837
-513.843	-17.686	-0.811	-0.511
-512.829	-139.549	0.506	0.054
-511.814	800.000	-0.163	0.615
-510.799	-57.006	-0.468	-0.207
-509.785	18.882	0.651	0.523
-508.770	-127.340	-0.564	0.082
-507.756	-124.180	-1.446	-0.227
-506.741	800.000	0.153	0.468
-505.726	391.867	-0.226	-0.470
-504.712	410.865	0.253	-0.538
-503.697	-105.351	-0.438	-0.100
-502.683	105.163	0.120	0.142
-501.668	21.813	0.181	0.147
-500.653	-86.669	-0.495	0.152
-499.639	56.088	-0.228	0.222
-498.624	800.000	0.170	-0.674
-497.610	-38.179	0.301	0.160
-496.595	-123.121	0.413	0.066
-495.581	-200.000	-0.033	0.933
-494.566	-14.929	0.354	0.227
-493.551	11.456	0.129	0.099
-492.537	-33.283	-0.728	-0.404
-491.522	-19.237	0.149	-0.092
-490.508	-46.806	-0.571	0.280
-489.493	592.179	-0.211	-0.521
-488.478	-200.000	0.058	-0.367
-487.464	201.942	0.488	-0.754
-486.449	33.555	-0.320	-0.279
-485.435	-16.322	-1.145	0.728
-484.420	800.000	-0.137	0.521
-483.405	65.789	0.479	-0.486
-482.391	99.240	0.768	0.889
-481.376	107.284	0.422	0.503
-480.362	63.724	-0.426	0.428
-479.347	-200.000	0.031	0.189
-478.332	-150.709	0.090	0.007
-477.318	-3.206	0.578	-0.403
-476.303	-169.491	0.828	-0.030
-475.289	-200.000	-0.112	-0.763
-474.274	-200.000	1.227	0.000
-473.259	-192.466	0.518	0.005
-472.245	-200.000	0.067	-0.638
-471.230	-21.788	0.842	-0.513
-470.216	-200.000	-0.023	-0.735
-469.201	-200.000	-0.068	-0.317
-468.186	800.000	-0.332	0.978
-467.172	-27.609	0.522	0.303
-466.157	-118.979	1.022	-0.179
-465.143	179.681	0.510	-0.748
-464.128	-102.643	0.662	-0.158
-463.113	-200.000	-0.034	0.307
-462.099	800.000	0.230	0.773
-461.084	-107.858	-0.305	-0.066
-460.070	64.536	-0.279	-0.281
-459.055	-200.000	0.132	1.377
-458.040	800.000	0.258	1.047
-457.026	-200.000	-0.045	0.617
-456.011	33.454	-0.056	-0.049
-454.997	800.000	0.161	0.633
-453.982	29.870	0.659	-0.562
-452.968	113.785	-0.696	0.845
-451.953	-1.754	-0.406	-0.286
-450.938	274.394	-0.392	-0.693
-449.924	-115.727	0.464	-0.087
-448.909	-166.180	0.390	0.017
-447.895	-200.000	-0.060	-0.394
-446.880	800.000	-0.082	-0.256
-445.865	-200.000	0.056	-0.441
-444.851	479.083	-0.107	0.242
-443.836	411.565	-0.168	-0.357
-442.822	237.772	0.221	0.366
-441.807	-200.000	0.142	0.753
-440.792	-142.075	0.782	0.078
-439.778	-33.712	-0.410	-0.226
-438.763	-200.000	-0.003	0.075
-437.749	-47.554	-0.291	0.141
-436.734	-125.364	-0.719	0.110
-435.719	-68.846	-0.578	0.223
-434.705	800.000	-0.046	0.146
-433.690	562.278	-0.255	-0.617
-432.676	-163.981	0.771	0.036
-431.661	-107.942	-0.936	0.203
-430.646	114.598	0.344	-0.419
-429.632	-77.395	-0.899	-0.312
-428.617	800.000	0.198	0.548
-427.603	-125.089	1.081	-0.166
-426.588	-200.000	0.054	0.251
-425.573	-31.740	-0.858	0.481
-424.559	-3.700	-0.594	-0.412
-423.544	-108.445	0.817	-0.176
-422.530	89.373	-0.048	0.053
-421.515	800.000	-0.034	0.143
-420.500	-200.000	-0.049	-0.224
-419.486	181.873	0.595	-0.875
-418.471	-151.203	-0.190	-0.014
-417.457	800.000	0.241	-0.741
-416.442	-200.000	-0.057	0.286
-415.428	800.000	-0.170	-0.534
-414.413	66.300	0.131	0.133
-413.398	800.000	0.235	-0.931
-412.384	-93.236	-0.224	-0.062
-411.369	-200.000	-0.006	-0.095
-410.355	103.033	0.269	-0.314
-409.340	-153.000	-0.641	-0.045
-408.325	-200.000	0.072	0.592
-407.311	-10.023	-0.438	0.291
-406.296	-64.428	-0.467	-0.189
-405.282	238.489	0.154	-0.255
-404.267	800.000	-0.498	-1.769
-403.252	-90.062	-0.112	-0.033
-402.238	80.551	0.579	0.622
-401.223	169.851	-0.013	0.019
-400.209	-99.051	-0.297	0.075
-399.194	49.494	0.422	-0.397
-398.179	800.000	-0.143	-0.495
-397.165	84.427	0.453	-0.495
-396.150	4.846	-0.540	-0.396
-395.136	-184.082	-0.760	-0.013
-394.121	-57.462	0.293	-0.128
-393.106	120.675	0.238	-0.295
-392.092	158.532	0.342	0.474
-391.077	-200.000	-0.033	0.832
-390.063	-200.000	-0.127	-0.819
-389.048	-75.533	-0.304	-0.108
-388.033	-183.782	1.028	0.017
-387.019	-134.821	0.550	-0.067
-386.004	-87.581	-0.843	-0.254
-384.990	-71.137	0.553	-0.207
-383.975	-81.376	0.225	0.074
-382.960	-17.013	-0.175	0.110
-381.946	-200.000	0.085	1.122
-380.931	-134.586	0.266	0.032
-379.917	-0.861	-0.252	-0.178
-378.902	76.719	-0.449	-0.475
-377.888	-2.025	-0.627	0.440
-376.873	-151.358	0.547	0.041
-375.858	-200.000	-0.143	0.697
-374.844	-200.000	-0.008	0.308
-373.829	655.836	-0.058	0.149
-372.815	-200.000	0.049	-0.878
-371.800	-41.975	0.476	-0.243
-370.785	-4.488	0.733	-0.505
-369.771	193.477	0.351	-0.530
-368.756	-67.913	-0.917	0.357
-367.742	-200.000	-0.148	-0.737
-366.727	-69.101	-0.635	0.244
-365.712	-87.011	0.405	-0.123
-364.698	349.437	-0.296	-0.582
-363.683	-168.776	0.353	0.013
-362.669	-68.553	0.443	0.171
-361.654	-128.040	-0.714	-0.102
-360.639	-125.841	-0.478	-0.072
-359.625	-56.756	0.452	0.199
-358.610	800.000	0.217	-0.725
-357.596	138.708	0.782	-1.023
-356.581	-10.971	-0.234	-0.154
-355.566	33.790	0.265	0.230
-354.552	127.334	0.293	-0.370
-353.537	-82.813	0.543	-0.175
-352.523	616.699	0.031	-0.078
-351.508	-200.000	-0.011	0.423
-350.493	-200.000	0.020	0.716
-349.479	-131.220	0.359	0.048
-348.464	126.775	0.489	0.617
-347.450	24.519	0.611	0.503
-346.435	175.171	-0.128	-0.185
-345.420	499.147	0.185	0.425
-344.406	-156.826	-0.437	-0.027
-343.391	-200.000	-0.065	0.299
-342.377	-200.000	0.156	0.000
-341.362	399.705	-0.177	-0.370
-340.348	91.392	-0.558	-0.624
-339.333	-80.258	0.597	0.199
-338.318	-34.426	0.530	0.289
-337.304	-75.161	0.729	-0.260
-336.289	-15.347	0.269	-0.171
-335.275	800.000	0.131	-0.405
-334.260	42.512	0.616	-0.558
-333.245	716.058	-0.326	-0.860
-332.231	676.286	-0.386	-0.998
-331.216	-40.652	-0.208	0.107
-330.202	301.072	-0.119	0.219
-329.187	65.583	0.149	-0.151
-328.172	-98.248	0.782	-0.200
-327.158	678.973	-0.198	0.512
-326.143	-41.777	-0.303	-0.155
-325.129	739.194	-0.165	0.440
-324.114	589.970	0.388	0.953
-323.099	800.000	-0.030	-0.127
-322.085	589.592	0.401	-0.984
-321.070	-59.088	-0.704	0.302
-320.056	20.634	0.216	0.174
-319.041	252.109	-0.098	0.166
-318.026	-54.065	-0.312	-0.141
-317.012	182.402	-0.293	0.430
-315.997	611.086	0.243	0.603
-314.983	-103.557	-0.801	0.187
-313.968	-200.000	0.022	-0.753
-312.953	563.626	-0.302	0.728
-311.939	-113.514	-0.576	-0.112
-310.924	-117.921	0.520	-0.093
-309.910	-99.462	0.198	-0.049
-308.895	-74.587	-0.706	0.253
-307.880	-4.421	-0.642	-0.442
-306.866	-5.310	-0.189	0.129
-305.851	-146.072	0.328	-0.029
-304.837	70.987	-0.860	0.886
-303.822	-63.394	0.481	0.197
-302.807	-200.000	-0.098	-0.624
-301.793	-7.949	0.566	-0.379
-300.778	228.446	-0.244	-0.395
-299.764	35.100	0.462	-0.402
-298.749	-4.835	-0.088	0.061
-297.735	-42.907	0.200	-0.101
-296.720	-200.000	0.014	-0.547
-295.705	-93.367	0.432	-0.119
-294.691	214.484	0.366	0.577
-293.676	272.108	0.045	0.079
-292.662	-157.295	-0.129	0.008
-291.647	-106.249	0.982	-0.219
-290.632	-200.000	-0.030	-0.149
-289.618	-200.000	0.059	0.315
-288.603	-22.054	0.088	0.053
-287.589	-91.431	-0.143	0.040
-286.574	-72.339	0.588	0.216
-285.559	-90.050	-0.445	0.129
-284.545	119.839	-0.257	0.316
-283.530	-79.125	0.549	0.185
-282.516	-200.000	0.003	-0.156
-281.501	-172.392	-0.705	-0.022
-280.486	-99.568	0.053	0.013
-279.472	-200.000	-0.002	0.251
-278.457	-159.232	-1.254	-0.070
-277.443	5.872	0.411	-0.302
-276.428	60.901	0.086	0.085
-275.413	-200.000	-0.038	0.758
-274.399	288.852	-0.366	-0.659
-273.384	-200.000	0.093	0.673
-272.370	-165.059	-0.129	-0.006
-271.355	-67.718	0.536	0.209
-270.340	-200.000	-0.014	-0.139
-269.326	146.962	0.255	0.340
-268.311	179.676	0.245	-0.357
-267.297	97.897	0.452	0.516
-266.282	-22.566	0.176	-0.105
-265.267	-101.075	0.187	-0.045
-264.253	49.608	0.564	-0.527
-263.238	-111.096	0.513	-0.104
-262.224	215.721	-0.155	0.244
-261.209	415.277	0.213	0.451
-260.195	800.000	0.159	0.638
-259.180	-51.290	0.285	0.132
-258.165	200.421	-0.340	0.519
-257.151	235.132	-0.232	0.380
-256.136	-200.000	-0.052	-0.557
-255.122	254.925	-0.240	0.409
-254.107	49.313	-0.365	0.340
-253.092	534.560	-0.241	0.568
-252.078	-168.043	0.866	-0.034
-251.063	-175.703	0.585	0.016
-250.049	26.845	-0.588	0.489
-249.034	219.178	-0.467	0.741
-248.019	53.502	-0.290	-0.276
-247.005	19.243	-0.534	-0.425
-245.990	-200.000	0.051	0.318
-244.976	-18.990	-0.594	0.366
-243.961	43.609	-0.144	0.130
-242.946	-9.209	-0.211	0.140
-241.932	-16.186	-0.163	-0.103
-240.917	5.193	-0.527	0.385
-239.903	800.000	-0.207	0.601
-238.888	206.398	-0.237	0.366
-237.873	-143.273	0.588	-0.056
-236.859	367.801	-0.091	0.183
-235.844	800.000	0.173	-0.645
-234.830	-107.588	0.840	0.182
-233.815	800.000	-0.075	0.239
-232.800	800.000	0.262	-0.726
-231.786	22.212	0.333	0.270
-230.771	443.471	-0.233	0.507
-229.757	-30.404	-0.088	0.049
-228.742	800.000	0.153	-0.637
-227.727	800.000	0.164	-0.449
-226.713	-54.213	0.315	0.142
-225.698	-58.568	-0.738	0.318
-224.684	800.000	-0.197	-0.611
-223.669	-26.195	-0.335	-0.195
-222.655	800.000	0.196	-0.616
-221.640	-45.037	-0.282	-0.139
-220.625	-107.709	0.258	-0.056
-219.611	25.821	0.168	0.139
-218.596	190.168	0.607	-0.904
-217.582	221.656	0.256	0.408
-216.567	-200.000	-0.005	0.399
-215.552	5.656	0.808	0.592
-214.538	86.161	0.156	0.171
-213.523	-200.000	-0.050	0.314
-212.509	-143.368	-0.868	-0.082
-211.494	-14.730	0.027	-0.017
-210.479	785.127	-0.422	-1.146
-209.465	159.981	0.417	0.576
-208.450	-200.000	0.094	0.420
-207.436	266.124	-0.045	0.078
-206.421	-69.696	0.608	0.230
-205.406	-200.000	0.065	-0.301
-204.392	253.640	0.242	-0.410
-203.377	800.000	-0.081	-0.343
-202.363	130.130	-0.205	-0.259
-201.348	800.000	-0.043	0.170
-200.333	-152.359	0.268	0.019
-199.319	-117.423	0.135	-0.024
-198.304	-127.456	0.187	0.027
-197.290	4.374	1.199	0.870
-196.275	-196.922	0.301	0.002
-195.260	-136.943	0.371	-0.042
-194.246	-43.471	0.189	0.095
-193.231	800.000	-0.025	-0.074
-192.217	87.413	-0.433	-0.474
-191.202	-59.465	0.699	0.298
-190.187	-48.092	-1.137	-0.544
-189.173	-103.779	-1.140	0.264
-188.158	671.565	0.126	-0.322
-187.144	157.118	0.810	-1.109
-186.129	196.035	0.224	0.337
-185.114	545.526	0.115	0.272
-184.100	346.755	-0.074	-0.145
-183.085	-144.025	0.405	0.038
-182.071	-113.710	-0.607	-0.117
-181.056	38.984	-0.121	0.107
-180.042	-148.293	-0.771	-0.063
-179.027	-200.000	-0.030	0.340
-178.012	800.000	-0.164	-0.575
-176.998	-51.261	0.629	-0.291
-175.983	-115.954	-0.530	-0.098
-174.969	120.634	-0.184	-0.226
-173.954	188.786	-0.127	-0.187
-172.939	800.000	-0.122	0.393
-171.925	-43.900	0.780	-0.388
-170.910	-200.000	0.003	0.360
-169.896	1.093	0.546	-0.388
-168.881	-141.126	-0.390	-0.039
-167.866	148.625	-0.432	0.578
-166.852	800.000	0.009	0.028
-165.837	92.482	0.496	-0.554
-164.823	800.000	-0.044	-0.149
-163.808	99.944	-0.328	0.376
-162.793	90.967	0.833	-0.923
-161.779	-38.129	-0.579	-0.304
-160.764	-73.351	-0.184	0.067
-159.750	-94.392	0.077	-0.021
-158.735	206.031	-0.132	0.202
-157.720	718.894	-0.259	0.681
-156.706	19.469	-0.241	-0.191
-155.691	-106.803	-0.659	-0.144
-154.677	-200.000	-0.030	-1.017
-153.662	115.461	-0.280	0.339
-152.647	77.098	-0.235	0.247
-151.633	-200.000	-0.074	0.416
-150.618	-200.000	-0.061	-0.604
-149.604	-200.000	-0.036	-0.295
-148.589	95.265	0.383	-0.431
-147.574	-8.391	0.178	0.118
-146.560	49.822	-0.223	-0.208
-145.545	-200.000	-0.036	-0.271
-144.531	-200.000	0.006	-0.341
-143.516	329.085	-0.311	-0.591
-142.502	51.585	0.256	0.240
-141.487	800.000	-0.052	0.164
-140.472	467.432	0.247	-0.547
-139.458	21.354	0.432	-0.347
-138.443	-90.401	0.189	0.054
-137.429	377.869	0.186	-0.376
-136.414	-200.000	0.126	0.706
-135.399	-27.517	-0.194	-0.111
-134.385	-97.062	-0.591	0.153
-133.370	-169.519	-0.603	-0.022
-132.356	-27.698	-0.381	0.218
-131.341	-120.094	0.581	-0.098
-130.326	-121.666	-0.525	0.086
-129.312	28.686	-0.504	-0.421
-128.297	-6.444	0.442	-0.298
-127.283	485.900	-0.248	0.558
-126.268	-152.524	0.431	-0.031
-125.253	800.000	0.280	0.945
-124.239	644.984	-0.265	0.668
-123.224	171.485	-0.083	-0.118
-122.210	800.000	0.075	0.230
-121.195	800.000	-0.129	-0.507
-120.180	-200.000	0.010	0.103
-119.166	234.192	0.396	0.644
-118.151	-193.828	0.205	0.002
-117.137	-6.598	0.170	-0.115
-116.122	-17.175	0.409	0.255
-115.107	-28.181	-0.269	0.154
-114.093	800.000	0.167	-0.607
-113.078	-200.000	0.004	0.063
-112.064	-175.779	0.504	-0.013
-111.049	213.852	-0.254	0.396
-110.034	80.310	0.308	0.328
-109.020	113.089	-0.358	0.428
-108.005	641.506	-0.141	-0.353
-106.991	-160.230	0.670	-0.036
-105.976	-84.152	-0.472	0.148
-104.962	-200.000	-0.218	1.060
-103.947	-200.000	0.003	-0.069
-102.932	76.760	-0.297	-0.311
-101.918	229.736	-0.329	-0.530
-100.903	-137.925	0.147	-0.016
-99.889	-136.059	0.702	-0.081
-98.874	75.967	0.632	0.659
-97.859	800.000	-0.250	0.692
-96.845	-200.000	-0.034	0.508
-95.830	-135.432	0.297	0.035
-94.816	800.000	-0.151	0.577
-93.801	-64.482	-0.272	-0.109
-92.786	-200.000	0.134	0.758
-91.772	258.447	-0.145	-0.246
-90.757	-200.000	-0.070	-0.833
-89.743	150.654	-0.396	0.531
-88.728	67.126	0.659	0.663
-87.713	156.721	-0.375	0.511
-86.699	37.059	-0.230	0.201
-85.684	800.000	0.084	-0.327
-84.670	546.771	0.218	0.515
-83.655	372.903	0.387	0.776
-82.640	177.113	-0.184	-0.264
-81.626	458.144	0.209	0.458
-80.611	-16.891	-0.261	-0.163
-79.597	-43.198	-0.444	-0.222
-78.582	-68.204	-0.638	-0.245
-77.567	800.000	-0.031	-0.090
-76.553	-47.441	1.064	-0.510
-75.538	24.487	-0.435	-0.355
-74.524	-200.000	0.014	-0.335
-73.509	-200.000	-0.002	-0.109
-72.494	-187.857	-0.566	-0.007
-71.480	800.000	0.128	0.453
-70.465	98.198	0.374	0.425
-69.451	-200.000	-0.028	0.718
-68.436	205.370	-0.025	0.038
-67.422	800.000	0.144	0.441
-66.407	377.593	0.366	0.738
-65.392	-125.907	-0.585	0.087
-64.378	800.000	0.248	-0.703
-63.363	14.660	0.297	0.229
-62.349	-200.000	0.053	0.703
-61.334	7.979	-1.467	-1.083
-60.319	152.651	0.767	1.032
-59.305	70.310	-0.702	-0.715
-58.290	46.121	1.115	1.017
-57.276	304.265	0.615	1.123
-56.261	-200.000	96.366	586.595
-55.246	662.036	1360.417	3453.007
-54.232	202.955	2522.874	3838.860
-53.217	117.604	2144.069	2598.124
-52.203	43.079	1695.365	1522.978
-51.188	35.811	1510.140	1307.373
-50.173	33.804	1483.412	1270.767
-49.159	53.929	1534.822	1452.258
-48.144	54.501	1552.951	1473.246
-47.130	36.012	1511.312	1309.544
-46.115	33.031	1497.848	1277.701
-45.100	32.822	1494.259	1273.182
-44.086	32.804	1490.158	1269.512
-43.071	32.974	1488.928	1269.561
-42.057	32.820	1487.624	1267.363
-41.042	32.668	1487.242	1265.970
-40.027	32.762	1485.611	1265.158
-39.013	32.797	1484.023	1263.989
-37.998	32.869	1482.502	1263.128
-36.984	32.564	1482.066	1260.666
-35.969	32.812	1480.434	1260.881
-34.954	32.612	1479.211	1258.454
-33.940	32.457	1478.485	1256.755
-32.925	32.867	1475.908	1257.246
-31.911	32.883	1475.127	1256.638
-30.896	32.955	1474.162	1256.243
-29.881	32.971	1470.976	1253.584
-28.867	32.690	1471.711	1252.297
-27.852	32.799	1468.595	1250.319
-26.838	32.930	1467.132	1249.891
-25.823	32.681	1466.850	1247.953
-24.809	32.770	1464.929	1246.856
-23.794	32.812	1464.330	1246.572
-22.779	32.689	1461.513	1243.317
-21.765	32.665	1461.325	1242.949
-20.750	32.605	1461.279	1242.462
-19.736	32.568	1459.716	1240.840
-18.721	32.836	1457.773	1240.904
-17.706	32.738	1457.117	1239.652
-16.692	32.919	1455.288	1239.234
-15.677	33.145	1453.680	1239.296
-14.663	32.733	1453.474	1236.371
-13.648	32.734	1452.136	1235.187
-12.633	32.430	1452.951	1233.844
-11.619	32.675	1451.064	1233.796
-10.604	32.717	1450.777	1233.774
-9.590	32.791	1448.735	1232.472
-8.575	32.642	1449.083	1231.745
-7.560	32.766	1447.664	1231.301
-6.546	32.830	1446.354	1230.555
-5.531	32.795	1445.182	1229.281
-4.517	32.818	1444.786	1229.045
-3.502	32.590	1445.408	1228.042
-2.487	32.681	1442.927	1226.478
-1.473	32.759	1442.025	1226.168
-0.458	32.773	1440.773	1225.143
0.556	33.647	1431.243	1213.195
1.571	30.458	1405.914	1171.546
2.586	26.957	1346.654	1100.874
3.600	25.145	1267.973	1026.105
4.615	23.618	1222.217	980.559
5.629	20.288	1164.511	916.622
6.644	11.064	1080.008	804.638
7.659	4.197	1038.698	741.054
8.673	3.267	1033.521	732.869
9.688	2.931	1030.262	728.900
10.702	2.873	1027.772	726.802
11.717	3.010	1026.014	726.140
12.731	6.147	1029.275	743.231
13.746	15.397	1042.115	796.537
14.761	23.160	1050.466	839.849
15.775	24.479	1053.839	848.744
16.790	24.255	1053.176	847.074
17.804	23.998	1051.731	844.616
18.819	23.892	1050.711	843.222
19.834	23.813	1049.203	841.559
20.848	24.073	1049.006	842.561
21.863	23.988	1049.145	842.194
22.877	24.361	1047.808	842.808
23.892	24.073	1048.155	841.652
24.907	24.115	1046.758	840.654
25.921	23.618	1047.199	838.586
26.936	23.629	1046.023	837.623
27.950	23.496	1043.858	835.186
28.965	23.631	1043.772	835.679
29.980	23.874	1041.479	834.914
30.994	23.936	1041.433	835.091
32.009	23.877	1040.594	834.069
33.023	24.103	1039.193	833.929
34.038	23.851	1039.308	832.768
35.053	23.768	1038.816	831.915
36.067	24.072	1036.878	831.709
37.082	23.499	1036.633	828.761
38.096	23.822	1035.481	829.271
39.111	23.730	1034.901	828.306
40.126	24.142	1033.755	829.234
41.140	23.978	1033.001	827.795
42.155	23.530	1031.818	824.690
43.169	23.449	1030.815	823.441
44.184	23.499	1029.228	822.331
45.199	23.215	1029.034	820.786
46.213	23.214	1027.824	819.746
47.228	23.269	1027.334	819.536
48.242	23.589	1026.431	820.220
49.257	23.929	1025.882	821.282
50.271	24.209	1024.823	821.650
51.286	24.100	1024.214	820.587
52.301	23.991	1023.938	819.790
53.315	24.128	1024.016	820.414
54.330	24.107	1021.836	818.499
55.344	24.056	1021.072	817.578
56.359	23.798	1020.628	815.968
57.374	24.046	1018.982	815.716
58.388	23.746	1019.740	814.874
59.403	23.898	1017.943	814.063
60.417	23.539	1017.336	811.860
61.432	23.404	1017.059	810.949
62.447	23.597	1016.174	811.057
63.461	23.440	1015.300	809.570
64.476	23.546	1014.352	809.228
65.490	23.505	1013.774	808.507
66.505	23.429	1012.206	806.839
67.520	23.222	1012.446	806.013
68.534	23.428	1011.997	806.525
69.549	23.068	1011.057	804.069
70.563	23.005	1010.244	803.062
71.578	23.154	1009.643	803.192
72.593	22.701	1008.318	800.011
73.607	22.737	1006.226	798.445
74.622	22.507	1006.447	797.508
75.636	23.000	1004.277	797.943
76.651	22.827	1004.731	797.451
77.666	23.086	1003.921	797.906
78.680	23.054	1003.234	797.146
79.695	23.019	1002.283	796.163
80.709	22.956	1002.614	796.070
81.724	23.289	1002.185	797.159
82.739	23.363	1000.752	796.283
83.753	23.358	999.607	795.280
84.768	23.651	998.859	795.926
85.782	24.142	999.751	798.771
86.797	24.088	999.462	798.225
87.812	24.357	997.414	797.724
88.826	24.240	996.256	796.201
89.841	23.957	996.518	795.079
90.855	24.198	994.803	794.716
91.870	24.110	994.296	793.847
92.884	24.247	993.760	793.958
93.899	24.022	993.663	792.808
94.914	24.318	991.844	792.602
95.928	24.159	990.579	790.817
96.943	24.153	989.998	790.256
97.957	23.992	989.275	788.894
98.972	23.862	988.586	787.700
99.987	23.996	987.829	787.622
101.001	23.931	987.042	786.636
102.016	24.145	986.787	787.310
103.030	23.845	985.248	784.688
104.045	23.848	984.603	784.115
105.060	24.104	983.655	784.423
106.074	24.076	982.572	783.363
107.089	24.043	981.818	782.548
108.103	23.893	981.118	781.262
109.118	24.208	978.353	780.374
110.133	23.632	979.015	778.308
111.147	23.420	977.866	776.396
112.162	23.372	976.138	774.746
113.176	23.759	974.773	775.280
114.191	23.742	974.162	774.656
115.206	23.425	974.924	773.806
116.220	23.228	973.047	771.392
117.235	23.203	972.472	770.758
118.249	23.374	972.059	771.108
119.264	23.246	971.616	770.129
120.279	22.771	970.426	767.054
121.293	22.992	969.802	767.453
122.308	22.940	969.119	766.618
123.322	22.942	968.059	765.722
124.337	22.802	967.435	764.554
125.352	22.576	965.743	762.174
126.366	23.106	963.654	762.743
127.381	22.902	963.319	761.530
128.395	22.838	963.619	761.422
129.410	23.835	961.852	764.250
130.424	23.567	961.871	763.043
131.439	23.666	960.763	762.523
132.454	23.347	960.784	761.103
133.468	23.569	959.862	761.257
134.483	23.665	958.764	760.731
135.497	23.973	957.410	760.908
136.512	23.911	957.072	760.304
137.527	23.805	957.272	759.944
138.541	23.866	955.787	758.959
139.556	23.755	955.320	758.045
140.570	23.763	954.612	757.450
141.585	23.690	954.087	756.657
142.600	24.226	953.340	758.277
143.614	24.177	952.350	757.217
144.629	24.107	952.914	757.301
145.643	24.157	951.358	756.207
146.658	24.211	950.712	755.858
147.673	24.078	948.744	753.664
148.687	23.888	948.411	752.527
149.702	23.817	947.371	751.338
150.716	23.457	947.072	749.509
151.731	23.538	945.742	748.733
152.746	23.694	944.628	748.442
153.760	23.920	942.782	747.864
154.775	23.801	943.127	747.572
155.789	24.278	942.188	748.764
156.804	23.962	942.023	747.241
157.819	24.004	940.770	746.356
158.833	23.964	940.055	745.555
159.848	24.312	939.650	746.626
160.862	24.587	939.031	747.218
161.877	24.110	937.689	744.094
162.892	24.137	936.425	743.136
163.906	23.838	935.771	741.304
164.921	24.060	934.869	741.448
165.935	24.000	934.110	740.531
166.950	23.732	932.867	738.366
167.964	23.472	933.436	737.669
168.979	24.068	930.573	737.814
169.994	23.805	930.269	736.417
171.008	23.930	929.706	736.423
172.023	24.107	928.566	736.188
173.037	24.203	928.153	736.190
174.052	24.151	927.409	735.321
175.067	24.441	926.268	735.546
176.081	23.969	925.634	733.034
177.096	23.929	924.645	732.022
178.110	23.105	923.960	728.025
179.125	22.911	923.873	727.092
180.140	23.294	921.893	727.044
181.154	23.156	921.687	726.249
182.169	23.244	922.618	727.280
183.183	24.047	921.188	729.382
184.198	23.993	919.976	728.139
185.213	23.955	919.648	727.656
186.227	23.667	919.525	726.317
187.242	24.243	917.774	727.222
188.256	24.226	917.739	727.060
189.271	24.206	916.661	726.059
190.286	24.132	915.566	724.828
191.300	24.162	915.546	724.870
192.315	24.024	913.259	722.435
193.329	23.127	912.107	717.821
194.344	22.855	912.224	716.744
195.359	23.406	911.468	718.323
196.373	23.581	912.165	719.519
197.388	24.062	911.401	720.798
198.402	24.285	911.023	721.337
199.417	24.181	910.915	720.767
200.432	24.111	912.127	721.379
201.446	24.374	910.703	721.255
202.461	24.250	910.040	720.165
203.475	24.779	908.595	721.088
204.490	24.327	908.257	718.937
205.504	23.876	906.569	715.721
206.519	23.884	905.839	715.113
207.534	24.048	906.016	715.851
208.548	24.085	905.366	715.420
209.563	24.139	904.676	715.031
210.577	24.321	904.224	715.340
211.592	23.996	903.427	713.345
212.607	24.509	902.490	714.592
213.621	24.608	902.840	715.206
214.636	24.597	901.825	714.294
215.650	23.984	902.377	712.213
216.665	24.238	901.081	712.143
217.680	24.463	899.554	711.770
218.694	24.470	899.650	711.812
219.709	24.253	899.149	710.488
220.723	24.408	897.871	710.030
221.738	24.038	897.687	708.352
222.753	24.180	896.940	708.262
223.767	24.319	895.435	707.562
224.782	24.160	895.212	706.692
225.796	24.333	895.519	707.561
226.811	24.367	893.936	706.382
227.826	24.481	894.010	706.829
228.840	24.015	892.529	703.753
229.855	23.336	892.714	701.151
230.869	23.600	891.573	701.234
231.884	23.575	891.095	700.700
232.899	23.564	890.144	699.844
233.913	23.716	889.748	700.072
234.928	23.987	888.475	700.074
235.942	23.769	887.954	698.746
236.957	23.583	887.136	697.310
237.972	23.534	885.922	696.099
238.986	23.208	886.833	695.472
240.001	23.134	885.908	694.395
241.015	23.553	885.075	695.323
242.030	23.819	883.899	695.381
243.045	23.868	883.752	695.393
244.059	24.096	882.076	694.902
245.074	23.929	882.322	694.386
246.088	24.043	882.718	695.078
247.103	23.674	882.952	693.763
248.117	24.351	881.285	695.030
249.132	24.583	881.365	695.935
250.147	24.849	881.451	696.977
251.161	25.161	880.499	697.377
252.176	25.047	880.013	696.486
253.190	25.398	878.969	696.960
254.205	25.052	879.039	695.611
255.220	25.070	879.512	695.995
256.234	25.243	877.187	694.762
257.249	25.035	876.706	693.516
258.263	24.721	876.803	692.316
259.278	24.783	876.246	692.053
260.293	25.208	874.818	692.508
261.307	25.351	873.226	691.735
262.322	25.252	873.867	691.800
263.336	25.127	874.094	691.438
264.351	25.084	872.958	690.311
265.366	24.813	872.656	688.969
266.380	24.553	871.729	687.174
267.395	25.055	870.829	688.335
268.409	24.967	871.794	688.698
269.424	24.507	870.716	686.019
270.439	24.839	869.686	686.420
271.453	25.094	868.753	686.600
272.468	24.783	867.717	684.530
273.482	25.186	866.960	685.411
274.497	24.951	866.632	684.196
275.512	24.817	865.970	683.098
276.526	24.883	865.152	682.646
277.541	24.691	864.988	681.724
278.555	24.841	864.566	681.904
279.570	25.064	863.940	682.199
280.585	25.203	863.287	682.150
281.599	25.402	861.945	681.783
282.614	25.642	860.732	681.673
283.628	24.700	861.364	678.540
284.643	24.775	859.902	677.614
285.657	24.592	860.446	677.290
286.672	24.645	858.953	676.255
287.687	24.666	859.172	676.445
288.701	25.020	858.763	677.401
289.716	24.981	857.879	676.500
290.730	24.937	857.694	676.128
291.745	24.753	857.063	674.874
292.760	24.792	856.274	674.340
293.774	24.806	855.410	673.654
294.789	25.342	855.803	675.922
295.803	25.827	854.518	676.671
296.818	25.116	855.037	674.347
297.833	25.347	852.779	673.372
298.847	24.947	852.600	671.671
299.862	24.923	852.513	671.455
300.876	25.103	851.503	671.272
301.891	24.944	851.623	670.712
302.906	25.210	851.987	671.936
303.920	25.200	851.570	671.512
304.935	25.314	849.819	670.498
305.949	25.718	849.526	671.713
306.964	25.676	848.629	670.790
307.979	25.459	847.452	668.991
308.993	25.152	847.474	667.808
310.008	25.163	846.330	666.887
311.022	25.242	846.372	667.154
312.037	25.363	845.705	667.021
313.052	25.328	845.492	666.663
314.066	25.122	843.914	664.594
315.081	24.507	843.914	662.257
316.095	24.387	843.422	661.366
317.110	24.782	842.504	662.051
318.125	24.805	842.520	662.092
319.139	24.650	841.721	660.833
320.154	24.251	839.777	657.774
321.168	24.371	838.809	657.399
322.183	24.289	839.192	657.339
323.197	24.430	840.123	658.530
324.212	24.733	839.037	658.736
325.227	24.665	838.455	657.973
326.241	24.694	837.152	656.998
327.256	24.524	836.527	655.824
328.270	24.582	836.369	655.856
329.285	24.381	835.585	654.445
330.300	24.580	835.104	654.740
331.314	24.122	834.989	652.913
332.329	24.037	834.387	652.075
333.343	24.903	834.134	654.987
334.358	25.340	833.455	655.996
335.373	25.036	833.696	655.017
336.387	25.017	832.007	653.560
337.402	24.973	832.036	653.366
338.416	25.440	830.944	654.150
339.431	25.814	831.695	656.046
340.446	25.689	831.245	655.177
341.460	25.827	831.183	655.575
342.475	26.110	828.974	654.799
343.489	25.828	829.211	653.906
344.504	25.817	828.810	653.494
345.519	26.354	828.162	654.868
346.533	26.164	827.487	653.589
347.548	25.717	827.203	651.689
348.562	26.088	826.506	652.424
349.577	25.237	826.574	649.343
350.592	25.378	826.143	649.456
351.606	25.330	825.940	649.066
352.621	25.429	824.350	648.116
353.635	25.458	824.038	647.917
354.650	25.431	822.852	646.830
355.665	24.854	823.681	645.347
356.679	25.010	822.302	644.771
357.694	25.231	821.573	644.935
358.708	25.512	821.313	645.683
359.723	25.082	820.922	643.776
360.738	25.364	819.598	643.690
361.752	25.161	819.317	642.686
362.767	25.265	819.427	643.087
363.781	25.386	818.997	643.126
364.796	25.942	819.231	645.243
365.810	25.699	819.481	644.515
366.825	26.201	817.716	644.861
367.840	26.026	817.963	644.374
368.854	25.751	817.888	643.277
369.869	26.022	816.730	643.274
370.883	25.619	816.558	641.644
371.898	25.348	815.186	639.546
372.913	25.854	814.701	640.910
373.927	26.017	814.256	641.080
374.942	25.823	814.183	640.278
375.956	25.392	813.426	638.095
376.971	25.833	813.645	639.778
377.986	25.783	812.812	638.888
379.000	25.667	811.607	637.474
380.015	25.940	812.188	638.840
381.029	25.929	811.380	638.109
382.044	25.602	810.963	636.569
383.059	26.178	809.576	637.456
384.073	26.321	809.007	637.458
385.088	26.129	808.460	636.294
386.102	25.788	808.070	634.729
387.117	25.545	806.637	632.691
388.132	25.475	807.130	632.775
389.146	25.051	806.222	630.517
390.161	25.291	805.320	630.600
391.175	25.729	805.132	631.935
392.190	26.163	804.862	633.190
393.205	26.244	804.211	632.906
394.219	25.592	803.196	629.768
395.234	25.305	801.509	627.385
396.248	25.116	800.872	626.171
397.263	25.230	801.316	626.862
398.278	25.273	802.119	627.584
399.292	25.288	800.303	626.160
400.307	24.830	800.860	624.943
401.321	24.924	799.764	624.359
402.336	25.045	799.267	624.339
403.350	25.209	799.801	625.269
404.365	25.552	799.022	625.802
405.380	26.079	799.422	627.894
406.394	26.337	798.719	628.183
407.409	26.234	798.673	627.732
408.423	26.331	797.888	627.397
409.438	26.570	797.831	628.124
410.453	26.261	797.589	626.808
411.467	26.296	796.453	625.980
412.482	26.200	795.968	625.211
413.496	26.122	795.768	624.730
414.511	26.241	794.971	624.460
415.526	26.248	794.846	624.332
416.540	26.416	794.315	624.440
417.555	26.214	793.835	623.308
418.569	25.982	793.454	622.155
419.584	26.460	793.120	623.485
420.599	26.617	792.408	623.411
421.613	159.633	1369.975	1792.488
422.628	138.297	1454.115	1792.598
