DTS Sentinel unit serial number:	SN413079Multiplexer serial number:	ORYXHardware model number:	OX4-SRSoftware version number:	ORYX F/W v4.00 Oryx Data Collector v3.7.2.0data status	okinstallation	princeton_trtdifferential loss correction	single-endedforward channel	channel 3reverse channel	N/Adate	2019/09/12time	06:18:11forward acquisition time	60.00reverse acquisition time	0.00gamma	496.2192k internal	0.2319k external	0.2319temperature offset calibration	1.0036default loss term (dB/km)	0.3790temperature slope calibration	1.0000multiplexer offset coefficient	1.0000multiplexer slope coefficient	1.0000fibre end	0.00T internal ref (°C)	32.12T ext. ref 1 (°C)	1.57T ext. ref 2 (°C)	27.42length (m)	temperature (°C)	Stokes	anti-Stokes-747.200	283.460	-0.013	-0.024
-746.185	-9.717	0.137	-0.093
-745.171	-200.000	0.003	0.173
-744.156	-160.513	-0.237	0.013
-743.142	-137.581	0.076	-0.009
-742.127	-124.577	0.384	0.060
-741.112	-200.000	-0.051	0.415
-740.098	800.000	-0.023	-0.068
-739.083	216.914	-0.109	0.176
-738.069	91.543	-0.051	-0.058
-737.054	118.127	-0.103	-0.129
-736.039	800.000	-0.117	-0.416
-735.025	416.846	0.028	-0.059
-734.010	-200.000	0.027	-0.229
-732.996	-200.000	-0.009	-0.070
-731.981	66.854	0.042	0.043
-730.966	-29.275	0.361	-0.209
-729.952	104.145	-0.230	-0.274
-728.937	-67.058	-0.181	-0.072
-727.923	-104.442	-0.129	-0.030
-726.908	-200.000	-0.020	-0.238
-725.894	-200.000	0.035	-0.197
-724.879	-200.000	-0.022	0.292
-723.864	-200.000	-0.014	0.070
-722.850	174.534	0.038	-0.056
-721.835	-200.000	-0.003	-0.543
-720.821	800.000	0.083	-0.295
-719.806	-200.000	-0.054	-0.555
-718.791	-0.114	0.027	0.019
-717.777	287.320	-0.158	-0.288
-716.762	-200.000	0.009	-0.149
-715.748	800.000	-0.117	-0.434
-714.733	615.337	-0.065	-0.165
-713.718	62.982	-0.074	-0.074
-712.704	9.447	0.197	-0.151
-711.689	-37.082	0.074	0.040
-710.675	-133.288	0.008	0.001
-709.660	-45.422	0.121	-0.061
-708.645	-113.742	0.138	0.027
-707.631	-48.183	0.301	0.147
-706.616	-118.367	-0.205	0.037
-705.602	-200.000	-0.031	0.174
-704.587	-200.000	0.058	-0.299
-703.572	-7.826	-0.039	0.027
-702.558	448.294	-0.111	0.247
-701.543	-106.986	-0.297	0.066
-700.529	16.373	0.219	0.174
-699.514	-200.000	-0.039	-0.330
-698.499	-91.438	-0.287	-0.083
-697.485	-145.471	-0.241	-0.022
-696.470	219.815	0.099	-0.161
-695.456	-200.000	-0.008	-0.052
-694.441	175.704	-0.071	0.104
-693.426	800.000	0.055	-0.225
-692.412	-126.377	-0.068	-0.010
-691.397	438.080	-0.139	0.305
-690.383	800.000	0.011	0.036
-689.368	-93.900	-0.057	0.016
-688.354	101.992	-0.153	0.181
-687.339	44.395	-0.298	-0.277
-686.324	-200.000	-0.045	0.217
-685.310	500.397	-0.085	-0.197
-684.295	-61.637	-0.010	0.004
-683.281	-200.000	-0.115	-0.527
-682.266	9.527	0.177	0.135
-681.251	14.026	-0.272	-0.214
-680.237	59.338	0.341	0.339
-679.222	147.877	-0.275	-0.374
-678.208	-20.226	-0.279	-0.173
-677.193	-139.908	-0.194	0.021
-676.178	186.531	-0.107	0.161
-675.164	125.498	0.148	-0.188
-674.149	-158.414	0.159	0.009
-673.135	800.000	0.100	-0.373
-672.120	-118.046	0.187	-0.034
-671.105	800.000	0.006	-0.020
-670.091	2.057	-0.180	-0.131
-669.076	-200.000	0.008	0.075
-668.062	-28.933	0.416	0.241
-667.047	-154.446	-0.274	-0.018
-666.032	-200.000	-0.017	-0.078
-665.018	-200.000	-0.029	-0.231
-664.003	-200.000	-0.021	0.217
-662.989	59.470	0.258	0.256
-661.974	160.984	-0.078	-0.110
-660.959	-200.000	0.052	0.455
-659.945	-200.000	0.039	-0.316
-658.930	97.750	-0.098	0.114
-657.916	-84.095	-0.342	0.109
-656.901	72.074	-0.138	-0.144
-655.886	-121.971	0.148	0.025
-654.872	-24.311	-0.159	0.095
-653.857	-86.587	0.279	-0.086
-652.843	-200.000	0.005	0.154
-651.828	-144.373	-0.232	-0.022
-650.814	-200.000	0.007	0.113
-649.799	-200.000	-0.008	-0.108
-648.784	-120.192	-0.147	0.025
-647.770	-58.367	-0.201	-0.088
-646.755	-65.428	0.352	0.142
-645.741	124.825	-0.170	0.216
-644.726	240.749	-0.014	0.023
-643.711	148.683	0.071	-0.096
-642.697	526.247	0.098	-0.234
-641.682	-21.178	0.093	0.057
-640.668	-200.000	0.045	0.583
-639.653	25.483	-0.034	-0.028
-638.638	-115.055	0.155	0.030
-637.624	112.430	-0.075	-0.092
-636.609	36.263	0.212	-0.188
-635.595	265.035	0.061	0.107
-634.580	800.000	0.038	0.139
-633.565	-200.000	-0.010	0.165
-632.551	-200.000	-0.021	0.145
-631.536	153.267	-0.136	-0.188
-630.522	21.599	-0.070	0.057
-629.507	-162.293	-0.070	0.003
-628.492	-120.792	0.198	0.034
-627.478	-71.744	-0.149	-0.056
-626.463	-88.336	0.012	-0.004
-625.449	133.243	-0.091	0.118
-624.434	240.805	0.041	-0.070
-623.419	-167.407	0.508	0.021
-622.405	800.000	0.087	-0.366
-621.390	-80.642	0.052	-0.018
-620.376	-72.619	-0.197	0.073
-619.361	800.000	-0.065	0.212
-618.346	386.156	0.039	0.080
-617.332	-200.000	-0.013	0.100
-616.317	37.268	0.167	0.148
-615.303	477.116	0.082	0.186
-614.288	194.909	0.106	-0.162
-613.273	-58.247	0.050	-0.022
-612.259	-200.000	0.040	-0.525
-611.244	800.000	0.042	-0.156
-610.230	-23.609	-0.112	-0.068
-609.215	583.288	0.149	0.368
-608.201	17.203	0.134	0.107
-607.186	-111.267	0.363	-0.075
-606.171	10.270	0.108	-0.082
-605.157	20.952	-0.270	-0.220
-604.142	96.974	0.128	-0.148
-603.128	-200.000	0.023	0.419
-602.113	8.333	-0.087	0.066
-601.098	-200.000	-0.013	-0.265
-600.084	-60.583	-0.269	-0.115
-599.069	259.713	-0.165	-0.287
-598.055	-200.000	0.024	-0.246
-597.040	-50.464	-0.133	-0.063
-596.025	-20.814	-0.277	-0.171
-595.011	292.841	-0.201	-0.369
-593.996	794.789	-0.132	0.367
-592.982	-200.000	-0.163	-0.001
-591.967	800.000	-0.008	0.023
-590.952	-139.400	0.274	-0.030
-589.938	-105.394	0.119	-0.027
-588.923	800.000	-0.053	-0.151
-587.909	800.000	-0.062	0.203
-586.894	-200.000	-0.001	-0.158
-585.879	161.911	-0.178	-0.251
-584.865	124.917	-0.082	0.104
-583.850	-107.515	-0.187	0.041
-582.836	-2.775	0.111	-0.078
-581.821	-79.280	-0.143	0.049
-580.806	-19.453	-0.332	0.207
-579.792	800.000	-0.078	-0.238
-578.777	62.082	-0.212	0.212
-577.763	-200.000	-0.073	-0.425
-576.748	-93.478	0.217	0.060
-575.733	-100.090	0.087	-0.022
-574.719	-87.023	-0.185	0.057
-573.704	-10.956	0.105	-0.070
-572.690	-85.345	-0.246	0.077
-571.675	-200.000	0.058	0.406
-570.661	93.194	-0.071	0.081
-569.646	-200.000	0.002	0.131
-568.631	417.106	0.042	-0.091
-567.617	-71.152	0.154	-0.058
-566.602	128.982	-0.123	-0.158
-565.588	-112.170	-0.208	-0.042
-564.573	85.523	-0.086	0.095
-563.558	81.606	0.042	-0.046
-562.544	156.475	0.061	0.085
-561.529	-200.000	-0.027	-0.243
-560.515	33.591	0.196	0.171
-559.500	-73.342	-0.089	0.033
-558.485	-50.936	-0.263	-0.124
-557.471	46.199	0.135	-0.125
-556.456	-13.052	0.070	0.045
-555.442	-30.681	-0.296	-0.168
-554.427	-7.066	-0.138	-0.094
-553.412	139.207	0.170	-0.224
-552.398	-108.741	-0.009	-0.002
-551.383	255.228	-0.114	0.195
-550.369	219.551	-0.045	0.072
-549.354	-200.000	-0.012	0.076
-548.339	-174.711	0.128	0.004
-547.325	-61.667	0.258	0.109
-546.310	-200.000	-0.009	0.058
-545.296	624.228	-0.081	-0.204
-544.281	-200.000	0.018	-0.146
-543.266	-28.457	0.287	-0.166
-542.252	-137.702	-0.177	0.020
-541.237	232.083	-0.210	-0.346
-540.223	-64.300	0.369	0.151
-539.208	28.160	0.287	-0.243
-538.193	-101.304	0.094	-0.023
-537.179	166.817	0.167	-0.237
-536.164	-53.280	0.163	-0.075
-535.150	-200.000	-0.027	0.171
-534.135	98.302	0.052	-0.060
-533.121	-200.000	-0.040	-0.194
-532.106	-67.911	-0.305	0.119
-531.091	6.486	-0.308	-0.230
-530.077	800.000	-0.020	-0.063
-529.062	-55.697	-0.040	-0.018
-528.048	-29.075	0.217	0.125
-527.033	1.800	0.314	-0.227
-526.018	-200.000	-0.003	0.194
-525.004	162.749	0.130	-0.183
-523.989	-62.663	0.216	0.090
-522.975	-200.000	-0.025	0.200
-521.960	26.499	-0.343	-0.288
-520.945	-200.000	-0.002	0.274
-519.931	376.260	-0.104	-0.213
-518.916	-129.343	0.215	-0.030
-517.902	-200.000	-0.054	-0.000
-516.887	380.555	0.036	-0.074
-515.872	-200.000	0.004	-0.227
-514.858	213.643	-0.121	-0.192
-513.843	-130.702	-0.128	0.017
-512.829	-47.451	0.127	-0.062
-511.814	800.000	-0.017	-0.058
-510.799	380.813	-0.122	0.251
-509.785	629.330	0.068	-0.172
-508.770	46.831	-0.182	-0.170
-507.756	19.802	0.270	-0.218
-506.741	534.958	0.094	-0.224
-505.726	-169.978	0.234	0.008
-504.712	-75.003	0.230	-0.083
-503.697	800.000	0.068	0.228
-502.683	317.926	0.105	-0.199
-501.668	-154.131	-0.307	0.021
-500.653	-159.579	0.095	-0.005
-499.639	399.587	0.075	-0.158
-498.624	-200.000	0.002	0.159
-497.610	-200.000	0.012	0.494
-496.595	-110.609	0.307	-0.064
-495.581	247.931	-0.191	-0.323
-494.566	588.731	-0.071	-0.174
-493.551	712.781	0.018	-0.048
-492.537	-3.838	-0.275	0.191
-491.522	-75.954	0.293	-0.104
-490.508	-85.403	-0.218	0.068
-489.493	-200.000	-0.006	0.153
-488.478	-83.172	0.149	0.048
-487.464	-47.339	-0.090	0.044
-486.449	-0.365	-0.226	-0.161
-485.435	-200.000	-0.022	-0.291
-484.420	-21.924	-0.221	-0.134
-483.405	-200.000	-0.021	-0.129
-482.391	650.539	-0.097	-0.249
-481.376	1.829	0.021	-0.015
-480.362	800.000	0.042	-0.154
-479.347	178.770	-0.051	0.074
-478.332	407.742	0.136	-0.288
-477.318	-79.067	-0.209	-0.071
-476.303	-4.187	0.222	-0.154
-475.289	-100.166	0.406	-0.101
-474.274	-137.017	0.212	-0.024
-473.259	154.518	-0.075	-0.103
-472.245	45.475	-0.195	-0.181
-471.230	85.090	-0.158	-0.174
-470.216	-97.984	-0.193	-0.050
-469.201	323.992	0.075	0.143
-468.186	-68.957	0.191	0.074
-467.172	44.804	0.148	0.136
-466.157	-200.000	0.014	-0.217
-465.143	40.823	-0.268	0.242
-464.128	-38.765	-0.146	0.077
-463.113	242.013	0.021	-0.035
-462.099	100.135	0.270	-0.313
-461.084	350.768	0.179	-0.353
-460.070	-146.619	0.242	-0.021
-459.055	13.317	-0.289	-0.224
-458.040	-4.806	-0.404	-0.279
-457.026	-200.000	0.015	0.158
-456.011	697.984	-0.017	0.045
-454.997	120.568	0.157	0.195
-453.982	-64.980	0.202	0.082
-452.968	54.175	-0.232	-0.223
-451.953	-200.000	0.082	0.462
-450.938	-36.340	0.142	0.076
-449.924	-200.000	0.012	0.399
-448.909	-144.871	-0.156	-0.014
-447.895	-38.288	-0.249	-0.132
-446.880	-200.000	-0.002	0.357
-445.865	275.071	0.210	-0.371
-444.851	-133.964	0.088	-0.011
-443.836	800.000	-0.100	-0.397
-442.822	-170.594	-0.353	0.012
-441.807	512.004	0.065	-0.152
-440.792	-200.000	-0.011	-0.048
-439.778	511.396	0.061	0.141
-438.763	-200.000	-0.054	-0.398
-437.749	-165.161	-0.542	-0.024
-436.734	-200.000	-0.002	0.080
-435.719	800.000	-0.115	0.346
-434.705	139.816	0.046	0.060
-433.690	190.786	-0.131	-0.196
-432.676	223.621	0.104	-0.168
-431.661	355.303	0.057	0.114
-430.646	-200.000	0.018	-0.237
-429.632	-200.000	-0.018	0.216
-428.617	-200.000	0.080	-0.437
-427.603	258.109	0.157	-0.270
-426.588	39.428	0.217	0.194
-425.573	-48.991	0.101	0.048
-424.559	-73.578	0.185	-0.068
-423.544	-200.000	0.012	0.124
-422.530	-92.715	-0.241	0.068
-421.515	18.717	-0.209	0.167
-420.500	88.028	-0.066	0.073
-419.486	-49.961	0.273	-0.129
-418.471	800.000	-0.068	0.266
-417.457	394.705	-0.099	0.206
-416.442	-15.621	-0.063	-0.040
-415.428	267.966	-0.105	-0.183
-414.413	617.744	0.072	0.180
-413.398	-2.762	0.080	0.056
-412.384	181.356	0.109	0.160
-411.369	800.000	-0.029	-0.122
-410.355	335.878	-0.071	0.138
-409.340	44.046	0.240	-0.220
-408.325	137.622	-0.165	0.216
-407.311	4.355	-0.249	-0.182
-406.296	800.000	0.096	-0.282
-405.282	64.564	-0.244	0.246
-404.267	-200.000	0.024	0.156
-403.252	-200.000	-0.028	0.141
-402.238	316.836	0.116	-0.220
-401.223	258.175	0.082	-0.141
-400.209	501.919	0.164	0.377
-399.194	-21.564	0.297	0.181
-398.179	83.959	-0.124	0.135
-397.165	155.344	0.150	-0.205
-396.150	-129.813	-0.146	-0.020
-395.136	-200.000	-0.005	0.070
-394.121	-200.000	-0.058	0.287
-393.106	-5.787	0.286	-0.195
-392.092	461.911	-0.176	0.392
-391.077	-37.469	0.054	0.029
-390.063	-200.000	-0.023	-0.260
-389.048	-19.495	0.136	-0.084
-388.033	61.729	0.086	0.085
-387.019	139.142	0.187	-0.246
-386.004	800.000	-0.045	-0.172
-384.990	-17.822	-0.143	-0.089
-383.975	98.630	0.303	-0.348
-382.960	-165.616	-0.265	0.011
-381.946	392.578	-0.116	0.241
-380.931	-92.896	-0.250	0.070
-379.917	231.840	0.209	-0.341
-378.902	33.853	-0.414	-0.360
-377.888	-18.092	0.065	-0.041
-376.873	197.469	-0.125	-0.191
-375.858	385.982	0.178	-0.367
-374.844	12.176	0.094	0.072
-373.829	-69.307	0.377	0.144
-372.815	800.000	0.058	0.237
-371.800	-136.749	0.063	-0.007
-370.785	16.916	-0.239	0.189
-369.771	497.545	-0.062	-0.142
-368.756	-97.315	0.058	0.015
-367.742	-200.000	0.030	-0.214
-366.727	109.297	-0.301	-0.360
-365.712	-200.000	0.015	0.069
-364.698	-69.987	-0.355	-0.135
-363.683	301.810	0.092	0.169
-362.669	-200.000	-0.019	-0.100
-361.654	800.000	-0.065	0.188
-360.639	-200.000	0.006	0.149
-359.625	-2.417	-0.266	-0.186
-358.610	23.827	-0.184	0.151
-357.596	800.000	0.105	-0.345
-356.581	661.073	0.055	0.142
-355.566	-200.000	0.144	0.000
-354.552	-199.887	-0.169	-0.001
-353.537	327.489	-0.118	0.226
-352.523	73.206	0.094	0.097
-351.508	800.000	-0.046	0.181
-350.493	-200.000	0.034	-0.202
-349.479	-12.462	0.127	-0.083
-348.464	-128.648	0.073	-0.010
-347.450	207.757	0.041	0.064
-346.435	-86.405	0.042	0.013
-345.420	-90.054	0.027	0.008
-344.406	-200.000	0.017	0.239
-343.391	21.993	0.362	-0.294
-342.377	-82.772	0.234	-0.075
-341.362	-78.084	0.235	-0.081
-340.348	-97.899	-0.172	-0.044
-339.333	-152.900	-0.355	-0.025
-338.318	-123.607	-0.268	0.042
-337.304	-98.752	-0.262	0.067
-336.289	800.000	-0.176	-0.538
-335.275	-17.181	-0.230	0.144
-334.260	-95.348	-0.297	0.079
-333.245	-200.000	-0.025	0.136
-332.231	-175.417	-0.331	-0.009
-331.216	110.370	-0.071	0.085
-330.202	-63.077	-0.348	0.143
-329.187	800.000	-0.086	0.277
-328.172	-200.000	-0.001	0.114
-327.158	603.113	-0.117	-0.290
-326.143	-200.000	-0.036	0.273
-325.129	567.661	0.082	0.198
-324.114	200.452	0.047	0.073
-323.099	-51.078	-0.174	0.081
-322.085	29.471	-0.189	0.160
-321.070	180.610	-0.085	-0.125
-320.056	-71.910	0.229	0.085
-319.041	-200.000	0.082	-0.360
-318.026	128.551	-0.100	-0.127
-317.012	-200.000	0.025	-0.200
-315.997	-200.000	-0.002	0.046
-314.983	87.239	0.108	0.119
-313.968	224.005	-0.273	0.439
-312.953	-78.485	-0.060	-0.021
-311.939	353.839	0.099	0.195
-310.924	197.850	0.214	-0.326
-309.910	-54.578	0.229	0.103
-308.895	129.066	0.102	0.129
-307.880	-200.000	0.039	0.246
-306.866	-76.241	-0.186	-0.065
-305.851	19.902	-0.129	-0.103
-304.837	596.957	0.054	-0.132
-303.822	-200.000	0.041	0.182
-302.807	-138.349	0.212	0.023
-301.793	61.107	0.284	0.280
-300.778	118.989	-0.223	0.274
-299.764	66.589	0.126	0.128
-298.749	-97.458	0.130	0.034
-297.735	549.753	-0.041	0.097
-296.720	503.329	0.029	-0.067
-295.705	-56.790	0.225	-0.099
-294.691	19.289	0.281	0.224
-293.676	-200.000	-0.007	0.309
-292.662	77.455	0.152	0.161
-291.647	-99.480	-0.211	0.053
-290.632	-166.564	-0.209	-0.009
-289.618	-200.000	0.035	0.260
-288.603	-200.000	-0.006	0.306
-287.589	-33.170	-0.306	0.168
-286.574	-3.330	-0.243	0.168
-285.559	113.776	0.139	0.168
-284.545	664.481	0.045	-0.116
-283.530	-91.464	0.380	0.108
-282.516	-200.000	0.000	-0.215
-281.501	-18.777	-0.094	-0.058
-280.486	-1.730	-0.142	0.099
-279.472	-152.150	0.279	-0.020
-278.457	114.783	0.220	-0.266
-277.443	-85.295	0.323	-0.100
-276.428	-200.000	0.051	-0.339
-275.413	800.000	0.056	-0.233
-274.399	663.316	0.061	0.156
-273.384	627.357	-0.064	0.160
-272.370	-86.404	0.025	-0.008
-271.355	86.717	-0.157	0.172
-270.340	387.207	-0.033	-0.067
-269.326	-50.498	-0.166	-0.078
-268.311	187.035	-0.057	-0.085
-267.297	33.343	0.050	-0.043
-266.282	60.509	-0.333	0.327
-265.267	-69.794	0.198	-0.075
-264.253	131.560	0.175	-0.223
-263.238	-60.534	-0.017	0.007
-262.224	-108.936	0.126	0.027
-261.209	222.346	0.105	0.167
-260.195	85.314	0.287	0.313
-259.180	-96.192	-0.083	-0.022
-258.165	205.363	-0.286	-0.441
-257.151	85.178	0.254	-0.276
-256.136	800.000	0.026	-0.087
-255.122	-152.958	-0.284	0.020
-254.107	-177.464	0.077	0.002
-253.092	-140.912	-0.157	0.016
-252.078	126.845	0.199	0.250
-251.063	115.424	-0.153	0.186
-250.049	140.203	-0.218	-0.285
-249.034	-88.487	0.152	0.045
-248.019	382.463	-0.165	0.336
-247.005	-134.689	-0.403	0.049
-245.990	-200.000	0.036	0.185
-244.976	225.056	-0.060	0.096
-243.961	-57.739	0.383	0.166
-242.946	-200.000	0.136	-0.000
-241.932	-24.712	0.090	-0.053
-240.917	800.000	-0.103	0.360
-239.903	274.639	-0.255	0.447
-238.888	-49.987	0.296	-0.139
-237.873	440.026	-0.253	-0.548
-236.859	250.935	0.099	-0.166
-235.844	371.732	0.146	0.293
-234.830	259.352	-0.075	0.128
-233.815	-31.726	-0.265	-0.148
-232.800	13.058	0.226	0.173
-231.786	800.000	0.107	0.409
-230.771	-200.000	0.013	0.430
-229.757	-87.279	-0.416	0.125
-228.742	800.000	0.067	0.216
-227.727	-21.799	-0.176	-0.106
-226.713	-2.119	0.108	-0.075
-225.698	-200.000	-0.018	-0.096
-224.684	71.356	0.071	-0.073
-223.669	-132.066	-0.304	0.039
-222.655	-200.000	0.003	0.118
-221.640	-200.000	0.045	0.237
-220.625	27.746	0.135	-0.113
-219.611	-67.977	0.305	0.118
-218.596	-200.000	-0.001	0.394
-217.582	-161.032	0.236	0.012
-216.567	90.864	-0.267	0.296
-215.552	-200.000	0.013	-0.190
-214.538	-138.154	-0.273	0.030
-213.523	126.310	-0.347	0.435
-212.509	-200.000	-0.025	-0.132
-211.494	-134.005	-0.103	0.013
-210.479	-7.017	-0.250	-0.168
-209.465	132.016	0.222	0.283
-208.450	-30.559	0.296	-0.166
-207.436	277.375	0.170	0.300
-206.421	123.134	0.098	0.122
-205.406	147.718	-0.120	-0.160
-204.392	-74.316	-0.129	0.046
-203.377	800.000	0.102	0.343
-202.363	-59.461	0.256	-0.109
-201.348	85.507	0.292	-0.318
-200.333	34.936	-0.155	-0.134
-199.319	800.000	0.109	-0.337
-198.304	-64.128	-0.261	0.105
-197.290	118.184	0.097	-0.119
-196.275	-200.000	-0.014	0.088
-195.260	96.417	-0.098	0.111
-194.246	394.885	0.085	-0.176
-193.231	-200.000	0.001	0.257
-192.217	1.168	0.177	0.126
-191.202	-94.635	0.244	-0.066
-190.187	-200.000	-0.051	0.246
-189.173	-200.000	-0.015	-0.374
-188.158	-137.462	-0.079	0.009
-187.144	-200.000	0.043	-0.327
-186.129	-200.000	-0.001	0.066
-185.114	690.459	-0.122	0.316
-184.100	280.246	-0.151	0.267
-183.085	800.000	-0.052	-0.209
-182.071	112.807	-0.073	0.087
-181.056	24.548	0.052	-0.043
-180.042	-29.577	0.188	0.106
-179.027	-109.070	0.185	-0.039
-178.012	-111.013	0.051	-0.010
-176.998	-111.936	0.182	-0.036
-175.983	284.026	-0.126	0.224
-174.969	800.000	-0.052	-0.198
-173.954	317.333	0.108	0.203
-172.939	179.151	-0.122	0.176
-171.925	-13.891	0.277	-0.177
-170.910	-122.245	-0.089	-0.014
-169.896	74.924	0.186	0.194
-168.881	397.797	0.036	-0.073
-167.866	-200.000	0.006	0.155
-166.852	-80.293	-0.223	-0.074
-165.837	-60.503	0.145	-0.061
-164.823	79.382	0.103	0.110
-163.808	-200.000	0.017	-0.104
-162.793	-41.174	0.112	-0.057
-161.779	-80.308	0.229	0.076
-160.764	-81.892	0.102	-0.033
-159.750	-91.992	0.124	0.035
-158.735	-83.037	-0.202	0.064
-157.720	-64.560	-0.213	-0.086
-156.706	578.457	0.106	0.257
-155.691	18.838	-0.172	0.136
-154.677	719.655	-0.037	0.096
-153.662	-67.597	-0.070	-0.027
-152.647	-23.019	0.241	-0.143
-151.633	-163.181	0.438	0.021
-150.618	30.653	0.189	0.160
-149.604	-200.000	0.056	0.305
-148.589	800.000	0.079	0.317
-147.574	-128.149	-0.219	0.031
-146.560	414.782	-0.046	-0.097
-145.545	-200.000	0.018	0.158
-144.531	140.724	-0.183	-0.238
-143.516	360.163	-0.176	0.347
-142.502	27.045	0.272	-0.226
-141.487	-58.092	0.163	0.070
-140.472	267.931	-0.233	-0.403
-139.458	46.421	0.175	0.160
-138.443	-200.000	-0.019	0.087
-137.429	-34.755	0.333	-0.180
-136.414	-20.633	-0.179	0.109
-135.399	209.863	-0.182	0.282
-134.385	800.000	0.032	0.131
-133.370	-74.635	-0.283	-0.101
-132.356	-28.403	0.027	0.016
-131.341	43.780	0.214	0.194
-130.326	43.047	-0.046	0.042
-129.312	96.107	-0.210	-0.236
-128.297	43.993	0.328	0.296
-127.283	800.000	0.073	0.310
-126.268	-200.000	-0.022	0.180
-125.253	-200.000	0.038	-0.362
-124.239	-200.000	-0.034	-0.178
-123.224	-93.039	0.211	-0.058
-122.210	-80.576	-0.118	0.039
-121.195	726.169	0.120	0.316
-120.180	800.000	0.118	-0.390
-119.166	70.040	0.106	0.108
-118.151	75.442	-0.253	0.263
-117.137	75.417	0.106	-0.110
-116.122	-154.270	-0.251	0.017
-115.107	199.561	0.100	-0.151
-114.093	163.102	0.243	0.336
-113.078	800.000	-0.092	0.270
-112.064	-91.904	-0.243	-0.068
-111.049	-98.520	-0.021	0.005
-110.034	-129.263	0.322	-0.044
-109.020	-200.000	-0.028	0.243
-108.005	68.607	-0.185	0.188
-106.991	-200.000	-0.062	0.317
-105.976	-134.206	0.252	0.031
-104.962	133.786	-0.096	0.122
-103.947	-200.000	-0.014	-0.067
-102.932	313.973	0.048	0.089
-101.918	199.766	0.058	0.087
-100.903	-139.434	0.389	0.041
-99.889	42.319	0.117	0.105
-98.874	41.579	0.273	0.244
-97.859	-164.702	-0.128	0.006
-96.845	-54.067	0.206	0.092
-95.830	-184.906	-0.224	0.003
-94.816	-77.891	0.355	-0.121
-93.801	736.500	-0.086	0.227
-92.786	-186.693	-0.227	0.003
-91.772	645.497	-0.081	0.203
-90.757	-48.922	-0.203	0.096
-89.743	144.522	0.115	0.151
-88.728	-200.000	-0.023	-0.107
-87.713	-162.804	0.128	0.006
-86.699	242.463	0.207	-0.341
-85.684	-200.000	-0.009	-0.203
-84.670	156.694	-0.184	-0.251
-83.655	-79.024	-0.050	-0.017
-82.640	34.175	0.147	-0.126
-81.626	-21.083	-0.275	-0.166
-80.611	-67.590	-0.276	0.107
-79.597	-69.434	0.106	-0.040
-78.582	196.218	0.123	-0.185
-77.567	46.077	-0.120	0.110
-76.553	-32.174	-0.126	-0.070
-75.538	-163.856	0.120	-0.006
-74.524	99.647	0.107	-0.122
-73.509	395.827	-0.136	-0.279
-72.494	-66.841	0.090	0.035
-71.480	633.191	-0.100	0.249
-70.465	220.075	-0.100	-0.157
-69.451	769.525	0.066	0.178
-68.436	57.917	0.171	-0.165
-67.422	81.370	0.254	-0.271
-66.407	-101.714	-0.226	-0.054
-65.392	245.246	0.048	-0.080
-64.378	143.323	-0.170	-0.223
-63.363	34.265	0.200	0.172
-62.349	-61.350	0.187	-0.078
-61.334	135.552	-0.897	-1.150
-60.319	65.623	0.541	0.539
-59.305	496.988	-0.327	-0.741
-58.290	380.791	0.575	1.161
-57.276	800.000	0.562	1.551
-56.261	-200.000	96.407	593.990
-55.246	566.207	1372.114	3277.428
-54.232	160.923	2550.499	3507.749
-53.217	112.197	2162.965	2574.296
-52.203	42.785	1708.222	1532.031
-51.188	35.396	1521.283	1313.956
-50.173	32.955	1495.058	1274.795
-49.159	51.843	1544.846	1447.328
-48.144	53.713	1561.529	1475.734
-47.130	35.506	1521.272	1314.490
-46.115	32.436	1506.702	1280.988
-45.100	32.254	1502.966	1276.526
-44.086	32.189	1501.182	1274.522
-43.071	32.175	1499.359	1272.829
-42.057	32.131	1497.737	1271.106
-41.042	32.144	1496.552	1270.137
-40.027	32.143	1495.253	1268.972
-39.013	32.133	1493.702	1267.538
-37.998	32.111	1492.242	1266.102
-36.984	31.992	1491.240	1264.402
-35.969	32.108	1490.104	1264.166
-34.954	32.281	1488.016	1263.507
-33.940	32.153	1487.085	1261.809
-32.925	32.230	1484.831	1260.365
-31.911	32.191	1484.049	1259.385
-30.896	32.250	1482.125	1258.100
-29.881	32.280	1480.835	1257.152
-28.867	32.200	1479.754	1255.654
-27.852	32.159	1478.778	1254.499
-26.838	32.159	1477.406	1253.286
-25.823	32.118	1475.731	1251.541
-24.809	32.239	1473.895	1250.744
-23.794	32.105	1472.687	1248.778
-22.779	32.169	1471.235	1247.921
-21.765	32.127	1470.646	1247.094
-20.750	32.116	1469.555	1246.046
-19.736	32.236	1467.642	1245.171
-18.721	32.052	1467.343	1243.648
-17.706	32.065	1465.787	1242.366
-16.692	32.164	1464.608	1241.973
-15.677	32.102	1463.430	1240.516
-14.663	32.194	1462.511	1240.294
-13.648	32.043	1462.000	1238.815
-12.633	32.076	1460.736	1237.910
-11.619	32.029	1460.051	1236.970
-10.604	32.056	1459.172	1236.352
-9.590	32.095	1458.207	1235.744
-8.575	32.170	1457.701	1235.763
-7.560	31.992	1456.840	1233.814
-6.546	32.061	1455.520	1233.100
-5.531	32.035	1454.597	1232.098
-4.517	31.997	1453.602	1230.958
-3.502	31.991	1452.855	1230.234
-2.487	32.063	1451.530	1229.538
-1.473	32.099	1450.325	1228.704
-0.458	32.158	1448.738	1227.691
0.556	31.989	1439.587	1216.328
1.571	29.222	1414.771	1177.596
2.586	25.889	1359.075	1110.636
3.600	24.440	1279.044	1036.730
4.615	23.047	1232.282	990.938
5.629	19.352	1174.405	924.538
6.644	9.790	1087.221	808.141
7.659	2.640	1046.574	743.285
8.673	1.685	1041.074	734.704
9.688	1.614	1037.685	731.908
10.702	1.479	1036.715	730.507
11.717	1.482	1034.151	728.651
12.731	4.402	1037.531	744.997
13.746	14.045	1051.002	801.290
14.761	22.185	1062.172	849.227
15.775	24.507	1064.782	862.467
16.790	24.965	1064.333	864.240
17.804	24.932	1063.149	863.040
18.819	24.691	1062.343	861.152
19.834	24.909	1062.018	861.862
20.848	24.940	1061.812	861.764
21.863	25.079	1061.403	862.027
22.877	24.923	1061.239	861.064
23.892	24.935	1060.797	860.688
24.907	24.834	1059.273	858.891
25.921	24.869	1058.933	858.706
26.936	24.881	1058.273	858.157
27.950	24.862	1056.961	856.921
28.965	24.934	1055.740	856.202
29.980	24.850	1053.940	854.267
30.994	24.728	1053.060	852.893
32.009	24.944	1052.179	853.137
33.023	25.020	1051.922	853.213
34.038	24.800	1050.714	851.113
35.053	24.748	1050.020	850.227
36.067	24.967	1049.462	850.738
37.082	24.836	1048.429	849.205
38.096	24.959	1048.125	849.467
39.111	25.189	1046.713	849.337
40.126	25.294	1046.090	849.254
41.140	25.127	1045.179	847.652
42.155	24.868	1043.384	844.898
43.169	24.553	1042.065	842.268
44.184	24.651	1040.915	841.726
45.199	24.685	1040.277	841.294
46.213	24.625	1039.214	840.078
47.228	24.544	1038.633	839.153
48.242	24.675	1037.830	839.049
49.257	24.693	1037.316	838.644
50.271	24.897	1036.365	838.754
51.286	25.086	1035.493	838.860
52.301	25.017	1035.438	838.420
53.315	25.043	1034.224	837.482
54.330	24.967	1033.527	836.490
55.344	24.928	1032.725	835.585
56.359	25.015	1032.128	835.432
57.374	25.013	1031.040	834.469
58.388	24.838	1029.981	832.722
59.403	24.811	1029.278	831.954
60.417	24.790	1028.598	831.232
61.432	24.647	1027.850	829.891
62.447	24.580	1027.429	829.168
63.461	24.698	1027.022	829.313
64.476	24.643	1026.238	828.351
65.490	24.652	1025.183	827.469
66.505	24.573	1024.167	826.212
67.520	24.585	1023.637	825.767
68.534	24.764	1022.695	825.759
69.549	24.636	1021.535	824.158
70.563	24.262	1020.236	821.317
71.578	24.168	1019.512	820.230
72.593	24.260	1018.793	820.001
73.607	24.069	1017.561	818.059
74.622	24.105	1017.058	817.744
75.636	24.339	1016.356	818.183
76.651	24.605	1015.583	818.708
77.666	24.352	1014.850	816.885
78.680	24.493	1013.560	816.422
79.695	24.377	1013.321	815.626
80.709	24.406	1012.732	815.211
81.724	24.539	1012.255	815.362
82.739	24.512	1010.991	814.147
83.753	24.494	1010.415	813.533
84.768	24.871	1009.580	814.502
85.782	25.145	1009.111	815.300
86.797	25.335	1008.356	815.481
87.812	25.333	1007.432	814.651
88.826	25.069	1006.680	812.773
89.841	25.061	1006.249	812.316
90.855	25.219	1005.024	811.971
91.870	25.149	1004.403	811.080
92.884	25.225	1003.461	810.591
93.899	25.050	1002.748	809.157
94.914	24.908	1001.491	807.427
95.928	25.069	1000.856	807.569
96.943	25.164	1000.181	807.384
97.957	24.740	999.315	804.703
98.972	24.621	997.673	802.778
99.987	24.400	996.836	801.039
101.001	24.452	996.378	800.834
102.016	24.842	995.928	802.150
103.030	24.935	994.816	801.598
104.045	24.749	993.880	799.942
105.060	24.769	992.253	798.650
106.074	24.587	991.111	796.852
107.089	24.674	990.130	796.377
108.103	24.796	990.532	797.177
109.118	24.930	989.403	796.792
110.133	24.664	988.174	794.550
111.147	24.620	987.475	793.721
112.162	24.543	986.110	792.212
113.176	24.191	985.028	789.712
114.191	24.493	984.406	790.482
115.206	24.519	983.694	789.954
116.220	24.226	982.843	787.908
117.235	24.224	981.769	786.969
118.249	24.259	981.170	786.574
119.264	24.397	980.218	786.347
120.279	24.172	979.623	784.809
121.293	24.163	978.827	784.065
122.308	24.224	978.365	783.892
123.322	24.457	977.049	783.790
124.337	24.211	976.430	782.145
125.352	24.124	975.176	780.690
126.366	23.882	973.106	777.907
127.381	23.474	971.686	774.920
128.395	23.989	971.851	777.232
129.410	24.548	971.945	779.681
130.424	24.789	971.012	779.914
131.439	24.769	970.142	779.060
132.454	24.833	969.049	778.391
133.468	24.872	968.196	777.809
134.483	24.705	967.597	776.530
135.497	24.838	966.814	776.412
136.512	25.055	966.108	776.716
137.527	25.070	965.288	776.052
138.541	25.011	964.667	775.230
139.556	25.129	963.967	775.110
140.570	25.075	963.204	774.195
141.585	25.113	962.477	773.706
142.600	25.185	961.678	773.307
143.614	25.109	960.547	772.000
144.629	25.096	960.201	771.597
145.643	25.414	959.218	772.107
146.658	25.281	957.896	770.405
147.673	25.171	957.312	769.391
148.687	24.930	956.537	767.669
149.702	24.899	955.018	766.251
150.716	24.798	954.024	764.954
151.731	24.805	952.948	764.052
152.746	24.978	952.069	764.018
153.760	25.080	951.764	764.142
154.775	25.287	950.802	764.183
155.789	25.275	950.117	763.512
156.804	25.228	949.444	762.705
157.819	25.156	948.212	761.340
158.833	25.314	947.187	761.120
159.848	25.336	946.753	760.800
160.862	25.434	946.003	760.542
161.877	25.192	945.122	758.742
162.892	25.158	944.156	757.758
163.906	25.276	943.427	757.605
164.921	25.198	942.162	756.192
165.935	25.148	941.310	755.230
166.950	25.188	940.293	754.515
167.964	25.239	939.790	754.259
168.979	25.193	938.841	753.237
169.994	25.093	937.801	751.919
171.008	24.935	936.522	750.163
172.023	25.140	936.171	750.674
173.037	25.429	935.389	751.192
174.052	25.183	934.096	749.057
175.067	24.793	933.590	746.958
176.081	25.015	932.419	746.879
177.096	25.022	931.484	746.093
178.110	25.103	930.655	745.703
179.125	24.805	929.621	743.568
180.140	24.597	928.445	741.700
181.154	24.656	927.947	741.481
182.169	24.610	927.941	741.219
183.183	24.864	927.542	741.888
184.198	25.158	927.232	742.792
185.213	25.259	926.039	742.186
186.227	25.033	925.709	740.925
187.242	25.155	925.467	741.171
188.256	25.349	924.186	740.876
189.271	25.162	923.744	739.689
190.286	25.346	923.219	739.958
191.300	25.238	922.272	738.688
192.315	24.627	920.809	734.940
193.329	23.849	919.240	730.431
194.344	23.502	918.037	727.982
195.359	24.110	918.831	731.046
196.373	24.810	918.975	733.968
197.388	25.196	918.525	735.126
198.402	25.017	918.285	734.135
199.417	25.038	917.438	733.480
200.432	25.003	917.364	733.213
201.446	25.006	916.256	732.275
202.461	24.689	915.601	730.393
203.475	24.734	915.211	730.199
204.490	24.331	913.514	727.139
205.504	23.251	911.467	721.048
206.519	23.583	911.450	722.324
207.534	24.488	911.532	726.008
208.548	24.733	910.818	726.369
209.563	24.899	910.991	727.116
210.577	25.034	910.195	726.964
211.592	24.775	909.168	725.030
212.607	25.245	909.249	726.934
213.621	25.424	908.643	727.113
214.636	25.289	908.057	726.031
215.650	25.345	907.496	725.746
216.665	25.201	906.936	724.652
217.680	25.260	906.275	724.298
218.694	25.423	905.732	724.455
219.709	24.931	905.019	721.842
220.723	24.573	904.191	719.675
221.738	24.819	903.749	720.249
222.753	25.125	903.038	720.848
223.767	24.925	902.580	719.617
224.782	25.104	901.649	719.528
225.796	25.341	901.260	720.102
226.811	25.444	900.794	720.082
227.826	24.975	899.179	716.852
228.840	24.270	897.622	712.730
229.855	24.208	897.196	712.078
230.869	24.289	897.006	712.188
231.884	24.105	895.738	710.384
232.899	24.199	895.686	710.655
233.913	24.953	895.918	713.782
234.928	25.143	895.174	713.884
235.942	24.895	894.516	712.310
236.957	24.973	894.029	712.168
237.972	24.716	893.103	710.347
238.986	24.654	892.114	709.253
240.001	24.783	891.611	709.301
241.015	24.799	891.361	709.102
242.030	24.822	890.753	708.649
243.045	25.001	889.942	708.648
244.059	25.007	890.028	708.677
245.074	25.297	889.265	709.153
246.088	25.169	888.816	708.227
247.103	24.830	887.255	705.584
248.117	24.995	886.797	705.808
249.132	25.377	887.028	707.431
250.147	25.778	886.971	708.902
251.161	25.827	886.702	708.818
252.176	25.983	885.740	708.601
253.190	26.089	884.995	708.357
254.205	25.941	884.858	707.605
255.220	26.136	884.512	708.031
256.234	26.211	883.772	707.669
257.249	25.981	883.088	706.159
258.263	25.954	882.438	705.470
259.278	25.903	881.873	704.756
260.293	25.919	881.600	704.538
261.307	26.077	880.921	704.549
262.322	25.954	880.195	703.429
263.336	25.985	879.216	702.703
264.351	25.468	878.110	699.744
265.366	24.307	876.250	693.687
266.380	23.779	875.370	690.876
267.395	24.802	875.895	695.206
268.409	25.597	875.643	698.032
269.424	25.569	874.990	697.344
270.439	25.609	875.040	697.477
271.453	25.803	874.041	697.367
272.468	25.746	873.564	696.706
273.482	25.905	873.322	697.068
274.497	26.007	872.619	696.837
275.512	26.031	871.081	695.640
276.526	25.385	870.125	692.327
277.541	25.433	869.777	692.173
278.555	25.900	869.841	693.962
279.570	25.510	869.382	692.033
280.585	25.383	868.539	690.811
281.599	25.543	867.823	690.797
282.614	25.692	867.420	690.986
283.628	25.327	866.053	688.438
284.643	24.875	865.478	686.185
285.657	25.263	865.728	687.812
286.672	25.106	864.956	686.535
287.687	24.615	863.995	683.832
288.701	25.172	863.539	685.542
289.716	25.439	863.540	686.505
290.730	25.198	862.519	684.709
291.745	25.090	861.604	683.510
292.760	24.897	860.639	681.952
293.774	24.684	860.600	681.047
294.789	25.829	860.750	685.464
295.803	26.294	861.101	687.456
296.818	26.283	860.441	686.823
297.833	26.381	860.033	686.809
298.847	26.200	858.756	685.044
299.862	25.744	858.182	682.796
300.876	26.105	857.554	683.604
301.891	26.264	857.415	684.036
302.906	26.361	856.742	683.804
303.920	26.004	855.663	681.533
304.935	25.715	855.081	679.916
305.949	26.197	854.895	681.530
306.964	26.298	854.267	681.348
307.979	26.073	853.463	679.799
308.993	25.917	853.241	678.975
310.008	26.369	853.014	680.438
311.022	26.452	852.734	680.466
312.037	26.288	851.731	678.990
313.052	26.043	851.309	677.672
314.066	26.072	850.285	676.904
315.081	25.321	848.678	672.753
316.095	24.511	847.723	668.906
317.110	25.048	847.752	670.878
318.125	25.835	848.555	674.404
319.139	25.505	847.507	672.276
320.154	24.351	845.721	666.492
321.168	23.994	844.594	664.213
322.183	24.533	844.861	666.374
323.197	25.553	845.061	670.275
324.212	25.819	844.843	671.035
325.227	26.029	844.513	671.496
326.241	26.269	844.082	671.986
327.256	26.053	843.397	670.579
328.270	25.848	842.969	669.417
329.285	25.665	842.451	668.268
330.300	25.719	841.230	667.441
331.314	25.407	840.661	665.774
332.329	25.421	839.828	665.108
333.343	25.919	839.618	666.726
334.358	26.149	839.367	667.316
335.373	26.306	838.697	667.306
336.387	26.281	838.315	666.849
337.402	26.416	837.865	666.929
338.416	26.502	837.904	667.220
339.431	26.667	836.897	666.968
340.446	26.793	836.260	666.861
341.460	26.908	836.229	667.201
342.475	26.882	835.267	666.281
343.489	26.537	834.542	664.375
344.504	26.554	834.337	664.217
345.519	26.835	833.878	664.825
346.533	27.017	833.779	665.351
347.548	27.091	833.059	664.989
348.562	27.141	832.695	664.825
349.577	27.113	831.823	663.965
350.592	26.968	831.575	663.179
351.606	26.842	831.040	662.235
352.621	26.949	830.413	662.068
353.635	26.822	829.821	661.071
354.650	26.567	829.733	660.013
355.665	26.384	828.730	658.491
356.679	25.415	826.656	653.264
357.694	25.251	826.383	652.396
358.708	25.927	826.271	654.704
359.723	25.846	825.647	653.857
360.738	26.267	825.313	655.063
361.752	26.609	825.612	656.482
362.767	26.694	825.356	656.527
363.781	26.796	825.339	656.826
364.796	27.178	824.856	657.767
365.810	27.297	824.621	657.953
366.825	27.317	824.182	657.616
367.840	27.420	823.780	657.608
368.854	27.193	823.224	656.285
369.869	26.827	822.062	653.982
370.883	26.556	821.753	652.703
371.898	26.742	821.041	652.749
372.913	26.738	819.993	651.842
373.927	26.548	819.707	650.874
374.942	26.631	819.570	651.009
375.956	27.003	818.893	651.748
376.971	27.038	818.013	651.115
377.986	27.140	817.769	651.229
379.000	27.225	817.200	651.023
380.015	27.245	817.052	650.918
381.029	27.080	816.345	649.707
382.044	27.169	815.129	648.999
383.059	27.355	814.837	649.375
384.073	27.343	814.517	649.020
385.088	27.364	813.972	648.601
386.102	27.270	813.559	647.879
387.117	27.083	812.911	646.640
388.132	27.050	812.004	645.747
389.146	26.776	811.453	644.276
390.161	26.325	810.502	641.863
391.175	26.359	810.048	641.566
392.190	27.088	810.212	644.225
393.205	26.989	809.741	643.444
394.219	25.923	807.983	638.220
395.234	24.337	805.956	630.953
396.248	23.543	804.816	627.200
397.263	24.770	805.422	631.956
398.278	26.415	806.656	638.683
399.292	26.869	807.034	640.529
400.307	26.643	806.444	639.205
401.321	26.482	805.714	638.003
402.336	26.434	805.837	637.874
403.350	26.931	805.229	639.089
404.365	27.417	805.050	640.600
405.380	27.636	805.220	641.449
406.394	27.712	805.284	641.710
407.409	28.060	804.338	642.122
408.423	27.838	804.326	641.277
409.438	28.034	803.307	641.094
410.453	27.902	802.928	640.274
411.467	28.017	802.270	640.095
412.482	27.936	802.129	639.642
413.496	27.881	801.565	638.944
414.511	28.003	800.993	638.859
415.526	28.098	800.568	638.794
416.540	28.091	800.346	638.537
417.555	28.114	799.714	638.056
418.569	27.569	799.346	635.803
419.584	27.541	798.680	635.120
420.599	27.636	798.184	635.000
421.613	110.456	1285.201	1459.786
422.628	95.199	1356.151	1459.884
