DTS Sentinel unit serial number:	SN413079Multiplexer serial number:	ORYXHardware model number:	OX4-SRSoftware version number:	ORYX F/W v4.00 Oryx Data Collector v3.7.2.0data status	okinstallation	princeton_trtdifferential loss correction	single-endedforward channel	channel 3reverse channel	N/Adate	2019/09/15time	20:56:34forward acquisition time	60.00reverse acquisition time	0.00gamma	496.2192k internal	0.2327k external	0.2327temperature offset calibration	0.9939default loss term (dB/km)	0.3790temperature slope calibration	1.0000multiplexer offset coefficient	1.0000multiplexer slope coefficient	1.0000fibre end	0.00T internal ref (°C)	32.00T ext. ref 1 (°C)	8.03T ext. ref 2 (°C)	24.40length (m)	temperature (°C)	Stokes	anti-Stokes-747.200	183.438	-0.203	-0.302
-746.185	-123.651	-0.511	0.082
-745.171	99.578	-0.146	0.171
-744.156	-6.785	-0.273	0.187
-743.142	-89.223	-0.534	0.159
-742.127	127.508	0.138	-0.177
-741.112	15.675	0.078	0.062
-740.098	406.861	-0.054	-0.116
-739.083	65.206	0.274	-0.280
-738.069	-84.896	-0.029	0.009
-737.054	-132.575	-0.115	-0.015
-736.039	12.299	0.107	0.083
-735.025	-200.000	0.020	-0.236
-734.010	-142.806	-0.234	-0.023
-732.996	-96.858	-0.292	0.077
-731.981	156.677	-0.143	-0.199
-730.966	-112.657	-0.074	0.015
-729.952	-101.007	-0.091	-0.023
-728.937	426.748	-0.154	-0.335
-727.923	-104.066	-0.253	0.059
-726.908	-200.000	-0.026	0.155
-725.894	271.818	0.018	-0.031
-724.879	-200.000	-0.020	-0.207
-723.864	-70.205	0.255	0.097
-722.850	-161.435	0.079	-0.004
-721.835	-34.179	0.094	-0.052
-720.821	-162.025	-0.156	0.008
-719.806	-200.000	0.020	0.141
-718.791	366.430	-0.304	-0.618
-717.777	-161.237	0.490	0.026
-716.762	-114.888	-0.370	-0.071
-715.748	-81.230	0.454	0.151
-714.733	363.674	0.067	0.136
-713.718	-200.000	0.004	-0.039
-712.704	-174.342	-0.370	-0.011
-711.689	14.972	0.277	0.218
-710.675	-13.131	-0.433	0.283
-709.660	430.182	-0.119	-0.259
-708.645	-154.979	0.149	-0.010
-707.631	0.743	0.091	-0.066
-706.616	376.151	0.069	-0.141
-705.602	-161.746	-0.205	-0.011
-704.587	-34.717	0.151	-0.083
-703.572	-95.369	0.401	-0.108
-702.558	367.868	-0.025	0.052
-701.543	-121.974	0.074	-0.012
-700.529	-200.000	0.026	-0.269
-699.514	1.218	0.134	0.097
-698.499	42.047	-0.205	-0.187
-697.485	-200.000	0.006	-0.198
-696.470	-74.523	0.139	-0.051
-695.456	-3.042	0.096	-0.068
-694.441	-157.671	-0.160	-0.010
-693.426	96.264	0.195	0.225
-692.412	-67.235	0.133	-0.053
-691.397	-200.000	-0.047	-0.230
-690.383	-150.625	-0.063	-0.005
-689.368	104.365	0.099	-0.117
-688.354	741.073	-0.045	-0.123
-687.339	308.461	-0.126	0.237
-686.324	-109.979	-0.100	-0.021
-685.310	69.044	-0.216	0.223
-684.295	-200.000	0.027	-0.158
-683.281	171.424	0.160	-0.231
-682.266	-200.000	-0.119	0.001
-681.251	-121.019	0.110	0.019
-680.237	148.244	-0.016	0.022
-679.222	186.844	-0.107	0.161
-678.208	-47.735	0.247	0.120
-677.193	-106.377	-0.204	0.046
-676.178	108.225	-0.163	0.196
-675.164	-13.372	0.140	0.091
-674.149	-61.280	-0.322	-0.136
-673.135	-31.218	0.118	-0.067
-672.120	-200.000	0.028	-0.127
-671.105	87.279	-0.286	-0.319
-670.091	-200.000	0.037	-0.168
-669.076	59.577	0.281	-0.279
-668.062	143.486	-0.150	-0.201
-667.047	-200.000	-0.016	-0.177
-666.032	54.246	0.067	-0.065
-665.018	158.983	0.064	0.089
-664.003	-200.000	-0.009	-0.356
-662.989	183.919	-0.054	-0.080
-661.974	118.701	0.054	-0.067
-660.959	-122.895	0.107	0.017
-659.945	213.032	-0.202	0.320
-658.930	150.289	0.043	-0.059
-657.916	77.559	-0.161	-0.172
-656.901	212.322	0.210	-0.332
-655.886	-200.000	-0.010	-0.457
-654.872	22.423	-0.154	-0.127
-653.857	110.231	-0.156	-0.188
-652.843	90.648	0.241	0.271
-651.828	485.101	-0.103	0.235
-650.814	-132.042	0.352	0.046
-649.799	-87.538	0.058	0.018
-648.784	98.080	0.093	-0.107
-647.770	-21.173	-0.063	-0.039
-646.755	-200.000	0.000	-0.211
-645.741	-200.000	-0.014	0.251
-644.726	-200.000	-0.026	0.362
-643.711	-108.965	0.146	0.031
-642.697	7.302	0.322	0.241
-641.682	-200.000	-0.015	-0.226
-640.668	224.194	-0.057	0.092
-639.653	-43.505	-0.119	-0.060
-638.638	19.001	-0.344	-0.277
-637.624	-125.531	-0.264	0.040
-636.609	-200.000	0.005	0.073
-635.595	-45.922	0.033	-0.017
-634.580	-16.828	0.334	-0.212
-633.565	567.800	-0.008	-0.021
-632.551	170.330	-0.176	0.253
-631.536	29.122	0.097	-0.082
-630.522	-136.134	0.422	-0.050
-629.507	-200.000	-0.019	-0.165
-628.492	-148.556	-0.402	0.033
-627.478	-109.820	-0.233	0.049
-626.463	-27.340	0.295	-0.172
-625.449	648.328	-0.060	-0.154
-624.434	443.530	0.044	0.097
-623.419	105.195	0.200	0.237
-622.405	-89.754	0.114	0.034
-621.390	-200.000	0.054	0.255
-620.376	138.953	-0.051	0.068
-619.361	-127.600	0.284	-0.041
-618.346	236.542	0.140	0.233
-617.332	55.228	0.058	-0.056
-616.317	15.984	0.298	0.235
-615.303	-200.000	-0.021	-0.120
-614.288	792.144	-0.082	0.226
-613.273	-99.230	-0.300	0.076
-612.259	-200.000	0.004	-0.051
-611.244	-171.974	-0.161	0.005
-610.230	-70.753	0.110	0.042
-609.215	670.688	-0.089	0.230
-608.201	-200.000	0.069	-0.307
-607.186	800.000	0.110	-0.332
-606.171	-200.000	0.026	-0.130
-605.157	241.648	0.136	0.228
-604.142	173.768	-0.119	-0.173
-603.128	657.299	-0.099	-0.256
-602.113	-147.528	0.174	-0.015
-601.098	26.680	0.281	-0.236
-600.084	240.695	0.091	0.153
-599.069	-110.512	0.116	-0.024
-598.055	-10.442	-0.228	0.152
-597.040	-30.677	-0.087	0.049
-596.025	97.892	0.109	0.126
-595.011	-98.522	0.280	-0.072
-593.996	101.228	0.128	-0.149
-592.982	-22.849	0.180	0.109
-591.967	800.000	0.070	-0.254
-590.952	-62.286	0.100	0.042
-589.938	-200.000	0.042	-0.420
-588.923	-119.031	0.118	-0.021
-587.909	483.207	0.005	-0.012
-586.894	-0.255	0.342	-0.244
-585.879	361.433	0.077	0.154
-584.865	800.000	0.054	0.159
-583.850	-200.000	0.087	-0.392
-582.836	-79.175	-0.206	-0.070
-581.821	-200.000	0.324	-0.001
-580.806	53.857	-0.215	0.207
-579.792	276.642	-0.100	-0.178
-578.777	30.532	0.045	-0.039
-577.763	634.198	-0.101	0.258
-576.748	192.623	0.187	-0.283
-575.733	-144.000	-0.126	-0.012
-574.719	-79.387	0.145	-0.049
-573.704	-177.667	-0.250	-0.006
-572.690	-52.802	0.267	-0.123
-571.675	-200.000	-0.191	0.000
-570.661	-80.761	-0.184	-0.061
-569.646	659.759	-0.066	-0.170
-568.631	-120.473	0.111	0.019
-567.617	348.521	0.151	-0.299
-566.602	-62.345	-0.262	-0.109
-565.588	159.981	-0.188	0.263
-564.573	800.000	-0.041	0.115
-563.558	158.712	-0.132	-0.183
-562.544	-20.922	0.373	-0.229
-561.529	322.869	-0.202	0.386
-560.515	305.584	0.232	0.433
-559.500	800.000	-0.133	-0.376
-558.485	-149.185	-0.134	-0.011
-557.471	47.796	-0.045	0.042
-556.456	265.548	0.101	0.176
-555.442	-48.438	0.231	0.111
-554.427	425.418	-0.094	-0.204
-553.412	371.936	0.114	0.231
-552.398	398.490	0.097	0.204
-551.383	-101.547	0.128	0.031
-550.369	185.234	-0.057	-0.085
-549.354	332.331	-0.047	-0.091
-548.339	-26.621	0.322	0.189
-547.325	211.637	-0.058	-0.091
-546.310	-92.482	-0.220	-0.062
-545.296	252.012	0.157	0.268
-544.281	327.178	0.124	-0.239
-543.266	309.383	-0.116	0.217
-542.252	-105.667	-0.248	0.056
-541.237	800.000	-0.113	-0.327
-540.223	5.852	-0.128	0.094
-539.208	353.272	-0.084	-0.166
-538.193	538.988	-0.070	-0.168
-537.179	-200.000	0.072	-0.367
-536.164	-47.836	-0.262	0.127
-535.150	800.000	0.073	0.284
-534.135	-104.887	-0.068	-0.016
-533.121	-200.000	0.027	-0.256
-532.106	646.729	-0.104	0.266
-531.091	-151.016	0.207	-0.016
-530.077	-63.802	-0.195	-0.080
-529.062	-46.973	-0.107	-0.052
-528.048	-200.000	-0.005	0.240
-527.033	102.689	0.249	0.292
-526.018	257.129	0.154	-0.264
-525.004	279.803	0.115	-0.206
-523.989	13.942	0.127	0.099
-522.975	-194.508	-0.075	0.001
-521.960	-200.000	0.002	-0.133
-520.945	-133.533	0.188	0.024
-519.931	-21.439	0.115	-0.070
-518.916	800.000	0.076	0.217
-517.902	800.000	0.055	-0.227
-516.887	126.526	-0.086	0.108
-515.872	54.752	-0.051	-0.049
-514.858	28.890	-0.285	0.241
-513.843	-62.383	-0.133	0.055
-512.829	800.000	0.080	-0.319
-511.814	224.264	-0.089	-0.143
-510.799	84.291	-0.044	-0.048
-509.785	150.914	0.145	-0.197
-508.770	-100.517	-0.164	-0.041
-507.756	43.709	-0.233	0.213
-506.741	-127.339	0.244	0.036
-505.726	454.352	0.152	-0.336
-504.712	-200.000	0.024	0.126
-503.697	49.595	-0.153	0.144
-502.683	-132.015	0.229	-0.030
-501.668	-200.000	0.055	0.282
-500.653	-103.135	0.402	-0.095
-499.639	-200.000	-0.010	0.304
-498.624	147.106	-0.338	0.454
-497.610	235.993	0.151	0.249
-496.595	-200.000	0.006	-0.106
-495.581	800.000	0.059	0.178
-494.566	-4.077	-0.087	0.060
-493.551	-167.670	-0.324	-0.013
-492.537	-27.000	0.152	-0.089
-491.522	617.631	-0.178	0.446
-490.508	171.771	0.065	-0.093
-489.493	371.522	0.115	0.233
-488.478	94.122	0.072	0.082
-487.464	800.000	0.074	-0.223
-486.449	15.983	-0.066	0.052
-485.435	122.977	-0.043	0.053
-484.420	84.654	-0.203	-0.222
-483.405	-116.414	0.080	0.015
-482.391	25.067	-0.101	-0.083
-481.376	-200.000	0.044	-0.276
-480.362	800.000	-0.040	0.128
-479.347	-9.120	0.123	-0.082
-478.332	784.015	0.158	0.432
-477.318	-62.471	-0.224	0.093
-476.303	-49.919	0.255	-0.121
-475.289	-87.756	-0.269	-0.081
-474.274	-200.000	-0.016	-0.214
-473.259	161.268	-0.163	-0.228
-472.245	-42.877	0.152	-0.077
-471.230	-200.000	-0.017	-0.169
-470.216	123.784	-0.195	0.244
-469.201	204.737	-0.242	0.374
-468.186	-183.872	-0.185	0.003
-467.172	-91.414	0.376	0.107
-466.157	79.907	-0.186	-0.200
-465.143	-47.773	-0.137	-0.066
-464.128	404.952	0.085	0.179
-463.113	725.536	0.048	-0.127
-462.099	237.420	0.052	-0.087
-461.084	99.379	-0.119	-0.137
-460.070	495.950	0.056	-0.128
-459.055	148.385	0.160	-0.215
-458.040	-157.606	-0.406	-0.024
-457.026	-97.467	0.207	0.054
-456.011	119.212	-0.087	-0.107
-454.997	43.459	0.137	0.124
-453.982	-78.744	-0.109	-0.037
-452.968	178.730	0.220	-0.320
-451.953	728.154	0.198	0.526
-450.938	403.576	0.124	0.261
-449.924	188.721	0.076	0.113
-448.909	-200.000	0.011	0.073
-447.895	-163.259	-0.239	-0.011
-446.880	46.511	0.116	0.107
-445.865	293.916	-0.084	0.152
-444.851	-18.235	-0.121	-0.075
-443.836	399.883	0.071	-0.148
-442.822	-98.281	-0.091	0.023
-441.807	-69.866	-0.192	-0.073
-440.792	-200.000	-0.003	-0.177
-439.778	11.383	0.155	-0.118
-438.763	62.549	-0.144	-0.143
-437.749	-17.817	0.097	0.061
-436.734	-200.000	-0.006	-0.075
-435.719	-161.563	0.281	0.014
-434.705	-200.000	0.005	-0.247
-433.690	-116.804	-0.355	-0.065
-432.676	585.231	0.219	-0.537
-431.661	287.852	-0.099	-0.179
-430.646	-114.107	0.053	0.010
-429.632	-77.663	-0.179	0.062
-428.617	-200.000	0.042	0.337
-427.603	-37.156	-0.228	-0.121
-426.588	800.000	0.088	-0.326
-425.573	-200.000	0.043	-0.208
-424.559	74.749	-0.191	-0.200
-423.544	33.045	0.260	0.224
-422.530	-170.295	-0.307	-0.011
-421.515	-99.023	0.226	-0.057
-420.500	595.975	-0.145	-0.358
-419.486	618.335	-0.043	-0.106
-418.471	-167.634	0.260	0.010
-417.457	800.000	-0.027	-0.099
-416.442	-68.669	-0.315	0.121
-415.428	-60.646	-0.333	0.141
-414.413	-200.000	0.032	-0.163
-413.398	-102.532	0.050	0.012
-412.384	170.474	-0.195	0.278
-411.369	-148.226	0.267	0.022
-410.355	-130.730	-0.616	-0.082
-409.340	149.502	0.269	0.362
-408.325	89.763	0.083	-0.093
-407.311	-13.048	0.092	-0.060
-406.296	-20.041	0.278	0.171
-405.282	-62.487	0.078	0.032
-404.267	96.887	-0.189	-0.215
-403.252	105.502	-0.280	-0.330
-402.238	-200.000	0.056	0.252
-401.223	-73.500	0.237	-0.086
-400.209	28.454	-0.116	0.098
-399.194	254.526	-0.169	0.288
-398.179	-200.000	0.009	-0.194
-397.165	57.473	-0.056	0.055
-396.150	41.727	0.518	-0.467
-395.136	11.148	-0.318	-0.242
-394.121	476.081	-0.142	0.319
-393.106	104.467	0.081	-0.095
-392.092	-161.044	-0.215	0.011
-391.077	800.000	0.054	-0.179
-390.063	-55.322	0.494	0.221
-389.048	-200.000	0.004	-0.263
-388.033	25.912	0.314	-0.260
-387.019	-106.980	-0.227	-0.050
-386.004	38.277	-0.231	-0.204
-384.990	90.827	0.173	-0.193
-383.975	-170.726	0.110	0.004
-382.960	-100.010	-0.178	0.044
-381.946	-82.600	-0.267	-0.086
-380.931	-200.000	-0.010	0.118
-379.917	39.670	-0.166	-0.148
-378.902	-200.000	-0.008	0.065
-377.888	248.723	0.138	0.233
-376.873	673.477	-0.090	0.232
-375.858	-200.000	0.004	-0.073
-374.844	-78.190	0.248	-0.085
-373.829	800.000	0.050	-0.161
-372.815	-49.763	-0.154	0.073
-371.800	-1.882	-0.194	0.135
-370.785	800.000	0.100	0.325
-369.771	85.022	-0.141	-0.153
-368.756	148.614	-0.190	-0.255
-367.742	270.807	0.106	0.185
-366.727	-200.000	0.048	-0.223
-365.712	-200.000	-0.042	0.293
-364.698	-200.000	0.005	0.105
-363.683	127.269	-0.169	-0.213
-362.669	630.439	-0.068	0.170
-361.654	15.332	-0.046	0.036
-360.639	-9.336	-0.148	0.098
-359.625	-34.587	-0.183	0.100
-358.610	-200.000	-0.058	0.266
-357.596	-200.000	-0.029	0.161
-356.581	-200.000	0.004	0.168
-355.566	-19.237	-0.268	-0.165
-354.552	122.679	0.119	-0.147
-353.537	36.348	0.209	0.183
-352.523	800.000	-0.063	0.266
-351.508	-200.000	0.020	-0.135
-350.493	216.869	-0.085	0.134
-349.479	800.000	-0.037	-0.150
-348.464	55.063	-0.130	-0.125
-347.450	-200.000	-0.041	-0.461
-346.435	-161.369	0.335	0.017
-345.420	0.356	-0.374	0.265
-344.406	5.789	0.190	0.139
-343.391	28.547	0.225	0.189
-342.377	-58.699	0.297	-0.128
-341.362	46.279	0.049	-0.045
-340.348	-51.191	-0.239	-0.111
-339.333	-35.713	0.315	-0.169
-338.318	-119.372	0.162	-0.028
-337.304	-200.000	0.043	0.348
-336.289	800.000	0.079	0.271
-335.275	800.000	-0.044	-0.172
-334.260	779.171	-0.122	0.331
-333.245	-11.276	0.261	0.171
-332.231	800.000	-0.024	0.092
-331.216	208.447	0.165	-0.256
-330.202	-81.432	-0.414	0.135
-329.187	-0.821	0.160	-0.113
-328.172	195.980	-0.125	0.188
-327.158	95.253	0.155	-0.176
-326.143	-200.000	-0.003	0.349
-325.129	800.000	-0.034	0.139
-324.114	71.587	0.087	-0.090
-323.099	-98.463	0.149	-0.038
-322.085	65.504	0.105	0.106
-321.070	163.000	-0.097	-0.134
-320.056	196.666	0.042	0.063
-319.041	-36.808	0.201	0.107
-318.026	-85.947	-0.383	-0.117
-317.012	346.739	-0.074	0.144
-315.997	-67.245	0.074	-0.029
-314.983	197.999	0.151	0.229
-313.968	302.571	-0.073	-0.134
-312.953	155.126	0.112	0.153
-311.939	278.991	-0.021	0.038
-310.924	130.056	0.168	-0.214
-309.910	-155.182	0.092	0.006
-308.895	-200.000	0.016	0.160
-307.880	-200.000	0.049	-0.319
-306.866	20.585	0.132	0.106
-305.851	655.527	0.069	0.175
-304.837	6.615	-0.050	0.037
-303.822	239.014	-0.071	-0.118
-302.807	78.774	0.161	0.171
-301.793	200.822	-0.100	-0.153
-300.778	-33.790	-0.129	-0.070
-299.764	748.504	0.054	0.145
-298.749	108.374	-0.241	-0.285
-297.735	40.389	-0.071	0.063
-296.720	-139.481	-0.307	0.033
-295.705	-200.000	0.000	0.052
-294.691	-11.586	0.178	0.116
-293.676	-46.279	0.365	-0.178
-292.662	-169.075	0.155	0.006
-291.647	-8.440	0.028	0.018
-290.632	800.000	0.091	0.258
-289.618	201.565	-0.116	-0.177
-288.603	38.111	-0.173	0.152
-287.589	35.813	0.084	-0.073
-286.574	-96.807	-0.175	-0.046
-285.559	118.238	-0.077	0.094
-284.545	25.565	-0.045	-0.037
-283.530	-128.487	-0.422	-0.059
-282.516	-16.308	-0.160	0.100
-281.501	502.127	0.089	-0.205
-280.486	381.358	0.055	0.111
-279.472	-200.000	0.071	0.320
-278.457	530.168	-0.051	-0.119
-277.443	800.000	0.094	-0.316
-276.428	164.301	0.217	0.303
-275.413	232.438	0.059	-0.096
-274.399	17.277	-0.152	-0.119
-273.384	6.509	0.104	0.077
-272.370	74.738	-0.166	0.173
-271.355	417.740	-0.135	-0.285
-270.340	-9.083	0.384	-0.254
-269.326	713.615	-0.118	0.311
-268.311	-200.000	-0.044	0.251
-267.297	-200.000	-0.036	-0.450
-266.282	-200.000	-0.076	-0.374
-265.267	-200.000	-0.041	-0.533
-264.253	365.232	0.101	-0.200
-263.238	-30.397	0.159	-0.089
-262.224	-200.000	-0.010	0.075
-261.209	-46.335	-0.312	-0.152
-260.195	-200.000	0.026	-0.291
-259.180	-200.000	-0.048	-0.227
-258.165	-87.712	-0.431	-0.129
-257.151	-200.000	0.018	-0.144
-256.136	-101.487	0.088	-0.021
-255.122	54.134	-0.100	0.096
-254.107	252.012	-0.086	-0.145
-253.092	-27.239	-0.116	-0.067
-252.078	-25.106	0.125	0.073
-251.063	-161.199	0.343	-0.018
-250.049	-29.873	0.227	0.128
-249.034	-59.345	-0.228	-0.097
-248.019	-143.771	-0.158	0.015
-247.005	-149.811	0.067	-0.005
-245.990	66.067	-0.159	0.160
-244.976	800.000	0.052	0.169
-243.961	197.284	0.180	0.272
-242.946	800.000	0.030	0.127
-241.932	121.834	0.267	-0.329
-240.917	-200.000	-0.009	-0.094
-239.903	-55.994	0.130	-0.057
-238.888	400.927	0.090	-0.188
-237.873	-14.670	0.116	0.074
-236.859	800.000	-0.069	0.238
-235.844	166.799	-0.081	0.113
-234.830	800.000	0.049	-0.209
-233.815	-200.000	0.033	-0.201
-232.800	-137.227	0.384	-0.043
-231.786	-39.834	-0.125	-0.064
-230.771	175.281	0.237	0.340
-229.757	-200.000	-0.048	0.326
-228.742	446.272	0.115	0.250
-227.727	-116.373	0.345	-0.063
-226.713	16.090	-0.231	0.180
-225.698	-145.089	-0.154	0.014
-224.684	122.703	0.227	0.280
-223.669	-99.693	-0.799	0.198
-222.655	-87.019	0.228	-0.069
-221.640	-200.000	-0.071	-0.404
-220.625	-200.000	-0.002	0.063
-219.611	339.327	0.095	-0.182
-218.596	-74.787	-0.148	-0.053
-217.582	644.682	-0.064	0.162
-216.567	363.850	0.120	-0.239
-215.552	68.190	0.306	-0.309
-214.538	-117.839	-0.096	0.017
-213.523	-200.000	-0.046	0.295
-212.509	328.196	-0.042	0.080
-211.494	438.238	-0.104	-0.224
-210.479	-82.199	0.241	0.077
-209.465	-48.747	-0.188	0.089
-208.450	24.784	-0.254	-0.208
-207.436	800.000	0.062	-0.252
-206.421	-36.552	0.216	-0.115
-205.406	569.163	-0.142	0.341
-204.392	-132.179	0.152	0.019
-203.377	-200.000	0.022	-0.198
-202.363	177.079	0.104	0.149
-201.348	104.868	-0.188	0.219
-200.333	-200.000	-0.032	-0.208
-199.319	-91.552	-0.348	0.098
-198.304	384.643	-0.081	-0.164
-197.290	-109.348	0.350	0.073
-196.275	800.000	0.024	-0.095
-195.260	-200.000	-0.011	0.052
-194.246	800.000	0.028	0.104
-193.231	-161.194	-0.085	0.004
-192.217	-200.000	0.009	0.113
-191.202	-18.503	-0.269	0.166
-190.187	190.845	0.140	-0.208
-189.173	5.426	0.199	0.145
-188.158	-60.245	-0.234	-0.098
-187.144	653.206	0.072	0.181
-186.129	800.000	-0.006	-0.024
-185.114	-175.913	0.252	-0.007
-184.100	-96.523	-0.251	0.065
-183.085	800.000	0.079	-0.248
-182.071	66.876	-0.076	0.077
-181.056	-72.293	-0.098	0.036
-180.042	39.115	-0.075	0.066
-179.027	800.000	0.121	0.440
-178.012	800.000	-0.072	0.210
-176.998	14.182	0.132	0.101
-175.983	286.206	0.177	0.314
-174.969	-78.610	-0.294	0.099
-173.954	136.504	-0.065	-0.083
-172.939	29.313	-0.089	-0.074
-171.925	705.473	0.095	0.248
-170.910	103.126	-0.137	0.158
-169.896	-7.145	-0.217	0.145
-168.881	52.846	-0.086	-0.081
-167.866	-103.166	-0.347	-0.081
-166.852	-200.000	0.039	0.195
-165.837	119.276	-0.022	0.027
-164.823	448.233	0.089	0.194
-163.808	-55.528	-0.284	0.126
-162.793	-200.000	-0.036	0.260
-161.779	-200.000	-0.014	0.273
-160.764	-173.136	0.331	-0.010
-159.750	102.028	-0.190	-0.219
-158.735	78.867	-0.241	-0.254
-157.720	-79.453	0.373	0.124
-156.706	314.779	-0.152	0.282
-155.691	-59.116	-0.066	0.028
-154.677	-74.664	-0.004	0.001
-153.662	-200.000	0.062	-0.349
-152.647	-133.444	0.207	-0.026
-151.633	-110.583	-0.205	0.042
-150.618	-200.000	0.025	0.205
-149.604	-10.936	-0.228	-0.148
-148.589	-43.642	-0.152	-0.076
-147.574	-140.024	0.299	0.031
-146.560	93.602	0.072	-0.081
-145.545	228.205	0.061	0.098
-144.531	227.551	0.076	0.122
-143.516	-200.000	0.029	0.364
-142.502	117.288	-0.252	0.306
-141.487	800.000	-0.086	0.261
-140.472	-25.934	0.133	-0.077
-139.458	-158.545	-0.399	0.023
-138.443	-200.000	-0.000	0.057
-137.429	-57.042	-0.176	0.076
-136.414	41.079	-0.189	-0.168
-135.399	263.020	0.165	-0.282
-134.385	-102.880	-0.233	-0.055
-133.370	-13.940	-0.130	-0.083
-132.356	-10.751	0.401	-0.261
-131.341	121.996	0.030	0.036
-130.326	138.406	-0.150	-0.194
-129.312	800.000	0.064	0.216
-128.297	-200.000	0.009	-0.266
-127.283	800.000	0.036	-0.132
-126.268	-83.470	-0.227	-0.071
-125.253	-200.000	0.040	-0.187
-124.239	99.271	0.084	-0.096
-123.224	-43.593	-0.122	-0.060
-122.210	-200.000	0.420	-0.001
-121.195	800.000	-0.079	0.257
-120.180	36.657	0.141	-0.123
-119.166	-80.017	0.618	-0.204
-118.151	-77.499	-0.047	0.016
-117.137	-36.567	-0.175	-0.093
-116.122	81.192	0.103	0.109
-115.107	-20.332	-0.058	0.035
-114.093	-200.000	-0.020	-0.380
-113.078	194.085	-0.201	-0.299
-112.064	-72.993	0.206	-0.075
-111.049	-109.732	-0.165	0.034
-110.034	-73.024	-0.355	0.128
-109.020	-132.588	-0.208	-0.026
-108.005	-145.582	0.364	0.032
-106.991	325.827	0.100	-0.188
-105.976	-136.875	-0.223	-0.025
-104.962	-71.799	-0.254	-0.093
-103.947	-105.474	0.412	0.092
-102.932	328.331	0.085	0.161
-101.918	273.479	-0.160	-0.279
-100.903	-21.677	0.382	-0.229
-99.889	800.000	0.092	-0.250
-98.874	389.937	0.103	0.210
-97.859	166.292	-0.043	0.059
-96.845	321.021	-0.028	0.052
-95.830	-147.824	0.282	0.023
-94.816	-12.769	0.101	-0.065
-93.801	72.707	0.180	0.184
-92.786	157.647	-0.046	0.063
-91.772	-200.000	0.019	-0.190
-90.757	-15.520	0.367	0.230
-89.743	-137.293	0.180	-0.020
-88.728	-200.000	-0.044	-0.246
-87.713	92.652	0.164	-0.182
-86.699	-127.528	-0.249	-0.035
-85.684	644.761	0.061	-0.153
-84.670	-200.000	0.010	-0.095
-83.655	-200.000	-0.012	0.409
-82.640	-200.000	0.087	0.376
-81.626	24.338	-0.142	-0.115
-80.611	125.696	-0.224	0.278
-79.597	-94.971	-0.261	0.069
-78.582	-200.000	0.041	0.240
-77.567	426.930	0.143	0.302
-76.553	242.182	0.146	0.239
-75.538	46.057	0.204	0.186
-74.524	-112.202	-0.081	0.016
-73.509	638.783	0.030	0.075
-72.494	0.206	0.201	0.141
-71.480	-20.352	0.232	-0.140
-70.465	49.355	-0.128	-0.118
-69.451	800.000	0.130	-0.438
-68.436	-120.072	-0.065	-0.011
-67.422	121.220	0.099	0.121
-66.407	264.251	0.243	0.415
-65.392	-172.524	0.146	-0.005
-64.378	-200.000	0.038	0.225
-63.363	94.839	0.108	-0.121
-62.349	-63.796	0.330	0.133
-61.334	26.567	-1.186	-0.974
-60.319	454.048	0.271	0.588
-59.305	-200.000	-0.117	-1.029
-58.290	141.739	0.823	1.070
-57.276	-200.000	0.265	1.436
-56.261	-200.000	97.214	582.414
-55.246	518.894	1389.660	3194.045
-54.232	161.684	2554.109	3508.641
-53.217	111.518	2147.376	2541.889
-52.203	42.408	1691.732	1509.616
-51.188	35.196	1503.142	1292.833
-50.173	32.782	1476.433	1253.794
-49.159	52.581	1526.636	1430.693
-48.144	53.941	1545.040	1457.081
-47.130	35.345	1504.406	1294.726
-46.115	32.195	1489.879	1261.068
-45.100	32.129	1485.817	1257.138
-44.086	32.021	1484.167	1254.974
-43.071	32.044	1482.337	1253.532
-42.057	31.979	1481.001	1251.914
-41.042	31.962	1479.544	1250.523
-40.027	31.978	1478.277	1249.506
-39.013	31.926	1476.662	1247.744
-37.998	31.919	1475.181	1246.401
-36.984	32.034	1474.199	1246.280
-35.969	31.908	1472.769	1244.188
-34.954	31.982	1471.500	1243.560
-33.940	31.940	1470.453	1242.344
-32.925	32.045	1468.909	1241.687
-31.911	32.020	1467.711	1240.459
-30.896	32.072	1466.165	1239.449
-29.881	31.996	1465.090	1237.988
-28.867	32.066	1463.466	1237.028
-27.852	32.112	1462.000	1236.039
-26.838	32.085	1460.759	1234.763
-25.823	32.103	1459.131	1233.462
-24.809	32.095	1457.258	1231.777
-23.794	32.123	1456.149	1230.972
-22.779	32.107	1454.879	1229.747
-21.765	32.120	1453.967	1229.009
-20.750	31.960	1452.692	1226.838
-19.736	32.064	1451.312	1226.304
-18.721	31.907	1451.475	1225.364
-17.706	31.983	1449.475	1224.122
-16.692	31.993	1448.488	1223.309
-15.677	32.051	1447.203	1222.549
-14.663	31.986	1446.615	1221.586
-13.648	31.898	1446.426	1220.803
-12.633	31.978	1444.934	1220.014
-11.619	32.079	1443.802	1219.670
-10.604	31.969	1443.468	1218.624
-9.590	31.925	1442.400	1217.389
-8.575	32.012	1441.156	1216.853
-7.560	31.988	1440.285	1215.912
-6.546	31.837	1440.088	1214.722
-5.531	31.962	1438.677	1214.287
-4.517	31.850	1438.181	1213.101
-3.502	31.848	1436.734	1211.820
-2.487	31.972	1435.277	1211.344
-1.473	32.011	1434.573	1210.950
-0.458	31.997	1432.794	1209.309
0.556	29.899	1423.228	1196.914
1.571	26.172	1396.996	1151.040
2.586	21.781	1335.437	1073.396
3.600	19.765	1253.432	995.799
4.615	18.494	1209.062	953.400
5.629	17.168	1156.276	904.637
6.644	12.710	1079.302	822.132
7.659	8.708	1043.291	775.282
8.673	8.208	1037.789	768.718
9.688	8.043	1034.437	765.373
10.702	7.944	1033.021	763.782
11.717	7.946	1031.227	762.398
12.731	9.732	1032.176	771.583
13.746	14.239	1038.035	797.537
14.761	17.482	1041.521	815.708
15.775	17.633	1041.370	816.241
16.790	16.720	1038.766	809.767
17.804	15.731	1036.871	803.494
18.819	14.924	1034.763	797.942
19.834	14.234	1033.763	793.807
20.848	14.110	1032.576	792.238
21.863	13.686	1032.113	789.794
22.877	13.592	1030.916	788.359
23.892	13.316	1030.088	786.344
24.907	13.220	1029.611	785.454
25.921	13.265	1029.145	785.242
26.936	13.378	1028.095	784.908
27.950	13.340	1027.086	783.888
28.965	13.500	1025.726	783.537
29.980	13.411	1024.458	782.081
30.994	13.448	1024.180	781.972
32.009	13.529	1022.976	781.368
33.023	13.546	1022.366	780.914
34.038	13.556	1020.986	779.835
35.053	13.442	1020.434	778.808
36.067	13.631	1019.208	778.695
37.082	13.505	1018.645	777.601
38.096	13.453	1017.786	776.633
39.111	13.497	1016.838	776.049
40.126	13.465	1016.156	775.306
41.140	13.470	1015.026	774.402
42.155	13.412	1014.056	773.322
43.169	13.134	1013.407	771.459
44.184	13.238	1011.998	770.806
45.199	13.268	1011.007	770.121
46.213	13.238	1010.409	769.459
47.228	13.341	1009.242	768.978
48.242	13.456	1008.173	768.630
49.257	13.433	1007.328	767.814
50.271	13.484	1006.469	767.326
51.286	13.496	1005.411	766.507
52.301	13.466	1004.662	765.731
53.315	13.327	1004.388	764.812
54.330	13.321	1003.414	763.971
55.344	13.277	1002.180	762.761
56.359	13.217	1001.559	761.945
57.374	13.327	1000.402	761.507
58.388	13.387	999.224	760.818
59.403	13.198	998.733	759.507
60.417	13.233	998.457	759.389
61.432	13.177	997.475	758.321
62.447	13.206	996.794	757.870
63.461	13.189	995.468	756.714
64.476	13.162	994.794	756.012
65.490	13.149	994.009	755.291
66.505	13.044	993.315	754.214
67.520	13.219	992.266	754.150
68.534	13.152	991.607	753.278
69.549	13.268	990.455	752.865
70.563	13.104	990.473	752.062
71.578	13.256	989.257	751.768
72.593	13.187	988.540	750.842
73.607	13.051	987.318	749.229
74.622	13.110	986.635	748.913
75.636	13.068	985.721	747.962
76.651	13.143	984.859	747.579
77.666	13.017	984.615	746.760
78.680	12.988	983.841	745.975
79.695	12.976	983.378	745.505
80.709	13.199	982.613	745.867
81.724	13.317	981.185	745.246
82.739	13.314	980.654	744.764
83.753	13.260	980.650	744.451
84.768	13.437	979.332	744.180
85.782	13.443	978.857	743.782
86.797	13.426	978.115	743.077
87.812	13.424	977.372	742.438
88.826	13.381	976.425	741.458
89.841	13.429	975.654	741.021
90.855	13.518	974.743	740.662
91.870	13.507	973.788	739.823
92.884	13.543	973.526	739.718
93.899	13.439	972.751	738.598
94.914	13.541	972.062	738.468
95.928	13.471	971.556	737.703
96.943	13.630	970.722	737.716
97.957	13.633	969.788	736.955
98.972	13.454	969.032	735.516
99.987	13.487	968.153	734.930
101.001	13.461	967.596	734.330
102.016	13.539	966.635	733.879
103.030	13.481	965.786	732.912
104.045	13.396	965.079	731.938
105.060	13.612	963.325	731.495
106.074	13.420	963.030	730.360
107.089	13.296	962.324	729.212
108.103	13.331	960.886	728.212
109.118	13.228	960.474	727.381
110.133	13.356	959.610	727.225
111.147	13.196	958.875	725.904
112.162	13.215	957.722	725.047
113.176	13.307	957.308	725.076
114.191	13.329	956.252	724.308
115.206	13.401	955.224	723.779
116.220	13.316	954.496	722.791
117.235	13.501	953.321	722.646
118.249	13.356	952.874	721.610
119.264	13.250	952.197	720.572
120.279	13.244	951.162	719.700
121.293	13.224	950.663	719.169
122.308	13.241	949.842	718.562
123.322	13.286	949.022	718.070
124.337	13.284	947.692	716.994
125.352	13.333	946.368	716.138
126.366	13.342	945.757	715.652
127.381	13.306	944.376	714.389
128.395	13.307	943.662	713.791
129.410	13.248	942.614	712.680
130.424	13.223	941.949	712.005
131.439	13.203	941.584	711.581
132.454	13.155	940.563	710.541
133.468	13.295	940.047	710.688
134.483	13.390	939.204	710.395
135.497	13.419	938.699	710.078
136.512	13.369	937.991	709.265
137.527	13.402	937.024	708.611
138.541	13.441	935.965	707.913
139.556	13.476	935.104	707.350
140.570	13.366	934.891	706.658
141.585	13.513	933.836	706.423
142.600	13.544	933.171	705.989
143.614	13.410	932.596	704.920
144.629	13.721	931.609	705.435
145.643	13.748	930.970	705.007
146.658	13.587	930.463	703.876
147.673	13.538	929.641	702.981
148.687	13.531	928.310	701.886
149.702	13.352	927.670	700.579
150.716	13.550	926.647	700.584
151.731	13.374	926.113	699.375
152.746	13.441	925.319	698.995
153.760	13.568	924.341	698.730
154.775	13.520	923.922	698.149
155.789	13.537	923.136	697.567
156.804	13.545	922.590	697.125
157.819	13.546	921.408	696.176
158.833	13.594	920.847	695.891
159.848	13.607	920.673	695.752
160.862	13.710	919.910	695.547
161.877	13.690	918.659	694.453
162.892	13.569	918.252	693.578
163.906	13.508	917.281	692.530
164.921	13.528	916.338	691.837
165.935	13.493	915.434	690.949
166.950	13.539	914.687	690.518
167.964	13.618	913.480	689.874
168.979	13.574	913.185	689.405
169.994	13.740	911.763	688.962
171.008	13.597	911.113	687.815
172.023	13.666	910.227	687.373
173.037	13.728	909.582	687.080
174.052	13.740	908.998	686.630
175.067	13.716	908.471	686.071
176.081	13.561	907.688	684.779
177.096	13.691	906.565	684.407
178.110	13.513	905.959	683.154
179.125	13.685	905.026	683.100
180.140	13.645	904.184	682.237
181.154	13.580	903.838	681.648
182.169	13.808	902.781	681.727
183.183	13.725	902.364	681.012
184.198	13.882	901.300	680.792
185.213	13.806	900.994	680.190
186.227	13.847	900.545	679.962
187.242	13.894	900.167	679.804
188.256	13.933	899.142	679.133
189.271	14.100	898.317	679.131
190.286	14.082	897.768	678.583
191.300	13.769	897.313	676.902
192.315	13.842	896.064	676.196
193.329	13.724	895.353	675.120
194.344	13.626	894.832	674.267
195.359	13.710	894.352	674.187
196.373	13.777	893.965	674.108
197.388	13.865	893.505	674.061
198.402	14.061	892.504	674.043
199.417	14.099	892.469	674.110
200.432	14.039	892.130	673.551
201.446	14.106	891.721	673.451
202.461	14.165	891.255	673.282
203.475	14.226	890.345	672.780
204.490	14.260	889.944	672.554
205.504	14.217	888.877	671.515
206.519	14.096	888.288	670.524
207.534	14.134	887.787	670.240
208.548	14.002	887.093	669.125
209.563	13.995	886.600	668.662
210.577	14.073	885.575	668.144
211.592	14.193	884.882	668.044
212.607	14.013	884.744	667.160
213.621	14.463	883.470	667.944
214.636	14.316	883.303	667.169
215.650	14.136	882.746	665.969
216.665	14.305	882.012	666.031
217.680	14.240	881.710	665.483
218.694	14.303	881.011	665.152
219.709	14.318	880.923	665.086
220.723	14.344	880.053	664.475
221.738	14.267	879.573	663.743
222.753	14.319	878.634	663.183
223.767	14.408	877.667	662.748
224.782	14.405	876.995	662.172
225.796	14.310	876.712	661.522
226.811	14.454	875.946	661.456
227.826	14.405	875.145	660.598
228.840	14.355	874.363	659.754
229.855	14.432	873.690	659.489
230.869	14.425	872.950	658.847
231.884	14.483	872.413	658.612
232.899	14.375	871.871	657.720
233.913	14.396	870.940	657.041
234.928	14.285	870.174	655.967
235.942	14.235	870.297	655.804
236.957	14.350	869.183	655.360
237.972	14.456	868.547	655.239
238.986	14.434	867.947	654.641
240.001	14.414	867.338	654.048
241.015	14.444	866.304	653.328
242.030	14.412	865.930	652.861
243.045	14.468	865.582	652.760
244.059	14.509	864.934	652.376
245.074	14.490	863.950	651.498
246.088	14.573	863.299	651.274
247.103	14.592	862.878	650.974
248.117	14.559	862.533	650.530
249.132	14.698	861.657	650.350
250.147	14.895	861.232	650.738
251.161	14.877	860.842	650.316
252.176	14.970	860.365	650.261
253.190	14.935	859.409	649.344
254.205	14.915	859.346	649.163
255.220	14.929	858.601	648.598
256.234	15.002	857.562	648.038
257.249	15.081	857.000	647.862
258.263	15.086	856.719	647.610
259.278	15.026	855.787	646.617
260.293	15.140	855.598	646.858
261.307	15.215	854.587	646.326
262.322	15.213	854.177	645.949
263.336	15.173	854.088	645.669
264.351	15.096	853.529	644.894
265.366	15.183	852.804	644.625
266.380	15.166	852.240	644.077
267.395	15.038	851.620	643.060
268.409	15.058	850.683	642.371
269.424	15.015	850.116	641.722
270.439	15.215	848.950	641.549
271.453	15.268	848.430	641.302
272.468	15.217	847.518	640.361
273.482	15.114	847.212	639.681
274.497	15.140	846.549	639.221
275.512	15.116	846.067	638.712
276.526	15.197	844.669	637.909
277.541	15.094	844.514	637.341
278.555	15.230	844.258	637.610
279.570	15.246	843.524	637.059
280.585	15.424	842.862	637.179
281.599	15.420	842.293	636.678
282.614	15.319	841.852	635.903
283.628	15.497	840.857	635.770
284.643	15.381	840.805	635.237
285.657	15.376	839.954	634.520
286.672	15.352	839.801	634.255
287.687	15.349	839.282	633.797
288.701	15.325	839.183	633.573
289.716	15.326	838.469	632.982
290.730	15.395	837.729	632.629
291.745	15.471	836.941	632.265
292.760	15.471	836.484	631.862
293.774	15.486	835.622	631.214
294.789	15.565	835.234	631.161
295.803	15.609	834.512	630.722
296.818	15.478	833.908	629.721
297.833	15.487	833.492	629.385
298.847	15.499	832.776	628.834
299.862	15.558	832.082	628.472
300.876	15.491	831.613	627.812
301.891	15.650	831.006	627.895
302.906	15.699	830.362	627.534
303.920	15.538	830.074	626.661
304.935	15.844	828.872	626.835
305.949	15.897	828.165	626.444
306.964	15.822	827.849	625.871
307.979	15.905	826.932	625.430
308.993	15.797	826.919	624.966
310.008	15.802	826.168	624.360
311.022	15.874	825.810	624.302
312.037	15.821	825.196	623.584
313.052	15.793	824.915	623.215
314.066	15.718	823.900	622.116
315.081	15.768	823.314	621.801
316.095	15.795	822.899	621.534
317.110	15.781	822.516	621.138
318.125	15.782	822.019	620.711
319.139	15.786	821.531	620.302
320.154	15.844	820.688	619.824
321.168	15.838	820.176	619.361
322.183	15.834	819.956	619.126
323.197	15.847	819.713	618.936
324.212	15.887	818.717	618.277
325.227	15.772	818.415	617.571
326.241	15.871	817.650	617.302
327.256	15.822	817.088	616.644
328.270	15.942	816.402	616.510
329.285	15.913	815.939	615.998
330.300	15.812	815.581	615.305
331.314	15.881	814.685	614.826
332.329	15.980	814.020	614.632
333.343	15.990	813.791	614.441
334.358	16.004	813.185	613.980
335.373	15.995	812.720	613.541
336.387	16.084	812.251	613.456
337.402	16.164	811.528	613.146
338.416	16.093	811.169	612.566
339.431	16.117	810.458	612.059
340.446	16.349	810.131	612.602
341.460	16.145	809.667	611.458
342.475	16.287	808.807	611.269
343.489	16.413	808.369	611.339
344.504	16.247	808.240	610.585
345.519	16.269	807.789	610.272
346.533	16.369	807.037	610.008
347.548	16.468	806.414	609.841
348.562	16.427	805.753	609.141
349.577	16.255	805.569	608.327
350.592	16.397	804.704	608.131
351.606	16.164	804.296	606.932
352.621	16.366	803.726	607.173
353.635	16.177	803.714	606.430
354.650	16.340	802.939	606.378
355.665	16.377	802.726	606.298
356.679	16.344	802.239	605.755
357.694	16.233	801.662	604.871
358.708	16.301	801.432	604.887
359.723	16.479	800.594	604.836
360.738	16.413	800.284	604.312
361.752	16.439	799.529	603.783
362.767	16.567	799.258	603.981
363.781	16.476	799.085	603.473
364.796	16.691	798.075	603.422
365.810	16.705	797.801	603.210
366.825	16.523	797.441	602.240
367.840	16.932	796.938	603.261
368.854	16.679	796.850	602.241
369.869	16.703	796.381	601.919
370.883	16.678	795.738	601.289
371.898	16.594	795.443	600.716
372.913	16.667	794.719	600.376
373.927	16.775	794.014	600.171
374.942	16.780	793.540	599.780
375.956	16.797	792.739	599.179
376.971	16.700	792.533	598.628
377.986	16.908	791.908	598.837
379.000	16.916	791.409	598.434
380.015	16.998	790.747	598.173
381.029	16.984	790.341	597.761
382.044	16.895	790.011	597.146
383.059	16.886	789.501	596.675
384.073	17.107	788.346	596.527
385.088	17.057	788.023	596.055
386.102	17.015	787.722	595.624
387.117	16.962	786.896	594.763
388.132	16.859	786.688	594.191
389.146	16.749	786.309	593.468
390.161	16.855	786.044	593.585
391.175	16.938	785.887	593.707
392.190	16.969	785.390	593.386
393.205	17.037	784.505	592.901
394.219	16.947	784.129	592.251
395.234	16.855	783.979	591.766
396.248	16.940	783.538	591.677
397.263	16.992	782.649	591.134
398.278	16.848	782.321	590.331
399.292	16.824	781.918	589.892
400.307	16.883	781.785	589.944
401.321	16.880	781.061	589.336
402.336	16.921	780.885	589.295
403.350	17.118	780.130	589.355
404.365	17.082	779.986	589.071
405.380	17.164	779.577	588.992
406.394	17.155	779.298	588.700
407.409	17.161	778.593	588.136
408.423	17.211	778.165	587.932
409.438	17.303	777.642	587.804
410.453	17.241	777.406	587.359
411.467	17.384	777.176	587.629
412.482	17.397	776.300	586.956
413.496	17.502	775.600	586.740
414.511	17.168	776.214	585.997
415.526	17.411	775.366	586.143
416.540	17.471	774.900	585.946
417.555	17.584	774.119	585.693
418.569	17.513	773.887	585.223
419.584	17.526	773.779	585.134
420.599	17.578	773.055	584.711
421.613	108.302	1286.953	1460.683
422.628	92.453	1361.829	1460.788
