DTS Sentinel unit serial number:	SN413079Multiplexer serial number:	ORYXHardware model number:	OX4-SRSoftware version number:	ORYX F/W v4.00 Oryx Data Collector v3.7.2.0data status	okinstallation	princeton_trtdifferential loss correction	single-endedforward channel	channel 3reverse channel	N/Adate	2019/09/15time	17:40:35forward acquisition time	60.00reverse acquisition time	0.00gamma	496.2192k internal	0.2286k external	0.2286temperature offset calibration	0.9930default loss term (dB/km)	0.3790temperature slope calibration	1.0000multiplexer offset coefficient	1.0000multiplexer slope coefficient	1.0000fibre end	0.00T internal ref (°C)	44.87T ext. ref 1 (°C)	6.25T ext. ref 2 (°C)	39.77length (m)	temperature (°C)	Stokes	anti-Stokes-747.200	-101.419	-0.385	-0.096
-746.185	-86.404	0.190	0.060
-745.171	-115.212	-0.200	-0.039
-744.156	13.657	0.094	0.075
-743.142	-200.000	-0.000	-0.113
-742.127	483.323	0.223	0.521
-741.112	95.396	-0.251	0.294
-740.098	336.180	-0.273	0.544
-739.083	134.274	-0.129	0.172
-738.069	-200.000	0.003	-0.172
-737.054	-137.766	-0.178	-0.021
-736.039	182.425	-0.144	0.217
-735.025	-200.000	0.022	0.198
-734.010	-160.986	0.247	-0.013
-732.996	236.428	0.110	-0.187
-731.981	131.572	0.125	-0.165
-730.966	-200.000	0.007	-0.300
-729.952	455.639	0.040	0.092
-728.937	-200.000	0.021	-0.098
-727.923	-91.237	0.192	-0.056
-726.908	16.086	0.124	0.101
-725.894	-157.950	-0.281	-0.017
-724.879	280.628	0.150	0.274
-723.864	-200.000	-0.074	0.336
-722.850	-145.909	-0.125	0.011
-721.835	15.794	-0.286	0.230
-720.821	-70.421	-0.189	-0.073
-719.806	-200.000	-0.027	0.292
-718.791	375.764	0.162	-0.338
-717.777	-200.000	-0.031	-0.190
-716.762	-200.000	-0.003	-0.085
-715.748	225.914	-0.201	0.335
-714.733	727.581	0.072	-0.197
-713.718	81.771	-0.113	-0.125
-712.704	-133.717	-0.127	-0.016
-711.689	-122.738	0.132	-0.022
-710.675	80.257	-0.008	-0.009
-709.660	22.160	-0.333	0.278
-708.645	75.627	-0.156	0.169
-707.631	-60.617	0.110	0.048
-706.616	-200.000	0.016	0.533
-705.602	-60.625	-0.291	0.127
-704.587	-31.484	0.245	0.141
-703.572	800.000	-0.015	0.050
-702.558	99.346	0.172	0.204
-701.543	-80.296	-0.109	0.037
-700.529	-200.000	-0.003	-0.034
-699.514	-200.000	-0.005	0.243
-698.499	-114.313	0.050	-0.010
-697.485	-31.990	-0.153	0.087
-696.470	800.000	-0.066	-0.257
-695.456	800.000	-0.044	-0.145
-694.441	401.505	-0.116	0.249
-693.426	-80.688	0.253	-0.086
-692.412	361.670	0.030	0.062
-691.397	32.724	0.253	-0.224
-690.383	800.000	0.017	-0.062
-689.368	204.085	-0.042	0.066
-688.354	194.434	-0.151	0.235
-687.339	800.000	-0.068	0.213
-686.324	-200.000	-0.007	-0.172
-685.310	149.275	-0.070	-0.097
-684.295	115.539	0.164	-0.205
-683.281	-101.442	-0.249	-0.062
-682.266	-19.594	-0.179	0.114
-681.251	-97.555	0.240	0.064
-680.237	131.067	0.161	0.212
-679.222	501.560	0.076	0.179
-678.208	528.366	-0.095	0.229
-677.193	-36.299	0.169	0.093
-676.178	-200.000	-0.028	-0.161
-675.164	800.000	0.039	-0.116
-674.149	-200.000	0.019	-0.187
-673.135	-170.794	-0.059	0.002
-672.120	45.457	-0.273	0.258
-671.105	-133.146	-0.127	-0.016
-670.091	-87.067	-0.467	-0.146
-669.076	410.888	-0.134	-0.292
-668.062	116.088	-0.071	0.089
-667.047	800.000	0.017	0.049
-666.032	309.150	-0.112	-0.214
-665.018	690.584	0.039	-0.105
-664.003	800.000	0.043	0.136
-662.989	-200.000	-0.044	-0.279
-661.974	-62.991	-0.340	-0.144
-660.959	-200.000	0.001	-0.028
-659.945	-106.482	0.217	0.049
-658.930	-113.210	-0.321	0.065
-657.916	184.399	-0.325	0.492
-656.901	800.000	0.024	0.098
-655.886	133.567	0.211	0.279
-654.872	-120.985	-0.308	0.053
-653.857	55.013	-0.132	0.130
-652.843	-200.000	-0.002	-0.469
-651.828	-129.967	-0.279	0.039
-650.814	-200.000	-0.008	0.236
-649.799	566.376	0.012	0.031
-648.784	-17.213	0.123	0.079
-647.770	113.340	-0.114	-0.142
-646.755	-200.000	0.051	0.343
-645.741	-76.337	-0.327	0.118
-644.726	239.983	0.180	0.307
-643.711	-23.400	-0.130	-0.080
-642.697	163.221	0.215	-0.309
-641.682	276.903	0.109	-0.198
-640.668	22.581	-0.181	-0.152
-639.653	240.974	-0.186	-0.317
-638.638	-125.915	-0.131	-0.020
-637.624	416.489	-0.127	0.278
-636.609	-112.575	0.301	0.061
-635.595	-49.000	0.262	-0.128
-634.580	93.820	0.095	-0.110
-633.565	55.469	-0.374	-0.370
-632.551	378.608	-0.073	0.153
-631.536	221.796	0.105	0.172
-630.522	-115.732	-0.333	0.064
-629.507	142.195	-0.255	-0.345
-628.492	16.193	-0.089	0.072
-627.478	-27.678	-0.386	-0.229
-626.463	-110.197	-0.282	-0.060
-625.449	173.617	-0.157	0.231
-624.434	-200.000	0.003	0.594
-623.419	110.621	-0.095	-0.117
-622.405	-4.855	-0.058	-0.041
-621.390	263.390	0.144	0.255
-620.376	32.080	0.249	0.219
-619.361	-58.352	-0.039	-0.017
-618.346	0.296	0.194	-0.142
-617.332	-200.000	-0.024	0.193
-616.317	216.479	0.238	-0.387
-615.303	-181.176	-0.379	0.008
-614.288	-40.803	-0.076	-0.040
-613.273	800.000	-0.044	-0.154
-612.259	-170.562	0.192	0.007
-611.244	263.851	-0.111	-0.197
-610.230	20.445	0.023	-0.019
-609.215	-200.000	0.012	-0.070
-608.201	18.104	-0.280	-0.228
-607.186	-69.159	-0.190	0.075
-606.171	-91.316	-0.304	0.089
-605.157	143.284	-0.318	0.432
-604.142	-133.724	0.207	0.026
-603.128	-200.000	0.003	0.038
-602.113	-200.000	-0.046	-0.357
-601.098	-200.000	-0.043	-0.352
-600.084	-60.623	0.027	-0.012
-599.069	800.000	-0.072	0.231
-598.055	-43.129	-0.359	-0.185
-597.040	-44.013	-0.206	-0.106
-596.025	-200.000	-0.006	0.163
-595.011	-44.282	-0.029	-0.015
-593.996	26.627	-0.060	0.052
-592.982	-44.948	0.132	-0.067
-591.967	356.433	-0.082	0.166
-590.952	-148.184	0.096	0.008
-589.938	54.415	0.089	0.087
-588.923	123.611	0.180	0.230
-587.909	38.164	0.143	-0.130
-586.894	-200.000	-0.031	-0.215
-585.879	-83.309	-0.253	-0.083
-584.865	194.099	-0.147	0.227
-583.850	-16.303	-0.051	0.033
-582.836	365.916	-0.051	-0.105
-581.821	36.460	-0.160	0.144
-580.806	800.000	0.085	-0.270
-579.792	-200.000	0.026	0.552
-578.777	-94.039	-0.154	-0.043
-577.763	-67.471	0.172	0.069
-576.748	6.751	-0.168	0.127
-575.733	800.000	-0.057	0.195
-574.719	124.920	0.077	0.099
-573.704	295.721	-0.034	0.063
-572.690	800.000	-0.046	-0.159
-571.675	35.059	-0.259	-0.231
-570.661	-200.000	0.005	0.269
-569.646	800.000	-0.104	0.302
-568.631	65.044	0.171	0.177
-567.617	279.975	-0.035	-0.064
-566.602	-4.446	0.148	0.104
-565.588	-27.001	-0.291	0.173
-564.573	284.476	0.186	0.341
-563.558	-28.956	0.255	-0.149
-562.544	-87.999	-0.149	0.046
-561.529	-165.818	0.231	-0.010
-560.515	111.910	-0.065	0.081
-559.500	-89.686	-0.135	0.040
-558.485	-68.108	0.117	0.046
-557.471	-83.572	0.215	0.070
-556.456	-139.661	-0.166	0.018
-555.442	32.861	0.154	0.136
-554.427	-43.521	0.247	0.127
-553.412	-192.443	0.076	0.001
-552.398	-200.000	0.035	0.169
-551.383	-200.000	-0.005	0.106
-550.369	304.296	0.049	0.092
-549.354	218.050	-0.067	0.109
-548.339	265.657	-0.038	-0.068
-547.325	-200.000	-0.027	0.159
-546.310	-80.386	-0.202	-0.069
-545.296	-105.377	0.095	0.022
-544.281	-64.401	-0.221	0.091
-543.266	-86.672	0.195	0.061
-542.252	-11.572	-0.179	-0.120
-541.237	-200.000	-0.027	-0.287
-540.223	-83.906	-0.029	-0.009
-539.208	1.674	0.212	0.155
-538.193	46.977	0.141	-0.134
-537.179	-200.000	-0.026	0.304
-536.164	-200.000	-0.015	-0.091
-535.150	-79.078	-0.404	-0.140
-534.135	94.623	0.073	0.084
-533.121	-200.000	0.058	0.401
-532.106	-10.110	-0.141	-0.096
-531.091	-159.052	0.395	0.023
-530.077	-200.000	-0.060	-0.499
-529.062	206.262	0.109	0.172
-528.048	-200.000	0.009	-0.163
-527.033	-154.223	-0.213	-0.015
-526.018	-93.718	0.365	0.102
-525.004	16.125	-0.237	-0.190
-523.989	800.000	0.083	0.266
-522.975	-96.902	0.167	0.045
-521.960	13.768	0.178	-0.140
-520.945	-125.639	0.043	-0.007
-519.931	-200.000	0.001	0.172
-518.916	800.000	0.055	0.184
-517.902	-15.538	-0.130	0.084
-516.887	-30.120	0.036	0.021
-515.872	-200.000	0.001	-0.093
-514.858	-200.000	0.001	-0.022
-513.843	-71.636	-0.318	-0.121
-512.829	507.189	0.023	-0.054
-511.814	82.355	0.087	-0.096
-510.799	99.705	-0.173	0.204
-509.785	-78.331	0.108	-0.038
-508.770	-200.000	0.022	-0.299
-507.756	800.000	-0.046	-0.145
-506.741	18.458	-0.239	-0.194
-505.726	-200.000	0.034	-0.197
-504.712	-200.000	0.046	-0.289
-503.697	12.747	-0.291	-0.228
-502.683	-200.000	0.001	-0.034
-501.668	232.954	0.085	0.143
-500.653	44.048	-0.128	0.120
-499.639	-118.323	0.458	0.083
-498.624	-75.270	-0.127	-0.046
-497.610	800.000	-0.110	-0.310
-496.595	-35.678	0.224	0.124
-495.581	-11.884	-0.261	-0.174
-494.566	-200.000	-0.043	-0.331
-493.551	-93.964	-0.269	-0.075
-492.537	-200.000	0.013	0.061
-491.522	-29.228	-0.234	0.136
-490.508	8.029	0.140	-0.107
-489.493	-180.913	-0.193	-0.004
-488.478	-112.697	0.176	0.035
-487.464	-47.796	0.266	0.131
-486.449	-93.080	0.103	-0.029
-485.435	-117.482	0.239	-0.044
-484.420	-200.000	0.013	-0.167
-483.405	-101.743	0.272	-0.067
-482.391	506.701	0.070	-0.164
-481.376	-200.000	0.063	-0.337
-480.362	-200.000	-0.031	-0.304
-479.347	800.000	-0.040	-0.169
-478.332	-55.540	0.088	0.040
-477.318	-200.000	0.012	0.183
-476.303	800.000	-0.056	0.184
-475.289	-88.264	-0.182	-0.055
-474.274	129.180	0.108	-0.141
-473.259	-200.000	0.009	0.109
-472.245	-58.720	0.311	0.137
-471.230	-200.000	0.007	-0.093
-470.216	-132.126	-0.160	-0.021
-469.201	267.303	0.094	0.167
-468.186	-128.024	0.324	-0.047
-467.172	-200.000	0.016	-0.396
-466.157	-91.620	-0.212	0.061
-465.143	-72.972	0.166	0.062
-464.128	32.887	-0.078	0.069
-463.113	800.000	-0.078	0.244
-462.099	-200.000	-0.010	0.046
-461.084	-200.000	-0.034	0.326
-460.070	-200.000	-0.001	0.090
-459.055	41.138	-0.168	-0.154
-458.040	-81.936	0.590	-0.196
-457.026	21.108	0.063	0.052
-456.011	61.299	-0.094	-0.095
-454.997	272.851	-0.121	0.217
-453.982	561.802	-0.040	-0.097
-452.968	800.000	-0.083	-0.319
-451.953	-27.501	-0.270	0.159
-450.938	-200.000	0.003	-0.046
-449.924	104.978	0.095	-0.114
-448.909	-134.795	-0.076	0.009
-447.895	448.593	-0.063	0.140
-446.880	-54.245	0.335	0.154
-445.865	-7.034	0.084	-0.058
-444.851	89.738	0.144	-0.164
-443.836	-200.000	0.029	0.235
-442.822	-159.062	-0.152	-0.009
-441.807	-200.000	0.008	-0.268
-440.792	199.935	0.198	0.309
-439.778	-14.756	-0.154	-0.101
-438.763	7.826	0.106	0.081
-437.749	-99.267	0.117	-0.030
-436.734	-200.000	0.146	0.000
-435.719	-111.949	-0.377	-0.077
-434.705	33.188	-0.137	-0.121
-433.690	409.970	-0.160	-0.343
-432.676	-200.000	0.009	-0.091
-431.661	800.000	-0.097	-0.322
-430.646	-146.825	0.283	-0.025
-429.632	200.731	-0.030	-0.047
-428.617	-200.000	0.041	0.210
-427.603	48.521	0.245	-0.233
-426.588	-58.828	-0.082	-0.036
-425.573	204.377	-0.152	0.239
-424.559	-200.000	0.062	0.337
-423.544	-33.959	0.234	-0.130
-422.530	-12.043	0.181	0.120
-421.515	165.550	0.048	0.068
-420.500	-10.749	-0.241	0.162
-419.486	-19.368	-0.094	-0.059
-418.471	-108.687	0.202	0.044
-417.457	92.123	-0.191	0.218
-416.442	148.813	-0.205	0.281
-415.428	-19.324	0.215	-0.135
-414.413	-200.000	0.003	0.028
-413.398	-108.682	-0.183	-0.040
-412.384	-187.224	0.272	-0.004
-411.369	-35.204	-0.279	-0.154
-410.355	123.422	-0.085	0.108
-409.340	391.227	0.188	0.395
-408.325	528.629	-0.069	0.164
-407.311	-177.874	-0.115	0.003
-406.296	800.000	-0.076	0.307
-405.282	-21.682	-0.156	0.096
-404.267	800.000	-0.022	-0.082
-403.252	11.032	-0.147	0.114
-402.238	164.937	0.210	0.300
-401.223	279.626	-0.156	-0.282
-400.209	36.860	-0.261	-0.234
-399.194	-124.753	-0.210	0.033
-398.179	68.428	0.028	-0.030
-397.165	-200.000	-0.049	-0.221
-396.150	-62.559	0.293	-0.123
-395.136	-107.939	0.150	-0.033
-394.121	-43.320	0.453	-0.232
-393.106	58.831	0.218	0.217
-392.092	3.114	-0.140	0.103
-391.077	-152.263	-0.110	-0.008
-390.063	590.264	0.027	-0.068
-389.048	-121.987	-0.259	0.043
-388.033	10.726	-0.020	0.015
-387.019	621.421	-0.085	0.215
-386.004	-159.451	0.297	0.017
-384.990	-200.000	-0.009	0.129
-383.975	-46.594	-0.356	-0.177
-382.960	300.460	-0.041	-0.077
-381.946	-134.511	0.208	0.026
-380.931	-200.000	-0.032	-0.197
-379.917	271.795	-0.173	-0.309
-378.902	-200.000	-0.047	0.243
-377.888	-45.516	-0.025	-0.012
-376.873	-123.425	0.301	-0.048
-375.858	195.851	-0.185	0.284
-374.844	-103.812	-0.081	0.019
-373.829	-200.000	-0.016	0.245
-372.815	127.988	0.088	0.113
-371.800	700.100	0.078	0.209
-370.785	572.250	-0.042	-0.105
-369.771	-18.735	0.168	0.106
-368.756	-200.000	0.003	-0.286
-367.742	-92.612	0.193	-0.055
-366.727	-73.993	0.328	-0.120
-365.712	79.526	0.118	0.128
-364.698	116.500	0.070	-0.086
-363.683	-200.000	0.031	0.192
-362.669	21.479	0.098	0.081
-361.654	-43.825	0.401	-0.204
-360.639	-115.972	0.241	-0.045
-359.625	-19.314	-0.072	-0.045
-358.610	-41.842	0.064	-0.033
-357.596	-180.254	0.194	-0.004
-356.581	284.057	-0.120	-0.218
-355.566	-47.513	0.222	0.109
-354.552	-149.029	0.416	0.034
-353.537	-56.464	-0.161	-0.072
-352.523	-200.000	-0.041	-0.477
-351.508	800.000	-0.038	-0.124
-350.493	-95.532	0.158	0.043
-349.479	80.283	-0.093	-0.101
-348.464	253.187	-0.149	0.257
-347.450	20.791	-0.100	-0.082
-346.435	800.000	-0.005	-0.013
-345.420	-172.346	-0.430	0.014
-344.406	357.769	0.063	0.126
-343.391	162.225	-0.229	0.324
-342.377	-33.833	0.062	0.035
-341.362	-200.000	-0.025	0.112
-340.348	-200.000	-0.023	0.332
-339.333	-200.000	0.029	0.337
-338.318	11.307	0.039	0.030
-337.304	460.021	0.096	0.217
-336.289	414.123	-0.042	0.090
-335.275	9.453	-0.326	-0.249
-334.260	-32.909	-0.053	-0.030
-333.245	-200.000	0.030	0.337
-332.231	-56.720	-0.092	-0.041
-331.216	-146.162	-0.056	0.005
-330.202	800.000	-0.017	0.050
-329.187	-200.000	0.049	-0.242
-328.172	-138.335	0.070	0.008
-327.158	-98.150	0.128	0.033
-326.143	-49.849	-0.117	-0.056
-325.129	252.166	0.201	-0.346
-324.114	51.072	-0.084	-0.081
-323.099	-134.772	-0.355	-0.043
-322.085	-200.000	0.002	0.456
-321.070	90.211	0.125	-0.141
-320.056	-200.000	-0.010	0.079
-319.041	-8.060	0.405	-0.276
-318.026	-200.000	0.025	0.256
-317.012	-59.949	0.073	-0.032
-315.997	-200.000	-0.019	-0.251
-314.983	-200.000	0.007	-0.087
-313.968	-59.572	-0.307	-0.133
-312.953	-200.000	-0.017	0.139
-311.939	-200.000	-0.012	0.278
-310.924	-200.000	-0.018	-0.141
-309.910	396.529	-0.120	-0.252
-308.895	-200.000	-0.015	0.571
-307.880	-2.652	-0.131	-0.092
-306.866	327.065	0.042	0.081
-305.851	335.124	-0.185	-0.362
-304.837	-69.514	-0.228	-0.088
-303.822	-69.777	-0.225	-0.087
-302.807	-30.575	0.197	0.112
-301.793	-200.000	-0.029	0.231
-300.778	-92.326	0.026	-0.007
-299.764	4.744	-0.266	0.197
-298.749	-86.472	0.279	0.086
-297.735	-200.000	0.011	-0.178
-296.720	77.653	0.032	0.034
-295.705	-38.900	-0.259	0.137
-294.691	372.265	0.044	0.091
-293.676	244.407	0.127	-0.214
-292.662	-115.965	-0.146	-0.027
-291.647	-45.608	0.115	0.057
-290.632	800.000	-0.087	-0.314
-289.618	77.621	-0.156	0.167
-288.603	190.177	0.068	-0.103
-287.589	-173.797	-0.198	0.006
-286.574	-19.733	-0.308	0.192
-285.559	791.229	-0.043	-0.118
-284.545	608.146	0.140	0.352
-283.530	169.510	0.144	0.207
-282.516	-23.534	0.081	0.049
-281.501	-182.861	0.343	0.006
-280.486	115.645	0.160	0.197
-279.472	417.000	-0.085	0.182
-278.457	-120.409	-0.112	0.019
-277.443	-147.155	-0.187	-0.016
-276.428	-200.000	0.016	-0.099
-275.413	57.527	0.184	-0.181
-274.399	-200.000	0.051	0.277
-273.384	-53.663	0.180	-0.083
-272.370	-200.000	0.025	0.236
-271.355	-125.170	-0.152	0.023
-270.340	48.742	0.201	-0.190
-269.326	-188.044	-0.113	0.001
-268.311	101.325	-0.256	-0.300
-267.297	-98.505	-0.196	0.050
-266.282	800.000	0.010	-0.036
-265.267	-124.915	0.144	-0.022
-264.253	219.533	-0.073	0.118
-263.238	800.000	-0.058	0.167
-262.224	-0.231	0.133	0.095
-261.209	-35.218	0.030	0.016
-260.195	-200.000	0.013	0.072
-259.180	800.000	0.031	-0.125
-258.165	-200.000	0.048	0.214
-257.151	800.000	-0.078	-0.315
-256.136	-122.196	-0.359	-0.059
-255.122	-200.000	0.003	0.072
-254.107	-200.000	-0.025	-0.182
-253.092	-63.824	0.240	0.099
-252.078	-45.956	-0.164	0.081
-251.063	-141.145	0.386	-0.040
-250.049	214.629	0.213	-0.340
-249.034	-18.094	0.148	-0.093
-248.019	85.799	0.081	-0.090
-247.005	-200.000	0.011	-0.321
-245.990	-156.749	0.400	-0.025
-244.976	577.647	0.056	-0.137
-243.961	800.000	-0.079	-0.341
-242.946	-53.343	0.260	0.120
-241.932	406.328	0.142	0.301
-240.917	-200.000	-0.001	0.445
-239.903	800.000	0.071	0.220
-238.888	31.284	-0.182	-0.157
-237.873	-156.120	0.206	-0.013
-236.859	612.916	0.081	-0.205
-235.844	-23.667	0.297	-0.179
-234.830	39.936	-0.173	0.156
-233.815	800.000	0.045	-0.184
-232.800	-98.500	0.037	0.010
-231.786	800.000	0.084	-0.287
-230.771	-165.546	-0.221	-0.010
-229.757	-147.923	0.327	0.027
-228.742	130.436	-0.034	0.044
-227.727	-25.792	-0.268	0.159
-226.713	-200.000	-0.007	-0.205
-225.698	-112.206	-0.289	0.058
-224.684	563.876	-0.179	0.436
-223.669	351.596	0.062	0.123
-222.655	171.384	0.103	0.149
-221.640	144.679	-0.196	0.263
-220.625	83.573	0.087	0.095
-219.611	290.783	-0.159	-0.290
-218.596	773.572	0.146	-0.399
-217.582	-200.000	-0.015	0.326
-216.567	-47.846	0.091	-0.044
-215.552	-7.155	0.238	0.162
-214.538	-200.000	-0.030	-0.213
-213.523	-200.000	-0.026	-0.311
-212.509	800.000	0.088	-0.357
-211.494	-142.506	-0.140	0.014
-210.479	800.000	0.068	-0.261
-209.465	800.000	-0.022	0.089
-208.450	800.000	-0.066	-0.260
-207.436	-200.000	0.028	0.134
-206.421	18.580	0.264	-0.212
-205.406	-200.000	-0.008	0.239
-204.392	3.360	0.330	0.242
-203.377	33.771	0.247	0.216
-202.363	214.489	-0.127	-0.203
-201.348	565.703	0.085	-0.207
-200.333	-56.129	-0.195	0.087
-199.319	301.599	-0.116	0.216
-198.304	800.000	-0.037	0.128
-197.290	-140.888	0.373	0.039
-196.275	-14.747	0.161	0.104
-195.260	-164.647	-0.346	0.016
-194.246	-29.836	0.076	-0.043
-193.231	-200.000	0.047	-0.322
-192.217	-52.513	0.229	-0.106
-191.202	-21.303	-0.026	0.016
-190.187	-89.793	0.216	0.063
-189.173	-103.801	-0.130	0.031
-188.158	-32.482	0.042	0.023
-187.144	-200.000	-0.036	-0.377
-186.129	-135.791	0.081	-0.010
-185.114	214.158	-0.064	-0.102
-184.100	-46.022	-0.206	0.102
-183.085	-200.000	0.003	0.127
-182.071	-43.858	-0.085	0.043
-181.056	392.933	0.100	-0.208
-180.042	-42.128	-0.061	0.031
-179.027	88.509	0.101	0.113
-178.012	88.530	-0.227	0.253
-176.998	800.000	0.124	-0.359
-175.983	-21.941	-0.131	0.080
-174.969	-73.785	0.181	0.066
-173.954	-85.153	0.147	-0.046
-172.939	-73.903	0.064	0.023
-171.925	-46.281	-0.371	-0.183
-170.910	202.465	-0.123	-0.190
-169.896	-116.459	0.194	0.036
-168.881	363.903	0.137	-0.276
-167.866	68.620	-0.146	-0.150
-166.852	-111.181	-0.247	0.051
-165.837	-121.041	-0.028	-0.005
-164.823	800.000	0.101	-0.317
-163.808	-67.830	-0.083	-0.033
-162.793	-12.737	-0.115	0.075
-161.779	649.548	-0.044	-0.112
-160.764	42.091	0.118	-0.108
-159.750	171.837	0.096	0.138
-158.735	139.070	0.134	0.177
-157.720	-119.426	0.151	0.026
-156.706	-109.023	-0.221	0.047
-155.691	52.260	0.240	0.229
-154.677	-200.000	0.028	-0.353
-153.662	99.106	0.097	-0.112
-152.647	-200.000	0.004	-0.160
-151.633	52.052	-0.242	0.232
-150.618	800.000	0.076	0.296
-149.604	-85.758	0.217	-0.068
-148.589	-114.930	-0.042	-0.008
-147.574	-166.404	-0.295	-0.012
-146.560	-68.461	0.024	-0.009
-145.545	580.305	-0.208	0.510
-144.531	165.115	-0.062	-0.088
-143.516	114.254	0.097	-0.118
-142.502	-99.968	0.159	-0.040
-141.487	800.000	-0.083	0.364
-140.472	-200.000	-0.007	0.123
-139.458	800.000	0.077	0.254
-138.443	510.599	-0.153	-0.357
-137.429	-200.000	0.000	-0.295
-136.414	800.000	-0.092	0.279
-135.399	-80.193	0.280	0.094
-134.385	14.930	0.163	0.127
-133.370	-60.502	0.237	0.101
-132.356	173.477	-0.167	0.241
-131.341	351.520	-0.128	-0.254
-130.326	-200.000	0.182	0.000
-129.312	-100.682	0.062	-0.015
-128.297	-21.883	0.301	0.183
-127.283	-114.571	0.246	0.047
-126.268	-200.000	-0.007	-0.351
-125.253	-32.223	-0.140	-0.078
-124.239	-166.711	0.178	-0.007
-123.224	598.886	-0.046	-0.113
-122.210	123.442	-0.112	0.141
-121.195	-200.000	0.006	0.255
-120.180	-184.228	-0.042	-0.001
-119.166	800.000	0.027	-0.077
-118.151	-200.000	0.005	-0.060
-117.137	-200.000	-0.019	-0.088
-116.122	-22.556	0.131	-0.079
-115.107	11.817	0.147	-0.113
-114.093	-98.640	0.083	0.021
-113.078	17.956	-0.087	-0.069
-112.064	11.508	0.273	-0.209
-111.049	238.697	0.071	-0.118
-110.034	-5.077	-0.060	0.042
-109.020	82.355	0.145	0.157
-108.005	-20.630	0.151	0.093
-106.991	-200.000	-0.043	-0.356
-105.976	177.051	0.042	0.061
-104.962	215.505	0.186	0.295
-103.947	800.000	0.090	0.307
-102.932	-57.247	0.353	-0.155
-101.918	-200.000	0.074	0.604
-100.903	-200.000	0.007	-0.079
-99.889	800.000	-0.079	0.334
-98.874	-96.034	-0.229	0.061
-97.859	0.410	0.122	0.087
-96.845	-42.195	0.233	-0.119
-95.830	-200.000	0.006	-0.297
-94.816	90.685	0.087	0.098
-93.801	269.372	-0.062	0.108
-92.786	-103.712	-0.369	0.087
-91.772	-200.000	-0.171	-0.001
-90.757	800.000	0.010	0.041
-89.743	-64.892	0.104	0.042
-88.728	294.402	0.081	-0.149
-87.713	-73.697	-0.089	0.032
-86.699	-43.376	0.178	0.090
-85.684	14.798	-0.092	0.072
-84.670	363.390	0.096	0.193
-83.655	773.701	0.060	0.162
-82.640	7.953	0.229	0.172
-81.626	-200.000	0.028	0.142
-80.611	39.771	0.058	0.052
-79.597	-102.668	0.109	0.026
-78.582	35.564	0.134	0.117
-77.567	184.314	-0.096	-0.142
-76.553	249.586	-0.069	-0.116
-75.538	800.000	-0.021	-0.084
-74.524	53.284	0.176	0.169
-73.509	-134.434	0.125	-0.015
-72.494	-84.035	0.120	0.038
-71.480	-187.820	0.167	-0.002
-70.465	350.231	-0.130	0.257
-69.451	664.087	0.146	0.376
-68.436	-79.743	0.411	-0.138
-67.422	800.000	0.028	-0.111
-66.407	-53.005	-0.250	-0.115
-65.392	-110.965	-0.055	-0.011
-64.378	-22.254	-0.157	-0.095
-63.363	126.864	0.185	-0.234
-62.349	23.436	0.170	0.140
-61.334	16.226	-0.709	-0.559
-60.319	-11.463	0.285	0.187
-59.305	107.230	-0.258	-0.306
-58.290	369.764	0.273	0.552
-57.276	587.723	0.613	1.508
-56.261	-200.000	70.273	522.057
-55.246	578.667	1253.647	3064.767
-54.232	135.432	2507.739	3258.633
-53.217	118.304	2262.621	2787.845
-52.203	56.648	1787.156	1737.326
-51.188	48.457	1578.718	1476.940
-50.173	45.502	1547.664	1427.266
-49.159	60.205	1580.154	1560.775
-48.144	68.167	1600.427	1636.582
-47.130	48.963	1564.702	1467.150
-46.115	45.171	1550.460	1427.300
-45.100	44.967	1547.213	1422.833
-44.086	44.898	1545.365	1420.596
-43.071	44.802	1543.546	1418.200
-42.057	44.807	1541.724	1416.504
-41.042	44.868	1539.739	1415.049
-40.027	44.893	1538.021	1413.587
-39.013	44.830	1537.150	1412.294
-37.998	44.825	1535.456	1410.645
-36.984	44.913	1534.647	1410.457
-35.969	44.927	1533.322	1409.280
-34.954	44.905	1531.633	1407.521
-33.940	44.830	1530.505	1405.911
-32.925	44.878	1528.481	1404.323
-31.911	44.931	1527.455	1403.690
-30.896	44.921	1525.877	1402.117
-29.881	44.941	1524.529	1400.963
-28.867	44.995	1522.937	1399.814
-27.852	44.976	1521.357	1398.173
-26.838	44.937	1520.107	1396.703
-25.823	44.868	1518.665	1394.853
-24.809	44.911	1516.671	1393.260
-23.794	44.919	1515.533	1392.209
-22.779	44.900	1514.082	1390.696
-21.765	44.934	1512.933	1389.814
-20.750	44.930	1511.598	1388.505
-19.736	44.899	1510.751	1387.459
-18.721	44.905	1509.505	1386.306
-17.706	44.814	1508.614	1384.808
-16.692	44.861	1507.283	1383.856
-15.677	44.878	1506.131	1382.854
-14.663	44.920	1504.893	1381.950
-13.648	44.802	1504.487	1380.725
-12.633	44.839	1503.276	1379.808
-11.619	44.869	1502.434	1379.180
-10.604	44.857	1501.628	1378.303
-9.590	44.750	1500.816	1376.782
-8.575	44.859	1499.604	1376.357
-7.560	44.810	1498.918	1375.338
-6.546	44.827	1497.930	1374.491
-5.531	44.854	1497.133	1373.886
-4.517	44.862	1495.940	1372.793
-3.502	44.891	1494.765	1371.858
-2.487	44.854	1493.373	1370.273
-1.473	44.849	1492.601	1369.477
-0.458	44.788	1491.312	1367.833
0.556	42.963	1481.904	1358.481
1.571	39.992	1452.304	1311.550
2.586	35.090	1386.014	1220.426
3.600	31.819	1299.188	1124.291
4.615	29.157	1249.202	1065.565
5.629	25.140	1192.159	994.582
6.644	15.787	1102.894	871.798
7.659	7.848	1056.186	795.267
8.673	6.522	1049.583	783.637
9.688	6.262	1047.119	780.436
10.702	6.164	1045.247	778.488
11.717	6.052	1043.862	776.834
12.731	9.124	1047.862	794.969
13.746	16.801	1058.358	841.115
14.761	20.131	1061.860	860.377
15.775	18.397	1057.622	848.289
16.790	16.735	1055.086	837.965
17.804	15.527	1052.502	829.873
18.819	14.748	1050.357	824.264
19.834	14.208	1048.858	820.352
20.848	13.877	1048.141	818.088
21.863	13.526	1047.653	815.906
22.877	13.394	1046.334	814.157
23.892	13.179	1045.661	812.505
24.907	13.045	1044.786	811.095
25.921	13.164	1043.955	810.962
26.936	13.076	1043.291	809.944
27.950	13.124	1042.201	809.260
28.965	13.105	1041.395	808.472
29.980	13.251	1040.272	808.242
30.994	13.279	1038.932	807.267
32.009	13.478	1037.584	807.114
33.023	13.400	1037.108	806.293
34.038	13.348	1036.527	805.520
35.053	13.305	1035.404	804.364
36.067	13.203	1034.339	802.971
37.082	13.302	1033.594	802.804
38.096	13.296	1033.046	802.278
39.111	13.367	1031.793	801.579
40.126	13.341	1030.997	800.761
41.140	13.291	1030.285	799.894
42.155	13.173	1029.020	798.273
43.169	13.060	1028.622	797.348
44.184	13.036	1027.412	796.224
45.199	13.067	1026.351	795.482
46.213	13.103	1025.105	794.619
47.228	13.045	1024.343	793.677
48.242	13.120	1023.581	793.377
49.257	13.187	1022.516	792.803
50.271	13.253	1021.189	792.019
51.286	13.349	1020.330	791.741
52.301	13.228	1019.708	790.613
53.315	13.108	1019.097	789.495
54.330	13.244	1017.939	789.177
55.344	12.964	1017.716	787.597
56.359	13.139	1016.327	787.287
57.374	13.098	1015.390	786.297
58.388	13.117	1014.704	785.785
59.403	12.952	1014.418	784.709
60.417	13.019	1012.961	783.831
61.432	13.051	1012.190	783.316
62.447	13.000	1011.445	782.428
63.461	13.024	1010.693	781.896
64.476	12.959	1009.991	780.971
65.490	13.055	1008.800	780.439
66.505	12.935	1008.264	779.384
67.520	12.941	1007.649	778.869
68.534	13.129	1006.422	778.738
69.549	13.068	1005.656	777.788
70.563	12.947	1005.151	776.760
71.578	12.930	1004.704	776.266
72.593	12.945	1003.320	775.201
73.607	12.908	1002.642	774.432
74.622	12.958	1001.776	773.931
75.636	13.014	1000.334	773.012
76.651	12.910	1000.365	772.481
77.666	12.696	999.849	771.012
78.680	12.886	998.653	770.910
79.695	12.863	997.848	770.113
80.709	13.048	997.312	770.491
81.724	13.012	996.239	769.427
82.739	12.932	996.178	768.940
83.753	13.174	994.831	768.959
84.768	13.149	994.322	768.382
85.782	13.260	993.591	768.261
86.797	13.385	992.835	768.191
87.812	13.268	992.107	767.019
88.826	13.135	991.331	765.731
89.841	13.171	990.514	765.199
90.855	13.168	989.748	764.526
91.870	13.116	989.655	764.146
92.884	13.254	988.630	763.929
93.899	13.353	987.827	763.697
94.914	13.257	986.966	762.519
95.928	13.204	986.443	761.801
96.943	13.373	985.291	761.625
97.957	13.300	984.084	760.288
98.972	13.304	983.550	759.828
99.987	13.187	983.187	758.941
101.001	13.388	982.317	759.125
102.016	13.226	981.388	757.596
103.030	13.282	980.534	757.128
104.045	13.279	979.779	756.462
105.060	13.331	978.895	755.953
106.074	13.305	977.587	754.757
107.089	13.223	976.766	753.681
108.103	13.130	976.122	752.694
109.118	13.117	974.949	751.663
110.133	13.013	974.279	750.611
111.147	12.936	973.585	749.658
112.162	13.004	972.724	749.238
113.176	13.156	971.627	749.017
114.191	12.974	971.178	747.776
115.206	13.180	970.030	747.759
116.220	13.150	968.957	746.731
117.235	13.142	968.473	746.257
118.249	13.167	967.823	745.803
119.264	13.075	966.892	744.605
120.279	13.082	965.911	743.813
121.293	13.093	965.176	743.231
122.308	13.052	964.441	742.415
123.322	13.081	963.663	741.884
124.337	13.039	962.594	740.804
125.352	13.041	961.259	739.720
126.366	12.992	960.430	738.797
127.381	12.980	959.345	737.846
128.395	12.928	958.482	736.881
129.410	12.950	957.566	736.213
130.424	12.953	956.524	735.357
131.439	13.133	955.663	735.433
132.454	13.238	954.666	735.069
133.468	13.256	954.267	734.776
134.483	13.206	953.802	734.132
135.497	13.280	953.108	733.862
136.512	13.201	952.642	733.087
137.527	13.290	951.611	732.621
138.541	13.262	950.759	731.776
139.556	13.413	949.901	731.720
140.570	13.383	949.086	730.895
141.585	13.343	948.534	730.229
142.600	13.392	948.487	730.342
143.614	13.473	947.016	729.501
144.629	13.451	946.627	729.041
145.643	13.518	945.422	728.344
146.658	13.465	944.931	727.667
147.673	13.367	944.257	726.655
148.687	13.344	943.032	725.547
149.702	13.318	942.027	724.598
150.716	13.200	941.132	723.326
151.731	13.153	940.848	722.837
152.746	13.214	939.906	722.319
153.760	13.236	939.157	721.773
154.775	13.309	938.442	721.477
155.789	13.213	937.783	720.491
156.804	13.402	936.541	720.294
157.819	13.403	936.293	720.045
158.833	13.382	935.456	719.248
159.848	13.418	935.077	719.046
160.862	13.412	934.292	718.355
161.877	13.453	933.661	717.984
162.892	13.357	932.664	716.739
163.906	13.329	931.533	715.684
164.921	13.284	930.884	714.928
165.935	13.317	929.914	714.262
166.950	13.325	929.076	713.587
167.964	13.432	927.811	713.014
168.979	13.325	926.899	711.792
169.994	13.374	926.132	711.349
171.008	13.433	925.281	710.887
172.023	13.395	924.481	710.047
173.037	13.517	923.876	710.042
174.052	13.561	923.026	709.516
175.067	13.504	922.695	708.954
176.081	13.463	921.577	707.858
177.096	13.357	921.100	706.972
178.110	13.366	920.249	706.298
179.125	13.292	919.416	705.279
180.140	13.409	918.629	705.114
181.154	13.386	918.121	704.559
182.169	13.534	917.138	704.375
183.183	13.524	916.940	704.118
184.198	13.568	916.176	703.655
185.213	13.697	915.056	703.280
186.227	13.576	914.799	702.507
187.242	13.577	914.834	702.476
188.256	13.715	913.495	701.969
189.271	13.787	912.751	701.642
190.286	13.748	912.175	700.971
191.300	13.678	911.552	700.133
192.315	13.458	910.604	698.418
193.329	13.345	910.069	697.469
194.344	13.445	908.904	696.935
195.359	13.497	908.619	696.873
196.373	13.486	908.096	696.363
197.388	13.550	907.510	696.123
198.402	13.709	907.230	696.511
199.417	13.724	906.849	696.220
200.432	13.866	906.303	696.338
201.446	13.929	905.776	696.136
202.461	13.931	905.522	695.886
203.475	14.101	904.455	695.716
204.490	14.154	903.626	695.239
205.504	13.901	903.133	693.740
206.519	13.910	902.497	693.227
207.534	13.899	901.686	692.499
208.548	13.819	900.902	691.501
209.563	13.801	900.283	690.890
210.577	13.884	899.612	690.659
211.592	13.907	898.867	690.120
212.607	14.004	898.337	690.055
213.621	14.118	897.902	690.133
214.636	14.120	897.138	689.494
215.650	14.074	896.661	688.876
216.665	14.037	896.442	688.492
217.680	14.017	895.775	687.839
218.694	14.054	895.131	687.436
219.709	14.007	895.059	687.127
220.723	14.178	894.250	687.148
221.738	14.130	893.506	686.318
222.753	14.142	892.289	685.373
223.767	14.150	891.774	684.950
224.782	14.163	891.398	684.654
225.796	14.202	890.555	684.107
226.811	14.216	889.867	683.575
227.826	14.324	888.858	683.183
228.840	14.147	888.490	682.114
229.855	14.174	887.898	681.709
230.869	14.227	886.924	681.118
231.884	14.185	886.700	680.712
232.899	14.281	885.515	680.137
233.913	14.179	885.262	679.465
234.928	14.187	884.495	678.849
235.942	14.133	883.661	677.929
236.957	14.183	882.852	677.450
237.972	14.105	882.385	676.715
238.986	14.275	881.907	676.980
240.001	14.235	881.137	676.168
241.015	14.244	880.310	675.509
242.030	14.369	879.568	675.386
243.045	14.289	878.861	674.460
244.059	14.248	878.885	674.252
245.074	14.408	878.014	674.174
246.088	14.413	877.551	673.777
247.103	14.389	877.110	673.282
248.117	14.488	876.076	672.830
249.132	14.475	875.987	672.647
250.147	14.541	875.481	672.466
251.161	14.570	874.807	672.006
252.176	14.626	874.329	671.805
253.190	14.692	873.428	671.319
254.205	14.835	872.672	671.253
255.220	14.766	872.610	670.868
256.234	14.845	871.603	670.351
257.249	14.753	871.048	669.494
258.263	14.874	870.028	669.136
259.278	14.792	870.081	668.792
260.293	14.833	869.464	668.420
261.307	14.918	868.872	668.246
262.322	14.912	868.298	667.721
263.336	14.814	868.011	667.050
264.351	14.799	867.393	666.457
265.366	15.123	866.002	666.619
266.380	15.025	865.652	665.902
267.395	15.148	865.278	666.043
268.409	15.124	864.189	665.050
269.424	14.950	863.627	663.869
270.439	14.912	863.115	663.265
271.453	14.845	862.230	662.263
272.468	14.939	861.600	662.091
273.482	14.976	860.941	661.672
274.497	14.924	860.253	660.880
275.512	15.021	859.638	660.733
276.526	15.028	858.623	659.921
277.541	14.929	858.601	659.457
278.555	14.934	858.281	659.170
279.570	14.939	857.735	658.715
280.585	15.174	856.723	658.802
281.599	15.226	856.093	658.461
282.614	15.151	855.746	657.846
283.628	15.227	854.442	657.080
284.643	15.127	854.108	656.374
285.657	15.155	853.837	656.219
286.672	15.084	853.491	655.618
287.687	15.102	853.262	655.454
288.701	14.986	852.544	654.390
289.716	15.197	852.007	654.742
290.730	15.227	851.423	654.353
291.745	15.203	850.976	653.860
292.760	15.194	850.158	653.136
293.774	15.195	849.591	652.648
294.789	15.352	848.911	652.680
295.803	15.282	848.259	651.850
296.818	15.338	847.699	651.578
297.833	15.369	847.148	651.216
298.847	15.414	846.341	650.713
299.862	15.275	845.732	649.650
300.876	15.225	845.303	649.070
301.891	15.343	844.684	648.993
302.906	15.327	844.069	648.400
303.920	15.560	842.773	648.245
304.935	15.613	842.455	648.150
305.949	15.588	841.877	647.550
306.964	15.575	841.393	647.069
307.979	15.550	841.171	646.747
308.993	15.638	840.189	646.274
310.008	15.728	839.647	646.143
311.022	15.659	839.655	645.828
312.037	15.580	838.620	644.672
313.052	15.620	837.918	644.229
314.066	15.449	837.634	643.298
315.081	15.580	836.924	643.198
316.095	15.475	836.847	642.680
317.110	15.499	836.189	642.209
318.125	15.509	835.113	641.362
319.139	15.628	834.537	641.317
320.154	15.677	834.087	641.102
321.168	15.398	834.282	640.131
322.183	15.556	833.357	639.969
323.197	15.637	832.681	639.702
324.212	15.694	832.170	639.466
325.227	15.663	831.497	638.777
326.241	15.646	831.330	638.527
327.256	15.589	830.761	637.817
328.270	15.594	829.976	637.176
329.285	15.579	829.577	636.757
330.300	15.570	829.185	636.367
331.314	15.746	828.418	636.389
332.329	15.719	827.592	635.593
333.343	15.801	826.873	635.294
334.358	15.758	826.799	635.021
335.373	15.729	826.131	634.341
336.387	15.693	825.561	633.711
337.402	15.872	825.112	633.985
338.416	15.956	824.271	633.599
339.431	15.854	823.859	632.845
340.446	16.009	823.190	632.855
341.460	16.143	822.502	632.773
342.475	16.169	821.744	632.232
343.489	16.115	821.847	632.050
344.504	16.210	821.075	631.757
345.519	16.169	820.347	630.987
346.533	16.264	820.321	631.267
347.548	16.048	820.053	630.198
348.562	16.175	819.045	629.843
349.577	16.061	818.471	628.919
350.592	16.173	817.974	628.900
351.606	15.929	817.916	627.889
352.621	16.016	817.141	627.563
353.635	16.062	816.615	627.276
354.650	16.089	815.801	626.695
355.665	16.147	815.573	626.681
356.679	16.243	815.040	626.569
357.694	16.224	814.851	626.298
358.708	16.290	813.895	625.755
359.723	16.154	813.777	625.106
360.738	16.112	813.315	624.540
361.752	16.287	812.903	624.815
362.767	16.203	812.370	624.040
363.781	16.383	811.901	624.289
364.796	16.345	811.420	623.723
365.810	16.504	810.801	623.779
366.825	16.486	810.786	623.647
367.840	16.555	810.353	623.512
368.854	16.412	810.255	622.854
369.869	16.313	809.378	621.763
370.883	16.417	808.963	621.768
371.898	16.403	808.496	621.305
372.913	16.574	807.432	621.060
373.927	16.537	807.069	620.590
374.942	16.501	806.208	619.740
375.956	16.498	805.644	619.242
376.971	16.489	805.386	618.956
377.986	16.591	804.754	618.788
379.000	16.677	804.478	618.835
380.015	16.739	803.790	618.476
381.029	16.801	803.075	618.099
382.044	16.629	802.693	617.121
383.059	16.605	802.516	616.843
384.073	16.714	801.764	616.609
385.088	16.753	801.153	616.225
386.102	16.762	800.226	615.491
387.117	16.667	800.082	614.982
388.132	16.615	799.619	614.382
389.146	16.644	799.196	614.108
390.161	16.621	798.875	613.722
391.175	16.662	798.584	613.593
392.190	16.904	798.076	614.026
393.205	16.933	797.169	613.379
394.219	16.702	797.129	612.458
395.234	16.716	796.471	611.950
396.248	16.750	796.279	611.870
397.263	16.658	795.563	610.933
398.278	16.596	795.060	610.271
399.292	16.640	794.822	610.192
400.307	16.762	794.080	610.009
401.321	16.633	793.869	609.326
402.336	16.782	793.384	609.438
403.350	16.731	793.133	609.007
404.365	16.766	792.777	608.806
405.380	16.802	792.180	608.424
406.394	16.982	791.637	608.598
407.409	17.047	791.409	608.601
408.423	17.081	791.095	608.426
409.438	16.984	790.864	607.847
410.453	17.147	789.517	607.343
411.467	17.157	789.759	607.512
412.482	17.128	789.108	606.855
413.496	17.208	788.819	606.864
414.511	17.170	788.181	606.182
415.526	17.374	787.725	606.504
416.540	17.247	787.620	605.918
417.555	17.166	787.279	605.313
418.569	17.196	786.947	605.111
419.584	17.057	786.522	604.238
420.599	17.023	786.167	603.791
421.613	68.233	1219.641	1210.519
422.628	56.806	1282.859	1210.647
