DTS Sentinel unit serial number:	SN413079Multiplexer serial number:	ORYXHardware model number:	OX4-SRSoftware version number:	ORYX F/W v4.00 Oryx Data Collector v3.7.2.0data status	okinstallation	princeton_trtdifferential loss correction	single-endedforward channel	channel 3reverse channel	N/Adate	2019/09/15time	01:04:34forward acquisition time	60.00reverse acquisition time	0.00gamma	496.2192k internal	0.2321k external	0.2321temperature offset calibration	0.9964default loss term (dB/km)	0.3790temperature slope calibration	1.0000multiplexer offset coefficient	1.0000multiplexer slope coefficient	1.0000fibre end	0.00T internal ref (°C)	32.00T ext. ref 1 (°C)	4.52T ext. ref 2 (°C)	26.86length (m)	temperature (°C)	Stokes	anti-Stokes-747.200	-200.000	0.021	-0.147
-746.185	796.698	-0.077	0.215
-745.171	-121.786	-0.204	0.034
-744.156	-184.554	-0.167	0.003
-743.142	-200.000	-0.012	0.086
-742.127	143.477	-0.049	-0.065
-741.112	466.577	0.064	0.145
-740.098	53.171	-0.282	0.273
-739.083	-125.933	-0.269	-0.041
-738.069	-200.000	-0.012	0.068
-737.054	66.179	0.201	-0.206
-736.039	-73.006	-0.328	0.122
-735.025	-128.874	0.305	-0.043
-734.010	-111.177	-0.263	0.054
-732.996	143.804	-0.210	-0.282
-731.981	-65.477	-0.430	0.174
-730.966	-53.285	0.149	-0.069
-729.952	-143.337	-0.564	0.055
-728.937	-102.164	-0.173	0.042
-727.923	7.845	0.098	0.074
-726.908	29.303	-0.366	-0.314
-725.894	366.944	0.081	-0.165
-724.879	342.484	0.076	-0.150
-723.864	800.000	-0.015	0.050
-722.850	-153.277	-0.158	-0.011
-721.835	800.000	-0.090	-0.382
-720.821	16.151	-0.202	-0.161
-719.806	-178.390	-0.123	0.003
-718.791	-200.000	0.027	0.200
-717.777	-19.094	0.116	-0.073
-716.762	-200.000	-0.060	-0.321
-715.748	-41.648	0.069	-0.036
-714.733	-200.000	-0.033	0.176
-713.718	-200.000	-0.008	0.129
-712.704	-180.700	0.150	0.003
-711.689	554.700	-0.082	-0.200
-710.675	29.400	0.120	-0.103
-709.660	9.665	0.173	0.132
-708.645	-200.000	-0.016	0.182
-707.631	538.002	0.041	0.098
-706.616	-39.046	0.287	-0.152
-705.602	800.000	-0.042	0.141
-704.587	-129.337	-0.224	0.031
-703.572	260.527	-0.208	-0.364
-702.558	-200.000	-0.059	-0.291
-701.543	-200.000	0.005	-0.397
-700.529	110.519	0.155	0.188
-699.514	-69.055	-0.208	-0.081
-698.499	230.093	0.201	0.332
-697.485	175.451	-0.145	0.212
-696.470	-78.882	-0.075	0.026
-695.456	619.307	0.225	-0.571
-694.441	162.368	-0.075	-0.106
-693.426	800.000	-0.098	0.319
-692.412	-200.000	-0.060	0.324
-691.397	775.330	0.085	-0.235
-690.383	15.358	0.058	-0.046
-689.368	-100.754	-0.203	-0.050
-688.354	-91.374	0.251	-0.072
-687.339	194.224	-0.138	0.210
-686.324	167.065	-0.148	-0.213
-685.310	-200.000	-0.064	-0.332
-684.295	-120.932	-0.326	0.055
-683.281	-200.000	0.017	-0.138
-682.266	-84.026	-0.280	-0.090
-681.251	-20.735	-0.285	-0.176
-680.237	-138.897	-0.150	-0.016
-679.222	-200.000	-0.009	0.194
-678.208	-38.661	-0.209	-0.111
-677.193	131.250	0.252	0.326
-676.178	-181.905	-0.069	0.001
-675.164	-200.000	0.005	-0.144
-674.149	733.907	0.038	-0.102
-673.135	-113.148	-0.245	-0.049
-672.120	20.956	0.224	-0.183
-671.105	-49.959	-0.075	-0.036
-670.091	-94.694	0.210	0.057
-669.076	800.000	0.008	-0.035
-668.062	-55.635	-0.174	-0.079
-667.047	-139.677	0.106	-0.011
-666.032	-2.830	-0.040	0.028
-665.018	-48.404	-0.109	0.053
-664.003	-29.597	-0.103	-0.059
-662.989	-111.593	0.010	0.002
-661.974	37.004	-0.174	-0.155
-660.959	4.733	0.179	-0.133
-659.945	-200.000	0.051	-0.330
-658.930	310.691	-0.181	-0.342
-657.916	-200.000	-0.008	-0.198
-656.901	60.172	-0.110	0.110
-655.886	-119.344	0.401	-0.070
-654.872	254.854	0.032	0.056
-653.857	234.211	-0.104	0.173
-652.843	-167.955	-0.310	0.012
-651.828	92.473	-0.098	0.111
-650.814	214.128	0.146	0.234
-649.799	-197.531	-0.022	0.000
-648.784	-87.717	0.257	0.078
-647.770	-96.568	-0.200	-0.053
-646.755	-46.124	-0.279	-0.138
-645.741	51.477	-0.093	0.089
-644.726	800.000	-0.103	0.377
-643.711	282.805	0.032	0.058
-642.697	-200.000	0.034	0.367
-641.682	45.501	-0.063	0.059
-640.668	-33.507	0.163	-0.090
-639.653	800.000	-0.128	-0.380
-638.638	-5.850	0.266	-0.184
-637.624	103.826	-0.315	-0.373
-636.609	237.567	-0.070	0.117
-635.595	-76.560	-0.132	0.047
-634.580	8.022	-0.287	0.217
-633.565	83.411	-0.086	0.094
-632.551	12.045	0.131	-0.101
-631.536	-14.288	-0.268	0.174
-630.522	-90.811	0.212	0.061
-629.507	-34.991	-0.371	0.204
-628.492	-200.000	-0.032	0.191
-627.478	2.842	0.190	-0.139
-626.463	-145.062	0.302	-0.028
-625.449	-164.612	-0.417	-0.019
-624.434	-200.000	0.018	-0.226
-623.419	-170.504	0.263	-0.009
-622.405	-200.000	0.002	0.153
-621.390	213.410	-0.058	-0.092
-620.376	691.425	0.144	0.379
-619.361	21.158	-0.078	-0.063
-618.346	-8.331	0.241	-0.163
-617.332	514.103	-0.067	-0.157
-616.317	-148.237	0.344	-0.029
-615.303	-200.000	0.006	-0.036
-614.288	-92.684	-0.080	-0.023
-613.273	250.514	0.026	0.044
-612.259	-200.000	-0.017	0.143
-611.244	117.083	0.093	-0.115
-610.230	-115.173	0.172	-0.033
-609.215	-200.000	-0.036	-0.256
-608.201	-115.115	-0.451	0.086
-607.186	800.000	-0.113	-0.360
-606.171	-89.432	0.147	0.043
-605.157	-70.584	0.229	0.087
-604.142	-200.000	-0.003	-0.029
-603.128	800.000	-0.095	0.288
-602.113	-180.591	0.233	0.005
-601.098	-26.926	-0.036	-0.021
-600.084	-50.739	0.357	-0.169
-599.069	36.484	0.130	0.115
-598.055	188.099	-0.085	-0.128
-597.040	-94.505	-0.358	0.098
-596.025	-113.681	-0.140	-0.028
-595.011	800.000	-0.052	0.199
-593.996	-89.986	-0.108	0.032
-592.982	51.214	-0.201	-0.192
-591.967	800.000	0.047	0.155
-590.952	-90.092	-0.158	0.046
-589.938	-39.423	0.194	0.102
-588.923	109.135	0.117	0.141
-587.909	437.068	-0.232	-0.508
-586.894	-52.434	-0.198	-0.092
-585.879	-200.000	-0.012	-0.139
-584.865	-106.304	-0.109	-0.024
-583.850	-44.851	-0.259	-0.130
-582.836	800.000	-0.044	0.124
-581.821	10.861	-0.253	0.194
-580.806	800.000	0.050	0.167
-579.792	-143.373	0.194	-0.019
-578.777	323.172	0.205	-0.393
-577.763	-200.000	0.027	0.118
-576.748	-147.450	-0.332	0.028
-575.733	-155.376	-0.357	-0.023
-574.719	107.386	-0.243	-0.290
-573.704	-200.000	0.085	-0.403
-572.690	-35.441	0.275	0.150
-571.675	103.709	0.092	-0.108
-570.661	341.690	0.116	0.228
-569.646	96.234	0.127	-0.146
-568.631	-118.762	0.433	-0.077
-567.617	43.481	0.123	-0.113
-566.602	-45.029	-0.042	0.021
-565.588	426.647	-0.083	0.179
-564.573	597.037	0.150	-0.373
-563.558	-57.871	-0.264	0.116
-562.544	405.177	0.137	-0.289
-561.529	-33.203	-0.385	-0.214
-560.515	123.538	0.171	0.216
-559.500	-200.000	0.029	0.192
-558.485	-80.388	-0.199	-0.067
-557.471	-81.998	-0.207	-0.068
-556.456	117.155	0.223	0.275
-555.442	-200.000	-0.044	-0.203
-554.427	95.536	0.114	0.130
-553.412	-47.287	-0.198	0.097
-552.398	-92.227	-0.054	0.015
-551.383	-135.959	-0.214	0.025
-550.369	-163.496	-0.287	-0.014
-549.354	127.402	-0.193	-0.246
-548.339	94.198	0.096	0.110
-547.325	319.053	0.060	-0.114
-546.310	-79.578	-0.091	0.031
-545.296	-5.589	0.354	0.243
-544.281	117.309	-0.022	-0.027
-543.266	203.299	-0.077	0.119
-542.252	221.869	0.122	-0.198
-541.237	-200.000	0.025	-0.398
-540.223	-141.418	-0.047	0.005
-539.208	46.272	0.099	-0.092
-538.193	251.196	-0.127	-0.217
-537.179	800.000	-0.080	0.231
-536.164	-10.168	0.241	0.161
-535.150	-200.000	0.000	-0.058
-534.135	-63.818	-0.290	0.119
-533.121	125.778	-0.184	0.234
-532.106	-200.000	0.052	0.239
-531.091	-200.000	0.027	-0.146
-530.077	-39.304	-0.314	0.165
-529.062	112.540	0.183	-0.222
-528.048	312.512	-0.083	-0.157
-527.033	-200.000	-0.429	0.000
-526.018	70.568	-0.150	-0.155
-525.004	386.503	-0.025	-0.053
-523.989	-33.823	-0.397	-0.220
-522.975	-200.000	-0.049	-0.262
-521.960	-81.095	0.314	-0.104
-520.945	-200.000	-0.038	-0.297
-519.931	-200.000	0.025	-0.449
-518.916	-5.634	0.105	-0.072
-517.902	170.666	-0.172	-0.247
-516.887	731.096	-0.076	-0.204
-515.872	-200.000	-0.031	-0.266
-514.858	-31.300	-0.105	0.059
-513.843	-106.497	0.489	0.109
-512.829	-48.983	-0.398	0.191
-511.814	118.806	-0.229	0.283
-510.799	208.668	0.107	0.168
-509.785	38.738	0.039	0.035
-508.770	-200.000	-0.027	0.267
-507.756	-200.000	0.006	0.313
-506.741	616.001	-0.099	0.248
-505.726	35.811	0.350	-0.308
-504.712	6.361	-0.112	-0.083
-503.697	-23.046	0.233	0.141
-502.683	29.003	0.215	-0.182
-501.668	-80.033	0.118	-0.040
-500.653	95.819	0.068	-0.078
-499.639	800.000	-0.098	0.365
-498.624	-10.914	-0.570	0.377
-497.610	379.944	-0.094	0.192
-496.595	-200.000	-0.064	-0.293
-495.581	535.031	-0.025	0.059
-494.566	-200.000	0.019	-0.110
-493.551	-119.294	0.317	0.055
-492.537	512.453	-0.031	0.072
-491.522	-112.382	0.069	0.014
-490.508	746.203	0.147	0.397
-489.493	-200.000	-0.033	-0.159
-488.478	105.319	0.232	-0.274
-487.464	-200.000	-0.009	0.139
-486.449	411.752	0.037	0.078
-485.435	-200.000	0.028	-0.173
-484.420	-200.000	-0.010	0.205
-483.405	-75.576	0.166	-0.059
-482.391	-131.469	0.143	-0.019
-481.376	-135.548	-0.058	0.007
-480.362	800.000	-0.058	-0.170
-479.347	-37.391	0.187	-0.100
-478.332	31.134	-0.200	-0.171
-477.318	-12.736	-0.158	-0.103
-476.303	-67.113	0.228	-0.090
-475.289	206.962	0.110	0.172
-474.274	-106.992	0.248	-0.055
-473.259	170.939	0.191	0.275
-472.245	19.385	-0.152	-0.122
-471.230	477.960	-0.050	0.113
-470.216	8.378	-0.091	0.069
-469.201	-126.532	-0.032	-0.005
-468.186	-31.541	-0.133	-0.075
-467.172	2.397	-0.147	0.106
-466.157	-37.172	0.219	-0.117
-465.143	-200.000	0.041	-0.314
-464.128	158.783	-0.163	-0.227
-463.113	771.817	0.061	-0.166
-462.099	79.439	0.102	-0.110
-461.084	86.048	0.111	0.122
-460.070	-200.000	0.028	-0.243
-459.055	364.391	0.055	-0.110
-458.040	-23.335	-0.186	-0.112
-457.026	40.520	0.290	0.261
-456.011	-76.038	-0.240	0.085
-454.997	79.234	0.104	-0.112
-453.982	-108.955	0.113	0.024
-452.968	35.144	0.088	0.077
-451.953	-200.000	-0.013	-0.125
-450.938	-167.891	0.038	-0.001
-449.924	94.766	-0.022	-0.025
-448.909	800.000	0.046	-0.189
-447.895	472.284	0.100	0.225
-446.880	275.974	-0.127	0.224
-445.865	-87.614	-0.200	-0.060
-444.851	-200.000	-0.010	0.277
-443.836	351.311	0.112	-0.221
-442.822	-51.127	0.056	-0.026
-441.807	146.955	-0.036	-0.049
-440.792	-103.445	-0.201	0.047
-439.778	166.208	-0.150	-0.213
-438.763	-114.622	-0.422	0.081
-437.749	129.409	-0.086	-0.109
-436.734	-60.224	0.140	0.059
-435.719	-83.084	-0.113	0.036
-434.705	-163.386	-0.215	-0.010
-433.690	437.837	-0.070	0.153
-432.676	-11.786	-0.061	-0.040
-431.661	3.105	-0.324	-0.235
-430.646	525.439	0.098	0.230
-429.632	2.135	0.031	-0.022
-428.617	-200.000	-0.026	0.124
-427.603	-27.352	-0.186	-0.108
-426.588	-200.000	0.042	0.488
-425.573	800.000	0.050	-0.157
-424.559	800.000	0.118	-0.433
-423.544	535.480	0.048	-0.114
-422.530	335.533	-0.100	0.193
-421.515	12.422	-0.228	0.175
-420.500	-200.000	-0.016	0.216
-419.486	-158.039	0.304	0.018
-418.471	-83.066	0.150	0.048
-417.457	-200.000	0.035	0.290
-416.442	146.195	0.115	0.155
-415.428	-128.331	0.391	0.056
-414.413	67.961	-0.070	0.072
-413.398	-117.905	0.291	-0.052
-412.384	-200.000	0.005	0.205
-411.369	26.666	0.239	0.200
-410.355	-200.000	0.034	-0.274
-409.340	-200.000	0.053	0.275
-408.325	129.606	-0.191	0.243
-407.311	-170.981	0.369	-0.013
-406.296	-91.090	-0.051	-0.015
-405.282	-13.866	0.156	0.101
-404.267	430.007	-0.020	0.044
-403.252	-181.935	0.161	-0.003
-402.238	-173.502	-0.252	-0.008
-401.223	77.400	0.114	-0.121
-400.209	410.697	0.148	-0.313
-399.194	16.545	0.109	0.086
-398.179	-200.000	-0.070	0.428
-397.165	-89.582	0.240	-0.070
-396.150	-61.990	-0.162	-0.067
-395.136	-157.251	0.365	-0.022
-394.121	19.108	0.097	-0.078
-393.106	-158.705	-0.175	0.010
-392.092	-157.712	0.365	0.022
-391.077	-140.413	0.195	-0.020
-390.063	-64.384	0.264	-0.107
-389.048	-134.630	-0.242	-0.029
-388.033	-70.460	-0.152	-0.057
-387.019	13.395	-0.191	0.148
-386.004	93.192	0.140	0.158
-384.990	-200.000	-0.002	-0.098
-383.975	-94.719	-0.132	0.036
-382.960	-113.540	-0.187	-0.036
-381.946	-118.644	-0.297	0.052
-380.931	49.198	-0.171	-0.160
-379.917	-3.647	-0.049	0.034
-378.902	82.735	-0.015	0.016
-377.888	-73.018	0.189	-0.069
-376.873	-76.632	-0.239	-0.084
-375.858	-200.000	0.004	-0.391
-374.844	247.885	-0.089	-0.150
-373.829	-2.269	-0.183	0.128
-372.815	-7.876	0.302	-0.203
-371.800	111.866	0.199	-0.240
-370.785	100.121	0.122	-0.141
-369.771	-200.000	0.000	-0.023
-368.756	330.198	0.049	0.093
-367.742	15.185	0.137	-0.107
-366.727	-32.430	-0.148	-0.082
-365.712	-200.000	0.007	-0.146
-364.698	224.792	0.062	-0.100
-363.683	-30.416	0.047	-0.027
-362.669	-200.000	0.018	-0.127
-361.654	760.492	0.053	-0.143
-360.639	12.403	-0.261	0.200
-359.625	7.406	-0.292	-0.217
-358.610	528.011	0.163	0.384
-357.596	-160.574	0.111	0.006
-356.581	100.812	0.097	0.112
-355.566	238.379	0.135	-0.224
-354.552	102.867	-0.181	-0.211
-353.537	-50.377	-0.232	0.109
-352.523	-163.966	-0.351	-0.016
-351.508	-187.911	0.401	0.005
-350.493	-145.678	0.318	-0.028
-349.479	77.072	-0.090	-0.096
-348.464	-200.000	-0.101	0.469
-347.450	-31.142	-0.055	0.031
-346.435	93.928	-0.188	-0.213
-345.420	43.433	-0.016	-0.015
-344.406	-83.329	-0.127	0.041
-343.391	-70.695	-0.033	-0.012
-342.377	-200.000	0.001	0.005
-341.362	-28.486	0.247	0.142
-340.348	800.000	0.067	-0.211
-339.333	342.358	0.117	-0.228
-338.318	-200.000	0.014	0.073
-337.304	90.789	0.103	0.115
-336.289	-18.010	-0.137	0.086
-335.275	-17.575	0.038	-0.024
-334.260	174.668	0.282	-0.406
-333.245	-133.211	-0.163	0.020
-332.231	15.514	-0.175	0.137
-331.216	-49.456	0.318	-0.151
-330.202	-112.663	0.135	0.027
-329.187	-200.000	0.004	0.041
-328.172	-188.941	-0.352	-0.004
-327.158	800.000	-0.092	0.279
-326.143	-86.659	-0.269	-0.082
-325.129	-38.604	0.310	0.163
-324.114	-75.749	-0.337	-0.119
-323.099	493.868	0.040	-0.090
-322.085	457.108	-0.162	-0.357
-321.070	-200.000	-0.011	0.072
-320.056	-146.673	0.231	0.020
-319.041	-200.000	0.049	-0.334
-318.026	-28.700	0.118	-0.067
-317.012	223.067	-0.063	0.101
-315.997	26.935	0.218	-0.181
-314.983	2.454	-0.140	-0.101
-313.968	653.356	-0.115	0.292
-312.953	-200.000	-0.054	0.293
-311.939	-72.356	-0.100	0.037
-310.924	-35.628	-0.045	0.024
-309.910	17.184	0.122	-0.096
-308.895	205.972	-0.159	-0.245
-307.880	49.279	0.265	0.248
-306.866	-101.307	-0.306	0.074
-305.851	800.000	-0.059	-0.227
-304.837	800.000	0.103	0.331
-303.822	377.831	0.170	0.345
-302.807	101.616	0.136	-0.158
-301.793	800.000	-0.053	-0.161
-300.778	-30.314	0.143	0.081
-299.764	65.504	-0.136	0.136
-298.749	30.322	0.055	0.047
-297.735	558.162	-0.042	0.100
-296.720	-103.965	0.172	-0.040
-295.705	-137.802	0.286	-0.032
-294.691	-200.000	0.210	-0.001
-293.676	-100.311	0.271	-0.067
-292.662	-200.000	-0.012	0.149
-291.647	740.635	-0.020	-0.053
-290.632	-125.919	0.203	-0.030
-289.618	-20.677	-0.122	0.074
-288.603	76.244	0.138	0.145
-287.589	-76.742	-0.116	0.040
-286.574	-145.732	0.109	-0.010
-285.559	-80.427	0.111	0.037
-284.545	367.788	-0.051	-0.102
-283.530	-95.069	0.244	-0.065
-282.516	-200.000	0.010	-0.298
-281.501	-58.083	0.153	-0.066
-280.486	74.822	-0.125	-0.131
-279.472	183.164	-0.100	-0.147
-278.457	-134.123	0.164	0.020
-277.443	800.000	-0.124	0.509
-276.428	132.468	0.102	-0.130
-275.413	-8.342	0.339	0.226
-274.399	800.000	0.042	-0.178
-273.384	270.658	-0.116	0.202
-272.370	-200.000	0.028	0.219
-271.355	21.969	-0.165	-0.134
-270.340	-200.000	-0.015	0.080
-269.326	-47.587	0.325	0.157
-268.311	424.201	-0.100	0.214
-267.297	-200.000	-0.003	0.083
-266.282	-128.366	-0.106	-0.015
-265.267	26.294	0.170	-0.141
-264.253	165.183	-0.139	0.194
-263.238	-86.771	-0.097	-0.029
-262.224	800.000	0.066	0.210
-261.209	286.742	0.072	-0.130
-260.195	742.676	0.024	0.063
-259.180	110.896	0.209	0.249
-258.165	-200.000	0.018	0.111
-257.151	532.685	-0.087	0.204
-256.136	530.332	0.067	-0.156
-255.122	-24.861	-0.179	0.105
-254.107	105.344	0.171	0.201
-253.092	-97.239	0.191	0.049
-252.078	598.752	-0.059	0.145
-251.063	-70.929	-0.335	0.125
-250.049	-200.000	-0.015	-0.321
-249.034	77.874	0.101	-0.107
-248.019	-6.824	0.231	0.156
-247.005	56.546	0.280	-0.270
-245.990	-189.869	0.305	-0.003
-244.976	-13.490	-0.070	-0.045
-243.961	800.000	0.064	-0.219
-242.946	-62.071	0.372	0.154
-241.932	161.949	0.095	0.132
-240.917	52.605	0.156	-0.148
-239.903	376.637	-0.107	-0.216
-238.888	-150.678	-0.190	-0.014
-237.873	56.820	0.349	-0.337
-236.859	-76.461	-0.290	-0.101
-235.844	-11.200	-0.109	-0.071
-234.830	49.848	-0.097	0.090
-233.815	665.964	-0.027	-0.070
-232.800	172.024	0.064	-0.091
-231.786	18.591	0.139	-0.110
-230.771	-132.602	0.291	-0.037
-229.757	19.340	-0.118	-0.094
-228.742	213.898	-0.130	0.204
-227.727	-137.384	0.155	-0.017
-226.713	55.881	0.054	0.052
-225.698	-129.894	0.084	0.011
-224.684	-89.017	-0.543	-0.159
-223.669	800.000	-0.098	-0.364
-222.655	-84.384	0.087	0.027
-221.640	-200.000	0.028	-0.428
-220.625	-80.261	0.298	0.099
-219.611	-131.185	0.033	-0.004
-218.596	530.222	-0.195	0.456
-217.582	-83.318	-0.093	0.030
-216.567	-200.000	-0.012	0.110
-215.552	255.380	0.107	0.181
-214.538	-77.115	-0.256	-0.088
-213.523	-200.000	-0.057	0.263
-212.509	-200.000	-0.022	0.148
-211.494	-165.933	-0.196	-0.008
-210.479	-47.767	0.367	0.176
-209.465	-71.568	-0.343	0.127
-208.450	-200.000	-0.012	-0.227
-207.436	-6.189	0.278	0.188
-206.421	-118.445	-0.292	-0.051
-205.406	-200.000	-0.042	-0.231
-204.392	48.288	0.250	-0.231
-203.377	800.000	-0.109	0.431
-202.363	-54.593	-0.428	0.192
-201.348	-105.116	0.252	-0.057
-200.333	26.862	-0.297	0.247
-199.319	49.894	-0.402	0.375
-198.304	-108.412	-0.109	0.023
-197.290	800.000	-0.036	-0.125
-196.275	-75.304	0.185	0.065
-195.260	196.587	-0.097	0.146
-194.246	17.937	-0.063	0.050
-193.231	84.962	-0.005	0.005
-192.217	-136.300	-0.168	-0.019
-191.202	-106.319	0.137	0.030
-190.187	-200.000	0.016	-0.076
-189.173	-149.966	0.086	0.007
-188.158	-200.000	-0.061	0.393
-187.144	800.000	0.039	-0.132
-186.129	800.000	0.073	0.252
-185.114	-136.755	0.139	0.016
-184.100	800.000	0.087	0.248
-183.085	-154.421	-0.217	0.014
-182.071	-200.000	0.051	0.224
-181.056	98.691	-0.248	0.283
-180.042	153.035	0.044	-0.059
-179.027	89.067	-0.217	-0.239
-178.012	-179.941	-0.285	-0.006
-176.998	800.000	0.120	0.336
-175.983	234.003	-0.139	-0.227
-174.969	-109.799	-0.060	0.012
-173.954	-185.825	0.388	-0.006
-172.939	260.082	0.149	0.255
-171.925	33.870	0.143	0.123
-170.910	-200.000	-0.031	-0.242
-169.896	-53.108	0.085	-0.039
-168.881	-125.428	-0.406	-0.061
-167.866	-200.000	-0.019	-0.254
-166.852	71.110	0.103	-0.106
-165.837	251.580	0.190	0.319
-164.823	800.000	-0.084	-0.337
-163.808	14.330	-0.153	0.118
-162.793	46.480	-0.128	0.118
-161.779	800.000	-0.055	-0.223
-160.764	169.345	0.120	0.169
-159.750	-121.628	0.451	-0.074
-158.735	200.479	0.114	-0.173
-157.720	-72.313	0.217	-0.079
-156.706	800.000	0.071	-0.194
-155.691	36.633	-0.137	-0.119
-154.677	-36.322	-0.289	0.154
-153.662	-74.727	0.073	-0.026
-152.647	-123.849	-0.176	0.027
-151.633	-200.000	-0.032	0.190
-150.618	-200.000	0.014	-0.267
-149.604	82.830	0.082	-0.088
-148.589	-95.624	0.086	-0.023
-147.574	-14.947	-0.252	0.159
-146.560	-83.876	-0.347	0.109
-145.545	290.522	-0.118	0.212
-144.531	-112.056	0.207	0.041
-143.516	67.182	0.082	0.083
-142.502	48.581	0.205	0.189
-141.487	-36.511	0.348	-0.185
-140.472	121.889	0.172	0.212
-139.458	274.906	0.107	0.187
-138.443	-109.368	-0.221	0.046
-137.429	-200.000	-0.038	-0.360
-136.414	-1.637	-0.073	0.051
-135.399	-200.000	0.010	0.160
-134.385	655.002	0.171	-0.434
-133.370	-94.787	0.309	0.083
-132.356	800.000	0.088	0.251
-131.341	566.256	-0.036	-0.086
-130.326	-200.000	0.039	0.255
-129.312	-200.000	0.006	0.103
-128.297	800.000	0.036	0.106
-127.283	220.565	-0.166	-0.263
-126.268	800.000	0.103	0.422
-125.253	-48.591	-0.215	-0.102
-124.239	800.000	-0.047	0.201
-123.224	-96.702	-0.115	-0.030
-122.210	-42.099	0.348	-0.176
-121.195	-200.000	-0.008	0.176
-120.180	-111.217	0.206	-0.042
-119.166	-83.336	-0.357	-0.113
-118.151	-96.874	0.135	-0.035
-117.137	-200.000	-0.006	-0.368
-116.122	-200.000	-0.078	0.372
-115.107	39.272	0.148	-0.131
-114.093	77.144	-0.157	-0.165
-113.078	343.264	0.194	0.375
-112.064	800.000	-0.085	-0.297
-111.049	11.870	-0.354	-0.268
-110.034	-200.000	0.004	-0.037
-109.020	-69.858	0.525	0.197
-108.005	-83.596	-0.083	0.026
-106.991	-95.382	0.119	0.032
-105.976	800.000	0.075	0.287
-104.962	158.203	-0.230	0.314
-103.947	-50.469	0.071	0.033
-102.932	10.260	-0.178	0.133
-101.918	-81.323	-0.128	0.042
-100.903	800.000	0.053	0.161
-99.889	-94.598	0.427	0.115
-98.874	800.000	0.072	0.240
-97.859	63.928	0.213	0.211
-96.845	-154.790	0.031	-0.002
-95.830	-6.651	-0.095	-0.064
-94.816	-14.866	0.230	0.146
-93.801	277.281	-0.064	-0.112
-92.786	-95.059	0.231	0.062
-91.772	89.005	0.165	-0.181
-90.757	15.995	-0.130	-0.101
-89.743	-81.516	0.121	-0.039
-88.728	-184.760	-0.335	-0.005
-87.713	19.285	0.125	0.099
-86.699	-107.586	0.174	-0.037
-85.684	21.528	0.229	-0.184
-84.670	-145.043	0.100	0.009
-83.655	50.105	0.142	0.132
-82.640	46.926	-0.116	0.106
-81.626	-68.220	-0.128	0.049
-80.611	339.874	-0.122	-0.235
-79.597	800.000	0.089	-0.292
-78.582	-200.000	-0.042	-0.384
-77.567	1.709	-0.257	0.182
-76.553	-30.024	0.200	0.112
-75.538	-200.000	-0.043	-0.211
-74.524	193.572	0.060	-0.090
-73.509	-147.519	0.105	0.009
-72.494	12.245	-0.311	-0.236
-71.480	346.639	-0.045	-0.087
-70.465	167.809	0.232	0.325
-69.451	-180.330	-0.338	0.007
-68.436	-101.008	0.361	-0.087
-67.422	183.341	0.082	0.119
-66.407	-200.000	-0.076	-0.342
-65.392	-22.863	-0.137	-0.081
-64.378	-200.000	-0.036	0.327
-63.363	-200.000	0.030	0.228
-62.349	-176.119	0.118	-0.003
-61.334	57.267	-1.086	-1.044
-60.319	-200.000	-0.022	0.484
-59.305	-200.000	0.118	-0.668
-58.290	124.223	0.903	1.117
-57.276	800.000	0.664	1.880
-56.261	-200.000	95.278	592.170
-55.246	654.806	1367.890	3455.059
-54.232	199.946	2543.953	3842.481
-53.217	119.584	2159.956	2632.209
-52.203	42.728	1705.567	1528.321
-51.188	35.301	1517.854	1309.583
-50.173	32.749	1491.306	1269.474
-49.159	52.149	1539.645	1443.691
-48.144	53.844	1557.117	1471.607
-47.130	35.376	1517.478	1309.564
-46.115	32.308	1502.330	1275.662
-45.100	32.108	1499.690	1272.017
-44.086	32.093	1497.557	1270.051
-43.071	32.066	1495.505	1268.084
-42.057	32.024	1493.801	1266.301
-41.042	32.090	1492.322	1265.443
-40.027	32.018	1491.392	1264.119
-39.013	31.946	1489.621	1262.086
-37.998	32.024	1488.046	1261.227
-36.984	31.970	1487.333	1260.208
-35.969	32.016	1485.809	1259.173
-34.954	32.083	1484.255	1258.253
-33.940	31.961	1482.795	1256.149
-32.925	31.999	1481.670	1255.402
-31.911	31.967	1480.619	1254.246
-30.896	32.027	1478.924	1253.163
-29.881	32.084	1476.889	1251.768
-28.867	32.126	1476.367	1251.557
-27.852	32.072	1474.875	1249.882
-26.838	32.051	1473.718	1248.716
-25.823	32.006	1472.004	1246.915
-24.809	32.027	1470.010	1245.312
-23.794	32.042	1468.795	1244.336
-22.779	32.029	1467.340	1242.965
-21.765	32.099	1466.001	1242.244
-20.750	32.077	1465.413	1241.550
-19.736	31.995	1464.148	1239.892
-18.721	31.906	1463.777	1238.941
-17.706	31.971	1462.414	1238.167
-16.692	31.971	1460.849	1236.792
-15.677	32.004	1459.921	1236.176
-14.663	31.954	1459.013	1235.024
-13.648	32.105	1457.334	1234.547
-12.633	32.017	1456.972	1233.617
-11.619	31.949	1456.502	1232.721
-10.604	31.955	1455.487	1231.852
-9.590	31.918	1454.797	1230.977
-8.575	32.019	1453.858	1230.798
-7.560	31.959	1452.573	1229.268
-6.546	32.005	1451.921	1228.969
-5.531	31.909	1451.107	1227.601
-4.517	31.909	1449.979	1226.596
-3.502	31.946	1448.894	1225.871
-2.487	31.990	1447.749	1225.145
-1.473	31.962	1446.636	1223.971
-0.458	32.001	1445.380	1223.115
0.556	30.532	1436.022	1211.898
1.571	27.629	1410.417	1171.556
2.586	24.133	1350.899	1100.464
3.600	22.478	1269.269	1024.259
4.615	21.045	1223.396	979.116
5.629	18.361	1167.170	919.638
6.644	10.963	1084.284	817.220
7.659	5.282	1045.236	760.142
8.673	4.647	1039.714	752.985
9.688	4.529	1036.728	750.185
10.702	4.383	1035.311	748.393
11.717	4.531	1033.063	747.412
12.731	6.456	1035.164	758.133
13.746	13.402	1044.521	798.545
14.761	18.420	1050.308	827.187
15.775	18.388	1049.535	826.350
16.790	17.388	1047.220	819.636
17.804	16.263	1045.048	812.453
18.819	15.412	1043.265	806.908
19.834	14.957	1041.711	803.449
20.848	14.632	1041.333	801.523
21.863	14.481	1039.948	799.666
22.877	14.275	1039.552	798.302
23.892	14.027	1038.995	796.616
24.907	13.974	1037.938	795.480
25.921	13.986	1037.455	795.095
26.936	13.992	1036.616	794.411
27.950	13.887	1035.461	792.952
28.965	14.033	1034.658	792.966
29.980	14.149	1032.753	791.986
30.994	14.128	1032.406	791.553
32.009	14.329	1031.027	791.380
33.023	14.379	1030.480	791.128
34.038	14.249	1029.823	789.938
35.053	14.276	1028.748	789.169
36.067	14.165	1027.645	787.728
37.082	14.185	1026.776	787.086
38.096	14.184	1025.996	786.413
39.111	14.216	1025.101	785.810
40.126	14.294	1024.358	785.537
41.140	14.224	1023.029	784.121
42.155	14.048	1022.141	782.544
43.169	13.869	1021.484	781.128
44.184	13.893	1020.223	780.206
45.199	13.865	1019.209	779.233
46.213	13.901	1017.601	778.101
47.228	13.910	1017.515	778.011
48.242	14.078	1016.231	777.745
49.257	14.108	1015.545	777.292
50.271	14.029	1014.437	776.007
51.286	14.182	1013.859	776.207
52.301	14.172	1012.976	775.418
53.315	14.133	1012.202	774.572
54.330	14.048	1011.598	773.647
55.344	14.001	1010.126	772.238
56.359	14.064	1009.267	771.802
57.374	13.914	1008.890	770.753
58.388	14.012	1007.725	770.245
59.403	13.913	1006.818	769.028
60.417	13.724	1006.663	767.967
61.432	13.865	1005.739	767.844
62.447	13.930	1004.359	767.021
63.461	13.736	1003.931	765.732
64.476	13.796	1002.989	765.223
65.490	13.720	1002.310	764.288
66.505	13.944	1000.957	764.217
67.520	13.876	1000.310	763.346
68.534	13.941	999.714	763.121
69.549	13.875	999.064	762.253
70.563	13.857	998.230	761.466
71.578	13.914	997.224	760.896
72.593	13.857	996.646	760.125
73.607	13.630	996.024	758.546
74.622	13.640	994.757	757.559
75.636	13.770	993.439	757.083
76.651	13.839	992.898	756.918
77.666	13.658	992.637	755.824
78.680	13.773	991.869	755.697
79.695	13.763	991.108	755.004
80.709	13.873	990.814	755.217
81.724	13.865	989.448	754.069
82.739	13.957	989.010	754.086
83.753	13.945	988.294	753.420
84.768	14.046	987.767	753.408
85.782	14.117	987.414	753.396
86.797	14.279	985.982	752.970
87.812	14.187	985.462	752.091
88.826	14.091	984.881	751.146
89.841	13.997	984.057	750.029
90.855	14.251	982.867	750.197
91.870	14.234	982.146	749.504
92.884	14.191	981.778	748.966
93.899	14.244	981.110	748.625
94.914	14.223	980.228	747.795
95.928	14.249	979.374	747.191
96.943	14.323	978.978	747.158
97.957	14.216	978.278	746.078
98.972	14.261	976.903	745.160
99.987	14.346	976.217	744.952
101.001	14.324	975.460	744.212
102.016	14.275	974.858	743.467
103.030	14.410	973.293	742.809
104.045	14.175	973.230	741.650
105.060	14.295	971.775	741.011
106.074	14.202	970.960	739.909
107.089	14.171	969.988	738.963
108.103	13.872	969.565	737.249
109.118	13.831	968.369	736.093
110.133	13.918	967.731	735.927
111.147	14.079	966.391	735.556
112.162	14.021	965.309	734.412
113.176	13.888	964.919	733.461
114.191	14.010	964.181	733.373
115.206	14.002	963.594	732.830
116.220	13.884	962.928	731.737
117.235	14.030	961.902	731.536
118.249	13.964	961.080	730.556
119.264	13.960	960.234	729.830
120.279	14.030	959.321	729.378
121.293	13.808	958.608	727.798
122.308	13.902	958.210	727.845
123.322	13.894	957.008	726.832
124.337	13.810	956.146	725.745
125.352	13.902	954.722	725.000
126.366	13.836	953.409	723.654
127.381	13.719	952.972	722.746
128.395	13.798	951.426	721.856
129.410	13.917	950.749	721.796
130.424	13.833	950.053	720.838
131.439	13.915	949.111	720.414
132.454	13.933	948.327	719.835
133.468	13.971	947.841	719.566
134.483	14.067	947.001	719.278
135.497	14.031	946.579	718.741
136.512	13.997	945.523	717.727
137.527	14.078	944.641	717.345
138.541	14.123	943.875	716.894
139.556	13.891	943.306	715.399
140.570	14.091	942.491	715.576
141.585	14.103	941.982	715.181
142.600	14.155	941.244	714.780
143.614	14.189	940.739	714.477
144.629	14.339	939.466	714.093
145.643	14.344	939.084	713.759
146.658	14.261	937.994	712.511
147.673	14.212	936.980	711.471
148.687	14.115	936.047	710.284
149.702	14.235	934.941	709.894
150.716	14.001	934.481	708.486
151.731	14.281	933.457	708.835
152.746	14.138	932.810	707.677
153.760	14.127	932.463	707.303
154.775	14.091	931.604	706.435
155.789	14.177	930.688	706.045
156.804	14.159	930.269	705.589
157.819	14.266	929.175	705.149
158.833	14.255	928.417	704.465
159.848	14.290	927.887	704.147
160.862	14.360	927.323	703.953
161.877	14.372	926.776	703.526
162.892	14.172	926.029	702.052
163.906	14.254	924.814	701.413
164.921	14.226	923.831	700.488
165.935	14.131	922.963	699.371
166.950	14.145	922.465	698.988
167.964	14.190	920.954	697.971
168.979	14.190	920.436	697.519
169.994	14.180	919.574	696.760
171.008	14.304	918.051	696.063
172.023	14.232	918.024	695.678
173.037	14.387	916.905	695.417
174.052	14.477	916.407	695.355
175.067	14.451	915.362	694.392
176.081	14.205	914.996	693.029
177.096	14.097	914.238	691.943
178.110	14.174	913.051	691.304
179.125	14.300	911.974	690.951
180.140	14.317	911.412	690.533
181.154	14.398	910.918	690.433
182.169	14.363	910.609	689.993
183.183	14.416	910.063	689.739
184.198	14.587	909.182	689.716
185.213	14.589	908.542	689.179
186.227	14.633	907.736	688.689
187.242	14.522	907.333	687.861
188.256	14.528	906.807	687.429
189.271	14.777	905.607	687.480
190.286	14.775	905.171	687.082
191.300	14.464	904.789	685.452
192.315	14.239	903.921	683.810
193.329	14.190	902.955	682.817
194.344	14.288	902.233	682.613
195.359	14.200	902.087	682.079
196.373	14.396	901.106	682.082
197.388	14.437	901.271	682.313
198.402	14.659	900.286	682.416
199.417	14.656	899.797	681.972
200.432	14.717	899.381	681.843
201.446	14.902	899.029	682.274
202.461	14.873	898.351	681.582
203.475	14.987	898.012	681.726
204.490	14.905	897.672	681.076
205.504	14.865	896.300	679.809
206.519	14.722	895.719	678.729
207.534	14.563	895.266	677.680
208.548	14.831	893.843	677.631
209.563	14.660	893.558	676.660
210.577	14.735	893.023	676.497
211.592	14.758	892.185	675.896
212.607	14.893	891.513	675.875
213.621	14.932	891.090	675.652
214.636	14.872	890.677	675.035
215.650	14.881	889.676	674.252
216.665	14.911	889.352	674.069
217.680	15.026	888.943	674.163
218.694	15.048	888.432	673.807
219.709	15.063	887.887	673.392
220.723	15.027	887.227	672.686
221.738	15.062	886.409	672.148
222.753	15.033	885.707	671.438
223.767	14.948	884.921	670.444
224.782	14.981	884.135	669.923
225.796	15.089	883.774	670.022
226.811	15.249	883.313	670.252
227.826	15.223	882.260	669.288
228.840	15.114	881.273	668.046
229.855	14.992	881.041	667.323
230.869	15.060	879.957	666.717
231.884	15.016	879.649	666.250
232.899	14.878	878.886	665.061
233.913	15.126	877.846	665.204
234.928	14.984	877.589	664.385
235.942	14.876	877.020	663.468
236.957	14.861	876.229	662.750
237.972	15.040	875.478	662.833
238.986	14.921	874.817	661.802
240.001	14.989	874.389	661.691
241.015	15.007	873.439	660.982
242.030	15.115	872.547	660.674
243.045	15.122	872.045	660.266
244.059	15.108	871.463	659.711
245.074	15.168	871.023	659.555
246.088	15.259	870.285	659.297
247.103	15.172	870.144	658.787
248.117	15.228	869.425	658.406
249.132	15.401	868.833	658.580
250.147	15.429	868.394	658.298
251.161	15.460	868.024	658.078
252.176	15.553	867.278	657.821
253.190	15.650	866.427	657.496
254.205	15.691	866.097	657.345
255.220	15.721	865.564	657.003
256.234	15.719	864.767	656.331
257.249	15.803	863.970	655.995
258.263	15.735	863.864	655.592
259.278	15.701	863.274	654.952
260.293	15.774	862.761	654.793
261.307	15.723	862.097	654.032
262.322	15.786	861.527	653.785
263.336	15.866	860.704	653.415
264.351	15.761	860.368	652.693
265.366	15.967	859.503	652.778
266.380	15.785	859.140	651.739
267.395	15.810	858.437	651.244
268.409	15.678	857.703	650.122
269.424	15.838	856.811	650.005
270.439	15.767	856.317	649.299
271.453	15.790	855.438	648.662
272.468	15.766	854.927	648.126
273.482	15.696	854.359	647.369
274.497	15.729	853.574	646.843
275.512	15.779	852.688	646.307
276.526	15.746	852.162	645.723
277.541	15.802	851.409	645.310
278.555	15.821	851.007	645.022
279.570	15.907	850.442	644.867
280.585	16.122	849.815	645.157
281.599	16.124	849.298	644.714
282.614	15.872	848.820	643.333
283.628	15.929	848.027	642.892
284.643	15.871	847.608	642.296
285.657	15.986	847.006	642.219
286.672	15.875	846.875	641.642
287.687	15.896	846.308	641.235
288.701	16.072	845.174	640.987
289.716	15.975	844.638	640.157
290.730	15.895	844.555	639.733
291.745	15.971	843.505	639.168
292.760	16.191	843.101	639.640
293.774	16.179	842.438	639.037
294.789	16.179	841.904	638.575
295.803	16.063	841.564	637.821
296.818	16.175	840.874	637.663
297.833	16.152	839.916	636.794
298.847	15.991	839.383	635.729
299.862	16.257	838.397	635.925
300.876	16.301	837.698	635.507
301.891	16.296	837.556	635.321
302.906	16.263	836.869	634.623
303.920	16.357	836.231	634.437
304.935	16.362	835.832	634.095
305.949	16.541	835.216	634.243
306.964	16.421	834.769	633.398
307.979	16.422	833.762	632.581
308.993	16.505	833.285	632.474
310.008	16.493	832.819	632.021
311.022	16.475	832.705	631.809
312.037	16.473	832.281	631.423
313.052	16.400	831.553	630.545
314.066	16.497	830.667	630.177
315.081	16.332	830.030	629.023
316.095	16.277	829.571	628.417
317.110	16.528	828.727	628.656
318.125	16.356	828.552	627.827
319.139	16.288	828.231	627.274
320.154	16.353	827.634	627.007
321.168	16.323	826.895	626.284
322.183	16.421	826.617	626.379
323.197	16.365	826.070	625.701
324.212	16.433	825.501	625.468
325.227	16.330	824.949	624.614
326.241	16.476	824.403	624.684
327.256	16.508	823.698	624.211
328.270	16.444	823.363	623.667
329.285	16.500	822.548	623.200
330.300	16.460	822.075	622.640
331.314	16.388	821.821	622.129
332.329	16.604	820.782	622.080
333.343	16.611	820.234	621.635
334.358	16.482	820.110	621.011
335.373	16.644	819.408	621.021
336.387	16.698	818.707	620.631
337.402	16.686	818.661	620.500
338.416	16.729	817.695	619.870
339.431	16.756	817.213	619.547
340.446	16.798	816.630	619.206
341.460	16.889	816.118	619.092
342.475	17.001	815.375	618.883
343.489	16.952	815.078	618.425
344.504	17.031	814.487	618.209
345.519	17.084	814.277	618.189
346.533	16.990	813.651	617.317
347.548	16.944	813.098	616.675
348.562	17.138	812.162	616.617
349.577	16.928	811.649	615.409
350.592	16.793	811.228	614.547
351.606	16.938	810.606	614.547
352.621	16.778	810.241	613.633
353.635	16.777	810.269	613.597
354.650	16.913	809.572	613.509
355.665	16.917	809.034	613.061
356.679	17.001	808.459	612.876
357.694	17.048	808.393	612.938
358.708	16.977	807.766	612.153
359.723	16.889	807.534	611.605
360.738	17.134	806.529	611.673
361.752	16.992	806.278	610.916
362.767	16.974	805.608	610.293
363.781	17.198	805.427	610.904
364.796	17.223	804.775	610.448
365.810	17.160	804.670	610.088
366.825	17.276	804.502	610.321
367.840	17.398	803.824	610.192
368.854	17.316	803.518	609.612
369.869	17.273	802.751	608.821
370.883	17.299	802.541	608.700
371.898	17.260	802.042	608.129
372.913	17.337	800.980	607.546
373.927	17.450	800.314	607.389
374.942	17.436	799.940	607.001
375.956	17.457	799.343	606.570
376.971	17.470	798.687	606.067
377.986	17.409	798.447	605.612
379.000	17.366	798.336	605.323
380.015	17.553	797.637	605.402
381.029	17.627	796.840	605.008
382.044	17.699	796.383	604.862
383.059	17.502	795.664	603.565
384.073	17.622	795.296	603.656
385.088	17.604	794.669	603.066
386.102	17.593	793.863	602.359
387.117	17.530	793.391	601.726
388.132	17.342	793.247	600.899
389.146	17.489	792.791	601.019
390.161	17.477	792.449	600.663
391.175	17.544	792.106	600.588
392.190	17.546	791.726	600.254
393.205	17.717	791.037	600.281
394.219	17.695	790.156	599.482
395.234	17.563	790.291	599.067
396.248	17.373	789.793	597.968
397.263	17.387	789.409	597.675
398.278	17.486	788.677	597.414
399.292	17.569	788.015	597.152
400.307	17.440	787.796	596.480
401.321	17.382	787.739	596.181
402.336	17.576	787.175	596.380
403.350	17.661	786.756	596.306
404.365	17.644	786.549	596.039
405.380	17.556	786.098	595.334
406.394	17.858	784.924	595.447
407.409	17.866	784.909	595.412
408.423	17.919	784.666	595.360
409.438	17.821	784.150	594.574
410.453	17.818	783.942	594.354
411.467	18.165	783.330	595.043
412.482	17.941	782.886	593.876
413.496	17.931	782.600	593.571
414.511	18.094	782.040	593.661
415.526	18.020	781.615	593.028
416.540	18.014	781.577	592.927
417.555	17.985	780.988	592.325
418.569	17.993	780.663	592.056
419.584	18.124	779.905	591.881
420.599	18.209	779.596	591.890
421.613	155.938	1368.930	1795.265
422.628	134.547	1454.773	1795.361
