DTS Sentinel unit serial number:	SN413079Multiplexer serial number:	ORYXHardware model number:	OX4-SRSoftware version number:	ORYX F/W v4.00 Oryx Data Collector v3.7.2.0data status	okinstallation	princeton_trtdifferential loss correction	single-endedforward channel	channel 3reverse channel	N/Adate	2019/09/18time	21:44:35forward acquisition time	60.00reverse acquisition time	0.00gamma	496.2192k internal	0.2345k external	0.2345temperature offset calibration	0.9991default loss term (dB/km)	0.3790temperature slope calibration	1.0000multiplexer offset coefficient	1.0000multiplexer slope coefficient	1.0000fibre end	0.00T internal ref (°C)	24.87T ext. ref 1 (°C)	0.82T ext. ref 2 (°C)	18.27length (m)	temperature (°C)	Stokes	anti-Stokes-747.200	-200.000	-0.031	-0.458
-746.185	226.260	-0.100	0.163
-745.171	-200.000	0.105	0.521
-744.156	-200.000	-0.020	0.231
-743.142	-200.000	-0.024	-0.206
-742.127	-200.000	-0.055	0.610
-741.112	443.765	0.041	0.090
-740.098	-200.000	-0.072	-0.346
-739.083	-106.790	-0.293	0.065
-738.069	22.952	-0.263	0.216
-737.054	-49.893	0.225	0.107
-736.039	-107.054	-0.461	-0.102
-735.025	-126.078	0.140	0.021
-734.010	800.000	0.023	0.082
-732.996	-118.580	-0.180	0.032
-731.981	15.906	-0.317	0.250
-730.966	313.814	-0.057	-0.107
-729.952	-60.173	-0.422	-0.180
-728.937	70.055	-0.053	-0.055
-727.923	-98.703	-0.403	-0.103
-726.908	116.030	-0.339	-0.414
-725.894	-124.940	-0.257	0.040
-724.879	-67.033	0.062	0.024
-723.864	115.186	-0.258	-0.315
-722.850	-45.143	-0.267	-0.133
-721.835	-200.000	-0.013	0.194
-720.821	121.468	0.219	-0.272
-719.806	-61.746	0.152	-0.064
-718.791	224.697	0.287	-0.464
-717.777	-115.953	-0.351	0.065
-716.762	55.331	0.301	-0.291
-715.748	-171.855	-0.081	0.003
-714.733	79.621	-0.077	-0.082
-713.718	311.207	-0.079	0.147
-712.704	384.499	-0.152	0.313
-711.689	27.043	-0.159	0.134
-710.675	-200.000	-0.038	0.225
-709.660	449.809	-0.201	-0.444
-708.645	-43.448	-0.376	0.190
-707.631	114.781	-0.183	-0.223
-706.616	-200.000	0.016	0.378
-705.602	157.058	0.074	0.103
-704.587	800.000	-0.034	0.101
-703.572	-87.443	-0.080	0.024
-702.558	159.615	0.145	-0.202
-701.543	-200.000	-0.026	0.215
-700.529	-18.130	0.331	-0.207
-699.514	22.238	-0.219	-0.179
-698.499	257.261	0.147	-0.253
-697.485	169.891	0.229	-0.327
-696.470	-98.241	0.398	-0.102
-695.456	92.981	-0.098	0.110
-694.441	-200.000	-0.074	0.336
-693.426	248.345	0.150	0.254
-692.412	-135.103	0.137	0.016
-691.397	800.000	-0.028	-0.091
-690.383	140.908	0.228	-0.301
-689.368	-142.673	-0.445	-0.043
-688.354	110.513	0.141	0.169
-687.339	-200.000	-0.010	0.076
-686.324	-133.765	-0.072	0.009
-685.310	46.301	-0.053	-0.049
-684.295	-200.000	0.019	-0.161
-683.281	-200.000	-0.002	0.157
-682.266	29.328	0.364	-0.309
-681.251	-104.690	0.366	-0.084
-680.237	-200.000	0.043	0.268
-679.222	-21.270	0.174	0.106
-678.208	-93.574	-0.056	0.015
-677.193	-87.195	-0.227	-0.069
-676.178	-79.797	-0.266	0.089
-675.164	-51.575	0.216	-0.101
-674.149	800.000	0.014	-0.045
-673.135	15.249	-0.019	-0.015
-672.120	-142.360	-0.287	-0.028
-671.105	70.931	-0.046	0.047
-670.091	24.462	-0.157	0.130
-669.076	45.470	0.293	0.270
-668.062	56.606	-0.234	-0.227
-667.047	-44.910	0.217	-0.108
-666.032	-24.781	0.215	-0.127
-665.018	20.403	-0.164	-0.132
-664.003	-200.000	-0.194	-0.001
-662.989	800.000	-0.069	-0.276
-661.974	-200.000	-0.008	-0.170
-660.959	-166.520	0.286	-0.012
-659.945	-104.770	-0.079	0.018
-658.930	6.195	-0.072	-0.053
-657.916	-109.601	-0.133	-0.028
-656.901	19.687	0.205	-0.165
-655.886	-43.094	-0.222	-0.112
-654.872	230.833	0.115	-0.188
-653.857	24.167	0.199	-0.164
-652.843	653.446	-0.096	-0.245
-651.828	264.038	-0.075	-0.129
-650.814	86.772	-0.118	0.129
-649.799	2.070	-0.266	-0.192
-648.784	615.273	-0.114	-0.284
-647.770	131.833	-0.226	-0.290
-646.755	-200.000	-0.035	0.318
-645.741	-200.000	-0.005	-0.021
-644.726	800.000	0.087	0.295
-643.711	203.139	-0.160	0.246
-642.697	179.806	0.136	-0.198
-641.682	-2.610	-0.299	-0.208
-640.668	-5.678	0.180	-0.123
-639.653	27.447	-0.483	0.405
-638.638	111.166	-0.097	-0.116
-637.624	-200.000	-0.050	0.281
-636.609	144.836	-0.138	0.184
-635.595	-200.000	0.001	-0.017
-634.580	-145.690	-0.459	-0.041
-633.565	-200.000	-0.005	-0.074
-632.551	-163.749	-0.191	-0.009
-631.536	-65.433	0.141	0.057
-630.522	-87.950	-0.302	0.090
-629.507	-200.000	0.010	-0.106
-628.492	-47.080	-0.166	-0.080
-627.478	-51.385	0.273	-0.127
-626.463	-93.751	-0.255	0.070
-625.449	-200.000	-0.037	0.376
-624.434	7.343	-0.069	-0.052
-623.419	-200.000	-0.057	-0.282
-622.405	800.000	-0.037	0.155
-621.390	800.000	0.039	-0.141
-620.376	-200.000	0.019	-0.477
-619.361	-8.018	0.352	-0.236
-618.346	272.601	0.002	0.004
-617.332	75.994	-0.178	-0.187
-616.317	-16.940	-0.183	0.115
-615.303	-29.128	0.228	0.130
-614.288	-101.075	-0.303	0.074
-613.273	420.404	-0.050	0.107
-612.259	89.976	0.111	0.123
-611.244	-101.782	0.172	-0.041
-610.230	800.000	-0.066	-0.256
-609.215	-67.640	-0.252	0.098
-608.201	-17.450	0.196	0.123
-607.186	-40.224	0.301	-0.156
-606.171	13.035	0.503	-0.387
-605.157	-90.338	-0.383	-0.111
-604.142	446.818	-0.042	-0.093
-603.128	479.824	-0.108	-0.243
-602.113	-36.544	0.099	-0.053
-601.098	-70.826	-0.249	-0.093
-600.084	-71.583	-0.365	-0.136
-599.069	2.132	0.125	-0.090
-598.055	596.706	0.043	-0.107
-597.040	-105.601	-0.288	0.065
-596.025	-200.000	-0.042	-0.228
-595.011	-131.431	-0.126	0.017
-593.996	176.379	-0.152	0.220
-592.982	-26.185	-0.281	-0.164
-591.967	10.567	-0.133	-0.101
-590.952	-150.277	-0.340	0.026
-589.938	204.953	-0.181	0.279
-588.923	613.631	-0.071	-0.177
-587.909	-132.623	-0.071	0.009
-586.894	687.519	0.078	0.201
-585.879	800.000	-0.034	-0.105
-584.865	-90.757	0.369	-0.106
-583.850	-74.040	-0.301	0.108
-582.836	-33.123	0.042	-0.023
-581.821	-200.000	0.082	-0.400
-580.806	-63.185	-0.032	-0.013
-579.792	-78.931	-0.025	-0.009
-578.777	-200.000	-0.030	-0.145
-577.763	-128.555	0.315	0.044
-576.748	143.404	-0.167	0.221
-575.733	555.933	-0.050	0.121
-574.719	126.250	-0.089	-0.111
-573.704	-200.000	0.011	0.209
-572.690	-138.839	-0.315	-0.034
-571.675	91.888	-0.282	-0.316
-570.661	-48.831	0.182	-0.087
-569.646	-200.000	0.019	-0.219
-568.631	800.000	-0.035	0.099
-567.617	-63.501	-0.023	0.009
-566.602	169.650	-0.250	0.354
-565.588	83.973	0.161	0.174
-564.573	800.000	0.143	-0.417
-563.558	-69.926	-0.408	-0.154
-562.544	-93.351	-0.204	-0.056
-561.529	-54.608	-0.244	-0.110
-560.515	800.000	-0.094	-0.295
-559.500	800.000	0.058	0.230
-558.485	-79.798	0.162	-0.054
-557.471	800.000	-0.088	0.381
-556.456	-200.000	0.010	0.058
-555.442	-200.000	0.002	0.322
-554.427	39.714	0.133	-0.118
-553.412	251.159	-0.039	0.066
-552.398	10.707	-0.043	-0.032
-551.383	65.708	-0.108	0.109
-550.369	407.849	0.089	-0.186
-549.354	121.820	0.063	0.078
-548.339	-146.327	-0.130	-0.011
-547.325	-44.395	0.077	-0.038
-546.310	261.316	0.154	-0.265
-545.296	253.199	0.070	-0.118
-544.281	106.464	0.196	-0.231
-543.266	243.370	-0.145	-0.241
-542.252	-200.000	0.001	0.037
-541.237	-200.000	-0.027	-0.203
-540.223	130.291	0.108	-0.137
-539.208	44.471	-0.187	-0.171
-538.193	588.410	-0.042	0.102
-537.179	-154.952	-0.141	-0.009
-536.164	195.288	0.166	0.251
-535.150	-80.140	-0.316	0.105
-534.135	800.000	-0.072	0.301
-533.121	-118.170	0.277	0.049
-532.106	261.157	-0.046	0.080
-531.091	-29.725	-0.072	0.041
-530.077	-177.256	-0.165	-0.004
-529.062	-200.000	-0.028	0.226
-528.048	-97.555	-0.127	0.033
-527.033	-140.227	-0.107	0.011
-526.018	568.348	0.036	0.087
-525.004	-34.729	0.256	0.139
-523.989	-140.215	-0.312	-0.032
-522.975	57.535	0.063	-0.061
-521.960	47.262	-0.148	0.137
-520.945	-91.418	-0.264	0.075
-519.931	-27.591	-0.188	-0.108
-518.916	-109.046	-0.241	-0.051
-517.902	-7.669	0.240	-0.161
-516.887	-57.938	-0.178	-0.077
-515.872	246.672	-0.047	0.078
-514.858	-200.000	0.005	-0.163
-513.843	-62.326	0.352	-0.145
-512.829	84.021	-0.130	-0.141
-511.814	-64.801	-0.080	0.032
-510.799	-200.000	0.007	0.074
-509.785	-200.000	0.026	-0.195
-508.770	-125.565	0.292	-0.044
-507.756	145.545	0.095	0.126
-506.741	-111.340	0.241	0.049
-505.726	-127.926	0.074	0.010
-504.712	-26.318	0.354	-0.206
-503.697	-84.516	-0.212	0.066
-502.683	78.958	0.116	0.123
-501.668	-200.000	-0.042	-0.270
-500.653	-70.894	0.307	-0.115
-499.639	257.787	-0.084	-0.144
-498.624	-200.000	-0.066	0.379
-497.610	-160.278	-0.192	-0.010
-496.595	312.177	-0.082	-0.152
-495.581	471.441	0.173	0.385
-494.566	-200.000	0.008	-0.141
-493.551	-159.612	0.174	-0.010
-492.537	-200.000	-0.053	0.235
-491.522	800.000	-0.039	-0.106
-490.508	-54.038	-0.047	-0.021
-489.493	-139.025	0.349	-0.037
-488.478	-70.848	-0.284	0.106
-487.464	800.000	0.046	-0.195
-486.449	-4.397	-0.130	0.089
-485.435	729.876	0.062	-0.164
-484.420	329.163	0.132	0.251
-483.405	800.000	-0.057	0.219
-482.391	-5.976	0.158	-0.107
-481.376	254.317	0.078	0.132
-480.362	-81.128	-0.177	-0.058
-479.347	-165.126	-0.395	0.017
-478.332	33.446	0.112	0.096
-477.318	-175.757	-0.043	0.001
-476.303	37.970	-0.260	0.229
-475.289	-191.112	-0.024	0.000
-474.274	-200.000	-0.022	0.156
-473.259	66.458	0.280	-0.282
-472.245	-75.555	0.219	0.077
-471.230	-200.000	-0.048	0.247
-470.216	179.236	0.116	0.167
-469.201	216.192	0.069	-0.108
-468.186	800.000	0.031	-0.103
-467.172	800.000	0.018	0.057
-466.157	164.579	-0.256	0.357
-465.143	-183.858	-0.127	-0.002
-464.128	63.391	-0.166	-0.165
-463.113	183.807	0.191	0.279
-462.099	-122.862	0.132	-0.021
-461.084	85.059	-0.077	0.083
-460.070	-7.814	0.258	-0.172
-459.055	-192.161	0.146	-0.001
-458.040	312.188	0.148	-0.274
-457.026	-200.000	0.045	0.252
-456.011	-106.544	-0.081	-0.018
-454.997	-200.000	0.064	0.321
-453.982	-200.000	-0.009	-0.050
-452.968	353.227	-0.048	0.094
-451.953	45.440	0.109	-0.100
-450.938	471.600	-0.042	0.094
-449.924	-122.271	-0.084	-0.014
-448.909	-200.000	-0.010	-0.322
-447.895	-99.451	0.125	0.031
-446.880	-28.626	0.076	0.043
-445.865	-200.000	-0.065	0.310
-444.851	800.000	0.086	-0.305
-443.836	77.912	0.234	-0.246
-442.822	-200.000	-0.023	-0.435
-441.807	127.897	0.173	-0.218
-440.792	472.217	-0.043	0.095
-439.778	51.854	0.159	-0.149
-438.763	255.563	0.124	0.209
-437.749	663.211	0.022	-0.056
-436.734	182.416	-0.097	-0.142
-435.719	-200.000	0.004	0.102
-434.705	102.961	-0.058	0.067
-433.690	205.165	-0.231	-0.355
-432.676	-63.130	0.032	0.013
-431.661	-118.785	-0.132	-0.023
-430.646	-65.414	0.168	0.067
-429.632	-16.268	-0.191	0.120
-428.617	187.088	-0.070	0.103
-427.603	-77.973	0.198	-0.067
-426.588	-7.964	0.173	0.115
-425.573	-194.877	-0.290	0.002
-424.559	400.326	0.030	0.062
-423.544	234.259	0.141	0.230
-422.530	-89.068	-0.209	-0.061
-421.515	-163.264	-0.214	-0.010
-420.500	195.812	-0.119	0.179
-419.486	800.000	0.065	-0.238
-418.471	186.580	0.070	0.103
-417.457	517.841	0.082	0.190
-416.442	108.552	0.231	-0.273
-415.428	284.543	0.074	-0.131
-414.413	-175.240	-0.291	-0.008
-413.398	-200.000	0.041	-0.323
-412.384	-137.384	0.065	0.007
-411.369	376.837	0.013	-0.027
-410.355	118.826	-0.098	0.120
-409.340	216.962	0.256	-0.402
-408.325	141.523	-0.049	-0.064
-407.311	511.651	0.052	-0.121
-406.296	800.000	0.068	-0.258
-405.282	-144.011	0.146	-0.014
-404.267	571.565	-0.074	0.178
-403.252	-157.010	0.330	0.020
-402.238	-200.000	0.028	0.262
-401.223	75.865	-0.250	0.261
-400.209	3.446	0.183	0.132
-399.194	90.371	-0.162	-0.178
-398.179	-87.080	-0.379	0.114
-397.165	-200.000	0.004	0.181
-396.150	47.449	0.274	0.252
-395.136	-115.067	-0.136	-0.026
-394.121	13.648	0.170	0.130
-393.106	133.230	0.107	-0.136
-392.092	59.133	-0.049	-0.048
-391.077	800.000	0.051	0.205
-390.063	309.883	0.037	-0.069
-389.048	-10.345	-0.229	0.150
-388.033	-1.229	0.222	-0.155
-387.019	-95.525	-0.327	-0.086
-386.004	800.000	-0.024	-0.079
-384.990	742.458	-0.059	-0.156
-383.975	38.113	-0.122	-0.107
-382.960	87.582	0.053	-0.058
-381.946	-58.320	-0.045	0.019
-380.931	-127.429	-0.132	0.019
-379.917	-99.877	0.179	-0.044
-378.902	-200.000	0.070	-0.326
-377.888	-57.888	-0.076	-0.033
-376.873	-29.040	0.315	0.178
-375.858	-65.255	-0.126	-0.050
-374.844	54.560	0.150	-0.143
-373.829	112.840	-0.219	0.262
-372.815	-138.496	-0.319	0.035
-371.800	800.000	0.054	0.163
-370.785	117.274	-0.187	-0.226
-369.771	-6.421	0.389	-0.262
-368.756	527.371	0.085	0.196
-367.742	730.022	0.034	-0.088
-366.727	64.419	0.068	-0.068
-365.712	633.065	-0.096	-0.239
-364.698	-50.440	-0.319	-0.149
-363.683	64.005	0.195	-0.194
-362.669	79.637	0.063	0.067
-361.654	-200.000	-0.000	-0.062
-360.639	16.955	-0.222	-0.173
-359.625	-123.569	0.141	0.022
-358.610	207.308	0.205	0.314
-357.596	-48.787	-0.293	-0.138
-356.581	-121.697	-0.212	0.035
-355.566	158.504	-0.108	0.147
-354.552	-200.000	0.003	-0.198
-353.537	800.000	0.077	0.220
-352.523	47.724	-0.140	0.128
-351.508	-121.132	-0.279	0.046
-350.493	-200.000	-0.006	-0.113
-349.479	77.415	-0.139	0.145
-348.464	-200.000	-0.055	0.285
-347.450	441.698	-0.098	0.212
-346.435	-16.443	0.679	-0.424
-345.420	800.000	0.054	-0.207
-344.406	800.000	-0.069	0.208
-343.391	-52.373	-0.234	-0.107
-342.377	41.235	0.129	0.115
-341.362	-25.930	-0.182	0.106
-340.348	333.936	0.073	0.139
-339.333	-4.579	-0.191	-0.130
-338.318	800.000	0.092	0.294
-337.304	-29.792	0.125	-0.070
-336.289	-14.278	-0.101	0.064
-335.275	-34.010	0.135	0.073
-334.260	800.000	-0.050	-0.184
-333.245	800.000	0.035	-0.095
-332.231	-41.970	0.098	0.050
-331.216	18.002	0.101	0.079
-330.202	-70.350	0.074	0.027
-329.187	-7.034	0.227	0.152
-328.172	97.205	-0.156	0.177
-327.158	-121.653	0.269	0.044
-326.143	42.789	0.075	0.067
-325.129	-17.438	-0.195	0.121
-324.114	-140.123	0.072	-0.007
-323.099	88.577	-0.149	0.163
-322.085	71.865	-0.200	0.204
-321.070	-86.757	-0.108	-0.033
-320.056	540.660	-0.067	0.158
-319.041	122.717	0.147	0.181
-318.026	104.514	-0.140	-0.162
-317.012	800.000	0.081	0.285
-315.997	278.696	-0.025	-0.045
-314.983	130.579	0.177	-0.223
-313.968	-29.009	-0.156	0.088
-312.953	10.632	-0.375	-0.281
-311.939	800.000	-0.066	0.270
-310.924	474.428	-0.093	-0.207
-309.910	2.202	-0.288	-0.205
-308.895	-6.433	-0.210	-0.141
-307.880	-76.094	0.398	0.138
-306.866	377.904	0.106	0.214
-305.851	59.717	0.102	0.099
-304.837	800.000	-0.090	0.250
-303.822	244.681	-0.035	-0.058
-302.807	64.947	0.049	0.049
-301.793	-47.156	-0.092	-0.044
-300.778	800.000	-0.046	0.126
-299.764	800.000	0.035	0.116
-298.749	-136.283	-0.293	0.034
-297.735	-200.000	-0.026	0.136
-296.720	-200.000	0.017	-0.195
-295.705	-41.966	0.234	-0.118
-294.691	28.399	-0.017	-0.014
-293.676	-61.384	0.006	0.003
-292.662	436.741	-0.058	0.124
-291.647	753.652	-0.051	-0.135
-290.632	-81.121	0.153	0.050
-289.618	170.507	0.188	0.265
-288.603	-200.000	-0.074	0.379
-287.589	266.095	-0.106	-0.181
-286.574	150.715	0.020	-0.026
-285.559	663.317	0.063	0.161
-284.545	-200.000	0.005	-0.107
-283.530	-111.485	-0.062	0.012
-282.516	-200.000	0.010	0.456
-281.501	-114.351	0.301	-0.057
-280.486	297.344	0.060	-0.107
-279.472	800.000	0.043	-0.141
-278.457	290.516	0.184	-0.328
-277.443	-89.955	0.210	-0.060
-276.428	-200.000	0.016	-0.122
-275.413	-200.000	-0.025	0.109
-274.399	-77.774	0.145	-0.049
-273.384	-5.057	0.366	-0.247
-272.370	-186.952	-0.266	-0.004
-271.355	123.623	0.176	0.217
-270.340	800.000	0.160	-0.468
-269.326	406.313	0.177	-0.366
-268.311	57.817	0.180	-0.173
-267.297	629.237	0.031	-0.077
-266.282	800.000	-0.047	-0.130
-265.267	-200.000	-0.019	0.167
-264.253	-72.592	-0.084	-0.030
-263.238	800.000	-0.040	0.123
-262.224	370.294	0.024	-0.048
-261.209	-200.000	0.053	-0.243
-260.195	495.670	-0.155	-0.351
-259.180	383.168	-0.060	-0.121
-258.165	241.510	0.215	0.353
-257.151	-200.000	0.029	-0.190
-256.136	-200.000	-0.009	-0.153
-255.122	-200.000	-0.024	-0.449
-254.107	-113.084	0.172	0.033
-253.092	-64.301	-0.184	-0.073
-252.078	800.000	0.079	0.242
-251.063	201.241	-0.091	0.137
-250.049	8.621	0.194	0.143
-249.034	-200.000	0.020	-0.131
-248.019	64.561	-0.058	0.057
-247.005	-69.514	0.124	-0.047
-245.990	-200.000	0.016	0.225
-244.976	-73.347	0.321	0.115
-243.961	-131.872	0.212	0.027
-242.946	-200.000	-0.028	0.457
-241.932	-36.227	-0.085	0.045
-240.917	-56.011	0.360	0.158
-239.903	-200.000	-0.024	0.129
-238.888	-99.412	0.134	0.033
-237.873	373.827	-0.041	0.081
-236.859	1.334	0.002	-0.001
-235.844	-9.069	0.238	0.156
-234.830	610.808	-0.016	0.039
-233.815	26.152	0.170	-0.139
-232.800	-114.052	-0.192	0.036
-231.786	-169.666	0.283	0.010
-230.771	-200.000	0.053	0.240
-229.757	-200.000	0.009	0.106
-228.742	499.599	0.076	-0.171
-227.727	17.128	0.074	0.058
-226.713	251.524	-0.045	0.075
-225.698	-200.000	-0.005	0.024
-224.684	-116.589	0.371	-0.067
-223.669	-200.000	-0.050	-0.437
-222.655	-60.316	0.169	0.071
-221.640	-59.796	-0.130	0.054
-220.625	-67.188	-0.272	-0.105
-219.611	-131.766	0.209	0.027
-218.596	-55.994	0.351	-0.153
-217.582	-112.753	-0.308	0.060
-216.567	-200.000	0.019	-0.204
-215.552	34.475	0.119	-0.102
-214.538	-130.647	-0.160	-0.021
-213.523	-109.253	-0.273	-0.057
-212.509	-64.066	0.058	0.023
-211.494	-37.426	0.130	0.068
-210.479	-18.445	0.259	0.158
-209.465	800.000	-0.087	0.305
-208.450	48.981	0.099	0.091
-207.436	-161.250	0.300	0.015
-206.421	-200.000	0.093	0.459
-205.406	800.000	-0.064	0.202
-204.392	32.030	0.324	-0.274
-203.377	-119.563	-0.152	-0.026
-202.363	-200.000	0.003	0.156
-201.348	-102.492	0.187	0.044
-200.333	-62.301	0.129	-0.053
-199.319	-200.000	0.011	-0.160
-198.304	-51.091	-0.211	0.097
-197.290	415.750	0.144	-0.302
-196.275	368.644	-0.078	0.154
-195.260	-121.788	0.179	-0.029
-194.246	-62.004	-0.168	0.069
-193.231	192.190	0.082	0.121
-192.217	235.760	-0.196	-0.316
-191.202	-49.913	0.099	-0.046
-190.187	-68.667	0.052	-0.020
-189.173	69.702	-0.211	-0.213
-188.158	-25.072	-0.356	-0.206
-187.144	-200.000	-0.075	-0.432
-186.129	469.776	0.054	-0.119
-185.114	-19.927	0.457	0.276
-184.100	-200.000	0.029	0.231
-183.085	-75.849	-0.437	0.152
-182.071	800.000	-0.069	0.279
-181.056	288.660	0.085	0.150
-180.042	-200.000	0.025	0.153
-179.027	-200.000	0.002	0.280
-178.012	215.227	-0.143	0.221
-176.998	-200.000	0.009	0.047
-175.983	119.514	0.106	-0.128
-174.969	-65.398	0.422	0.166
-173.954	-200.000	-0.045	0.233
-172.939	-200.000	-0.015	0.255
-171.925	132.616	-0.087	0.110
-170.910	72.094	0.019	-0.019
-169.896	-143.021	0.408	0.039
-168.881	335.492	-0.080	-0.151
-167.866	-184.131	-0.238	-0.004
-166.852	52.324	0.098	0.092
-165.837	175.628	0.169	0.240
-164.823	-47.972	0.144	-0.068
-163.808	553.796	0.138	-0.326
-162.793	-169.214	0.079	-0.003
-161.779	-18.292	-0.156	-0.095
-160.764	800.000	0.065	0.245
-159.750	-200.000	0.006	-0.099
-158.735	-200.000	0.084	-0.437
-157.720	-40.456	0.148	0.075
-156.706	-200.000	0.003	0.261
-155.691	26.668	0.183	-0.149
-154.677	-80.472	-0.067	0.022
-153.662	90.018	0.052	0.057
-152.647	800.000	0.019	-0.058
-151.633	161.467	0.118	0.161
-150.618	-93.241	0.221	-0.060
-149.604	530.851	-0.021	0.049
-148.589	800.000	-0.013	0.048
-147.574	-128.714	0.316	-0.044
-146.560	800.000	0.131	-0.411
-145.545	800.000	0.070	0.194
-144.531	-105.779	0.242	0.053
-143.516	315.342	-0.083	-0.153
-142.502	-128.524	0.199	-0.028
-141.487	-200.000	0.260	0.001
-140.472	-105.037	0.298	0.067
-139.458	5.631	0.321	0.232
-138.443	-105.369	0.137	0.031
-137.429	-122.521	-0.420	-0.067
-136.414	-138.580	0.467	0.050
-135.399	-200.000	-0.006	-0.147
-134.385	-91.979	-0.311	0.086
-133.370	800.000	-0.043	-0.168
-132.356	-145.091	0.262	0.023
-131.341	-86.129	0.223	-0.067
-130.326	-6.000	-0.181	0.121
-129.312	157.461	-0.132	-0.178
-128.297	-80.957	-0.045	0.015
-127.283	227.184	0.107	0.169
-126.268	-7.850	0.184	-0.121
-125.253	-143.181	0.191	0.018
-124.239	66.529	-0.073	-0.073
-123.224	-81.726	0.070	0.022
-122.210	-58.404	-0.038	-0.016
-121.195	691.600	0.014	-0.035
-120.180	37.831	0.142	-0.123
-119.166	-200.000	-0.010	-0.204
-118.151	800.000	0.032	-0.114
-117.137	-15.886	-0.111	0.069
-116.122	-200.000	0.014	-0.418
-115.107	49.743	0.234	0.215
-114.093	3.004	0.257	0.182
-113.078	-200.000	-0.012	-0.137
-112.064	38.336	0.126	-0.109
-111.049	-24.455	0.147	0.086
-110.034	-9.403	-0.071	-0.047
-109.020	15.131	0.468	0.358
-108.005	-200.000	-0.010	-0.367
-106.991	43.278	0.198	-0.176
-105.976	137.863	0.148	0.189
-104.962	-200.000	-0.031	-0.193
-103.947	-148.320	0.249	0.020
-102.932	4.636	0.192	0.137
-101.918	-98.883	-0.091	0.023
-100.903	-145.070	-0.181	-0.016
-99.889	210.565	0.130	0.199
-98.874	101.230	0.180	0.205
-97.859	-89.179	0.282	-0.081
-96.845	800.000	0.047	-0.148
-95.830	-114.408	0.271	-0.051
-94.816	-129.735	0.114	0.015
-93.801	-129.937	-0.291	-0.039
-92.786	215.918	-0.105	-0.162
-91.772	-166.918	0.228	-0.009
-90.757	11.195	0.295	-0.220
-89.743	87.362	0.240	-0.259
-88.728	16.374	0.116	-0.089
-87.713	139.069	-0.039	-0.050
-86.699	9.328	0.278	-0.205
-85.684	800.000	-0.055	-0.154
-84.670	378.700	0.022	0.043
-83.655	53.996	0.304	-0.285
-82.640	-115.577	-0.345	-0.063
-81.626	-21.241	-0.031	0.018
-80.611	-25.147	0.243	0.140
-79.597	35.930	-0.199	0.171
-78.582	82.237	0.304	0.321
-77.567	91.557	0.178	-0.195
-76.553	117.089	-0.274	-0.328
-75.538	432.673	-0.013	0.027
-74.524	236.452	0.100	-0.161
-73.509	272.690	-0.159	0.273
-72.494	-200.000	-0.009	-0.060
-71.480	-89.681	-0.096	-0.028
-70.465	324.690	-0.124	-0.230
-69.451	80.790	0.098	-0.103
-68.436	800.000	-0.072	-0.273
-67.422	351.388	-0.065	0.125
-66.407	-200.000	-0.035	-0.313
-65.392	-3.723	-0.080	-0.054
-64.378	-104.971	0.322	-0.072
-63.363	390.520	0.076	0.154
-62.349	-200.000	0.004	0.315
-61.334	57.684	-1.119	-1.065
-60.319	274.146	0.397	0.683
-59.305	-200.000	-0.321	-1.498
-58.290	137.714	0.863	1.100
-57.276	385.729	0.822	1.652
-56.261	-200.000	120.195	630.774
-55.246	425.111	1532.189	3211.690
-54.232	149.823	2678.115	3534.792
-53.217	98.366	2149.873	2411.910
-52.203	35.060	1678.088	1430.868
-51.188	28.013	1496.351	1228.688
-50.173	25.967	1473.387	1196.226
-49.159	48.306	1542.829	1405.606
-48.144	46.131	1555.903	1402.631
-47.130	27.940	1505.711	1235.683
-46.115	25.060	1490.246	1203.630
-45.100	24.892	1486.662	1199.561
-44.086	24.969	1484.729	1198.471
-43.071	24.916	1482.578	1196.333
-42.057	24.879	1481.187	1194.914
-41.042	24.884	1479.837	1193.812
-40.027	24.924	1477.864	1192.441
-39.013	24.859	1476.993	1191.259
-37.998	24.842	1475.676	1190.036
-36.984	24.818	1474.371	1188.774
-35.969	24.862	1472.812	1187.765
-34.954	24.805	1471.576	1186.338
-33.940	24.824	1470.294	1185.386
-32.925	24.868	1468.851	1184.463
-31.911	24.951	1467.843	1184.159
-30.896	24.920	1466.345	1182.695
-29.881	24.944	1464.941	1181.675
-28.867	24.957	1463.632	1180.656
-27.852	24.887	1462.775	1179.458
-26.838	24.956	1460.994	1178.431
-25.823	24.867	1459.711	1176.764
-24.809	24.909	1458.172	1175.748
-23.794	24.933	1456.747	1174.715
-22.779	24.868	1455.492	1173.225
-21.765	24.873	1454.752	1172.617
-20.750	24.937	1453.009	1171.587
-19.736	24.882	1452.549	1170.806
-18.721	24.890	1451.389	1169.879
-17.706	24.959	1450.232	1169.348
-16.692	24.911	1449.037	1168.026
-15.677	24.872	1448.152	1167.010
-14.663	24.884	1447.049	1166.153
-13.648	24.808	1446.606	1165.257
-12.633	24.838	1445.816	1164.771
-11.619	24.903	1445.111	1164.577
-10.604	24.913	1443.306	1163.142
-9.590	24.891	1442.729	1162.489
-8.575	24.810	1442.747	1161.930
-7.560	24.846	1441.571	1161.174
-6.546	24.813	1440.874	1160.348
-5.531	24.886	1439.118	1159.366
-4.517	24.781	1438.758	1158.350
-3.502	24.770	1437.791	1157.454
-2.487	24.878	1436.761	1157.273
-1.473	24.921	1435.601	1156.570
-0.458	24.924	1434.567	1155.712
0.556	23.781	1424.533	1143.025
1.571	20.392	1399.866	1101.672
2.586	16.621	1338.312	1030.220
3.600	14.907	1256.182	957.111
4.615	14.040	1212.962	919.305
5.629	12.384	1158.157	868.938
6.644	6.592	1077.885	780.063
7.659	1.626	1042.019	730.247
8.673	1.004	1036.459	723.319
9.688	0.810	1033.089	719.979
10.702	0.740	1032.190	718.955
11.717	0.717	1030.578	717.659
12.731	2.733	1031.225	727.620
13.746	9.113	1039.641	763.928
14.761	15.161	1047.572	798.598
15.775	17.400	1048.951	810.258
16.790	17.070	1047.794	807.719
17.804	16.074	1045.671	801.279
18.819	15.243	1043.805	795.834
19.834	14.743	1042.566	792.449
20.848	14.502	1041.747	790.616
21.863	14.299	1040.985	789.006
22.877	13.903	1040.527	786.712
23.892	13.856	1039.204	785.420
24.907	13.695	1038.413	783.990
25.921	13.738	1037.934	783.764
26.936	13.819	1037.149	783.486
27.950	13.776	1036.739	782.899
28.965	13.945	1035.719	782.861
29.980	13.919	1034.676	781.877
30.994	13.959	1034.107	781.569
32.009	13.926	1033.430	780.831
33.023	13.997	1032.213	780.178
34.038	13.960	1031.670	779.524
35.053	13.891	1031.052	778.666
36.067	13.910	1030.030	777.911
37.082	13.890	1029.121	777.062
38.096	13.807	1028.946	776.471
39.111	13.967	1027.534	776.089
40.126	14.022	1026.634	775.593
41.140	13.856	1025.925	774.218
42.155	13.849	1024.770	773.246
43.169	13.693	1024.195	772.014
44.184	13.783	1022.868	771.364
45.199	13.788	1021.889	770.582
46.213	13.762	1020.920	769.661
47.228	13.769	1020.085	769.000
48.242	13.868	1018.839	768.447
49.257	13.866	1017.719	767.526
50.271	13.747	1016.922	766.309
51.286	13.836	1015.820	765.820
52.301	13.909	1015.235	765.650
53.315	13.853	1014.708	764.924
54.330	13.884	1013.360	763.985
55.344	13.783	1012.848	763.065
56.359	13.798	1011.707	762.208
57.374	13.813	1010.956	761.645
58.388	13.820	1010.105	760.968
59.403	13.694	1009.536	759.895
60.417	13.749	1008.801	759.526
61.432	13.840	1007.905	759.198
62.447	13.803	1007.199	758.430
63.461	13.764	1006.272	757.486
64.476	13.681	1005.738	756.641
65.490	13.655	1004.802	755.750
66.505	13.783	1003.666	755.411
67.520	13.821	1002.777	754.849
68.534	13.798	1002.464	754.444
69.549	13.745	1001.195	753.178
70.563	13.689	1001.271	752.915
71.578	13.747	999.886	752.070
72.593	13.773	999.820	752.070
73.607	13.691	998.207	750.423
74.622	13.803	997.222	750.123
75.636	13.679	996.884	749.239
76.651	13.649	996.070	748.427
77.666	13.810	994.604	747.987
78.680	13.702	994.468	747.327
79.695	13.699	993.955	746.863
80.709	13.608	993.484	746.033
81.724	13.771	992.065	745.636
82.739	13.780	991.556	745.227
83.753	13.854	991.088	745.143
84.768	13.863	989.963	744.273
85.782	13.862	989.543	743.883
86.797	13.896	988.751	743.376
87.812	13.892	988.168	742.854
88.826	13.912	986.926	741.942
89.841	13.973	985.767	741.279
90.855	13.844	985.311	740.293
91.870	13.832	984.866	739.840
92.884	13.997	984.240	740.040
93.899	14.014	983.590	739.563
94.914	13.997	982.485	738.593
95.928	14.050	981.887	738.310
96.943	14.134	980.927	737.894
97.957	13.966	980.291	736.608
98.972	14.018	979.698	736.327
99.987	13.989	978.829	735.481
101.001	13.937	978.276	734.768
102.016	13.968	977.140	733.988
103.030	14.071	975.992	733.518
104.045	13.943	975.310	732.375
105.060	13.869	974.819	731.614
106.074	13.915	973.645	730.870
107.089	13.880	972.769	729.995
108.103	13.949	971.634	729.380
109.118	13.776	970.785	727.923
110.133	13.734	970.507	727.463
111.147	13.964	969.285	727.491
112.162	13.920	968.322	726.513
113.176	13.922	967.494	725.834
114.191	13.930	967.100	725.511
115.206	13.839	965.854	724.116
116.220	13.936	965.143	723.940
117.235	13.894	964.533	723.236
118.249	13.987	963.718	722.963
119.264	13.956	962.746	722.038
120.279	14.041	961.732	721.584
121.293	13.958	961.490	720.977
122.308	14.000	960.265	720.176
123.322	13.812	960.017	719.112
124.337	13.758	958.440	717.632
125.352	13.885	957.178	717.174
126.366	13.855	956.521	716.489
127.381	13.890	955.385	715.725
128.395	13.818	954.414	714.624
129.410	13.856	953.453	714.002
130.424	13.781	952.841	713.160
131.439	13.943	951.389	712.706
132.454	14.013	950.477	712.260
133.468	13.937	950.069	711.563
134.483	13.849	949.501	710.701
135.497	13.923	948.594	710.276
136.512	14.052	947.804	710.173
137.527	13.987	946.979	709.212
138.541	13.938	946.236	708.387
139.556	13.868	945.867	707.750
140.570	13.936	944.799	707.177
141.585	14.020	944.369	707.148
142.600	13.961	943.602	706.259
143.614	14.051	942.612	705.838
144.629	14.053	942.205	705.481
145.643	14.084	941.162	704.769
146.658	14.052	940.314	703.937
147.673	14.073	939.735	703.527
148.687	14.037	938.770	702.590
149.702	14.014	937.871	701.762
150.716	14.061	937.023	701.263
151.731	14.027	936.432	700.613
152.746	14.061	935.922	700.314
153.760	14.038	934.929	699.412
154.775	14.165	934.001	699.190
155.789	14.126	933.478	698.574
156.804	14.210	932.929	698.452
157.819	14.165	932.042	697.537
158.833	14.206	931.717	697.405
159.848	14.162	930.670	696.374
160.862	14.318	929.803	696.319
161.877	14.186	929.096	695.175
162.892	14.235	928.399	694.795
163.906	14.213	927.582	694.032
164.921	14.045	927.128	692.930
165.935	14.237	925.451	692.416
166.950	14.138	924.425	691.174
167.964	14.249	923.753	691.070
168.979	14.171	922.968	690.101
169.994	14.265	922.127	689.801
171.008	14.245	921.291	689.030
172.023	14.374	920.341	688.793
173.037	14.391	919.824	688.414
174.052	14.226	919.514	687.439
175.067	14.434	918.147	687.214
176.081	14.281	917.395	685.960
177.096	14.262	916.435	685.104
178.110	14.163	916.157	684.430
179.125	14.132	915.639	683.853
180.140	14.315	914.303	683.549
181.154	14.373	913.495	683.119
182.169	14.404	912.964	682.788
183.183	14.387	912.502	682.316
184.198	14.479	911.636	681.982
185.213	14.440	911.011	681.294
186.227	14.396	910.611	680.754
187.242	14.378	909.962	680.138
188.256	14.598	909.336	680.506
189.271	14.532	908.493	679.545
190.286	14.584	907.814	679.189
191.300	14.411	907.121	677.908
192.315	14.348	905.947	676.712
193.329	14.296	906.078	676.541
194.344	14.266	905.475	675.908
195.359	14.406	904.734	675.862
196.373	14.532	903.934	675.717
197.388	14.594	903.371	675.486
198.402	14.456	903.195	674.736
199.417	14.488	902.767	674.486
200.432	14.644	901.813	674.345
201.446	14.765	901.563	674.587
202.461	14.665	901.303	673.931
203.475	14.745	900.783	673.803
204.490	14.760	900.129	673.316
205.504	14.805	899.112	672.677
206.519	14.715	898.675	671.928
207.534	14.726	897.797	671.255
208.548	14.745	896.624	670.398
209.563	14.777	896.099	670.071
210.577	14.645	895.924	669.354
211.592	14.810	895.002	669.265
212.607	14.980	894.308	669.369
213.621	15.004	893.770	669.001
214.636	14.804	892.984	667.555
215.650	14.960	892.199	667.530
216.665	14.899	892.124	667.173
217.680	14.910	891.435	666.645
218.694	14.946	890.791	666.246
219.709	15.017	890.473	666.230
220.723	15.089	889.401	665.659
221.738	14.947	888.963	664.705
222.753	15.009	887.795	664.019
223.767	15.046	887.128	663.607
224.782	15.005	887.244	663.475
225.796	15.078	886.122	662.865
226.811	14.987	885.694	662.128
227.826	15.132	884.608	661.828
228.840	15.049	884.181	661.124
229.855	14.964	883.481	660.206
230.869	15.037	882.563	659.750
231.884	15.050	882.393	659.614
232.899	15.000	881.532	658.718
233.913	15.005	880.949	658.241
234.928	15.042	880.326	657.866
235.942	15.137	879.475	657.542
236.957	15.060	878.640	656.557
237.972	15.107	878.122	656.296
238.986	15.057	877.535	655.606
240.001	15.200	876.674	655.464
241.015	15.218	876.204	655.126
242.030	15.110	875.373	654.024
243.045	15.308	874.576	654.141
244.059	15.212	874.515	653.664
245.074	15.243	873.746	653.151
246.088	15.165	873.258	652.427
247.103	15.296	872.610	652.394
248.117	15.292	871.836	651.741
249.132	15.268	871.648	651.450
250.147	15.399	870.896	651.339
251.161	15.432	870.050	650.777
252.176	15.434	869.362	650.213
253.190	15.495	868.714	649.905
254.205	15.540	868.596	649.935
255.220	15.429	867.644	648.737
256.234	15.528	867.046	648.614
257.249	15.539	866.574	648.244
258.263	15.431	866.260	647.536
259.278	15.635	865.439	647.653
260.293	15.639	864.913	647.215
261.307	15.707	864.288	646.954
262.322	15.712	863.707	646.480
263.336	15.532	863.340	645.458
264.351	15.824	862.279	645.727
265.366	15.822	861.562	645.123
266.380	15.726	861.009	644.284
267.395	15.712	860.876	644.076
268.409	15.756	860.031	643.553
269.424	15.777	859.002	642.808
270.439	15.842	858.881	642.911
271.453	15.765	857.840	641.779
272.468	15.872	857.026	641.523
273.482	15.721	856.421	640.438
274.497	15.816	855.834	640.303
275.512	15.824	855.014	639.662
276.526	15.851	854.332	639.198
277.541	15.865	853.883	638.859
278.555	15.919	853.119	638.437
279.570	15.738	852.755	637.422
280.585	15.869	852.359	637.565
281.599	15.983	851.737	637.474
282.614	15.991	851.017	636.908
283.628	16.055	850.238	636.510
284.643	16.128	849.800	636.403
285.657	15.883	849.663	635.320
286.672	15.914	849.267	635.084
287.687	16.050	848.295	634.815
288.701	16.105	847.792	634.587
289.716	16.023	847.395	633.928
290.730	16.079	846.725	633.581
291.745	16.022	846.491	633.134
292.760	16.177	845.377	632.825
293.774	16.264	844.841	632.696
294.789	16.195	844.363	632.025
295.803	16.199	843.410	631.268
296.818	16.182	843.369	631.120
297.833	16.272	842.276	630.580
298.847	16.093	841.977	629.631
299.862	16.295	840.933	629.549
300.876	16.229	840.216	628.711
301.891	16.316	839.516	628.457
302.906	16.333	839.140	628.182
303.920	16.379	838.755	628.009
304.935	16.308	837.547	626.787
305.949	16.528	837.033	627.162
306.964	16.454	836.639	626.538
307.979	16.450	836.116	626.073
308.993	16.321	835.344	624.962
310.008	16.380	835.022	624.887
311.022	16.449	834.435	624.645
312.037	16.518	833.998	624.518
313.052	16.399	833.598	623.723
314.066	16.427	832.962	623.297
315.081	16.458	832.261	622.833
316.095	16.259	832.183	621.984
317.110	16.497	831.005	621.926
318.125	16.495	830.802	621.712
319.139	16.480	830.461	621.343
320.154	16.518	829.742	620.891
321.168	16.410	829.413	620.194
322.183	16.611	828.474	620.175
323.197	16.603	828.263	619.933
324.212	16.578	827.636	619.318
325.227	16.633	827.010	618.994
326.241	16.625	826.576	618.586
327.256	16.668	826.016	618.270
328.270	16.636	825.631	617.809
329.285	16.617	825.036	617.239
330.300	16.585	824.477	616.652
331.314	16.640	823.897	616.362
332.329	16.773	823.165	616.243
333.343	16.711	822.577	615.523
334.358	16.616	822.378	614.975
335.373	16.600	821.517	614.218
336.387	16.853	821.085	614.761
337.402	16.785	820.357	613.914
338.416	16.838	819.826	613.655
339.431	16.772	819.433	613.065
340.446	16.762	818.700	612.426
341.460	16.841	818.324	612.377
342.475	16.912	817.963	612.310
343.489	17.002	817.347	612.119
344.504	16.899	816.796	611.280
345.519	16.957	816.211	610.999
346.533	17.120	815.591	611.067
347.548	17.112	815.134	610.640
348.562	17.125	814.559	610.204
349.577	17.003	814.286	609.506
350.592	16.891	813.609	608.542
351.606	17.063	813.229	608.822
352.621	17.158	812.291	608.405
353.635	16.963	812.171	607.563
354.650	17.173	811.635	607.862
355.665	16.936	811.634	606.957
356.679	17.105	811.085	607.101
357.694	17.063	810.374	606.362
358.708	17.226	809.885	606.525
359.723	17.117	809.253	605.609
360.738	17.116	808.884	605.277
361.752	17.193	808.571	605.262
362.767	17.140	807.974	604.575
363.781	17.204	807.447	604.352
364.796	17.336	806.787	604.276
365.810	17.302	806.602	603.963
366.825	17.368	806.188	603.833
367.840	17.422	805.645	603.566
368.854	17.342	805.806	603.349
369.869	17.483	804.794	603.036
370.883	17.344	804.581	602.332
371.898	17.328	804.341	602.042
372.913	17.434	803.389	601.651
373.927	17.454	802.693	601.145
374.942	17.509	801.829	600.642
375.956	17.417	801.621	600.105
376.971	17.585	800.871	600.085
377.986	17.568	800.541	599.726
379.000	17.544	799.916	599.117
380.015	17.442	799.817	598.633
381.029	17.539	799.038	598.336
382.044	17.561	798.425	597.903
383.059	17.644	797.957	597.790
384.073	17.625	796.813	596.814
385.088	17.632	796.655	596.669
386.102	17.667	796.515	596.633
387.117	17.660	796.041	596.199
388.132	17.630	795.589	595.704
389.146	17.599	795.256	595.295
390.161	17.646	794.888	595.129
391.175	17.646	794.256	594.605
392.190	17.743	793.853	594.585
393.205	17.769	793.415	594.296
394.219	17.812	793.104	594.160
395.234	17.738	792.707	593.553
396.248	17.630	792.559	593.014
397.263	17.764	791.442	592.593
398.278	17.662	791.132	591.953
399.292	17.716	790.596	591.686
400.307	17.667	790.483	591.380
401.321	17.670	790.134	591.076
402.336	17.678	789.691	590.723
403.350	17.772	789.068	590.530
404.365	17.956	788.386	590.601
405.380	17.775	788.365	589.909
406.394	17.855	787.939	589.815
407.409	18.075	786.973	589.798
408.423	17.915	787.107	589.293
409.438	18.067	785.998	588.936
410.453	18.071	785.954	588.865
411.467	18.120	785.566	588.691
412.482	18.106	785.196	588.312
413.496	18.047	784.494	587.533
414.511	18.208	784.307	587.891
415.526	18.116	783.958	587.265
416.540	18.171	783.824	587.299
417.555	18.170	783.240	586.805
418.569	18.068	782.966	586.199
419.584	18.254	781.995	586.058
420.599	18.102	781.964	585.463
421.613	115.749	1295.524	1487.662
422.628	99.409	1370.296	1487.752
