DTS Sentinel unit serial number:	SN413079Multiplexer serial number:	ORYXHardware model number:	OX4-SRSoftware version number:	ORYX F/W v4.00 Oryx Data Collector v3.7.2.0data status	okinstallation	princeton_trtdifferential loss correction	single-endedforward channel	channel 3reverse channel	N/Adate	2019/09/17time	18:04:35forward acquisition time	60.00reverse acquisition time	0.00gamma	496.2192k internal	0.2289k external	0.2289temperature offset calibration	0.9946default loss term (dB/km)	0.3790temperature slope calibration	1.0000multiplexer offset coefficient	1.0000multiplexer slope coefficient	1.0000fibre end	0.00T internal ref (°C)	43.50T ext. ref 1 (°C)	0.32T ext. ref 2 (°C)	38.25length (m)	temperature (°C)	Stokes	anti-Stokes-747.200	-173.787	-0.044	-0.001
-746.185	-79.285	-0.233	-0.081
-745.171	226.735	0.036	0.060
-744.156	773.445	0.108	-0.303
-743.142	9.760	0.348	0.271
-742.127	-19.415	-0.242	0.154
-741.112	800.000	0.015	0.053
-740.098	10.921	0.117	0.092
-739.083	-66.516	-0.156	-0.063
-738.069	64.897	-0.194	0.201
-737.054	-200.000	-0.001	0.100
-736.039	85.758	-0.088	0.099
-735.025	-200.000	0.020	0.430
-734.010	-144.321	-0.194	0.019
-732.996	-200.000	0.002	0.130
-731.981	-200.000	-0.014	-0.105
-730.966	354.888	-0.094	0.192
-729.952	800.000	-0.056	0.197
-728.937	800.000	-0.016	0.055
-727.923	-120.126	0.279	-0.049
-726.908	-149.697	0.140	0.011
-725.894	116.261	-0.234	-0.293
-724.879	-56.503	-0.210	-0.096
-723.864	61.071	0.169	-0.172
-722.850	-70.609	0.198	-0.077
-721.835	1.565	-0.180	-0.133
-720.821	-200.000	-0.005	-0.250
-719.806	800.000	0.007	-0.025
-718.791	215.587	-0.094	0.154
-717.777	-49.078	0.124	-0.061
-716.762	-87.238	-0.152	0.047
-715.748	-200.000	-0.027	-0.272
-714.733	800.000	-0.068	-0.240
-713.718	-19.156	-0.292	0.185
-712.704	-200.000	-0.000	-0.104
-711.689	-170.974	-0.207	0.007
-710.675	381.989	-0.167	0.350
-709.660	-80.105	-0.188	-0.064
-708.645	-52.391	-0.053	-0.025
-707.631	-81.139	-0.188	-0.064
-706.616	-200.000	0.069	-0.316
-705.602	-200.000	-0.007	-0.268
-704.587	568.889	0.161	-0.400
-703.572	800.000	0.080	-0.259
-702.558	286.022	0.051	-0.095
-701.543	-146.776	-0.172	-0.015
-700.529	406.324	0.135	0.292
-699.514	-63.153	-0.299	0.126
-698.499	192.019	-0.109	-0.168
-697.485	9.128	0.158	0.122
-696.470	-200.000	-0.017	0.117
-695.456	-200.000	-0.011	-0.154
-694.441	-137.140	-0.198	-0.023
-693.426	-74.154	0.107	0.040
-692.412	800.000	-0.041	-0.172
-691.397	243.674	0.110	0.189
-690.383	196.768	0.206	-0.321
-689.368	-91.695	-0.172	-0.050
-688.354	798.347	0.040	0.113
-687.339	-57.473	0.085	0.038
-686.324	-200.000	0.002	-0.565
-685.310	800.000	0.099	-0.309
-684.295	-193.148	-0.246	0.002
-683.281	30.246	-0.081	-0.071
-682.266	141.780	-0.214	0.290
-681.251	85.182	-0.063	-0.070
-680.237	-200.000	-0.007	-0.222
-679.222	739.573	-0.105	0.287
-678.208	88.747	0.135	-0.154
-677.193	156.786	-0.099	-0.141
-676.178	499.585	-0.073	-0.172
-675.164	-34.532	-0.387	-0.217
-674.149	570.719	0.134	-0.334
-673.135	-200.000	0.005	-0.155
-672.120	-71.710	-0.269	-0.103
-671.105	-30.585	0.052	-0.030
-670.091	-121.861	-0.244	-0.041
-669.076	-200.000	-0.020	-0.232
-668.062	15.590	0.147	-0.118
-667.047	40.418	-0.212	-0.195
-666.032	-200.000	0.019	-0.330
-665.018	-27.135	0.264	0.157
-664.003	68.154	0.306	0.320
-662.989	19.066	0.118	-0.097
-661.974	-33.687	-0.276	0.155
-660.959	-106.973	0.042	0.009
-659.945	-50.070	-0.059	0.029
-658.930	-84.807	0.059	-0.019
-657.916	151.610	-0.247	-0.344
-656.901	-88.556	-0.140	-0.043
-655.886	238.876	0.097	0.165
-654.872	-200.000	0.071	0.326
-653.857	-42.886	0.250	0.130
-652.843	-200.000	0.019	-0.115
-651.828	139.576	-0.166	0.224
-650.814	-77.651	-0.271	0.096
-649.799	191.764	0.083	0.128
-648.784	-27.265	-0.166	0.099
-647.770	800.000	0.071	-0.246
-646.755	-104.499	-0.037	-0.009
-645.741	518.837	-0.064	-0.153
-644.726	378.391	0.031	-0.065
-643.711	-43.205	-0.431	-0.223
-642.697	125.510	0.190	-0.245
-641.682	7.522	0.124	0.094
-640.668	-119.962	-0.152	0.027
-639.653	-111.425	0.305	0.063
-638.638	-121.329	-0.240	-0.041
-637.624	800.000	-0.067	-0.191
-636.609	100.203	0.102	-0.120
-635.595	-157.134	-0.201	-0.012
-634.580	556.878	-0.049	-0.121
-633.565	-98.721	-0.234	-0.061
-632.551	-58.160	-0.107	0.048
-631.536	-121.420	-0.360	0.061
-630.522	136.713	-0.064	0.086
-629.507	-200.000	-0.015	0.082
-628.492	209.963	0.099	-0.159
-627.478	-200.000	0.012	-0.190
-626.463	108.934	0.130	-0.158
-625.449	138.233	0.209	0.280
-624.434	75.295	-0.153	-0.165
-623.419	-184.316	-0.354	0.006
-622.405	19.216	-0.051	-0.042
-621.390	-200.000	-0.030	-0.142
-620.376	-129.522	-0.241	0.034
-619.361	-111.806	-0.236	-0.049
-618.346	-76.012	0.156	0.056
-617.332	175.179	-0.122	-0.181
-616.317	-190.353	-0.096	-0.001
-615.303	-200.000	-0.015	0.270
-614.288	734.362	0.064	0.174
-613.273	-200.000	-0.006	-0.237
-612.259	800.000	0.014	0.058
-611.244	-200.000	-0.034	-0.203
-610.230	-96.955	0.180	0.048
-609.215	-200.000	0.080	0.363
-608.201	267.877	0.197	0.351
-607.186	22.638	0.253	0.211
-606.171	800.000	-0.017	0.056
-605.157	-200.000	0.003	0.244
-604.142	-90.814	-0.179	0.053
-603.128	136.107	-0.094	-0.125
-602.113	-200.000	0.043	0.256
-601.098	468.671	-0.141	0.323
-600.084	-95.505	-0.140	0.038
-599.069	-85.938	0.211	0.067
-598.055	124.664	-0.108	-0.139
-597.040	-114.488	-0.409	0.080
-596.025	70.698	0.174	-0.184
-595.011	-49.847	-0.173	0.084
-593.996	149.549	0.154	-0.212
-592.982	-2.973	0.048	0.034
-591.967	-43.412	-0.114	-0.058
-590.952	-191.695	-0.382	-0.004
-589.938	372.369	0.008	-0.016
-588.923	-72.188	-0.113	-0.043
-587.909	-87.052	-0.173	-0.054
-586.894	-118.789	-0.175	-0.031
-585.879	-60.371	0.030	0.013
-584.865	334.652	-0.112	0.220
-583.850	70.888	-0.192	0.203
-582.836	-200.000	0.018	-0.241
-581.821	60.209	-0.127	0.128
-580.806	18.163	-0.242	0.196
-579.792	679.555	-0.110	0.292
-578.777	197.759	-0.057	0.089
-577.763	39.208	-0.355	0.323
-576.748	-65.048	0.259	-0.107
-575.733	-83.979	-0.119	-0.039
-574.719	-149.107	-0.261	-0.021
-573.704	79.884	0.151	0.165
-572.690	24.473	0.129	-0.108
-571.675	-200.000	-0.008	-0.036
-570.661	77.801	-0.127	0.137
-569.646	8.651	-0.182	-0.140
-568.631	800.000	-0.051	0.147
-567.617	-166.762	0.096	-0.004
-566.602	-66.702	0.072	-0.029
-565.588	-200.000	-0.050	-0.253
-564.573	-13.088	0.197	0.130
-563.558	-200.000	0.036	-0.366
-562.544	-200.000	-0.062	-0.310
-561.529	-200.000	-0.017	-0.167
-560.515	-200.000	-0.031	-0.183
-559.500	-71.213	-0.094	0.036
-558.485	41.324	-0.094	-0.087
-557.471	-51.532	0.207	0.098
-556.456	-151.847	0.149	0.011
-555.442	-69.788	-0.086	-0.033
-554.427	235.146	0.079	-0.133
-553.412	68.402	-0.232	-0.242
-552.398	-22.088	-0.138	-0.085
-551.383	4.544	-0.116	-0.087
-550.369	-65.506	0.086	-0.035
-549.354	306.600	-0.125	0.236
-548.339	304.101	-0.049	-0.093
-547.325	-200.000	0.003	-0.114
-546.310	-200.000	0.008	-0.072
-545.296	-200.000	0.013	0.109
-544.281	-200.000	-0.013	0.200
-543.266	-50.898	-0.054	-0.026
-542.252	-126.548	0.216	-0.033
-541.237	12.880	0.187	0.147
-540.223	259.578	0.078	-0.136
-539.208	-86.385	0.174	0.054
-538.193	675.053	0.119	-0.314
-537.179	-4.480	0.088	-0.062
-536.164	177.492	-0.193	-0.286
-535.150	-107.253	-0.236	-0.053
-534.135	308.890	0.115	-0.218
-533.121	-32.172	-0.167	-0.095
-532.106	-96.268	0.176	-0.047
-531.091	718.248	0.032	-0.086
-530.077	122.815	-0.160	0.204
-529.062	800.000	-0.044	0.182
-528.048	549.076	-0.051	-0.123
-527.033	-152.380	-0.255	0.019
-526.018	142.836	-0.085	-0.114
-525.004	490.050	-0.132	-0.306
-523.989	-200.000	0.071	-0.525
-522.975	119.346	0.184	0.231
-521.960	291.737	-0.166	-0.307
-520.945	-113.816	-0.213	-0.042
-519.931	218.228	0.175	0.284
-518.916	-97.207	-0.240	0.064
-517.902	241.422	0.067	-0.114
-516.887	275.743	0.082	0.148
-515.872	-172.504	0.019	0.001
-514.858	-154.972	-0.309	-0.021
-513.843	-200.000	-0.024	-0.537
-512.829	352.082	-0.034	-0.068
-511.814	302.950	0.132	-0.248
-510.799	-200.000	-0.001	0.012
-509.785	3.758	-0.187	0.139
-508.770	-34.352	-0.212	-0.118
-507.756	-200.000	-0.002	0.115
-506.741	121.325	0.220	0.278
-505.726	800.000	0.039	0.147
-504.712	64.322	-0.056	-0.057
-503.697	-91.472	-0.227	-0.066
-502.683	-26.671	0.160	-0.095
-501.668	-200.000	0.072	-0.399
-500.653	22.560	-0.192	-0.160
-499.639	534.363	0.105	-0.254
-498.624	-13.912	-0.385	0.253
-497.610	165.813	0.112	0.161
-496.595	-69.930	-0.237	-0.092
-495.581	18.223	-0.107	0.086
-494.566	-73.916	-0.201	0.074
-493.551	-79.934	-0.151	0.051
-492.537	313.233	0.274	0.524
-491.522	23.094	0.095	-0.079
-490.508	-200.000	-0.025	0.315
-489.493	800.000	-0.097	-0.368
-488.478	-200.000	0.010	0.050
-487.464	-114.883	0.228	-0.044
-486.449	-116.648	0.211	-0.039
-485.435	-33.153	0.125	-0.070
-484.420	-46.675	-0.247	0.123
-483.405	-78.959	-0.329	-0.113
-482.391	-200.000	-0.002	-0.082
-481.376	-96.875	0.219	0.058
-480.362	10.920	0.028	-0.022
-479.347	471.795	0.046	-0.106
-478.332	-200.000	-0.048	-0.309
-477.318	-200.000	-0.007	-0.157
-476.303	-82.877	0.115	-0.038
-475.289	-136.162	0.276	-0.033
-474.274	57.811	-0.047	-0.047
-473.259	800.000	-0.091	-0.278
-472.245	19.843	-0.109	0.089
-471.230	800.000	0.089	0.297
-470.216	180.469	0.272	-0.404
-469.201	-140.894	-0.048	-0.005
-468.186	589.303	0.129	-0.321
-467.172	37.036	0.128	0.115
-466.157	597.106	0.244	-0.612
-465.143	-200.000	0.019	0.170
-464.128	-200.000	0.026	-0.204
-463.113	-27.686	0.257	-0.151
-462.099	66.964	0.246	-0.254
-461.084	-200.000	-0.014	0.115
-460.070	-61.502	-0.059	-0.025
-459.055	85.717	0.139	0.155
-458.040	19.818	0.171	0.139
-457.026	778.261	0.067	-0.187
-456.011	157.805	-0.153	-0.214
-454.997	-200.000	-0.004	0.161
-453.982	-60.626	-0.088	0.038
-452.968	1.046	-0.268	-0.194
-451.953	319.679	-0.056	-0.107
-450.938	-181.427	-0.292	0.006
-449.924	12.154	-0.246	0.192
-448.909	-200.000	-0.003	0.266
-447.895	-85.836	-0.148	0.047
-446.880	800.000	-0.046	0.183
-445.865	-200.000	-0.021	0.167
-444.851	-200.000	-0.056	-0.300
-443.836	529.720	0.156	0.373
-442.822	-200.000	-0.025	-0.118
-441.807	-79.293	0.168	-0.058
-440.792	-102.987	0.054	-0.013
-439.778	-200.000	0.007	0.141
-438.763	-128.981	-0.099	-0.014
-437.749	-200.000	0.034	0.248
-436.734	41.277	0.118	0.108
-435.719	37.784	-0.111	-0.100
-434.705	-124.997	0.080	-0.012
-433.690	348.237	-0.182	0.364
-432.676	-200.000	-0.043	0.380
-431.661	220.454	-0.118	0.191
-430.646	800.000	0.100	-0.307
-429.632	-124.243	-0.174	-0.028
-428.617	216.402	-0.054	0.087
-427.603	240.449	-0.046	0.078
-426.588	254.440	-0.126	-0.219
-425.573	239.290	0.188	0.317
-424.559	800.000	0.068	-0.244
-423.544	161.552	0.123	0.174
-422.530	53.664	-0.108	0.105
-421.515	7.022	0.150	-0.113
-420.500	-200.000	0.031	0.377
-419.486	-200.000	-0.021	0.225
-418.471	479.232	-0.141	0.322
-417.457	-65.349	-0.149	-0.061
-416.442	-4.814	-0.050	-0.035
-415.428	-122.833	0.215	-0.035
-414.413	-135.458	-0.116	-0.014
-413.398	-183.976	0.238	-0.004
-412.384	23.242	0.309	-0.257
-411.369	19.969	-0.014	0.011
-410.355	1.322	-0.254	0.185
-409.340	468.537	-0.043	-0.098
-408.325	156.796	-0.071	-0.099
-407.311	358.310	-0.111	-0.225
-406.296	96.666	0.225	0.260
-405.282	23.844	0.164	0.136
-404.267	-83.935	0.176	0.057
-403.252	756.390	0.042	-0.115
-402.238	-200.000	0.010	0.130
-401.223	282.779	-0.142	-0.258
-400.209	533.661	0.074	0.178
-399.194	800.000	0.089	-0.251
-398.179	800.000	-0.108	0.310
-397.165	168.427	0.062	0.090
-396.150	-23.408	-0.190	-0.115
-395.136	13.348	0.092	0.072
-394.121	172.500	0.125	0.182
-393.106	177.740	-0.075	0.110
-392.092	-137.456	-0.405	-0.046
-391.077	101.833	0.101	-0.119
-390.063	-80.039	0.144	-0.049
-389.048	-102.342	-0.225	-0.054
-388.033	-161.865	0.446	-0.023
-387.019	403.659	0.259	0.551
-386.004	-65.677	-0.201	-0.082
-384.990	217.991	-0.176	0.284
-383.975	309.525	-0.151	-0.286
-382.960	-200.000	-0.049	0.256
-381.946	173.763	-0.218	-0.318
-380.931	188.386	-0.119	-0.180
-379.917	-107.025	0.369	0.082
-378.902	665.695	0.164	-0.428
-377.888	138.382	0.094	-0.125
-376.873	92.684	0.181	0.207
-375.858	-200.000	0.016	0.204
-374.844	3.874	0.127	-0.094
-373.829	-33.008	-0.098	-0.055
-372.815	-20.107	0.043	0.027
-371.800	-3.149	-0.398	0.280
-370.785	-160.315	0.166	0.009
-369.771	-82.965	0.215	-0.070
-368.756	-128.835	0.193	-0.027
-367.742	-200.000	0.021	-0.255
-366.727	113.377	-0.094	-0.115
-365.712	60.039	-0.195	0.195
-364.698	276.706	0.242	0.435
-363.683	106.767	-0.088	0.106
-362.669	104.813	-0.138	-0.164
-361.654	-142.790	-0.208	0.020
-360.639	-93.076	0.141	0.040
-359.625	-87.037	-0.405	0.125
-358.610	-0.858	0.062	0.044
-357.596	56.161	-0.238	0.234
-356.581	800.000	0.029	0.108
-355.566	-40.568	-0.175	-0.092
-354.552	-48.378	-0.120	0.058
-353.537	250.408	0.169	-0.289
-352.523	487.873	-0.098	-0.226
-351.508	-47.198	0.220	0.108
-350.493	112.392	-0.322	-0.393
-349.479	-200.000	0.006	0.081
-348.464	117.634	0.287	0.357
-347.450	800.000	0.068	-0.192
-346.435	228.103	0.079	-0.129
-345.420	-149.240	-0.226	-0.018
-344.406	-56.333	0.175	-0.078
-343.391	-200.000	0.047	-0.359
-342.377	-200.000	0.010	-0.099
-341.362	-55.846	-0.028	-0.013
-340.348	-12.992	-0.242	0.159
-339.333	641.451	0.040	-0.102
-338.318	224.787	0.098	-0.161
-337.304	18.258	0.210	-0.169
-336.289	-127.360	0.317	0.047
-335.275	558.197	-0.127	0.310
-334.260	175.521	0.036	-0.053
-333.245	800.000	0.013	0.038
-332.231	-168.553	-0.225	-0.009
-331.216	-200.000	0.010	-0.197
-330.202	156.873	-0.050	-0.070
-329.187	800.000	-0.093	0.294
-328.172	-200.000	0.050	0.317
-327.158	-200.000	0.290	0.000
-326.143	-69.964	-0.134	-0.052
-325.129	308.528	0.150	-0.283
-324.114	685.678	-0.122	-0.322
-323.099	-200.000	0.004	0.023
-322.085	3.754	-0.143	0.105
-321.070	22.321	-0.187	0.154
-320.056	-113.403	-0.101	0.020
-319.041	-200.000	-0.021	-0.218
-318.026	-68.877	0.119	0.046
-317.012	-134.597	0.027	0.003
-315.997	-22.972	0.363	0.221
-314.983	-173.022	-0.272	0.008
-313.968	-117.464	0.193	-0.035
-312.953	149.653	0.179	0.245
-311.939	-150.827	0.450	0.034
-310.924	-200.000	-0.057	0.305
-309.910	703.224	0.177	-0.469
-308.895	-1.499	0.158	-0.113
-307.880	-179.147	0.117	0.003
-306.866	27.971	0.224	-0.190
-305.851	-115.613	0.146	-0.028
-304.837	138.424	0.190	0.251
-303.822	-200.000	0.040	0.342
-302.807	-120.753	0.331	0.056
-301.793	20.024	-0.247	-0.201
-300.778	-53.777	0.413	0.190
-299.764	175.374	-0.130	-0.190
-298.749	214.602	0.021	0.034
-297.735	206.111	0.103	-0.161
-296.720	800.000	-0.031	0.104
-295.705	-159.680	0.261	0.015
-294.691	800.000	0.079	0.302
-293.676	121.020	0.086	0.108
-292.662	-130.277	0.247	0.034
-291.647	-16.744	-0.192	0.122
-290.632	-116.770	0.123	-0.023
-289.618	-73.352	-0.165	-0.061
-288.603	-12.375	0.256	-0.168
-287.589	-66.405	0.104	0.042
-286.574	128.215	0.085	0.109
-285.559	10.621	-0.133	-0.102
-284.545	-6.187	0.092	0.063
-283.530	616.622	-0.098	0.247
-282.516	-73.670	0.240	0.088
-281.501	-60.408	0.462	0.198
-280.486	-41.493	-0.247	-0.128
-279.472	-95.838	0.201	-0.054
-278.457	150.443	0.084	-0.114
-277.443	-200.000	-0.004	-0.078
-276.428	-99.655	-0.256	-0.065
-275.413	-200.000	-0.006	0.237
-274.399	800.000	-0.093	-0.281
-273.384	-20.745	-0.135	0.083
-272.370	-70.419	-0.219	-0.083
-271.355	-160.786	-0.141	0.008
-270.340	-200.000	0.033	-0.253
-269.326	-116.389	0.335	-0.062
-268.311	-200.000	0.009	0.121
-267.297	103.897	-0.204	0.241
-266.282	225.798	0.076	-0.124
-265.267	-62.981	0.177	-0.073
-264.253	800.000	0.018	0.080
-263.238	-182.123	0.135	-0.003
-262.224	-200.000	0.001	0.055
-261.209	-76.799	-0.322	0.113
-260.195	11.011	0.353	0.271
-259.180	91.398	-0.045	0.051
-258.165	-118.598	-0.310	-0.055
-257.151	-158.914	-0.055	-0.003
-256.136	800.000	0.049	0.143
-255.122	184.965	-0.083	-0.124
-254.107	81.138	0.109	-0.118
-253.092	800.000	-0.072	-0.302
-252.078	203.410	0.046	-0.072
-251.063	-71.291	-0.208	0.078
-250.049	-200.000	-0.016	0.229
-249.034	-200.000	-0.024	-0.565
-248.019	239.801	-0.033	0.056
-247.005	800.000	-0.083	0.299
-245.990	-120.639	0.098	-0.017
-244.976	66.938	0.141	0.145
-243.961	22.932	-0.070	-0.058
-242.946	-62.456	-0.099	0.042
-241.932	259.639	0.131	0.227
-240.917	439.876	0.104	0.229
-239.903	320.995	-0.144	0.276
-238.888	109.007	-0.172	-0.206
-237.873	-28.629	0.197	0.114
-236.859	82.017	0.184	-0.200
-235.844	-200.000	0.016	0.306
-234.830	353.583	0.151	0.300
-233.815	-39.984	-0.192	0.101
-232.800	43.029	0.173	0.158
-231.786	84.645	0.184	0.203
-230.771	-200.000	0.013	0.180
-229.757	14.132	-0.090	-0.070
-228.742	37.849	-0.052	-0.046
-227.727	-111.719	0.127	0.026
-226.713	-200.000	-0.028	-0.153
-225.698	140.369	0.129	-0.171
-224.684	800.000	-0.026	-0.096
-223.669	-155.560	0.202	-0.013
-222.655	78.370	0.271	0.291
-221.640	-171.277	-0.299	0.010
-220.625	292.009	-0.139	-0.255
-219.611	56.051	0.221	0.216
-218.596	-33.273	-0.083	0.046
-217.582	-44.234	0.084	0.042
-216.567	-43.596	0.048	-0.024
-215.552	-38.180	0.112	-0.060
-214.538	-200.000	-0.001	-0.183
-213.523	-54.166	0.246	0.112
-212.509	-64.092	0.185	0.076
-211.494	-123.902	-0.481	-0.076
-210.479	9.454	-0.038	0.029
-209.465	106.241	0.248	0.295
-208.450	800.000	0.021	-0.086
-207.436	800.000	0.077	-0.248
-206.421	800.000	0.130	-0.458
-205.406	-84.263	-0.230	-0.073
-204.392	-107.590	-0.032	0.007
-203.377	496.975	0.112	0.260
-202.363	-94.691	0.113	0.031
-201.348	-24.060	-0.206	0.123
-200.333	96.001	0.164	-0.188
-199.319	231.062	0.163	-0.267
-198.304	800.000	0.051	-0.197
-197.290	-117.695	-0.093	0.017
-196.275	800.000	0.112	-0.396
-195.260	800.000	-0.044	0.159
-194.246	-45.989	0.285	0.141
-193.231	-100.499	-0.200	-0.050
-192.217	-82.268	0.036	0.012
-191.202	-200.000	-0.043	-0.214
-190.187	405.473	-0.111	0.236
-189.173	-200.000	0.059	0.262
-188.158	59.016	-0.185	0.182
-187.144	162.102	0.064	0.089
-186.129	144.015	-0.120	0.160
-185.114	-46.816	-0.451	0.221
-184.100	-200.000	0.002	-0.134
-183.085	-66.441	0.339	-0.135
-182.071	607.398	0.022	0.055
-181.056	-106.933	-0.133	0.030
-180.042	677.886	0.088	0.228
-179.027	-21.055	0.148	0.091
-178.012	310.953	0.215	-0.403
-176.998	-200.000	0.016	-0.121
-175.983	-200.000	-0.012	-0.150
-174.969	-29.733	-0.267	-0.153
-173.954	-159.486	-0.173	-0.010
-172.939	-162.033	-0.179	-0.009
-171.925	-200.000	0.026	-0.329
-170.910	83.486	0.191	-0.209
-169.896	-200.000	-0.004	0.120
-168.881	800.000	0.030	-0.089
-167.866	-77.448	-0.269	0.094
-166.852	800.000	-0.018	-0.062
-165.837	-200.000	-0.040	0.179
-164.823	452.658	-0.011	0.025
-163.808	99.262	-0.140	0.162
-162.793	-7.193	0.100	0.068
-161.779	-154.231	-0.245	0.017
-160.764	-150.026	0.207	-0.016
-159.750	1.104	0.081	-0.058
-158.735	-103.772	0.358	0.084
-157.720	-151.452	0.343	0.025
-156.706	216.997	0.112	-0.178
-155.691	800.000	0.004	0.013
-154.677	32.593	0.472	0.409
-153.662	-200.000	-0.016	0.266
-152.647	169.788	-0.341	0.488
-151.633	80.018	0.153	-0.165
-150.618	-200.000	0.021	-0.143
-149.604	613.410	0.100	0.250
-148.589	219.587	0.136	0.218
-147.574	108.703	0.138	0.165
-146.560	-200.000	-0.036	-0.350
-145.545	1.448	0.234	0.169
-144.531	-101.611	0.049	0.012
-143.516	124.305	0.058	-0.073
-142.502	27.770	0.297	0.251
-141.487	14.494	0.110	-0.086
-140.472	-200.000	-0.012	-0.160
-139.458	800.000	-0.058	-0.218
-138.443	119.545	0.112	-0.139
-137.429	-177.767	0.192	-0.005
-136.414	46.401	-0.171	0.158
-135.399	22.566	0.118	-0.097
-134.385	-4.131	-0.062	0.043
-133.370	-157.429	0.051	0.003
-132.356	298.136	-0.085	-0.156
-131.341	757.441	0.108	-0.293
-130.326	-200.000	-0.003	0.439
-129.312	-200.000	0.025	-0.164
-128.297	79.947	-0.209	-0.225
-127.283	96.935	-0.095	0.109
-126.268	195.421	0.256	0.390
-125.253	-200.000	-0.004	-0.126
-124.239	-31.716	0.157	0.088
-123.224	39.137	0.199	-0.178
-122.210	-81.048	-0.212	0.070
-121.195	57.159	0.104	-0.101
-120.180	-33.921	-0.075	-0.041
-119.166	-200.000	-0.059	-0.277
-118.151	38.457	-0.074	-0.066
-117.137	-85.223	0.045	0.014
-116.122	800.000	0.061	0.234
-115.107	800.000	-0.093	0.343
-114.093	-70.789	0.137	0.052
-113.078	31.268	0.229	-0.197
-112.064	-200.000	-0.066	-0.442
-111.049	70.263	0.049	-0.051
-110.034	-34.538	-0.313	-0.171
-109.020	-86.615	0.281	-0.086
-108.005	-200.000	0.046	-0.273
-106.991	283.109	0.091	-0.164
-105.976	-123.100	0.158	0.025
-104.962	-200.000	-0.064	-0.385
-103.947	-200.000	-0.008	0.095
-102.932	-107.443	-0.062	0.014
-101.918	101.199	0.188	-0.218
-100.903	-128.915	0.168	0.024
-99.889	-111.863	-0.128	0.026
-98.874	-123.420	0.321	0.051
-97.859	-71.708	0.091	-0.034
-96.845	-200.000	0.083	-0.392
-95.830	-96.118	-0.118	-0.031
-94.816	-117.263	0.088	-0.016
-93.801	-113.742	0.359	-0.070
-92.786	-200.000	0.041	-0.412
-91.772	623.372	0.045	0.114
-90.757	308.296	0.045	-0.084
-89.743	-200.000	0.005	0.068
-88.728	-138.834	0.317	0.035
-87.713	195.816	0.044	-0.067
-86.699	356.147	0.134	0.267
-85.684	401.229	0.275	0.578
-84.670	556.546	0.058	0.141
-83.655	556.674	-0.125	0.302
-82.640	-44.337	-0.186	-0.093
-81.626	-30.384	-0.265	-0.150
-80.611	-200.000	0.039	0.198
-79.597	-9.201	0.132	-0.088
-78.582	800.000	0.019	-0.059
-77.567	-200.000	-0.056	0.449
-76.553	195.417	-0.222	-0.337
-75.538	-200.000	0.003	0.280
-74.524	32.072	-0.168	-0.144
-73.509	160.911	0.109	-0.152
-72.494	-200.000	0.012	0.315
-71.480	-91.845	-0.328	0.093
-70.465	800.000	0.098	0.301
-69.451	-62.026	-0.291	-0.121
-68.436	-129.746	0.112	0.015
-67.422	-51.119	0.338	-0.158
-66.407	-200.000	0.023	0.209
-65.392	8.329	-0.157	0.117
-64.378	-162.710	0.215	0.011
-63.363	57.458	-0.128	0.125
-62.349	86.400	0.114	-0.126
-61.334	206.896	-0.423	-0.658
-60.319	800.000	-0.054	0.222
-59.305	-200.000	0.113	-0.514
-58.290	-56.905	0.724	0.319
-57.276	800.000	0.518	1.490
-56.261	-200.000	72.854	555.880
-55.246	565.689	1307.207	3162.467
-54.232	137.653	2568.981	3355.357
-53.217	120.494	2271.364	2814.362
-52.203	55.359	1781.377	1719.036
-51.188	47.216	1571.916	1459.711
-50.173	44.419	1540.367	1410.974
-49.159	60.292	1575.173	1554.214
-48.144	67.765	1595.952	1626.870
-47.130	47.660	1559.823	1451.360
-46.115	43.740	1545.408	1410.637
-45.100	43.645	1541.389	1406.254
-44.086	43.563	1539.752	1404.136
-43.071	43.392	1537.869	1401.176
-42.057	43.330	1536.385	1399.337
-41.042	43.451	1534.537	1398.434
-40.027	43.460	1533.492	1397.489
-39.013	43.602	1531.024	1396.163
-37.998	43.455	1530.366	1394.498
-36.984	43.545	1529.000	1393.816
-35.969	43.479	1528.046	1392.438
-34.954	43.506	1526.419	1391.084
-33.940	43.588	1524.821	1390.140
-32.925	43.535	1523.364	1388.389
-31.911	43.492	1522.035	1386.824
-30.896	43.488	1520.915	1385.724
-29.881	43.529	1519.252	1384.438
-28.867	43.567	1517.665	1383.197
-27.852	43.588	1516.270	1382.010
-26.838	43.462	1515.221	1380.143
-25.823	43.432	1513.153	1377.998
-24.809	43.509	1511.374	1376.849
-23.794	43.575	1509.991	1375.984
-22.779	43.517	1509.304	1374.907
-21.765	43.552	1508.189	1374.077
-20.750	43.568	1507.002	1373.044
-19.736	43.610	1505.343	1371.768
-18.721	43.597	1503.818	1370.230
-17.706	43.519	1503.375	1369.243
-16.692	43.442	1502.270	1367.668
-15.677	43.492	1501.074	1366.860
-14.663	43.450	1500.525	1366.023
-13.648	43.514	1498.969	1364.981
-12.633	43.507	1497.698	1363.727
-11.619	43.480	1497.581	1363.382
-10.604	43.382	1497.148	1362.275
-9.590	43.440	1495.691	1361.285
-8.575	43.377	1494.779	1359.974
-7.560	43.526	1493.846	1360.073
-6.546	43.455	1492.972	1358.749
-5.531	43.478	1491.688	1357.682
-4.517	43.409	1491.388	1356.891
-3.502	43.468	1489.871	1355.851
-2.487	43.444	1488.500	1354.391
-1.473	43.393	1487.485	1353.067
-0.458	43.389	1486.307	1351.920
0.556	41.805	1476.904	1342.015
1.571	38.726	1447.798	1295.146
2.586	33.608	1381.868	1203.683
3.600	29.856	1295.201	1105.715
4.615	26.980	1245.423	1046.572
5.629	22.164	1186.781	970.676
6.644	11.334	1094.338	839.531
7.659	2.248	1046.540	757.898
8.673	0.561	1040.258	744.962
9.688	0.286	1037.692	741.704
10.702	0.240	1035.963	740.180
11.717	0.213	1034.532	738.958
12.731	2.739	1036.931	753.018
13.746	11.558	1049.792	805.962
14.761	17.641	1056.891	841.469
15.775	17.528	1055.211	839.498
16.790	16.604	1053.005	833.121
17.804	15.575	1051.135	826.509
18.819	14.639	1049.294	820.388
19.834	14.218	1047.765	817.057
20.848	13.959	1046.252	814.537
21.863	13.633	1045.754	812.475
22.877	13.275	1045.382	810.363
23.892	13.113	1044.295	808.655
24.907	13.008	1043.491	807.448
25.921	13.092	1042.524	807.035
26.936	13.018	1042.170	806.331
27.950	13.152	1041.322	806.258
28.965	13.167	1040.440	805.575
29.980	13.213	1039.688	805.145
30.994	13.166	1039.167	804.442
32.009	13.387	1037.451	804.115
33.023	13.382	1036.920	803.611
34.038	13.289	1036.424	802.705
35.053	13.309	1035.396	801.933
36.067	13.219	1034.512	800.741
37.082	13.172	1033.670	799.794
38.096	13.294	1032.997	799.791
39.111	13.312	1032.373	799.325
40.126	13.376	1031.289	798.721
41.140	13.265	1030.338	797.379
42.155	13.165	1029.407	796.105
43.169	13.093	1028.254	794.798
44.184	13.122	1026.932	793.847
45.199	13.138	1026.441	793.474
46.213	13.049	1025.443	792.203
47.228	13.002	1024.361	791.071
48.242	13.033	1023.455	790.452
49.257	13.223	1022.125	790.262
50.271	13.207	1021.199	789.399
51.286	13.115	1020.698	788.502
52.301	13.171	1019.530	787.797
53.315	13.203	1018.464	787.058
54.330	13.181	1017.976	786.508
55.344	13.175	1016.895	785.571
56.359	13.168	1015.895	784.699
57.374	13.263	1014.908	784.316
58.388	13.119	1014.449	783.209
59.403	13.038	1013.356	781.912
60.417	13.062	1012.739	781.482
61.432	13.084	1012.000	780.946
62.447	12.986	1011.217	779.811
63.461	13.052	1010.566	779.551
64.476	12.982	1009.752	778.523
65.490	12.993	1008.503	777.545
66.505	12.932	1007.848	776.682
67.520	12.996	1006.786	776.094
68.534	13.068	1006.378	776.050
69.549	13.077	1005.169	775.091
70.563	13.028	1004.897	774.583
71.578	12.939	1004.350	773.676
72.593	13.014	1003.275	773.133
73.607	13.022	1002.140	772.225
74.622	12.903	1001.485	771.098
75.636	12.931	1000.713	770.565
76.651	12.877	1000.086	769.761
77.666	12.984	999.089	769.424
78.680	12.975	998.328	768.727
79.695	12.905	998.075	768.138
80.709	13.028	997.356	768.094
81.724	13.040	996.428	767.366
82.739	13.068	995.549	766.751
83.753	13.142	994.544	766.253
84.768	13.174	994.228	766.086
85.782	13.151	993.399	765.274
86.797	13.195	992.696	764.869
87.812	13.210	991.717	764.118
88.826	13.177	990.986	763.336
89.841	13.196	990.248	762.785
90.855	13.229	989.478	762.276
91.870	13.194	988.850	761.565
92.884	13.274	988.245	761.398
93.899	13.121	987.719	760.221
94.914	13.176	987.236	760.038
95.928	13.321	985.968	759.661
96.943	13.359	985.253	759.217
97.957	13.308	984.313	758.189
98.972	13.278	983.773	757.571
99.987	13.215	982.917	756.554
101.001	13.286	982.045	756.143
102.016	13.208	981.109	754.998
103.030	13.313	980.178	754.696
104.045	13.182	979.328	753.376
105.060	13.371	978.052	753.185
106.074	13.325	977.341	752.364
107.089	13.290	976.322	751.353
108.103	13.130	975.581	749.993
109.118	13.140	974.701	749.291
110.133	13.062	973.911	748.266
111.147	12.970	973.212	747.244
112.162	12.996	972.317	746.610
113.176	13.009	971.392	745.895
114.191	13.059	970.902	745.677
115.206	13.157	969.270	744.799
116.220	13.162	968.762	744.364
117.235	13.208	967.860	743.812
118.249	13.215	967.277	743.331
119.264	13.164	966.434	742.388
120.279	13.179	965.399	741.593
121.293	13.033	964.752	740.378
122.308	13.027	963.963	739.682
123.322	13.045	963.151	739.074
124.337	12.966	962.295	737.997
125.352	13.067	960.926	737.332
126.366	12.996	960.097	736.314
127.381	13.127	958.604	735.686
128.395	13.122	958.014	735.148
129.410	13.087	957.235	734.327
130.424	13.122	956.326	733.722
131.439	13.142	955.085	732.795
132.454	13.200	954.752	732.732
133.468	13.229	954.062	732.266
134.483	13.299	953.142	731.804
135.497	13.222	952.806	731.139
136.512	13.256	951.793	730.450
137.527	13.242	951.233	729.894
138.541	13.227	950.346	729.082
139.556	13.249	949.703	728.621
140.570	13.194	948.676	727.526
141.585	13.218	948.054	727.089
142.600	13.357	947.544	727.245
143.614	13.255	946.894	726.236
144.629	13.391	945.700	725.853
145.643	13.434	945.186	725.583
146.658	13.352	944.298	724.474
147.673	13.261	943.439	723.355
148.687	13.266	942.425	722.536
149.702	13.267	941.392	721.684
150.716	13.288	940.406	720.953
151.731	13.235	939.888	720.262
152.746	13.163	939.531	719.612
153.760	13.160	938.513	718.754
154.775	13.281	937.970	718.801
155.789	13.295	937.020	718.073
156.804	13.235	936.269	717.171
157.819	13.302	935.613	716.899
158.833	13.299	934.814	716.208
159.848	13.369	934.123	715.916
160.862	13.439	933.532	715.704
161.877	13.532	932.395	715.173
162.892	13.417	931.638	714.031
163.906	13.353	930.697	712.973
164.921	13.183	930.483	712.013
165.935	13.219	929.441	711.308
166.950	13.224	928.395	710.465
167.964	13.285	927.557	710.022
168.979	13.343	926.843	709.664
169.994	13.245	925.773	708.359
171.008	13.363	924.485	707.817
172.023	13.385	924.006	707.482
173.037	13.386	923.160	706.774
174.052	13.488	922.741	706.828
175.067	13.449	921.669	705.776
176.081	13.443	921.530	705.583
177.096	13.432	920.208	704.463
178.110	13.364	919.409	703.498
179.125	13.280	919.064	702.814
180.140	13.418	918.052	702.565
181.154	13.398	917.399	701.917
182.169	13.457	916.776	701.628
183.183	13.694	915.968	701.952
184.198	13.522	915.477	700.787
185.213	13.613	914.674	700.493
186.227	13.659	913.754	699.920
187.242	13.668	913.348	699.587
188.256	13.630	913.041	699.128
189.271	13.696	912.128	698.648
190.286	13.721	911.059	697.869
191.300	13.576	910.639	696.879
192.315	13.447	910.298	696.013
193.329	13.409	909.347	695.063
194.344	13.537	908.655	695.011
195.359	13.600	908.142	694.823
196.373	13.573	907.659	694.278
197.388	13.545	907.481	693.964
198.402	13.697	907.012	694.180
199.417	13.745	906.045	693.577
200.432	13.905	905.784	693.987
201.446	13.861	905.577	693.580
202.461	13.836	905.140	693.083
203.475	13.901	904.619	692.891
204.490	13.829	904.204	692.215
205.504	13.838	903.082	691.329
206.519	13.832	902.149	690.528
207.534	13.779	901.744	689.939
208.548	13.889	900.888	689.681
209.563	13.923	900.085	689.146
210.577	13.858	900.036	688.777
211.592	13.956	898.543	687.980
212.607	13.988	898.482	688.005
213.621	14.036	897.423	687.329
214.636	13.952	897.161	686.722
215.650	13.975	896.447	686.211
216.665	14.046	896.071	686.152
217.680	13.903	895.659	685.189
218.694	14.176	894.976	685.731
219.709	14.081	894.514	684.922
220.723	13.980	893.837	683.929
221.738	14.014	893.220	683.538
222.753	14.185	892.497	683.626
223.767	14.013	891.962	682.448
224.782	14.124	890.867	682.005
225.796	14.211	889.714	681.417
226.811	14.138	889.405	680.824
227.826	14.266	888.614	680.681
228.840	14.269	887.716	679.945
229.855	14.205	887.125	679.173
230.869	14.176	887.146	679.010
231.884	14.271	886.252	678.651
232.899	14.246	885.283	677.748
233.913	14.255	884.647	677.238
234.928	14.237	884.217	676.777
235.942	14.289	883.511	676.385
236.957	14.128	883.043	675.315
237.972	14.185	882.289	674.911
238.986	14.378	881.425	674.971
240.001	14.214	880.963	673.892
241.015	14.307	880.193	673.621
242.030	14.246	879.662	672.909
243.045	14.249	879.138	672.459
244.059	14.287	878.143	671.794
245.074	14.241	877.605	671.135
246.088	14.282	876.983	670.766
247.103	14.349	876.381	670.518
248.117	14.430	875.985	670.482
249.132	14.460	875.315	670.027
250.147	14.543	874.930	670.007
251.161	14.584	874.135	669.503
252.176	14.579	873.582	669.003
253.190	14.669	872.393	668.391
254.205	14.728	871.902	668.194
255.220	14.788	871.156	667.802
256.234	14.600	871.026	666.892
257.249	14.728	870.459	666.908
258.263	14.697	869.620	666.083
259.278	14.734	869.533	666.105
260.293	14.804	868.739	665.719
261.307	14.858	868.250	665.500
262.322	14.632	867.857	664.240
263.336	14.862	867.095	664.514
264.351	14.871	866.177	663.786
265.366	14.836	865.911	663.384
266.380	14.779	865.454	662.748
267.395	15.014	864.545	662.927
268.409	14.936	863.784	661.976
269.424	14.856	862.739	660.799
270.439	14.878	862.257	660.457
271.453	15.047	861.332	660.360
272.468	14.974	860.880	659.667
273.482	14.822	860.733	658.894
274.497	14.921	860.164	658.792
275.512	14.933	858.964	657.862
276.526	14.917	858.517	657.396
277.541	14.919	857.634	656.669
278.555	14.953	857.309	656.499
279.570	15.015	856.591	656.134
280.585	15.086	856.124	655.997
281.599	15.100	855.515	655.524
282.614	15.142	854.848	655.121
283.628	15.052	854.392	654.360
284.643	15.120	853.744	654.073
285.657	15.062	853.204	653.376
286.672	15.009	853.156	653.072
287.687	15.176	852.045	652.814
288.701	15.264	851.567	652.734
289.716	15.230	851.187	652.255
290.730	15.176	850.207	651.236
291.745	14.995	849.984	650.304
292.760	15.199	849.319	650.529
293.774	15.216	848.559	649.954
294.789	15.189	848.161	649.488
295.803	15.271	847.387	649.157
296.818	15.241	846.944	648.641
297.833	15.329	845.837	648.076
298.847	15.319	845.332	647.594
299.862	15.288	844.639	646.885
300.876	15.334	844.114	646.606
301.891	15.352	843.738	646.328
302.906	15.433	842.984	646.005
303.920	15.593	842.322	646.056
304.935	15.457	842.011	645.237
305.949	15.575	841.243	645.046
306.964	15.442	840.720	644.079
307.979	15.508	839.896	643.644
308.993	15.351	839.735	642.861
310.008	15.538	839.133	643.057
311.022	15.634	838.200	642.655
312.037	15.652	837.907	642.441
313.052	15.663	837.199	641.885
314.066	15.574	836.834	641.208
315.081	15.587	835.858	640.451
316.095	15.461	835.613	639.726
317.110	15.625	834.842	639.705
318.125	15.573	834.220	638.972
319.139	15.626	833.835	638.825
320.154	15.524	833.613	638.208
321.168	15.655	833.105	638.262
322.183	15.488	832.623	637.201
323.197	15.714	831.869	637.425
324.212	15.692	831.558	637.048
325.227	15.764	830.718	636.620
326.241	15.853	829.727	636.143
327.256	15.753	829.756	635.729
328.270	15.521	829.278	634.430
329.285	15.560	828.611	634.012
330.300	15.690	827.985	633.968
331.314	15.618	827.653	633.383
332.329	15.663	827.063	633.047
333.343	15.580	826.316	632.105
334.358	15.766	825.626	632.220
335.373	15.954	825.051	632.430
336.387	15.954	824.556	631.997
337.402	15.990	824.047	631.683
338.416	15.935	823.778	631.216
339.431	15.790	823.062	630.070
340.446	15.933	822.564	630.167
341.460	15.939	821.742	629.504
342.475	16.038	821.177	629.387
343.489	16.088	820.656	629.117
344.504	16.007	820.336	628.513
345.519	15.984	819.780	627.946
346.533	16.010	819.449	627.735
347.548	16.248	818.314	627.693
348.562	16.064	818.307	626.948
349.577	16.084	817.616	626.438
350.592	16.016	817.318	625.903
351.606	15.971	817.168	625.564
352.621	16.069	816.341	625.238
353.635	15.947	815.871	624.371
354.650	15.938	815.833	624.254
355.665	16.162	815.019	624.406
356.679	16.036	814.540	623.519
357.694	16.168	813.939	623.490
358.708	16.127	813.534	622.974
359.723	16.132	813.240	622.713
360.738	16.127	812.634	622.175
361.752	16.071	811.988	621.417
362.767	16.238	811.585	621.670
363.781	16.260	811.126	621.343
364.796	16.302	810.393	620.882
365.810	16.190	810.295	620.341
366.825	16.371	809.926	620.669
367.840	16.395	809.652	620.492
368.854	16.383	808.989	619.884
369.869	16.365	808.657	619.508
370.883	16.442	808.187	619.375
371.898	16.452	807.414	618.766
372.913	16.318	806.962	617.873
373.927	16.611	806.086	618.221
374.942	16.473	805.764	617.414
375.956	16.427	804.984	616.593
376.971	16.535	804.154	616.297
377.986	16.590	803.975	616.307
379.000	16.802	803.273	616.485
380.015	16.611	803.112	615.613
381.029	16.665	802.518	615.298
382.044	16.706	801.783	614.827
383.059	16.855	801.119	614.805
384.073	16.784	800.801	614.250
385.088	16.727	800.137	613.482
386.102	16.635	799.560	612.650
387.117	16.635	799.338	612.425
388.132	16.552	798.711	611.593
389.146	16.708	798.572	611.997
390.161	16.685	798.305	611.653
391.175	16.695	798.004	611.403
392.190	16.782	797.285	611.113
393.205	16.665	797.296	610.645
394.219	16.774	796.562	610.421
395.234	16.828	796.075	610.188
396.248	16.754	795.523	609.447
397.263	16.829	794.639	608.984
398.278	16.651	794.301	608.031
399.292	16.739	793.861	607.957
400.307	16.651	793.646	607.422
401.321	16.907	793.171	607.922
402.336	16.744	792.957	607.122
403.350	16.789	792.409	606.810
404.365	16.783	791.916	606.358
405.380	16.879	791.528	606.350
406.394	17.017	790.855	606.275
407.409	16.964	790.572	605.813
408.423	16.981	790.372	605.668
409.438	17.129	789.669	605.604
410.453	17.034	789.299	604.926
411.467	17.100	788.867	604.777
412.482	17.005	788.747	604.292
413.496	17.085	788.052	603.994
414.511	17.090	788.023	603.934
415.526	17.185	787.254	603.629
416.540	17.220	786.762	603.322
417.555	17.141	786.401	602.713
418.569	17.188	785.937	602.471
419.584	17.241	785.355	602.157
420.599	17.332	784.908	602.085
421.613	82.837	1244.655	1307.263
422.628	69.973	1311.660	1307.379
