DTS Sentinel unit serial number:	SN413079Multiplexer serial number:	ORYXHardware model number:	OX4-SRSoftware version number:	ORYX F/W v4.00 Oryx Data Collector v3.7.2.0data status	okinstallation	princeton_trtdifferential loss correction	single-endedforward channel	channel 3reverse channel	N/Adate	2019/09/18time	06:52:34forward acquisition time	60.00reverse acquisition time	0.00gamma	496.2192k internal	0.2343k external	0.2343temperature offset calibration	0.9951default loss term (dB/km)	0.3790temperature slope calibration	1.0000multiplexer offset coefficient	1.0000multiplexer slope coefficient	1.0000fibre end	0.00T internal ref (°C)	23.25T ext. ref 1 (°C)	0.20T ext. ref 2 (°C)	16.99length (m)	temperature (°C)	Stokes	anti-Stokes-747.200	-163.635	0.316	0.015
-746.185	-151.423	0.183	-0.014
-745.171	82.975	0.035	0.039
-744.156	107.454	0.156	-0.186
-743.142	24.311	-0.291	-0.240
-742.127	-34.266	-0.099	0.055
-741.112	-126.076	-0.299	0.045
-740.098	-31.701	0.152	0.086
-739.083	28.912	-0.146	0.124
-738.069	-0.666	0.116	0.083
-737.054	636.718	0.056	0.143
-736.039	-200.000	-0.035	-0.253
-735.025	-200.000	0.022	0.295
-734.010	103.655	-0.184	0.216
-732.996	800.000	0.060	-0.222
-731.981	17.449	0.185	-0.147
-730.966	-33.153	-0.207	0.115
-729.952	800.000	-0.017	0.053
-728.937	148.528	0.048	-0.065
-727.923	-161.685	0.231	-0.012
-726.908	460.800	-0.149	0.333
-725.894	584.807	-0.069	-0.169
-724.879	-200.000	-0.037	0.186
-723.864	-200.000	-0.018	-0.092
-722.850	140.102	-0.159	0.210
-721.835	-149.452	0.346	0.027
-720.821	-16.216	-0.108	-0.069
-719.806	-79.232	-0.341	-0.116
-718.791	-7.354	-0.199	0.135
-717.777	800.000	0.016	0.054
-716.762	135.762	-0.129	0.168
-715.748	-200.000	-0.038	-0.303
-714.733	744.395	-0.057	0.152
-713.718	99.978	-0.197	-0.228
-712.704	-136.597	0.285	-0.033
-711.689	-63.664	-0.125	-0.051
-710.675	-49.121	-0.219	0.105
-709.660	-37.840	-0.462	0.246
-708.645	28.019	0.131	-0.110
-707.631	120.554	-0.267	0.332
-706.616	-95.089	0.099	0.027
-705.602	58.200	0.067	-0.066
-704.587	601.396	-0.033	-0.081
-703.572	-138.602	-0.359	0.039
-702.558	-200.000	0.016	0.154
-701.543	-61.516	-0.291	-0.122
-700.529	344.188	-0.118	0.231
-699.514	-126.038	-0.370	0.056
-698.499	-97.604	-0.097	0.025
-697.485	7.325	-0.272	-0.203
-696.470	83.813	0.118	-0.128
-695.456	-105.965	0.058	-0.013
-694.441	-52.917	0.136	0.062
-693.426	-200.000	-0.019	-0.177
-692.412	691.338	-0.035	-0.091
-691.397	389.287	-0.148	0.306
-690.383	-200.000	0.099	-0.000
-689.368	531.118	-0.043	-0.101
-688.354	-200.000	-0.079	-0.524
-687.339	-6.123	-0.212	-0.144
-686.324	585.255	-0.176	-0.432
-685.310	304.353	-0.125	-0.231
-684.295	-200.000	-0.012	0.136
-683.281	-81.818	0.257	-0.084
-682.266	-35.179	-0.359	-0.195
-681.251	-57.555	0.128	0.056
-680.237	185.460	0.075	0.111
-679.222	-119.264	0.157	-0.027
-678.208	-35.635	0.064	0.035
-677.193	-103.559	0.106	0.025
-676.178	800.000	0.114	-0.334
-675.164	137.784	-0.166	-0.217
-674.149	-65.098	-0.137	-0.055
-673.135	-200.000	0.063	0.313
-672.120	-64.814	0.025	-0.010
-671.105	222.965	-0.123	0.198
-670.091	59.614	-0.183	0.180
-669.076	-121.660	0.055	-0.009
-668.062	-200.000	-0.014	-0.185
-667.047	-157.149	0.111	0.007
-666.032	-15.743	-0.172	0.110
-665.018	-125.507	0.400	-0.061
-664.003	-119.136	0.035	0.006
-662.989	-39.663	-0.444	-0.232
-661.974	800.000	0.057	0.173
-660.959	-28.734	-0.186	0.107
-659.945	-112.505	-0.403	0.080
-658.930	-115.932	-0.093	-0.017
-657.916	-13.589	0.345	0.223
-656.901	206.781	-0.176	0.273
-655.886	-200.000	0.005	0.045
-654.872	229.962	-0.051	0.083
-653.857	-37.832	-0.323	0.172
-652.843	-130.171	-0.174	0.024
-651.828	121.105	0.175	-0.218
-650.814	-200.000	-0.033	-0.200
-649.799	120.999	0.023	0.028
-648.784	-200.000	0.360	0.001
-647.770	-14.963	-0.102	0.065
-646.755	-30.507	0.112	-0.063
-645.741	-51.325	-0.020	0.009
-644.726	-167.616	-0.177	0.007
-643.711	-73.409	-0.120	0.044
-642.697	800.000	0.046	-0.192
-641.682	-121.588	0.371	-0.061
-640.668	-200.000	-0.036	0.245
-639.653	-66.451	-0.089	-0.035
-638.638	67.496	-0.331	-0.337
-637.624	180.452	0.080	0.118
-636.609	-168.135	0.408	-0.016
-635.595	-200.000	0.064	-0.382
-634.580	-185.382	-0.081	0.001
-633.565	133.851	-0.145	0.187
-632.551	-65.045	-0.246	-0.099
-631.536	17.516	0.036	0.028
-630.522	-200.000	0.005	0.069
-629.507	-111.969	0.327	0.066
-628.492	-33.284	-0.185	0.102
-627.478	-10.850	-0.165	0.109
-626.463	-200.000	-0.007	0.191
-625.449	282.166	-0.230	0.411
-624.434	571.065	0.155	0.377
-623.419	-128.563	0.093	-0.013
-622.405	-152.584	0.218	-0.016
-621.390	-3.792	-0.119	-0.082
-620.376	-6.652	0.092	0.062
-619.361	-119.161	0.285	0.050
-618.346	32.729	0.247	-0.213
-617.332	-46.015	-0.143	-0.070
-616.317	568.647	-0.083	0.202
-615.303	800.000	-0.093	0.294
-614.288	-72.679	-0.420	-0.154
-613.273	122.068	-0.285	0.354
-612.259	-48.479	0.179	-0.086
-611.244	326.937	-0.137	-0.261
-610.230	133.005	0.084	0.108
-609.215	800.000	0.141	-0.457
-608.201	347.048	-0.155	-0.303
-607.186	-98.061	-0.387	-0.099
-606.171	322.039	0.022	-0.043
-605.157	-120.277	-0.175	0.030
-604.142	-41.865	0.274	0.140
-603.128	-200.000	-0.015	-0.246
-602.113	192.514	0.132	0.199
-601.098	-200.000	-0.041	-0.297
-600.084	106.329	0.116	0.137
-599.069	-5.285	-0.445	0.304
-598.055	-47.129	0.169	0.082
-597.040	-151.597	0.194	-0.014
-596.025	365.009	-0.170	-0.340
-595.011	283.284	0.076	0.135
-593.996	166.318	0.169	-0.239
-592.982	177.987	0.038	0.056
-591.967	800.000	-0.072	0.253
-590.952	-83.197	-0.157	0.050
-589.938	32.483	-0.330	-0.284
-588.923	-200.000	0.075	-0.407
-587.909	571.268	0.017	0.042
-586.894	-200.000	-0.038	-0.326
-585.879	-200.000	0.005	0.327
-584.865	-83.545	0.192	0.061
-583.850	-200.000	0.018	0.127
-582.836	-88.376	0.220	-0.065
-581.821	299.842	0.108	-0.198
-580.806	275.261	0.147	-0.259
-579.792	-101.666	-0.248	0.060
-578.777	-200.000	0.007	-0.289
-577.763	479.758	-0.044	-0.100
-576.748	-156.016	-0.104	-0.007
-575.733	5.074	0.160	-0.117
-574.719	99.184	0.001	-0.001
-573.704	-4.185	-0.278	-0.192
-572.690	-123.410	-0.270	-0.043
-571.675	800.000	0.072	0.239
-570.661	347.888	-0.044	-0.086
-569.646	-200.000	0.030	0.374
-568.631	-108.684	0.271	-0.058
-567.617	800.000	-0.077	0.289
-566.602	138.554	-0.077	-0.100
-565.588	611.962	-0.041	-0.102
-564.573	-27.862	-0.328	-0.189
-563.558	-153.112	0.385	0.027
-562.544	554.965	-0.113	-0.271
-561.529	-200.000	0.002	0.299
-560.515	-200.000	0.038	0.481
-559.500	-8.795	-0.410	-0.273
-558.485	332.056	0.168	0.322
-557.471	-70.567	0.210	0.079
-556.456	325.267	0.176	-0.334
-555.442	-144.110	0.064	0.006
-554.427	-38.090	-0.243	-0.128
-553.412	-87.122	0.130	0.039
-552.398	637.297	-0.083	0.209
-551.383	-104.313	-0.422	0.097
-550.369	-55.950	0.079	0.035
-549.354	-154.757	0.136	0.009
-548.339	279.044	0.041	-0.072
-547.325	-101.601	-0.123	0.030
-546.310	500.285	-0.141	0.322
-545.296	-200.000	0.006	-0.051
-544.281	800.000	0.039	0.152
-543.266	-200.000	0.035	0.174
-542.252	558.986	-0.091	-0.217
-541.237	75.632	0.153	-0.161
-540.223	-8.261	-0.198	-0.132
-539.208	-200.000	0.031	0.147
-538.193	-61.120	-0.254	0.106
-537.179	-200.000	0.027	-0.426
-536.164	131.010	-0.132	-0.168
-535.150	418.919	-0.144	-0.306
-534.135	-123.506	-0.157	0.025
-533.121	572.826	0.086	0.209
-532.106	216.844	-0.103	-0.163
-531.091	71.912	-0.105	-0.109
-530.077	-4.913	-0.087	-0.060
-529.062	-116.905	-0.063	-0.012
-528.048	-18.172	0.168	-0.104
-527.033	-14.475	-0.135	-0.086
-526.018	314.536	-0.092	-0.172
-525.004	-124.256	0.308	-0.048
-523.989	-119.497	-0.109	-0.019
-522.975	-200.000	-0.012	-0.131
-521.960	-61.355	-0.011	0.005
-520.945	-33.664	0.189	-0.103
-519.931	-76.596	-0.107	-0.037
-518.916	-200.000	0.010	0.182
-517.902	-69.469	0.195	0.074
-516.887	-55.847	-0.182	-0.080
-515.872	-200.000	0.004	0.042
-514.858	723.822	-0.102	-0.271
-513.843	255.346	0.104	-0.176
-512.829	296.241	-0.139	0.253
-511.814	47.282	-0.226	0.209
-510.799	-116.392	0.162	-0.030
-509.785	-3.605	0.038	-0.026
-508.770	-36.246	-0.263	-0.141
-507.756	44.810	-0.145	-0.132
-506.741	800.000	0.087	0.263
-505.726	67.051	0.216	-0.218
-504.712	-130.809	-0.247	-0.033
-503.697	-134.972	-0.365	-0.044
-502.683	-200.000	0.077	-0.472
-501.668	45.269	0.169	-0.155
-500.653	-138.924	0.277	-0.030
-499.639	175.331	0.177	-0.254
-498.624	-200.000	0.010	-0.214
-497.610	-37.023	0.166	0.088
-496.595	183.293	-0.061	-0.089
-495.581	432.307	-0.040	-0.085
-494.566	-200.000	-0.029	-0.153
-493.551	79.357	-0.133	-0.142
-492.537	346.976	0.117	0.228
-491.522	229.286	-0.045	-0.072
-490.508	-103.180	0.450	-0.106
-489.493	-73.553	0.484	-0.175
-488.478	-148.348	0.356	0.029
-487.464	67.928	0.173	0.176
-486.449	-107.889	-0.431	0.093
-485.435	-200.000	-0.070	0.318
-484.420	-138.304	0.139	-0.015
-483.405	586.871	0.150	0.367
-482.391	262.058	0.137	0.236
-481.376	-178.649	0.165	-0.004
-480.362	-45.383	-0.412	-0.203
-479.347	15.089	0.133	0.103
-478.332	85.357	0.165	0.179
-477.318	358.240	0.018	-0.036
-476.303	6.130	0.169	-0.124
-475.289	23.647	0.207	-0.169
-474.274	-64.011	0.228	0.092
-473.259	-151.726	-0.346	-0.025
-472.245	-137.322	-0.237	-0.027
-471.230	-96.213	0.350	-0.092
-470.216	-200.000	-0.426	0.001
-469.201	748.089	0.047	-0.125
-468.186	0.784	0.157	-0.111
-467.172	-157.140	0.311	-0.019
-466.157	-99.470	0.212	0.053
-465.143	525.015	-0.034	-0.080
-464.128	800.000	-0.117	0.322
-463.113	-51.621	-0.142	-0.066
-462.099	-200.000	0.026	-0.145
-461.084	800.000	0.067	-0.200
-460.070	460.456	-0.084	-0.184
-459.055	598.893	-0.088	-0.216
-458.040	209.339	0.106	-0.164
-457.026	-60.562	0.186	0.078
-456.011	-200.000	0.003	-0.172
-454.997	-169.609	0.180	0.006
-453.982	-50.142	0.427	0.200
-452.968	-46.259	-0.232	-0.113
-451.953	-200.000	0.059	-0.306
-450.938	-200.000	-0.010	-0.071
-449.924	-200.000	-0.016	0.120
-448.909	800.000	0.047	0.149
-447.895	800.000	-0.042	0.146
-446.880	-37.628	0.216	0.114
-445.865	-74.266	-0.105	0.038
-444.851	-129.035	0.087	-0.012
-443.836	248.749	0.108	0.181
-442.822	-110.138	-0.240	0.049
-441.807	184.794	-0.252	-0.369
-440.792	800.000	-0.076	0.265
-439.778	-80.811	-0.190	-0.062
-438.763	84.152	0.142	-0.154
-437.749	-41.029	-0.066	-0.034
-436.734	-59.750	0.094	-0.040
-435.719	401.295	-0.104	-0.216
-434.705	-200.000	-0.065	-0.305
-433.690	-22.646	-0.113	0.068
-432.676	21.747	-0.161	0.130
-431.661	-200.000	0.010	-0.128
-430.646	201.540	0.160	0.244
-429.632	-200.000	-0.035	0.589
-428.617	-200.000	-0.026	-0.319
-427.603	-198.766	0.199	0.001
-426.588	38.687	-0.168	0.148
-425.573	-114.150	-0.256	-0.049
-424.559	-92.588	-0.278	0.077
-423.544	-200.000	-0.029	-0.419
-422.530	667.793	0.062	-0.158
-421.515	-120.725	0.347	0.058
-420.500	-143.942	0.160	-0.015
-419.486	-200.000	-0.025	-0.167
-418.471	152.323	0.154	0.208
-417.457	126.853	-0.146	0.182
-416.442	800.000	0.112	-0.314
-415.428	216.641	-0.147	-0.232
-414.413	-200.000	0.023	0.265
-413.398	485.773	-0.146	-0.330
-412.384	-68.514	0.098	0.037
-411.369	-200.000	0.002	0.015
-410.355	116.690	-0.141	-0.171
-409.340	-79.113	-0.291	-0.098
-408.325	47.814	0.069	0.063
-407.311	-43.378	0.315	0.158
-406.296	-87.052	-0.410	-0.123
-405.282	14.661	-0.239	0.185
-404.267	-51.869	0.180	-0.083
-403.252	680.632	0.170	0.439
-402.238	-179.617	-0.312	-0.007
-401.223	-173.720	0.502	-0.015
-400.209	108.197	-0.117	-0.138
-399.194	50.737	-0.176	0.165
-398.179	-8.747	0.180	0.119
-397.165	58.165	0.273	-0.265
-396.150	-200.000	0.078	0.375
-395.136	800.000	0.075	0.223
-394.121	800.000	0.062	0.195
-393.106	-23.187	-0.201	0.120
-392.092	-94.169	0.285	-0.077
-391.077	-55.548	0.102	0.045
-390.063	143.518	0.076	-0.100
-389.048	-74.925	0.309	-0.109
-388.033	-200.000	0.020	0.108
-387.019	582.984	-0.025	0.060
-386.004	1.639	-0.223	-0.158
-384.990	-200.000	-0.002	0.368
-383.975	-161.569	0.424	0.021
-382.960	214.732	-0.059	0.092
-381.946	800.000	0.132	0.482
-380.931	606.831	0.112	0.276
-379.917	-120.186	-0.058	0.010
-378.902	355.528	-0.128	-0.252
-377.888	-123.284	-0.016	-0.003
-376.873	764.118	-0.025	0.066
-375.858	724.840	0.070	0.184
-374.844	-200.000	0.251	0.001
-373.829	-120.426	-0.124	0.021
-372.815	-117.851	0.284	-0.050
-371.800	220.566	-0.273	0.432
-370.785	-134.033	-0.201	-0.025
-369.771	-177.226	-0.192	0.005
-368.756	-200.000	0.001	0.126
-367.742	-138.647	-0.370	0.040
-366.727	242.029	0.091	-0.150
-365.712	-82.890	-0.181	0.058
-364.698	280.939	-0.118	0.208
-363.683	-107.890	0.290	-0.062
-362.669	65.366	-0.208	0.208
-361.654	-129.746	0.341	-0.046
-360.639	-178.278	0.176	0.004
-359.625	-10.127	-0.282	0.185
-358.610	13.290	0.047	0.036
-357.596	-93.355	0.125	0.034
-356.581	-200.000	0.004	0.028
-355.566	-103.380	-0.241	-0.056
-354.552	129.388	-0.031	0.040
-353.537	800.000	0.071	-0.288
-352.523	56.891	-0.248	-0.238
-351.508	-101.476	0.457	-0.110
-350.493	-200.000	0.000	0.096
-349.479	-25.543	0.353	0.206
-348.464	29.546	-0.218	0.182
-347.450	-67.961	-0.161	-0.062
-346.435	-200.000	-0.048	-0.261
-345.420	-28.767	-0.346	-0.196
-344.406	-200.000	0.025	-0.200
-343.391	-53.149	-0.264	0.119
-342.377	-41.119	-0.130	0.066
-341.362	800.000	-0.114	0.398
-340.348	-91.342	0.186	-0.052
-339.333	44.978	0.089	0.081
-338.318	-148.937	-0.154	0.012
-337.304	101.429	0.103	-0.118
-336.289	-169.616	-0.351	-0.013
-335.275	69.698	-0.055	-0.056
-334.260	-21.035	-0.056	0.034
-333.245	-108.796	0.175	-0.037
-332.231	-125.116	-0.261	0.040
-331.216	-195.286	-0.227	-0.002
-330.202	-63.227	-0.217	0.088
-329.187	-174.332	-0.254	0.007
-328.172	-30.022	-0.112	-0.063
-327.158	-18.979	-0.168	-0.103
-326.143	-200.000	-0.169	0.001
-325.129	-193.690	-0.084	0.001
-324.114	60.520	-0.058	-0.057
-323.099	-48.759	0.160	-0.076
-322.085	-56.392	0.323	0.141
-321.070	-177.760	0.183	-0.004
-320.056	800.000	-0.044	0.136
-319.041	-97.081	0.241	-0.062
-318.026	295.152	-0.143	-0.258
-317.012	-175.880	-0.069	-0.002
-315.997	31.921	0.264	-0.224
-314.983	164.753	-0.246	-0.342
-313.968	800.000	-0.126	0.481
-312.953	-177.626	0.116	0.003
-311.939	800.000	0.052	0.180
-310.924	-121.179	-0.207	0.034
-309.910	-69.880	0.209	-0.078
-308.895	17.218	0.214	-0.167
-307.880	136.139	-0.144	0.184
-306.866	371.025	0.169	0.337
-305.851	-200.000	0.024	-0.187
-304.837	-200.000	-0.028	0.212
-303.822	-192.602	-0.234	0.002
-302.807	-63.662	-0.217	0.088
-301.793	54.007	0.224	0.212
-300.778	-9.049	0.205	-0.135
-299.764	479.223	0.140	0.311
-298.749	-129.191	-0.314	0.043
-297.735	-1.835	0.251	-0.174
-296.720	-2.869	0.282	-0.194
-295.705	-174.657	0.177	0.005
-294.691	-30.913	-0.187	0.104
-293.676	-200.000	-0.027	-0.275
-292.662	404.921	0.093	-0.194
-291.647	139.244	-0.067	0.086
-290.632	800.000	-0.039	0.119
-289.618	30.902	0.164	0.139
-288.603	487.571	-0.106	0.238
-287.589	559.669	-0.170	0.403
-286.574	-200.000	-0.028	0.122
-285.559	-30.308	0.246	-0.137
-284.545	-52.755	0.212	0.096
-283.530	-105.189	0.348	-0.078
-282.516	-99.507	0.130	-0.032
-281.501	-142.261	-0.076	-0.007
-280.486	-52.230	-0.166	0.076
-279.472	339.450	0.105	-0.200
-278.457	370.229	0.099	0.197
-277.443	-200.000	0.018	0.168
-276.428	-126.476	-0.047	-0.007
-275.413	331.681	-0.149	-0.282
-274.399	800.000	-0.016	0.062
-273.384	-124.728	0.202	-0.031
-272.370	-200.000	0.013	0.077
-271.355	17.387	0.055	0.043
-270.340	429.852	0.116	-0.246
-269.326	-73.497	-0.599	-0.215
-268.311	213.854	-0.130	-0.203
-267.297	-47.554	0.127	0.061
-266.282	-76.235	-0.104	0.036
-265.267	800.000	0.101	-0.357
-264.253	-118.751	0.049	0.009
-263.238	157.331	-0.077	0.105
-262.224	-200.000	-0.007	0.084
-261.209	56.870	-0.061	-0.059
-260.195	-200.000	0.009	0.183
-259.180	-167.251	-0.182	-0.007
-258.165	531.427	-0.135	0.314
-257.151	173.559	-0.143	-0.203
-256.136	800.000	0.036	-0.129
-255.122	-31.604	-0.094	0.052
-254.107	-92.123	-0.029	-0.008
-253.092	-200.000	-0.050	-0.334
-252.078	772.908	0.050	0.133
-251.063	-83.610	0.210	0.066
-250.049	176.384	-0.018	-0.026
-249.034	67.783	-0.128	-0.128
-248.019	167.576	0.060	0.083
-247.005	-33.976	-0.159	0.086
-245.990	-16.253	0.361	0.225
-244.976	-81.909	-0.144	0.046
-243.961	146.175	0.146	0.193
-242.946	151.313	0.237	0.317
-241.932	182.816	-0.087	0.126
-240.917	337.010	0.016	0.031
-239.903	800.000	0.029	-0.120
-238.888	-78.728	0.060	-0.020
-237.873	-172.675	0.122	-0.004
-236.859	431.973	-0.123	0.261
-235.844	143.788	0.114	0.149
-234.830	-39.261	-0.334	0.172
-233.815	94.499	0.104	-0.116
-232.800	214.652	-0.214	0.333
-231.786	800.000	0.095	0.319
-230.771	-200.000	0.027	0.263
-229.757	-200.000	-0.011	-0.343
-228.742	734.491	-0.022	0.057
-227.727	12.119	-0.150	-0.113
-226.713	-105.699	0.186	0.041
-225.698	371.587	0.157	0.313
-224.684	-200.000	-0.004	-0.283
-223.669	-134.909	-0.313	-0.037
-222.655	55.640	-0.086	0.082
-221.640	-200.000	-0.065	0.398
-220.625	-45.710	0.047	-0.023
-219.611	332.128	0.082	0.156
-218.596	-112.934	0.324	-0.063
-217.582	-153.242	-0.245	-0.017
-216.567	800.000	0.090	-0.351
-215.552	-13.209	-0.283	0.181
-214.538	-200.000	-0.063	0.282
-213.523	242.696	-0.215	0.353
-212.509	-200.000	0.044	0.363
-211.494	-117.615	-0.477	-0.084
-210.479	-34.651	0.103	-0.055
-209.465	22.733	-0.137	-0.110
-208.450	-200.000	0.003	-0.460
-207.436	409.430	-0.072	-0.150
-206.421	293.989	0.074	0.132
-205.406	800.000	-0.075	-0.289
-204.392	800.000	-0.068	-0.228
-203.377	-78.943	-0.320	-0.107
-202.363	-49.216	0.263	0.123
-201.348	-69.012	0.451	-0.171
-200.333	-40.320	-0.182	-0.093
-199.319	68.054	-0.036	-0.036
-198.304	-52.421	0.032	0.014
-197.290	-200.000	0.030	0.317
-196.275	800.000	-0.042	-0.153
-195.260	65.108	0.125	-0.124
-194.246	-129.506	-0.188	0.026
-193.231	-148.597	0.129	0.010
-192.217	-139.442	0.201	-0.021
-191.202	225.686	0.194	0.309
-190.187	800.000	-0.055	-0.162
-189.173	-111.891	-0.291	0.058
-188.158	800.000	-0.100	-0.335
-187.144	69.471	0.124	0.125
-186.129	-12.804	0.178	0.113
-185.114	147.408	-0.024	0.032
-184.100	-90.605	0.143	0.040
-183.085	-137.737	0.610	-0.067
-182.071	124.301	0.072	-0.089
-181.056	-161.124	0.089	0.005
-180.042	9.772	0.356	0.264
-179.027	311.160	0.188	0.345
-178.012	526.835	-0.065	0.151
-176.998	-86.702	0.244	-0.073
-175.983	-99.208	-0.250	-0.062
-174.969	-200.000	-0.053	-0.350
-173.954	-200.000	-0.003	0.062
-172.939	-92.720	0.052	-0.014
-171.925	-99.041	0.225	-0.056
-170.910	-200.000	-0.009	0.122
-169.896	-51.592	-0.157	0.072
-168.881	-100.188	0.246	-0.060
-167.866	84.686	0.192	-0.205
-166.852	185.305	0.133	-0.193
-165.837	-200.000	-0.028	-0.143
-164.823	188.940	-0.047	-0.069
-163.808	-200.000	0.020	0.187
-162.793	28.504	0.049	0.040
-161.779	-112.352	-0.250	0.049
-160.764	287.951	0.135	0.240
-159.750	-41.865	0.022	-0.011
-158.735	-200.000	0.010	-0.140
-157.720	-200.000	0.006	0.118
-156.706	-12.797	0.070	-0.044
-155.691	-122.011	-0.330	0.053
-154.677	-200.000	0.067	-0.449
-153.662	-200.000	-0.057	-0.423
-152.647	-11.992	-0.260	-0.167
-151.633	-87.720	-0.118	0.035
-150.618	-142.842	-0.247	0.024
-149.604	469.086	0.070	0.154
-148.589	-49.191	0.112	-0.052
-147.574	-90.710	-0.274	-0.077
-146.560	59.939	0.301	0.291
-145.545	25.530	0.179	-0.146
-144.531	-151.846	0.477	0.034
-143.516	800.000	0.055	0.182
-142.502	-200.000	-0.041	-0.224
-141.487	-200.000	-0.001	-0.156
-140.472	401.626	0.117	-0.240
-139.458	800.000	-0.068	-0.246
-138.443	-200.000	0.018	0.083
-137.429	-42.312	0.192	0.096
-136.414	-62.142	-0.216	0.088
-135.399	422.177	0.117	0.246
-134.385	296.810	0.133	0.239
-133.370	-200.000	0.043	0.380
-132.356	-200.000	-0.021	0.264
-131.341	320.326	0.047	0.086
-130.326	-67.618	0.231	0.089
-129.312	-200.000	0.003	-0.174
-128.297	5.035	0.132	0.095
-127.283	-200.000	0.001	0.065
-126.268	-67.287	0.075	0.029
-125.253	-200.000	-0.023	-0.135
-124.239	-51.185	0.148	-0.068
-123.224	-200.000	0.014	0.083
-122.210	-121.430	0.342	-0.056
-121.195	-122.408	0.343	0.055
-120.180	-55.393	-0.151	-0.066
-119.166	105.723	-0.121	0.140
-118.151	21.204	-0.201	0.160
-117.137	-61.885	0.246	-0.100
-116.122	419.442	0.033	-0.069
-115.107	-4.001	0.228	-0.155
-114.093	-59.041	-0.118	0.050
-113.078	-73.436	0.205	-0.073
-112.064	146.069	-0.077	0.102
-111.049	-122.823	-0.087	-0.014
-110.034	-42.670	-0.050	-0.025
-109.020	-200.000	-0.063	0.271
-108.005	-200.000	-0.056	0.492
-106.991	-174.603	-0.083	-0.002
-105.976	159.140	-0.141	-0.191
-104.962	-200.000	0.002	0.394
-103.947	-106.023	0.042	-0.009
-102.932	-177.751	0.348	0.008
-101.918	-200.000	-0.054	0.332
-100.903	379.713	0.040	-0.080
-99.889	-133.845	0.306	-0.037
-98.874	-200.000	-0.016	0.243
-97.859	800.000	-0.076	0.211
-96.845	225.658	-0.139	-0.220
-95.830	-92.033	-0.226	0.063
-94.816	-72.301	0.216	-0.078
-93.801	-200.000	-0.054	-0.321
-92.786	-114.567	-0.130	-0.024
-91.772	-200.000	0.000	-0.124
-90.757	800.000	0.030	-0.115
-89.743	-121.734	0.122	0.020
-88.728	34.644	-0.137	-0.117
-87.713	223.157	-0.121	-0.191
-86.699	231.763	-0.163	-0.261
-85.684	-11.712	0.159	-0.102
-84.670	486.070	0.047	-0.105
-83.655	-110.743	-0.340	-0.068
-82.640	90.206	0.161	-0.176
-81.626	-97.726	-0.274	0.069
-80.611	800.000	0.073	-0.232
-79.597	-54.453	0.177	-0.078
-78.582	194.342	0.178	-0.263
-77.567	-200.000	-0.062	-0.298
-76.553	-108.111	-0.088	-0.019
-75.538	-122.264	-0.158	0.025
-74.524	119.288	0.226	-0.273
-73.509	-41.127	0.108	-0.054
-72.494	17.063	0.208	0.161
-71.480	-15.647	-0.282	0.175
-70.465	-123.752	0.209	-0.032
-69.451	232.790	0.069	-0.110
-68.436	-68.228	0.393	-0.149
-67.422	800.000	-0.042	0.169
-66.407	-88.431	-0.413	-0.120
-65.392	251.550	0.112	-0.185
-64.378	-67.510	-0.354	0.136
-63.363	800.000	0.016	0.062
-62.349	-48.534	0.282	0.132
-61.334	33.012	-1.102	-0.931
-60.319	256.145	0.421	0.703
-59.305	-200.000	-0.147	-1.168
-58.290	221.894	0.869	1.362
-57.276	232.503	0.853	1.365
-56.261	-200.000	125.072	649.613
-55.246	403.697	1580.782	3243.171
-54.232	141.096	2742.805	3535.383
-53.217	93.960	2190.925	2421.332
-52.203	33.717	1706.336	1446.208
-51.188	26.268	1523.907	1240.609
-50.173	24.384	1499.815	1208.208
-49.159	49.064	1571.462	1438.362
-48.144	45.966	1584.216	1428.457
-47.130	26.359	1533.022	1248.466
-46.115	23.526	1516.798	1215.816
-45.100	23.354	1513.639	1212.056
-44.086	23.280	1511.152	1209.509
-43.071	23.206	1510.118	1208.128
-42.057	23.156	1508.489	1206.442
-41.042	23.193	1506.654	1205.173
-40.027	23.313	1505.006	1204.623
-39.013	23.179	1503.598	1202.541
-37.998	23.214	1502.708	1202.021
-36.984	23.274	1501.124	1201.113
-35.969	23.245	1499.597	1199.646
-34.954	23.234	1498.193	1198.397
-33.940	23.213	1496.987	1197.245
-32.925	23.115	1496.136	1195.857
-31.911	23.315	1494.046	1195.488
-30.896	23.355	1492.518	1194.484
-29.881	23.239	1491.935	1193.192
-28.867	23.313	1490.341	1192.365
-27.852	23.290	1489.128	1191.192
-26.838	23.265	1487.693	1189.832
-25.823	23.313	1486.407	1189.076
-24.809	23.300	1484.441	1187.367
-23.794	23.203	1483.065	1185.572
-22.779	23.334	1481.686	1185.303
-21.765	23.325	1480.338	1184.117
-20.750	23.262	1479.942	1183.333
-19.736	23.233	1478.488	1181.929
-18.721	23.294	1477.360	1181.382
-17.706	23.336	1476.195	1180.690
-16.692	23.207	1475.405	1179.148
-15.677	23.314	1473.928	1178.634
-14.663	23.295	1473.029	1177.743
-13.648	23.310	1472.258	1177.180
-12.633	23.208	1471.381	1175.750
-11.619	23.186	1470.822	1175.114
-10.604	23.241	1469.521	1174.393
-9.590	23.191	1469.093	1173.673
-8.575	23.172	1468.067	1172.676
-7.560	23.238	1466.923	1172.156
-6.546	23.275	1466.297	1171.853
-5.531	23.242	1465.217	1170.726
-4.517	23.346	1463.853	1170.277
-3.502	23.308	1463.372	1169.594
-2.487	23.339	1462.463	1169.023
-1.473	23.239	1461.779	1167.776
-0.458	23.324	1459.787	1166.696
0.556	21.547	1450.228	1154.779
1.571	18.417	1426.057	1115.090
2.586	14.911	1364.427	1044.934
3.600	13.509	1279.639	971.694
4.615	12.428	1236.540	932.752
5.629	10.988	1179.821	882.084
6.644	5.401	1098.549	792.982
7.659	0.829	1062.981	744.767
8.673	0.352	1057.456	738.492
9.688	0.209	1054.299	735.528
10.702	0.091	1053.098	734.048
11.717	0.148	1050.608	732.524
12.731	2.090	1051.455	742.500
13.746	7.978	1059.976	777.253
14.761	14.109	1067.567	812.801
15.775	16.612	1070.028	826.849
16.790	16.417	1069.218	825.198
17.804	15.361	1067.154	818.385
18.819	14.678	1065.096	813.406
19.834	14.245	1063.628	810.104
20.848	13.996	1062.772	808.172
21.863	13.768	1062.084	806.470
22.877	13.574	1060.923	804.574
23.892	13.335	1060.340	802.898
24.907	13.253	1059.509	801.804
25.921	13.242	1058.403	800.840
26.936	13.151	1058.462	800.373
27.950	13.320	1057.689	800.538
28.965	13.334	1056.517	799.644
29.980	13.364	1055.895	799.248
30.994	13.417	1054.904	798.686
32.009	13.414	1053.976	797.896
33.023	13.540	1053.382	797.984
34.038	13.483	1052.914	797.284
35.053	13.473	1051.883	796.384
36.067	13.265	1051.128	794.741
37.082	13.442	1049.777	794.500
38.096	13.332	1049.276	793.524
39.111	13.367	1048.459	793.005
40.126	13.390	1047.907	792.627
41.140	13.294	1046.897	791.331
42.155	13.312	1045.749	790.480
43.169	13.154	1044.964	789.063
44.184	13.260	1043.791	788.612
45.199	13.274	1043.032	788.036
46.213	13.237	1041.576	786.691
47.228	13.221	1040.564	785.780
48.242	13.293	1039.848	785.510
49.257	13.326	1038.627	784.675
50.271	13.397	1037.368	783.994
51.286	13.384	1036.783	783.422
52.301	13.407	1036.202	783.020
53.315	13.346	1035.448	782.094
54.330	13.443	1034.366	781.667
55.344	13.231	1034.018	780.331
56.359	13.333	1032.264	779.417
57.374	13.404	1031.363	779.004
58.388	13.288	1031.046	778.150
59.403	13.175	1030.594	777.209
60.417	13.172	1029.704	776.454
61.432	13.246	1028.799	776.050
62.447	13.252	1027.731	775.205
63.461	13.158	1026.948	774.104
64.476	13.120	1026.020	773.158
65.490	13.066	1025.479	772.429
66.505	13.204	1024.348	772.157
67.520	13.245	1023.499	771.641
68.534	13.239	1023.139	771.270
69.549	13.219	1022.088	770.317
70.563	13.288	1021.318	769.991
71.578	13.229	1020.832	769.280
72.593	13.249	1019.687	768.441
73.607	13.142	1019.050	767.397
74.622	13.145	1018.017	766.567
75.636	13.024	1017.568	765.601
76.651	13.285	1015.860	765.454
77.666	13.149	1015.713	764.647
78.680	13.184	1014.662	763.951
79.695	13.226	1014.018	763.590
80.709	13.130	1013.873	762.970
81.724	13.244	1012.746	762.580
82.739	13.166	1012.143	761.701
83.753	13.228	1011.279	761.266
84.768	13.364	1010.701	761.393
85.782	13.322	1009.943	760.559
86.797	13.393	1008.919	760.047
87.812	13.420	1007.902	759.338
88.826	13.352	1007.322	758.521
89.841	13.310	1006.562	757.689
90.855	13.367	1005.498	757.083
91.870	13.430	1004.912	756.861
92.884	13.425	1004.116	756.173
93.899	13.388	1003.713	755.634
94.914	13.500	1003.102	755.616
95.928	13.486	1001.776	754.490
96.943	13.590	1001.218	754.476
97.957	13.452	1000.941	753.572
98.972	13.609	999.680	753.271
99.987	13.435	999.187	752.043
101.001	13.487	998.314	751.553
102.016	13.431	997.951	750.961
103.030	13.441	996.535	749.874
104.045	13.492	995.400	749.182
105.060	13.409	994.560	748.111
106.074	13.298	993.626	746.839
107.089	13.350	993.075	746.592
108.103	13.349	992.384	746.004
109.118	13.374	991.189	745.153
110.133	13.331	990.513	744.386
111.147	13.237	989.880	743.422
112.162	13.331	988.793	742.962
113.176	13.374	988.091	742.559
114.191	13.393	987.012	741.767
115.206	13.340	985.792	740.548
116.220	13.314	985.371	740.052
117.235	13.437	984.307	739.735
118.249	13.447	983.407	739.040
119.264	13.407	982.624	738.209
120.279	13.351	982.169	737.551
121.293	13.352	981.122	736.705
122.308	13.367	979.952	735.825
123.322	13.257	979.436	734.885
124.337	13.367	978.155	734.345
125.352	13.305	977.137	733.242
126.366	13.329	975.782	732.269
127.381	13.227	974.800	731.013
128.395	13.259	974.081	730.551
129.410	13.317	972.902	729.858
130.424	13.262	972.278	729.081
131.439	13.352	970.790	728.298
132.454	13.408	970.200	728.039
133.468	13.455	969.889	727.948
134.483	13.347	969.194	726.889
135.497	13.394	968.461	726.477
136.512	13.446	967.074	725.603
137.527	13.399	966.802	725.128
138.541	13.348	965.897	724.162
139.556	13.510	965.024	724.153
140.570	13.492	964.329	723.489
141.585	13.364	964.080	722.677
142.600	13.508	963.376	722.716
143.614	13.682	962.108	722.458
144.629	13.536	961.544	721.335
145.643	13.462	960.833	720.416
146.658	13.599	959.755	720.137
147.673	13.531	959.018	719.228
148.687	13.528	958.284	718.600
149.702	13.473	957.337	717.589
150.716	13.388	956.824	716.773
151.731	13.406	956.069	716.219
152.746	13.425	954.691	715.207
153.760	13.543	954.360	715.406
154.775	13.580	953.792	715.077
155.789	13.654	952.905	714.666
156.804	13.583	951.904	713.548
157.819	13.703	951.209	713.477
158.833	13.580	950.575	712.414
159.848	13.667	950.251	712.482
160.862	13.687	949.346	711.826
161.877	13.681	948.619	711.192
162.892	13.705	947.531	710.414
163.906	13.578	946.999	709.407
164.921	13.677	946.005	709.024
165.935	13.774	944.732	708.423
166.950	13.656	944.323	707.549
167.964	13.581	943.610	706.631
168.979	13.646	942.409	705.947
169.994	13.785	941.467	705.772
171.008	13.767	940.403	704.836
172.023	13.778	939.807	704.371
173.037	13.646	939.195	703.290
174.052	13.830	938.180	703.247
175.067	13.826	937.480	702.647
176.081	13.846	936.672	702.062
177.096	13.692	936.247	701.030
178.110	13.816	935.186	700.695
179.125	13.775	934.402	699.873
180.140	13.797	933.842	699.486
181.154	13.779	933.433	699.040
182.169	13.786	932.679	698.445
183.183	13.883	931.712	698.066
184.198	13.870	931.068	697.469
185.213	13.777	930.555	696.631
186.227	13.940	929.674	696.594
187.242	13.943	929.583	696.479
188.256	14.033	928.263	695.801
189.271	14.058	927.762	695.472
190.286	14.043	926.699	694.551
191.300	13.877	926.301	693.495
192.315	13.946	925.488	693.113
193.329	13.832	925.180	692.345
194.344	13.744	924.780	691.618
195.359	13.919	923.463	691.300
196.373	13.976	922.912	691.064
197.388	14.019	922.493	690.869
198.402	14.145	921.975	690.944
199.417	14.033	921.570	690.113
200.432	14.112	921.220	690.120
201.446	14.187	920.632	689.928
202.461	14.039	920.667	689.280
203.475	14.291	919.481	689.373
204.490	14.278	919.071	688.951
205.504	14.237	918.171	688.048
206.519	14.260	917.161	687.322
207.534	14.143	916.680	686.419
208.548	14.212	916.118	686.223
209.563	14.233	915.266	685.609
210.577	14.277	914.553	685.198
211.592	14.243	913.892	684.503
212.607	14.307	913.450	684.370
213.621	14.464	912.534	684.270
214.636	14.360	912.130	683.480
215.650	14.443	911.233	683.088
216.665	14.384	910.858	682.504
217.680	14.431	910.654	682.485
218.694	14.519	909.506	681.924
219.709	14.452	909.359	681.479
220.723	14.482	908.459	680.866
221.738	14.530	908.042	680.687
222.753	14.269	907.961	679.504
223.767	14.484	906.507	679.232
224.782	14.469	905.644	678.464
225.796	14.538	904.633	677.925
226.811	14.663	904.372	678.178
227.826	14.495	903.362	676.677
228.840	14.623	902.977	676.848
229.855	14.440	902.382	675.603
230.869	14.455	901.902	675.243
231.884	14.630	901.209	675.374
232.899	14.561	900.467	674.479
233.913	14.481	900.017	673.757
234.928	14.451	899.090	672.882
235.942	14.507	898.255	672.426
236.957	14.572	897.575	672.119
237.972	14.370	897.504	671.193
238.986	14.678	896.059	671.291
240.001	14.512	895.628	670.243
241.015	14.544	895.174	669.971
242.030	14.630	894.305	669.608
243.045	14.601	893.761	669.022
244.059	14.680	893.132	668.811
245.074	14.757	892.042	668.242
246.088	14.693	891.927	667.844
247.103	14.843	890.986	667.678
248.117	14.799	890.655	667.194
249.132	14.743	890.152	666.536
250.147	14.872	889.339	666.380
251.161	15.002	888.694	666.356
252.176	14.923	888.152	665.577
253.190	14.913	887.529	665.013
254.205	15.043	886.782	664.911
255.220	15.067	886.365	664.632
256.234	15.178	885.480	664.353
257.249	15.153	884.648	663.567
258.263	15.157	884.365	663.313
259.278	15.096	884.236	662.916
260.293	15.091	883.461	662.257
261.307	15.022	883.176	661.710
262.322	15.140	882.623	661.704
263.336	15.205	881.338	660.941
264.351	15.145	881.053	660.433
265.366	15.218	880.801	660.473
266.380	15.284	879.896	659.994
267.395	15.353	879.074	659.590
268.409	15.339	878.135	658.771
269.424	15.199	878.069	658.117
270.439	15.260	876.577	657.178
271.453	15.367	876.002	657.108
272.468	15.246	875.420	656.138
273.482	15.231	874.707	655.489
274.497	15.127	874.577	654.925
275.512	15.406	873.683	655.289
276.526	15.341	872.626	654.186
277.541	15.323	872.261	653.784
278.555	15.261	871.686	653.053
279.570	15.562	871.010	653.661
280.585	15.361	870.939	652.768
281.599	15.516	869.811	652.467
282.614	15.581	869.275	652.258
283.628	15.505	868.810	651.557
284.643	15.414	868.014	650.550
285.657	15.610	867.417	650.803
286.672	15.500	867.239	650.186
287.687	15.642	866.692	650.269
288.701	15.474	866.095	649.112
289.716	15.579	865.354	648.907
290.730	15.650	864.746	648.666
291.745	15.506	864.293	647.715
292.760	15.626	863.409	647.457
293.774	15.776	862.422	647.237
294.789	15.713	862.222	646.787
295.803	15.739	861.896	646.585
296.818	15.641	861.226	645.647
297.833	15.689	860.287	645.072
298.847	15.581	859.756	644.201
299.862	15.724	858.817	643.990
300.876	15.638	858.707	643.519
301.891	15.772	857.447	643.030
302.906	15.933	856.745	643.065
303.920	15.840	856.412	642.402
304.935	15.855	855.959	642.063
305.949	15.907	855.630	641.955
306.964	15.945	854.541	641.226
307.979	15.933	854.088	640.785
308.993	15.801	854.020	640.174
310.008	15.943	853.406	640.198
311.022	15.950	852.953	639.829
312.037	15.957	852.140	639.187
313.052	15.982	851.401	638.674
314.066	16.008	850.625	638.132
315.081	15.909	850.210	637.391
316.095	16.114	849.380	637.487
317.110	15.941	849.415	636.803
318.125	15.920	848.597	636.052
319.139	15.826	848.378	635.478
320.154	16.012	847.509	635.473
321.168	15.991	847.214	635.116
322.183	15.934	846.508	634.316
323.197	15.964	846.314	634.227
324.212	16.122	845.506	634.159
325.227	15.970	845.374	633.432
326.241	16.176	844.843	633.752
327.256	16.025	843.757	632.316
328.270	16.041	843.510	632.136
329.285	16.160	842.607	631.848
330.300	15.989	842.184	630.835
331.314	16.064	841.378	630.454
332.329	16.041	840.616	629.742
333.343	15.992	840.681	629.552
334.358	16.088	839.903	629.273
335.373	16.167	839.326	629.077
336.387	16.192	838.633	628.597
337.402	16.135	838.141	627.960
338.416	16.303	837.646	628.160
339.431	16.258	837.360	627.721
340.446	16.424	836.569	627.691
341.460	16.338	835.981	626.873
342.475	16.285	835.273	626.090
343.489	16.427	834.831	626.230
344.504	16.432	834.287	625.784
345.519	16.428	833.943	625.456
346.533	16.531	833.374	625.355
347.548	16.588	832.691	624.997
348.562	16.512	832.682	624.656
349.577	16.576	831.484	623.937
350.592	16.506	830.867	623.161
351.606	16.483	830.489	622.739
352.621	16.419	830.618	622.544
353.635	16.568	829.748	622.385
354.650	16.539	829.524	622.058
355.665	16.488	829.154	621.537
356.679	16.551	828.628	621.318
357.694	16.502	828.345	620.872
358.708	16.631	827.365	620.555
359.723	16.617	826.925	620.119
360.738	16.647	826.249	619.667
361.752	16.655	825.891	619.372
362.767	16.779	825.160	619.221
363.781	16.654	825.066	618.639
364.796	16.719	824.499	618.398
365.810	16.756	824.190	618.247
366.825	16.879	823.828	618.369
367.840	16.719	823.660	617.606
368.854	16.873	822.786	617.457
369.869	16.860	822.399	617.063
370.883	16.976	821.865	617.028
371.898	16.926	820.890	616.060
372.913	16.746	820.927	615.381
373.927	16.742	820.360	614.887
374.942	16.878	819.599	614.756
375.956	16.767	818.946	613.808
376.971	16.824	818.351	613.515
377.986	16.978	817.611	613.462
379.000	17.098	816.918	613.324
380.015	17.128	816.713	613.224
381.029	17.111	816.205	612.726
382.044	17.078	815.684	612.162
383.059	17.060	814.952	611.492
384.073	17.269	814.485	611.839
385.088	17.177	814.047	611.125
386.102	17.010	813.811	610.296
387.117	17.067	813.062	609.883
388.132	17.172	812.496	609.782
389.146	17.136	812.057	609.270
390.161	16.989	811.916	608.582
391.175	17.045	811.193	608.189
392.190	17.160	811.020	608.416
393.205	17.082	810.671	607.822
394.219	17.035	810.267	607.294
395.234	17.256	809.328	607.328
396.248	17.250	808.749	606.820
397.263	17.042	808.762	606.032
398.278	17.001	808.142	605.366
399.292	17.044	807.696	605.133
400.307	17.095	807.163	604.861
401.321	17.247	806.729	605.023
402.336	17.202	806.157	604.381
403.350	17.172	805.879	604.014
404.365	17.273	805.447	603.994
405.380	17.380	805.025	604.006
406.394	17.302	804.593	603.350
407.409	17.368	804.605	603.539
408.423	17.304	803.742	602.613
409.438	17.541	802.772	602.669
410.453	17.495	803.057	602.670
411.467	17.595	801.998	602.173
412.482	17.565	801.605	601.722
413.496	17.603	801.590	601.789
414.511	17.408	801.166	600.729
415.526	17.594	800.832	601.082
416.540	17.528	800.405	600.476
417.555	17.521	799.927	600.040
418.569	17.706	799.285	600.156
419.584	17.652	798.847	599.586
420.599	17.650	798.152	599.003
421.613	113.717	1298.360	1488.417
422.628	97.958	1371.203	1488.462
