DTS Sentinel unit serial number:	SN413079Multiplexer serial number:	ORYXHardware model number:	OX4-SRSoftware version number:	ORYX F/W v4.00 Oryx Data Collector v3.7.2.0data status	okinstallation	princeton_trtdifferential loss correction	single-endedforward channel	channel 3reverse channel	N/Adate	2019/09/12time	18:05:04forward acquisition time	15.00reverse acquisition time	0.00gamma	496.2192k internal	0.2316k external	0.2316temperature offset calibration	1.0103default loss term (dB/km)	0.3790temperature slope calibration	1.0000multiplexer offset coefficient	1.0000multiplexer slope coefficient	1.0000fibre end	0.00T internal ref (°C)	33.69T ext. ref 1 (°C)	2.94T ext. ref 2 (°C)	28.20length (m)	temperature (°C)	Stokes	anti-Stokes-747.200	-147.893	-0.463	0.039
-746.185	-25.718	0.218	0.130
-745.171	-200.000	-0.002	-0.242
-744.156	-200.000	-0.010	0.317
-743.142	800.000	-0.290	0.848
-742.127	498.907	-0.280	0.654
-741.112	-82.230	0.340	0.112
-740.098	133.030	0.165	-0.216
-739.083	113.431	-0.521	-0.641
-738.069	-12.914	0.929	-0.613
-737.054	-88.109	-0.264	-0.080
-736.039	269.837	-0.191	-0.340
-735.025	391.626	-0.249	-0.523
-734.010	44.740	-0.630	-0.587
-732.996	-109.770	-0.354	-0.075
-731.981	-101.505	-0.684	-0.169
-730.966	-200.000	0.000	0.376
-729.952	-200.000	0.099	-0.690
-728.937	31.758	0.390	-0.340
-727.923	93.129	-0.388	-0.444
-726.908	-69.687	0.345	0.133
-725.894	800.000	0.243	-0.856
-724.879	-45.237	-0.524	-0.263
-723.864	800.000	0.214	-0.909
-722.850	18.652	0.056	0.045
-721.835	747.425	0.152	-0.414
-720.821	628.539	0.239	0.611
-719.806	43.661	-0.492	-0.456
-718.791	-200.000	0.057	-0.366
-717.777	83.894	-0.210	0.232
-716.762	-80.015	-0.444	-0.151
-715.748	332.735	-0.059	-0.116
-714.733	3.954	0.468	0.346
-713.718	100.767	0.549	0.646
-712.704	-117.269	-0.290	0.053
-711.689	216.457	-0.142	0.228
-710.675	800.000	0.155	0.511
-709.660	-168.117	-0.829	-0.033
-708.645	-18.125	0.762	-0.483
-707.631	-74.528	0.473	0.172
-706.616	-92.878	-0.248	-0.070
-705.602	-140.533	0.682	-0.072
-704.587	-160.074	-0.807	0.044
-703.572	36.729	-0.479	-0.428
-702.558	-62.544	-0.591	-0.248
-701.543	-127.474	0.173	-0.025
-700.529	-74.683	-0.392	0.142
-699.514	345.427	0.450	0.895
-698.499	96.486	-0.377	-0.436
-697.485	344.128	-0.496	0.984
-696.470	800.000	0.263	-0.975
-695.456	108.013	-0.437	0.527
-694.441	2.640	0.149	0.109
-693.426	318.080	0.399	0.764
-692.412	121.013	-0.474	0.596
-691.397	-93.412	0.202	0.057
-690.383	23.500	-0.463	-0.385
-689.368	672.214	-0.155	0.407
-688.354	-140.395	-0.597	0.063
-687.339	174.467	-0.139	-0.203
-686.324	211.364	0.239	-0.380
-685.310	-178.943	-0.560	0.013
-684.295	59.416	0.457	-0.455
-683.281	-53.174	0.385	0.179
-682.266	-200.000	-0.030	-0.239
-681.251	-112.805	0.206	0.041
-680.237	139.453	0.278	-0.369
-679.222	-94.613	0.339	-0.093
-678.208	-130.224	-0.666	0.092
-677.193	78.874	0.390	-0.422
-676.178	-158.253	0.157	-0.009
-675.164	-40.156	-1.148	-0.604
-674.149	-59.504	0.782	0.339
-673.135	-164.502	0.535	-0.025
-672.120	433.347	-0.320	0.702
-671.105	-68.629	0.226	-0.089
-670.091	-134.568	-0.559	-0.069
-669.076	-87.822	-0.182	-0.055
-668.062	-88.662	1.197	0.360
-667.047	-2.645	0.223	-0.157
-666.032	-82.149	0.463	-0.152
-665.018	-190.870	-0.544	0.006
-664.003	-54.511	-0.770	-0.352
-662.989	-145.433	-0.356	0.032
-661.974	150.736	0.200	-0.274
-660.959	-200.000	0.005	-0.124
-659.945	32.744	-0.312	0.273
-658.930	117.506	0.224	-0.279
-657.916	126.868	0.117	0.149
-656.901	-75.576	0.114	-0.041
-655.886	-45.768	0.591	-0.295
-654.872	-106.938	0.428	0.096
-653.857	-80.324	0.221	0.075
-652.843	800.000	0.060	-0.196
-651.828	58.254	-0.270	-0.267
-650.814	301.508	0.517	-0.964
-649.799	-140.297	0.575	-0.061
-648.784	379.140	0.190	-0.392
-647.770	3.703	0.183	0.134
-646.755	106.425	-0.295	0.353
-645.741	101.607	0.310	-0.365
-644.726	-147.580	0.750	0.064
-643.711	800.000	-0.124	-0.374
-642.697	-200.000	0.014	-0.197
-641.682	-103.343	0.578	0.137
-640.668	49.883	-0.605	-0.576
-639.653	-71.178	-0.494	0.187
-638.638	-115.193	-0.576	0.110
-637.624	-200.000	0.055	0.511
-636.609	-131.956	-0.673	-0.089
-635.595	-200.000	0.060	0.517
-634.580	-200.000	-0.077	0.648
-633.565	-200.000	0.025	-0.298
-632.551	800.000	-0.179	-0.557
-631.536	-68.820	-0.239	-0.093
-630.522	-65.509	-0.389	-0.158
-629.507	135.926	0.196	0.257
-628.492	62.866	0.667	0.673
-627.478	234.765	-0.331	-0.550
-626.463	117.752	-0.258	0.320
-625.449	264.778	0.200	0.351
-624.434	-200.000	-0.151	-0.826
-623.419	-65.516	-0.537	-0.217
-622.405	180.273	0.276	-0.409
-621.390	-200.000	-0.086	1.178
-620.376	68.316	0.443	0.458
-619.361	-69.349	-0.873	-0.338
-618.346	69.890	0.113	0.118
-617.332	-49.097	0.230	-0.111
-616.317	27.658	-0.334	-0.284
-615.303	31.439	-0.076	-0.066
-614.288	-61.093	-0.878	-0.374
-613.273	-14.918	0.406	0.262
-612.259	-73.287	0.795	0.293
-611.244	-158.792	0.976	0.056
-610.230	-143.466	0.412	-0.040
-609.215	-76.017	-0.169	-0.060
-608.201	305.091	-0.299	0.559
-607.186	800.000	-0.193	0.712
-606.171	580.538	-0.071	0.176
-605.157	-148.161	-1.292	-0.108
-604.142	115.896	0.294	-0.362
-603.128	54.452	-0.377	-0.366
-602.113	-144.116	-0.597	-0.056
-601.098	-108.659	0.360	-0.078
-600.084	-200.000	0.061	0.803
-599.069	142.776	0.247	0.330
-598.055	38.313	-0.638	0.572
-597.040	-126.475	0.895	-0.134
-596.025	-71.243	-0.910	0.344
-595.011	-200.000	0.012	-0.138
-593.996	800.000	0.199	-0.833
-592.982	193.006	-0.170	-0.259
-591.967	-80.068	0.501	-0.169
-590.952	453.997	-0.296	-0.661
-589.938	-142.404	-0.487	-0.048
-588.923	204.642	-0.139	0.217
-587.909	-101.862	0.460	-0.112
-586.894	-109.693	0.335	-0.071
-585.879	290.855	0.391	-0.716
-584.865	100.647	-0.838	-0.980
-583.850	33.720	0.392	-0.344
-582.836	-200.000	0.069	-0.346
-581.821	-84.367	0.166	0.053
-580.806	-1.364	-0.512	-0.364
-579.792	219.819	0.387	0.623
-578.777	42.179	0.102	0.094
-577.763	-171.959	0.300	-0.010
-576.748	21.462	-0.336	-0.275
-575.733	800.000	-0.171	-0.588
-574.719	-119.614	-0.622	0.108
-573.704	210.189	0.312	-0.493
-572.690	800.000	-0.053	-0.206
-571.675	-143.150	-0.387	0.038
-570.661	35.209	0.296	0.261
-569.646	-200.000	-0.052	0.516
-568.631	-128.876	0.303	-0.043
-567.617	94.984	-0.483	-0.553
-566.602	-200.000	0.117	0.845
-565.588	800.000	0.180	-0.567
-564.573	146.722	0.469	-0.634
-563.558	86.103	-0.283	-0.313
-562.544	-34.452	-0.584	0.322
-561.529	350.508	-0.432	0.858
-560.515	800.000	-0.087	-0.289
-559.500	-22.481	0.205	-0.125
-558.485	523.258	-0.248	0.586
-557.471	-200.000	0.109	0.538
-556.456	18.527	-0.696	0.559
-555.442	213.105	-0.480	0.763
-554.427	-200.000	0.035	0.794
-553.412	-7.517	-0.352	0.240
-552.398	218.880	-0.270	0.434
-551.383	-200.000	-0.009	1.026
-550.369	-59.756	-0.641	-0.276
-549.354	-200.000	0.018	0.454
-548.339	243.053	-0.225	0.379
-547.325	-42.177	-0.874	0.449
-546.310	-33.132	0.370	0.206
-545.296	13.230	0.084	0.066
-544.281	85.220	-0.493	0.544
-543.266	49.501	1.120	-1.060
-542.252	-159.812	-0.405	-0.022
-541.237	210.478	-0.381	-0.602
-540.223	66.996	-0.380	-0.389
-539.208	-39.627	-0.168	-0.089
-538.193	-138.831	0.252	-0.028
-537.179	18.616	-0.823	0.662
-536.164	102.736	0.164	-0.192
-535.150	-200.000	-0.029	0.310
-534.135	-97.691	-0.511	-0.133
-533.121	-138.954	0.425	-0.046
-532.106	-52.681	0.766	0.355
-531.091	89.660	-0.306	-0.343
-530.077	-70.739	-0.404	-0.153
-529.062	-77.863	-0.820	-0.285
-528.048	-200.000	-0.066	0.000
-527.033	-113.740	-0.622	-0.122
-526.018	-26.412	-0.782	0.461
-525.004	-112.486	0.521	0.104
-523.989	-54.928	0.769	-0.348
-522.975	-59.422	-0.318	-0.137
-521.960	166.017	-0.221	0.314
-520.945	-65.636	0.931	-0.375
-519.931	800.000	-0.109	-0.413
-518.916	-114.340	-0.812	-0.157
-517.902	71.103	0.453	0.472
-516.887	-32.191	-0.683	0.383
-515.872	36.741	0.224	0.199
-514.858	-95.923	0.493	0.132
-513.843	-169.606	-0.464	0.017
-512.829	-78.283	-0.611	-0.211
-511.814	-198.178	-1.135	-0.007
-510.799	-200.000	-0.011	0.540
-509.785	-200.000	0.064	-1.089
-508.770	107.949	-0.262	-0.314
-507.756	39.243	-0.240	-0.216
-506.741	17.285	0.342	0.273
-505.726	-200.000	0.018	-0.181
-504.712	-200.000	0.082	-0.611
-503.697	-26.639	-0.748	0.439
-502.683	-23.135	-0.269	-0.162
-501.668	-98.943	0.249	-0.063
-500.653	31.725	-0.604	0.521
-499.639	-200.000	-0.083	-1.075
-498.624	-128.266	-0.709	-0.102
-497.610	55.868	-0.553	0.538
-496.595	275.113	0.429	0.762
-495.581	232.453	-0.249	0.411
-494.566	-107.171	0.801	-0.177
-493.551	-134.057	0.905	-0.112
-492.537	-196.348	-0.406	-0.003
-491.522	-200.000	0.001	0.651
-490.508	147.850	-0.143	0.194
-489.493	-200.000	0.029	0.149
-488.478	-118.130	-0.169	-0.030
-487.464	-111.184	0.989	0.203
-486.449	347.493	-0.146	-0.289
-485.435	128.754	-0.264	-0.337
-484.420	166.721	0.590	-0.839
-483.405	-29.652	-0.254	0.145
-482.391	-107.415	-0.550	-0.121
-481.376	-83.643	-0.615	0.197
-480.362	190.600	-0.492	-0.742
-479.347	-74.874	1.034	0.372
-478.332	3.557	-0.738	-0.540
-477.318	-114.659	0.276	0.053
-476.303	504.168	0.019	0.044
-475.289	167.406	-0.322	0.458
-474.274	-200.000	0.070	-0.470
-473.259	-59.183	0.066	-0.028
-472.245	239.728	0.215	-0.359
-471.230	800.000	-0.029	0.097
-470.216	-200.000	-0.030	0.743
-469.201	-4.651	0.327	-0.226
-468.186	-26.026	0.551	0.325
-467.172	196.915	0.196	-0.299
-466.157	122.196	0.288	0.360
-465.143	-200.000	-0.070	0.774
-464.128	93.782	0.162	-0.184
-463.113	-200.000	0.029	0.556
-462.099	207.118	0.207	0.324
-461.084	210.882	-0.320	-0.505
-460.070	-101.696	-0.789	-0.192
-459.055	71.742	0.355	-0.369
-458.040	-200.000	-0.020	0.407
-457.026	34.646	0.310	-0.271
-456.011	-200.000	-0.003	0.334
-454.997	57.185	0.275	-0.269
-453.982	-4.540	0.187	0.130
-452.968	-60.246	-0.262	0.112
-451.953	613.697	-0.127	-0.319
-450.938	-80.327	0.997	-0.334
-449.924	-122.104	0.319	-0.052
-448.909	384.065	0.372	-0.768
-447.895	6.460	0.218	-0.162
-446.880	54.492	-0.404	0.389
-445.865	-74.206	0.220	-0.080
-444.851	64.818	0.335	-0.339
-443.836	49.997	-0.168	-0.159
-442.822	800.000	-0.153	0.499
-441.807	-200.000	0.024	-0.295
-440.792	-32.965	0.162	-0.090
-439.778	37.765	0.565	-0.503
-438.763	800.000	0.048	0.175
-437.749	-63.479	-0.660	0.272
-436.734	29.798	0.328	0.279
-435.719	-121.507	0.744	0.124
-434.705	-115.825	0.747	-0.140
-433.690	-133.909	0.207	0.026
-432.676	-123.090	0.554	0.089
-431.661	77.164	0.338	-0.360
-430.646	-200.000	-0.068	0.732
-429.632	800.000	0.078	0.326
-428.617	-15.796	-0.508	-0.324
-427.603	-123.544	0.454	0.072
-426.588	800.000	0.095	0.279
-425.573	-61.803	-0.260	0.109
-424.559	-77.991	-0.623	0.215
-423.544	94.942	0.399	-0.454
-422.530	-19.046	1.350	0.839
-421.515	60.489	-0.221	0.219
-420.500	687.269	-0.228	-0.596
-419.486	20.273	0.606	0.490
-418.471	51.025	-0.058	0.055
-417.457	-200.000	-0.034	-0.165
-416.442	-143.507	0.650	0.062
-415.428	800.000	-0.058	-0.193
-414.413	800.000	0.112	0.429
-413.398	-119.734	-0.455	0.079
-412.384	605.351	0.177	0.440
-411.369	-163.940	-0.098	0.005
-410.355	-200.000	0.011	0.441
-409.340	-129.447	0.945	0.131
-408.325	361.616	0.245	-0.492
-407.311	-200.000	0.096	-0.974
-406.296	-101.809	0.489	0.118
-405.282	70.508	0.498	0.515
-404.267	-97.709	-0.229	0.059
-403.252	-175.229	0.279	-0.008
-402.238	-2.591	-0.136	0.095
-401.223	-117.198	0.393	-0.071
-400.209	647.019	0.091	-0.233
-399.194	-154.943	0.737	0.049
-398.179	2.082	-0.370	-0.267
-397.165	-2.512	0.340	0.238
-396.150	-200.000	0.066	-0.437
-395.136	800.000	0.067	-0.249
-394.121	8.887	0.274	0.206
-393.106	58.700	0.463	-0.455
-392.092	201.420	0.052	0.080
-391.077	188.722	0.205	-0.307
-390.063	-143.703	-0.165	0.016
-389.048	-47.900	-0.345	-0.167
-388.033	-200.000	0.024	0.284
-387.019	-200.000	-0.001	-0.330
-386.004	49.599	0.258	-0.243
-384.990	81.057	0.263	-0.284
-383.975	122.181	-0.180	-0.225
-382.960	-92.917	0.509	-0.142
-381.946	16.823	0.326	-0.258
-380.931	-138.126	0.588	0.065
-379.917	800.000	0.229	0.753
-378.902	-63.475	0.650	-0.267
-377.888	-200.000	0.057	-0.905
-376.873	-57.932	-0.166	0.072
-375.858	292.329	0.157	0.286
-374.844	59.274	0.239	0.235
-373.829	-19.236	0.931	0.577
-372.815	238.135	-0.109	-0.181
-371.800	352.289	0.173	0.343
-370.785	-92.702	-0.375	-0.105
-369.771	-126.967	-0.178	-0.026
-368.756	310.739	0.272	-0.509
-367.742	358.962	0.258	-0.514
-366.727	-30.067	-0.342	0.194
-365.712	219.876	0.094	-0.150
-364.698	-200.000	0.058	0.256
-363.683	161.260	-0.181	0.253
-362.669	-140.062	0.906	-0.095
-361.654	383.232	0.304	0.625
-360.639	-45.439	-0.813	-0.402
-359.625	-51.636	-0.744	-0.346
-358.610	-76.804	0.620	-0.217
-357.596	-6.123	0.453	0.309
-356.581	407.186	-0.405	0.854
-355.566	319.477	0.199	0.376
-354.552	-97.483	-0.292	0.076
-353.537	535.368	0.192	-0.456
-352.523	800.000	0.146	0.455
-351.508	800.000	-0.145	-0.406
-350.493	800.000	-0.302	-0.880
-349.479	-28.697	-0.435	0.250
-348.464	82.222	0.602	0.651
-347.450	-200.000	-0.002	-0.304
-346.435	-200.000	-0.003	-0.524
-345.420	253.955	-0.486	-0.828
-344.406	-54.505	0.644	-0.291
-343.391	174.674	-0.101	-0.146
-342.377	69.778	-0.370	-0.380
-341.362	-77.649	0.282	-0.097
-340.348	-101.090	0.876	0.214
-339.333	-200.000	-0.022	0.171
-338.318	800.000	0.004	-0.013
-337.304	-62.370	0.984	-0.408
-336.289	-33.409	0.385	-0.212
-335.275	-200.000	0.158	0.731
-334.260	800.000	-0.247	0.689
-333.245	-63.615	-0.597	-0.244
-332.231	158.444	-0.345	0.477
-331.216	-200.000	-0.041	0.639
-330.202	-200.000	0.050	0.424
-329.187	95.200	0.517	0.587
-328.172	404.194	-0.441	0.926
-327.158	-121.640	-0.806	0.133
-326.143	800.000	0.174	0.653
-325.129	497.105	0.322	-0.739
-324.114	-104.009	-0.678	0.157
-323.099	800.000	0.076	-0.227
-322.085	-200.000	-0.018	-0.506
-321.070	-200.000	-0.087	-0.707
-320.056	800.000	-0.095	0.347
-319.041	69.198	0.283	-0.290
-318.026	800.000	-0.198	0.598
-317.012	-45.642	-1.347	-0.664
-315.997	65.926	-0.361	-0.364
-314.983	-110.925	-0.278	0.057
-313.968	26.140	-0.614	0.511
-312.953	370.378	0.371	-0.749
-311.939	-200.000	-0.141	-0.839
-310.924	-16.475	-0.440	0.278
-309.910	800.000	-0.123	-0.513
-308.895	-112.174	-0.137	-0.027
-307.880	800.000	0.211	-0.817
-306.866	276.778	-0.309	-0.546
-305.851	-31.102	-0.611	-0.343
-304.837	79.607	0.346	-0.369
-303.822	233.069	0.407	0.667
-302.807	-61.720	1.081	0.451
-301.793	-200.000	-0.075	0.501
-300.778	-29.733	-0.465	0.264
-299.764	497.539	-0.190	0.436
-298.749	266.619	-0.247	-0.430
-297.735	-194.053	0.337	0.003
-296.720	-123.090	-0.088	-0.014
-295.705	413.020	-0.394	-0.833
-294.691	26.117	-0.371	-0.308
-293.676	75.364	0.625	0.657
-292.662	-126.080	-0.776	0.116
-291.647	-34.727	0.189	0.103
-290.632	-200.000	-0.014	-0.817
-289.618	-200.000	0.091	-0.566
-288.603	-134.986	0.876	0.105
-287.589	-76.642	-1.030	0.360
-286.574	-122.143	-0.341	-0.056
-285.559	-102.503	0.317	-0.075
-284.545	218.367	0.236	-0.375
-283.530	-184.100	-0.409	0.007
-282.516	-42.103	0.905	-0.461
-281.501	-198.533	-1.124	0.006
-280.486	233.236	0.206	0.337
-279.472	-89.465	-0.583	-0.171
-278.457	-14.047	0.880	-0.565
-277.443	-200.000	-0.005	-0.142
-276.428	-86.637	-0.552	-0.168
-275.413	800.000	0.078	-0.321
-274.399	49.441	-0.056	0.052
-273.384	-1.364	-0.589	0.414
-272.370	-23.893	0.147	0.088
-271.355	210.867	0.488	0.764
-270.340	-66.894	0.749	0.294
-269.326	97.196	0.388	0.443
-268.311	224.263	-0.306	0.491
-267.297	707.016	0.117	-0.309
-266.282	649.185	0.073	-0.186
-265.267	800.000	-0.306	-0.859
-264.253	-40.274	-0.357	0.185
-263.238	-76.728	0.294	-0.102
-262.224	625.158	-0.470	-1.178
-261.209	-200.000	-0.020	-0.428
-260.195	209.773	0.413	0.643
-259.180	166.868	-0.672	0.948
-258.165	16.985	0.452	0.356
-257.151	653.986	-0.234	0.596
-256.136	-200.000	-0.030	0.174
-255.122	-43.287	0.379	-0.191
-254.107	-200.000	0.071	0.451
-253.092	284.168	-0.208	0.371
-252.078	-200.000	-0.049	-0.226
-251.063	11.963	-0.042	0.032
-250.049	-119.503	-0.419	0.072
-249.034	800.000	-0.188	0.725
-248.019	-13.155	-0.287	-0.185
-247.005	8.953	-0.317	-0.237
-245.990	-17.949	0.948	0.590
-244.976	1.367	0.530	0.379
-243.961	180.530	0.434	0.634
-242.946	-200.000	0.023	0.421
-241.932	-104.980	0.690	-0.157
-240.917	-200.000	-0.023	0.478
-239.903	800.000	-0.078	0.252
-238.888	-122.392	0.549	-0.089
-237.873	-44.587	0.267	-0.132
-236.859	-54.088	-0.594	-0.268
-235.844	-9.877	-0.688	-0.455
-234.830	-104.710	0.393	-0.090
-233.815	-200.000	-0.014	-0.170
-232.800	10.508	-0.072	0.055
-231.786	277.193	0.191	-0.337
-230.771	133.977	0.188	0.241
-229.757	-75.157	0.405	0.144
-228.742	15.707	0.353	0.275
-227.727	180.566	-0.172	0.251
-226.713	-200.000	-0.210	1.086
-225.698	73.489	-0.356	0.370
-224.684	-200.000	0.018	0.269
-223.669	-149.012	0.314	0.025
-222.655	132.666	0.258	-0.331
-221.640	-98.703	-0.866	-0.219
-220.625	-180.520	-0.260	0.005
-219.611	383.793	0.236	-0.482
-218.596	-18.334	0.208	0.129
-217.582	448.679	-0.040	-0.088
-216.567	38.639	0.160	0.142
-215.552	-92.608	-0.372	-0.104
-214.538	66.973	0.495	0.500
-213.523	25.863	0.400	-0.331
-212.509	148.762	0.678	-0.910
-211.494	-98.850	-0.802	0.202
-210.479	449.647	-0.154	-0.337
-209.465	-33.415	-0.493	0.271
-208.450	-200.000	0.000	-0.920
-207.436	800.000	-0.229	0.780
-206.421	-200.000	-0.010	0.056
-205.406	-74.049	0.594	-0.213
-204.392	-40.465	-0.345	0.178
-203.377	-90.077	0.647	0.187
-202.363	-68.226	0.562	-0.217
-201.348	-109.337	0.201	0.042
-200.333	-37.488	-0.165	0.087
-199.319	-200.000	-0.020	0.540
-198.304	-200.000	0.023	0.321
-197.290	-62.598	0.353	-0.145
-196.275	-109.397	0.192	0.040
-195.260	-93.780	-0.154	-0.042
-194.246	-200.000	0.028	-0.291
-193.231	2.646	-0.171	0.123
-192.217	-104.308	0.533	0.123
-191.202	8.889	0.436	0.326
-190.187	-48.662	-0.650	-0.310
-189.173	-116.393	0.313	0.057
-188.158	-73.249	0.258	-0.094
-187.144	-200.000	-0.118	0.546
-186.129	531.234	0.265	-0.621
-185.114	-156.945	0.233	-0.014
-184.100	-200.000	0.004	0.491
-183.085	-200.000	-0.110	-0.738
-182.071	-133.108	-0.919	-0.115
-181.056	-53.537	0.715	-0.324
-180.042	-65.658	0.627	0.249
-179.027	67.367	-0.704	-0.712
-178.012	-200.000	0.046	-0.215
-176.998	800.000	0.261	0.976
-175.983	-156.439	-0.376	-0.023
-174.969	674.770	-0.250	-0.642
-173.954	-24.199	0.836	-0.494
-172.939	-36.779	-0.343	-0.182
-171.925	337.884	0.309	0.595
-170.910	42.320	-0.842	0.758
-169.896	-159.919	0.218	-0.012
-168.881	558.600	-0.171	-0.409
-167.866	-200.000	0.050	-0.365
-166.852	533.506	-0.178	-0.419
-165.837	53.531	0.395	0.375
-164.823	272.926	-0.386	-0.675
-163.808	800.000	-0.279	-0.793
-162.793	-1.925	-0.381	-0.265
-161.779	-28.517	-0.599	0.342
-160.764	-151.552	-0.375	0.028
-159.750	18.689	-0.483	-0.383
-158.735	27.209	-0.509	0.423
-157.720	-83.048	0.323	-0.103
-156.706	-200.000	0.110	-0.541
-155.691	-63.698	0.731	0.297
-154.677	-75.228	-0.421	0.149
-153.662	-138.784	-0.615	-0.066
-152.647	534.707	-0.123	0.288
-151.633	800.000	-0.037	-0.113
-150.618	-50.309	-0.224	-0.105
-149.604	-20.493	1.016	-0.618
-148.589	-200.000	-0.108	-0.581
-147.574	-200.000	0.049	-0.863
-146.560	-52.346	0.608	-0.279
-145.545	772.265	0.074	0.199
-144.531	-122.579	0.477	-0.077
-143.516	95.709	0.414	-0.468
-142.502	-200.000	-0.003	0.526
-141.487	800.000	0.209	-0.855
-140.472	-200.000	0.008	0.095
-139.458	-26.988	-0.733	-0.423
-138.443	-13.840	0.222	0.142
-137.429	45.352	-0.464	0.424
-136.414	800.000	-0.057	0.237
-135.399	-105.668	0.947	0.212
-134.385	-46.480	-0.803	0.390
-133.370	78.068	-0.164	0.173
-132.356	309.481	-0.423	-0.782
-131.341	-32.501	0.808	0.445
-130.326	134.728	0.520	-0.667
-129.312	26.275	0.454	-0.375
-128.297	119.292	0.487	0.596
-127.283	352.752	0.190	0.372
-126.268	798.217	-0.231	0.630
-125.253	-147.717	0.490	0.041
-124.239	248.047	0.238	-0.398
-123.224	33.389	0.325	0.279
-122.210	-146.804	-0.230	0.020
-121.195	-200.000	0.064	-0.511
-120.180	-87.536	0.400	0.119
-119.166	800.000	-0.087	0.332
-118.151	-149.439	0.792	0.062
-117.137	-200.000	-0.013	0.395
-116.122	-59.995	-0.662	0.280
-115.107	175.640	-0.181	0.259
-114.093	596.251	-0.144	0.353
-113.078	800.000	0.029	-0.099
-112.064	581.577	0.428	1.038
-111.049	242.628	0.225	-0.372
-110.034	291.571	0.298	0.537
-109.020	800.000	-0.142	-0.611
-108.005	64.534	0.637	-0.634
-106.991	242.048	-0.177	0.293
-105.976	149.500	-0.295	0.395
-104.962	-157.363	0.181	0.011
-103.947	297.269	-0.436	0.791
-102.932	80.450	-0.128	-0.136
-101.918	-95.060	-0.335	0.090
-100.903	-120.107	0.278	0.047
-99.889	-200.000	-0.176	-0.826
-98.874	-139.632	0.279	-0.029
-97.859	-85.437	-0.482	-0.148
-96.845	-38.346	0.606	0.317
-95.830	-200.000	-0.011	0.078
-94.816	43.074	-0.208	-0.187
-93.801	650.803	0.095	0.241
-92.786	-106.643	0.134	0.029
-91.772	174.500	-0.199	0.285
-90.757	97.577	-0.471	0.535
-89.743	41.896	-0.346	0.310
-88.728	163.236	0.165	-0.229
-87.713	218.100	-0.303	0.477
-86.699	-74.371	-0.431	-0.154
-85.684	-44.065	-0.657	-0.326
-84.670	67.354	0.352	0.355
-83.655	800.000	0.165	0.520
-82.640	-200.000	-0.091	-0.579
-81.626	-173.131	-0.838	0.025
-80.611	200.588	0.494	-0.750
-79.597	800.000	0.444	1.340
-78.582	-4.827	-0.490	-0.334
-77.567	19.318	0.192	-0.152
-76.553	4.452	-0.257	-0.186
-75.538	50.562	0.188	0.175
-74.524	230.826	0.382	-0.617
-73.509	-4.316	-0.212	0.145
-72.494	-200.000	0.100	0.967
-71.480	435.959	0.199	-0.427
-70.465	800.000	-0.049	0.189
-69.451	-116.122	0.620	0.114
-68.436	-200.000	0.038	0.541
-67.422	-200.000	0.025	0.735
-66.407	-89.123	0.634	-0.185
-65.392	-111.859	0.647	0.129
-64.378	440.632	-0.172	0.372
-63.363	-6.909	0.148	-0.099
-62.349	454.110	0.418	-0.914
-61.334	27.348	-0.966	-0.801
-60.319	-125.271	0.918	0.138
-59.305	779.459	0.360	-0.970
-58.290	800.000	-0.346	0.946
-57.276	800.000	0.389	1.216
-56.261	-200.000	95.425	571.064
-55.246	628.857	1377.941	3434.970
-54.232	196.688	2554.968	3839.711
-53.217	117.029	2156.574	2612.252
-52.203	44.274	1701.427	1539.757
-51.188	36.765	1516.662	1321.477
-50.173	34.500	1490.120	1283.090
-49.159	54.928	1541.243	1467.255
-48.144	56.080	1558.645	1491.637
-47.130	37.028	1517.231	1323.559
-46.115	33.757	1501.921	1288.005
-45.100	33.950	1498.014	1285.910
-44.086	33.585	1497.288	1282.763
-43.071	33.523	1495.486	1280.753
-42.057	33.628	1493.654	1279.843
-41.042	33.393	1492.626	1277.327
-40.027	33.541	1491.296	1277.131
-39.013	33.557	1489.535	1275.685
-37.998	33.626	1488.253	1274.998
-36.984	33.718	1486.072	1273.696
-35.969	33.712	1485.476	1273.092
-34.954	33.690	1483.703	1271.376
-33.940	33.677	1483.011	1270.646
-32.925	33.902	1481.530	1270.833
-31.911	33.650	1479.845	1267.651
-30.896	33.785	1479.031	1267.809
-29.881	33.872	1477.086	1266.671
-28.867	33.847	1475.941	1265.472
-27.852	33.790	1475.084	1264.304
-26.838	33.642	1474.099	1262.429
-25.823	33.775	1471.812	1261.301
-24.809	33.820	1469.254	1259.358
-23.794	33.568	1468.929	1257.361
-22.779	33.701	1467.166	1256.678
-21.765	33.821	1466.169	1256.567
-20.750	33.734	1465.007	1254.946
-19.736	33.459	1464.338	1252.511
-18.721	33.742	1464.023	1254.056
-17.706	33.627	1462.100	1251.607
-16.692	33.581	1462.194	1251.329
-15.677	33.835	1459.379	1250.542
-14.663	33.538	1458.844	1248.079
-13.648	33.707	1458.239	1248.625
-12.633	33.586	1457.591	1247.228
-11.619	33.773	1456.167	1247.189
-10.604	33.564	1454.817	1244.608
-9.590	33.709	1454.478	1245.221
-8.575	33.730	1454.456	1245.289
-7.560	33.501	1454.929	1244.140
-6.546	33.801	1451.877	1243.450
-5.531	33.565	1451.173	1241.251
-4.517	33.742	1449.746	1241.142
-3.502	33.616	1449.603	1240.143
-2.487	33.720	1448.092	1239.483
-1.473	33.802	1446.543	1238.639
-0.458	33.777	1445.157	1237.243
0.556	34.766	1436.032	1225.048
1.571	31.586	1410.423	1183.032
2.586	27.769	1351.075	1109.988
3.600	26.049	1269.496	1033.037
4.615	24.395	1223.541	986.417
5.629	20.567	1167.209	920.690
6.644	11.636	1082.516	809.750
7.659	4.074	1040.561	742.172
8.673	3.401	1034.963	734.906
9.688	2.803	1031.613	729.616
10.702	2.870	1030.115	728.812
11.717	2.688	1028.726	726.900
12.731	6.215	1030.983	745.167
13.746	15.366	1045.343	799.261
14.761	23.868	1054.676	847.016
15.775	26.462	1056.448	860.725
16.790	26.538	1058.614	862.775
17.804	26.287	1057.512	860.604
18.819	26.627	1055.584	860.573
19.834	26.429	1056.695	860.460
20.848	26.558	1055.533	860.054
21.863	26.904	1055.286	861.417
22.877	26.454	1054.873	858.867
23.892	26.662	1054.030	859.094
24.907	26.535	1053.305	857.825
25.921	26.667	1051.951	857.272
26.936	26.605	1051.595	856.612
27.950	26.538	1050.488	855.317
28.965	26.551	1049.526	854.521
29.980	26.781	1047.740	854.075
30.994	26.553	1046.378	851.813
32.009	26.575	1047.146	852.468
33.023	26.544	1045.646	851.025
34.038	26.580	1043.999	849.782
35.053	26.439	1043.802	848.881
36.067	26.659	1043.017	849.201
37.082	26.479	1042.792	848.101
38.096	26.549	1042.463	848.084
39.111	26.982	1041.593	849.328
40.126	26.986	1040.260	848.185
41.140	26.769	1038.399	845.580
42.155	26.698	1037.359	844.329
43.169	26.057	1036.478	840.550
44.184	26.306	1036.197	841.410
45.199	25.995	1035.415	839.252
46.213	26.113	1033.479	838.156
47.228	26.025	1033.484	837.675
48.242	26.380	1032.487	838.441
49.257	26.501	1031.579	838.193
50.271	26.638	1029.361	836.945
51.286	26.496	1029.557	836.374
52.301	26.699	1029.313	837.041
53.315	26.407	1029.143	835.482
54.330	26.644	1028.099	835.654
55.344	26.725	1026.767	834.871
56.359	26.634	1026.523	834.175
57.374	26.689	1025.889	833.842
58.388	26.637	1023.644	831.704
59.403	26.206	1023.690	829.690
60.417	26.475	1022.480	829.869
61.432	26.168	1022.370	828.298
62.447	26.300	1021.138	827.832
63.461	26.511	1021.145	828.728
64.476	26.598	1019.680	827.866
65.490	26.740	1019.209	828.058
66.505	26.361	1018.547	825.716
67.520	26.314	1018.144	825.103
68.534	26.310	1016.971	824.060
69.549	26.130	1015.990	822.374
70.563	26.032	1014.695	820.806
71.578	25.767	1014.914	819.706
72.593	25.723	1013.448	818.250
73.607	25.538	1012.968	816.946
74.622	25.494	1012.068	815.948
75.636	26.022	1011.249	817.611
76.651	26.021	1010.584	816.998
77.666	25.986	1009.041	815.519
78.680	25.940	1007.843	814.269
79.695	26.102	1007.668	814.788
80.709	26.025	1007.655	814.357
81.724	26.162	1006.574	814.030
82.739	26.372	1005.580	814.100
83.753	26.002	1004.783	811.720
84.768	26.481	1004.670	813.710
85.782	26.624	1004.074	813.795
86.797	27.077	1003.419	815.230
87.812	26.858	1002.248	813.223
88.826	26.630	1001.434	811.467
89.841	26.835	1000.153	811.279
90.855	26.824	1000.108	811.117
91.870	27.016	999.117	811.102
92.884	26.916	998.053	809.721
93.899	26.714	997.323	808.155
94.914	26.592	996.855	807.161
95.928	26.880	995.698	807.433
96.943	26.952	994.581	806.776
97.957	26.536	993.390	803.893
98.972	26.186	993.215	802.125
99.987	26.133	991.317	800.289
101.001	26.209	990.819	800.151
102.016	26.586	991.080	801.959
103.030	26.803	989.543	801.605
104.045	26.280	989.032	798.811
105.060	26.534	987.205	798.384
106.074	26.063	986.505	795.670
107.089	25.973	986.654	795.324
108.103	26.546	986.404	797.579
109.118	26.526	985.342	796.562
110.133	26.364	982.831	793.747
111.147	26.178	982.548	792.634
112.162	26.048	982.348	791.832
113.176	26.002	980.096	789.744
114.191	26.121	979.806	789.963
115.206	26.519	978.028	790.197
116.220	25.712	977.601	786.257
117.235	25.670	977.584	785.992
118.249	26.123	976.313	786.877
119.264	26.148	975.853	786.544
120.279	25.920	975.035	784.822
121.293	25.919	974.294	784.151
122.308	26.109	973.032	783.891
123.322	25.928	973.485	783.403
124.337	25.949	971.310	781.672
125.352	25.666	970.643	779.842
126.366	25.492	969.042	777.734
127.381	24.970	967.994	774.566
128.395	25.711	967.329	777.164
129.410	26.229	967.729	779.656
130.424	26.434	966.530	779.503
131.439	26.500	965.582	778.957
132.454	26.091	965.714	777.231
133.468	26.399	964.084	777.175
134.483	26.088	963.326	775.157
135.497	26.255	962.422	775.079
136.512	26.737	961.420	776.270
137.527	26.768	960.373	775.486
138.541	26.841	959.815	775.280
139.556	26.311	960.175	773.236
140.570	26.192	958.672	771.448
141.585	26.670	958.219	773.057
142.600	26.958	957.294	773.470
143.614	26.601	956.862	771.532
144.629	26.832	956.220	771.928
145.643	27.236	954.831	772.456
146.658	26.647	954.361	769.506
147.673	26.646	953.567	768.792
148.687	26.780	952.338	768.303
149.702	26.542	950.636	765.852
150.716	26.430	949.974	764.780
151.731	26.127	950.365	763.746
152.746	26.684	948.659	764.659
153.760	26.608	948.571	764.197
154.775	26.680	947.645	763.687
155.789	26.900	946.348	763.501
156.804	26.698	945.110	761.585
157.819	26.693	945.045	761.445
158.833	26.973	943.989	761.704
159.848	26.720	943.616	760.274
160.862	27.061	942.354	760.616
161.877	26.932	941.647	759.437
162.892	26.925	940.534	758.446
163.906	26.891	939.525	757.421
164.921	27.136	939.035	757.981
165.935	27.012	937.822	756.418
166.950	27.105	936.567	755.726
167.964	26.633	936.832	753.910
168.979	26.843	934.920	753.177
169.994	26.819	934.171	752.405
171.008	26.858	932.766	751.371
172.023	26.905	932.503	751.285
173.037	27.037	931.704	751.123
174.052	26.902	929.978	749.106
175.067	26.688	929.587	747.844
176.081	26.400	929.447	746.476
177.096	26.640	927.735	746.021
178.110	26.636	928.335	746.425
179.125	26.210	927.122	743.627
180.140	26.281	925.458	742.518
181.154	26.413	924.923	742.569
182.169	26.276	923.624	740.895
183.183	26.511	923.845	741.971
184.198	27.096	923.375	743.927
185.213	27.096	922.538	743.186
186.227	26.449	923.084	740.909
187.242	26.725	922.199	741.264
188.256	26.916	921.108	741.101
189.271	26.956	920.305	740.552
190.286	27.296	918.869	740.714
191.300	26.774	918.562	738.276
192.315	26.394	917.652	735.934
193.329	25.348	915.720	730.069
194.344	25.085	914.822	728.222
195.359	25.755	915.853	731.699
196.373	26.733	914.789	734.753
197.388	26.927	915.226	735.826
198.402	26.899	914.921	735.402
199.417	26.998	913.592	734.669
200.432	26.905	913.623	734.253
201.446	26.541	913.029	732.237
202.461	26.354	911.911	730.523
203.475	26.518	911.439	730.743
204.490	26.453	909.455	728.825
205.504	25.070	907.179	721.374
206.519	25.542	907.335	723.332
207.534	26.187	908.192	726.550
208.548	26.164	908.399	726.558
209.563	26.708	907.592	728.034
210.577	26.646	907.289	727.479
211.592	26.564	905.833	725.915
212.607	26.829	906.321	727.308
213.621	26.844	906.097	727.121
214.636	27.005	904.815	726.675
215.650	27.102	904.200	726.506
216.665	26.968	903.955	725.706
217.680	27.163	902.577	725.315
218.694	26.792	903.573	724.567
219.709	26.692	902.105	722.927
220.723	26.501	900.978	721.198
221.738	26.459	900.865	720.880
222.753	26.684	900.278	721.241
223.767	26.587	899.391	720.079
224.782	26.638	898.610	719.593
225.796	26.706	898.249	719.512
226.811	27.369	897.506	721.482
227.826	26.880	896.392	718.585
228.840	25.567	895.484	712.594
229.855	25.605	894.787	712.130
230.869	26.149	893.805	713.435
231.884	25.954	893.228	712.140
232.899	25.810	892.389	710.838
233.913	26.765	892.366	714.523
234.928	26.822	892.654	714.917
235.942	26.778	891.325	713.617
236.957	26.644	891.536	713.194
237.972	26.405	890.609	711.449
238.986	26.068	889.755	709.381
240.001	25.940	889.151	708.331
241.015	26.301	888.809	709.416
242.030	26.502	887.859	709.381
243.045	26.375	887.549	708.574
244.059	26.522	887.377	708.950
245.074	26.978	886.884	710.276
246.088	26.985	885.474	709.112
247.103	26.457	885.527	707.029
248.117	26.405	884.071	705.601
249.132	26.647	885.307	707.470
250.147	27.582	883.150	709.326
251.161	27.224	883.822	708.407
252.176	27.656	883.257	709.573
253.190	27.552	882.476	708.479
254.205	27.677	881.459	708.088
255.220	28.146	882.400	710.602
256.234	27.954	881.294	708.904
257.249	27.609	880.784	707.092
258.263	27.782	880.004	707.076
259.278	27.641	878.492	705.252
260.293	27.593	878.163	704.740
261.307	27.723	878.363	705.340
262.322	27.957	876.891	705.000
263.336	27.531	877.044	703.414
264.351	27.160	875.813	700.934
265.366	25.943	873.829	694.597
266.380	25.583	872.542	692.131
267.395	26.380	873.651	696.017
268.409	27.309	873.753	699.610
269.424	26.914	873.041	697.460
270.439	27.469	872.085	698.765
271.453	27.671	870.478	698.192
272.468	27.450	871.719	698.277
273.482	27.947	870.640	699.253
274.497	27.704	870.474	698.128
275.512	27.705	869.420	697.227
276.526	27.201	867.533	693.726
277.541	27.064	868.045	693.553
278.555	27.129	867.715	693.474
279.570	26.996	867.406	692.661
280.585	26.572	867.237	690.846
281.599	26.869	866.551	691.371
282.614	27.231	865.352	691.728
283.628	26.973	864.402	689.929
284.643	26.376	864.149	687.395
285.657	27.037	863.071	688.988
286.672	26.690	863.185	687.698
287.687	26.259	861.406	684.589
288.701	26.197	861.940	684.719
289.716	26.932	861.240	686.883
290.730	27.023	859.824	686.038
291.745	26.420	860.456	684.203
292.760	26.076	859.316	681.936
293.774	26.320	858.175	681.888
294.789	27.631	858.826	687.294
295.803	28.342	858.601	689.731
296.818	27.808	857.702	686.937
297.833	28.140	857.538	687.994
298.847	27.772	856.981	686.103
299.862	27.584	855.312	683.999
300.876	27.550	855.466	683.934
301.891	28.163	855.252	686.005
302.906	27.891	854.593	684.394
303.920	27.832	853.351	683.121
304.935	27.546	852.620	681.406
305.949	27.514	852.879	681.430
306.964	27.796	852.226	681.905
307.979	27.711	851.415	680.876
308.993	27.679	850.301	679.805
310.008	28.060	850.700	681.484
311.022	28.101	851.038	681.850
312.037	28.209	849.397	680.877
313.052	27.573	849.350	678.409
314.066	27.503	848.270	677.229
315.081	27.186	846.491	674.571
316.095	26.372	845.423	670.644
317.110	26.816	845.597	672.368
318.125	27.503	845.881	675.082
319.139	26.979	845.455	672.739
320.154	25.906	843.673	667.294
321.168	25.461	842.238	664.453
322.183	25.798	842.499	665.846
323.197	27.152	843.378	671.488
324.212	27.302	842.472	671.263
325.227	27.371	842.757	671.684
326.241	27.683	842.305	672.413
327.256	27.792	840.820	671.573
328.270	27.556	841.155	670.909
329.285	27.349	839.866	669.062
330.300	27.131	839.409	667.837
331.314	27.053	838.435	666.717
332.329	27.215	838.114	666.996
333.343	27.573	837.249	667.561
334.358	27.942	836.966	668.628
335.373	27.796	836.597	667.742
336.387	28.094	835.787	668.124
337.402	28.366	835.575	668.888
338.416	28.265	835.515	668.412
339.431	28.659	834.300	668.818
340.446	28.283	834.920	667.882
341.460	28.217	834.406	667.174
342.475	28.179	833.329	666.113
343.489	28.523	833.164	667.177
344.504	28.341	831.617	665.216
345.519	28.477	831.827	665.819
346.533	28.543	830.804	665.181
347.548	28.195	831.990	664.808
348.562	29.096	829.943	666.378
349.577	28.632	829.686	664.431
350.592	28.727	829.403	664.492
351.606	28.295	829.358	662.832
352.621	28.912	828.447	664.275
353.635	28.501	828.108	662.458
354.650	28.652	826.430	661.602
355.665	27.694	826.891	658.455
356.679	27.237	824.953	655.208
357.694	26.821	824.125	652.994
358.708	27.639	824.857	656.464
359.723	27.638	824.020	655.736
360.738	27.756	823.313	655.539
361.752	28.441	822.801	657.531
362.767	28.485	822.530	657.416
363.781	28.405	823.705	658.009
364.796	28.948	823.213	659.507
365.810	28.580	822.198	657.318
366.825	29.303	821.678	659.429
367.840	29.342	821.294	659.203
368.854	28.869	820.770	657.032
369.869	28.427	820.057	654.826
370.883	28.201	819.626	653.617
371.898	28.107	818.817	652.578
372.913	28.183	818.218	652.313
373.927	28.116	818.420	652.179
374.942	28.232	817.641	651.912
375.956	28.212	817.075	651.335
376.971	28.641	815.868	651.836
377.986	28.804	816.323	652.724
379.000	28.679	815.872	651.859
380.015	29.001	815.653	652.771
381.029	29.073	813.712	651.414
382.044	28.720	813.471	649.916
383.059	28.899	812.711	649.883
384.073	29.012	812.451	650.018
385.088	28.892	811.989	649.167
386.102	29.076	811.018	648.982
387.117	28.716	811.650	648.160
388.132	28.376	810.922	646.322
389.146	28.596	809.549	645.946
390.161	27.715	809.054	642.391
391.175	27.872	809.216	643.015
392.190	28.260	808.965	644.123
393.205	28.824	807.969	645.255
394.219	27.511	806.308	639.267
395.234	26.231	803.576	632.565
396.248	24.924	803.114	627.568
397.263	26.249	804.335	633.114
398.278	28.132	805.495	640.573
399.292	28.558	804.945	641.569
400.307	28.269	803.585	639.418
401.321	28.256	803.740	639.440
402.336	28.193	803.752	639.173
403.350	28.585	803.405	640.211
404.365	29.185	803.561	642.369
405.380	29.346	803.332	642.692
406.394	29.518	802.967	642.942
407.409	29.338	803.258	642.491
408.423	29.523	802.478	642.454
409.438	29.325	801.652	641.046
410.453	29.542	801.670	641.759
411.467	29.764	801.051	641.976
412.482	29.785	799.863	641.043
413.496	29.821	799.361	640.708
414.511	29.384	799.701	639.408
415.526	29.788	798.963	640.160
416.540	29.713	798.286	639.301
417.555	29.608	798.803	639.294
418.569	29.076	797.633	636.464
419.584	29.365	797.533	637.328
420.599	29.104	797.021	635.961
421.613	159.626	1370.141	1793.579
422.628	138.420	1453.678	1793.608
