DTS Sentinel unit serial number:	SN413079Multiplexer serial number:	ORYXHardware model number:	OX4-SRSoftware version number:	ORYX F/W v4.00 Oryx Data Collector v3.7.2.0data status	okinstallation	princeton_trtdifferential loss correction	single-endedforward channel	channel 3reverse channel	N/Adate	2019/09/18time	20:56:35forward acquisition time	60.00reverse acquisition time	0.00gamma	496.2192k internal	0.2343k external	0.2343temperature offset calibration	1.0012default loss term (dB/km)	0.3790temperature slope calibration	1.0000multiplexer offset coefficient	1.0000multiplexer slope coefficient	1.0000fibre end	0.00T internal ref (°C)	26.75T ext. ref 1 (°C)	1.09T ext. ref 2 (°C)	18.13length (m)	temperature (°C)	Stokes	anti-Stokes-747.200	800.000	-0.068	0.232
-746.185	-200.000	0.036	0.424
-745.171	-90.321	-0.351	-0.102
-744.156	-134.804	-0.218	0.027
-743.142	41.302	0.130	0.118
-742.127	432.773	-0.119	0.259
-741.112	236.863	-0.019	0.031
-740.098	-132.115	-0.519	-0.067
-739.083	-7.078	-0.124	-0.084
-738.069	800.000	-0.047	0.143
-737.054	22.046	-0.193	-0.157
-736.039	421.281	0.147	-0.315
-735.025	-153.549	-0.154	0.011
-734.010	-171.803	0.109	-0.004
-732.996	643.343	0.040	0.103
-731.981	-139.280	-0.095	0.010
-730.966	800.000	0.030	0.101
-729.952	-97.030	-0.287	-0.075
-728.937	-200.000	-0.012	-0.053
-727.923	12.322	-0.202	0.156
-726.908	-31.333	-0.478	0.269
-725.894	738.907	-0.131	0.352
-724.879	241.516	0.196	-0.328
-723.864	12.464	0.086	0.066
-722.850	680.502	-0.131	0.342
-721.835	-103.707	-0.137	0.032
-720.821	-157.389	-0.158	-0.010
-719.806	14.357	-0.366	-0.286
-718.791	-200.000	0.017	-0.146
-717.777	-1.906	-0.149	-0.105
-716.762	-200.000	0.046	-0.329
-715.748	-200.000	-0.011	0.234
-714.733	405.800	-0.194	-0.409
-713.718	-200.000	0.016	-0.095
-712.704	-40.353	-0.031	0.016
-711.689	-111.069	-0.171	0.035
-710.675	101.443	-0.192	0.224
-709.660	-23.234	-0.206	0.124
-708.645	-45.588	-0.289	0.143
-707.631	-56.601	-0.309	0.137
-706.616	29.068	-0.280	-0.238
-705.602	-200.000	0.052	-0.268
-704.587	-200.000	-0.034	-0.374
-703.572	48.015	-0.120	-0.112
-702.558	116.523	-0.126	0.155
-701.543	-200.000	0.013	0.104
-700.529	98.972	0.171	0.198
-699.514	118.696	0.143	-0.176
-698.499	-200.000	0.012	0.062
-697.485	800.000	-0.020	-0.069
-696.470	644.306	0.117	-0.298
-695.456	-200.000	0.028	0.316
-694.441	168.017	-0.287	-0.408
-693.426	-100.996	-0.243	0.059
-692.412	-13.870	0.100	0.064
-691.397	-75.068	-0.185	0.066
-690.383	-76.624	-0.254	-0.089
-689.368	-144.624	-0.230	0.021
-688.354	-200.000	-0.010	-0.060
-687.339	-200.000	0.054	-0.280
-686.324	107.534	-0.145	0.172
-685.310	-200.000	0.006	0.295
-684.295	316.982	-0.088	0.167
-683.281	-200.000	0.011	-0.191
-682.266	28.574	-0.090	-0.076
-681.251	-200.000	0.021	0.277
-680.237	38.197	0.215	0.191
-679.222	-200.000	0.048	-0.251
-678.208	161.328	-0.088	0.122
-677.193	-200.000	-0.025	0.310
-676.178	800.000	0.067	-0.241
-675.164	-1.249	-0.211	0.149
-674.149	-81.315	0.013	-0.004
-673.135	-19.908	0.145	0.089
-672.120	90.919	0.056	0.063
-671.105	-77.509	-0.224	0.078
-670.091	-45.862	-0.239	-0.118
-669.076	225.166	-0.061	-0.098
-668.062	22.725	0.141	-0.115
-667.047	-128.726	0.285	-0.040
-666.032	-200.000	0.063	-0.289
-665.018	47.328	-0.138	-0.128
-664.003	-90.774	0.042	0.012
-662.989	209.200	-0.162	-0.253
-661.974	-100.446	0.084	0.021
-660.959	208.327	0.025	-0.039
-659.945	-35.791	-0.125	-0.067
-658.930	-200.000	0.030	-0.307
-657.916	-110.066	-0.061	-0.013
-656.901	800.000	-0.067	-0.263
-655.886	-50.159	0.218	-0.103
-654.872	800.000	-0.028	0.107
-653.857	-200.000	0.063	-0.450
-652.843	800.000	-0.100	-0.301
-651.828	732.319	0.061	-0.163
-650.814	78.369	0.091	0.097
-649.799	-200.000	0.047	-0.268
-648.784	189.928	-0.188	0.282
-647.770	64.004	0.341	0.342
-646.755	539.249	0.053	-0.126
-645.741	-200.000	-0.046	0.222
-644.726	-63.701	-0.300	-0.123
-643.711	35.638	0.161	0.141
-642.697	517.766	-0.090	-0.210
-641.682	121.629	0.143	0.177
-640.668	800.000	-0.060	-0.209
-639.653	800.000	-0.040	0.134
-638.638	-200.000	0.005	-0.197
-637.624	800.000	-0.043	-0.175
-636.609	-200.000	0.039	0.198
-635.595	-200.000	-0.019	-0.132
-634.580	-200.000	0.083	0.380
-633.565	-25.143	0.194	-0.114
-632.551	-97.108	0.174	0.045
-631.536	-88.338	-0.366	0.109
-630.522	46.045	-0.122	0.112
-629.507	478.474	-0.174	0.394
-628.492	-200.000	0.050	-0.334
-627.478	586.792	0.121	-0.297
-626.463	-179.894	0.236	0.005
-625.449	-200.000	-0.016	-0.159
-624.434	42.423	-0.257	-0.233
-623.419	-110.535	0.184	0.038
-622.405	216.027	-0.078	-0.124
-621.390	114.289	-0.183	0.222
-620.376	-104.876	-0.224	-0.051
-619.361	-161.853	0.209	-0.011
-618.346	292.994	0.026	-0.048
-617.332	-200.000	0.020	-0.145
-616.317	-92.566	0.034	0.009
-615.303	253.773	-0.212	0.360
-614.288	800.000	0.031	0.100
-613.273	-200.000	-0.006	-0.047
-612.259	-142.045	-0.132	0.013
-611.244	115.333	-0.091	0.110
-610.230	-41.562	0.359	-0.184
-609.215	-57.910	-0.323	-0.141
-608.201	-200.000	0.040	-0.250
-607.186	313.499	0.020	-0.037
-606.171	-36.130	-0.125	-0.067
-605.157	-18.178	0.091	0.057
-604.142	-120.615	-0.130	0.022
-603.128	-131.830	0.232	-0.030
-602.113	-174.192	-0.225	-0.007
-601.098	53.562	0.069	0.066
-600.084	-200.000	0.065	0.339
-599.069	-122.695	-0.204	-0.033
-598.055	-33.152	0.164	0.090
-597.040	127.022	0.127	0.160
-596.025	-200.000	0.027	0.321
-595.011	-41.342	-0.261	-0.134
-593.996	607.127	-0.163	0.406
-592.982	-45.224	-0.222	0.110
-591.967	491.493	0.102	0.232
-590.952	-200.000	-0.046	0.264
-589.938	-10.986	-0.074	-0.048
-588.923	-200.000	-0.002	-0.271
-587.909	-35.441	-0.167	0.090
-586.894	30.589	0.076	0.064
-585.879	-73.412	0.159	0.058
-584.865	800.000	-0.149	-0.417
-583.850	-130.186	-0.485	0.066
-582.836	63.431	-0.161	-0.160
-581.821	-200.000	0.042	-0.242
-580.806	-42.742	-0.415	-0.210
-579.792	-200.000	-0.044	-0.301
-578.777	176.312	0.064	0.093
-577.763	116.408	0.081	-0.099
-576.748	-200.000	0.020	0.164
-575.733	106.170	-0.135	0.160
-574.719	31.888	0.192	0.165
-573.704	220.520	-0.130	-0.207
-572.690	5.013	0.315	0.230
-571.675	519.001	0.046	0.107
-570.661	-60.760	0.135	0.057
-569.646	25.843	-0.142	-0.118
-568.631	800.000	-0.099	0.329
-567.617	-70.267	-0.069	-0.026
-566.602	29.381	-0.233	0.197
-565.588	-200.000	0.039	0.243
-564.573	-200.000	-0.007	-0.033
-563.558	36.871	-0.109	0.096
-562.544	6.118	-0.065	-0.048
-561.529	-200.000	0.002	0.163
-560.515	-82.077	0.290	-0.094
-559.500	22.833	-0.106	-0.086
-558.485	-75.405	-0.283	-0.100
-557.471	-77.652	0.268	0.092
-556.456	-200.000	-0.006	0.078
-555.442	-142.755	0.063	0.006
-554.427	-80.418	0.194	0.064
-553.412	800.000	-0.022	0.064
-552.398	101.370	-0.154	0.178
-551.383	51.739	-0.131	0.124
-550.369	-200.000	-0.007	0.082
-549.354	-132.787	0.084	-0.011
-548.339	-85.111	-0.194	-0.060
-547.325	-51.466	0.140	-0.065
-546.310	-170.943	-0.235	0.008
-545.296	90.494	-0.179	-0.200
-544.281	-138.472	-0.213	-0.023
-543.266	-200.000	0.043	-0.349
-542.252	-109.191	0.036	-0.008
-541.237	571.484	-0.009	-0.021
-540.223	37.150	-0.102	-0.090
-539.208	383.231	-0.182	0.372
-538.193	-115.129	-0.118	-0.022
-537.179	-135.152	0.348	0.042
-536.164	12.101	0.200	0.153
-535.150	-38.697	-0.011	0.006
-534.135	800.000	-0.109	-0.355
-533.121	219.209	0.118	-0.187
-532.106	-178.814	-0.150	0.003
-531.091	-200.000	0.004	0.032
-530.077	135.683	-0.159	0.206
-529.062	2.443	0.173	-0.124
-528.048	97.274	0.201	-0.230
-527.033	199.940	-0.174	0.265
-526.018	-200.000	0.028	-0.265
-525.004	-6.957	-0.202	0.136
-523.989	-200.000	-0.010	0.088
-522.975	240.582	0.081	-0.133
-521.960	212.288	-0.201	0.315
-520.945	-149.033	0.050	0.004
-519.931	-200.000	0.013	0.185
-518.916	-200.000	-0.018	-0.145
-517.902	-200.000	0.043	-0.203
-516.887	397.583	-0.104	-0.215
-515.872	204.279	-0.058	0.089
-514.858	-200.000	-0.006	-0.102
-513.843	-129.162	0.187	0.026
-512.829	410.900	0.161	0.339
-511.814	-46.093	-0.250	-0.122
-510.799	800.000	-0.056	-0.157
-509.785	-53.734	0.400	0.181
-508.770	800.000	0.036	-0.138
-507.756	165.273	0.046	-0.064
-506.741	-150.950	0.230	0.017
-505.726	20.446	0.342	-0.274
-504.712	499.222	-0.107	0.245
-503.697	57.365	0.178	0.172
-502.683	169.635	0.156	0.220
-501.668	165.939	-0.120	0.169
-500.653	-86.693	-0.115	-0.035
-499.639	-146.480	0.143	-0.012
-498.624	165.819	-0.040	-0.056
-497.610	-200.000	-0.282	0.001
-496.595	62.495	-0.148	0.146
-495.581	86.607	-0.118	0.129
-494.566	-200.000	0.000	0.115
-493.551	-200.000	0.021	-0.125
-492.537	-158.162	-0.191	0.011
-491.522	318.726	0.054	-0.101
-490.508	17.578	0.356	-0.281
-489.493	-43.600	-0.303	0.152
-488.478	-44.469	-0.191	0.095
-487.464	246.542	0.010	0.017
-486.449	-200.000	-0.045	0.343
-485.435	-200.000	0.058	0.398
-484.420	-165.251	0.210	0.009
-483.405	-200.000	-0.023	-0.118
-482.391	-112.875	0.221	0.043
-481.376	185.283	0.232	-0.341
-480.362	-200.000	-0.039	0.213
-479.347	-86.969	0.282	-0.085
-478.332	800.000	-0.078	-0.252
-477.318	-0.909	0.171	-0.120
-476.303	-11.891	-0.297	0.193
-475.289	800.000	0.089	-0.308
-474.274	583.797	-0.173	0.420
-473.259	-45.087	-0.396	0.195
-472.245	-163.693	0.334	-0.016
-471.230	-74.356	0.158	0.056
-470.216	800.000	-0.069	-0.253
-469.201	14.548	-0.111	0.086
-468.186	57.173	0.047	-0.045
-467.172	-21.189	-0.278	-0.168
-466.157	-102.289	-0.056	0.013
-465.143	-141.735	0.199	-0.020
-464.128	-102.711	0.477	-0.113
-463.113	727.985	-0.084	-0.223
-462.099	82.213	-0.158	-0.170
-461.084	-112.115	-0.043	-0.008
-460.070	110.252	0.083	0.099
-459.055	-200.000	-0.019	-0.262
-458.040	-74.642	0.219	-0.078
-457.026	-200.000	-0.054	0.273
-456.011	368.393	-0.031	0.063
-454.997	-134.039	0.423	0.052
-453.982	30.841	-0.156	-0.132
-452.968	45.132	0.214	-0.195
-451.953	201.016	0.244	0.372
-450.938	244.387	-0.085	-0.141
-449.924	-47.863	-0.402	0.193
-448.909	-106.903	-0.091	0.020
-447.895	-200.000	0.012	-0.106
-446.880	291.044	-0.051	-0.092
-445.865	-177.189	-0.229	0.006
-444.851	800.000	-0.089	-0.330
-443.836	-119.149	-0.173	0.030
-442.822	-122.889	0.315	0.050
-441.807	419.751	-0.096	-0.203
-440.792	-29.213	-0.028	-0.016
-439.778	151.511	0.151	0.203
-438.763	486.746	-0.071	-0.160
-437.749	215.059	0.071	-0.112
-436.734	-200.000	-0.069	0.363
-435.719	-178.330	0.211	0.005
-434.705	152.205	-0.202	0.272
-433.690	779.529	-0.085	0.231
-432.676	-81.754	0.246	-0.080
-431.661	-8.642	0.238	-0.158
-430.646	800.000	-0.042	0.117
-429.632	290.651	-0.152	-0.274
-428.617	-164.689	0.112	0.005
-427.603	-128.933	-0.293	0.041
-426.588	-200.000	-0.031	-0.263
-425.573	133.935	-0.103	-0.132
-424.559	60.084	0.104	0.101
-423.544	-76.194	-0.098	0.034
-422.530	-28.856	0.128	0.073
-421.515	800.000	-0.061	0.257
-420.500	-127.690	0.230	-0.033
-419.486	63.243	-0.102	-0.101
-418.471	-58.752	-0.252	-0.108
-417.457	52.611	0.135	-0.127
-416.442	-63.728	0.126	0.051
-415.428	151.145	-0.176	-0.236
-414.413	27.969	0.076	0.063
-413.398	339.834	0.066	0.128
-412.384	21.558	-0.218	-0.175
-411.369	-200.000	0.017	0.178
-410.355	327.813	0.169	0.321
-409.340	-45.775	-0.433	0.212
-408.325	-200.000	-0.013	0.181
-407.311	88.845	-0.339	-0.372
-406.296	-64.987	0.263	0.105
-405.282	-200.000	0.001	-0.096
-404.267	800.000	0.089	0.305
-403.252	-108.215	0.146	-0.031
-402.238	800.000	-0.030	0.092
-401.223	240.479	0.230	-0.379
-400.209	461.855	0.039	-0.086
-399.194	-25.594	-0.232	-0.135
-398.179	0.289	0.165	0.117
-397.165	-93.113	0.227	-0.062
-396.150	-105.991	0.368	0.082
-395.136	-0.762	-0.213	0.149
-394.121	-70.787	-0.322	-0.120
-393.106	-82.042	-0.171	0.055
-392.092	237.013	-0.108	-0.176
-391.077	-101.173	0.400	0.097
-390.063	30.275	0.143	-0.121
-389.048	194.770	-0.126	0.189
-388.033	-200.000	-0.014	0.155
-387.019	-146.152	-0.200	0.017
-386.004	7.671	0.389	0.287
-384.990	-200.000	-0.028	-0.250
-383.975	5.111	0.134	-0.098
-382.960	-63.521	-0.203	-0.082
-381.946	316.117	0.044	-0.081
-380.931	138.784	0.105	0.136
-379.917	-25.507	-0.209	-0.122
-378.902	418.649	-0.129	0.272
-377.888	-152.075	0.281	0.020
-376.873	-200.000	0.005	0.374
-375.858	212.043	-0.056	-0.087
-374.844	-56.812	0.228	0.099
-373.829	800.000	0.010	-0.043
-372.815	670.185	-0.030	-0.077
-371.800	-51.822	-0.171	0.079
-370.785	-61.589	0.138	-0.057
-369.771	153.778	-0.088	-0.118
-368.756	80.361	-0.176	0.187
-367.742	-200.000	-0.035	-0.283
-366.727	5.530	0.151	0.110
-365.712	-200.000	-0.021	0.121
-364.698	-156.251	0.139	-0.009
-363.683	364.328	-0.100	-0.198
-362.669	-97.870	0.066	-0.017
-361.654	-105.389	0.281	-0.063
-360.639	-200.000	0.029	-0.193
-359.625	96.336	-0.212	0.239
-358.610	-46.269	0.177	0.086
-357.596	9.473	0.226	0.169
-356.581	-41.607	0.318	0.161
-355.566	-3.961	0.218	0.149
-354.552	-93.351	0.251	0.069
-353.537	41.857	-0.149	-0.133
-352.523	82.659	0.086	-0.092
-351.508	-20.349	-0.149	0.090
-350.493	-25.992	-0.275	0.160
-349.479	238.670	-0.126	-0.206
-348.464	157.333	-0.056	0.076
-347.450	248.068	0.147	-0.245
-346.435	-173.842	-0.244	0.007
-345.420	11.645	-0.123	-0.093
-344.406	-7.720	-0.108	-0.072
-343.391	21.951	0.068	-0.054
-342.377	-128.675	0.142	-0.020
-341.362	-18.567	-0.328	0.202
-340.348	-200.000	0.014	-0.063
-339.333	53.579	-0.167	-0.158
-338.318	800.000	-0.050	0.170
-337.304	542.008	0.049	0.116
-336.289	-14.542	-0.214	0.136
-335.275	10.892	0.072	-0.054
-334.260	74.565	-0.101	0.105
-333.245	-51.100	0.327	-0.151
-332.231	-110.222	0.012	0.002
-331.216	-200.000	-0.047	0.245
-330.202	-200.000	0.012	0.234
-329.187	17.226	-0.352	-0.275
-328.172	800.000	0.043	-0.163
-327.158	-9.241	-0.121	0.080
-326.143	16.411	-0.151	0.117
-325.129	17.756	0.020	-0.015
-324.114	-200.000	0.004	-0.170
-323.099	39.307	0.197	0.173
-322.085	58.633	-0.249	0.241
-321.070	56.320	-0.152	-0.145
-320.056	-80.279	-0.186	-0.061
-319.041	-25.776	-0.090	0.052
-318.026	800.000	0.028	0.088
-317.012	323.469	-0.181	0.340
-315.997	-36.758	0.065	0.034
-314.983	-114.721	0.248	0.047
-313.968	107.815	0.126	-0.147
-312.953	22.010	-0.127	-0.102
-311.939	-86.214	-0.362	-0.110
-310.924	513.911	0.059	-0.134
-309.910	103.004	-0.064	-0.073
-308.895	34.070	0.280	0.240
-307.880	-200.000	-0.062	0.533
-306.866	76.562	0.128	-0.133
-305.851	-126.298	0.098	0.014
-304.837	-69.665	-0.366	0.138
-303.822	-200.000	-0.021	-0.148
-302.807	-36.594	-0.226	-0.120
-301.793	616.723	-0.139	-0.342
-300.778	-140.001	-0.360	-0.037
-299.764	-40.836	-0.182	-0.093
-298.749	-63.704	0.113	-0.046
-297.735	643.339	-0.090	-0.226
-296.720	-151.458	0.230	-0.017
-295.705	-74.376	0.273	0.097
-294.691	251.405	-0.109	0.183
-293.676	-75.032	0.206	-0.073
-292.662	396.109	-0.122	0.251
-291.647	800.000	-0.035	-0.118
-290.632	84.022	0.288	0.309
-289.618	48.549	0.260	-0.240
-288.603	-32.897	0.084	-0.046
-287.589	-36.931	0.137	-0.072
-286.574	800.000	-0.128	-0.358
-285.559	-21.919	-0.071	0.042
-284.545	-53.973	-0.115	-0.051
-283.530	-85.994	0.451	-0.137
-282.516	-200.000	0.021	0.099
-281.501	-54.778	0.306	-0.136
-280.486	-200.000	0.016	-0.249
-279.472	-130.919	-0.099	-0.013
-278.457	46.534	-0.316	-0.289
-277.443	400.810	0.053	-0.110
-276.428	-36.999	0.118	-0.062
-275.413	117.332	-0.018	-0.022
-274.399	-57.697	-0.106	0.046
-273.384	-16.682	-0.077	0.048
-272.370	-128.138	0.115	0.016
-271.355	67.005	0.040	-0.040
-270.340	-200.000	-0.043	-0.229
-269.326	761.930	0.035	-0.094
-268.311	173.726	-0.113	0.161
-267.297	-96.041	0.279	-0.073
-266.282	-85.135	0.224	-0.069
-265.267	-115.517	0.458	-0.085
-264.253	-49.579	0.095	0.044
-263.238	-200.000	0.049	0.287
-262.224	-200.000	-0.044	0.239
-261.209	800.000	0.009	-0.028
-260.195	800.000	0.053	0.224
-259.180	800.000	-0.083	-0.242
-258.165	-12.065	0.114	-0.073
-257.151	725.786	0.044	-0.115
-256.136	-191.431	-0.123	-0.001
-255.122	-129.672	-0.181	-0.024
-254.107	800.000	0.032	-0.107
-253.092	-87.918	0.294	0.087
-252.078	-80.234	0.116	-0.038
-251.063	133.904	0.123	-0.156
-250.049	660.568	-0.157	-0.398
-249.034	-200.000	0.011	0.199
-248.019	-1.928	-0.178	-0.123
-247.005	-81.494	-0.334	0.108
-245.990	-192.156	0.193	-0.002
-244.976	800.000	-0.062	0.262
-243.961	64.634	0.231	-0.229
-242.946	-200.000	-0.029	-0.182
-241.932	19.954	0.181	-0.143
-240.917	800.000	0.075	0.229
-239.903	800.000	0.065	0.258
-238.888	-1.236	0.171	-0.119
-237.873	6.932	-0.217	-0.159
-236.859	-200.000	-0.063	0.293
-235.844	-72.365	0.320	0.116
-234.830	500.294	-0.138	-0.313
-233.815	-93.091	0.134	0.037
-232.800	154.023	0.103	0.139
-231.786	-200.000	-0.009	0.093
-230.771	-200.000	-0.013	0.086
-229.757	-200.000	-0.038	-0.331
-228.742	800.000	-0.053	0.197
-227.727	69.957	-0.120	-0.121
-226.713	-200.000	0.045	0.303
-225.698	60.225	0.159	0.155
-224.684	21.166	-0.115	-0.091
-223.669	-200.000	0.015	0.320
-222.655	-200.000	-0.006	-0.060
-221.640	37.396	0.084	0.073
-220.625	-65.450	0.128	-0.050
-219.611	6.443	-0.302	0.220
-218.596	800.000	-0.104	0.315
-217.582	689.023	0.125	-0.321
-216.567	800.000	-0.042	-0.118
-215.552	677.960	-0.021	0.052
-214.538	-200.000	-0.062	0.307
-213.523	190.244	-0.207	0.305
-212.509	-74.690	0.281	0.099
-211.494	-130.182	0.272	-0.036
-210.479	263.083	0.069	-0.118
-209.465	-200.000	-0.039	-0.177
-208.450	-68.934	-0.072	0.027
-207.436	590.976	0.112	0.270
-206.421	-118.415	0.214	-0.037
-205.406	40.707	-0.149	0.132
-204.392	448.025	-0.113	-0.243
-203.377	-82.516	0.395	-0.126
-202.363	-200.000	-0.023	-0.173
-201.348	58.532	0.115	-0.111
-200.333	105.649	0.042	-0.049
-199.319	-113.125	-0.156	-0.030
-198.304	-110.975	0.055	-0.011
-197.290	240.751	0.194	0.317
-196.275	61.361	-0.185	-0.180
-195.260	-5.778	0.234	-0.157
-194.246	56.940	-0.106	-0.101
-193.231	800.000	-0.041	-0.164
-192.217	800.000	-0.073	0.256
-191.202	40.300	0.102	-0.090
-190.187	-60.048	0.230	-0.096
-189.173	-200.000	-0.010	-0.150
-188.158	-184.145	0.356	-0.006
-187.144	272.063	0.092	0.158
-186.129	302.738	0.202	0.366
-185.114	-200.000	0.005	-0.206
-184.100	61.650	-0.055	0.054
-183.085	-173.310	-0.268	0.008
-182.071	-200.000	0.055	-0.247
-181.056	100.160	-0.224	-0.254
-180.042	-132.798	0.286	0.036
-179.027	322.144	0.142	0.264
-178.012	-98.301	0.139	-0.035
-176.998	47.378	-0.356	0.325
-175.983	-16.110	-0.029	0.018
-174.969	73.384	0.079	0.081
-173.954	267.095	-0.079	-0.135
-172.939	10.793	-0.121	0.090
-171.925	-80.126	-0.221	0.072
-170.910	107.508	-0.098	-0.114
-169.896	-200.000	-0.030	-0.445
-168.881	800.000	-0.041	-0.134
-167.866	209.421	-0.167	-0.256
-166.852	54.931	0.247	-0.234
-165.837	-25.848	0.158	0.091
-164.823	39.609	-0.119	-0.104
-163.808	-47.949	-0.264	-0.125
-162.793	-59.917	-0.208	0.087
-161.779	-26.436	0.204	0.117
-160.764	-200.000	-0.001	-0.170
-159.750	137.279	0.361	-0.462
-158.735	150.163	-0.151	0.200
-157.720	-115.910	-0.237	0.043
-156.706	41.232	-0.145	-0.128
-155.691	24.571	0.236	0.191
-154.677	-38.396	0.075	0.039
-153.662	-106.054	-0.283	-0.062
-152.647	149.900	-0.178	-0.237
-151.633	155.930	0.292	-0.393
-150.618	800.000	0.007	-0.028
-149.604	37.199	0.216	-0.187
-148.589	-200.000	-0.018	0.181
-147.574	-79.267	-0.086	-0.029
-146.560	167.729	0.021	0.030
-145.545	-200.000	0.011	-0.075
-144.531	61.090	-0.123	-0.120
-143.516	60.003	-0.081	0.078
-142.502	90.217	0.108	0.118
-141.487	32.711	-0.216	0.183
-140.472	-1.685	-0.278	-0.191
-139.458	276.060	0.123	0.213
-138.443	-23.957	0.079	0.046
-137.429	-200.000	0.010	0.144
-136.414	-142.816	0.133	-0.013
-135.399	-62.039	-0.333	-0.136
-134.385	451.885	0.057	0.123
-133.370	-27.025	0.092	-0.053
-132.356	-68.071	-0.107	-0.041
-131.341	-140.406	0.260	0.027
-130.326	-179.872	-0.143	-0.003
-129.312	664.627	-0.108	-0.273
-128.297	81.477	0.033	-0.035
-127.283	88.444	0.105	-0.113
-126.268	8.479	-0.224	0.165
-125.253	-74.954	0.420	0.147
-124.239	-54.558	-0.152	-0.067
-123.224	-70.413	0.274	0.101
-122.210	-85.691	0.198	-0.060
-121.195	97.085	-0.031	0.035
-120.180	680.867	0.075	0.190
-119.166	94.663	-0.137	0.153
-118.151	8.672	-0.135	-0.099
-117.137	800.000	-0.057	0.154
-116.122	-120.562	-0.351	0.058
-115.107	-113.538	-0.130	-0.025
-114.093	420.952	0.132	0.276
-113.078	-200.000	0.013	-0.278
-112.064	382.282	0.150	0.301
-111.049	292.427	-0.158	-0.281
-110.034	373.491	0.084	0.167
-109.020	-200.000	0.004	-0.112
-108.005	-54.203	-0.183	-0.081
-106.991	-190.514	0.477	0.005
-105.976	425.578	0.023	-0.048
-104.962	-126.009	0.381	-0.056
-103.947	-200.000	0.009	0.290
-102.932	-121.798	0.372	0.060
-101.918	-200.000	-0.049	0.352
-100.903	-200.000	0.036	0.349
-99.889	33.560	-0.300	-0.255
-98.874	75.511	0.181	-0.186
-97.859	382.362	-0.049	0.099
-96.845	390.229	0.022	-0.045
-95.830	201.162	0.287	-0.431
-94.816	59.410	-0.157	0.151
-93.801	-135.611	0.312	0.036
-92.786	800.000	0.022	0.076
-91.772	737.615	-0.088	-0.231
-90.757	-200.000	-0.044	0.430
-89.743	-200.000	-0.018	0.155
-88.728	-200.000	0.023	-0.245
-87.713	-84.734	0.191	0.059
-86.699	-20.163	0.252	0.151
-85.684	48.691	0.104	0.095
-84.670	-200.000	0.007	-0.068
-83.655	252.252	0.044	-0.074
-82.640	445.038	-0.044	-0.095
-81.626	7.831	0.194	-0.142
-80.611	-148.864	0.156	0.012
-79.597	800.000	0.038	-0.151
-78.582	-178.997	-0.276	0.006
-77.567	139.644	-0.202	-0.259
-76.553	-200.000	0.005	-0.039
-75.538	-116.928	-0.121	0.022
-74.524	-52.814	0.372	-0.167
-73.509	-70.783	0.290	0.107
-72.494	16.582	0.251	0.193
-71.480	-200.000	0.014	-0.110
-70.465	800.000	0.069	0.270
-69.451	800.000	0.063	0.268
-68.436	186.884	0.197	0.286
-67.422	-200.000	-0.063	0.349
-66.407	573.745	0.193	0.460
-65.392	-82.183	0.274	-0.087
-64.378	480.642	-0.046	0.103
-63.363	38.381	0.167	0.145
-62.349	800.000	0.018	0.059
-61.334	205.762	-0.769	-1.166
-60.319	228.474	0.460	0.731
-59.305	181.734	-0.755	-1.083
-58.290	361.878	0.720	1.407
-57.276	329.034	0.752	1.410
-56.261	-200.000	115.504	624.445
-55.246	441.689	1502.784	3205.389
-54.232	151.524	2661.274	3532.399
-53.217	98.864	2148.676	2417.137
-52.203	36.721	1676.571	1443.316
-51.188	29.940	1493.350	1240.294
-50.173	27.640	1468.172	1204.163
-49.159	48.978	1532.263	1401.791
-48.144	47.751	1546.159	1406.139
-47.130	29.849	1500.010	1245.012
-46.115	26.931	1484.175	1212.356
-45.100	26.802	1480.657	1208.579
-44.086	26.688	1479.227	1206.601
-43.071	26.724	1476.810	1204.826
-42.057	26.548	1476.253	1203.152
-41.042	26.748	1473.779	1202.413
-40.027	26.692	1472.394	1200.866
-39.013	26.754	1470.335	1199.551
-37.998	26.567	1470.369	1198.294
-36.984	26.574	1469.238	1197.366
-35.969	26.617	1467.647	1196.305
-34.954	26.787	1465.885	1195.945
-33.940	26.651	1465.284	1194.512
-32.925	26.781	1463.577	1193.925
-31.911	26.814	1461.968	1192.783
-30.896	26.701	1461.635	1191.722
-29.881	26.805	1459.646	1190.737
-28.867	26.912	1458.218	1190.225
-27.852	26.704	1457.532	1188.255
-26.838	26.710	1455.841	1186.868
-25.823	26.907	1454.281	1186.840
-24.809	26.805	1452.936	1185.026
-23.794	26.861	1451.115	1183.860
-22.779	26.760	1450.605	1182.741
-21.765	26.801	1449.186	1181.804
-20.750	26.780	1448.222	1180.832
-19.736	26.836	1447.237	1180.347
-18.721	26.771	1446.256	1179.077
-17.706	26.797	1444.970	1178.150
-16.692	26.864	1443.672	1177.484
-15.677	26.678	1443.376	1175.988
-14.663	26.811	1441.759	1175.487
-13.648	26.730	1440.985	1174.282
-12.633	26.715	1440.099	1173.417
-11.619	26.751	1439.810	1173.364
-10.604	26.748	1438.858	1172.522
-9.590	26.752	1437.659	1171.525
-8.575	26.777	1437.035	1171.136
-7.560	26.710	1436.181	1169.956
-6.546	26.776	1434.676	1169.109
-5.531	26.737	1434.317	1168.520
-4.517	26.693	1433.230	1167.305
-3.502	26.598	1432.450	1166.012
-2.487	26.768	1431.081	1165.943
-1.473	26.535	1430.546	1163.965
-0.458	26.689	1428.768	1163.459
0.556	25.762	1418.445	1149.451
1.571	21.773	1392.511	1103.277
2.586	17.391	1330.325	1027.508
3.600	15.208	1248.719	952.002
4.615	14.065	1205.183	912.460
5.629	12.307	1150.877	862.049
6.644	6.667	1071.361	774.785
7.659	1.872	1035.113	725.718
8.673	1.228	1030.005	719.022
9.688	1.005	1026.973	715.787
10.702	1.016	1025.278	714.597
11.717	1.092	1023.283	713.498
12.731	2.929	1023.867	722.491
13.746	9.092	1032.332	757.555
14.761	15.262	1040.156	792.484
15.775	17.638	1042.334	805.315
16.790	17.332	1040.924	802.710
17.804	16.451	1038.795	796.846
18.819	15.722	1036.854	791.851
19.834	15.044	1035.783	787.775
20.848	14.852	1034.782	786.041
21.863	14.610	1033.998	784.241
22.877	14.373	1033.243	782.484
23.892	14.165	1032.351	780.766
24.907	14.024	1031.782	779.603
25.921	14.094	1030.950	779.233
26.936	14.206	1030.068	779.022
27.950	14.238	1029.318	778.537
28.965	14.121	1028.954	777.644
29.980	14.157	1028.168	777.148
30.994	14.331	1026.876	776.918
32.009	14.337	1026.461	776.560
33.023	14.397	1025.497	776.041
34.038	14.366	1025.215	775.618
35.053	14.270	1024.324	774.429
36.067	14.199	1023.219	773.193
37.082	14.271	1022.200	772.688
38.096	14.289	1021.829	772.423
39.111	14.333	1020.892	771.849
40.126	14.268	1020.399	771.111
41.140	14.319	1018.949	770.180
42.155	14.238	1018.002	769.024
43.169	14.167	1016.866	767.770
44.184	14.179	1016.000	767.104
45.199	14.028	1015.102	765.663
46.213	14.088	1014.189	765.180
47.228	14.069	1013.467	764.480
48.242	14.097	1012.663	763.936
49.257	14.052	1011.352	762.673
50.271	14.178	1010.517	762.554
51.286	14.272	1009.393	762.068
52.301	14.219	1008.352	760.970
53.315	14.295	1007.786	760.825
54.330	14.274	1006.717	759.855
55.344	14.132	1006.344	758.858
56.359	14.208	1004.753	757.937
57.374	14.204	1003.783	757.119
58.388	14.211	1003.117	756.585
59.403	14.102	1002.200	755.327
60.417	14.101	1001.786	754.944
61.432	14.113	1000.774	754.168
62.447	13.972	1000.691	753.403
63.461	14.088	999.497	752.961
64.476	14.128	998.212	752.110
65.490	14.029	997.934	751.384
66.505	13.969	997.231	750.515
67.520	14.058	996.363	750.199
68.534	14.192	995.391	750.003
69.549	14.180	994.516	749.227
70.563	14.090	994.041	748.397
71.578	14.238	993.261	748.408
72.593	14.097	992.403	747.062
73.607	14.001	991.666	746.008
74.622	14.011	990.278	744.947
75.636	14.106	989.898	745.018
76.651	14.190	988.645	744.386
77.666	14.032	988.283	743.342
78.680	13.985	987.557	742.521
79.695	13.961	987.431	742.252
80.709	13.954	986.498	741.452
81.724	14.182	985.397	741.576
82.739	14.218	984.736	741.173
83.753	14.102	984.090	740.105
84.768	14.095	983.423	739.506
85.782	14.335	982.021	739.452
86.797	14.381	981.378	739.110
87.812	14.356	980.391	738.187
88.826	14.260	980.107	737.483
89.841	14.229	979.065	736.500
90.855	14.233	978.478	736.007
91.870	14.292	977.464	735.441
92.884	14.282	977.066	735.031
93.899	14.198	976.558	734.216
94.914	14.402	975.176	734.010
95.928	14.460	975.037	734.097
96.943	14.418	973.879	732.974
97.957	14.311	973.507	732.159
98.972	14.361	972.405	731.484
99.987	14.348	971.694	730.829
101.001	14.308	971.236	730.243
102.016	14.287	970.499	729.533
103.030	14.371	969.293	728.931
104.045	14.433	968.267	728.364
105.060	14.393	967.158	727.291
106.074	14.356	966.425	726.515
107.089	14.226	966.111	725.645
108.103	14.291	964.914	724.965
109.118	14.130	964.252	723.706
110.133	14.225	963.202	723.263
111.147	14.271	962.148	722.608
112.162	14.245	961.534	721.971
113.176	14.221	961.029	721.425
114.191	14.160	960.146	720.434
115.206	14.305	959.207	720.292
116.220	14.269	958.291	719.386
117.235	14.262	957.293	718.543
118.249	14.241	956.624	717.885
119.264	14.203	955.838	717.069
120.279	14.097	955.259	716.115
121.293	14.367	954.174	716.398
122.308	14.318	953.605	715.698
123.322	14.186	952.674	714.370
124.337	14.173	951.978	713.730
125.352	14.209	950.654	712.827
126.366	14.125	949.751	711.727
127.381	14.283	948.381	711.313
128.395	14.226	947.574	710.403
129.410	14.233	946.931	709.886
130.424	14.297	946.042	709.431
131.439	14.184	945.183	708.241
132.454	14.144	944.440	707.451
133.468	14.295	943.583	707.387
134.483	14.298	942.941	706.858
135.497	14.323	941.927	706.141
136.512	14.223	941.473	705.315
137.527	14.352	940.413	705.003
138.541	14.269	939.714	704.066
139.556	14.150	939.253	703.157
140.570	14.315	938.417	703.166
141.585	14.453	937.369	702.899
142.600	14.344	936.972	702.082
143.614	14.401	936.312	701.763
144.629	14.258	935.735	700.667
145.643	14.373	934.611	700.249
146.658	14.539	933.629	700.148
147.673	14.463	932.788	699.135
148.687	14.384	931.635	697.876
149.702	14.269	931.228	697.030
150.716	14.369	930.356	696.735
151.731	14.346	929.595	696.005
152.746	14.339	928.806	695.324
153.760	14.414	928.172	695.101
154.775	14.562	927.578	695.213
155.789	14.442	927.060	694.262
156.804	14.505	925.621	693.383
157.819	14.589	924.852	693.095
158.833	14.465	924.552	692.296
159.848	14.505	923.544	691.646
160.862	14.462	923.223	691.166
161.877	14.522	922.460	690.781
162.892	14.285	922.079	689.453
163.906	14.477	920.693	689.149
164.921	14.548	919.759	688.683
165.935	14.465	918.979	687.695
166.950	14.601	917.495	687.085
167.964	14.619	916.928	686.672
168.979	14.558	916.103	685.743
169.994	14.551	914.956	684.796
171.008	14.594	914.362	684.466
172.023	14.413	913.783	683.230
173.037	14.601	912.801	683.205
174.052	14.666	912.172	682.943
175.067	14.694	911.742	682.674
176.081	14.544	911.312	681.680
177.096	14.531	909.976	680.567
178.110	14.699	909.276	680.668
179.125	14.613	908.583	679.736
180.140	14.638	907.834	679.217
181.154	14.680	906.938	678.660
182.169	14.718	906.391	678.343
183.183	14.731	905.901	677.970
184.198	14.823	905.010	677.614
185.213	14.864	904.403	677.268
186.227	14.893	903.707	676.804
187.242	14.813	903.701	676.416
188.256	14.957	902.677	676.173
189.271	14.977	902.160	675.807
190.286	14.910	901.676	675.114
191.300	14.680	900.962	673.592
192.315	14.623	900.108	672.661
193.329	14.652	899.616	672.353
194.344	14.761	898.449	671.859
195.359	14.801	897.908	671.554
196.373	15.018	897.516	672.075
197.388	14.827	897.216	671.023
198.402	14.891	896.528	670.705
199.417	14.876	895.908	670.124
200.432	15.097	895.368	670.545
201.446	15.076	895.156	670.243
202.461	15.032	895.061	669.936
203.475	14.911	894.680	669.108
204.490	14.917	893.758	668.384
205.504	15.134	892.508	668.254
206.519	15.062	891.812	667.386
207.534	14.915	891.584	666.572
208.548	15.106	890.182	666.224
209.563	15.193	889.445	665.959
210.577	15.095	889.024	665.196
211.592	15.108	888.454	664.763
212.607	15.199	888.504	665.104
213.621	15.155	887.585	664.181
214.636	15.171	887.327	663.992
215.650	15.137	886.210	662.963
216.665	15.262	885.623	662.960
217.680	15.288	885.136	662.641
218.694	15.262	884.927	662.324
219.709	15.308	884.027	661.771
220.723	15.346	883.499	661.466
221.738	15.237	882.865	660.507
222.753	15.262	881.848	659.784
223.767	15.313	881.204	659.446
224.782	15.416	880.294	659.109
225.796	15.419	879.610	658.549
226.811	15.365	879.280	658.036
227.826	15.388	878.278	657.315
228.840	15.328	877.911	656.747
229.855	15.391	876.899	656.180
230.869	15.387	876.456	655.775
231.884	15.320	875.923	655.054
232.899	15.477	874.936	654.871
233.913	15.339	874.243	653.758
234.928	15.375	873.867	653.560
235.942	15.379	873.094	652.938
236.957	15.439	872.396	652.592
237.972	15.506	871.893	652.419
238.986	15.459	870.718	651.300
240.001	15.479	870.504	651.161
241.015	15.453	869.734	650.423
242.030	15.524	869.133	650.193
243.045	15.502	868.763	649.775
244.059	15.533	868.045	649.299
245.074	15.603	867.239	648.910
246.088	15.497	866.898	648.187
247.103	15.649	866.262	648.241
248.117	15.702	865.668	647.944
249.132	15.600	865.221	647.157
250.147	15.665	864.878	647.094
251.161	15.883	864.050	647.254
252.176	15.774	863.782	646.580
253.190	15.903	862.959	646.401
254.205	15.876	861.925	645.466
255.220	15.898	861.669	645.302
256.234	15.864	860.792	644.457
257.249	15.802	860.697	644.093
258.263	16.020	859.592	644.042
259.278	15.888	859.475	643.393
260.293	15.958	858.965	643.220
261.307	15.924	858.426	642.629
262.322	15.957	857.735	642.181
263.336	16.171	856.755	642.208
264.351	16.056	856.294	641.367
265.366	16.133	855.751	641.195
266.380	16.067	855.190	640.469
267.395	16.128	854.029	639.774
268.409	16.158	853.574	639.491
269.424	16.146	852.879	638.867
270.439	16.033	852.357	637.990
271.453	16.192	851.457	637.861
272.468	16.189	850.909	637.383
273.482	16.181	850.308	636.846
274.497	16.401	849.503	637.019
275.512	16.171	849.261	635.912
276.526	16.030	848.696	634.902
277.541	16.237	847.554	634.772
278.555	16.220	846.960	634.204
279.570	16.380	846.235	634.209
280.585	16.221	846.395	633.673
281.599	16.370	845.906	633.811
282.614	16.173	845.354	632.604
283.628	16.233	844.610	632.216
284.643	16.401	843.963	632.303
285.657	16.362	843.441	631.711
286.672	16.272	843.134	631.089
287.687	16.432	842.301	631.007
288.701	16.462	841.844	630.719
289.716	16.462	841.243	630.215
290.730	16.473	841.095	630.088
291.745	16.501	840.062	629.363
292.760	16.567	839.495	629.127
293.774	16.440	838.908	628.161
294.789	16.506	838.432	627.994
295.803	16.625	837.358	627.574
296.818	16.531	837.111	626.986
297.833	16.506	836.650	626.492
298.847	16.605	835.592	626.011
299.862	16.572	835.221	625.553
300.876	16.612	834.959	625.450
301.891	16.635	833.925	624.708
302.906	16.746	833.364	624.642
303.920	16.656	832.805	623.834
304.935	16.655	832.131	623.270
305.949	16.834	831.173	623.156
306.964	16.632	831.020	622.246
307.979	16.833	830.273	622.369
308.993	16.749	829.775	621.630
310.008	16.847	829.001	621.356
311.022	16.855	828.924	621.273
312.037	16.833	828.365	620.716
313.052	16.884	828.064	620.625
314.066	16.789	827.330	619.672
315.081	16.686	826.660	618.737
316.095	16.841	826.243	618.936
317.110	16.803	825.939	618.517
318.125	16.666	825.111	617.341
319.139	16.892	824.293	617.499
320.154	16.879	823.847	617.062
321.168	16.909	823.315	616.719
322.183	16.909	822.871	616.331
323.197	16.929	822.603	616.150
324.212	16.954	821.953	615.697
325.227	17.053	821.269	615.489
326.241	16.976	821.075	615.011
327.256	16.918	820.473	614.297
328.270	16.851	820.133	613.743
329.285	17.007	819.363	613.680
330.300	16.864	818.554	612.500
331.314	17.035	817.918	612.589
332.329	17.164	817.051	612.349
333.343	17.016	816.879	611.633
334.358	17.039	816.420	611.318
335.373	17.115	815.543	610.880
336.387	17.135	815.400	610.792
337.402	17.119	814.713	610.166
338.416	17.245	813.997	610.029
339.431	17.358	813.198	609.781
340.446	17.197	813.001	609.002
341.460	17.198	812.428	608.521
342.475	17.187	811.899	608.031
343.489	17.280	811.360	607.909
344.504	17.234	811.116	607.507
345.519	17.429	809.992	607.309
346.533	17.406	809.820	607.042
347.548	17.327	809.473	606.447
348.562	17.364	808.812	606.029
349.577	17.160	808.681	605.153
350.592	17.374	807.675	605.108
351.606	17.293	807.543	604.665
352.621	17.409	807.009	604.624
353.635	17.466	806.649	604.502
354.650	17.223	806.524	603.492
355.665	17.447	805.764	603.668
356.679	17.527	804.588	603.015
357.694	17.539	804.576	602.997
358.708	17.613	803.979	602.755
359.723	17.517	803.813	602.239
360.738	17.287	803.613	601.222
361.752	17.370	802.816	600.867
362.767	17.591	802.144	601.090
363.781	17.390	801.995	600.217
364.796	17.481	801.632	600.214
365.810	17.490	801.162	599.840
366.825	17.624	800.789	599.980
367.840	17.673	800.329	599.752
368.854	17.572	800.192	599.242
369.869	17.712	799.490	599.154
370.883	17.742	798.739	598.645
371.898	17.574	798.388	597.740
372.913	17.607	797.566	597.187
373.927	17.937	796.882	597.776
374.942	17.760	796.713	596.977
375.956	17.795	795.807	596.370
376.971	17.823	795.246	595.993
377.986	17.844	794.767	595.654
379.000	17.782	794.221	594.976
380.015	17.888	793.924	595.072
381.029	17.890	793.167	594.459
382.044	17.912	792.748	594.169
383.059	17.952	791.942	593.650
384.073	17.922	791.850	593.426
385.088	18.046	791.266	593.365
386.102	17.959	790.721	592.604
387.117	18.097	790.061	592.535
388.132	17.960	789.785	591.799
389.146	18.038	789.255	591.621
390.161	18.067	788.855	591.366
391.175	18.179	788.255	591.253
392.190	18.126	788.105	590.904
393.205	18.069	787.468	590.177
394.219	17.985	787.454	589.826
395.234	17.952	786.891	589.238
396.248	17.978	786.371	588.886
397.263	18.035	785.524	588.394
398.278	18.012	785.170	588.001
399.292	17.972	784.798	587.531
400.307	18.194	784.750	588.206
401.321	18.244	783.824	587.631
402.336	18.073	783.620	586.839
403.350	18.153	783.497	586.973
404.365	18.085	783.283	586.526
405.380	18.154	782.465	586.098
406.394	18.224	781.894	585.856
407.409	18.185	781.527	585.397
408.423	18.423	780.983	585.752
409.438	18.434	780.543	585.408
410.453	18.232	780.632	584.732
411.467	18.464	779.912	584.934
412.482	18.315	779.504	584.069
413.496	18.447	778.575	583.770
414.511	18.497	778.723	583.998
415.526	18.430	778.462	583.524
416.540	18.398	777.869	582.917
417.555	18.474	777.445	582.807
418.569	18.603	776.711	582.645
419.584	18.470	776.589	582.048
420.599	18.607	776.300	582.245
421.613	115.928	1294.275	1485.334
422.628	99.418	1369.710	1485.400
