DTS Sentinel unit serial number:	SN413079Multiplexer serial number:	ORYXHardware model number:	OX4-SRSoftware version number:	ORYX F/W v4.00 Oryx Data Collector v3.7.2.0data status	okinstallation	princeton_trtdifferential loss correction	single-endedforward channel	channel 3reverse channel	N/Adate	2019/09/11time	00:18:11forward acquisition time	60.00reverse acquisition time	0.00gamma	496.2192k internal	0.2332k external	0.2332temperature offset calibration	0.9921default loss term (dB/km)	0.3790temperature slope calibration	1.0000multiplexer offset coefficient	1.0000multiplexer slope coefficient	1.0000fibre end	0.00T internal ref (°C)	29.30T ext. ref 1 (°C)	-0.31T ext. ref 2 (°C)	22.85length (m)	temperature (°C)	Stokes	anti-Stokes-747.200	-60.197	0.255	0.110
-746.185	233.925	-0.221	-0.366
-745.171	800.000	0.041	-0.160
-744.156	-15.977	-0.124	0.080
-743.142	202.435	0.107	0.166
-742.127	-136.618	-0.250	0.029
-741.112	164.930	0.057	0.081
-740.098	104.454	0.173	-0.205
-739.083	120.288	0.172	0.215
-738.069	-200.000	-0.049	0.238
-737.054	-200.000	-0.008	0.306
-736.039	681.916	-0.071	0.186
-735.025	-95.556	0.419	-0.113
-734.010	33.510	-0.174	0.152
-732.996	101.152	-0.220	0.258
-731.981	-200.000	-0.063	0.439
-730.966	-38.525	-0.173	-0.092
-729.952	-36.442	-0.092	0.050
-728.937	84.597	-0.127	-0.140
-727.923	-67.114	-0.164	-0.065
-726.908	-101.879	0.321	0.078
-725.894	50.233	0.198	0.188
-724.879	800.000	0.087	-0.381
-723.864	-134.582	0.355	0.043
-722.850	-130.335	-0.534	-0.073
-721.835	-200.000	0.010	-0.480
-720.821	-200.000	0.051	-0.268
-719.806	-144.988	-0.393	-0.036
-718.791	-121.840	0.150	0.025
-717.777	-141.542	-0.414	-0.042
-716.762	-81.292	0.215	-0.071
-715.748	306.051	-0.259	0.485
-714.733	-17.039	-0.174	-0.110
-713.718	-100.970	-0.328	-0.081
-712.704	-40.685	0.099	-0.051
-711.689	-24.638	0.234	0.140
-710.675	-200.000	-0.070	0.342
-709.660	-111.566	-0.360	-0.073
-708.645	-7.854	0.010	0.007
-707.631	56.433	0.180	0.176
-706.616	-200.000	-0.059	-0.270
-705.602	-8.362	-0.063	0.042
-704.587	800.000	-0.012	0.046
-703.572	-113.271	-0.052	-0.010
-702.558	13.403	-0.166	-0.129
-701.543	-18.921	0.242	-0.151
-700.529	-42.764	-0.164	-0.084
-699.514	-200.000	-0.091	-0.475
-698.499	800.000	-0.137	-0.436
-697.485	-200.000	0.042	0.401
-696.470	49.780	-0.055	-0.052
-695.456	800.000	0.033	0.117
-694.441	800.000	0.053	0.150
-693.426	800.000	-0.032	-0.094
-692.412	305.642	-0.167	0.312
-691.397	185.652	-0.242	-0.362
-690.383	800.000	-0.079	-0.246
-689.368	553.366	-0.036	-0.086
-688.354	203.537	0.151	0.234
-687.339	800.000	0.015	0.065
-686.324	-200.000	-0.001	-0.259
-685.310	192.137	0.113	-0.171
-684.295	15.734	0.044	0.035
-683.281	51.210	-0.131	-0.125
-682.266	75.190	-0.127	0.134
-681.251	34.187	-0.068	-0.059
-680.237	-133.981	0.159	0.020
-679.222	800.000	-0.086	-0.241
-678.208	-200.000	-0.045	0.224
-677.193	-200.000	-0.042	-0.183
-676.178	243.573	-0.061	0.103
-675.164	310.898	-0.075	-0.141
-674.149	800.000	-0.126	-0.424
-673.135	597.485	-0.113	-0.280
-672.120	-115.895	0.213	0.040
-671.105	-103.824	0.260	0.061
-670.091	-188.900	-0.178	-0.002
-669.076	-200.000	-0.001	0.238
-668.062	53.251	-0.099	-0.095
-667.047	44.333	0.241	-0.222
-666.032	-200.000	-0.004	-0.032
-665.018	-200.000	-0.005	0.069
-664.003	800.000	0.026	0.098
-662.989	404.553	0.068	-0.143
-661.974	-97.916	-0.054	0.014
-660.959	257.108	-0.122	-0.211
-659.945	-19.113	-0.264	0.164
-658.930	392.937	0.065	0.136
-657.916	-200.000	0.021	-0.113
-656.901	-158.636	-0.065	0.004
-655.886	-42.501	0.099	-0.051
-654.872	83.356	-0.325	-0.355
-653.857	-126.067	0.319	0.048
-652.843	616.580	0.168	-0.422
-651.828	6.224	0.086	0.064
-650.814	-200.000	0.030	0.193
-649.799	772.115	0.060	-0.163
-648.784	-161.257	-0.163	0.008
-647.770	198.314	0.152	-0.233
-646.755	-12.634	-0.311	-0.203
-645.741	-95.271	-0.351	-0.095
-644.726	-62.697	0.430	0.179
-643.711	-27.392	0.305	-0.178
-642.697	3.122	-0.217	0.158
-641.682	-31.117	-0.339	-0.192
-640.668	0.751	-0.287	0.206
-639.653	-64.105	0.223	0.091
-638.638	156.258	0.126	-0.174
-637.624	409.087	0.096	-0.204
-636.609	-95.508	-0.395	-0.106
-635.595	-165.325	-0.210	0.009
-634.580	-20.531	-0.073	0.045
-633.565	-171.001	0.084	0.003
-632.551	220.837	0.073	-0.117
-631.536	479.573	-0.017	0.039
-630.522	-148.933	-0.279	0.023
-629.507	-200.000	0.004	0.035
-628.492	800.000	0.018	0.061
-627.478	-200.000	0.016	-0.196
-626.463	296.556	-0.174	-0.320
-625.449	-200.000	-0.012	0.171
-624.434	-200.000	-0.022	0.287
-623.419	737.262	0.049	-0.131
-622.405	350.855	0.073	-0.145
-621.390	-14.839	-0.062	-0.040
-620.376	-116.336	-0.286	-0.053
-619.361	-200.000	0.008	0.224
-618.346	-160.220	-0.044	-0.002
-617.332	800.000	0.056	-0.173
-616.317	70.540	0.247	0.256
-615.303	285.706	0.046	0.083
-614.288	-14.789	-0.158	0.101
-613.273	-37.670	0.079	0.042
-612.259	448.986	0.077	-0.169
-611.244	-78.327	0.354	0.122
-610.230	51.463	0.131	-0.124
-609.215	73.664	-0.097	0.102
-608.201	-200.000	0.029	0.195
-607.186	-200.000	-0.006	0.117
-606.171	-161.428	-0.201	0.010
-605.157	-11.718	0.140	-0.092
-604.142	-147.620	0.190	-0.016
-603.128	278.108	0.124	0.222
-602.113	172.851	0.078	-0.112
-601.098	-200.000	-0.022	-0.295
-600.084	-99.523	-0.160	-0.040
-599.069	-200.000	-0.044	-0.241
-598.055	800.000	-0.016	0.054
-597.040	-79.702	-0.125	0.042
-596.025	21.334	0.185	0.150
-595.011	177.897	0.181	0.264
-593.996	-200.000	-0.001	0.163
-592.982	-200.000	-0.011	0.145
-591.967	-94.478	0.230	0.063
-590.952	-200.000	0.014	0.074
-589.938	-105.735	0.148	0.033
-588.923	220.084	0.081	0.129
-587.909	800.000	0.045	0.162
-586.894	-56.065	0.070	-0.031
-585.879	-134.122	-0.124	0.015
-584.865	-52.224	-0.251	-0.117
-583.850	-154.752	-0.313	-0.021
-582.836	117.026	-0.148	-0.182
-581.821	433.496	0.067	-0.145
-580.806	-91.717	0.349	-0.099
-579.792	-200.000	-0.076	0.532
-578.777	800.000	0.055	-0.160
-577.763	554.143	0.095	-0.229
-576.748	81.592	-0.290	0.313
-575.733	154.490	-0.166	-0.227
-574.719	-48.730	0.121	0.058
-573.704	-48.291	0.046	-0.022
-572.690	-200.000	0.015	-0.186
-571.675	800.000	0.053	-0.211
-570.661	28.608	0.116	0.098
-569.646	406.251	-0.007	0.015
-568.631	127.392	-0.187	-0.238
-567.617	13.077	-0.220	0.170
-566.602	11.838	-0.080	0.061
-565.588	-27.094	0.039	0.023
-564.573	188.142	-0.139	0.208
-563.558	205.642	0.135	-0.210
-562.544	-200.000	-0.010	0.084
-561.529	337.148	-0.138	0.268
-560.515	-59.168	0.187	-0.081
-559.500	17.148	0.235	-0.186
-558.485	-200.000	0.002	0.183
-557.471	-200.000	0.002	-0.092
-556.456	54.729	-0.138	-0.133
-555.442	79.907	0.028	-0.030
-554.427	185.239	0.093	-0.138
-553.412	800.000	0.038	0.131
-552.398	92.690	-0.119	0.134
-551.383	800.000	-0.083	-0.260
-550.369	-182.185	-0.219	-0.004
-549.354	-200.000	-0.007	-0.212
-548.339	800.000	0.106	-0.377
-547.325	58.276	-0.218	-0.213
-546.310	227.649	0.062	-0.101
-545.296	-82.018	0.209	-0.068
-544.281	207.410	0.127	0.197
-543.266	386.713	0.119	-0.245
-542.252	-66.642	0.089	0.035
-541.237	-200.000	-0.056	-0.482
-540.223	-200.000	0.058	-0.416
-539.208	-200.000	-0.012	-0.359
-538.193	44.846	-0.277	-0.254
-537.179	36.330	-0.234	-0.206
-536.164	-127.222	0.104	-0.015
-535.150	-200.000	0.041	-0.276
-534.135	117.375	-0.189	0.232
-533.121	-31.442	0.252	-0.141
-532.106	170.653	-0.188	-0.269
-531.091	-81.247	0.205	-0.068
-530.077	-89.401	0.228	-0.067
-529.062	156.680	0.219	0.302
-528.048	75.196	0.086	0.090
-527.033	18.934	0.111	-0.089
-526.018	-47.379	-0.230	-0.112
-525.004	-67.742	-0.127	0.050
-523.989	-200.000	0.080	0.373
-522.975	-42.819	-0.196	0.100
-521.960	-147.850	-0.346	0.029
-520.945	-39.315	-0.117	-0.061
-519.931	51.857	-0.153	0.145
-518.916	133.313	0.201	0.259
-517.902	-200.000	-0.034	0.234
-516.887	69.876	0.088	0.091
-515.872	117.207	0.210	-0.257
-514.858	237.587	0.214	-0.355
-513.843	-57.529	-0.222	0.097
-512.829	-48.845	-0.041	-0.020
-511.814	-115.038	-0.061	0.011
-510.799	35.495	-0.357	0.312
-509.785	-168.367	0.347	-0.013
-508.770	689.725	-0.113	0.296
-507.756	-187.395	0.447	0.006
-506.741	-200.000	-0.026	-0.173
-505.726	746.265	0.099	0.265
-504.712	-18.204	-0.219	0.137
-503.697	-52.132	0.424	0.196
-502.683	-200.000	-0.003	0.256
-501.668	-131.421	-0.101	0.013
-500.653	767.381	0.041	-0.112
-499.639	370.608	0.158	0.319
-498.624	324.226	-0.110	-0.209
-497.610	120.840	-0.215	0.266
-496.595	-200.000	-0.015	-0.335
-495.581	-200.000	0.083	-0.545
-494.566	-164.395	-0.303	-0.014
-493.551	-114.175	-0.391	-0.075
-492.537	-200.000	-0.008	0.146
-491.522	13.780	-0.269	-0.208
-490.508	-14.419	-0.157	0.101
-489.493	-154.240	-0.140	0.009
-488.478	-6.658	-0.236	0.160
-487.464	-200.000	0.025	-0.191
-486.449	-90.701	0.049	0.014
-485.435	54.695	0.061	0.058
-484.420	-48.018	0.122	-0.059
-483.405	800.000	0.008	0.031
-482.391	306.522	0.035	0.064
-481.376	-96.792	-0.136	0.036
-480.362	-130.042	-0.168	0.023
-479.347	-153.526	-0.118	-0.008
-478.332	800.000	0.090	0.301
-477.318	169.732	0.187	0.267
-476.303	174.647	0.098	-0.141
-475.289	60.002	-0.410	-0.404
-474.274	-200.000	0.032	-0.246
-473.259	800.000	0.017	-0.054
-472.245	-200.000	0.011	-0.095
-471.230	-115.854	-0.157	0.029
-470.216	-31.973	-0.180	0.100
-469.201	-28.265	0.136	-0.078
-468.186	42.203	0.075	-0.068
-467.172	800.000	-0.044	0.164
-466.157	116.466	-0.138	0.168
-465.143	-145.771	0.416	0.037
-464.128	-200.000	0.038	-0.182
-463.113	163.197	-0.060	0.084
-462.099	-18.564	-0.240	0.149
-461.084	32.811	0.092	0.079
-460.070	30.605	0.183	-0.156
-459.055	332.313	-0.109	0.209
-458.040	-117.628	-0.108	-0.019
-457.026	-111.550	0.194	-0.039
-456.011	77.139	-0.215	0.228
-454.997	202.380	0.184	-0.283
-453.982	313.919	-0.193	0.362
-452.968	37.950	-0.111	0.098
-451.953	-115.341	0.184	-0.035
-450.938	-144.141	-0.240	0.022
-449.924	-200.000	-0.010	0.089
-448.909	512.307	0.128	-0.297
-447.895	151.387	-0.164	0.221
-446.880	-200.000	0.044	0.209
-445.865	93.306	0.146	0.164
-444.851	-162.520	-0.162	-0.008
-443.836	-119.326	0.225	-0.039
-442.822	-79.540	-0.204	-0.069
-441.807	-6.309	-0.071	-0.048
-440.792	7.578	0.326	0.242
-439.778	-200.000	-0.025	0.272
-438.763	381.754	0.094	0.191
-437.749	-140.698	-0.173	0.018
-436.734	-191.511	-0.035	0.000
-435.719	-65.610	0.301	-0.120
-434.705	-108.327	-0.062	0.013
-433.690	-3.132	0.247	0.171
-432.676	191.365	-0.171	0.255
-431.661	800.000	-0.175	0.620
-430.646	186.319	-0.090	-0.133
-429.632	800.000	-0.029	0.088
-428.617	-200.000	0.012	0.159
-427.603	238.921	-0.235	0.388
-426.588	-200.000	0.005	-0.036
-425.573	-52.100	0.139	-0.064
-424.559	-12.280	0.250	-0.162
-423.544	271.582	-0.053	0.092
-422.530	150.179	-0.108	-0.145
-421.515	72.115	0.173	0.179
-420.500	-53.130	0.121	-0.055
-419.486	-108.810	0.162	-0.034
-418.471	-125.208	-0.170	0.026
-417.457	113.196	0.107	-0.129
-416.442	-105.439	0.190	0.043
-415.428	-200.000	-0.042	-0.355
-414.413	-89.785	-0.215	0.063
-413.398	-2.028	0.254	-0.177
-412.384	318.237	-0.069	0.130
-411.369	-200.000	-0.013	0.279
-410.355	-110.994	-0.263	-0.054
-409.340	480.650	0.053	0.119
-408.325	87.068	0.060	-0.066
-407.311	-200.000	0.019	0.171
-406.296	328.096	0.077	0.146
-405.282	-33.129	0.207	-0.114
-404.267	-138.099	0.260	-0.029
-403.252	213.606	-0.047	-0.074
-402.238	120.228	-0.080	0.098
-401.223	2.467	-0.128	-0.092
-400.209	692.434	0.117	-0.303
-399.194	-200.000	0.251	-0.001
-398.179	-93.877	-0.215	-0.059
-397.165	235.123	-0.275	0.451
-396.150	-200.000	0.048	-0.211
-395.136	-54.407	0.256	-0.115
-394.121	-45.527	-0.078	0.038
-393.106	-15.116	-0.263	0.167
-392.092	-101.321	-0.228	0.055
-391.077	427.670	0.109	0.232
-390.063	179.662	0.330	0.480
-389.048	489.372	-0.087	0.198
-388.033	-200.000	-0.004	0.093
-387.019	36.585	-0.358	-0.313
-386.004	652.645	0.129	-0.329
-384.990	64.177	-0.279	0.279
-383.975	59.378	0.178	0.174
-382.960	-136.680	0.156	0.018
-381.946	422.248	-0.022	-0.048
-380.931	-91.081	0.242	0.069
-379.917	-200.000	0.004	0.022
-378.902	-121.966	-0.165	-0.027
-377.888	-200.000	0.057	-0.368
-376.873	-130.983	-0.304	0.040
-375.858	-163.736	0.212	-0.010
-374.844	-99.426	0.072	-0.018
-373.829	-17.631	0.270	-0.168
-372.815	-200.000	0.010	0.313
-371.800	-85.558	-0.071	-0.022
-370.785	50.227	0.333	-0.312
-369.771	178.803	0.243	-0.352
-368.756	114.744	-0.277	-0.335
-367.742	-42.332	-0.256	0.130
-366.727	800.000	-0.085	0.345
-365.712	800.000	-0.024	-0.068
-364.698	5.062	-0.371	-0.271
-363.683	54.775	0.057	-0.055
-362.669	26.199	-0.120	-0.099
-361.654	107.085	0.094	0.111
-360.639	-200.000	0.017	0.162
-359.625	800.000	-0.061	0.261
-358.610	224.070	-0.165	-0.264
-357.596	361.223	-0.232	-0.462
-356.581	-30.929	-0.235	0.131
-355.566	96.774	0.143	-0.162
-354.552	-14.426	-0.213	-0.136
-353.537	237.650	0.141	0.232
-352.523	219.801	0.075	0.119
-351.508	-94.170	-0.149	-0.040
-350.493	54.151	0.213	-0.203
-349.479	104.306	0.145	-0.169
-348.464	103.934	0.198	-0.231
-347.450	-148.632	-0.113	-0.009
-346.435	800.000	0.008	-0.029
-345.420	-79.231	0.181	-0.061
-344.406	69.280	-0.181	0.184
-343.391	-200.000	-0.008	-0.033
-342.377	-200.000	-0.043	-0.301
-341.362	-24.518	-0.398	0.235
-340.348	-50.472	0.123	-0.058
-339.333	-138.945	-0.186	-0.020
-338.318	-46.874	0.241	-0.117
-337.304	-200.000	0.002	-0.153
-336.289	368.600	-0.128	-0.257
-335.275	406.094	-0.062	-0.130
-334.260	800.000	-0.086	0.316
-333.245	15.307	-0.111	-0.086
-332.231	-161.419	-0.264	-0.013
-331.216	-0.393	-0.026	0.018
-330.202	-60.823	0.226	-0.095
-329.187	125.799	-0.047	-0.059
-328.172	177.670	0.073	0.105
-327.158	800.000	0.021	0.066
-326.143	-82.644	-0.203	-0.065
-325.129	-66.106	0.170	0.067
-324.114	-200.000	-0.046	0.401
-323.099	-200.000	-0.031	-0.138
-322.085	249.943	0.070	-0.118
-321.070	800.000	0.050	-0.151
-320.056	-200.000	0.031	0.337
-319.041	-103.131	-0.258	-0.060
-318.026	102.203	0.130	0.151
-317.012	44.817	-0.116	0.106
-315.997	163.469	0.088	-0.122
-314.983	34.583	0.156	-0.135
-313.968	-129.897	-0.150	-0.020
-312.953	46.305	0.120	-0.110
-311.939	122.874	0.145	-0.180
-310.924	49.286	0.119	0.111
-309.910	-200.000	-0.080	-0.384
-308.895	-102.552	0.060	-0.014
-307.880	-200.000	-0.089	0.445
-306.866	800.000	0.050	0.208
-305.851	-55.814	0.392	-0.173
-304.837	-200.000	0.044	0.241
-303.822	-200.000	-0.034	0.264
-302.807	-200.000	-0.007	0.088
-301.793	800.000	-0.091	0.348
-300.778	23.443	0.158	0.129
-299.764	49.387	-0.160	-0.148
-298.749	800.000	0.022	0.086
-297.735	-95.129	0.260	-0.069
-296.720	-24.588	-0.318	0.187
-295.705	42.930	0.187	-0.168
-294.691	-122.700	0.171	-0.027
-293.676	-125.631	0.218	-0.033
-292.662	-67.903	0.030	0.011
-291.647	103.674	0.090	0.104
-290.632	245.726	-0.090	-0.151
-289.618	-200.000	-0.064	0.315
-288.603	-12.358	-0.244	0.158
-287.589	-46.493	0.135	-0.066
-286.574	-48.051	-0.211	-0.101
-285.559	356.365	0.097	-0.190
-284.545	-136.550	-0.136	-0.016
-283.530	275.737	-0.036	0.063
-282.516	40.582	-0.313	0.279
-281.501	78.344	0.174	-0.184
-280.486	670.403	0.042	0.108
-279.472	16.763	-0.106	0.083
-278.457	-98.330	-0.122	-0.031
-277.443	-200.000	0.022	-0.125
-276.428	420.091	0.042	-0.089
-275.413	180.805	-0.202	0.292
-274.399	459.932	0.192	0.423
-273.384	-194.265	0.168	0.001
-272.370	-162.578	-0.432	-0.021
-271.355	159.303	-0.237	-0.326
-270.340	25.609	0.028	0.023
-269.326	322.210	0.055	-0.104
-268.311	-200.000	-0.004	0.166
-267.297	-200.000	-0.077	-0.448
-266.282	-123.478	0.166	-0.026
-265.267	141.950	0.183	0.240
-264.253	-156.222	0.264	0.016
-263.238	-28.167	-0.132	-0.075
-262.224	-135.644	-0.279	-0.033
-261.209	463.955	0.107	-0.236
-260.195	-159.989	0.142	-0.008
-259.180	-200.000	0.036	0.284
-258.165	-24.784	-0.230	-0.135
-257.151	584.929	0.181	0.439
-256.136	-89.626	-0.122	-0.035
-255.122	4.303	0.023	-0.017
-254.107	52.590	0.134	-0.127
-253.092	17.719	-0.136	0.107
-252.078	-15.825	0.296	-0.186
-251.063	-129.549	0.096	0.013
-250.049	-57.318	0.209	-0.091
-249.034	80.554	0.147	-0.157
-248.019	-4.972	0.142	0.096
-247.005	153.178	0.201	-0.271
-245.990	-177.866	0.211	-0.005
-244.976	396.510	0.109	-0.225
-243.961	800.000	0.082	-0.237
-242.946	800.000	0.053	-0.223
-241.932	649.294	-0.094	0.237
-240.917	-80.305	0.328	-0.108
-239.903	-57.083	-0.208	-0.090
-238.888	36.107	0.146	0.127
-237.873	149.328	-0.204	-0.272
-236.859	-42.257	0.109	-0.055
-235.844	-145.176	0.256	0.023
-234.830	-200.000	-0.001	-0.140
-233.815	76.783	-0.054	-0.057
-232.800	-158.985	-0.233	-0.013
-231.786	800.000	-0.034	0.142
-230.771	139.051	-0.188	-0.243
-229.757	493.326	0.162	0.366
-228.742	545.822	-0.029	0.069
-227.727	-40.889	0.098	0.050
-226.713	4.844	-0.088	0.064
-225.698	-69.521	0.126	-0.048
-224.684	-84.806	-0.089	-0.028
-223.669	-200.000	0.006	0.246
-222.655	109.537	0.169	0.200
-221.640	-200.000	0.019	0.091
-220.625	800.000	-0.083	0.236
-219.611	22.794	0.177	-0.143
-218.596	640.786	-0.069	0.173
-217.582	-38.568	0.149	-0.078
-216.567	191.388	-0.087	-0.129
-215.552	-200.000	0.007	0.141
-214.538	-200.000	0.026	0.128
-213.523	10.953	-0.175	0.132
-212.509	385.472	0.094	-0.190
-211.494	-55.048	0.083	0.037
-210.479	-200.000	0.000	0.317
-209.465	-171.375	0.304	0.010
-208.450	800.000	-0.091	-0.376
-207.436	-134.055	-0.140	-0.017
-206.421	86.619	0.292	0.317
-205.406	210.028	0.116	0.179
-204.392	103.468	0.125	-0.145
-203.377	92.715	-0.205	-0.228
-202.363	1.482	0.019	-0.014
-201.348	-200.000	0.005	0.062
-200.333	593.172	-0.128	0.312
-199.319	81.314	-0.277	-0.295
-198.304	-109.619	0.197	-0.041
-197.290	-200.000	-0.037	-0.210
-196.275	-85.663	0.016	0.005
-195.260	-12.149	0.341	-0.220
-194.246	-146.241	0.086	0.007
-193.231	-7.809	0.086	-0.057
-192.217	-121.875	-0.178	0.029
-191.202	-114.822	-0.148	0.028
-190.187	-200.000	-0.010	-0.088
-189.173	-200.000	-0.091	-0.394
-188.158	-67.210	-0.169	0.065
-187.144	-78.822	-0.334	0.112
-186.129	-124.916	0.504	0.076
-185.114	4.165	-0.368	0.265
-184.100	13.505	-0.112	0.085
-183.085	-141.073	-0.211	0.021
-182.071	350.510	0.056	-0.110
-181.056	169.832	-0.120	0.169
-180.042	149.033	-0.128	0.170
-179.027	153.435	0.241	-0.325
-178.012	104.977	-0.227	-0.264
-176.998	800.000	0.047	0.202
-175.983	-41.799	0.210	-0.106
-174.969	464.635	0.052	0.115
-173.954	686.435	0.053	0.136
-172.939	132.072	0.168	0.213
-171.925	120.772	0.204	-0.249
-170.910	800.000	-0.026	0.093
-169.896	559.331	0.110	-0.261
-168.881	-200.000	-0.036	0.294
-167.866	-180.666	0.111	0.002
-166.852	-200.000	0.027	-0.126
-165.837	156.137	0.228	0.309
-164.823	188.830	0.044	0.065
-163.808	44.562	0.153	-0.139
-162.793	176.251	0.111	-0.159
-161.779	465.558	0.042	0.092
-160.764	-63.035	-0.463	0.188
-159.750	-52.737	-0.030	-0.014
-158.735	-37.593	0.222	0.116
-157.720	-12.689	-0.110	-0.071
-156.706	-125.571	-0.139	0.021
-155.691	183.125	-0.155	-0.225
-154.677	-63.737	0.123	0.049
-153.662	104.658	0.079	-0.092
-152.647	-26.058	0.159	0.092
-151.633	-200.000	-0.002	-0.217
-150.618	800.000	0.037	-0.142
-149.604	-6.198	-0.213	-0.143
-148.589	-200.000	-0.041	0.187
-147.574	800.000	-0.057	0.208
-146.560	-159.428	0.132	-0.007
-145.545	-143.332	0.123	-0.012
-144.531	-200.000	0.014	-0.475
-143.516	-200.000	0.026	0.115
-142.502	-47.507	0.262	-0.125
-141.487	-81.761	-0.160	-0.051
-140.472	-121.010	-0.110	0.018
-139.458	-100.264	-0.252	-0.061
-138.443	161.502	-0.210	0.289
-137.429	370.088	-0.170	-0.339
-136.414	-38.337	-0.308	0.160
-135.399	-62.571	0.049	0.020
-134.385	-6.516	0.035	-0.024
-133.370	800.000	0.073	0.252
-132.356	-122.624	0.328	-0.052
-131.341	-123.347	0.084	0.013
-130.326	-118.904	0.310	0.053
-129.312	-200.000	0.017	-0.282
-128.297	158.235	-0.122	-0.166
-127.283	76.570	-0.040	0.042
-126.268	-129.139	0.147	-0.020
-125.253	800.000	0.072	-0.200
-124.239	213.175	-0.076	-0.118
-123.224	92.253	0.178	0.197
-122.210	686.157	0.075	-0.193
-121.195	27.615	-0.136	0.112
-120.180	18.318	-0.107	0.084
-119.166	-46.277	0.356	-0.172
-118.151	36.225	0.279	-0.242
-117.137	-122.798	-0.283	-0.045
-116.122	83.380	0.213	0.228
-115.107	-151.681	-0.172	-0.012
-114.093	-36.427	-0.372	0.197
-113.078	-61.224	0.234	0.097
-112.064	233.537	-0.133	0.214
-111.049	739.920	0.118	0.311
-110.034	-76.216	-0.037	0.013
-109.020	35.359	-0.118	0.102
-108.005	90.716	-0.289	0.317
-106.991	142.603	-0.138	0.180
-105.976	800.000	0.029	-0.118
-104.962	-200.000	-0.005	0.034
-103.947	800.000	-0.025	-0.071
-102.932	117.102	0.210	0.253
-101.918	16.093	-0.277	0.214
-100.903	-3.331	0.306	-0.209
-99.889	168.964	0.052	0.073
-98.874	-66.825	-0.394	-0.153
-97.859	-151.670	-0.200	-0.014
-96.845	-200.000	-0.031	-0.401
-95.830	19.969	0.190	-0.150
-94.816	386.838	-0.163	-0.331
-93.801	2.187	-0.366	-0.260
-92.786	19.687	-0.191	-0.151
-91.772	207.691	-0.046	-0.071
-90.757	-200.000	0.014	0.218
-89.743	-111.700	0.526	0.105
-88.728	301.570	-0.104	-0.189
-87.713	-200.000	-0.067	-0.336
-86.699	-71.902	-0.171	0.062
-85.684	-87.271	0.290	0.086
-84.670	789.366	0.163	-0.439
-83.655	67.980	0.188	0.188
-82.640	-103.913	0.355	-0.081
-81.626	338.035	-0.142	-0.271
-80.611	-51.169	0.355	-0.163
-79.597	166.435	0.257	0.357
-78.582	543.795	-0.142	0.333
-77.567	82.691	-0.228	0.243
-76.553	-123.260	0.081	-0.013
-75.538	-49.314	-0.321	0.150
-74.524	-56.477	-0.172	-0.075
-73.509	10.707	0.206	-0.154
-72.494	-91.040	-0.209	-0.059
-71.480	-62.363	0.209	-0.085
-70.465	46.998	0.051	-0.046
-69.451	-125.102	0.309	-0.047
-68.436	334.238	0.107	0.202
-67.422	-15.417	0.196	0.123
-66.407	198.008	-0.243	-0.364
-65.392	56.191	-0.223	-0.213
-64.378	201.200	-0.078	0.117
-63.363	14.665	0.120	-0.092
-62.349	546.751	0.141	0.330
-61.334	58.365	-1.163	-1.118
-60.319	-73.189	0.798	0.286
-59.305	800.000	-0.350	-0.959
-58.290	217.479	0.634	0.990
-57.276	772.239	0.513	1.368
-56.261	-200.000	107.025	617.135
-55.246	514.599	1510.447	3452.598
-54.232	176.569	2700.260	3844.150
-53.217	109.836	2179.713	2560.232
-52.203	39.901	1703.118	1497.622
-51.188	32.512	1515.707	1282.663
-50.173	30.059	1489.808	1244.246
-49.159	50.819	1545.858	1433.753
-48.144	50.986	1561.997	1449.808
-47.130	32.552	1518.230	1284.869
-46.115	29.586	1503.598	1252.361
-45.100	29.466	1499.594	1248.162
-44.086	29.282	1497.571	1245.191
-43.071	29.321	1495.508	1243.684
-42.057	29.284	1493.906	1242.058
-41.042	29.261	1493.037	1241.129
-40.027	29.339	1490.925	1239.846
-39.013	29.289	1489.285	1238.099
-37.998	29.238	1488.481	1237.039
-36.984	29.380	1486.538	1236.328
-35.969	29.237	1485.729	1234.645
-34.954	29.236	1483.987	1233.147
-33.940	29.293	1483.177	1232.803
-32.925	29.309	1481.477	1231.448
-31.911	29.260	1480.732	1230.454
-30.896	29.400	1479.000	1229.896
-29.881	29.323	1478.406	1228.844
-28.867	29.459	1476.302	1227.951
-27.852	29.316	1475.297	1226.115
-26.838	29.386	1473.958	1225.417
-25.823	29.272	1472.336	1223.265
-24.809	29.407	1470.644	1222.707
-23.794	29.392	1469.222	1221.372
-22.779	29.376	1468.228	1220.395
-21.765	29.292	1467.400	1219.100
-20.750	29.346	1466.146	1218.370
-19.736	29.339	1464.860	1217.207
-18.721	29.319	1463.983	1216.298
-17.706	29.250	1462.925	1214.912
-16.692	29.353	1461.741	1214.564
-15.677	29.253	1460.766	1213.043
-14.663	29.275	1459.673	1212.233
-13.648	29.259	1458.603	1211.192
-12.633	29.205	1458.161	1210.420
-11.619	29.292	1456.815	1209.827
-10.604	29.223	1456.238	1208.845
-9.590	29.361	1454.977	1208.659
-8.575	29.221	1454.314	1207.139
-7.560	29.303	1452.953	1206.501
-6.546	29.291	1452.500	1205.997
-5.531	29.167	1452.225	1204.911
-4.517	29.304	1450.892	1204.650
-3.502	29.379	1449.255	1203.736
-2.487	29.255	1448.782	1202.485
-1.473	29.289	1447.467	1201.570
-0.458	29.297	1446.575	1200.829
0.556	27.100	1436.813	1189.694
1.571	24.094	1411.265	1149.069
2.586	20.739	1351.079	1079.201
3.600	19.305	1270.137	1006.097
4.615	18.196	1226.197	964.952
5.629	15.765	1171.397	908.633
6.644	7.446	1088.129	802.068
7.659	0.971	1047.310	740.328
8.673	-0.132	1042.584	731.553
9.688	-0.288	1039.057	728.258
10.702	-0.441	1037.828	726.590
11.717	-0.388	1035.574	725.204
12.731	2.503	1038.590	741.259
13.746	11.302	1050.667	792.752
14.761	18.163	1059.494	832.866
15.775	19.942	1061.007	842.648
16.790	20.131	1060.666	843.224
17.804	19.932	1059.968	841.627
18.819	19.778	1059.219	840.210
19.834	19.908	1058.442	840.149
20.848	19.855	1058.552	839.907
21.863	19.981	1057.414	839.537
22.877	19.935	1057.308	839.158
23.892	19.981	1056.417	838.599
24.907	19.990	1055.277	837.663
25.921	19.875	1055.074	836.871
26.936	19.898	1054.197	836.215
27.950	19.953	1052.894	835.372
28.965	19.963	1051.622	834.337
29.980	19.876	1050.055	832.602
30.994	19.583	1049.103	830.366
32.009	19.907	1047.942	830.930
33.023	20.145	1047.140	831.361
34.038	19.763	1045.997	828.548
35.053	19.789	1045.116	827.900
36.067	20.035	1044.480	828.500
37.082	19.989	1043.789	827.659
38.096	20.019	1042.715	826.878
39.111	20.189	1042.164	827.181
40.126	20.166	1041.440	826.421
41.140	20.198	1039.977	825.339
42.155	19.813	1038.721	822.439
43.169	19.729	1037.548	821.040
44.184	19.755	1036.158	819.991
45.199	19.740	1035.249	819.127
46.213	19.641	1034.592	818.064
47.228	19.624	1033.183	816.799
48.242	19.767	1032.433	816.811
49.257	19.790	1031.655	816.229
50.271	19.789	1030.867	815.531
51.286	19.973	1030.066	815.693
52.301	20.050	1028.907	815.064
53.315	20.014	1028.490	814.492
54.330	19.960	1027.640	813.494
55.344	19.911	1026.627	812.387
56.359	19.903	1026.001	811.786
57.374	19.902	1025.013	810.924
58.388	19.905	1024.000	810.068
59.403	19.867	1023.109	809.113
60.417	19.851	1022.607	808.568
61.432	19.586	1021.898	806.698
62.447	19.778	1020.671	806.556
63.461	19.788	1020.393	806.311
64.476	19.903	1019.284	805.901
65.490	19.867	1018.485	805.029
66.505	19.863	1017.156	803.888
67.520	19.791	1016.729	803.145
68.534	19.809	1015.905	802.506
69.549	19.785	1014.945	801.567
70.563	19.352	1013.915	798.675
71.578	19.483	1012.526	798.118
72.593	19.431	1011.942	797.346
73.607	19.257	1010.920	795.665
74.622	19.336	1009.830	795.101
75.636	19.578	1009.157	795.618
76.651	19.781	1008.519	795.978
77.666	19.615	1007.605	794.424
78.680	19.446	1006.751	792.902
79.695	19.514	1006.225	792.730
80.709	19.519	1005.880	792.413
81.724	19.667	1004.751	792.131
82.739	19.695	1003.684	791.347
83.753	19.549	1003.332	790.333
84.768	19.894	1002.603	791.266
85.782	20.077	1002.086	791.622
86.797	20.307	1000.871	791.643
87.812	20.315	999.909	790.850
88.826	20.008	998.903	788.587
89.841	20.096	998.217	788.376
90.855	20.299	997.012	788.276
91.870	20.298	996.437	787.748
92.884	20.181	996.001	786.800
93.899	20.147	994.878	785.692
94.914	19.996	993.931	784.188
95.928	20.076	993.207	783.912
96.943	20.244	992.038	783.677
97.957	19.822	991.442	781.231
98.972	19.715	989.502	779.153
99.987	19.552	988.950	777.916
101.001	19.571	988.541	777.611
102.016	19.855	987.765	778.207
103.030	19.911	987.007	777.793
104.045	19.875	985.469	776.352
105.060	19.681	983.926	774.198
106.074	19.618	982.497	772.725
107.089	19.687	982.482	772.952
108.103	19.997	982.009	773.898
109.118	20.085	980.777	773.251
110.133	19.770	980.196	771.317
111.147	19.825	978.563	770.211
112.162	19.838	977.460	769.334
113.176	19.506	976.020	766.658
114.191	19.531	975.508	766.298
115.206	19.888	974.297	766.862
116.220	19.531	973.364	764.479
117.235	19.301	972.419	762.650
118.249	19.385	971.819	762.485
119.264	19.526	970.898	762.317
120.279	19.403	969.679	760.750
121.293	19.430	969.353	760.545
122.308	19.528	968.801	760.477
123.322	19.546	967.624	759.564
124.337	19.455	966.696	758.368
125.352	19.568	964.914	757.399
126.366	19.121	963.317	754.124
127.381	18.806	961.812	751.500
128.395	19.309	961.877	753.685
129.410	19.885	961.459	755.805
130.424	19.892	960.811	755.260
131.439	20.047	959.681	754.979
132.454	19.941	958.445	753.478
133.468	19.839	957.915	752.552
134.483	19.854	957.056	751.874
135.497	19.874	956.234	751.251
136.512	20.017	956.056	751.666
137.527	20.226	954.972	751.651
138.541	20.191	954.221	750.842
139.556	20.064	953.211	749.432
140.570	20.185	952.023	748.955
141.585	20.058	951.851	748.205
142.600	20.135	950.377	747.311
143.614	20.124	949.558	746.554
144.629	20.141	949.254	746.323
145.643	20.235	949.041	746.492
146.658	20.257	947.429	745.254
147.673	20.128	946.239	743.699
148.687	19.961	945.400	742.260
149.702	19.973	943.884	741.052
150.716	19.923	943.225	740.257
151.731	19.785	942.437	738.983
152.746	20.199	941.021	739.573
153.760	20.140	941.272	739.452
154.775	20.332	940.421	739.535
155.789	20.348	939.381	738.723
156.804	20.227	938.293	737.286
157.819	20.296	937.176	736.639
158.833	20.167	936.522	735.512
159.848	20.473	935.455	735.903
160.862	20.405	935.027	735.214
161.877	20.240	933.872	733.545
162.892	20.322	932.783	732.968
163.906	20.306	932.558	732.661
164.921	20.396	931.528	732.166
165.935	20.378	930.208	730.988
166.950	20.301	929.334	729.911
167.964	20.210	928.635	728.918
168.979	20.226	927.188	727.781
169.994	20.289	926.273	727.264
171.008	20.030	925.372	725.409
172.023	20.209	924.465	725.382
173.037	20.339	923.432	725.049
174.052	20.198	922.475	723.647
175.067	19.943	921.910	722.077
176.081	19.961	920.875	721.274
177.096	20.234	919.824	721.525
178.110	20.222	919.193	720.916
179.125	19.907	918.186	718.755
180.140	19.747	917.303	717.336
181.154	19.791	916.597	716.905
182.169	19.926	915.790	716.768
183.183	20.119	915.208	717.049
184.198	20.246	914.958	717.313
185.213	20.253	914.315	716.775
186.227	20.208	913.508	715.895
187.242	20.189	912.759	715.163
188.256	20.204	912.347	714.839
189.271	20.323	911.575	714.660
190.286	20.460	910.460	714.287
191.300	20.308	909.785	713.069
192.315	19.760	908.396	709.669
193.329	19.099	907.145	705.920
194.344	18.908	905.943	704.141
195.359	19.360	906.042	706.005
196.373	20.100	905.769	708.756
197.388	20.363	906.075	710.009
198.402	20.278	905.051	708.797
199.417	20.142	904.322	707.608
200.432	20.184	904.469	707.833
201.446	20.007	903.260	706.104
202.461	19.575	902.548	703.724
203.475	19.825	901.844	704.129
204.490	19.508	900.099	701.418
205.504	18.218	898.756	695.070
206.519	18.731	898.662	697.020
207.534	19.739	898.621	701.015
208.548	19.849	897.928	700.858
209.563	20.101	898.113	701.961
210.577	20.179	897.082	701.411
211.592	19.820	896.590	699.511
212.607	20.324	896.362	701.309
213.621	20.413	895.603	701.012
214.636	20.277	894.875	699.831
215.650	20.210	894.855	699.484
216.665	20.226	894.338	699.084
217.680	20.316	893.720	698.902
218.694	20.297	893.000	698.200
219.709	19.989	891.936	696.069
220.723	19.683	890.761	693.860
221.738	20.027	890.262	694.790
222.753	20.114	889.875	694.777
223.767	20.083	888.741	693.705
224.782	20.137	888.389	693.587
225.796	20.372	887.740	693.958
226.811	20.406	887.101	693.531
227.826	20.069	885.845	691.144
228.840	19.211	884.619	686.707
229.855	19.234	883.894	686.173
230.869	19.636	883.367	687.304
231.884	19.305	882.281	685.084
232.899	19.392	882.160	685.275
233.913	20.048	882.337	687.957
234.928	20.196	881.708	687.993
235.942	20.143	880.630	686.881
236.957	20.308	880.016	686.997
237.972	19.970	879.084	684.872
238.986	19.751	878.740	683.678
240.001	19.891	877.632	683.307
241.015	19.922	877.211	683.041
242.030	20.083	876.168	682.802
243.045	20.170	875.837	682.828
244.059	20.095	875.569	682.261
245.074	20.372	875.245	683.040
246.088	20.374	874.242	682.202
247.103	19.883	873.557	679.680
248.117	19.908	872.882	679.192
249.132	20.482	872.836	681.349
250.147	20.691	872.115	681.544
251.161	20.890	871.354	681.667
252.176	20.801	871.059	681.030
253.190	20.943	870.333	680.958
254.205	21.007	869.895	680.801
255.220	21.063	869.513	680.662
256.234	21.190	868.647	680.418
257.249	21.151	868.107	679.783
258.263	20.862	867.495	678.121
259.278	20.963	866.835	677.936
260.293	20.986	866.393	677.621
261.307	21.124	865.788	677.624
262.322	20.892	864.905	675.973
263.336	20.976	864.151	675.649
264.351	20.483	862.453	672.355
265.366	19.375	860.228	666.283
266.380	18.862	859.861	663.957
267.395	19.792	860.620	668.078
268.409	20.455	860.751	670.683
269.424	20.659	859.508	670.439
270.439	20.664	859.216	670.172
271.453	20.988	858.535	670.827
272.468	20.699	858.235	669.423
273.482	20.863	857.870	669.710
274.497	21.110	857.329	670.177
275.512	20.890	855.894	668.152
276.526	20.346	854.717	665.090
277.541	20.534	854.394	665.501
278.555	20.911	853.906	666.505
279.570	20.782	853.092	665.314
280.585	20.576	852.227	663.796
281.599	20.544	852.086	663.505
282.614	20.802	851.512	663.983
283.628	20.345	850.182	661.147
284.643	19.891	849.691	658.980
285.657	20.333	849.611	660.540
286.672	20.208	848.806	659.382
287.687	19.826	847.645	656.972
288.701	20.022	847.871	657.834
289.716	20.438	847.426	659.007
290.730	20.236	846.132	657.178
291.745	20.219	845.531	656.587
292.760	19.881	844.573	654.509
293.774	19.770	844.214	653.753
294.789	20.680	844.837	657.618
295.803	21.253	844.665	659.593
296.818	21.336	844.132	659.429
297.833	21.451	843.604	659.391
298.847	21.144	842.341	657.193
299.862	20.858	841.565	655.452
300.876	21.127	840.899	655.886
301.891	21.251	840.718	656.152
302.906	21.319	840.017	655.802
303.920	21.058	838.745	653.772
304.935	20.913	838.093	652.665
305.949	21.353	837.630	653.893
306.964	21.332	837.282	653.483
307.979	20.843	837.312	651.621
308.993	21.031	836.608	651.718
310.008	21.521	835.919	652.952
311.022	21.532	835.773	652.824
312.037	21.339	834.984	651.430
313.052	21.158	834.269	650.139
314.066	21.133	833.490	649.381
315.081	20.435	832.316	645.817
316.095	19.721	831.218	642.254
317.110	20.228	831.493	644.294
318.125	21.112	831.273	647.348
319.139	20.610	830.245	644.630
320.154	19.532	828.915	639.550
321.168	19.152	827.997	637.376
322.183	19.878	827.850	639.893
323.197	20.583	828.271	642.768
324.212	20.926	828.008	643.775
325.227	21.028	827.437	643.650
326.241	21.242	827.337	644.304
327.256	21.124	826.543	643.195
328.270	21.064	825.851	642.378
329.285	21.030	825.117	641.625
330.300	20.687	824.510	639.836
331.314	20.690	823.460	638.975
332.329	20.678	822.898	638.437
333.343	21.055	822.627	639.555
334.358	21.321	822.121	640.080
335.373	21.275	821.407	639.299
336.387	21.329	821.164	639.251
337.402	21.525	821.014	639.794
338.416	21.684	820.306	639.765
339.431	21.566	819.958	639.006
340.446	21.652	819.232	638.699
341.460	21.797	818.983	638.977
342.475	21.686	818.458	638.104
343.489	21.490	817.759	636.790
344.504	21.516	816.872	636.141
345.519	21.677	816.851	636.652
346.533	21.982	816.525	637.450
347.548	22.170	815.639	637.383
348.562	22.112	815.449	636.968
349.577	22.149	814.542	636.337
350.592	22.110	814.391	636.023
351.606	21.902	813.999	634.905
352.621	22.033	813.452	634.897
353.635	21.955	813.137	634.313
354.650	21.698	812.603	632.910
355.665	21.486	811.386	631.141
356.679	20.456	810.042	626.329
357.694	20.351	808.985	625.080
358.708	21.172	809.093	628.063
359.723	20.857	808.947	626.763
360.738	21.211	808.365	627.527
361.752	21.633	808.324	628.956
362.767	21.752	808.070	629.130
363.781	22.052	807.540	629.735
364.796	22.360	807.372	630.656
365.810	22.422	807.030	630.553
366.825	22.344	806.555	629.846
367.840	22.380	806.367	629.772
368.854	22.305	805.127	628.482
369.869	21.945	804.344	626.529
370.883	21.627	804.218	625.241
371.898	21.733	803.416	624.939
372.913	21.717	802.906	624.429
373.927	21.792	802.080	624.000
374.942	21.887	801.723	624.006
375.956	21.983	801.231	623.907
376.971	22.161	800.770	624.127
377.986	22.101	800.446	623.604
379.000	22.287	799.807	623.713
380.015	22.350	799.425	623.582
381.029	22.121	799.025	622.404
382.044	22.077	798.290	621.621
383.059	22.170	798.048	621.705
384.073	22.319	797.276	621.575
385.088	22.132	797.121	620.741
386.102	22.389	796.535	621.136
387.117	22.186	795.465	619.531
388.132	22.017	794.840	618.395
389.146	22.104	793.962	617.961
390.161	21.377	793.402	614.914
391.175	21.430	793.357	615.012
392.190	21.916	793.121	616.483
393.205	21.975	792.417	616.088
394.219	21.146	790.949	611.986
395.234	19.486	788.984	604.602
396.248	18.919	787.721	601.596
397.263	20.041	788.770	606.273
398.278	21.797	789.846	613.195
399.292	22.186	789.697	614.386
400.307	21.856	788.957	612.603
401.321	21.732	788.710	611.926
402.336	21.740	788.434	611.684
403.350	22.231	788.000	613.005
404.365	22.519	788.016	613.967
405.380	22.718	788.032	614.619
406.394	22.852	787.640	614.725
407.409	23.010	787.600	615.191
408.423	22.994	786.696	614.373
409.438	22.891	785.997	613.415
410.453	22.865	785.450	612.845
411.467	22.909	785.386	612.893
412.482	22.830	784.704	612.033
413.496	22.938	784.112	611.892
414.511	22.977	783.806	611.734
415.526	22.994	782.987	611.099
416.540	22.875	782.849	610.524
417.555	22.976	782.361	610.439
418.569	22.607	781.707	608.599
419.584	22.485	781.813	608.209
420.599	22.683	780.573	607.872
421.613	158.259	1363.060	1798.069
422.628	136.775	1447.937	1798.133
