DTS Sentinel unit serial number:	SN413079Multiplexer serial number:	ORYXHardware model number:	OX4-SRSoftware version number:	ORYX F/W v4.00 Oryx Data Collector v3.7.2.0data status	okinstallation	princeton_trtdifferential loss correction	single-endedforward channel	channel 3reverse channel	N/Adate	2019/09/12time	18:17:03forward acquisition time	15.00reverse acquisition time	0.00gamma	496.2192k internal	0.2317k external	0.2317temperature offset calibration	1.0087default loss term (dB/km)	0.3790temperature slope calibration	1.0000multiplexer offset coefficient	1.0000multiplexer slope coefficient	1.0000fibre end	0.00T internal ref (°C)	33.50T ext. ref 1 (°C)	2.88T ext. ref 2 (°C)	28.01length (m)	temperature (°C)	Stokes	anti-Stokes-747.200	-14.046	0.684	0.447
-746.185	-162.886	-0.646	-0.032
-745.171	208.112	-0.060	-0.096
-744.156	27.671	0.280	0.239
-743.142	800.000	-0.118	-0.457
-742.127	-156.129	-0.695	0.044
-741.112	-113.293	-0.567	0.113
-740.098	-172.152	0.864	-0.028
-739.083	82.828	0.436	0.480
-738.069	-164.580	-0.526	-0.024
-737.054	-12.689	0.214	0.141
-736.039	721.243	-0.148	0.398
-735.025	-200.000	-0.035	0.303
-734.010	-139.941	-0.325	-0.035
-732.996	-110.917	0.295	0.061
-731.981	-115.621	-1.157	-0.220
-730.966	421.299	0.285	0.619
-729.952	-147.158	-0.189	0.016
-728.937	532.889	-0.118	0.282
-727.923	-199.607	0.103	0.001
-726.908	168.154	0.585	0.842
-725.894	122.750	-0.145	0.183
-724.879	-200.000	-0.022	0.243
-723.864	-200.000	-0.312	-0.000
-722.850	90.399	-0.209	0.237
-721.835	275.533	0.587	-1.053
-720.821	800.000	0.054	0.230
-719.806	133.249	0.913	1.193
-718.791	378.940	-0.062	0.128
-717.777	53.512	-0.215	-0.209
-716.762	271.773	-0.390	-0.696
-715.748	714.449	-0.065	-0.173
-714.733	800.000	-0.112	0.333
-713.718	-60.193	-1.008	-0.434
-712.704	-200.000	-0.020	0.721
-711.689	-66.521	-0.634	0.254
-710.675	-43.046	0.651	0.334
-709.660	-62.154	0.159	0.067
-708.645	-200.000	-0.014	0.375
-707.631	147.098	0.059	-0.080
-706.616	297.721	0.174	-0.323
-705.602	216.987	-0.221	-0.356
-704.587	-3.600	0.363	-0.255
-703.572	240.023	0.457	-0.770
-702.558	27.695	0.248	-0.211
-701.543	39.136	0.262	0.237
-700.529	243.763	0.319	0.540
-699.514	-124.827	0.056	-0.009
-698.499	-200.000	0.040	0.514
-697.485	441.503	-0.380	-0.839
-696.470	14.468	-0.671	0.530
-695.456	207.239	0.220	-0.346
-694.441	27.311	0.975	-0.828
-693.426	-122.931	-0.747	-0.122
-692.412	592.184	-0.376	-0.939
-691.397	17.354	0.490	0.393
-690.383	-39.958	0.753	0.397
-689.368	40.846	-0.813	-0.741
-688.354	-90.244	0.320	0.094
-687.339	-169.195	0.469	0.018
-686.324	-200.000	-0.004	0.223
-685.310	436.662	0.121	-0.267
-684.295	-200.000	-0.027	0.447
-683.281	-64.653	0.371	-0.152
-682.266	312.907	-0.557	1.056
-681.251	-200.000	0.033	0.405
-680.237	-148.698	-0.343	0.028
-679.222	-200.000	-0.148	0.671
-678.208	-200.000	0.013	-0.123
-677.193	352.703	-0.068	0.136
-676.178	-200.000	-0.050	0.442
-675.164	-200.000	0.017	0.133
-674.149	800.000	-0.254	0.893
-673.135	800.000	0.039	-0.133
-672.120	-124.375	-0.266	-0.042
-671.105	108.068	0.472	-0.569
-670.091	-40.292	0.313	-0.164
-669.076	-21.026	0.279	0.172
-668.062	19.103	-0.212	0.172
-667.047	800.000	-0.265	0.897
-666.032	-117.299	0.569	-0.104
-665.018	76.998	0.261	0.280
-664.003	-3.675	-0.172	0.121
-662.989	-186.488	1.033	0.015
-661.974	207.608	0.141	0.222
-660.959	151.180	-0.443	-0.608
-659.945	-118.521	0.537	0.096
-658.930	29.957	0.293	0.252
-657.916	317.015	-0.280	-0.534
-656.901	-59.916	0.659	-0.285
-655.886	-8.219	0.267	0.181
-654.872	232.411	-0.290	-0.481
-653.857	-200.000	0.062	-0.279
-652.843	668.905	0.251	0.655
-651.828	550.113	-0.134	-0.324
-650.814	-179.749	-0.604	-0.013
-649.799	379.461	-0.206	0.426
-648.784	167.300	0.697	0.998
-647.770	-200.000	0.052	0.403
-646.755	-200.000	0.036	-0.742
-645.741	649.754	0.123	0.317
-644.726	201.743	-0.112	-0.174
-643.711	-174.322	-0.706	0.021
-642.697	800.000	-0.331	1.095
-641.682	-128.572	-1.035	-0.148
-640.668	800.000	-0.259	-1.000
-639.653	-175.506	0.357	0.010
-638.638	84.508	0.037	0.041
-637.624	-200.000	-0.002	-0.706
-636.609	39.725	0.502	-0.454
-635.595	800.000	-0.223	0.629
-634.580	-200.000	0.062	-0.281
-633.565	-28.687	-0.277	-0.160
-632.551	0.601	-0.543	0.392
-631.536	-95.112	-0.350	-0.095
-630.522	439.795	0.323	-0.710
-629.507	-58.397	0.319	-0.140
-628.492	-200.000	0.086	0.599
-627.478	22.695	-0.140	0.116
-626.463	-161.783	-0.521	-0.027
-625.449	141.304	-0.280	-0.373
-624.434	-200.000	0.041	-0.547
-623.419	-40.387	-0.540	-0.283
-622.405	9.170	-0.655	-0.499
-621.390	-157.998	0.600	0.036
-620.376	322.431	-0.351	0.673
-619.361	800.000	0.057	0.221
-618.346	800.000	0.163	0.607
-617.332	331.188	-0.220	-0.427
-616.317	-109.729	-0.587	0.124
-615.303	290.632	-0.479	0.876
-614.288	123.772	0.438	0.554
-613.273	139.994	-0.613	0.815
-612.259	217.813	-0.205	-0.329
-611.244	127.313	0.309	0.395
-610.230	-85.810	0.826	-0.258
-609.215	47.413	-0.341	0.320
-608.201	41.748	0.530	-0.484
-607.186	104.122	0.352	-0.417
-606.171	-54.883	-0.533	0.242
-605.157	800.000	0.095	0.391
-604.142	703.103	0.087	0.231
-603.128	-24.518	0.586	0.351
-602.113	-22.652	-0.137	-0.084
-601.098	5.557	0.150	-0.111
-600.084	144.730	-0.169	0.228
-599.069	392.684	-0.051	0.108
-598.055	109.399	-0.292	0.352
-597.040	-200.000	0.200	-1.157
-596.025	396.081	-0.377	-0.792
-595.011	-117.538	0.272	-0.050
-593.996	-200.000	0.042	0.362
-592.982	439.018	-0.172	0.377
-591.967	800.000	-0.304	0.942
-590.952	800.000	0.114	-0.369
-589.938	-10.021	0.450	-0.301
-588.923	102.731	-0.340	0.401
-587.909	73.912	-0.612	-0.646
-586.894	800.000	-0.073	0.283
-585.879	-200.000	-0.038	-0.191
-584.865	70.503	0.320	-0.333
-583.850	-200.000	-0.077	-0.735
-582.836	-200.000	-0.020	-0.415
-581.821	-200.000	0.087	0.516
-580.806	-35.328	0.477	0.261
-579.792	-200.000	-0.050	0.230
-578.777	88.930	-0.360	0.403
-577.763	-99.118	0.361	-0.092
-576.748	48.405	0.511	-0.481
-575.733	-0.052	-0.543	-0.389
-574.719	-200.000	-0.023	-0.196
-573.704	-58.869	-0.277	0.121
-572.690	-70.107	-0.485	-0.185
-571.675	39.823	0.383	-0.345
-570.661	-135.300	0.225	-0.027
-569.646	800.000	0.224	-0.789
-568.631	135.108	-0.806	-1.053
-567.617	-200.000	-0.038	-0.356
-566.602	140.658	-0.235	0.313
-565.588	-200.000	-0.032	-0.250
-564.573	-64.159	0.231	-0.095
-563.558	800.000	0.310	0.976
-562.544	1.885	-0.343	0.249
-561.529	800.000	-0.053	0.182
-560.515	243.325	0.195	0.328
-559.500	-189.423	0.244	0.003
-558.485	284.346	-0.390	0.706
-557.471	-11.201	-0.743	-0.492
-556.456	-200.000	-0.004	-0.483
-555.442	134.110	-0.275	0.358
-554.427	361.019	0.197	-0.397
-553.412	-200.000	0.137	-0.656
-552.398	303.971	-0.289	-0.539
-551.383	800.000	-0.195	-0.668
-550.369	800.000	-0.108	0.321
-549.354	22.344	0.437	0.359
-548.339	176.540	-0.709	1.036
-547.325	-68.774	0.399	-0.155
-546.310	432.679	-0.133	0.289
-545.296	800.000	-0.218	0.802
-544.281	-18.461	0.430	-0.270
-543.266	-200.000	0.001	-0.008
-542.252	-47.592	-0.660	-0.322
-541.237	-200.000	-0.010	-0.590
-540.223	171.472	0.132	-0.190
-539.208	84.844	0.336	0.370
-538.193	7.521	0.330	-0.248
-537.179	167.523	-0.356	-0.509
-536.164	70.888	0.315	0.327
-535.150	800.000	-0.040	0.138
-534.135	-52.042	-0.284	0.132
-533.121	-68.159	-0.261	0.102
-532.106	-200.000	-0.102	-0.838
-531.091	88.847	0.528	0.590
-530.077	322.884	0.155	-0.297
-529.062	-200.000	-0.132	0.849
-528.048	-171.184	0.286	-0.010
-527.033	-78.334	0.332	0.114
-526.018	-91.028	-0.942	-0.272
-525.004	800.000	0.238	-0.968
-523.989	-200.000	0.144	0.842
-522.975	-99.680	-0.968	0.244
-521.960	-3.106	0.461	-0.323
-520.945	-16.043	-0.199	-0.127
-519.931	-75.029	-0.345	0.124
-518.916	376.969	-0.217	0.445
-517.902	-200.000	-0.009	-0.266
-516.887	-71.634	0.476	0.178
-515.872	38.484	0.165	-0.148
-514.858	217.948	-0.256	0.410
-513.843	-93.656	-0.057	-0.016
-512.829	-200.000	-0.137	-0.913
-511.814	213.156	0.309	-0.490
-510.799	-200.000	-0.047	0.256
-509.785	268.168	-0.445	-0.783
-508.770	41.677	0.264	0.240
-507.756	66.563	-0.309	-0.315
-506.741	-68.420	-0.661	-0.257
-505.726	44.728	-0.426	-0.393
-504.712	-168.044	0.854	-0.033
-503.697	-62.974	-0.089	0.037
-502.683	-200.000	-0.028	0.490
-501.668	27.096	0.404	-0.340
-500.653	800.000	-0.039	-0.114
-499.639	-200.000	0.021	0.151
-498.624	-200.000	0.005	0.214
-497.610	-77.959	0.744	0.257
-496.595	-24.265	-0.386	-0.231
-495.581	-200.000	0.006	0.572
-494.566	-63.300	-0.208	0.086
-493.551	64.304	0.468	0.472
-492.537	-5.105	-0.507	-0.350
-491.522	-65.471	1.191	-0.480
-490.508	136.372	-0.612	-0.801
-489.493	-200.000	0.076	-0.780
-488.478	-61.999	0.676	-0.283
-487.464	445.505	0.103	-0.228
-486.449	-93.395	0.288	-0.080
-485.435	168.854	-0.196	0.279
-484.420	240.621	0.165	0.276
-483.405	-200.000	0.179	-1.003
-482.391	800.000	0.139	-0.464
-481.376	-47.011	0.514	0.251
-480.362	-62.565	-0.183	-0.076
-479.347	-103.789	-0.258	0.060
-478.332	725.923	-0.235	0.628
-477.318	-31.704	-1.231	-0.692
-476.303	160.507	-0.178	-0.250
-475.289	800.000	0.088	0.294
-474.274	-200.000	0.027	0.577
-473.259	-200.000	-0.014	0.394
-472.245	515.717	0.221	-0.517
-471.230	-200.000	0.015	-0.317
-470.216	77.753	0.075	0.080
-469.201	173.081	0.535	0.772
-468.186	-37.438	0.396	0.212
-467.172	94.746	-0.171	0.195
-466.157	30.933	0.281	-0.242
-465.143	-136.882	-0.521	0.060
-464.128	-76.306	0.890	0.314
-463.113	37.255	-0.447	-0.397
-462.099	-79.196	-0.456	-0.155
-461.084	-200.000	-0.000	0.063
-460.070	422.295	-0.039	0.084
-459.055	-64.209	0.972	0.397
-458.040	619.338	0.251	-0.632
-457.026	-200.000	0.120	0.802
-456.011	800.000	-0.043	-0.124
-454.997	-177.160	-0.317	0.008
-453.982	-28.714	-0.394	-0.227
-452.968	-200.000	-0.059	-0.394
-451.953	-118.946	0.917	-0.161
-450.938	679.682	0.168	0.437
-449.924	-57.502	-0.250	-0.110
-448.909	58.185	0.200	-0.196
-447.895	2.693	-0.292	0.212
-446.880	11.990	-0.338	0.260
-445.865	374.121	0.134	0.273
-444.851	-189.418	0.485	0.006
-443.836	-37.494	-0.152	-0.081
-442.822	-105.182	-0.372	0.085
-441.807	-93.701	0.274	0.076
-440.792	77.642	0.207	-0.220
-439.778	104.361	-0.235	-0.276
-438.763	157.852	0.473	-0.656
-437.749	72.235	-0.287	-0.299
-436.734	-200.000	0.057	0.698
-435.719	-77.137	-0.746	-0.260
-434.705	-200.000	0.063	-0.307
-433.690	800.000	-0.279	0.850
-432.676	-200.000	0.014	0.788
-431.661	610.195	0.194	-0.485
-430.646	-194.797	-0.986	-0.008
-429.632	-10.629	0.437	0.289
-428.617	-89.505	-0.357	-0.105
-427.603	192.489	0.512	-0.773
-426.588	466.381	0.197	-0.441
-425.573	-200.000	0.055	0.522
-424.559	-51.954	-0.269	0.125
-423.544	6.661	0.489	0.364
-422.530	97.467	0.151	0.174
-421.515	206.471	0.862	1.342
-420.500	164.881	0.405	0.571
-419.486	-200.000	0.041	0.622
-418.471	-41.486	0.993	-0.511
-417.457	-200.000	-0.075	-0.568
-416.442	-72.639	0.218	-0.080
-415.428	-200.000	-0.039	0.709
-414.413	661.254	0.135	-0.348
-413.398	83.070	0.515	-0.561
-412.384	-88.054	-0.513	-0.154
-411.369	-200.000	0.002	-0.049
-410.355	-55.350	0.637	0.286
-409.340	-200.000	0.088	0.393
-408.325	-200.000	0.073	-0.377
-407.311	-200.000	-0.045	-0.201
-406.296	-184.585	-0.352	0.006
-405.282	56.269	0.326	0.317
-404.267	64.679	0.324	0.327
-403.252	-8.906	0.486	-0.325
-402.238	103.085	0.068	0.079
-401.223	-55.611	0.305	0.136
-400.209	-101.708	-0.218	-0.053
-399.194	-32.549	-0.386	-0.215
-398.179	322.053	0.151	-0.287
-397.165	-6.041	-0.421	-0.287
-396.150	-98.511	-0.556	0.142
-395.136	-200.000	-0.020	-0.271
-394.121	-84.540	0.882	0.278
-393.106	150.287	0.237	-0.321
-392.092	156.130	0.556	-0.766
-391.077	-200.000	0.024	-0.294
-390.063	-200.000	-0.012	0.078
-389.048	800.000	0.171	0.718
-388.033	800.000	0.099	-0.376
-387.019	-200.000	0.048	-0.416
-386.004	693.189	0.165	-0.431
-384.990	-200.000	-0.008	0.368
-383.975	-61.042	0.460	0.194
-382.960	-200.000	0.003	-0.299
-381.946	-200.000	-0.035	0.236
-380.931	800.000	-0.021	0.071
-379.917	-25.732	-0.271	-0.159
-378.902	360.050	-0.290	-0.579
-377.888	740.190	0.197	-0.528
-376.873	-133.701	0.133	0.017
-375.858	58.796	0.193	-0.189
-374.844	-57.521	0.510	0.223
-373.829	-139.770	0.061	-0.006
-372.815	-44.765	0.296	-0.147
-371.800	-152.428	0.868	-0.062
-370.785	-200.000	0.005	0.664
-369.771	-200.000	-0.196	-1.007
-368.756	-200.000	-0.065	0.546
-367.742	-49.733	0.680	-0.322
-366.727	800.000	0.196	0.749
-365.712	-200.000	0.006	0.521
-364.698	-200.000	-0.053	0.893
-363.683	800.000	-0.048	-0.136
-362.669	2.881	0.478	-0.346
-361.654	149.972	-0.286	0.387
-360.639	630.833	0.317	-0.800
-359.625	-22.356	-0.291	-0.176
-358.610	103.806	0.080	0.094
-357.596	341.551	0.118	-0.229
-356.581	-200.000	-0.111	-0.634
-355.566	-200.000	-0.016	-1.133
-354.552	-52.951	-0.202	-0.093
-353.537	229.049	-0.158	-0.257
-352.523	35.671	0.618	0.542
-351.508	-173.800	1.252	0.037
-350.493	-200.000	0.080	0.487
-349.479	-36.046	-0.189	0.102
-348.464	-60.793	0.447	-0.189
-347.450	-200.000	0.050	-0.287
-346.435	-28.390	-0.536	0.308
-345.420	5.241	-0.159	0.117
-344.406	37.425	-0.484	-0.428
-343.391	-161.273	-0.445	0.023
-342.377	-173.695	-0.074	0.002
-341.362	-45.170	0.886	-0.439
-340.348	292.954	-0.194	0.352
-339.333	23.106	0.479	-0.392
-338.318	-11.189	0.222	-0.146
-337.304	-28.986	0.491	0.281
-336.289	-200.000	-0.017	-0.176
-335.275	-44.982	-0.244	0.121
-334.260	471.906	0.244	0.547
-333.245	153.409	-0.614	0.837
-332.231	352.074	0.492	0.972
-331.216	385.334	-0.246	0.506
-330.202	-180.168	-0.298	-0.006
-329.187	113.949	-0.363	-0.439
-328.172	229.435	0.408	-0.664
-327.158	-3.726	0.215	0.149
-326.143	-200.000	0.170	-0.778
-325.129	800.000	0.193	-0.766
-324.114	-33.526	-0.591	-0.325
-323.099	731.678	0.204	0.542
-322.085	-61.730	-0.383	0.160
-321.070	-200.000	-0.033	0.692
-320.056	67.875	-0.589	-0.600
-319.041	24.737	0.528	0.436
-318.026	62.959	-0.195	-0.194
-317.012	-53.669	-0.355	0.162
-315.997	-200.000	0.009	-0.094
-314.983	48.856	-0.215	0.201
-313.968	175.643	0.290	0.419
-312.953	443.956	0.353	-0.770
-311.939	154.066	0.197	0.269
-310.924	-102.366	-0.152	0.036
-309.910	-48.255	0.968	0.465
-308.895	-11.831	-0.559	-0.365
-307.880	-99.851	-0.996	0.248
-306.866	4.893	-0.769	0.563
-305.851	-54.361	0.515	-0.233
-304.837	-117.168	-0.508	-0.092
-303.822	-128.089	0.623	0.089
-302.807	-43.136	0.571	-0.288
-301.793	-107.969	0.438	0.095
-300.778	-32.369	0.922	0.512
-299.764	262.587	-0.207	0.358
-298.749	-200.000	-0.017	-0.497
-297.735	-200.000	-0.076	0.761
-296.720	53.123	0.452	0.431
-295.705	40.078	0.433	0.387
-294.691	36.429	-0.346	-0.304
-293.676	-15.616	-0.696	-0.442
-292.662	-97.713	0.123	-0.032
-291.647	-126.056	-0.948	0.142
-290.632	-200.000	0.041	0.626
-289.618	28.141	-0.181	-0.152
-288.603	220.922	-0.626	0.999
-287.589	-23.927	-0.877	0.522
-286.574	-200.000	-0.059	0.291
-285.559	-98.093	0.573	-0.147
-284.545	444.148	0.220	0.479
-283.530	-200.000	0.074	-1.079
-282.516	115.430	-0.618	0.751
-281.501	-126.048	0.465	-0.069
-280.486	-200.000	-0.029	1.431
-279.472	511.278	0.345	-0.799
-278.457	-128.929	-0.616	-0.086
-277.443	-9.930	-0.242	0.160
-276.428	-192.842	-1.269	-0.011
-275.413	22.344	0.372	-0.302
-274.399	-12.870	-0.663	-0.429
-273.384	566.491	-0.120	-0.290
-272.370	162.326	0.779	1.086
-271.355	157.895	-0.348	-0.480
-270.340	-99.311	-0.320	0.080
-269.326	-200.000	-0.054	0.296
-268.311	225.490	0.065	0.104
-267.297	800.000	-0.096	-0.327
-266.282	276.475	-0.238	0.420
-265.267	-2.221	0.414	-0.289
-264.253	800.000	-0.112	-0.314
-263.238	74.069	0.355	-0.370
-262.224	2.288	0.526	0.378
-261.209	208.283	-0.227	-0.353
-260.195	-133.827	1.264	-0.156
-259.180	-74.239	-0.439	0.158
-258.165	-38.874	0.156	0.082
-257.151	100.914	-0.237	0.273
-256.136	800.000	-0.043	-0.133
-255.122	12.844	-0.161	-0.124
-254.107	-200.000	-0.016	-0.209
-253.092	-67.600	-0.384	-0.149
-252.078	243.200	-0.551	0.918
-251.063	20.137	0.359	0.287
-250.049	-100.794	0.438	0.107
-249.034	-200.000	-0.124	0.951
-248.019	29.133	0.468	-0.395
-247.005	691.037	0.064	0.167
-245.990	122.329	0.274	0.339
-244.976	-104.199	-0.775	-0.179
-243.961	131.034	-0.166	0.211
-242.946	-200.000	0.114	-0.673
-241.932	117.197	-0.845	-1.031
-240.917	-80.248	0.216	-0.072
-239.903	83.737	0.060	-0.065
-238.888	-73.207	0.646	-0.235
-237.873	-118.013	0.078	0.014
-236.859	513.184	0.266	0.616
-235.844	52.703	-0.296	0.281
-234.830	-145.820	-0.742	0.066
-233.815	-99.198	0.302	0.076
-232.800	800.000	-0.091	-0.321
-231.786	700.213	-0.163	-0.427
-230.771	-200.000	-0.008	0.208
-229.757	-120.533	0.315	0.053
-228.742	342.357	0.010	0.019
-227.727	-200.000	0.050	0.591
-226.713	-165.322	0.474	0.021
-225.698	-65.014	0.505	0.202
-224.684	-26.724	0.754	-0.438
-223.669	-200.000	0.143	-0.806
-222.655	-3.108	-0.213	0.148
-221.640	-15.026	-1.447	0.920
-220.625	137.799	0.275	-0.358
-219.611	428.965	-0.194	-0.416
-218.596	-169.565	0.321	-0.012
-217.582	-200.000	-0.056	-0.478
-216.567	270.489	0.021	-0.037
-215.552	147.568	-0.387	0.518
-214.538	-62.778	-0.574	0.236
-213.523	-200.000	0.004	-0.030
-212.509	69.640	-0.549	-0.561
-211.494	195.409	-0.157	0.236
-210.479	-89.537	0.750	0.218
-209.465	-121.458	-0.365	-0.060
-208.450	228.966	0.225	0.364
-207.436	-110.348	0.501	0.103
-206.421	162.363	0.161	0.223
-205.406	435.129	-0.187	-0.403
-204.392	-200.000	-0.045	-0.912
-203.377	-185.312	-0.313	-0.005
-202.363	-73.935	-0.248	-0.089
-201.348	209.699	0.699	-1.087
-200.333	800.000	0.068	-0.265
-199.319	46.424	0.166	0.152
-198.304	-138.874	-0.374	0.040
-197.290	367.903	-0.095	-0.191
-196.275	86.922	0.355	-0.389
-195.260	-200.000	0.088	-0.552
-194.246	-16.340	-0.363	0.228
-193.231	-80.936	0.539	0.177
-192.217	-19.474	-0.331	0.203
-191.202	-134.982	-0.766	-0.092
-190.187	-37.595	-0.180	0.095
-189.173	-36.684	-0.892	-0.475
-188.158	-101.960	0.264	-0.063
-187.144	-115.793	0.343	0.064
-186.129	681.637	-0.153	-0.395
-185.114	19.751	0.494	-0.394
-184.100	-119.031	-0.369	-0.064
-183.085	22.143	-0.338	0.273
-182.071	-14.635	0.382	0.244
-181.056	726.053	0.152	0.400
-180.042	-200.000	-0.128	0.932
-179.027	-62.117	0.145	-0.060
-178.012	-39.797	-0.168	-0.087
-176.998	150.474	0.055	-0.074
-175.983	-133.364	-0.009	0.001
-174.969	-88.246	-0.137	0.041
-173.954	-123.620	-0.396	-0.062
-172.939	311.646	0.147	-0.273
-171.925	800.000	-0.147	-0.623
-170.910	360.992	-0.183	0.363
-169.896	-154.158	-0.815	0.055
-168.881	188.557	-0.075	-0.111
-167.866	-117.147	0.465	0.084
-166.852	-59.957	0.303	-0.128
-165.837	123.901	0.117	-0.146
-164.823	-92.133	-0.429	-0.120
-163.808	-200.000	0.031	0.615
-162.793	-2.164	0.376	-0.261
-161.779	-64.339	-0.659	0.265
-160.764	-133.301	0.227	-0.028
-159.750	-108.819	0.210	0.044
-158.735	-17.294	0.775	-0.483
-157.720	179.597	0.499	0.723
-156.706	510.884	0.328	0.755
-155.691	129.428	-0.396	0.501
-154.677	-52.070	-0.454	0.209
-153.662	529.186	-0.341	0.795
-152.647	4.333	-0.519	0.376
-151.633	13.824	-0.339	-0.261
-150.618	-53.595	-0.094	0.043
-149.604	10.109	-0.508	-0.382
-148.589	94.239	0.540	0.607
-147.574	-200.000	-0.019	0.090
-146.560	-200.000	0.059	0.289
-145.545	-200.000	-0.095	-0.608
-144.531	40.097	0.626	-0.557
-143.516	-100.490	0.341	0.083
-142.502	-200.000	-0.030	0.794
-141.487	363.437	0.463	0.921
-140.472	-200.000	0.067	0.705
-139.458	800.000	-0.130	-0.434
-138.443	140.761	-0.150	0.196
-137.429	-120.478	0.592	0.099
-136.414	-200.000	-0.027	0.130
-135.399	800.000	0.043	0.146
-134.385	305.185	-0.125	0.229
-133.370	119.878	-0.234	0.287
-132.356	800.000	0.113	-0.442
-131.341	43.247	-0.361	0.326
-130.326	161.561	0.326	-0.451
-129.312	-22.736	0.048	-0.028
-128.297	-200.000	0.067	-0.384
-127.283	214.042	0.381	-0.595
-126.268	2.664	-0.473	0.339
-125.253	-89.508	-0.560	-0.163
-124.239	163.340	-0.519	0.722
-123.224	12.785	0.108	-0.082
-122.210	-31.286	-1.276	0.710
-121.195	-81.270	0.909	-0.296
-120.180	99.630	0.236	0.270
-119.166	-77.966	0.380	-0.129
-118.151	800.000	-0.292	1.077
-117.137	119.416	-0.181	0.221
-116.122	-78.676	-0.315	0.106
-115.107	198.503	-0.302	-0.456
-114.093	-117.631	0.443	0.079
-113.078	141.146	0.216	-0.283
-112.064	54.438	0.178	-0.169
-111.049	-33.401	0.445	-0.243
-110.034	-200.000	0.038	0.436
-109.020	-4.146	0.186	0.127
-108.005	84.740	-0.699	0.756
-106.991	373.801	0.353	0.710
-105.976	-35.315	-0.285	0.153
-104.962	-200.000	0.087	0.845
-103.947	-104.928	0.531	0.120
-102.932	9.835	0.709	-0.531
-101.918	-84.813	0.440	-0.137
-100.903	-200.000	-0.119	-0.910
-99.889	-21.589	-1.321	-0.795
-98.874	693.109	0.277	0.717
-97.859	452.041	-0.123	-0.268
-96.845	17.096	0.451	-0.353
-95.830	-165.820	-0.888	0.038
-94.816	-106.932	0.542	0.119
-93.801	2.905	0.821	0.589
-92.786	-200.000	0.103	-0.750
-91.772	-187.531	-0.533	-0.007
-90.757	168.436	0.427	-0.601
-89.743	-94.405	0.338	0.091
-88.728	657.197	0.465	-1.180
-87.713	-107.395	0.626	-0.136
-86.699	-36.150	0.495	0.264
-85.684	-200.000	-0.100	0.531
-84.670	-107.626	-0.231	-0.050
-83.655	-200.000	-0.072	-0.576
-82.640	91.592	0.127	0.141
-81.626	-111.262	0.559	-0.113
-80.611	183.617	0.217	-0.317
-79.597	-200.000	-0.122	-0.560
-78.582	-200.000	-0.004	0.066
-77.567	160.069	0.370	-0.508
-76.553	-200.000	0.008	0.336
-75.538	-112.575	-0.382	-0.075
-74.524	622.595	0.064	-0.159
-73.509	78.888	0.152	-0.160
-72.494	54.897	-0.106	-0.101
-71.480	-163.938	-0.305	-0.014
-70.465	-9.121	0.131	-0.086
-69.451	503.854	-0.129	-0.295
-68.436	101.807	0.213	-0.245
-67.422	-19.241	0.986	0.604
-66.407	-5.712	-0.384	-0.260
-65.392	800.000	-0.323	-1.284
-64.378	749.422	0.233	-0.619
-63.363	-8.167	0.627	-0.416
-62.349	-36.145	-0.249	-0.133
-61.334	172.742	-1.095	-1.555
-60.319	11.734	0.824	0.623
-59.305	-200.000	-0.074	-0.802
-58.290	143.149	0.201	0.263
-57.276	-200.000	0.260	1.677
-56.261	-200.000	95.443	571.222
-55.246	635.142	1374.497	3437.578
-54.232	198.370	2546.381	3839.151
-53.217	117.239	2154.409	2609.997
-52.203	43.949	1699.684	1534.876
-51.188	36.914	1513.607	1319.118
-50.173	34.389	1487.422	1279.321
-49.159	54.491	1539.393	1461.746
-48.144	55.152	1557.727	1483.612
-47.130	36.663	1515.260	1318.631
-46.115	33.969	1499.303	1286.491
-45.100	33.480	1497.217	1281.348
-44.086	33.503	1494.470	1279.100
-43.071	33.453	1493.713	1278.063
-42.057	33.460	1492.238	1276.799
-41.042	33.720	1489.730	1276.349
-40.027	33.400	1489.373	1273.840
-39.013	33.455	1487.163	1272.272
-37.998	33.431	1487.236	1272.124
-36.984	33.421	1485.999	1270.948
-35.969	33.509	1483.609	1269.441
-34.954	33.552	1482.817	1269.004
-33.940	33.414	1481.783	1267.143
-32.925	33.510	1479.926	1266.149
-31.911	33.351	1478.236	1263.592
-30.896	33.359	1477.408	1262.883
-29.881	33.703	1475.532	1263.521
-28.867	33.446	1474.826	1261.156
-27.852	33.518	1473.138	1260.145
-26.838	33.553	1472.179	1259.504
-25.823	33.555	1470.580	1258.102
-24.809	33.466	1468.699	1255.852
-23.794	33.455	1467.410	1254.627
-22.779	33.719	1465.082	1254.332
-21.765	33.518	1464.959	1252.846
-20.750	33.432	1463.641	1251.102
-19.736	33.499	1462.446	1250.470
-18.721	33.456	1462.572	1250.248
-17.706	33.842	1459.354	1249.991
-16.692	33.405	1460.000	1247.615
-15.677	33.447	1459.596	1247.496
-14.663	33.597	1456.676	1245.939
-13.648	33.452	1456.527	1244.805
-12.633	33.569	1455.133	1244.333
-11.619	33.400	1454.811	1242.903
-10.604	33.346	1455.139	1242.775
-9.590	33.817	1452.373	1243.452
-8.575	33.497	1452.475	1241.392
-7.560	33.552	1450.491	1240.010
-6.546	33.553	1450.811	1240.241
-5.531	33.450	1449.314	1238.238
-4.517	33.431	1449.339	1238.081
-3.502	33.391	1447.631	1236.316
-2.487	33.328	1447.341	1235.604
-1.473	33.459	1445.722	1235.031
-0.458	33.326	1445.099	1233.578
0.556	34.282	1435.595	1222.819
1.571	31.037	1410.372	1180.722
2.586	27.270	1350.490	1107.601
3.600	25.487	1269.893	1031.184
4.615	24.068	1223.212	985.343
5.629	20.670	1167.219	922.177
6.644	11.538	1080.731	808.749
7.659	4.305	1039.636	743.369
8.673	3.240	1034.480	734.538
9.688	2.926	1030.096	729.870
10.702	2.635	1029.043	727.679
11.717	2.720	1027.014	726.582
12.731	5.980	1030.907	744.751
13.746	15.285	1044.077	798.720
14.761	23.124	1054.982	844.572
15.775	25.254	1056.805	856.129
16.790	25.577	1056.816	857.604
17.804	25.586	1055.407	856.428
18.819	25.379	1054.585	854.700
19.834	25.786	1054.229	856.271
20.848	25.858	1052.854	855.420
21.863	25.931	1053.251	856.015
22.877	25.530	1053.203	853.994
23.892	25.753	1051.599	853.674
24.907	25.351	1052.360	852.311
25.921	25.534	1050.667	851.729
26.936	25.554	1050.901	851.942
27.950	25.878	1049.034	851.884
28.965	25.679	1047.648	849.741
29.980	25.434	1047.090	848.060
30.994	25.465	1045.589	846.913
32.009	25.741	1044.755	847.464
33.023	26.159	1043.936	848.691
34.038	25.969	1042.750	846.760
35.053	25.576	1042.252	844.434
36.067	25.532	1041.723	843.726
37.082	25.883	1040.024	843.915
38.096	25.698	1040.549	843.401
39.111	25.723	1040.329	843.264
40.126	25.944	1038.871	843.044
41.140	26.162	1036.611	842.153
42.155	25.621	1035.348	838.532
43.169	25.228	1035.202	836.506
44.184	25.082	1034.392	835.096
45.199	25.574	1032.639	835.895
46.213	25.304	1032.538	834.484
47.228	25.283	1032.349	834.163
48.242	25.751	1030.689	834.915
49.257	25.859	1030.135	834.895
50.271	25.887	1029.199	834.191
51.286	26.004	1028.140	833.801
52.301	25.990	1027.846	833.425
53.315	25.563	1027.315	830.947
54.330	25.811	1026.512	831.370
55.344	25.838	1026.238	831.198
56.359	25.802	1023.688	828.895
57.374	25.707	1024.197	828.793
58.388	25.642	1024.062	828.312
59.403	25.643	1022.261	826.787
60.417	25.839	1021.283	826.824
61.432	25.631	1021.211	825.735
62.447	25.392	1021.040	824.427
63.461	25.366	1021.333	824.474
64.476	25.641	1019.470	824.154
65.490	25.801	1017.901	823.548
66.505	25.642	1016.839	821.889
67.520	25.515	1015.989	820.549
68.534	25.378	1015.938	819.808
69.549	25.294	1015.555	819.043
70.563	25.009	1013.544	816.054
71.578	25.129	1013.660	816.620
72.593	25.048	1011.905	814.767
73.607	25.016	1010.987	813.810
74.622	25.201	1010.364	814.074
75.636	25.377	1009.562	814.156
76.651	25.695	1008.420	814.600
77.666	25.125	1008.290	811.846
78.680	25.325	1007.238	811.830
79.695	25.110	1007.589	811.069
80.709	25.039	1006.737	809.992
81.724	25.391	1005.954	810.879
82.739	25.304	1004.874	809.542
83.753	25.498	1003.482	809.223
84.768	25.685	1003.752	810.212
85.782	26.092	1002.984	811.349
86.797	26.081	1002.598	810.914
87.812	25.981	1001.505	809.510
88.826	26.242	999.879	809.296
89.841	26.058	999.042	807.725
90.855	26.295	999.050	808.721
91.870	25.886	998.948	806.733
92.884	26.081	998.270	806.985
93.899	25.904	997.333	805.369
94.914	25.892	995.711	803.932
95.928	25.992	995.094	803.809
96.943	26.039	994.239	803.258
97.957	25.897	992.849	801.432
98.972	25.853	991.940	800.433
99.987	25.688	990.503	798.468
101.001	25.462	990.903	797.718
102.016	25.790	991.028	799.202
103.030	25.742	988.977	797.268
104.045	25.915	988.777	797.802
105.060	25.749	986.463	795.131
106.074	25.303	986.320	792.974
107.089	26.010	983.937	794.103
108.103	25.882	985.314	794.579
109.118	26.148	983.665	794.350
110.133	26.030	982.444	792.774
111.147	25.739	982.053	791.110
112.162	25.560	980.214	788.774
113.176	25.666	978.730	787.972
114.191	25.384	979.226	787.068
115.206	25.478	978.535	786.857
116.220	25.230	977.761	785.077
117.235	24.976	977.081	783.353
118.249	25.554	975.718	784.714
119.264	25.338	975.046	783.162
120.279	25.121	973.955	781.271
121.293	25.170	973.478	781.032
122.308	25.500	972.706	781.779
123.322	25.494	972.176	781.260
124.337	25.323	971.323	779.759
125.352	25.145	969.355	777.341
126.366	24.805	967.374	774.210
127.381	24.765	965.786	772.701
128.395	24.944	966.725	774.156
129.410	25.915	965.478	777.277
130.424	25.912	965.228	776.996
131.439	25.708	964.605	775.548
132.454	25.830	963.686	775.265
133.468	26.012	962.633	775.129
134.483	25.774	961.509	773.135
135.497	25.828	961.838	773.565
136.512	25.900	961.699	773.691
137.527	25.983	960.465	772.985
138.541	25.721	960.045	771.458
139.556	26.094	958.632	771.850
140.570	26.072	957.616	770.869
141.585	26.055	956.516	769.844
142.600	26.121	956.651	770.165
143.614	26.599	954.959	770.772
144.629	26.326	955.087	769.644
145.643	26.186	954.592	768.582
146.658	26.544	952.973	768.731
147.673	25.900	953.237	766.139
148.687	26.081	950.888	764.949
149.702	26.070	950.464	764.495
150.716	26.000	949.220	763.130
151.731	25.941	947.773	761.648
152.746	25.708	948.438	761.132
153.760	26.173	946.859	761.760
154.775	25.962	946.522	760.533
155.789	26.271	945.517	760.956
156.804	25.908	945.359	759.235
157.819	26.475	943.585	760.125
158.833	26.107	943.220	758.221
159.848	26.146	942.315	757.586
160.862	26.374	941.379	757.725
161.877	26.027	941.350	756.181
162.892	26.247	939.693	755.702
163.906	26.243	938.576	754.721
164.921	25.881	938.143	752.794
165.935	26.269	935.978	752.608
166.950	26.165	936.126	752.224
167.964	26.101	935.292	751.223
168.979	26.208	934.364	750.855
169.994	26.392	932.641	750.167
171.008	26.231	932.433	749.266
172.023	26.044	931.579	747.738
173.037	26.086	930.855	747.266
174.052	26.171	929.670	746.600
175.067	26.300	927.308	745.171
176.081	26.020	927.904	744.425
177.096	26.155	926.860	744.081
178.110	26.197	925.157	742.818
179.125	25.934	924.876	741.445
180.140	25.634	924.839	740.118
181.154	25.484	923.931	738.710
182.169	25.417	923.834	738.291
183.183	26.088	922.208	739.675
184.198	26.542	921.245	740.697
185.213	26.339	922.829	741.075
186.227	25.844	921.833	738.178
187.242	26.055	921.259	738.520
188.256	26.238	920.257	738.398
189.271	26.493	918.224	737.741
190.286	26.391	918.916	737.818
191.300	26.129	918.093	736.023
192.315	25.881	916.559	733.718
193.329	25.264	914.560	729.545
194.344	24.574	913.398	725.751
195.359	25.458	913.683	729.505
196.373	25.789	914.759	731.644
197.388	26.355	914.435	733.619
198.402	26.375	913.642	732.996
199.417	26.349	913.136	732.422
200.432	26.333	912.860	732.072
201.446	26.243	911.683	730.697
202.461	25.738	911.348	728.323
203.475	26.138	910.284	729.024
204.490	25.494	909.508	725.736
205.504	24.721	906.982	720.546
206.519	24.992	907.321	721.841
207.534	25.611	907.591	724.486
208.548	26.229	906.476	726.020
209.563	26.082	907.491	726.174
210.577	26.125	906.335	725.358
211.592	26.023	904.933	723.763
212.607	26.100	905.061	724.110
213.621	26.600	904.681	725.749
214.636	26.497	904.122	724.821
215.650	26.478	903.125	723.881
216.665	26.188	903.691	723.110
217.680	26.578	901.610	722.941
218.694	26.705	901.636	723.404
219.709	26.138	900.944	720.522
220.723	26.046	898.980	718.522
221.738	25.990	900.172	719.186
222.753	26.299	898.679	719.161
223.767	25.778	898.702	717.041
224.782	26.056	898.273	717.740
225.796	26.824	896.790	719.543
226.811	26.742	896.111	718.610
227.826	26.300	894.721	715.680
228.840	25.362	893.723	711.106
229.855	25.459	892.781	710.675
230.869	25.526	893.134	711.162
231.884	25.377	892.367	709.896
232.899	25.492	891.387	709.509
233.913	26.081	891.992	712.252
234.928	25.976	891.967	711.755
235.942	25.856	890.739	710.240
236.957	26.327	889.823	711.300
237.972	25.952	889.151	709.224
238.986	25.483	889.187	707.345
240.001	25.940	888.294	708.369
241.015	25.819	888.148	707.714
242.030	25.815	887.124	706.820
243.045	26.020	887.479	707.847
244.059	26.027	886.663	707.160
245.074	26.370	885.209	707.279
246.088	26.374	884.275	706.486
247.103	25.896	884.755	704.937
248.117	25.968	883.933	704.503
249.132	26.451	882.940	705.532
250.147	27.166	882.090	707.575
251.161	26.921	882.908	707.215
252.176	27.196	882.018	707.511
253.190	27.324	881.346	707.406
254.205	26.928	881.218	705.700
255.220	27.176	880.996	706.423
256.234	27.291	880.597	706.490
257.249	27.528	878.833	705.928
258.263	26.982	878.502	703.486
259.278	26.870	879.237	703.580
260.293	27.000	878.277	703.250
261.307	27.404	877.629	704.232
262.322	27.353	876.386	702.977
263.336	27.125	875.942	701.676
264.351	26.809	874.889	699.552
265.366	25.871	872.145	693.689
266.380	25.471	871.905	691.896
267.395	26.311	872.427	695.484
268.409	26.447	873.310	696.650
269.424	26.819	871.757	696.780
270.439	26.911	871.221	696.642
271.453	27.065	870.462	696.566
272.468	26.945	870.610	696.162
273.482	27.134	870.419	696.671
274.497	27.375	869.510	696.806
275.512	27.029	868.952	694.973
276.526	26.791	867.258	692.647
277.541	26.748	866.674	691.955
278.555	26.991	866.874	692.981
279.570	26.890	865.642	691.548
280.585	26.725	865.398	690.665
281.599	27.025	864.992	691.424
282.614	26.524	865.131	689.562
283.628	26.492	863.105	687.766
284.643	25.947	863.360	685.834
285.657	26.533	863.628	688.218
286.672	26.341	861.828	685.993
287.687	25.994	860.670	683.695
288.701	26.171	861.064	684.621
289.716	26.793	860.189	686.217
290.730	26.603	858.954	684.452
291.745	26.253	858.826	682.969
292.760	26.060	856.902	680.650
293.774	26.305	856.337	681.067
294.789	26.761	858.001	684.047
295.803	27.499	858.423	687.110
296.818	27.571	857.129	686.284
297.833	27.768	856.593	686.535
298.847	27.492	855.329	684.427
299.862	27.010	855.233	682.478
300.876	27.254	854.224	682.526
301.891	27.175	854.653	682.512
302.906	27.644	853.343	683.163
303.920	27.274	852.690	681.193
304.935	26.933	851.874	679.207
305.949	27.601	851.419	681.283
306.964	27.365	850.755	679.809
307.979	27.260	850.190	678.906
308.993	27.144	850.817	678.911
310.008	27.404	850.207	679.338
311.022	27.724	848.888	679.414
312.037	27.160	849.194	677.498
313.052	27.377	847.806	677.136
314.066	27.444	846.682	676.428
315.081	27.040	844.918	673.461
316.095	25.810	844.213	668.277
317.110	26.424	844.571	670.781
318.125	26.995	845.959	673.944
319.139	26.638	844.242	671.196
320.154	25.807	842.074	666.338
321.168	25.501	840.977	664.282
322.183	25.868	841.181	665.739
323.197	26.602	842.356	669.323
324.212	27.128	841.589	670.597
325.227	27.101	841.873	670.664
326.241	27.047	841.389	670.022
327.256	27.302	839.756	669.602
328.270	26.895	839.988	668.226
329.285	26.705	839.148	666.800
330.300	26.901	838.651	667.067
331.314	26.655	838.062	665.635
332.329	26.654	837.798	665.366
333.343	27.017	836.478	665.586
334.358	27.520	836.162	667.121
335.373	27.054	836.412	665.552
336.387	27.463	835.911	666.594
337.402	27.774	835.070	667.001
338.416	27.795	835.123	667.060
339.431	27.353	834.046	664.528
340.446	28.263	832.861	666.840
341.460	28.246	832.205	666.194
342.475	27.926	832.662	665.337
343.489	28.165	831.467	665.193
344.504	27.820	831.257	663.711
345.519	27.900	831.469	664.112
346.533	28.168	831.039	664.684
347.548	28.072	831.088	664.316
348.562	28.320	829.891	664.199
349.577	28.298	829.504	663.750
350.592	28.074	829.119	662.571
351.606	27.772	829.759	661.930
352.621	28.221	827.522	661.712
353.635	27.739	827.376	659.795
354.650	27.877	826.272	659.352
355.665	27.537	825.913	657.781
356.679	26.649	824.441	653.347
357.694	26.409	823.934	652.025
358.708	27.192	823.912	654.770
359.723	27.069	823.082	653.611
360.738	27.332	823.067	654.487
361.752	27.615	823.205	655.555
362.767	27.806	822.852	655.904
363.781	28.268	822.059	656.873
364.796	28.338	822.910	657.745
365.810	28.412	822.431	657.567
366.825	28.553	821.309	657.119
367.840	28.461	820.725	656.265
368.854	28.542	819.917	655.850
369.869	28.214	818.664	653.619
370.883	28.006	818.757	652.891
371.898	27.631	818.584	651.357
372.913	27.949	816.905	651.095
373.927	27.829	816.356	650.173
374.942	28.248	815.601	651.005
375.956	28.180	816.072	651.081
376.971	28.415	815.204	651.165
377.986	28.124	815.562	650.362
379.000	28.354	815.127	650.771
380.015	28.416	814.528	650.458
381.029	28.374	813.218	649.205
382.044	28.411	812.991	649.096
383.059	28.686	812.046	649.258
384.073	28.519	811.544	648.208
385.088	28.487	811.225	647.782
386.102	28.155	810.488	645.966
387.117	27.901	809.609	644.314
388.132	28.190	808.967	644.761
389.146	28.004	808.761	643.885
390.161	27.565	808.020	641.694
391.175	27.847	807.352	642.099
392.190	28.116	808.171	643.640
393.205	28.054	806.970	642.410
394.219	27.150	805.425	637.950
395.234	25.518	803.444	630.605
396.248	25.143	801.691	627.862
397.263	25.899	802.280	630.915
398.278	27.631	804.900	638.995
399.292	28.228	804.388	640.624
400.307	27.755	804.416	638.931
401.321	27.684	803.152	637.625
402.336	27.942	802.835	638.215
403.350	28.276	802.924	639.396
404.365	28.441	802.281	639.405
405.380	28.727	802.432	640.466
406.394	28.908	802.430	641.037
407.409	29.295	802.520	642.403
408.423	29.158	801.325	640.914
409.438	29.087	800.525	639.969
410.453	29.086	800.418	639.822
411.467	29.458	800.068	640.780
412.482	29.277	798.832	639.104
413.496	28.904	798.653	637.612
414.511	28.822	798.905	637.471
415.526	29.557	797.377	638.740
416.540	29.369	797.144	637.848
417.555	29.496	796.078	637.375
418.569	28.857	796.179	635.193
419.584	28.790	796.130	634.868
420.599	28.822	795.465	634.392
421.613	159.120	1370.340	1793.255
422.628	137.905	1454.111	1793.255
