DTS Sentinel unit serial number:	SN413079Multiplexer serial number:	ORYXHardware model number:	OX4-SRSoftware version number:	ORYX F/W v4.00 Oryx Data Collector v3.7.2.0data status	okinstallation	princeton_trtdifferential loss correction	single-endedforward channel	channel 3reverse channel	N/Adate	2019/09/11time	09:50:11forward acquisition time	60.00reverse acquisition time	0.00gamma	496.2192k internal	0.2302k external	0.2302temperature offset calibration	0.9940default loss term (dB/km)	0.3790temperature slope calibration	1.0000multiplexer offset coefficient	1.0000multiplexer slope coefficient	1.0000fibre end	0.00T internal ref (°C)	35.05T ext. ref 1 (°C)	0.16T ext. ref 2 (°C)	32.19length (m)	temperature (°C)	Stokes	anti-Stokes-747.200	-54.775	0.375	0.173
-746.185	136.311	-0.162	0.216
-745.171	110.536	0.062	0.076
-744.156	-87.786	0.301	0.092
-743.142	397.617	0.110	0.234
-742.127	-49.931	-0.170	0.082
-741.112	-145.200	0.170	-0.016
-740.098	67.128	0.191	0.199
-739.083	-58.211	0.303	-0.134
-738.069	190.146	-0.122	0.187
-737.054	-81.797	0.110	-0.037
-736.039	-82.027	-0.183	0.061
-735.025	-200.000	0.028	0.346
-734.010	-43.473	-0.319	0.164
-732.996	45.984	-0.206	-0.194
-731.981	-9.094	0.060	0.041
-730.966	-146.659	-0.375	0.033
-729.952	339.578	-0.174	-0.346
-728.937	800.000	0.084	-0.266
-727.923	520.383	-0.077	0.184
-726.908	316.318	-0.059	-0.113
-725.894	-177.957	-0.276	-0.007
-724.879	6.555	0.490	-0.371
-723.864	122.908	0.163	-0.208
-722.850	-98.787	0.375	-0.097
-721.835	-200.000	0.023	-0.538
-720.821	-200.000	-0.008	-0.078
-719.806	591.277	-0.041	-0.102
-718.791	-200.000	-0.030	-0.182
-717.777	-141.487	-0.341	0.035
-716.762	-5.068	-0.317	0.222
-715.748	800.000	-0.131	-0.391
-714.733	-63.336	-0.261	-0.109
-713.718	230.602	-0.103	-0.171
-712.704	89.196	-0.073	-0.083
-711.689	-200.000	0.028	0.150
-710.675	340.733	0.116	0.230
-709.660	-152.965	-0.221	0.016
-708.645	190.937	0.131	0.200
-707.631	30.251	0.036	-0.031
-706.616	-49.008	-0.323	-0.157
-705.602	800.000	0.048	0.162
-704.587	123.013	-0.290	0.369
-703.572	7.635	0.329	0.250
-702.558	318.907	-0.119	0.229
-701.543	146.593	0.091	0.125
-700.529	130.723	-0.332	0.433
-699.514	38.881	-0.006	-0.005
-698.499	800.000	-0.030	-0.122
-697.485	-95.453	0.057	-0.016
-696.470	-68.360	0.486	-0.192
-695.456	147.756	-0.176	-0.241
-694.441	-200.000	0.015	0.099
-693.426	800.000	-0.092	-0.269
-692.412	-87.195	-0.319	0.099
-691.397	-102.377	-0.291	-0.071
-690.383	-150.650	0.582	0.045
-689.368	-200.000	-0.024	-0.198
-688.354	-200.000	0.032	0.176
-687.339	387.155	0.159	0.334
-686.324	74.443	0.075	0.081
-685.310	-44.769	0.221	0.112
-684.295	90.721	-0.234	0.267
-683.281	-200.000	-0.025	-0.205
-682.266	-200.000	0.024	-0.330
-681.251	158.303	-0.104	0.146
-680.237	-200.000	-0.005	-0.087
-679.222	519.838	0.061	0.145
-678.208	696.089	-0.093	0.247
-677.193	-32.827	0.067	-0.038
-676.178	-61.985	-0.302	-0.128
-675.164	213.600	-0.176	-0.282
-674.149	87.996	0.122	-0.137
-673.135	341.271	0.256	-0.508
-672.120	-63.205	0.212	-0.089
-671.105	-45.644	-0.129	-0.065
-670.091	800.000	-0.008	0.035
-669.076	154.156	0.037	-0.052
-668.062	-152.638	0.045	0.003
-667.047	91.017	-0.171	-0.195
-666.032	-200.000	-0.002	0.272
-665.018	-98.487	-0.093	0.024
-664.003	-184.636	0.227	-0.004
-662.989	-90.704	0.118	-0.035
-661.974	-13.811	-0.293	-0.192
-660.959	800.000	-0.108	-0.355
-659.945	103.392	0.174	0.207
-658.930	-54.277	0.112	-0.052
-657.916	121.472	-0.135	-0.171
-656.901	159.497	0.122	0.173
-655.886	203.426	0.117	-0.184
-654.872	800.000	-0.011	0.036
-653.857	41.098	0.115	-0.105
-652.843	-45.651	0.199	-0.100
-651.828	161.909	-0.057	0.081
-650.814	255.414	0.076	-0.132
-649.799	-78.810	-0.205	-0.071
-648.784	450.926	-0.208	-0.465
-647.770	2.229	0.090	-0.066
-646.755	800.000	0.090	0.333
-645.741	-51.127	-0.224	-0.106
-644.726	468.639	0.125	-0.284
-643.711	-81.727	0.233	0.077
-642.697	226.235	-0.144	-0.236
-641.682	-1.227	-0.113	0.081
-640.668	724.148	0.074	-0.201
-639.653	-200.000	-0.011	-0.070
-638.638	117.577	0.043	-0.054
-637.624	-90.922	-0.110	-0.032
-636.609	-117.719	-0.149	0.027
-635.595	-200.000	0.006	0.102
-634.580	-93.483	0.192	-0.054
-633.565	152.112	-0.100	-0.139
-632.551	-161.400	0.138	0.007
-631.536	87.316	0.103	0.116
-630.522	-69.732	0.095	-0.037
-629.507	161.024	-0.103	-0.146
-628.492	286.364	0.097	-0.177
-627.478	-200.000	0.062	-0.377
-626.463	28.243	0.045	-0.038
-625.449	96.598	-0.169	0.197
-624.434	50.176	0.166	0.159
-623.419	-200.000	0.025	0.200
-622.405	417.718	-0.105	-0.227
-621.390	-84.005	0.231	0.074
-620.376	-50.258	-0.088	-0.042
-619.361	35.200	0.164	-0.146
-618.346	99.378	0.154	0.181
-617.332	507.363	0.029	-0.068
-616.317	54.273	-0.096	-0.094
-615.303	27.372	0.158	-0.134
-614.288	306.711	-0.015	0.029
-613.273	-105.661	0.222	0.051
-612.259	-200.000	-0.000	-0.236
-611.244	-200.000	-0.005	0.066
-610.230	-162.055	-0.069	0.004
-609.215	800.000	-0.057	0.243
-608.201	38.524	0.087	0.079
-607.186	-4.364	-0.480	-0.336
-606.171	548.970	0.017	-0.040
-605.157	0.593	-0.243	0.176
-604.142	800.000	-0.117	0.351
-603.128	136.996	-0.073	0.097
-602.113	800.000	-0.091	0.296
-601.098	-200.000	-0.010	0.202
-600.084	-18.444	0.161	0.102
-599.069	-200.000	0.013	-0.232
-598.055	83.409	-0.159	-0.176
-597.040	30.032	0.105	-0.091
-596.025	-107.844	-0.032	0.007
-595.011	59.239	0.122	-0.122
-593.996	352.128	0.139	-0.279
-592.982	367.804	0.085	0.175
-591.967	800.000	-0.096	-0.310
-590.952	-60.759	-0.229	0.098
-589.938	-61.198	0.098	-0.042
-588.923	269.407	0.045	0.080
-587.909	-59.364	-0.384	-0.167
-586.894	800.000	0.069	-0.281
-585.879	-200.000	0.059	-0.376
-584.865	358.851	0.011	0.022
-583.850	-80.266	-0.267	-0.091
-582.836	53.128	0.127	0.123
-581.821	-200.000	-0.016	0.110
-580.806	-200.000	0.056	0.330
-579.792	-136.972	-0.481	0.056
-578.777	-132.534	-0.133	0.017
-577.763	-106.023	0.297	0.068
-576.748	381.600	-0.091	0.189
-575.733	382.213	-0.114	-0.238
-574.719	-200.000	-0.032	0.154
-573.704	447.050	-0.055	0.122
-572.690	-200.000	0.025	0.149
-571.675	265.892	0.072	0.126
-570.661	420.826	0.084	-0.182
-569.646	174.730	0.055	0.080
-568.631	-200.000	-0.070	0.457
-567.617	-105.752	-0.169	-0.039
-566.602	146.954	0.223	-0.303
-565.588	-200.000	0.002	-0.170
-564.573	20.373	0.099	0.081
-563.558	-67.548	0.346	-0.137
-562.544	-131.030	0.109	0.015
-561.529	-48.163	-0.086	-0.042
-560.515	520.029	-0.018	0.043
-559.500	37.053	-0.221	0.198
-558.485	122.232	0.183	-0.231
-557.471	-108.355	-0.132	0.029
-556.456	223.274	0.038	-0.062
-555.442	-64.251	0.275	0.113
-554.427	62.529	0.111	-0.112
-553.412	800.000	0.041	-0.123
-552.398	-75.845	-0.117	-0.042
-551.383	-84.647	0.211	-0.067
-550.369	95.189	0.218	0.251
-549.354	-133.806	-0.145	0.018
-548.339	-140.331	-0.253	-0.027
-547.325	-200.000	-0.006	0.115
-546.310	-78.723	0.280	-0.097
-545.296	369.822	0.107	0.219
-544.281	-62.184	0.295	0.124
-543.266	88.049	-0.151	-0.169
-542.252	87.199	-0.032	-0.035
-541.237	-93.339	-0.168	0.047
-540.223	-64.063	-0.270	-0.111
-539.208	297.818	0.079	0.146
-538.193	-48.764	0.081	0.039
-537.179	-28.364	-0.101	0.059
-536.164	-61.453	-0.193	0.082
-535.150	-200.000	0.006	-0.282
-534.135	-141.317	-0.043	0.004
-533.121	533.568	-0.115	-0.276
-532.106	-191.547	0.219	0.002
-531.091	-37.380	-0.236	0.127
-530.077	419.403	0.081	-0.175
-529.062	800.000	-0.032	0.119
-528.048	-96.251	0.483	-0.129
-527.033	320.364	0.039	-0.075
-526.018	498.747	-0.151	-0.353
-525.004	191.345	-0.136	0.208
-523.989	167.900	0.081	-0.117
-522.975	-200.000	0.010	-0.355
-521.960	567.428	-0.097	-0.239
-520.945	204.128	0.079	-0.123
-519.931	-47.699	0.213	-0.104
-518.916	-200.000	0.062	-0.000
-517.902	-200.000	-0.024	-0.162
-516.887	800.000	0.094	-0.306
-515.872	-104.247	-0.338	0.079
-514.858	-119.525	0.114	0.020
-513.843	140.070	0.199	-0.265
-512.829	65.580	0.182	0.186
-511.814	275.280	-0.183	0.328
-510.799	-200.000	-0.006	-0.455
-509.785	-150.979	0.222	0.017
-508.770	31.123	-0.127	-0.110
-507.756	-19.439	-0.079	-0.050
-506.741	178.085	-0.111	0.163
-505.726	62.257	0.097	0.098
-504.712	-98.571	-0.302	0.078
-503.697	-140.926	0.180	-0.019
-502.683	-200.000	-0.013	0.209
-501.668	-123.382	-0.198	-0.032
-500.653	150.823	-0.010	0.013
-499.639	-80.030	-0.384	0.130
-498.624	800.000	0.111	0.433
-497.610	-48.027	-0.128	0.062
-496.595	-139.345	0.272	0.030
-495.581	134.750	-0.178	0.233
-494.566	-121.795	0.052	-0.009
-493.551	142.621	-0.203	0.272
-492.537	-113.335	-0.207	-0.041
-491.522	117.475	0.313	-0.389
-490.508	-116.982	-0.030	0.005
-489.493	-171.238	-0.677	0.023
-488.478	233.568	0.143	0.237
-487.464	50.633	0.174	-0.166
-486.449	-200.000	-0.049	-0.231
-485.435	310.221	0.078	-0.148
-484.420	237.924	0.070	0.118
-483.405	-200.000	0.008	-0.069
-482.391	-200.000	-0.033	-0.282
-481.376	168.571	-0.056	0.081
-480.362	-18.473	-0.330	-0.208
-479.347	800.000	0.012	0.040
-478.332	-200.000	-0.047	0.289
-477.318	-200.000	0.000	-0.252
-476.303	-47.705	-0.043	-0.021
-475.289	-200.000	-0.003	0.101
-474.274	210.325	-0.033	0.052
-473.259	124.136	-0.096	-0.122
-472.245	-200.000	-0.004	-0.245
-471.230	298.275	0.085	-0.158
-470.216	800.000	0.045	-0.135
-469.201	-86.853	0.221	-0.068
-468.186	-81.241	-0.113	0.038
-467.172	179.913	-0.264	-0.390
-466.157	-200.000	0.002	-0.213
-465.143	800.000	-0.102	0.382
-464.128	-132.245	0.298	-0.039
-463.113	212.760	0.074	0.118
-462.099	493.040	-0.162	0.375
-461.084	156.427	0.062	0.087
-460.070	-125.000	-0.320	0.050
-459.055	-156.768	-0.351	-0.022
-458.040	83.386	0.165	0.181
-457.026	-112.728	0.259	-0.052
-456.011	-200.000	-0.014	0.081
-454.997	-196.936	-0.225	0.001
-453.982	800.000	-0.049	-0.201
-452.968	-90.716	-0.203	-0.059
-451.953	419.392	0.061	-0.131
-450.938	-200.000	0.030	0.151
-449.924	800.000	0.027	-0.107
-448.909	43.928	-0.311	-0.287
-447.895	74.252	-0.137	-0.145
-446.880	426.471	0.096	-0.208
-445.865	-111.031	0.096	-0.020
-444.851	71.799	0.060	-0.062
-443.836	-33.907	-0.138	-0.077
-442.822	188.616	-0.130	0.196
-441.807	51.822	0.249	-0.239
-440.792	33.280	-0.157	0.137
-439.778	-188.362	0.225	-0.003
-438.763	-117.871	-0.072	-0.013
-437.749	-73.754	0.134	-0.049
-436.734	315.453	0.192	0.365
-435.719	-107.639	-0.291	-0.064
-434.705	-138.732	-0.225	-0.025
-433.690	-44.911	-0.140	0.070
-432.676	41.708	-0.265	-0.241
-431.661	800.000	-0.021	0.090
-430.646	-200.000	-0.074	-0.376
-429.632	83.702	-0.190	-0.209
-428.617	-23.792	-0.151	0.091
-427.603	20.943	-0.137	-0.111
-426.588	662.060	-0.041	0.106
-425.573	45.412	-0.382	-0.355
-424.559	248.920	-0.089	0.151
-423.544	245.677	0.065	0.110
-422.530	-200.000	-0.013	0.174
-421.515	-200.000	-0.001	0.212
-420.500	649.178	-0.129	0.332
-419.486	9.193	0.102	0.078
-418.471	-13.234	0.072	0.047
-417.457	-117.680	0.199	0.036
-416.442	57.257	-0.121	0.118
-415.428	-140.622	0.215	-0.022
-414.413	632.376	0.072	0.183
-413.398	-171.129	0.222	0.008
-412.384	-200.000	0.066	-0.449
-411.369	140.210	0.145	-0.193
-410.355	-21.503	-0.149	0.092
-409.340	296.421	-0.104	-0.191
-408.325	-141.068	-0.084	-0.009
-407.311	-200.000	0.052	-0.234
-406.296	19.562	-0.294	0.238
-405.282	800.000	0.040	-0.167
-404.267	215.424	0.119	-0.190
-403.252	-100.057	0.125	0.031
-402.238	800.000	-0.120	0.334
-401.223	487.659	-0.038	-0.086
-400.209	800.000	0.045	0.144
-399.194	800.000	-0.026	-0.095
-398.179	95.383	0.175	0.200
-397.165	800.000	0.037	0.158
-396.150	-128.413	0.356	-0.051
-395.136	-200.000	0.070	0.340
-394.121	800.000	0.028	-0.112
-393.106	-73.316	0.407	-0.150
-392.092	207.443	0.171	0.267
-391.077	657.108	0.114	0.294
-390.063	800.000	-0.087	-0.345
-389.048	800.000	-0.079	0.233
-388.033	-30.014	0.304	-0.174
-387.019	36.521	0.121	0.107
-386.004	-200.000	-0.004	0.101
-384.990	73.428	-0.213	0.224
-383.975	-127.665	0.305	0.044
-382.960	-200.000	0.006	0.180
-381.946	410.368	-0.126	-0.269
-380.931	-60.561	-0.096	0.041
-379.917	-136.049	-0.392	0.046
-378.902	-200.000	0.002	0.179
-377.888	-200.000	0.025	0.122
-376.873	800.000	-0.043	-0.126
-375.858	-20.905	0.213	0.131
-374.844	25.557	-0.076	0.063
-373.829	-26.807	0.188	-0.111
-372.815	-129.656	-0.143	0.020
-371.800	-200.000	0.037	0.292
-370.785	-149.467	-0.325	-0.026
-369.771	132.764	-0.074	0.096
-368.756	-200.000	0.050	0.235
-367.742	-200.000	-0.042	0.279
-366.727	-163.372	0.356	0.017
-365.712	-195.880	-0.146	-0.001
-364.698	141.676	-0.034	-0.045
-363.683	-34.373	0.114	0.063
-362.669	252.245	-0.128	0.220
-361.654	-200.000	-0.001	-0.188
-360.639	-200.000	-0.009	-0.421
-359.625	-116.931	0.199	0.037
-358.610	43.082	0.066	0.060
-357.596	86.637	-0.074	-0.081
-356.581	-200.000	0.038	0.235
-355.566	-184.314	0.468	0.008
-354.552	-36.185	-0.313	-0.169
-353.537	167.239	-0.225	0.321
-352.523	800.000	0.014	0.052
-351.508	96.376	-0.123	-0.141
-350.493	-56.287	0.349	0.155
-349.479	-119.496	0.338	-0.059
-348.464	800.000	0.039	0.110
-347.450	-200.000	-0.026	-0.196
-346.435	-69.038	-0.319	0.123
-345.420	-122.447	0.463	-0.076
-344.406	-1.490	-0.112	0.079
-343.391	-168.743	-0.434	-0.016
-342.377	-90.090	0.251	0.073
-341.362	800.000	0.114	-0.354
-340.348	115.611	0.052	-0.064
-339.333	-32.503	0.192	-0.108
-338.318	-103.516	0.107	0.025
-337.304	-166.356	-0.261	-0.011
-336.289	327.617	-0.102	-0.195
-335.275	-0.078	0.080	-0.057
-334.260	282.197	-0.063	0.113
-333.245	-68.775	-0.195	0.076
-332.231	99.640	0.274	0.318
-331.216	418.065	-0.091	0.194
-330.202	159.038	-0.024	-0.033
-329.187	92.894	0.107	0.122
-328.172	56.368	0.193	0.188
-327.158	-200.000	-0.009	0.121
-326.143	341.753	-0.113	0.222
-325.129	121.213	0.225	-0.281
-324.114	-17.070	-0.233	0.148
-323.099	-200.000	-0.013	-0.284
-322.085	-200.000	-0.090	-0.462
-321.070	12.086	-0.064	0.049
-320.056	-67.480	-0.144	0.057
-319.041	-130.362	-0.110	0.015
-318.026	189.955	0.031	-0.046
-317.012	-30.461	0.062	-0.035
-315.997	-42.313	0.092	0.047
-314.983	-200.000	-0.008	-0.219
-313.968	3.773	0.122	0.089
-312.953	28.544	0.173	0.147
-311.939	192.211	0.229	0.347
-310.924	-27.910	0.075	0.043
-309.910	-99.958	0.223	-0.056
-308.895	-93.643	0.265	-0.073
-307.880	-92.091	0.084	0.024
-306.866	-117.610	-0.142	-0.026
-305.851	800.000	0.086	0.284
-304.837	288.892	-0.075	0.137
-303.822	-200.000	-0.017	0.074
-302.807	-200.000	0.017	-0.221
-301.793	-200.000	0.017	0.229
-300.778	-200.000	0.105	0.508
-299.764	-200.000	-0.007	-0.094
-298.749	-34.900	0.199	0.109
-297.735	-172.885	-0.115	-0.004
-296.720	-200.000	0.025	0.205
-295.705	454.956	0.056	-0.124
-294.691	800.000	-0.102	-0.340
-293.676	-56.033	0.062	-0.028
-292.662	179.569	0.040	-0.058
-291.647	-47.052	0.069	0.034
-290.632	-200.000	-0.049	-0.349
-289.618	173.353	-0.136	0.196
-288.603	800.000	0.073	-0.229
-287.589	-55.273	-0.102	0.046
-286.574	-148.365	-0.318	-0.026
-285.559	177.531	0.029	-0.042
-284.545	-65.454	-0.312	-0.126
-283.530	-200.000	-0.031	-0.256
-282.516	-103.405	0.130	0.031
-281.501	325.234	-0.116	0.221
-280.486	-55.579	-0.080	-0.036
-279.472	-200.000	-0.023	-0.382
-278.457	118.924	0.118	0.146
-277.443	-10.152	0.155	0.103
-276.428	65.972	0.241	-0.244
-275.413	-102.479	-0.094	-0.023
-274.399	477.069	-0.100	0.227
-273.384	-200.000	0.067	0.404
-272.370	800.000	0.053	0.162
-271.355	-35.730	0.113	-0.061
-270.340	-4.816	-0.238	0.164
-269.326	18.935	0.140	0.112
-268.311	-149.967	-0.049	0.004
-267.297	225.671	-0.020	-0.033
-266.282	-99.647	0.109	0.027
-265.267	800.000	0.089	0.315
-264.253	295.099	0.117	-0.214
-263.238	800.000	-0.069	-0.199
-262.224	127.703	-0.057	0.073
-261.209	47.252	-0.138	0.128
-260.195	-26.601	0.074	-0.043
-259.180	145.202	-0.170	0.227
-258.165	-10.385	-0.253	0.167
-257.151	-65.807	-0.219	-0.088
-256.136	-200.000	0.043	0.289
-255.122	46.038	0.163	-0.151
-254.107	-131.332	0.353	0.047
-253.092	-13.187	-0.071	-0.046
-252.078	-74.482	-0.266	0.096
-251.063	-117.500	0.250	0.045
-250.049	173.002	0.115	-0.166
-249.034	-113.286	-0.368	0.072
-248.019	107.647	-0.170	0.202
-247.005	427.883	-0.036	0.078
-245.990	67.357	0.022	-0.022
-244.976	-200.000	-0.002	-0.249
-243.961	-65.136	0.229	-0.092
-242.946	-67.088	-0.237	0.093
-241.932	-161.646	0.255	0.013
-240.917	800.000	0.057	-0.190
-239.903	-111.823	0.084	0.017
-238.888	15.352	0.198	0.155
-237.873	56.084	-0.195	-0.189
-236.859	700.654	-0.081	-0.214
-235.844	-77.541	-0.276	-0.096
-234.830	37.979	0.229	0.203
-233.815	-37.181	-0.199	-0.106
-232.800	105.003	0.031	-0.036
-231.786	756.727	-0.075	0.203
-230.771	-107.348	0.022	-0.005
-229.757	208.660	0.064	0.100
-228.742	-30.085	-0.021	0.012
-227.727	-35.902	-0.379	0.205
-226.713	44.581	-0.088	0.081
-225.698	57.167	0.098	0.095
-224.684	-200.000	0.035	0.356
-223.669	8.439	0.331	0.248
-222.655	-200.000	-0.000	0.172
-221.640	800.000	0.038	0.105
-220.625	173.045	-0.090	-0.130
-219.611	-200.000	0.026	-0.162
-218.596	800.000	-0.052	0.212
-217.582	-146.359	0.318	0.028
-216.567	-200.000	0.036	-0.182
-215.552	49.268	-0.036	0.034
-214.538	-99.090	-0.204	-0.052
-213.523	-200.000	0.021	-0.267
-212.509	-164.872	-0.072	0.003
-211.494	-10.549	0.229	-0.151
-210.479	17.482	0.229	-0.182
-209.465	25.964	-0.131	-0.109
-208.450	315.441	-0.074	-0.140
-207.436	-43.912	0.518	0.260
-206.421	15.482	0.084	-0.066
-205.406	800.000	0.069	-0.196
-204.392	-37.187	0.267	0.143
-203.377	198.896	-0.105	-0.161
-202.363	62.690	-0.283	0.282
-201.348	32.922	0.175	-0.151
-200.333	800.000	-0.119	0.450
-199.319	-173.523	-0.425	0.013
-198.304	-200.000	-0.007	0.113
-197.290	-175.399	-0.272	-0.007
-196.275	-96.735	-0.362	0.095
-195.260	-69.288	-0.129	-0.050
-194.246	-50.324	-0.199	0.094
-193.231	19.033	-0.041	0.032
-192.217	-45.789	0.271	-0.134
-191.202	-200.000	0.015	0.098
-190.187	-6.834	-0.132	0.090
-189.173	-121.129	0.194	0.032
-188.158	-116.978	-0.279	-0.051
-187.144	44.425	0.060	-0.055
-186.129	-120.442	0.344	-0.058
-185.114	610.386	0.070	-0.175
-184.100	-1.665	0.196	-0.138
-183.085	-200.000	0.025	-0.208
-182.071	-200.000	-0.015	-0.376
-181.056	88.545	-0.021	-0.023
-180.042	-107.566	-0.158	0.034
-179.027	10.979	-0.239	-0.182
-178.012	56.542	0.252	-0.245
-176.998	41.195	-0.076	-0.068
-175.983	-60.290	0.147	-0.062
-174.969	800.000	0.083	0.230
-173.954	-145.237	0.164	0.015
-172.939	-27.786	0.092	-0.053
-171.925	-200.000	-0.032	-0.183
-170.910	-93.726	-0.294	0.081
-169.896	28.313	-0.001	-0.001
-168.881	-151.884	-0.246	0.018
-167.866	-4.895	0.332	-0.228
-166.852	27.311	-0.107	-0.090
-165.837	72.944	0.097	0.101
-164.823	74.160	0.275	0.288
-163.808	344.280	-0.050	0.098
-162.793	66.619	0.192	-0.195
-161.779	-37.232	0.176	0.094
-160.764	800.000	-0.111	0.368
-159.750	124.797	0.101	0.126
-158.735	-14.550	0.187	-0.120
-157.720	-75.852	-0.101	0.036
-156.706	-169.400	-0.158	0.006
-155.691	-61.094	0.056	0.024
-154.677	31.909	0.243	0.208
-153.662	-28.504	0.164	-0.094
-152.647	800.000	0.066	0.194
-151.633	800.000	-0.033	-0.100
-150.618	-200.000	-0.052	0.247
-149.604	148.421	-0.035	-0.047
-148.589	485.729	0.126	0.286
-147.574	-74.743	-0.419	-0.150
-146.560	130.711	0.097	0.124
-145.545	707.356	-0.108	-0.285
-144.531	800.000	0.018	-0.073
-143.516	-43.782	0.317	-0.159
-142.502	-74.559	-0.237	0.085
-141.487	-34.643	-0.278	-0.151
-140.472	-130.096	0.233	-0.032
-139.458	-85.598	0.387	-0.120
-138.443	800.000	0.017	-0.072
-137.429	-26.905	-0.301	-0.175
-136.414	-129.197	0.321	0.045
-135.399	198.296	0.198	0.302
-134.385	-147.641	0.357	0.030
-133.370	-96.472	0.193	-0.051
-132.356	-200.000	-0.010	-0.154
-131.341	-63.980	0.381	0.155
-130.326	765.781	-0.044	0.120
-129.312	201.709	-0.059	-0.091
-128.297	-115.965	-0.238	-0.044
-127.283	800.000	-0.061	0.173
-126.268	239.994	0.110	0.183
-125.253	4.028	-0.261	0.190
-124.239	-102.648	0.445	0.106
-123.224	-0.626	0.310	0.219
-122.210	103.151	-0.259	0.302
-121.195	-111.662	-0.337	-0.068
-120.180	800.000	-0.046	0.171
-119.166	77.082	0.275	0.291
-118.151	-200.000	0.020	-0.154
-117.137	47.544	-0.087	0.081
-116.122	800.000	0.067	0.241
-115.107	-200.000	0.008	0.058
-114.093	-200.000	0.004	0.153
-113.078	-83.347	0.191	0.061
-112.064	671.599	-0.120	0.309
-111.049	780.137	0.043	0.116
-110.034	-200.000	-0.041	-0.324
-109.020	225.761	0.102	-0.164
-108.005	-76.272	-0.398	0.139
-106.991	733.960	0.053	-0.140
-105.976	34.389	0.261	-0.226
-104.962	482.103	-0.106	0.240
-103.947	-22.393	0.028	-0.017
-102.932	-10.499	-0.210	-0.138
-101.918	-44.342	0.166	-0.083
-100.903	433.271	-0.029	0.062
-99.889	-200.000	-0.049	0.276
-98.874	392.034	-0.089	-0.184
-97.859	-152.599	0.088	-0.006
-96.845	45.469	0.300	0.275
-95.830	-149.505	-0.121	-0.010
-94.816	-124.132	-0.140	-0.022
-93.801	94.709	-0.140	0.158
-92.786	621.890	-0.044	0.110
-91.772	-141.718	0.187	-0.019
-90.757	-72.957	0.072	0.026
-89.743	44.363	0.098	-0.089
-88.728	16.982	-0.112	0.088
-87.713	-44.040	-0.128	0.064
-86.699	-29.562	-0.322	0.183
-85.684	-84.835	0.121	0.038
-84.670	-200.000	0.028	0.363
-83.655	-200.000	0.036	0.266
-82.640	-75.927	-0.191	-0.067
-81.626	-200.000	-0.015	-0.207
-80.611	-16.302	0.209	-0.132
-79.597	-114.838	-0.172	-0.033
-78.582	800.000	-0.046	0.176
-77.567	-71.758	-0.166	-0.061
-76.553	-10.791	0.141	-0.093
-75.538	-62.002	0.160	0.066
-74.524	262.479	-0.068	0.116
-73.509	800.000	0.098	-0.316
-72.494	246.273	-0.070	0.117
-71.480	-115.341	-0.087	0.016
-70.465	50.149	-0.131	-0.123
-69.451	-72.038	0.082	0.030
-68.436	494.421	-0.128	-0.292
-67.422	-200.000	-0.038	0.338
-66.407	73.031	0.179	0.186
-65.392	-85.034	-0.134	-0.042
-64.378	94.916	0.101	-0.114
-63.363	800.000	0.062	0.225
-62.349	-200.000	-0.004	0.076
-61.334	54.654	-0.835	-0.798
-60.319	452.932	0.103	0.226
-59.305	88.792	-0.408	-0.450
-58.290	68.676	0.796	0.810
-57.276	579.719	0.534	1.298
-56.261	-200.000	92.289	513.570
-55.246	561.667	1366.755	3278.017
-54.232	184.850	2610.366	3838.977
-53.217	115.832	2228.447	2704.024
-52.203	45.010	1758.958	1606.651
-51.188	38.147	1566.037	1382.031
-50.173	35.709	1538.266	1340.498
-49.159	52.441	1587.199	1502.124
-48.144	56.042	1606.548	1545.932
-47.130	38.565	1562.574	1381.710
-46.115	35.285	1547.517	1345.368
-45.100	35.110	1543.875	1340.923
-44.086	35.123	1542.151	1339.463
-43.071	35.080	1540.146	1337.370
-42.057	34.942	1538.561	1334.976
-41.042	35.057	1536.820	1334.219
-40.027	35.045	1535.413	1332.856
-39.013	35.111	1534.083	1332.107
-37.998	35.045	1532.527	1330.248
-36.984	35.058	1531.598	1329.480
-35.969	34.959	1530.708	1327.963
-34.954	35.018	1528.717	1326.596
-33.940	34.936	1527.457	1324.883
-32.925	35.101	1525.640	1324.395
-31.911	35.083	1524.765	1323.461
-30.896	35.176	1522.971	1322.489
-29.881	35.084	1521.689	1320.691
-28.867	35.184	1520.350	1320.166
-27.852	35.072	1518.994	1318.163
-26.838	35.224	1517.277	1317.668
-25.823	35.115	1515.698	1315.491
-24.809	35.105	1514.095	1313.980
-23.794	35.020	1513.162	1312.535
-22.779	35.167	1511.608	1312.141
-21.765	35.041	1511.211	1310.883
-20.750	35.005	1509.973	1309.513
-19.736	35.142	1508.069	1308.747
-18.721	35.041	1507.274	1307.312
-17.706	35.039	1506.313	1306.418
-16.692	35.094	1505.015	1305.613
-15.677	34.992	1504.570	1304.477
-14.663	34.889	1503.809	1303.063
-13.648	34.997	1502.103	1302.268
-12.633	35.000	1500.877	1301.179
-11.619	35.032	1500.008	1300.585
-10.604	35.081	1499.128	1300.104
-9.590	34.998	1498.210	1298.695
-8.575	35.088	1497.397	1298.547
-7.560	35.038	1496.545	1297.423
-6.546	34.902	1496.160	1296.113
-5.531	34.993	1494.948	1295.631
-4.517	34.971	1493.842	1294.469
-3.502	34.989	1492.783	1293.619
-2.487	34.859	1491.919	1291.942
-1.473	34.954	1490.866	1291.619
-0.458	34.908	1489.957	1290.473
0.556	33.310	1480.500	1281.179
1.571	30.932	1454.152	1242.437
2.586	27.983	1392.172	1170.517
3.600	26.541	1309.664	1092.352
4.615	25.023	1262.572	1044.141
5.629	20.627	1202.454	969.879
6.644	9.447	1111.824	838.736
7.659	1.448	1067.365	764.979
8.673	0.353	1061.996	755.580
9.688	0.170	1059.186	752.597
10.702	0.114	1057.144	750.804
11.717	0.003	1055.502	749.018
12.731	3.782	1059.964	770.992
13.746	14.123	1074.948	833.912
14.761	20.974	1084.215	875.557
15.775	22.084	1084.226	881.060
16.790	22.062	1084.164	880.819
17.804	21.948	1083.427	879.572
18.819	21.656	1082.271	877.096
19.834	21.867	1081.556	877.491
20.848	21.868	1081.310	877.223
21.863	21.915	1081.195	877.284
22.877	21.996	1080.333	876.912
23.892	21.970	1079.633	876.139
24.907	21.900	1078.731	874.981
25.921	21.858	1078.406	874.428
26.936	21.892	1077.529	873.810
27.950	21.753	1076.623	872.304
28.965	21.794	1075.150	871.239
29.980	21.839	1073.087	869.712
30.994	21.758	1072.081	868.422
32.009	21.859	1071.730	868.559
33.023	21.885	1071.151	868.143
34.038	21.788	1069.589	866.318
35.053	21.777	1068.816	865.564
36.067	22.040	1068.036	866.153
37.082	21.888	1067.262	864.697
38.096	21.973	1066.442	864.377
39.111	22.146	1065.624	864.485
40.126	22.284	1065.007	864.589
41.140	22.134	1063.449	862.509
42.155	21.819	1062.281	859.945
43.169	21.599	1061.074	857.811
44.184	21.591	1059.742	856.622
45.199	21.668	1058.915	856.253
46.213	21.454	1058.416	854.727
47.228	21.611	1056.696	854.027
48.242	21.639	1056.081	853.593
49.257	21.693	1055.747	853.509
50.271	21.727	1055.212	853.169
51.286	21.837	1054.287	852.880
52.301	22.072	1053.031	852.928
53.315	21.957	1052.443	851.818
54.330	21.881	1052.017	851.030
55.344	21.748	1051.141	849.604
56.359	21.826	1050.014	848.996
57.374	21.770	1049.293	848.064
58.388	21.718	1047.948	846.651
59.403	21.662	1047.145	845.659
60.417	21.661	1046.962	845.430
61.432	21.524	1045.706	843.679
62.447	21.615	1044.964	843.447
63.461	21.606	1044.555	842.997
64.476	21.725	1043.362	842.533
65.490	21.611	1042.869	841.511
66.505	21.595	1041.853	840.539
67.520	21.563	1041.209	839.793
68.534	21.714	1040.565	839.920
69.549	21.603	1039.304	838.301
70.563	21.217	1038.400	835.648
71.578	21.220	1037.122	834.561
72.593	21.318	1036.439	834.405
73.607	21.097	1035.530	832.545
74.622	21.096	1034.898	831.957
75.636	21.290	1033.906	832.013
76.651	21.546	1032.643	832.137
77.666	21.344	1031.960	830.557
78.680	21.292	1031.225	829.644
79.695	21.347	1030.502	829.248
80.709	21.434	1030.230	829.368
81.724	21.623	1029.106	829.285
82.739	21.572	1028.588	828.556
83.753	21.488	1027.634	827.314
84.768	21.773	1027.112	828.170
85.782	22.014	1026.536	828.768
86.797	22.205	1025.752	828.965
87.812	22.209	1024.807	828.145
88.826	22.038	1023.723	826.392
89.841	22.010	1022.979	825.588
90.855	22.206	1021.888	825.551
91.870	22.210	1021.509	825.191
92.884	22.127	1020.307	823.761
93.899	21.884	1019.592	821.972
94.914	21.902	1018.403	821.023
95.928	21.963	1017.830	820.773
96.943	22.106	1016.688	820.451
97.957	21.705	1016.203	818.112
98.972	21.427	1014.985	815.765
99.987	21.313	1013.730	814.153
101.001	21.346	1012.959	813.614
102.016	21.702	1012.323	814.687
103.030	21.822	1011.587	814.581
104.045	21.731	1010.154	812.930
105.060	21.654	1008.705	811.337
106.074	21.475	1007.502	809.471
107.089	21.561	1006.939	809.345
108.103	21.822	1006.957	810.493
109.118	21.928	1006.050	810.181
110.133	21.581	1004.712	807.431
111.147	21.604	1003.687	806.642
112.162	21.533	1002.453	805.251
113.176	21.322	1001.252	803.246
114.191	21.483	1000.327	803.172
115.206	21.530	999.569	802.708
116.220	21.221	998.747	800.561
117.235	20.996	998.093	798.935
118.249	21.263	997.072	799.271
119.264	21.457	995.688	798.973
120.279	21.170	995.135	797.153
121.293	21.218	994.380	796.695
122.308	21.171	993.738	795.896
123.322	21.299	993.128	795.919
124.337	21.427	991.696	795.283
125.352	21.241	990.388	793.317
126.366	20.834	988.517	789.903
127.381	20.552	987.063	787.397
128.395	21.096	987.025	789.757
129.410	21.708	986.447	791.993
130.424	21.793	986.168	792.083
131.439	21.855	984.836	791.223
132.454	21.790	983.870	790.083
133.468	21.876	983.071	789.760
134.483	21.682	982.234	788.144
135.497	21.700	982.117	788.061
136.512	21.842	981.358	788.021
137.527	21.992	980.692	788.092
138.541	22.033	979.923	787.586
139.556	22.061	978.792	786.732
140.570	21.951	978.208	785.702
141.585	22.067	976.842	785.054
142.600	22.030	976.709	784.714
143.614	21.982	975.516	783.471
144.629	22.054	974.558	782.955
145.643	22.390	974.044	783.966
146.658	22.237	972.789	782.207
147.673	22.004	971.210	779.834
148.687	21.918	970.366	778.706
149.702	21.788	969.216	777.139
150.716	21.728	968.254	776.032
151.731	21.809	967.366	775.610
152.746	21.834	966.975	775.338
153.760	22.000	966.260	775.430
154.775	22.113	965.854	775.533
155.789	22.166	964.455	774.577
156.804	22.183	963.579	773.879
157.819	22.063	962.732	772.603
158.833	22.101	961.696	771.870
159.848	22.177	960.941	771.529
160.862	22.308	960.382	771.588
161.877	22.134	959.419	769.980
162.892	22.152	958.473	769.233
163.906	22.226	957.433	768.654
164.921	22.170	956.604	767.675
165.935	22.141	955.009	766.200
166.950	22.126	954.467	765.632
167.964	22.214	953.216	764.946
168.979	22.113	952.572	763.923
169.994	22.081	951.025	762.475
171.008	21.775	950.673	760.796
172.023	21.948	950.113	761.032
173.037	22.175	948.860	760.942
174.052	22.063	947.737	759.490
175.067	21.997	946.477	758.129
176.081	21.831	946.091	757.036
177.096	21.871	945.095	756.344
178.110	21.991	944.176	756.060
179.125	21.668	943.612	754.151
180.140	21.520	942.005	752.163
181.154	21.433	941.507	751.327
182.169	21.511	941.170	751.327
183.183	21.818	940.856	752.326
184.198	22.089	940.369	753.034
185.213	22.003	939.592	751.976
186.227	22.002	939.028	751.453
187.242	22.162	938.182	751.392
188.256	22.181	937.304	750.707
189.271	22.021	937.160	749.841
190.286	22.282	935.722	749.733
191.300	22.147	934.920	748.452
192.315	21.516	934.161	745.090
193.329	20.831	932.288	740.621
194.344	20.388	931.062	737.699
195.359	20.990	931.660	740.667
196.373	21.730	932.208	744.181
197.388	22.112	931.400	745.090
198.402	21.936	930.641	743.672
199.417	21.940	930.093	743.183
200.432	21.932	929.209	742.375
201.446	21.960	928.454	741.826
202.461	21.490	928.205	739.577
203.475	21.667	927.598	739.775
204.490	21.205	926.270	736.699
205.504	20.219	923.567	730.339
206.519	20.561	923.996	732.052
207.534	21.381	924.249	735.640
208.548	21.666	923.293	736.010
209.563	22.106	923.331	737.824
210.577	21.997	922.779	736.862
211.592	21.719	921.721	734.784
212.607	21.999	921.604	735.799
213.621	22.118	921.700	736.310
214.636	22.128	920.580	735.394
215.650	22.305	919.471	735.180
216.665	22.060	919.507	734.123
217.680	22.176	918.786	733.966
218.694	22.168	918.862	733.927
219.709	21.938	917.292	731.647
220.723	21.526	916.584	729.302
221.738	21.715	916.130	729.667
222.753	22.026	915.332	730.260
223.767	21.867	914.624	728.969
224.782	21.974	914.170	728.986
225.796	22.129	913.344	728.905
226.811	22.198	912.872	728.749
227.826	21.812	911.918	726.324
228.840	20.994	910.303	721.592
229.855	20.903	909.722	720.689
230.869	21.305	908.988	721.708
231.884	21.217	907.493	720.094
232.899	21.075	907.410	719.379
233.913	21.833	907.773	722.729
234.928	22.098	907.161	723.266
235.942	21.995	906.206	722.017
236.957	21.824	906.142	721.199
237.972	21.538	904.831	718.920
238.986	21.460	903.959	717.842
240.001	21.687	903.320	718.200
241.015	21.729	903.026	718.077
242.030	21.765	901.826	717.205
243.045	21.886	901.563	717.428
244.059	21.868	901.415	717.174
245.074	22.027	900.960	717.397
246.088	22.106	899.437	716.443
247.103	21.795	899.017	714.777
248.117	21.667	898.520	713.799
249.132	22.252	898.212	715.873
250.147	22.593	897.982	717.012
251.161	22.699	897.540	717.026
252.176	22.782	897.255	717.073
253.190	22.779	896.381	716.298
254.205	22.843	895.780	716.017
255.220	23.123	895.618	716.958
256.234	23.031	894.929	715.969
257.249	22.990	893.772	714.813
258.263	22.793	893.434	713.684
259.278	22.719	892.991	712.970
260.293	22.803	892.348	712.734
261.307	22.873	892.129	712.778
262.322	22.904	891.228	712.116
263.336	22.677	890.370	710.456
264.351	22.391	888.728	707.931
265.366	21.211	886.897	701.671
266.380	20.722	885.760	698.747
267.395	21.687	886.355	703.029
268.409	22.444	886.572	706.179
269.424	22.339	885.819	705.094
270.439	22.380	885.562	704.993
271.453	22.645	884.927	705.486
272.468	22.609	884.262	704.749
273.482	22.657	884.100	704.748
274.497	22.870	883.724	705.236
275.512	22.806	882.149	703.663
276.526	22.206	881.143	700.407
277.541	22.328	880.588	700.391
278.555	22.697	880.197	701.486
279.570	22.476	880.032	700.414
280.585	22.297	878.978	698.800
281.599	22.382	878.800	698.934
282.614	22.635	877.944	699.196
283.628	22.207	876.698	696.447
284.643	21.880	875.620	694.234
285.657	22.152	875.911	695.482
286.672	22.049	874.865	694.182
287.687	21.649	873.908	691.782
288.701	21.945	873.774	692.784
289.716	22.367	873.754	694.371
290.730	21.974	872.749	691.964
291.745	21.881	871.873	690.840
292.760	21.741	870.961	689.504
293.774	21.667	870.189	688.540
294.789	22.574	870.655	692.417
295.803	23.231	870.864	695.100
296.818	23.145	870.493	694.405
297.833	23.381	869.762	694.687
298.847	22.992	869.035	692.519
299.862	22.559	867.996	689.937
300.876	22.768	867.761	690.508
301.891	23.130	866.789	691.085
302.906	23.185	866.558	691.056
303.920	22.776	865.159	688.283
304.935	22.623	864.242	686.898
305.949	23.079	864.359	688.706
306.964	23.201	863.744	688.629
307.979	22.955	863.003	687.023
308.993	22.831	862.548	686.118
310.008	23.141	862.380	687.126
311.022	23.286	861.909	687.255
312.037	23.232	861.032	686.285
313.052	22.869	860.797	684.628
314.066	22.846	859.948	683.806
315.081	22.217	858.330	680.023
316.095	21.428	857.313	676.111
317.110	21.884	857.392	677.875
318.125	22.866	857.445	681.651
319.139	22.544	856.150	679.320
320.154	21.284	854.979	673.475
321.168	20.769	853.954	670.626
322.183	21.556	853.991	673.625
323.197	22.288	854.388	676.695
324.212	22.683	854.046	677.883
325.227	22.796	853.678	677.966
326.241	23.065	852.982	678.387
327.256	22.976	852.389	677.512
328.270	22.816	851.690	676.283
329.285	22.625	851.136	675.055
330.300	22.583	850.164	674.060
331.314	22.344	849.409	672.491
332.329	22.595	848.445	672.627
333.343	22.707	848.747	673.233
334.358	22.974	848.064	673.652
335.373	22.983	847.445	673.133
336.387	23.079	847.146	673.199
337.402	23.243	846.455	673.215
338.416	23.468	846.418	673.982
339.431	23.334	846.151	673.199
340.446	23.521	845.166	673.066
341.460	23.578	845.284	673.317
342.475	23.501	844.188	672.095
343.489	23.430	843.258	671.026
344.504	23.097	843.253	669.702
345.519	23.625	842.767	671.255
346.533	23.795	842.548	671.663
347.548	23.780	842.096	671.186
348.562	23.870	841.482	670.975
349.577	23.794	840.992	670.240
350.592	23.723	840.301	669.362
351.606	23.709	839.648	668.729
352.621	23.769	839.127	668.480
353.635	23.662	838.493	667.514
354.650	23.681	837.860	667.023
355.665	23.299	837.412	665.173
356.679	22.329	835.482	659.946
357.694	22.003	834.854	658.170
358.708	22.808	834.720	661.022
359.723	22.758	833.868	660.102
360.738	22.898	834.353	660.951
361.752	23.334	833.802	662.084
362.767	23.421	833.356	661.996
363.781	23.771	833.484	663.348
364.796	24.084	833.263	664.282
365.810	24.067	832.822	663.806
366.825	24.265	832.010	663.839
367.840	24.007	832.168	662.944
368.854	23.941	831.358	661.995
369.869	23.581	830.752	660.116
370.883	23.394	829.919	658.699
371.898	23.592	829.390	658.958
372.913	23.537	828.461	657.957
373.927	23.494	827.785	657.202
374.942	23.714	827.477	657.713
375.956	23.703	827.101	657.315
376.971	23.821	826.508	657.225
377.986	23.934	825.685	656.930
379.000	24.095	825.414	657.249
380.015	24.072	824.968	656.752
381.029	23.959	824.432	655.850
382.044	23.830	823.681	654.718
383.059	23.978	823.502	655.063
384.073	24.118	822.422	654.661
385.088	24.020	822.373	654.203
386.102	24.257	821.487	654.311
387.117	24.012	820.585	652.635
388.132	23.769	820.334	651.490
389.146	23.623	819.711	650.400
390.161	23.086	818.942	647.766
391.175	23.244	818.404	647.861
392.190	23.769	818.441	649.755
393.205	23.698	818.141	649.200
394.219	22.725	816.551	644.329
395.234	21.247	814.036	636.904
396.248	20.509	812.898	633.268
397.263	21.620	813.814	637.975
398.278	23.399	815.128	645.434
399.292	23.941	814.574	646.910
400.307	23.443	814.293	644.818
401.321	23.289	813.886	643.880
402.336	23.439	813.464	644.034
403.350	23.776	813.374	645.130
404.365	24.213	813.536	646.785
405.380	24.378	813.218	647.074
406.394	24.590	813.049	647.650
407.409	24.808	812.497	647.945
408.423	24.855	811.989	647.651
409.438	24.818	811.277	646.892
410.453	24.723	811.013	646.281
411.467	24.865	810.526	646.351
412.482	24.889	809.710	645.727
413.496	24.760	809.430	644.982
414.511	24.799	809.159	644.850
415.526	24.679	808.739	644.027
416.540	24.696	808.472	643.816
417.555	24.843	807.469	643.491
418.569	24.355	806.755	641.112
419.584	24.529	806.162	641.207
420.599	24.521	805.898	640.914
421.613	152.651	1364.673	1792.103
422.628	132.523	1446.096	1792.181
