DTS Sentinel unit serial number:	SN413079Multiplexer serial number:	ORYXHardware model number:	OX4-SRSoftware version number:	ORYX F/W v4.00 Oryx Data Collector v3.7.2.0data status	okinstallation	princeton_trtdifferential loss correction	single-endedforward channel	channel 3reverse channel	N/Adate	2019/09/18time	00:00:35forward acquisition time	60.00reverse acquisition time	0.00gamma	496.2192k internal	0.2344k external	0.2344temperature offset calibration	0.9949default loss term (dB/km)	0.3790temperature slope calibration	1.0000multiplexer offset coefficient	1.0000multiplexer slope coefficient	1.0000fibre end	0.00T internal ref (°C)	23.87T ext. ref 1 (°C)	0.17T ext. ref 2 (°C)	17.31length (m)	temperature (°C)	Stokes	anti-Stokes-747.200	146.670	-0.074	0.099
-746.185	-200.000	-0.108	0.581
-745.171	187.314	-0.193	0.288
-744.156	-49.596	-0.250	0.119
-743.142	-200.000	-0.091	0.427
-742.127	-109.915	-0.155	0.032
-741.112	-77.671	0.106	-0.037
-740.098	287.150	-0.079	0.143
-739.083	172.180	-0.156	0.225
-738.069	800.000	-0.066	0.226
-737.054	-107.746	0.090	-0.020
-736.039	71.016	-0.220	-0.228
-735.025	-57.991	-0.170	-0.074
-734.010	-200.000	0.050	0.273
-732.996	222.355	-0.085	-0.137
-731.981	-45.172	-0.346	0.172
-730.966	-21.088	-0.180	-0.110
-729.952	23.174	-0.137	0.113
-728.937	295.574	-0.130	-0.238
-727.923	-62.640	0.071	-0.029
-726.908	-40.440	-0.117	0.061
-725.894	35.080	-0.188	-0.164
-724.879	-112.873	0.144	0.029
-723.864	34.010	-0.284	0.248
-722.850	-117.636	-0.165	0.030
-721.835	335.663	-0.052	0.101
-720.821	-200.000	0.007	0.039
-719.806	14.812	0.142	0.111
-718.791	479.277	-0.066	-0.150
-717.777	-66.918	-0.251	-0.099
-716.762	7.696	0.174	-0.130
-715.748	-39.900	-0.139	-0.072
-714.733	161.401	-0.062	0.087
-713.718	-200.000	-0.016	-0.085
-712.704	-188.870	0.360	0.004
-711.689	475.211	-0.159	0.359
-710.675	-26.766	-0.198	-0.116
-709.660	-200.000	0.014	-0.196
-708.645	323.165	-0.049	-0.094
-707.631	-78.447	0.028	-0.010
-706.616	-117.110	0.255	-0.046
-705.602	12.962	0.097	-0.075
-704.587	800.000	-0.055	-0.229
-703.572	167.995	-0.023	0.033
-702.558	-96.410	-0.168	-0.044
-701.543	-200.000	-0.076	-0.362
-700.529	800.000	-0.022	0.093
-699.514	172.499	0.178	-0.256
-698.499	800.000	-0.084	-0.257
-697.485	-136.698	0.109	-0.013
-696.470	800.000	-0.147	-0.521
-695.456	800.000	-0.032	-0.136
-694.441	-85.553	-0.173	-0.054
-693.426	132.643	-0.189	0.244
-692.412	78.618	0.116	-0.123
-691.397	-67.262	-0.336	-0.132
-690.383	358.290	0.112	0.224
-689.368	475.142	-0.104	-0.236
-688.354	3.391	-0.439	-0.319
-687.339	-90.233	0.176	-0.051
-686.324	626.805	-0.029	-0.073
-685.310	274.983	-0.220	-0.390
-684.295	-116.499	0.244	-0.045
-683.281	627.047	0.072	-0.181
-682.266	-173.773	0.218	-0.006
-681.251	-200.000	0.015	-0.075
-680.237	-200.000	0.074	0.350
-679.222	-110.437	-0.271	0.056
-678.208	39.845	-0.182	-0.163
-677.193	800.000	-0.084	-0.297
-676.178	428.737	0.163	-0.351
-675.164	-135.670	0.205	0.024
-674.149	-200.000	0.004	0.128
-673.135	-178.308	-0.252	-0.006
-672.120	46.610	-0.174	-0.161
-671.105	41.398	-0.264	0.238
-670.091	173.540	-0.225	0.324
-669.076	800.000	-0.037	-0.118
-668.062	432.731	-0.088	0.190
-667.047	-3.624	-0.115	0.080
-666.032	694.300	-0.085	0.223
-665.018	-85.227	-0.343	-0.107
-664.003	-12.918	-0.439	0.285
-662.989	532.043	-0.115	0.270
-661.974	-6.008	-0.277	0.189
-660.959	141.164	-0.219	-0.289
-659.945	-176.226	0.180	-0.005
-658.930	-200.000	0.000	-0.030
-657.916	-144.302	0.073	0.007
-656.901	13.700	-0.278	0.216
-655.886	-174.194	0.100	-0.003
-654.872	747.230	0.020	0.054
-653.857	-36.815	0.089	-0.048
-652.843	61.223	0.255	0.253
-651.828	94.263	-0.154	-0.174
-650.814	574.762	-0.158	-0.384
-649.799	800.000	0.081	-0.341
-648.784	198.361	0.202	0.308
-647.770	77.403	-0.122	-0.129
-646.755	-67.233	-0.389	0.153
-645.741	-138.457	0.400	-0.044
-644.726	-64.325	-0.094	-0.038
-643.711	111.008	0.199	0.239
-642.697	-54.680	-0.277	0.125
-641.682	50.321	0.210	-0.198
-640.668	-200.000	0.001	-0.126
-639.653	-200.000	0.001	-0.307
-638.638	-198.119	-0.141	-0.001
-637.624	-151.614	0.199	0.015
-636.609	-59.440	0.067	0.029
-635.595	174.041	0.104	0.150
-634.580	95.493	0.013	-0.015
-633.565	29.288	-0.031	-0.027
-632.551	800.000	0.099	-0.332
-631.536	430.280	0.059	0.126
-630.522	47.325	-0.165	0.153
-629.507	-108.039	0.169	0.037
-628.492	1.990	-0.168	-0.121
-627.478	-36.600	0.042	-0.023
-626.463	344.112	-0.058	0.114
-625.449	-200.000	-0.029	-0.193
-624.434	190.708	-0.089	0.134
-623.419	89.759	-0.063	-0.070
-622.405	478.647	0.066	-0.150
-621.390	26.509	-0.062	-0.051
-620.376	-18.589	0.116	-0.072
-619.361	70.842	-0.084	-0.086
-618.346	-118.619	-0.419	-0.074
-617.332	184.839	-0.256	-0.378
-616.317	166.959	0.068	-0.096
-615.303	-177.466	-0.234	0.006
-614.288	-94.066	0.051	-0.014
-613.273	-91.408	-0.132	0.038
-612.259	165.779	0.052	0.073
-611.244	672.482	0.026	-0.067
-610.230	-200.000	-0.013	-0.356
-609.215	-200.000	-0.029	-0.429
-608.201	148.414	-0.015	-0.020
-607.186	731.350	0.049	0.131
-606.171	-154.571	-0.062	-0.004
-605.157	-69.620	0.088	-0.034
-604.142	37.548	-0.208	-0.184
-603.128	-11.627	0.113	-0.074
-602.113	22.625	0.193	0.157
-601.098	-133.851	-0.155	0.019
-600.084	29.220	0.229	0.193
-599.069	-36.130	-0.118	-0.063
-598.055	158.309	-0.029	0.040
-597.040	181.262	0.083	-0.122
-596.025	60.265	-0.213	-0.210
-595.011	6.353	0.075	0.056
-593.996	-54.490	0.285	-0.128
-592.982	55.367	-0.294	-0.283
-591.967	-136.548	0.094	-0.011
-590.952	-44.181	0.166	0.083
-589.938	-26.265	-0.119	0.069
-588.923	-41.971	0.198	-0.101
-587.909	-37.827	-0.324	-0.171
-586.894	-145.733	0.180	0.016
-585.879	-184.336	-0.133	-0.002
-584.865	-16.581	-0.091	0.058
-583.850	-9.683	0.049	0.032
-582.836	43.696	-0.273	0.249
-581.821	-59.231	0.237	-0.101
-580.806	-200.000	0.047	0.338
-579.792	-117.542	-0.234	0.042
-578.777	-84.698	-0.093	-0.029
-577.763	-187.152	0.223	0.003
-576.748	-64.287	0.049	-0.020
-575.733	-107.907	-0.377	0.081
-574.719	-200.000	0.055	0.327
-573.704	165.567	0.078	-0.110
-572.690	92.771	0.097	0.108
-571.675	78.132	-0.202	-0.214
-570.661	37.527	0.116	-0.102
-569.646	-200.000	0.024	-0.151
-568.631	-51.330	-0.171	-0.080
-567.617	250.316	0.056	-0.094
-566.602	-200.000	-0.012	0.071
-565.588	72.711	-0.129	-0.134
-564.573	41.894	0.065	0.059
-563.558	-104.949	0.345	0.079
-562.544	-39.195	-0.107	0.056
-561.529	7.262	-0.058	-0.043
-560.515	800.000	-0.086	-0.314
-559.500	125.881	-0.245	-0.307
-558.485	108.809	-0.123	-0.146
-557.471	-54.538	0.185	-0.083
-556.456	-28.574	-0.324	-0.185
-555.442	378.571	-0.067	0.136
-554.427	-200.000	0.017	0.203
-553.412	-40.642	0.169	0.087
-552.398	-200.000	-0.011	-0.172
-551.383	-85.550	0.260	-0.080
-550.369	-200.000	0.025	0.307
-549.354	317.911	-0.055	0.103
-548.339	86.376	-0.084	-0.092
-547.325	-37.753	0.068	0.036
-546.310	-92.511	0.198	0.055
-545.296	-120.009	0.255	0.043
-544.281	66.275	-0.237	0.239
-543.266	800.000	0.021	-0.060
-542.252	-200.000	-0.015	0.397
-541.237	-71.404	0.434	-0.161
-540.223	573.262	-0.111	-0.268
-539.208	-86.090	0.112	-0.034
-538.193	-22.074	0.263	-0.159
-537.179	418.398	-0.124	-0.263
-536.164	-200.000	0.000	-0.038
-535.150	-200.000	0.021	0.214
-534.135	114.545	0.217	0.262
-533.121	-39.239	-0.244	-0.127
-532.106	107.117	-0.063	-0.075
-531.091	75.868	0.163	-0.171
-530.077	358.752	0.132	-0.261
-529.062	223.205	0.107	-0.171
-528.048	19.531	0.195	0.156
-527.033	-200.000	-0.016	-0.198
-526.018	-3.251	-0.129	-0.089
-525.004	103.899	0.251	-0.292
-523.989	-90.562	0.325	0.093
-522.975	800.000	-0.045	-0.138
-521.960	238.151	-0.060	0.099
-520.945	113.443	0.051	0.062
-519.931	-77.937	-0.218	-0.075
-518.916	173.063	-0.142	0.203
-517.902	-200.000	-0.037	0.223
-516.887	-200.000	-0.013	0.105
-515.872	164.329	-0.029	0.041
-514.858	-200.000	-0.038	0.318
-513.843	-82.758	-0.176	0.056
-512.829	-121.924	0.199	0.032
-511.814	26.291	0.166	-0.137
-510.799	800.000	0.100	0.311
-509.785	-133.814	-0.258	-0.032
-508.770	-0.748	0.136	-0.096
-507.756	800.000	0.123	-0.397
-506.741	-200.000	-0.049	0.267
-505.726	26.141	0.114	0.095
-504.712	-67.042	-0.413	-0.161
-503.697	23.585	-0.268	-0.219
-502.683	187.683	0.050	-0.075
-501.668	57.902	0.192	0.186
-500.653	282.691	-0.057	0.102
-499.639	55.980	-0.149	-0.143
-498.624	-95.184	0.389	0.104
-497.610	800.000	-0.102	-0.408
-496.595	22.663	-0.205	-0.167
-495.581	-200.000	0.028	0.165
-494.566	-200.000	0.005	-0.103
-493.551	-47.895	0.171	-0.082
-492.537	-200.000	0.029	-0.151
-491.522	-200.000	-0.009	0.154
-490.508	800.000	0.156	0.491
-489.493	96.126	-0.060	0.068
-488.478	192.700	-0.141	0.211
-487.464	264.059	0.086	-0.148
-486.449	800.000	-0.028	-0.077
-485.435	-200.000	0.014	-0.253
-484.420	-75.201	0.020	-0.007
-483.405	-41.851	-0.336	0.171
-482.391	800.000	0.068	-0.224
-481.376	157.154	0.079	0.109
-480.362	-41.082	-0.353	0.180
-479.347	54.222	0.191	-0.182
-478.332	-200.000	0.011	0.050
-477.318	195.223	0.178	0.268
-476.303	800.000	0.054	0.204
-475.289	-35.028	-0.235	-0.127
-474.274	800.000	-0.026	-0.104
-473.259	800.000	0.091	0.312
-472.245	119.717	-0.245	0.301
-471.230	3.056	-0.294	-0.211
-470.216	-1.360	0.333	0.232
-469.201	-50.955	-0.161	-0.075
-468.186	360.305	-0.035	0.069
-467.172	800.000	0.065	0.193
-466.157	179.802	0.109	-0.157
-465.143	-109.086	-0.270	0.057
-464.128	-200.000	-0.007	-0.070
-463.113	34.852	-0.087	-0.075
-462.099	-101.285	-0.094	-0.023
-461.084	-200.000	-0.013	-0.424
-460.070	-84.426	0.275	0.086
-459.055	54.496	-0.123	-0.117
-458.040	-200.000	0.028	-0.408
-457.026	56.444	0.276	0.266
-456.011	135.107	-0.172	0.221
-454.997	32.059	0.192	0.164
-453.982	60.204	0.050	0.049
-452.968	-11.009	-0.270	0.177
-451.953	217.587	0.111	-0.175
-450.938	75.675	-0.285	-0.298
-449.924	110.618	-0.183	-0.217
-448.909	-92.072	-0.072	0.020
-447.895	265.407	0.220	-0.380
-446.880	379.092	0.126	0.256
-445.865	800.000	-0.030	0.094
-444.851	64.154	-0.171	-0.170
-443.836	-108.378	0.050	-0.011
-442.822	45.357	0.286	0.261
-441.807	-194.149	-0.267	-0.002
-440.792	800.000	0.011	0.043
-439.778	-200.000	-0.023	-0.147
-438.763	-79.997	-0.271	0.090
-437.749	-10.965	0.054	0.035
-436.734	13.634	0.113	-0.087
-435.719	-115.463	-0.042	-0.008
-434.705	-121.763	-0.438	-0.072
-433.690	-21.487	-0.018	-0.011
-432.676	-146.652	0.251	-0.021
-431.661	-113.895	0.320	0.061
-430.646	-45.727	0.248	-0.121
-429.632	-11.526	-0.037	0.024
-428.617	394.321	-0.041	0.084
-427.603	-129.328	0.198	-0.027
-426.588	-44.967	0.219	0.108
-425.573	800.000	-0.023	0.077
-424.559	-24.608	-0.175	-0.103
-423.544	-200.000	0.013	-0.408
-422.530	-200.000	0.017	0.231
-421.515	800.000	0.045	0.135
-420.500	191.861	-0.120	0.179
-419.486	100.590	0.200	-0.230
-418.471	-200.000	0.022	0.139
-417.457	368.201	0.188	0.375
-416.442	220.562	0.018	0.029
-415.428	461.566	-0.047	-0.105
-414.413	-78.379	0.062	-0.021
-413.398	-52.168	-0.415	-0.190
-412.384	-200.000	-0.075	0.383
-411.369	689.292	-0.032	0.082
-410.355	-177.826	-0.179	-0.004
-409.340	-57.141	-0.205	-0.089
-408.325	624.154	-0.044	0.108
-407.311	485.182	0.050	0.111
-406.296	-68.110	0.284	-0.109
-405.282	198.131	-0.151	0.227
-404.267	140.924	-0.215	0.281
-403.252	369.286	-0.014	-0.027
-402.238	253.462	0.093	0.156
-401.223	-200.000	-0.005	-0.135
-400.209	254.269	-0.125	0.211
-399.194	537.178	0.100	-0.234
-398.179	600.593	0.088	-0.216
-397.165	75.483	-0.107	-0.111
-396.150	-200.000	-0.006	0.286
-395.136	800.000	-0.112	0.375
-394.121	369.976	0.126	0.251
-393.106	509.118	-0.163	-0.375
-392.092	-44.856	0.045	-0.022
-391.077	-70.057	-0.342	-0.128
-390.063	12.991	0.128	-0.098
-389.048	-200.000	-0.029	-0.156
-388.033	-178.933	-0.462	0.010
-387.019	143.434	0.061	-0.080
-386.004	164.957	-0.094	0.131
-384.990	492.925	0.026	-0.059
-383.975	-10.114	0.056	0.037
-382.960	50.131	-0.004	0.004
-381.946	224.023	-0.024	-0.038
-380.931	-200.000	-0.052	0.475
-379.917	-107.584	-0.111	-0.024
-378.902	-77.512	0.237	-0.081
-377.888	23.268	0.213	0.172
-376.873	372.222	0.181	0.362
-375.858	800.000	0.113	-0.311
-374.844	411.234	-0.092	0.193
-373.829	56.709	0.147	-0.141
-372.815	-200.000	-0.029	-0.300
-371.800	173.302	0.171	0.242
-370.785	31.440	0.147	0.125
-369.771	-200.000	-0.031	0.141
-368.756	-114.548	-0.223	-0.042
-367.742	-85.248	0.109	0.034
-366.727	-160.528	-0.224	0.012
-365.712	249.638	0.220	0.367
-364.698	-71.911	0.282	0.104
-363.683	-132.177	-0.125	0.016
-362.669	687.644	-0.031	0.079
-361.654	43.939	-0.205	-0.185
-360.639	-161.930	0.216	-0.011
-359.625	-200.000	-0.022	0.317
-358.610	-97.593	-0.245	-0.063
-357.596	-200.000	-0.002	0.084
-356.581	-200.000	0.050	-0.281
-355.566	-200.000	-0.006	-0.044
-354.552	175.526	-0.095	-0.136
-353.537	800.000	0.055	-0.235
-352.523	-200.000	0.030	0.148
-351.508	39.665	-0.139	-0.122
-350.493	678.519	-0.082	0.211
-349.479	-51.614	-0.132	-0.061
-348.464	71.667	0.193	-0.197
-347.450	-15.906	-0.223	0.140
-346.435	800.000	-0.015	-0.060
-345.420	20.866	0.160	-0.128
-344.406	-6.598	0.193	-0.130
-343.391	51.991	-0.151	0.141
-342.377	74.288	-0.137	0.142
-341.362	800.000	0.061	-0.211
-340.348	-200.000	0.009	-0.048
-339.333	168.890	0.284	0.399
-338.318	66.352	-0.254	0.254
-337.304	102.647	0.198	0.229
-336.289	-200.000	-0.058	0.319
-335.275	-99.756	0.130	-0.032
-334.260	800.000	0.058	-0.230
-333.245	-175.451	0.235	0.006
-332.231	-200.000	0.006	-0.045
-331.216	-79.125	0.184	-0.061
-330.202	-200.000	-0.064	0.365
-329.187	-105.925	-0.093	-0.021
-328.172	466.357	-0.063	0.140
-327.158	800.000	0.103	0.284
-326.143	-53.093	0.123	0.056
-325.129	-200.000	0.019	-0.111
-324.114	558.133	0.116	0.274
-323.099	80.186	0.150	0.159
-322.085	-162.390	0.178	-0.009
-321.070	47.535	0.264	-0.243
-320.056	-139.009	-0.208	0.022
-319.041	-200.000	-0.021	0.303
-318.026	-200.000	-0.013	0.154
-317.012	110.390	0.079	-0.094
-315.997	-95.418	-0.068	0.018
-314.983	54.114	-0.154	-0.146
-313.968	-119.342	0.497	-0.085
-312.953	800.000	-0.018	-0.073
-311.939	800.000	-0.080	0.239
-310.924	-165.094	-0.250	-0.011
-309.910	60.399	-0.118	-0.115
-308.895	-10.990	-0.141	-0.092
-307.880	415.067	0.223	-0.468
-306.866	-61.937	-0.220	0.091
-305.851	154.203	-0.158	0.213
-304.837	-67.015	-0.020	0.008
-303.822	-30.731	-0.129	-0.072
-302.807	-200.000	-0.005	0.048
-301.793	-104.120	0.102	0.023
-300.778	-55.516	0.016	-0.007
-299.764	281.738	0.084	0.148
-298.749	-64.429	0.141	0.056
-297.735	-200.000	0.024	0.254
-296.720	-2.846	-0.304	-0.209
-295.705	-200.000	0.046	0.250
-294.691	-85.965	0.106	0.032
-293.676	-28.355	-0.210	-0.119
-292.662	131.004	0.160	-0.202
-291.647	-79.331	-0.200	-0.066
-290.632	27.635	-0.298	-0.247
-289.618	-3.919	0.074	0.051
-288.603	53.159	0.021	-0.020
-287.589	105.481	0.195	-0.226
-286.574	467.665	-0.046	-0.102
-285.559	436.379	0.055	-0.119
-284.545	-97.157	-0.074	0.019
-283.530	292.985	-0.083	0.149
-282.516	-78.288	-0.367	0.124
-281.501	-5.157	-0.266	-0.180
-280.486	800.000	0.056	0.174
-279.472	-61.389	0.174	-0.072
-278.457	371.109	-0.096	-0.191
-277.443	113.557	0.082	0.098
-276.428	376.792	-0.082	-0.165
-275.413	618.484	0.115	0.285
-274.399	36.743	-0.316	-0.274
-273.384	-134.791	-0.424	0.051
-272.370	-73.008	0.274	0.099
-271.355	150.799	-0.097	0.130
-270.340	-200.000	0.024	0.298
-269.326	-45.199	-0.103	0.050
-268.311	210.502	0.121	-0.186
-267.297	-94.198	0.353	-0.095
-266.282	91.155	0.305	-0.336
-265.267	-190.431	0.145	0.002
-264.253	139.829	-0.190	0.246
-263.238	-27.824	0.409	0.233
-262.224	6.777	-0.137	0.100
-261.209	75.780	0.188	-0.196
-260.195	-6.902	0.277	0.185
-259.180	435.826	0.060	0.128
-258.165	-200.000	0.023	-0.176
-257.151	386.855	-0.035	0.071
-256.136	59.485	0.260	-0.251
-255.122	15.484	-0.193	0.149
-254.107	51.200	0.229	0.213
-253.092	-200.000	-0.043	-0.221
-252.078	-19.036	0.394	-0.241
-251.063	-200.000	0.007	0.126
-250.049	-115.147	-0.049	-0.009
-249.034	-200.000	-0.013	-0.219
-248.019	-4.096	0.240	-0.163
-247.005	147.092	-0.187	0.247
-245.990	76.040	0.088	-0.091
-244.976	-59.590	-0.265	-0.112
-243.961	800.000	-0.036	0.120
-242.946	-200.000	-0.041	-0.198
-241.932	114.302	0.102	-0.122
-240.917	-48.998	0.118	0.055
-239.903	-58.904	0.143	0.061
-238.888	-200.000	-0.016	0.150
-237.873	41.258	-0.149	0.132
-236.859	-200.000	-0.041	-0.369
-235.844	-102.444	0.104	0.024
-234.830	443.985	0.173	-0.372
-233.815	-200.000	-0.004	-0.364
-232.800	-154.888	0.192	-0.012
-231.786	-200.000	-0.033	0.335
-230.771	-145.124	-0.141	0.013
-229.757	-65.831	-0.152	0.060
-228.742	-11.538	0.061	0.039
-227.727	800.000	0.054	-0.156
-226.713	105.606	-0.060	0.069
-225.698	-18.267	0.007	0.004
-224.684	-116.072	-0.126	0.023
-223.669	148.403	0.162	0.214
-222.655	-28.400	0.105	0.060
-221.640	29.849	0.100	-0.083
-220.625	800.000	0.057	-0.174
-219.611	800.000	0.039	0.142
-218.596	-155.178	-0.395	0.025
-217.582	-7.438	0.257	0.171
-216.567	13.778	0.174	0.133
-215.552	7.650	0.019	0.014
-214.538	800.000	0.019	0.055
-213.523	-200.000	0.017	0.290
-212.509	-23.793	0.297	0.174
-211.494	379.651	-0.177	-0.356
-210.479	-93.590	0.096	-0.026
-209.465	436.217	0.034	-0.073
-208.450	150.623	0.195	-0.259
-207.436	-109.749	-0.054	0.011
-206.421	132.278	0.093	0.118
-205.406	800.000	0.074	-0.215
-204.392	-44.048	0.159	0.078
-203.377	800.000	0.061	0.258
-202.363	-8.520	0.126	-0.083
-201.348	483.409	-0.080	-0.178
-200.333	302.269	-0.017	0.031
-199.319	-71.470	0.087	0.032
-198.304	786.573	0.022	0.059
-197.290	102.746	-0.124	0.142
-196.275	475.125	-0.010	-0.023
-195.260	-105.298	-0.213	0.047
-194.246	198.436	-0.130	-0.195
-193.231	456.724	0.101	0.220
-192.217	17.164	-0.146	0.113
-191.202	43.029	-0.073	-0.065
-190.187	50.737	-0.073	0.068
-189.173	85.524	-0.176	-0.189
-188.158	-74.251	-0.272	-0.096
-187.144	-83.567	0.274	0.086
-186.129	-131.647	-0.204	-0.026
-185.114	270.619	-0.041	-0.071
-184.100	-200.000	-0.046	0.318
-183.085	-94.437	-0.278	-0.074
-182.071	658.734	0.032	-0.081
-181.056	-92.185	0.172	-0.048
-180.042	-162.479	-0.231	0.011
-179.027	-13.061	0.362	-0.230
-178.012	-35.005	0.152	0.081
-176.998	-32.652	-0.507	0.276
-175.983	85.766	0.128	0.138
-174.969	87.973	-0.091	0.099
-173.954	674.845	0.036	0.092
-172.939	-79.016	-0.157	0.052
-171.925	-95.013	0.260	-0.069
-170.910	-71.694	-0.148	0.054
-169.896	800.000	0.012	-0.046
-168.881	80.328	-0.038	-0.040
-167.866	151.881	-0.174	0.231
-166.852	-105.728	-0.014	-0.003
-165.837	217.438	-0.170	0.265
-164.823	800.000	-0.032	-0.131
-163.808	-26.990	0.156	-0.089
-162.793	-157.475	-0.259	-0.015
-161.779	258.338	-0.128	-0.215
-160.764	20.283	0.162	-0.128
-159.750	800.000	0.121	-0.346
-158.735	-3.343	-0.211	-0.144
-157.720	-200.000	-0.016	0.343
-156.706	-115.086	-0.056	0.010
-155.691	800.000	-0.037	-0.149
-154.677	-64.373	0.257	0.102
-153.662	-200.000	-0.026	0.471
-152.647	-200.000	0.003	-0.242
-151.633	196.449	0.101	-0.151
-150.618	-200.000	-0.006	0.104
-149.604	-163.538	0.130	0.006
-148.589	146.655	0.076	-0.099
-147.574	-133.327	0.095	0.012
-146.560	61.548	0.154	0.150
-145.545	43.189	-0.151	-0.135
-144.531	-161.636	0.090	0.005
-143.516	-45.872	-0.209	-0.101
-142.502	800.000	0.075	0.223
-141.487	240.562	0.049	0.079
-140.472	-50.436	-0.514	0.237
-139.458	-99.888	-0.160	0.039
-138.443	-163.290	-0.128	0.006
-137.429	208.183	-0.092	0.141
-136.414	-124.841	0.351	-0.053
-135.399	800.000	0.029	0.084
-134.385	-92.729	-0.193	0.053
-133.370	613.478	0.082	0.200
-132.356	800.000	0.088	-0.345
-131.341	-70.883	0.148	-0.054
-130.326	-200.000	0.049	0.216
-129.312	-84.522	-0.238	0.073
-128.297	392.329	0.047	-0.095
-127.283	136.023	-0.081	0.103
-126.268	6.332	-0.249	0.180
-125.253	-200.000	-0.021	-0.200
-124.239	213.043	0.146	-0.226
-123.224	99.344	-0.236	-0.266
-122.210	-200.000	-0.004	0.425
-121.195	-200.000	-0.046	0.275
-120.180	15.531	0.261	0.200
-119.166	40.416	-0.176	0.154
-118.151	84.657	0.115	0.123
-117.137	-151.570	0.178	-0.013
-116.122	473.740	0.064	-0.141
-115.107	115.903	-0.071	-0.085
-114.093	-129.181	-0.058	0.008
-113.078	-32.084	-0.188	0.103
-112.064	-200.000	0.001	-0.137
-111.049	56.779	0.055	0.052
-110.034	60.222	-0.367	-0.354
-109.020	387.084	0.140	0.282
-108.005	-200.000	0.013	-0.243
-106.991	-16.362	-0.305	0.189
-105.976	-79.739	0.110	-0.036
-104.962	-200.000	-0.004	0.277
-103.947	384.259	-0.020	0.039
-102.932	-200.000	-0.003	0.054
-101.918	-86.992	-0.140	-0.042
-100.903	67.483	-0.076	0.075
-99.889	-98.276	0.220	-0.055
-98.874	66.886	-0.137	0.136
-97.859	219.865	-0.164	0.256
-96.845	-29.996	0.290	-0.161
-95.830	-5.089	-0.233	0.156
-94.816	800.000	-0.078	0.238
-93.801	-200.000	0.028	-0.123
-92.786	-89.210	0.317	-0.091
-91.772	-2.337	0.161	0.110
-90.757	-126.531	0.276	0.040
-89.743	-100.811	-0.373	-0.090
-88.728	-200.000	0.012	0.327
-87.713	-200.000	-0.037	0.389
-86.699	-143.863	0.291	0.027
-85.684	-93.608	0.206	0.055
-84.670	121.576	0.293	-0.356
-83.655	188.262	0.161	-0.234
-82.640	-200.000	-0.017	0.074
-81.626	-24.887	0.280	0.162
-80.611	39.819	-0.301	-0.263
-79.597	-138.803	0.375	0.040
-78.582	-200.000	0.092	0.412
-77.567	-175.530	-0.166	-0.004
-76.553	147.469	0.133	-0.174
-75.538	-132.550	-0.329	-0.041
-74.524	-200.000	-0.047	-0.330
-73.509	-55.489	0.450	0.197
-72.494	-197.339	0.256	-0.002
-71.480	-84.379	-0.175	0.054
-70.465	139.480	0.191	0.245
-69.451	21.945	-0.206	0.164
-68.436	-200.000	-0.001	-0.159
-67.422	800.000	0.056	-0.219
-66.407	-61.294	-0.136	0.056
-65.392	-19.798	-0.327	-0.197
-64.378	-200.000	-0.003	0.144
-63.363	418.156	-0.055	-0.114
-62.349	13.542	-0.367	0.278
-61.334	87.670	-1.257	-1.357
-60.319	-115.160	0.745	0.137
-59.305	545.088	-0.623	-1.449
-58.290	166.229	0.975	1.345
-57.276	573.608	0.597	1.418
-56.261	-200.000	122.949	655.621
-55.246	442.280	1535.915	3276.183
-54.232	149.200	2681.418	3534.434
-53.217	97.788	2156.343	2415.106
-52.203	34.322	1683.235	1430.293
-51.188	26.940	1502.733	1227.169
-50.173	25.069	1478.770	1195.088
-49.159	48.929	1549.537	1416.501
-48.144	46.451	1562.082	1410.958
-47.130	26.999	1511.725	1234.715
-46.115	24.179	1495.886	1202.723
-45.100	24.012	1492.624	1198.927
-44.086	23.996	1490.773	1197.284
-43.071	23.929	1489.049	1195.403
-42.057	23.897	1486.969	1193.468
-41.042	23.974	1485.549	1192.797
-40.027	23.851	1484.411	1191.014
-39.013	23.897	1482.683	1189.888
-37.998	23.788	1481.601	1188.246
-36.984	23.790	1480.615	1187.419
-35.969	23.836	1479.097	1186.462
-34.954	23.850	1477.512	1185.239
-33.940	23.848	1475.902	1183.886
-32.925	23.823	1474.961	1182.917
-31.911	23.923	1472.992	1181.954
-30.896	23.950	1472.025	1181.314
-29.881	23.935	1471.258	1180.549
-28.867	23.923	1469.781	1179.239
-27.852	23.977	1468.470	1178.500
-26.838	23.980	1466.654	1177.015
-25.823	23.921	1465.670	1175.784
-24.809	23.902	1463.799	1174.114
-23.794	23.928	1462.399	1173.118
-22.779	23.891	1461.305	1171.950
-21.765	23.872	1460.520	1171.144
-20.750	23.909	1459.569	1170.583
-19.736	23.913	1458.667	1169.836
-18.721	23.956	1457.252	1168.936
-17.706	23.921	1456.418	1167.991
-16.692	23.910	1454.974	1166.716
-15.677	23.895	1453.759	1165.600
-14.663	23.924	1453.235	1165.322
-13.648	23.909	1452.355	1164.469
-12.633	23.801	1451.442	1162.988
-11.619	23.860	1450.371	1162.471
-10.604	23.816	1449.955	1161.802
-9.590	23.762	1448.928	1160.576
-8.575	23.883	1448.060	1160.629
-7.560	23.811	1446.629	1158.963
-6.546	23.877	1445.892	1158.761
-5.531	23.799	1445.174	1157.628
-4.517	23.822	1444.122	1156.891
-3.502	23.786	1443.394	1156.025
-2.487	23.758	1442.996	1155.479
-1.473	23.878	1441.866	1155.307
-0.458	23.855	1439.859	1153.507
0.556	22.063	1430.385	1141.875
1.571	18.902	1406.025	1102.099
2.586	15.414	1345.358	1033.019
3.600	13.767	1263.545	960.580
4.615	12.763	1220.710	922.316
5.629	11.051	1165.059	871.037
6.644	5.439	1084.651	782.825
7.659	0.928	1048.929	735.110
8.673	0.391	1043.627	728.734
9.688	0.175	1040.763	725.628
10.702	0.080	1039.189	724.010
11.717	0.044	1036.990	722.240
12.731	1.952	1038.206	732.190
13.746	8.259	1046.327	768.291
14.761	14.515	1054.507	804.497
15.775	16.722	1056.502	816.600
16.790	16.418	1055.327	814.157
17.804	15.402	1053.200	807.554
18.819	14.576	1051.451	802.171
19.834	14.213	1049.537	798.900
20.848	13.967	1049.405	797.548
21.863	13.664	1048.721	795.503
22.877	13.437	1047.520	793.432
23.892	13.285	1046.428	791.810
24.907	13.265	1045.495	790.936
25.921	13.278	1044.622	790.268
26.936	13.254	1044.514	790.004
27.950	13.213	1043.776	789.180
28.965	13.325	1043.101	789.134
29.980	13.364	1041.929	788.362
30.994	13.364	1040.929	787.535
32.009	13.306	1040.541	786.895
33.023	13.437	1039.372	786.565
34.038	13.447	1038.668	786.012
35.053	13.366	1038.142	785.159
36.067	13.394	1037.057	784.400
37.082	13.399	1036.453	783.898
38.096	13.294	1035.815	782.850
39.111	13.470	1034.799	782.845
40.126	13.496	1034.135	782.398
41.140	13.310	1033.408	780.898
42.155	13.382	1031.850	779.994
43.169	13.139	1031.453	778.476
44.184	13.342	1029.781	778.104
45.199	13.254	1029.006	777.033
46.213	13.208	1028.299	776.214
47.228	13.260	1027.094	775.481
48.242	13.353	1025.961	774.990
49.257	13.293	1025.471	774.273
50.271	13.208	1024.342	772.955
51.286	13.412	1023.272	773.034
52.301	13.356	1022.959	772.464
53.315	13.333	1022.113	771.650
54.330	13.349	1020.965	770.790
55.344	13.295	1020.105	769.819
56.359	13.369	1019.072	769.320
57.374	13.203	1018.513	768.056
58.388	13.304	1017.527	767.715
59.403	13.205	1017.089	766.856
60.417	13.138	1016.162	765.780
61.432	13.163	1015.544	765.363
62.447	13.115	1014.531	764.306
63.461	13.249	1013.453	764.047
64.476	13.269	1012.263	763.175
65.490	13.090	1012.076	762.140
66.505	13.156	1010.927	761.513
67.520	13.248	1010.197	761.320
68.534	13.231	1009.885	760.936
69.549	13.063	1009.194	759.575
70.563	13.224	1008.015	759.362
71.578	13.161	1007.595	758.689
72.593	13.144	1006.322	757.585
73.607	13.199	1005.391	757.068
74.622	13.044	1004.890	755.916
75.636	13.117	1003.779	755.348
76.651	13.124	1002.796	754.571
77.666	13.062	1002.615	754.086
78.680	13.148	1001.979	753.934
79.695	13.161	1001.562	753.614
80.709	13.185	1000.622	752.949
81.724	13.295	999.398	752.459
82.739	13.213	998.976	751.704
83.753	13.228	998.000	750.973
84.768	13.371	997.376	751.084
85.782	13.249	997.333	750.430
86.797	13.558	995.338	750.263
87.812	13.513	994.972	749.717
88.826	13.283	994.344	748.136
89.841	13.293	993.651	747.593
90.855	13.500	992.564	747.643
91.870	13.472	992.100	747.104
92.884	13.313	991.520	745.882
93.899	13.405	990.647	745.575
94.914	13.414	989.874	744.968
95.928	13.634	988.688	745.001
96.943	13.468	988.173	743.800
97.957	13.566	986.971	743.270
98.972	13.474	986.821	742.679
99.987	13.469	986.273	742.175
101.001	13.528	985.288	741.635
102.016	13.335	985.051	740.525
103.030	13.377	983.708	739.638
104.045	13.451	982.763	739.192
105.060	13.466	981.564	738.293
106.074	13.465	980.507	737.429
107.089	13.332	979.747	736.200
108.103	13.345	979.222	735.795
109.118	13.330	978.208	734.903
110.133	13.341	977.241	734.161
111.147	13.398	976.567	733.844
112.162	13.233	975.952	732.583
113.176	13.364	974.900	732.311
114.191	13.240	974.197	731.166
115.206	13.380	973.061	730.871
116.220	13.464	972.133	730.479
117.235	13.379	971.036	729.213
118.249	13.243	970.992	728.516
119.264	13.339	969.720	727.920
120.279	13.337	969.145	727.417
121.293	13.352	967.960	726.529
122.308	13.288	967.757	726.030
123.322	13.150	966.895	724.716
124.337	13.293	965.636	724.335
125.352	13.223	964.755	723.302
126.366	13.174	963.533	722.109
127.381	13.357	961.798	721.542
128.395	13.316	960.822	720.569
129.410	13.295	960.310	720.029
130.424	13.297	959.367	719.267
131.439	13.391	958.215	718.748
132.454	13.310	957.644	717.906
133.468	13.267	956.895	717.090
134.483	13.463	956.341	717.464
135.497	13.376	955.556	716.432
136.512	13.256	955.245	715.619
137.527	13.391	954.041	715.238
138.541	13.321	953.715	714.628
139.556	13.444	952.575	714.241
140.570	13.307	951.941	713.112
141.585	13.362	951.336	712.830
142.600	13.445	950.670	712.627
143.614	13.473	949.669	711.932
144.629	13.597	948.918	711.840
145.643	13.584	948.333	711.281
146.658	13.496	947.618	710.303
147.673	13.477	946.777	709.531
148.687	13.474	945.934	708.825
149.702	13.447	945.176	708.078
150.716	13.383	944.163	706.984
151.731	13.498	943.358	706.809
152.746	13.492	942.749	706.264
153.760	13.444	941.735	705.235
154.775	13.471	941.128	704.833
155.789	13.633	939.893	704.535
156.804	13.482	939.471	703.516
157.819	13.516	938.818	703.108
158.833	13.590	938.400	703.047
159.848	13.597	937.393	702.259
160.862	13.614	936.539	701.632
161.877	13.671	935.774	701.237
162.892	13.639	935.144	700.567
163.906	13.571	933.862	699.258
164.921	13.499	933.549	698.660
165.935	13.668	932.111	698.232
166.950	13.744	931.041	697.687
167.964	13.702	930.374	696.949
168.979	13.650	929.330	695.888
169.994	13.534	928.534	694.744
171.008	13.857	927.308	695.119
172.023	13.712	926.855	694.111
173.037	13.758	926.357	693.870
174.052	13.902	925.183	693.528
175.067	13.815	924.664	692.716
176.081	13.687	923.828	691.496
177.096	13.731	923.350	691.258
178.110	13.649	922.580	690.281
179.125	13.627	922.173	689.823
180.140	13.764	920.689	689.221
181.154	13.724	920.330	688.727
182.169	13.824	919.627	688.554
183.183	13.831	919.114	688.138
184.198	13.843	918.097	687.363
185.213	13.889	917.321	686.912
186.227	13.867	917.068	686.570
187.242	13.746	916.945	685.919
188.256	14.004	915.765	686.040
189.271	13.929	915.250	685.285
190.286	13.868	914.589	684.478
191.300	13.982	913.420	684.011
192.315	13.873	912.926	683.130
193.329	13.805	912.020	682.115
194.344	13.693	911.437	681.158
195.359	13.841	911.131	681.478
196.373	13.821	910.381	680.775
197.388	13.830	909.731	680.262
198.402	13.933	909.636	680.553
199.417	14.082	908.786	680.468
200.432	14.079	908.198	679.954
201.446	14.091	907.816	679.660
202.461	14.212	907.524	679.875
203.475	14.222	906.844	679.345
204.490	14.240	906.100	678.802
205.504	14.196	905.389	678.029
206.519	14.033	904.715	676.801
207.534	14.182	903.775	676.644
208.548	14.179	903.306	676.221
209.563	14.152	902.539	675.477
210.577	14.087	901.911	674.685
211.592	14.241	900.851	674.456
212.607	14.198	900.499	673.956
213.621	14.262	899.965	673.758
214.636	14.296	899.173	673.243
215.650	14.165	898.992	672.516
216.665	14.120	898.259	671.729
217.680	14.393	897.397	672.123
218.694	14.515	897.112	672.346
219.709	14.480	895.664	671.058
220.723	14.443	895.905	671.030
221.738	14.328	894.790	669.674
222.753	14.381	894.193	669.379
223.767	14.367	893.874	669.025
224.782	14.443	892.718	668.408
225.796	14.547	892.095	668.296
226.811	14.562	891.421	667.794
227.826	14.506	890.710	666.978
228.840	14.546	890.184	666.687
229.855	14.503	889.460	665.913
230.869	14.571	888.563	665.452
231.884	14.401	888.324	664.539
232.899	14.383	887.629	663.888
233.913	14.487	886.906	663.700
234.928	14.453	886.114	662.914
235.942	14.409	885.505	662.225
236.957	14.406	884.819	661.643
237.972	14.515	883.969	661.382
238.986	14.500	883.561	660.958
240.001	14.509	883.223	660.682
241.015	14.454	882.638	659.968
242.030	14.470	881.500	659.121
243.045	14.508	880.749	658.651
244.059	14.702	880.144	658.906
245.074	14.687	879.694	658.451
246.088	14.595	879.277	657.718
247.103	14.679	878.514	657.421
248.117	14.659	877.810	656.759
249.132	14.679	877.720	656.712
250.147	14.855	876.611	656.514
251.161	14.778	876.251	655.885
252.176	14.924	875.081	655.522
253.190	14.955	874.631	655.248
254.205	14.901	873.973	654.486
255.220	15.036	873.609	654.684
256.234	15.075	872.542	653.980
257.249	15.019	872.256	653.487
258.263	14.967	871.895	652.958
259.278	14.873	871.449	652.198
260.293	14.968	870.628	651.895
261.307	15.050	870.053	651.729
262.322	15.032	869.732	651.361
263.336	15.203	868.540	651.072
264.351	15.163	868.276	650.662
265.366	15.234	867.653	650.416
266.380	15.194	866.749	649.526
267.395	15.207	866.203	649.107
268.409	15.217	865.156	648.303
269.424	15.376	864.797	648.595
270.439	15.205	864.006	647.282
271.453	15.218	863.470	646.874
272.468	15.339	862.667	646.682
273.482	15.104	862.034	645.241
274.497	15.298	861.332	645.409
275.512	15.181	860.725	644.447
276.526	15.128	860.206	643.796
277.541	15.248	859.294	643.517
278.555	15.341	858.970	643.576
279.570	15.281	858.350	642.825
280.585	15.262	857.948	642.393
281.599	15.376	856.930	642.010
282.614	15.372	856.464	641.589
283.628	15.537	855.737	641.617
284.643	15.233	855.726	640.391
285.657	15.374	854.699	640.103
286.672	15.424	854.507	640.094
287.687	15.413	853.971	639.594
288.701	15.502	853.248	639.333
289.716	15.476	852.897	638.918
290.730	15.488	852.318	638.473
291.745	15.692	851.490	638.570
292.760	15.422	851.109	637.204
293.774	15.499	850.083	636.672
294.789	15.447	849.914	636.288
295.803	15.432	849.613	635.951
296.818	15.593	848.548	635.706
297.833	15.444	848.056	634.721
298.847	15.572	847.434	634.683
299.862	15.639	846.347	634.064
300.876	15.695	845.552	633.623
301.891	15.572	845.375	632.972
302.906	15.690	844.506	632.708
303.920	15.778	844.123	632.697
304.935	15.844	843.372	632.328
305.949	15.819	842.753	631.712
306.964	15.788	842.481	631.335
307.979	15.847	841.719	630.931
308.993	15.669	841.310	629.903
310.008	15.702	840.661	629.483
311.022	15.744	840.414	629.399
312.037	15.916	839.718	629.464
313.052	15.830	839.606	629.005
314.066	15.771	838.857	628.167
315.081	15.850	837.805	627.618
316.095	15.873	836.927	626.990
317.110	16.001	836.305	626.947
318.125	15.779	836.267	626.036
319.139	15.961	835.810	626.315
320.154	15.831	835.401	625.470
321.168	15.843	835.060	625.204
322.183	15.827	834.180	624.432
323.197	15.822	833.945	624.182
324.212	15.907	833.347	623.994
325.227	15.942	832.835	623.683
326.241	15.916	832.559	623.327
327.256	15.862	832.038	622.679
328.270	16.103	830.858	622.631
329.285	15.932	830.659	621.798
330.300	15.956	829.917	621.276
331.314	15.988	829.541	621.057
332.329	16.162	828.452	620.828
333.343	15.966	828.236	619.889
334.358	16.164	827.386	619.925
335.373	16.205	826.838	619.609
336.387	16.018	826.663	618.738
337.402	16.138	826.101	618.704
338.416	16.285	825.335	618.615
339.431	16.056	825.167	617.593
340.446	16.200	824.282	617.404
341.460	16.348	823.545	617.336
342.475	16.384	822.943	616.965
343.489	16.330	822.709	616.535
344.504	16.371	822.279	616.311
345.519	16.454	821.553	616.011
346.533	16.333	821.310	615.334
347.548	16.432	820.692	615.178
348.562	16.514	819.835	614.780
349.577	16.540	819.512	614.578
350.592	16.493	818.784	613.806
351.606	16.365	818.675	613.206
352.621	16.279	818.173	612.462
353.635	16.375	817.644	612.362
354.650	16.268	817.932	612.136
355.665	16.409	817.175	612.024
356.679	16.441	816.648	611.693
357.694	16.468	815.950	611.211
358.708	16.531	815.254	610.865
359.723	16.398	814.896	610.064
360.738	16.492	814.139	609.782
361.752	16.559	813.849	609.750
362.767	16.520	813.608	609.375
363.781	16.622	813.152	609.347
364.796	16.623	812.666	608.932
365.810	16.714	811.709	608.490
366.825	16.937	811.438	609.032
367.840	16.823	811.308	608.472
368.854	16.879	810.734	608.191
369.869	16.649	810.633	607.235
370.883	16.713	809.901	606.863
371.898	16.702	809.431	606.415
372.913	16.719	808.623	605.817
373.927	16.680	808.354	605.425
374.942	16.982	807.404	605.739
375.956	16.805	807.038	604.776
376.971	16.852	806.639	604.593
377.986	16.962	805.352	603.966
379.000	16.920	805.412	603.807
380.015	16.964	805.343	603.858
381.029	17.117	804.160	603.464
382.044	17.069	803.418	602.684
383.059	17.071	803.003	602.323
384.073	16.964	802.955	601.857
385.088	17.181	802.220	602.021
386.102	17.082	801.754	601.266
387.117	16.879	800.881	599.839
388.132	17.077	800.262	600.025
389.146	17.013	800.351	599.812
390.161	17.061	799.799	599.514
391.175	17.097	799.516	599.377
392.190	17.205	799.126	599.411
393.205	17.204	798.456	598.851
394.219	17.103	798.403	598.404
395.234	17.138	797.793	598.019
396.248	17.236	797.147	597.826
397.263	17.171	796.495	597.055
398.278	16.947	796.468	596.192
399.292	17.000	796.197	596.123
400.307	16.873	795.816	595.341
401.321	17.072	795.210	595.532
402.336	17.036	795.033	595.222
403.350	17.137	794.305	594.979
404.365	17.294	793.595	594.941
405.380	17.341	793.040	594.637
406.394	17.364	792.901	594.560
407.409	17.336	792.232	593.909
408.423	17.406	791.886	593.841
409.438	17.189	791.874	593.022
410.453	17.323	791.191	592.925
411.467	17.627	790.318	593.279
412.482	17.445	790.429	592.676
413.496	17.615	789.310	592.375
414.511	17.528	789.241	591.967
415.526	17.605	788.617	591.714
416.540	17.678	788.148	591.564
417.555	17.442	788.226	590.750
418.569	17.609	787.436	590.686
419.584	17.445	787.312	589.973
420.599	17.533	786.796	589.839
421.613	113.918	1297.010	1487.266
422.628	97.843	1371.303	1487.358
