DTS Sentinel unit serial number:	SN413079Multiplexer serial number:	ORYXHardware model number:	OX4-SRSoftware version number:	ORYX F/W v4.00 Oryx Data Collector v3.7.2.0data status	okinstallation	princeton_trtdifferential loss correction	single-endedforward channel	channel 3reverse channel	N/Adate	2019/09/12time	07:14:10forward acquisition time	60.00reverse acquisition time	0.00gamma	496.2192k internal	0.2319k external	0.2319temperature offset calibration	1.0030default loss term (dB/km)	0.3790temperature slope calibration	1.0000multiplexer offset coefficient	1.0000multiplexer slope coefficient	1.0000fibre end	0.00T internal ref (°C)	32.23T ext. ref 1 (°C)	1.61T ext. ref 2 (°C)	28.20length (m)	temperature (°C)	Stokes	anti-Stokes-747.200	-162.204	-0.480	0.024
-746.185	207.741	-0.192	0.303
-745.171	-96.133	-0.151	-0.041
-744.156	-81.335	0.007	-0.002
-743.142	-200.000	0.024	0.151
-742.127	-55.147	-0.060	-0.027
-741.112	-200.000	0.010	-0.200
-740.098	163.510	-0.176	0.250
-739.083	-79.221	0.256	-0.088
-738.069	800.000	0.023	0.088
-737.054	-87.622	0.466	0.142
-736.039	800.000	-0.046	0.148
-735.025	-118.871	0.167	-0.030
-734.010	-49.495	-0.391	0.188
-732.996	-200.000	0.027	0.275
-731.981	7.237	-0.331	0.250
-730.966	-200.000	0.025	0.131
-729.952	800.000	-0.041	0.137
-728.937	107.759	-0.315	0.379
-727.923	23.166	-0.301	0.250
-726.908	64.771	0.195	0.199
-725.894	82.551	-0.058	0.064
-724.879	-139.361	-0.038	-0.004
-723.864	-148.615	-0.311	0.026
-722.850	96.646	0.229	0.265
-721.835	-131.341	-0.295	0.039
-720.821	-147.959	0.358	-0.030
-719.806	125.532	-0.245	-0.313
-718.791	-53.314	-0.124	-0.057
-717.777	-200.000	0.007	-0.162
-716.762	21.156	-0.310	-0.254
-715.748	800.000	-0.080	-0.327
-714.733	-40.923	0.440	-0.230
-713.718	-152.928	0.115	-0.008
-712.704	-17.526	0.348	0.221
-711.689	27.186	-0.133	0.113
-710.675	548.957	-0.067	-0.162
-709.660	-200.000	0.052	0.286
-708.645	-121.852	-0.427	0.071
-707.631	-6.069	-0.242	-0.167
-706.616	119.404	0.122	-0.153
-705.602	-29.292	0.090	0.052
-704.587	-39.004	-0.228	0.121
-703.572	800.000	0.060	-0.181
-702.558	-149.242	0.224	0.018
-701.543	-200.000	-0.036	0.290
-700.529	103.458	0.083	-0.098
-699.514	-82.934	-0.080	-0.026
-698.499	-109.796	0.316	-0.067
-697.485	281.264	-0.118	0.214
-696.470	222.530	0.067	0.108
-695.456	-200.000	-0.021	-0.199
-694.441	-123.469	0.056	-0.009
-693.426	-200.000	0.037	0.424
-692.412	336.808	-0.109	-0.213
-691.397	252.859	0.196	0.337
-690.383	800.000	-0.038	0.122
-689.368	263.581	-0.056	0.099
-688.354	-68.418	-0.208	0.082
-687.339	220.033	-0.196	-0.316
-686.324	363.219	0.084	0.171
-685.310	304.053	-0.171	-0.321
-684.295	56.789	0.304	-0.299
-683.281	-93.587	-0.097	-0.027
-682.266	31.716	-0.179	0.155
-681.251	-41.170	0.444	-0.231
-680.237	282.089	-0.105	0.189
-679.222	9.963	0.148	-0.113
-678.208	-26.295	0.179	-0.106
-677.193	-200.000	-0.005	0.029
-676.178	800.000	-0.081	-0.302
-675.164	-58.532	-0.263	-0.115
-674.149	-109.926	-0.152	-0.032
-673.135	-200.000	0.024	0.169
-672.120	679.078	0.113	0.296
-671.105	-172.912	0.393	0.012
-670.091	-200.000	0.021	-0.165
-669.076	-200.000	0.138	0.000
-668.062	800.000	-0.064	0.219
-667.047	-120.505	0.291	-0.050
-666.032	-200.000	0.389	0.001
-665.018	160.204	0.065	-0.092
-664.003	198.742	-0.182	0.281
-662.989	-15.112	0.208	0.134
-661.974	445.645	-0.061	0.136
-660.959	800.000	-0.071	0.253
-659.945	214.135	0.215	-0.342
-658.930	-200.000	0.021	0.239
-657.916	-37.913	0.056	0.030
-656.901	-112.023	-0.222	-0.045
-655.886	-1.569	0.153	0.108
-654.872	-155.113	-0.239	-0.016
-653.857	-118.736	-0.162	0.029
-652.843	-200.000	-0.019	0.181
-651.828	-115.973	-0.050	0.009
-650.814	-7.999	-0.142	0.097
-649.799	-150.570	-0.187	-0.014
-648.784	295.255	0.092	0.170
-647.770	-127.610	0.269	-0.039
-646.755	-2.323	0.253	0.179
-645.741	-83.271	-0.375	-0.121
-644.726	176.123	-0.118	-0.172
-643.711	-89.006	-0.169	-0.050
-642.697	-27.099	0.059	0.035
-641.682	-200.000	0.027	0.195
-640.668	-60.502	0.113	-0.049
-639.653	-111.150	0.125	0.026
-638.638	800.000	-0.026	-0.110
-637.624	-200.000	0.010	0.400
-636.609	460.679	-0.170	-0.382
-635.595	480.201	-0.052	-0.118
-634.580	88.706	0.100	-0.112
-633.565	-112.854	-0.332	-0.066
-632.551	-89.873	0.111	0.033
-631.536	-119.879	-0.254	0.044
-630.522	-70.517	-0.227	0.087
-629.507	-32.046	-0.095	0.054
-628.492	-28.249	0.276	0.161
-627.478	354.928	0.069	-0.138
-626.463	336.153	0.018	-0.035
-625.449	800.000	0.042	-0.142
-624.434	-135.259	0.170	-0.020
-623.419	-165.879	-0.357	-0.015
-622.405	-59.483	0.146	-0.063
-621.390	-154.952	0.276	-0.018
-620.376	-67.644	-0.224	0.089
-619.361	37.458	-0.136	0.122
-618.346	4.708	0.187	0.139
-617.332	139.746	-0.095	0.126
-616.317	-4.577	-0.274	0.190
-615.303	46.067	0.117	0.109
-614.288	77.868	-0.149	0.160
-613.273	-195.360	0.096	0.001
-612.259	-47.686	-0.312	0.152
-611.244	-200.000	-0.027	-0.419
-610.230	-16.726	-0.387	-0.246
-609.215	74.707	-0.097	0.103
-608.201	800.000	-0.039	0.165
-607.186	-200.000	-0.027	-0.149
-606.171	-21.264	0.168	-0.103
-605.157	626.067	-0.028	0.071
-604.142	-200.000	-0.316	0.001
-603.128	-121.951	0.252	0.042
-602.113	-30.556	-0.301	0.172
-601.098	101.134	0.195	-0.229
-600.084	-200.000	-0.079	0.404
-599.069	-69.999	0.312	-0.119
-598.055	455.707	0.052	0.115
-597.040	43.048	-0.186	0.171
-596.025	-79.318	-0.257	0.088
-595.011	17.751	-0.135	0.108
-593.996	93.447	0.362	-0.413
-592.982	61.399	-0.158	-0.158
-591.967	78.193	-0.143	-0.153
-590.952	-137.643	-0.187	0.021
-589.938	-68.275	-0.300	-0.117
-588.923	-87.258	0.123	0.038
-587.909	464.039	-0.069	0.155
-586.894	341.390	0.131	0.257
-585.879	50.866	0.092	0.087
-584.865	-91.191	-0.053	0.015
-583.850	-41.229	0.271	0.141
-582.836	-82.861	-0.084	0.027
-581.821	-200.000	0.002	0.237
-580.806	-86.485	-0.122	0.037
-579.792	503.414	-0.095	-0.221
-578.777	-71.901	-0.193	0.072
-577.763	-59.097	-0.211	0.091
-576.748	-19.439	0.191	-0.119
-575.733	161.383	-0.130	0.183
-574.719	336.926	-0.200	-0.391
-573.704	-120.541	-0.122	0.021
-572.690	449.843	-0.042	0.094
-571.675	16.455	-0.069	0.055
-570.661	133.184	-0.033	-0.042
-569.646	224.203	0.104	-0.168
-568.631	-62.087	-0.040	-0.017
-567.617	800.000	0.050	-0.151
-566.602	278.724	-0.120	-0.214
-565.588	-16.203	0.284	-0.181
-564.573	-200.000	0.035	-0.306
-563.558	-200.000	-0.010	-0.128
-562.544	-38.287	-0.194	-0.103
-561.529	66.480	-0.060	-0.061
-560.515	800.000	-0.034	-0.102
-559.500	800.000	0.078	-0.283
-558.485	-198.188	-0.249	0.001
-557.471	354.493	-0.014	0.029
-556.456	-122.465	-0.269	-0.044
-555.442	14.961	0.228	-0.179
-554.427	-93.371	-0.304	0.085
-553.412	-200.000	-0.016	-0.351
-552.398	165.052	-0.148	0.210
-551.383	-200.000	0.012	0.173
-550.369	50.972	0.136	-0.129
-549.354	450.544	-0.023	0.051
-548.339	191.637	0.133	0.202
-547.325	800.000	0.027	0.102
-546.310	333.692	0.129	-0.251
-545.296	23.058	-0.034	-0.028
-544.281	-200.000	0.001	0.073
-543.266	-67.622	-0.253	-0.100
-542.252	-72.584	0.063	-0.023
-541.237	-158.331	0.147	0.009
-540.223	-118.388	0.128	-0.023
-539.208	341.941	-0.143	0.281
-538.193	-77.386	-0.078	0.027
-537.179	-200.000	-0.015	0.176
-536.164	-113.712	0.243	-0.047
-535.150	-200.000	0.051	-0.244
-534.135	-64.414	0.248	-0.101
-533.121	800.000	-0.051	-0.171
-532.106	-103.204	-0.230	0.055
-531.091	800.000	0.060	0.265
-530.077	-23.489	-0.182	0.110
-529.062	318.089	-0.082	-0.156
-528.048	60.046	0.175	-0.174
-527.033	-60.537	0.113	-0.048
-526.018	-52.737	-0.192	-0.089
-525.004	82.750	0.098	0.107
-523.989	42.619	-0.155	-0.142
-522.975	-64.926	0.058	0.024
-521.960	-169.999	-0.103	0.004
-520.945	-117.279	-0.165	-0.030
-519.931	-200.000	-0.011	-0.060
-518.916	-51.531	0.367	0.172
-517.902	-160.338	0.036	-0.002
-516.887	138.565	0.087	-0.114
-515.872	48.690	0.137	-0.129
-514.858	800.000	-0.051	0.207
-513.843	-171.118	-0.101	-0.003
-512.829	5.767	-0.041	0.030
-511.814	508.927	-0.092	-0.215
-510.799	-105.910	0.453	0.102
-509.785	-49.579	0.261	-0.125
-508.770	-115.842	-0.120	-0.022
-507.756	-197.721	0.125	-0.001
-506.741	139.694	0.055	0.072
-505.726	300.890	0.176	-0.325
-504.712	133.357	0.061	0.079
-503.697	159.869	0.199	0.278
-502.683	269.515	-0.039	-0.069
-501.668	21.642	0.243	-0.198
-500.653	-147.405	0.164	0.014
-499.639	-25.554	-0.178	0.105
-498.624	301.002	0.038	0.071
-497.610	204.175	0.196	0.304
-496.595	-88.265	0.347	0.104
-495.581	-11.288	0.192	0.126
-494.566	63.690	0.211	0.212
-493.551	-53.127	-0.292	0.134
-492.537	-67.883	0.183	-0.072
-491.522	800.000	0.058	0.166
-490.508	-200.000	-0.012	0.086
-489.493	164.006	-0.092	0.130
-488.478	191.384	-0.060	-0.090
-487.464	491.601	0.042	-0.097
-486.449	16.955	-0.127	0.101
-485.435	-62.659	0.046	-0.019
-484.420	-67.855	0.161	0.063
-483.405	800.000	0.131	-0.442
-482.391	-72.121	0.067	-0.025
-481.376	74.462	0.276	-0.291
-480.362	256.088	0.073	-0.126
-479.347	559.151	-0.057	0.138
-478.332	284.148	0.010	0.019
-477.318	-116.587	0.191	-0.035
-476.303	-200.000	-0.007	-0.157
-475.289	-55.387	0.098	-0.044
-474.274	-71.221	0.391	-0.147
-473.259	-96.726	0.197	0.052
-472.245	153.214	-0.111	-0.151
-471.230	-141.296	-0.271	-0.028
-470.216	75.017	-0.187	-0.197
-469.201	115.534	0.229	0.280
-468.186	265.759	-0.175	-0.305
-467.172	302.342	-0.141	0.260
-466.157	-106.933	-0.394	0.087
-465.143	800.000	-0.095	0.310
-464.128	-200.000	-0.036	-0.225
-463.113	63.440	0.215	0.216
-462.099	-84.265	0.233	0.074
-461.084	-200.000	0.023	-0.181
-460.070	-129.187	-0.102	-0.014
-459.055	-102.372	-0.367	-0.088
-458.040	37.789	-0.236	-0.210
-457.026	800.000	0.040	-0.155
-456.011	800.000	0.070	-0.234
-454.997	-200.000	0.036	0.202
-453.982	-164.778	0.066	-0.003
-452.968	-20.205	0.068	-0.042
-451.953	-172.664	-0.189	-0.006
-450.938	-200.000	-0.014	-0.174
-449.924	-33.943	-0.248	-0.136
-448.909	126.613	0.161	0.204
-447.895	269.986	0.146	0.256
-446.880	-63.772	0.143	0.059
-445.865	-200.000	-0.015	0.216
-444.851	413.004	-0.090	0.191
-443.836	391.235	-0.087	0.181
-442.822	-200.000	0.040	0.185
-441.807	-200.000	-0.005	0.238
-440.792	-46.647	-0.212	-0.104
-439.778	414.340	0.092	0.195
-438.763	261.504	0.151	-0.261
-437.749	800.000	-0.060	0.190
-436.734	318.878	0.129	-0.244
-435.719	618.746	-0.096	0.241
-434.705	-200.000	-0.015	0.113
-433.690	-200.000	0.006	0.170
-432.676	395.886	-0.212	0.441
-431.661	800.000	-0.119	0.413
-430.646	-200.000	0.007	0.099
-429.632	-136.171	-0.156	0.018
-428.617	-115.025	0.198	-0.038
-427.603	800.000	0.015	-0.057
-426.588	-200.000	-0.006	0.171
-425.573	255.596	0.192	-0.328
-424.559	-73.357	0.141	-0.051
-423.544	103.166	-0.238	-0.279
-422.530	-132.619	-0.061	0.008
-421.515	-200.000	-0.008	-0.207
-420.500	-200.000	-0.018	0.173
-419.486	103.316	0.367	-0.430
-418.471	-88.556	-0.424	0.126
-417.457	-33.326	-0.206	-0.114
-416.442	373.867	-0.176	-0.358
-415.428	64.226	-0.120	0.121
-414.413	41.174	-0.090	-0.081
-413.398	-81.662	0.329	-0.108
-412.384	164.785	-0.080	0.113
-411.369	800.000	0.020	-0.063
-410.355	800.000	-0.055	-0.154
-409.340	37.685	-0.164	-0.145
-408.325	-139.524	0.179	0.019
-407.311	570.643	0.057	0.138
-406.296	78.299	-0.301	-0.321
-405.282	174.954	-0.096	0.139
-404.267	-54.410	-0.056	-0.026
-403.252	800.000	0.036	-0.134
-402.238	800.000	-0.080	-0.235
-401.223	180.424	-0.089	-0.130
-400.209	-20.460	-0.202	0.124
-399.194	87.029	-0.021	0.023
-398.179	292.116	0.076	-0.137
-397.165	-97.784	-0.378	0.098
-396.150	-60.300	0.123	-0.052
-395.136	486.637	0.107	0.244
-394.121	-200.000	-0.095	0.459
-393.106	48.210	0.068	0.063
-392.092	-154.072	-0.453	0.031
-391.077	-54.495	-0.180	0.081
-390.063	-82.819	0.135	0.044
-389.048	173.747	0.153	-0.220
-388.033	-55.732	-0.142	-0.063
-387.019	53.141	-0.296	-0.283
-386.004	267.903	-0.053	0.093
-384.990	96.550	0.261	-0.298
-383.975	532.007	0.071	0.167
-382.960	-37.525	0.420	-0.223
-381.946	-200.000	0.024	-0.125
-380.931	342.228	-0.097	-0.190
-379.917	40.047	0.172	-0.154
-378.902	-57.234	0.327	-0.144
-377.888	-72.756	-0.217	0.080
-376.873	16.668	-0.298	-0.235
-375.858	12.320	0.279	0.215
-374.844	385.201	0.091	0.186
-373.829	-85.388	0.114	0.036
-372.815	-200.000	0.021	0.107
-371.800	338.942	0.112	-0.218
-370.785	657.843	0.092	-0.236
-369.771	-39.155	0.214	0.112
-368.756	-173.049	0.081	0.003
-367.742	-126.497	0.349	0.052
-366.727	-29.143	0.246	0.141
-365.712	98.965	-0.046	0.052
-364.698	-14.181	-0.100	0.064
-363.683	154.988	0.101	-0.138
-362.669	-81.849	-0.079	-0.026
-361.654	-44.852	-0.384	0.191
-360.639	-200.000	-0.011	0.159
-359.625	-108.594	0.265	-0.057
-358.610	-98.373	0.253	0.065
-357.596	-12.071	-0.246	-0.161
-356.581	53.330	0.038	0.036
-355.566	63.501	-0.141	-0.141
-354.552	800.000	-0.062	0.229
-353.537	166.570	0.135	0.191
-352.523	240.277	-0.086	-0.143
-351.508	5.990	0.294	0.217
-350.493	-116.703	-0.510	0.093
-349.479	800.000	0.014	0.045
-348.464	-76.349	0.329	0.116
-347.450	800.000	-0.060	0.216
-346.435	485.858	-0.003	-0.007
-345.420	751.080	-0.132	-0.354
-344.406	14.187	-0.280	0.217
-343.391	-40.412	-0.133	0.069
-342.377	800.000	0.065	0.192
-341.362	-200.000	0.036	0.206
-340.348	-200.000	-0.024	0.158
-339.333	-200.000	0.007	-0.341
-338.318	196.227	0.053	-0.081
-337.304	381.960	-0.253	-0.518
-336.289	-200.000	-0.031	-0.198
-335.275	-62.093	-0.205	0.085
-334.260	-200.000	-0.020	0.268
-333.245	-52.390	0.479	0.221
-332.231	-62.055	0.076	-0.031
-331.216	259.106	-0.142	0.245
-330.202	-35.509	-0.106	-0.057
-329.187	-85.353	-0.062	0.019
-328.172	197.664	0.103	0.157
-327.158	-162.972	0.185	-0.009
-326.143	-67.990	-0.209	0.081
-325.129	-164.463	0.229	-0.010
-324.114	393.521	-0.116	0.240
-323.099	-200.000	-0.109	-0.519
-322.085	-200.000	0.022	-0.143
-321.070	50.682	-0.082	-0.077
-320.056	471.832	0.086	-0.193
-319.041	-171.338	-0.026	0.001
-318.026	800.000	0.068	0.188
-317.012	17.486	0.119	-0.094
-315.997	800.000	-0.040	0.127
-314.983	-63.366	-0.081	0.033
-313.968	-200.000	-0.008	-0.163
-312.953	-151.879	-0.173	-0.013
-311.939	-200.000	0.011	0.076
-310.924	16.750	-0.278	0.219
-309.910	-32.247	0.184	0.102
-308.895	333.093	-0.143	0.274
-307.880	14.809	-0.082	-0.064
-306.866	-32.093	0.334	0.186
-305.851	-104.018	-0.150	-0.035
-304.837	-84.935	0.042	0.013
-303.822	-200.000	-0.079	0.376
-302.807	-76.033	0.172	0.060
-301.793	-32.324	-0.214	-0.119
-300.778	14.448	-0.173	-0.134
-299.764	-200.000	0.007	0.038
-298.749	55.241	-0.016	-0.016
-297.735	-72.217	0.064	0.023
-296.720	-112.373	0.154	-0.031
-295.705	-56.866	0.355	0.156
-294.691	-44.793	-0.107	-0.053
-293.676	95.902	0.114	-0.129
-292.662	-42.174	-0.045	-0.023
-291.647	33.225	-0.195	-0.168
-290.632	80.529	0.138	-0.148
-289.618	-30.948	-0.177	0.099
-288.603	-57.290	0.268	0.117
-287.589	-67.126	0.132	0.052
-286.574	203.158	-0.124	0.191
-285.559	-32.043	-0.260	0.145
-284.545	-151.967	0.323	0.023
-283.530	800.000	-0.047	0.175
-282.516	-65.420	0.085	0.034
-281.501	-20.255	-0.185	-0.113
-280.486	-200.000	0.007	0.215
-279.472	110.497	-0.208	-0.248
-278.457	-60.329	-0.122	0.051
-277.443	5.126	-0.146	0.107
-276.428	-41.843	0.360	0.183
-275.413	236.735	-0.077	-0.127
-274.399	-16.631	-0.158	0.100
-273.384	800.000	-0.031	-0.109
-272.370	98.255	0.121	0.138
-271.355	-4.377	-0.188	-0.129
-270.340	84.540	-0.174	-0.189
-269.326	-200.000	0.050	-0.240
-268.311	90.874	0.285	-0.318
-267.297	-132.648	-0.298	0.038
-266.282	20.805	0.060	-0.048
-265.267	-52.756	0.449	0.206
-264.253	-63.643	0.276	0.112
-263.238	596.446	0.048	0.118
-262.224	560.429	0.134	-0.322
-261.209	-200.000	0.001	-0.044
-260.195	212.429	0.168	-0.263
-259.180	-30.639	0.390	-0.219
-258.165	61.226	0.271	0.268
-257.151	800.000	0.017	0.061
-256.136	-6.786	-0.093	-0.063
-255.122	-123.695	-0.221	-0.035
-254.107	-52.501	-0.304	-0.140
-253.092	555.584	0.094	-0.224
-252.078	-93.323	-0.067	0.019
-251.063	382.515	-0.084	0.172
-250.049	-200.000	0.035	0.169
-249.034	226.914	-0.129	0.208
-248.019	343.063	-0.078	0.152
-247.005	335.197	-0.117	-0.226
-245.990	-99.401	0.097	0.024
-244.976	-200.000	0.019	0.114
-243.961	70.692	0.194	-0.199
-242.946	-47.570	0.193	0.093
-241.932	-167.640	-0.046	-0.002
-240.917	-65.659	-0.057	-0.023
-239.903	-200.000	-0.018	-0.101
-238.888	153.054	0.143	-0.195
-237.873	800.000	-0.085	-0.260
-236.859	-40.771	-0.085	-0.044
-235.844	287.991	-0.132	0.237
-234.830	-102.422	0.175	0.042
-233.815	-127.398	0.122	-0.018
-232.800	-12.383	0.288	-0.186
-231.786	800.000	-0.075	0.250
-230.771	-86.963	-0.281	-0.085
-229.757	-200.000	-0.000	0.030
-228.742	-89.227	-0.040	0.012
-227.727	-200.000	0.030	-0.214
-226.713	27.937	0.196	-0.164
-225.698	-200.000	0.016	-0.133
-224.684	709.279	-0.016	0.041
-223.669	-46.490	0.219	-0.107
-222.655	631.742	-0.039	-0.098
-221.640	41.537	-0.132	0.119
-220.625	-74.853	-0.186	-0.066
-219.611	170.411	0.107	-0.152
-218.596	-200.000	-0.018	0.375
-217.582	-74.825	0.064	0.023
-216.567	-136.070	-0.125	0.015
-215.552	-200.000	0.008	0.216
-214.538	14.930	0.227	-0.176
-213.523	133.176	0.168	-0.215
-212.509	-22.777	0.390	0.233
-211.494	-136.616	0.171	0.020
-210.479	77.387	0.082	-0.086
-209.465	-138.339	0.250	-0.027
-208.450	-200.000	-0.025	-0.133
-207.436	-115.126	-0.235	-0.044
-206.421	115.979	0.148	0.180
-205.406	5.386	-0.176	-0.129
-204.392	262.384	0.105	-0.181
-203.377	800.000	0.061	0.193
-202.363	334.786	-0.102	-0.196
-201.348	-200.000	0.013	-0.498
-200.333	633.441	0.108	-0.271
-199.319	-121.420	-0.435	0.072
-198.304	750.989	0.126	0.337
-197.290	-80.232	-0.048	-0.016
-196.275	82.510	0.140	0.150
-195.260	-93.813	-0.365	0.099
-194.246	174.393	0.089	0.127
-193.231	328.355	-0.061	0.117
-192.217	-200.000	-0.029	-0.363
-191.202	-200.000	0.014	-0.069
-190.187	800.000	-0.008	0.025
-189.173	224.280	-0.154	0.246
-188.158	-149.780	0.094	-0.007
-187.144	102.357	-0.087	0.101
-186.129	125.567	-0.222	0.277
-185.114	178.764	0.113	0.164
-184.100	29.730	-0.327	-0.276
-183.085	122.584	0.174	-0.215
-182.071	-123.513	-0.138	-0.022
-181.056	124.191	0.117	-0.145
-180.042	-175.907	0.179	0.005
-179.027	800.000	-0.143	0.396
-178.012	-200.000	-0.039	0.270
-176.998	297.738	-0.110	-0.199
-175.983	-19.325	0.147	-0.090
-174.969	-99.838	0.090	0.022
-173.954	50.716	-0.230	-0.215
-172.939	-137.101	-0.188	-0.021
-171.925	710.815	-0.043	-0.112
-170.910	-109.759	-0.177	-0.037
-169.896	-200.000	0.014	0.203
-168.881	-155.793	-0.209	0.013
-167.866	357.361	0.005	0.009
-166.852	-156.530	0.418	-0.026
-165.837	316.531	0.152	0.285
-164.823	-155.917	0.342	0.021
-163.808	-143.078	0.227	-0.022
-162.793	-200.000	-0.089	0.394
-161.779	-200.000	-0.019	0.270
-160.764	417.361	-0.035	-0.074
-159.750	-63.670	0.344	-0.139
-158.735	-200.000	-0.013	0.193
-157.720	-12.748	-0.116	0.075
-156.706	800.000	-0.099	0.355
-155.691	71.925	-0.207	-0.213
-154.677	65.260	0.209	0.209
-153.662	250.677	0.099	-0.166
-152.647	51.462	0.293	-0.275
-151.633	-200.000	0.032	0.250
-150.618	800.000	-0.058	0.207
-149.604	-68.372	-0.414	0.159
-148.589	-89.006	0.102	0.030
-147.574	-5.603	-0.150	0.102
-146.560	-200.000	0.038	0.348
-145.545	101.970	0.120	-0.138
-144.531	353.283	-0.116	-0.227
-143.516	800.000	0.051	-0.145
-142.502	183.376	0.068	0.100
-141.487	-147.826	0.239	0.020
-140.472	-200.000	0.033	0.147
-139.458	800.000	0.089	-0.297
-138.443	190.835	-0.071	-0.106
-137.429	51.484	0.049	0.046
-136.414	191.037	0.122	0.181
-135.399	214.369	0.065	0.101
-134.385	-200.000	0.030	0.147
-133.370	-157.992	-0.090	-0.005
-132.356	-2.073	0.380	0.264
-131.341	-14.768	0.176	0.112
-130.326	91.335	-0.060	0.067
-129.312	-106.937	-0.417	-0.091
-128.297	102.192	-0.155	0.179
-127.283	800.000	0.083	-0.307
-126.268	-58.803	0.239	-0.102
-125.253	-139.421	0.135	-0.014
-124.239	56.702	0.249	-0.239
-123.224	-105.396	0.252	-0.057
-122.210	-62.325	-0.192	0.079
-121.195	-133.545	-0.307	-0.038
-120.180	-49.337	0.234	-0.110
-119.166	-200.000	-0.002	-0.199
-118.151	180.267	-0.315	-0.456
-117.137	-200.000	0.121	0.527
-116.122	-200.000	0.007	0.087
-115.107	-9.338	0.280	0.184
-114.093	-108.981	-0.281	-0.059
-113.078	67.066	0.073	-0.073
-112.064	-24.568	0.065	0.038
-111.049	-65.471	-0.380	-0.151
-110.034	-200.000	0.015	-0.071
-109.020	800.000	-0.077	-0.247
-108.005	-0.051	0.153	-0.108
-106.991	356.199	0.083	-0.163
-105.976	800.000	-0.004	-0.018
-104.962	-200.000	0.003	0.142
-103.947	-169.894	0.311	-0.011
-102.932	-200.000	-0.032	0.344
-101.918	-135.817	0.322	0.037
-100.903	374.910	0.022	-0.043
-99.889	800.000	0.052	-0.206
-98.874	-119.767	-0.367	0.062
-97.859	246.880	0.170	0.282
-96.845	-125.615	-0.171	0.026
-95.830	-200.000	-0.045	0.438
-94.816	-200.000	-0.041	0.309
-93.801	800.000	0.063	-0.173
-92.786	144.276	-0.131	0.173
-91.772	-144.186	0.444	0.041
-90.757	-93.689	0.074	-0.020
-89.743	45.746	0.220	0.201
-88.728	-200.000	0.056	-0.277
-87.713	-42.689	0.285	0.143
-86.699	-12.442	-0.225	0.145
-85.684	-159.003	-0.361	-0.020
-84.670	-167.561	-0.509	0.020
-83.655	150.353	0.134	-0.179
-82.640	25.912	0.188	0.154
-81.626	-200.000	-0.059	0.378
-80.611	-27.345	-0.142	0.082
-79.597	575.118	-0.035	0.084
-78.582	-105.504	0.153	-0.034
-77.567	-91.279	0.215	-0.061
-76.553	13.465	-0.347	0.265
-75.538	-200.000	-0.013	0.239
-74.524	-200.000	0.022	0.242
-73.509	-73.153	-0.105	0.038
-72.494	-200.000	0.016	-0.183
-71.480	-200.000	-0.060	-0.270
-70.465	-71.214	-0.300	0.111
-69.451	53.504	0.317	0.300
-68.436	139.719	0.170	0.221
-67.422	676.235	-0.077	0.197
-66.407	800.000	-0.045	0.179
-65.392	-124.736	0.057	-0.009
-64.378	284.764	0.137	0.242
-63.363	298.580	0.075	-0.136
-62.349	-29.290	-0.171	-0.096
-61.334	99.764	-0.786	-0.896
-60.319	-200.000	0.062	0.375
-59.305	-200.000	-0.022	-0.769
-58.290	451.864	0.482	1.049
-57.276	401.832	0.847	1.753
-56.261	-200.000	95.801	589.816
-55.246	559.591	1380.198	3281.392
-54.232	159.446	2559.156	3506.057
-53.217	112.223	2166.955	2579.352
-52.203	42.905	1710.472	1535.007
-51.188	35.520	1523.413	1316.687
-50.173	33.103	1496.695	1277.232
-49.159	52.234	1545.704	1450.836
-48.144	54.221	1563.493	1481.126
-47.130	35.626	1523.419	1317.211
-46.115	32.546	1508.111	1282.979
-45.100	32.301	1505.445	1278.992
-44.086	32.348	1503.285	1277.429
-43.071	32.255	1501.139	1274.918
-42.057	32.274	1499.362	1273.490
-41.042	32.261	1498.441	1272.569
-40.027	32.306	1496.667	1271.319
-39.013	32.237	1495.455	1269.770
-37.998	32.149	1494.553	1268.362
-36.984	32.323	1492.713	1267.920
-35.969	32.300	1491.540	1266.723
-34.954	32.308	1490.308	1265.674
-33.940	32.232	1488.848	1263.876
-32.925	32.301	1487.309	1262.982
-31.911	32.266	1485.917	1261.517
-30.896	32.241	1484.791	1260.339
-29.881	32.262	1483.533	1259.363
-28.867	32.260	1482.159	1258.137
-27.852	32.342	1480.299	1257.053
-26.838	32.306	1479.203	1255.831
-25.823	32.274	1477.494	1254.116
-24.809	32.338	1475.819	1253.071
-23.794	32.238	1474.657	1251.374
-22.779	32.279	1473.281	1250.424
-21.765	32.338	1471.961	1249.646
-20.750	32.269	1471.336	1248.612
-19.736	32.251	1470.159	1247.443
-18.721	32.249	1468.706	1246.145
-17.706	32.189	1467.886	1245.004
-16.692	32.195	1466.524	1243.838
-15.677	32.189	1465.754	1243.095
-14.663	32.179	1464.704	1242.094
-13.648	32.223	1463.528	1241.333
-12.633	32.123	1463.096	1240.258
-11.619	32.165	1462.322	1239.829
-10.604	32.196	1461.075	1238.928
-9.590	32.200	1460.357	1238.300
-8.575	32.171	1459.872	1237.645
-7.560	32.275	1458.035	1236.723
-6.546	32.151	1457.368	1235.291
-5.531	32.191	1456.763	1234.992
-4.517	32.212	1455.186	1233.744
-3.502	32.123	1454.496	1232.532
-2.487	32.195	1453.129	1231.793
-1.473	32.214	1452.347	1231.209
-0.458	32.129	1451.184	1229.615
0.556	32.194	1441.246	1219.743
1.571	29.512	1416.677	1181.697
2.586	26.336	1361.242	1115.790
3.600	24.780	1282.349	1041.973
4.615	23.336	1234.959	995.271
5.629	19.488	1176.431	927.381
6.644	9.777	1088.988	809.842
7.659	2.636	1048.331	744.931
8.673	1.887	1042.332	736.981
9.688	1.620	1039.196	733.412
10.702	1.474	1037.471	731.428
11.717	1.459	1035.836	730.138
12.731	4.378	1038.978	746.339
13.746	14.101	1053.050	803.567
14.761	22.320	1063.858	851.701
15.775	24.558	1066.299	864.428
16.790	24.929	1066.132	866.008
17.804	24.746	1065.075	864.193
18.819	24.718	1063.835	862.975
19.834	24.697	1063.522	862.539
20.848	24.919	1063.217	863.287
21.863	24.974	1063.001	863.303
22.877	25.070	1061.996	862.870
23.892	24.857	1061.902	861.695
24.907	24.927	1060.727	860.998
25.921	24.876	1060.338	860.361
26.936	24.916	1059.623	859.899
27.950	24.948	1057.952	858.619
28.965	24.957	1056.989	857.807
29.980	24.728	1056.015	855.842
30.994	24.709	1054.761	854.661
32.009	24.900	1053.907	854.805
33.023	24.978	1053.533	854.801
34.038	24.904	1052.043	853.160
35.053	24.711	1051.526	851.747
36.067	24.879	1050.753	851.845
37.082	24.924	1049.921	851.310
38.096	24.939	1049.371	850.858
39.111	25.091	1048.008	850.399
40.126	25.291	1047.530	850.884
41.140	25.196	1046.336	849.391
42.155	24.772	1044.848	846.102
43.169	24.489	1043.424	843.537
44.184	24.525	1042.647	843.003
45.199	24.639	1042.033	842.970
46.213	24.411	1041.374	841.288
47.228	24.502	1039.909	840.460
48.242	24.749	1039.361	841.103
49.257	24.835	1038.531	840.760
50.271	24.703	1038.475	840.023
51.286	25.038	1037.128	840.427
52.301	25.000	1036.379	839.571
53.315	25.113	1035.661	839.442
54.330	25.032	1034.840	838.325
55.344	24.948	1034.357	837.464
56.359	24.878	1033.611	836.460
57.374	24.857	1032.389	835.302
58.388	24.785	1031.582	834.238
59.403	24.688	1031.029	833.263
60.417	24.678	1030.404	832.639
61.432	24.595	1029.121	831.142
62.447	24.648	1028.646	830.931
63.461	24.611	1028.571	830.624
64.476	24.633	1027.633	829.899
65.490	24.671	1026.546	829.121
66.505	24.605	1025.645	828.014
67.520	24.524	1025.160	827.175
68.534	24.602	1024.571	826.989
69.549	24.559	1023.150	825.568
70.563	24.223	1021.781	822.841
71.578	24.120	1021.150	821.786
72.593	24.279	1020.578	821.985
73.607	23.865	1019.477	819.116
74.622	23.992	1018.201	818.603
75.636	24.327	1017.756	819.716
76.651	24.547	1017.481	820.431
77.666	24.413	1016.207	818.716
78.680	24.295	1015.445	817.487
79.695	24.284	1014.875	816.905
80.709	24.353	1014.449	816.807
81.724	24.557	1013.275	816.724
82.739	24.502	1012.591	815.848
83.753	24.484	1011.646	814.933
84.768	24.686	1011.611	815.755
85.782	25.058	1010.781	816.711
86.797	25.363	1010.156	817.522
87.812	25.181	1009.344	815.962
88.826	25.082	1008.202	814.515
89.841	25.184	1007.044	813.971
90.855	25.378	1006.297	814.178
91.870	25.179	1006.022	812.979
92.884	25.115	1005.198	811.951
93.899	25.141	1004.045	811.067
94.914	24.964	1003.044	809.387
95.928	25.111	1002.531	809.566
96.943	25.116	1001.576	808.747
97.957	24.920	1000.177	806.659
98.972	24.571	998.980	804.053
99.987	24.405	998.144	802.562
101.001	24.588	997.746	802.992
102.016	24.888	997.145	803.789
103.030	24.803	996.714	802.988
104.045	24.813	995.243	801.773
105.060	24.789	993.648	800.310
106.074	24.494	993.031	798.426
107.089	24.568	992.331	798.123
108.103	24.843	992.070	799.072
109.118	24.860	991.384	798.521
110.133	24.647	990.108	796.475
111.147	24.607	988.998	795.332
112.162	24.509	988.003	794.029
113.176	24.199	986.862	791.666
114.191	24.455	986.152	792.162
115.206	24.540	985.265	791.756
116.220	24.503	983.824	790.364
117.235	24.152	983.228	788.260
118.249	24.348	982.866	788.769
119.264	24.372	981.810	787.956
120.279	24.229	980.852	786.488
121.293	24.298	980.415	786.373
122.308	24.319	980.053	786.103
123.322	24.354	978.661	785.073
124.337	24.376	977.336	784.038
125.352	24.134	976.408	782.158
126.366	23.914	974.643	779.713
127.381	23.533	973.510	777.069
128.395	23.952	973.674	778.965
129.410	24.755	973.342	782.144
130.424	24.738	972.691	781.478
131.439	24.700	971.567	780.339
132.454	24.813	970.383	779.814
133.468	24.700	969.838	778.815
134.483	24.714	969.140	778.243
135.497	24.789	968.228	777.772
136.512	25.035	967.769	778.402
137.527	25.049	967.087	777.847
138.541	24.962	966.216	776.696
139.556	25.110	965.527	776.717
140.570	25.016	964.682	775.563
141.585	25.076	964.001	775.205
142.600	25.128	963.466	774.932
143.614	25.098	962.170	773.689
144.629	25.055	962.027	773.320
145.643	25.433	961.105	774.141
146.658	25.344	959.916	772.729
147.673	25.082	958.747	770.596
148.687	24.959	957.940	769.349
149.702	24.809	956.827	767.746
150.716	24.796	955.621	766.655
151.731	24.643	955.048	765.470
152.746	24.857	954.255	765.683
153.760	25.037	953.536	765.807
154.775	25.238	952.691	765.919
155.789	25.359	952.183	765.958
156.804	25.305	950.623	764.409
157.819	25.165	949.990	763.237
158.833	25.174	949.483	762.797
159.848	25.214	948.306	761.955
160.862	25.393	947.667	762.133
161.877	25.266	946.967	760.967
162.892	25.079	946.415	759.660
163.906	25.206	945.411	759.325
164.921	25.149	944.335	758.155
165.935	25.121	943.129	757.002
166.950	25.218	942.299	756.675
167.964	25.125	941.814	755.828
168.979	25.145	940.516	754.803
169.994	24.991	939.495	753.269
171.008	25.108	938.156	752.619
172.023	25.061	938.095	752.306
173.037	25.313	936.819	752.273
174.052	25.023	936.102	750.419
175.067	24.958	935.084	749.264
176.081	24.856	933.883	747.809
177.096	25.054	932.981	747.844
178.110	25.024	932.347	747.145
179.125	24.880	931.613	745.892
180.140	24.502	930.676	743.502
181.154	24.649	929.894	743.424
182.169	24.664	929.449	743.066
183.183	24.968	928.797	743.741
184.198	25.206	928.789	744.655
185.213	25.153	927.808	743.582
186.227	25.144	927.282	743.058
187.242	25.141	926.866	742.647
188.256	25.229	926.214	742.422
189.271	25.248	925.273	741.682
190.286	25.289	924.747	741.365
191.300	25.090	923.701	739.639
192.315	24.614	922.049	736.289
193.329	23.850	920.731	732.026
194.344	23.359	919.685	729.111
195.359	23.986	920.149	731.994
196.373	24.757	920.622	735.479
197.388	25.088	920.434	736.622
198.402	25.096	919.620	735.939
199.417	25.106	918.742	735.215
200.432	25.135	918.447	735.032
201.446	25.029	917.657	733.899
202.461	24.708	916.849	731.873
203.475	24.904	916.251	732.133
204.490	24.315	914.782	728.488
205.504	23.347	912.687	722.811
206.519	23.500	912.821	723.477
207.534	24.523	913.188	727.875
208.548	24.533	912.755	727.506
209.563	25.096	912.446	729.486
210.577	24.964	911.691	728.282
211.592	24.887	910.468	726.930
212.607	25.192	911.028	728.550
213.621	25.425	910.147	728.728
214.636	25.218	909.722	727.483
215.650	25.192	909.090	726.808
216.665	25.128	908.589	726.084
217.680	25.226	908.167	726.077
218.694	25.325	907.393	725.795
219.709	24.875	906.792	723.433
220.723	24.455	906.054	721.083
221.738	24.863	905.054	721.869
222.753	25.143	904.396	722.408
223.767	25.010	903.818	721.350
224.782	25.084	902.988	720.921
225.796	25.283	902.840	721.536
226.811	25.429	902.321	721.645
227.826	24.995	901.027	718.805
228.840	24.240	899.435	714.449
229.855	24.023	898.586	712.839
230.869	24.281	898.638	713.853
231.884	24.127	897.352	712.153
232.899	24.046	896.987	711.473
233.913	24.781	897.304	714.602
234.928	24.996	896.969	715.131
235.942	24.886	896.132	713.960
236.957	24.933	895.314	713.433
237.972	24.629	894.327	711.371
238.986	24.423	894.082	710.294
240.001	24.851	892.868	710.967
241.015	24.733	892.731	710.327
242.030	24.798	892.204	710.103
243.045	24.904	891.296	709.738
244.059	24.901	891.559	709.873
245.074	25.186	890.513	710.108
246.088	25.106	890.126	709.417
247.103	24.639	889.258	706.816
248.117	24.800	888.413	706.717
249.132	25.407	888.116	708.818
250.147	25.769	888.292	710.323
251.161	25.748	887.723	709.720
252.176	26.032	887.478	710.580
253.190	25.967	886.772	709.696
254.205	26.001	886.208	709.318
255.220	26.266	885.546	709.766
256.234	26.136	885.432	709.101
257.249	26.011	884.157	707.527
258.263	25.995	883.761	707.086
259.278	25.981	883.225	706.539
260.293	25.974	882.799	706.106
261.307	26.011	882.201	705.710
262.322	26.046	881.462	705.194
263.336	25.852	880.848	703.884
264.351	25.225	879.802	700.539
265.366	24.318	877.731	695.294
266.380	23.895	876.781	692.830
267.395	24.621	877.721	696.343
268.409	25.448	877.434	699.274
269.424	25.498	876.697	698.817
270.439	25.648	876.077	698.847
271.453	25.723	875.879	698.916
272.468	25.702	875.234	698.257
273.482	25.886	874.768	698.540
274.497	26.118	874.124	698.858
275.512	25.866	872.809	696.774
276.526	25.210	871.862	693.419
277.541	25.426	871.492	693.898
278.555	25.820	871.163	695.096
279.570	25.519	870.837	693.614
280.585	25.384	870.004	692.369
281.599	25.586	869.635	692.792
282.614	25.651	869.107	692.561
283.628	25.347	867.483	690.035
284.643	24.894	866.935	687.799
285.657	25.413	867.040	689.818
286.672	25.253	866.007	688.319
287.687	24.744	865.032	685.533
288.701	25.016	865.181	686.634
289.716	25.465	865.065	688.199
290.730	24.957	864.262	685.557
291.745	24.950	863.337	684.734
292.760	24.843	862.285	683.432
293.774	24.672	861.610	682.184
294.789	25.618	862.934	686.786
295.803	26.228	862.574	688.766
296.818	26.335	861.779	688.476
297.833	26.330	861.647	688.292
298.847	26.051	860.703	686.416
299.862	25.689	859.472	683.996
300.876	26.004	858.847	684.635
301.891	26.253	858.637	685.352
302.906	26.334	858.169	685.226
303.920	25.940	857.091	682.813
304.935	25.833	856.178	681.619
305.949	26.237	856.271	683.162
306.964	26.434	855.385	683.138
307.979	25.910	854.991	680.783
308.993	26.110	854.354	680.970
310.008	26.358	854.192	681.717
311.022	26.566	853.665	682.021
312.037	26.313	852.988	680.467
313.052	26.110	852.508	679.259
314.066	25.844	851.802	677.638
315.081	25.070	850.608	673.719
316.095	24.466	849.139	670.229
317.110	24.907	849.479	672.093
318.125	25.825	849.487	675.482
319.139	25.544	848.255	673.393
320.154	24.443	846.520	667.838
321.168	23.851	845.788	664.987
322.183	24.513	846.009	667.578
323.197	25.540	846.590	671.817
324.212	25.804	846.253	672.477
325.227	25.826	846.258	672.502
326.241	26.057	845.624	672.801
327.256	25.879	844.549	671.221
328.270	25.908	844.192	670.988
329.285	25.774	843.527	669.901
330.300	25.607	842.541	668.440
331.314	25.397	842.101	667.251
332.329	25.382	841.571	666.715
333.343	25.929	841.055	668.276
334.358	26.201	840.824	669.040
335.373	26.100	840.435	668.299
336.387	26.141	839.940	667.998
337.402	26.406	839.517	668.581
338.416	26.583	839.179	668.908
339.431	26.600	838.650	668.492
340.446	26.650	837.814	667.951
341.460	26.817	837.310	668.102
342.475	26.776	837.009	667.653
343.489	26.566	835.971	665.994
344.504	26.525	835.478	665.391
345.519	26.852	835.455	666.517
346.533	27.011	834.909	666.605
347.548	26.958	834.761	666.234
348.562	26.999	834.252	665.918
349.577	26.891	833.858	665.148
350.592	26.800	833.195	664.228
351.606	26.927	832.228	663.862
352.621	26.897	831.911	663.442
353.635	26.951	831.323	663.113
354.650	26.855	830.602	662.127
355.665	26.412	829.948	659.931
356.679	25.326	828.390	654.678
357.694	25.205	827.768	653.686
358.708	25.952	827.575	656.195
359.723	25.823	827.383	655.517
360.738	26.149	827.029	656.364
361.752	26.506	827.126	657.682
362.767	26.583	826.654	657.526
363.781	26.800	826.623	658.230
364.796	27.239	826.132	659.375
365.810	27.444	825.585	659.623
366.825	27.345	825.577	659.197
367.840	27.337	825.167	658.785
368.854	27.143	824.410	657.418
369.869	26.887	823.153	655.435
370.883	26.578	822.723	653.918
371.898	26.790	822.240	654.242
372.913	26.596	821.897	653.211
373.927	26.566	820.842	652.204
374.942	26.736	820.479	652.473
375.956	26.834	819.853	652.270
376.971	26.970	819.722	652.596
377.986	27.041	819.224	652.396
379.000	27.266	818.427	652.510
380.015	27.277	818.413	652.482
381.029	27.163	817.484	651.275
382.044	27.168	816.394	650.366
383.059	27.190	816.407	650.400
384.073	27.385	815.745	650.510
385.088	27.326	815.461	650.017
386.102	27.314	814.771	649.367
387.117	27.155	813.557	647.775
388.132	27.110	813.331	647.377
389.146	26.790	812.726	645.698
390.161	26.267	811.716	642.978
391.175	26.291	811.905	643.156
392.190	26.807	811.493	644.609
393.205	26.792	811.140	644.216
394.219	25.978	809.183	639.719
395.234	24.403	806.674	632.104
396.248	23.489	805.762	628.097
397.263	24.574	806.892	632.770
398.278	26.385	808.186	640.147
399.292	26.881	808.353	641.976
400.307	26.503	807.679	640.049
401.321	26.389	807.158	639.175
402.336	26.657	806.571	639.602
403.350	26.990	806.288	640.494
404.365	27.287	806.361	641.543
405.380	27.597	806.247	642.491
406.394	27.925	805.901	643.315
407.409	28.018	805.942	643.615
408.423	27.932	805.292	642.739
409.438	27.783	804.749	641.724
410.453	27.784	804.505	641.476
411.467	27.934	803.888	641.455
412.482	27.890	803.258	640.739
413.496	27.882	802.566	640.102
414.511	27.888	802.686	640.163
415.526	27.946	802.535	640.190
416.540	27.907	802.111	639.658
417.555	27.935	800.935	638.763
418.569	27.694	800.357	637.401
419.584	27.757	799.453	636.846
420.599	27.656	799.257	636.280
421.613	109.692	1286.278	1458.061
422.628	94.521	1357.199	1458.206
