DTS Sentinel unit serial number:	SN413079Multiplexer serial number:	ORYXHardware model number:	OX4-SRSoftware version number:	ORYX F/W v4.00 Oryx Data Collector v3.7.2.0data status	okinstallation	princeton_trtdifferential loss correction	single-endedforward channel	channel 3reverse channel	N/Adate	2019/09/11time	09:34:11forward acquisition time	60.00reverse acquisition time	0.00gamma	496.2192k internal	0.2304k external	0.2304temperature offset calibration	0.9943default loss term (dB/km)	0.3790temperature slope calibration	1.0000multiplexer offset coefficient	1.0000multiplexer slope coefficient	1.0000fibre end	0.00T internal ref (°C)	34.75T ext. ref 1 (°C)	0.13T ext. ref 2 (°C)	30.70length (m)	temperature (°C)	Stokes	anti-Stokes-747.200	-32.916	0.134	-0.076
-746.185	8.411	-0.320	0.245
-745.171	-200.000	-0.016	0.074
-744.156	609.361	0.049	-0.126
-743.142	-44.356	0.086	0.044
-742.127	3.831	0.094	-0.070
-741.112	7.719	0.240	0.183
-740.098	-83.554	-0.179	-0.058
-739.083	-147.611	-0.203	0.017
-738.069	800.000	-0.140	0.463
-737.054	-6.398	-0.157	0.109
-736.039	156.248	0.068	-0.096
-735.025	321.689	0.108	0.209
-734.010	-42.697	0.179	-0.093
-732.996	455.660	-0.167	0.377
-731.981	-109.788	-0.307	-0.066
-730.966	-200.000	0.027	-0.161
-729.952	-179.960	-0.112	-0.002
-728.937	-146.980	-0.098	-0.009
-727.923	800.000	0.085	-0.268
-726.908	800.000	-0.083	0.294
-725.894	-200.000	0.004	0.503
-724.879	92.134	-0.135	0.155
-723.864	800.000	-0.092	-0.313
-722.850	-157.736	0.164	0.010
-721.835	-124.597	-0.118	-0.019
-720.821	196.696	-0.098	-0.152
-719.806	-79.234	0.168	-0.058
-718.791	-52.012	0.264	0.125
-717.777	123.595	-0.150	0.191
-716.762	202.956	-0.195	0.306
-715.748	270.629	0.093	-0.167
-714.733	-199.645	-0.173	0.001
-713.718	162.113	0.141	-0.201
-712.704	-61.742	-0.181	-0.077
-711.689	65.085	-0.186	-0.191
-710.675	18.570	0.151	0.123
-709.660	135.164	-0.150	-0.198
-708.645	-154.633	-0.112	-0.008
-707.631	-200.000	0.056	0.268
-706.616	-200.000	-0.018	-0.205
-705.602	-64.025	0.311	-0.129
-704.587	609.147	-0.140	-0.356
-703.572	-97.618	0.206	-0.054
-702.558	800.000	0.086	-0.251
-701.543	-139.453	0.120	-0.013
-700.529	-200.000	-0.003	0.019
-699.514	-148.406	-0.129	0.011
-698.499	-106.794	-0.039	-0.009
-697.485	-107.441	0.451	-0.100
-696.470	-18.999	-0.283	0.179
-695.456	5.825	-0.110	-0.083
-694.441	43.687	-0.216	-0.201
-693.426	-14.205	-0.474	-0.311
-692.412	-200.000	0.025	-0.492
-691.397	-104.822	0.474	0.111
-690.383	197.803	-0.158	-0.246
-689.368	-54.841	-0.263	-0.121
-688.354	-200.000	-0.028	0.239
-687.339	39.814	0.181	-0.165
-686.324	-200.000	0.041	0.349
-685.310	-200.000	0.000	-0.090
-684.295	800.000	0.044	-0.167
-683.281	49.071	-0.199	-0.190
-682.266	-200.000	0.016	0.127
-681.251	-91.034	0.311	0.091
-680.237	-57.813	0.248	0.110
-679.222	-32.256	0.065	-0.037
-678.208	377.123	0.172	-0.357
-677.193	-200.000	-0.003	0.347
-676.178	-34.750	0.119	0.066
-675.164	-199.598	-0.245	0.001
-674.149	-104.790	-0.224	0.052
-673.135	-30.768	0.164	0.094
-672.120	285.319	-0.086	0.158
-671.105	-2.014	-0.193	0.138
-670.091	-146.727	-0.209	-0.018
-669.076	800.000	-0.071	-0.242
-668.062	-17.893	0.102	0.065
-667.047	-200.000	-0.018	0.160
-666.032	-200.000	-0.036	0.209
-665.018	-38.352	-0.345	-0.185
-664.003	-131.491	-0.359	-0.048
-662.989	-200.000	-0.007	0.069
-661.974	48.362	-0.105	-0.100
-660.959	-200.000	0.008	-0.059
-659.945	-200.000	0.022	-0.272
-658.930	-200.000	-0.045	0.346
-657.916	78.522	0.289	0.314
-656.901	172.145	0.111	-0.162
-655.886	434.998	-0.096	-0.212
-654.872	800.000	-0.048	-0.160
-653.857	-71.157	-0.253	-0.097
-652.843	404.517	-0.152	-0.324
-651.828	-144.294	0.136	-0.013
-650.814	-107.605	0.220	0.049
-649.799	295.165	-0.149	0.276
-648.784	650.421	0.027	0.071
-647.770	156.210	0.229	0.320
-646.755	-55.465	-0.186	-0.084
-645.741	800.000	0.057	0.171
-644.726	-200.000	-0.063	-0.398
-643.711	9.764	-0.097	-0.075
-642.697	800.000	-0.073	0.260
-641.682	410.767	-0.014	0.031
-640.668	-130.135	-0.266	-0.037
-639.653	-102.982	-0.302	0.073
-638.638	-61.677	-0.376	-0.160
-637.624	49.988	-0.202	0.193
-636.609	-200.000	-0.004	0.303
-635.595	-100.804	0.114	0.028
-634.580	58.927	-0.169	-0.168
-633.565	502.833	0.167	-0.391
-632.551	-84.309	0.304	-0.098
-631.536	-54.359	0.296	-0.136
-630.522	800.000	0.078	-0.221
-629.507	-200.000	0.010	-0.162
-628.492	60.132	-0.101	-0.101
-627.478	-200.000	-0.006	-0.339
-626.463	-64.265	-0.088	0.036
-625.449	-85.876	-0.082	-0.026
-624.434	25.363	0.114	0.096
-623.419	-178.302	-0.063	0.001
-622.405	-89.709	0.114	-0.034
-621.390	-40.217	0.119	-0.063
-620.376	-21.548	0.207	0.128
-619.361	97.957	-0.200	0.233
-618.346	-40.317	-0.221	0.117
-617.332	398.255	-0.032	0.067
-616.317	-200.000	-0.022	0.176
-615.303	-46.988	-0.294	0.146
-614.288	-36.650	0.061	-0.033
-613.273	-141.353	0.159	0.016
-612.259	800.000	-0.053	0.172
-611.244	125.340	0.086	-0.110
-610.230	-200.000	-0.048	0.280
-609.215	-200.000	0.024	0.173
-608.201	800.000	0.122	-0.393
-607.186	-33.789	0.369	0.206
-606.171	37.366	0.060	0.054
-605.157	-200.000	-0.042	-0.277
-604.142	-200.000	-0.067	0.411
-603.128	-200.000	-0.001	0.168
-602.113	-122.208	-0.221	-0.037
-601.098	-57.781	0.189	0.084
-600.084	73.792	0.013	-0.014
-599.069	-200.000	0.031	0.153
-598.055	-64.237	0.138	-0.057
-597.040	0.496	0.122	-0.088
-596.025	-115.405	-0.272	0.052
-595.011	-159.216	-0.174	-0.010
-593.996	800.000	0.084	-0.317
-592.982	12.027	0.150	-0.117
-591.967	59.248	0.066	-0.066
-590.952	800.000	0.076	0.313
-589.938	17.961	0.255	-0.205
-588.923	800.000	-0.051	-0.186
-587.909	-18.659	0.156	-0.098
-586.894	-156.215	0.217	-0.014
-585.879	-200.000	-0.032	-0.441
-584.865	-200.000	-0.002	-0.243
-583.850	240.299	-0.159	0.268
-582.836	-42.695	-0.283	0.146
-581.821	32.078	0.121	-0.106
-580.806	438.963	-0.111	0.245
-579.792	-29.602	0.247	-0.143
-578.777	-200.000	0.012	-0.217
-577.763	-200.000	0.013	-0.166
-576.748	800.000	0.097	0.415
-575.733	-132.518	0.125	0.016
-574.719	-160.953	-0.262	0.014
-573.704	-133.342	0.352	-0.045
-572.690	118.261	0.071	0.089
-571.675	-179.388	-0.029	-0.001
-570.661	73.381	-0.132	-0.139
-569.646	-200.000	-0.012	0.158
-568.631	-141.587	-0.083	-0.008
-567.617	-129.473	-0.158	-0.022
-566.602	-100.971	-0.235	-0.058
-565.588	-95.502	-0.099	0.027
-564.573	-140.093	0.052	0.006
-563.558	-200.000	0.005	0.117
-562.544	-44.341	-0.100	-0.051
-561.529	-169.882	-0.383	0.014
-560.515	-200.000	-0.018	-0.242
-559.500	-116.253	-0.099	-0.019
-558.485	-200.000	0.027	-0.266
-557.471	76.981	-0.149	0.160
-556.456	753.454	-0.039	0.106
-555.442	26.321	-0.175	-0.148
-554.427	-59.282	0.158	0.069
-553.412	-83.239	0.120	0.039
-552.398	523.463	-0.041	0.098
-551.383	-200.000	-0.010	-0.096
-550.369	371.928	0.178	0.365
-549.354	436.202	0.046	0.101
-548.339	725.217	-0.077	-0.208
-547.325	-200.000	-0.020	-0.276
-546.310	-90.695	-0.167	-0.049
-545.296	-200.000	-0.038	0.206
-544.281	-74.422	-0.072	0.026
-543.266	-81.510	0.047	0.016
-542.252	282.155	-0.040	-0.072
-541.237	-13.590	0.083	0.054
-540.223	405.333	-0.101	-0.216
-539.208	-22.332	-0.124	0.076
-538.193	-73.369	-0.098	0.036
-537.179	-200.000	-0.046	-0.422
-536.164	-39.440	-0.381	0.202
-535.150	103.092	0.123	0.145
-534.135	-81.626	-0.056	0.019
-533.121	3.238	-0.174	0.128
-532.106	-95.524	-0.201	-0.054
-531.091	148.860	-0.284	-0.388
-530.077	-73.032	-0.301	0.112
-529.062	262.641	0.205	-0.359
-528.048	800.000	-0.061	0.181
-527.033	800.000	0.033	0.117
-526.018	800.000	0.053	-0.197
-525.004	118.440	0.092	-0.115
-523.989	-22.958	-0.339	0.206
-522.975	-200.000	-0.024	0.205
-521.960	800.000	0.078	0.219
-520.945	-138.850	-0.118	-0.013
-519.931	800.000	0.067	-0.193
-518.916	-122.420	-0.208	0.034
-517.902	800.000	-0.033	0.099
-516.887	529.193	0.188	0.448
-515.872	93.687	0.266	-0.304
-514.858	-200.000	-0.046	-0.296
-513.843	47.032	-0.116	-0.109
-512.829	-124.568	-0.360	0.056
-511.814	61.631	-0.099	-0.100
-510.799	-200.000	0.001	-0.029
-509.785	-106.987	0.253	0.056
-508.770	-76.605	-0.259	-0.092
-507.756	-158.732	-0.465	0.027
-506.741	800.000	0.134	-0.416
-505.726	-38.942	-0.169	0.090
-504.712	26.140	-0.198	-0.166
-503.697	315.571	-0.064	0.122
-502.683	2.243	-0.170	-0.124
-501.668	295.417	-0.035	0.065
-500.653	-200.000	-0.001	0.076
-499.639	51.775	-0.257	-0.247
-498.624	-99.309	0.323	0.082
-497.610	-20.954	0.243	0.150
-496.595	800.000	0.038	-0.158
-495.581	211.090	0.138	-0.218
-494.566	-50.854	-0.109	-0.052
-493.551	-50.849	-0.458	0.217
-492.537	616.142	0.128	0.324
-491.522	26.134	0.084	0.071
-490.508	-55.788	-0.116	0.052
-489.493	-56.544	-0.116	0.052
-488.478	800.000	0.042	0.128
-487.464	297.726	0.026	-0.047
-486.449	-200.000	-0.032	-0.189
-485.435	178.920	-0.101	0.150
-484.420	69.767	0.083	0.086
-483.405	177.432	0.116	0.170
-482.391	67.387	0.035	0.036
-481.376	53.395	-0.176	-0.170
-480.362	-200.000	0.031	0.403
-479.347	-161.930	-0.297	0.015
-478.332	412.410	-0.080	-0.172
-477.318	800.000	-0.024	-0.099
-476.303	224.034	-0.199	-0.323
-475.289	800.000	-0.074	0.274
-474.274	800.000	0.064	-0.190
-473.259	206.004	0.201	0.314
-472.245	-120.207	-0.200	0.034
-471.230	-109.870	0.351	-0.074
-470.216	-200.000	0.048	0.357
-469.201	546.661	-0.188	-0.453
-468.186	-18.328	-0.257	-0.162
-467.172	293.491	0.087	0.161
-466.157	-20.376	-0.173	-0.107
-465.143	-53.008	-0.124	-0.057
-464.128	-9.755	-0.248	0.167
-463.113	-84.886	0.362	0.114
-462.099	-200.000	0.006	0.400
-461.084	-200.000	0.085	-0.489
-460.070	-200.000	-0.019	-0.238
-459.055	800.000	-0.089	-0.384
-458.040	-189.928	-0.201	-0.002
-457.026	-200.000	0.051	-0.345
-456.011	157.074	0.103	0.144
-454.997	-38.494	-0.175	0.093
-453.982	30.141	-0.074	0.064
-452.968	800.000	-0.055	-0.153
-451.953	491.312	0.057	-0.131
-450.938	-20.871	-0.366	0.225
-449.924	23.193	0.144	-0.119
-448.909	-83.495	-0.317	-0.102
-447.895	-200.000	0.065	0.433
-446.880	-200.000	0.038	-0.261
-445.865	-64.036	-0.355	0.146
-444.851	39.136	0.054	0.049
-443.836	139.743	-0.028	0.037
-442.822	800.000	0.016	0.047
-441.807	236.285	-0.069	-0.115
-440.792	800.000	0.027	0.100
-439.778	-96.106	0.295	0.079
-438.763	800.000	0.040	0.158
-437.749	-68.228	-0.164	0.064
-436.734	-41.683	0.364	0.188
-435.719	197.730	-0.026	-0.039
-434.705	181.052	0.062	-0.092
-433.690	244.435	-0.179	-0.303
-432.676	-44.381	0.330	-0.166
-431.661	111.880	0.124	0.151
-430.646	169.238	0.265	0.380
-429.632	-200.000	-0.028	-0.175
-428.617	800.000	0.045	0.186
-427.603	17.142	0.279	-0.222
-426.588	-46.644	0.148	0.073
-425.573	-159.065	-0.301	-0.017
-424.559	-200.000	0.005	-0.110
-423.544	-200.000	0.020	0.229
-422.530	-132.233	0.180	-0.023
-421.515	-117.464	0.045	0.008
-420.500	-137.111	-0.310	0.036
-419.486	-36.726	-0.127	0.068
-418.471	800.000	0.095	-0.401
-417.457	197.957	-0.079	-0.122
-416.442	254.014	0.136	-0.233
-415.428	412.780	-0.049	-0.105
-414.413	-25.740	0.040	0.023
-413.398	-200.000	-0.028	-0.230
-412.384	14.334	0.239	-0.187
-411.369	-200.000	-0.010	-0.115
-410.355	233.385	0.033	-0.055
-409.340	-19.121	-0.133	0.083
-408.325	0.524	0.241	-0.173
-407.311	-20.642	-0.106	-0.066
-406.296	22.648	0.196	-0.161
-405.282	-80.615	0.360	-0.121
-404.267	394.460	-0.107	-0.225
-403.252	178.735	0.273	-0.401
-402.238	-55.476	0.025	-0.011
-401.223	122.153	-0.130	0.163
-400.209	5.304	-0.081	0.060
-399.194	-167.356	0.270	0.011
-398.179	-108.492	0.338	0.073
-397.165	7.105	-0.155	0.116
-396.150	-172.946	0.220	0.007
-395.136	-107.534	-0.139	0.031
-394.121	-127.928	-0.020	0.003
-393.106	-57.678	-0.177	0.078
-392.092	-92.235	-0.228	-0.065
-391.077	-200.000	-0.022	0.099
-390.063	596.161	0.121	-0.302
-389.048	-200.000	-0.024	-0.425
-388.033	-200.000	0.014	-0.155
-387.019	78.885	-0.049	0.053
-386.004	800.000	-0.037	0.146
-384.990	-200.000	-0.229	0.000
-383.975	-200.000	-0.003	0.061
-382.960	-200.000	0.019	0.102
-381.946	-96.161	0.211	-0.056
-380.931	71.131	-0.152	0.158
-379.917	-200.000	-0.010	0.063
-378.902	-81.057	-0.338	0.112
-377.888	-161.340	-0.254	0.013
-376.873	28.232	0.018	0.015
-375.858	-159.982	0.048	-0.003
-374.844	6.524	-0.049	0.037
-373.829	182.822	0.087	-0.128
-372.815	-26.415	0.303	0.178
-371.800	-21.616	0.217	0.132
-370.785	-74.235	-0.117	0.043
-369.771	-200.000	-0.023	0.260
-368.756	211.117	-0.122	-0.192
-367.742	200.869	0.079	0.122
-366.727	-70.549	0.147	-0.056
-365.712	-84.117	-0.448	-0.143
-364.698	36.600	0.152	0.135
-363.683	-158.948	-0.247	0.014
-362.669	208.550	0.175	-0.274
-361.654	-200.000	0.017	-0.437
-360.639	-105.727	0.253	0.057
-359.625	-200.000	0.018	-0.123
-358.610	75.081	0.079	-0.084
-357.596	64.135	0.071	0.072
-356.581	-56.884	0.327	0.145
-355.566	14.872	-0.087	0.068
-354.552	751.999	0.066	0.179
-353.537	303.685	0.128	-0.237
-352.523	-28.781	-0.165	0.095
-351.508	-105.561	-0.233	0.053
-350.493	800.000	0.094	0.276
-349.479	800.000	-0.119	0.335
-348.464	177.096	-0.385	0.561
-347.450	-160.720	-0.117	0.006
-346.435	-31.262	-0.113	-0.064
-345.420	-98.906	0.315	-0.080
-344.406	-88.068	0.133	-0.040
-343.391	281.936	0.097	-0.175
-342.377	-40.296	-0.236	-0.123
-341.362	-200.000	-0.008	0.189
-340.348	800.000	-0.069	0.217
-339.333	-47.845	-0.101	0.049
-338.318	-90.099	0.267	-0.078
-337.304	-200.000	0.008	0.269
-336.289	-115.532	-0.154	0.029
-335.275	12.452	0.285	0.220
-334.260	325.653	-0.229	0.438
-333.245	-54.081	-0.137	0.063
-332.231	27.861	0.074	-0.062
-331.216	800.000	0.069	-0.191
-330.202	314.149	0.143	-0.270
-329.187	253.195	0.110	-0.188
-328.172	37.509	0.103	0.091
-327.158	218.036	0.041	0.065
-326.143	-164.989	-0.145	0.006
-325.129	-200.000	0.001	-0.079
-324.114	-92.136	0.194	-0.055
-323.099	146.388	0.016	-0.021
-322.085	227.456	-0.145	-0.236
-321.070	127.769	-0.109	0.138
-320.056	171.819	-0.094	-0.136
-319.041	475.149	0.145	-0.328
-318.026	10.482	-0.045	0.034
-317.012	627.207	-0.040	0.101
-315.997	-61.348	-0.167	0.070
-314.983	-146.568	0.346	-0.030
-313.968	-200.000	-0.009	-0.149
-312.953	-8.939	0.092	-0.062
-311.939	-160.011	-0.059	0.003
-310.924	-183.326	0.245	-0.004
-309.910	-200.000	-0.060	0.371
-308.895	-200.000	-0.053	0.343
-307.880	-200.000	-0.022	-0.118
-306.866	-153.986	-0.076	-0.005
-305.851	-200.000	0.034	0.543
-304.837	-200.000	-0.008	0.090
-303.822	800.000	-0.076	-0.274
-302.807	-200.000	-0.020	0.218
-301.793	684.491	0.103	0.269
-300.778	-117.754	-0.180	-0.032
-299.764	-125.737	-0.029	-0.004
-298.749	-141.996	-0.411	0.041
-297.735	-200.000	-0.148	-0.001
-296.720	-200.000	0.023	-0.219
-295.705	-200.000	-0.034	-0.181
-294.691	329.088	0.045	0.087
-293.676	244.871	-0.059	-0.099
-292.662	-12.155	0.187	0.122
-291.647	-1.397	0.206	0.145
-290.632	257.310	0.107	-0.184
-289.618	-42.286	0.088	-0.045
-288.603	-138.985	-0.443	0.048
-287.589	566.667	-0.020	-0.048
-286.574	800.000	0.028	-0.121
-285.559	-58.866	0.109	-0.047
-284.545	-35.241	-0.348	-0.190
-283.530	70.685	0.063	0.065
-282.516	-46.676	-0.109	0.053
-281.501	467.060	-0.065	0.146
-280.486	89.686	-0.172	0.191
-279.472	800.000	-0.097	-0.329
-278.457	259.914	0.064	0.110
-277.443	168.798	-0.129	-0.184
-276.428	424.898	0.136	0.292
-275.413	-33.417	0.176	-0.097
-274.399	-90.455	-0.320	-0.093
-273.384	685.438	0.071	0.185
-272.370	-200.000	-0.020	0.288
-271.355	188.834	-0.178	0.267
-270.340	297.268	0.057	0.104
-269.326	12.396	0.113	0.087
-268.311	-57.065	0.279	-0.123
-267.297	-200.000	-0.005	0.338
-266.282	627.214	0.067	-0.170
-265.267	-52.083	0.461	-0.214
-264.253	-94.358	0.328	-0.089
-263.238	300.025	-0.151	0.279
-262.224	365.857	-0.062	0.124
-261.209	800.000	-0.027	-0.109
-260.195	76.963	0.210	0.223
-259.180	8.633	-0.233	-0.176
-258.165	-200.000	0.002	0.152
-257.151	186.642	0.068	0.101
-256.136	304.542	-0.080	-0.148
-255.122	-59.984	-0.190	0.081
-254.107	-200.000	0.035	-0.000
-253.092	5.921	0.255	-0.188
-252.078	115.323	-0.018	0.022
-251.063	-168.194	0.225	0.009
-250.049	800.000	0.071	-0.207
-249.034	676.808	0.072	-0.187
-248.019	169.792	-0.180	-0.257
-247.005	105.429	0.189	0.223
-245.990	-29.273	0.181	0.104
-244.976	68.375	-0.150	-0.153
-243.961	-200.000	-0.031	0.236
-242.946	-200.000	-0.010	0.135
-241.932	131.954	0.353	0.453
-240.917	14.232	-0.362	0.282
-239.903	-147.675	-0.249	-0.021
-238.888	-18.080	0.105	0.065
-237.873	-128.450	-0.205	-0.029
-236.859	-135.333	-0.086	0.010
-235.844	96.614	-0.029	0.033
-234.830	248.499	0.282	0.476
-233.815	-8.180	0.126	0.084
-232.800	-11.062	0.147	-0.097
-231.786	-126.221	-0.302	0.045
-230.771	-27.997	0.075	-0.044
-229.757	-51.136	0.084	0.039
-228.742	-30.906	0.252	0.142
-227.727	44.151	0.188	-0.172
-226.713	143.309	0.077	-0.102
-225.698	-200.000	0.036	-0.194
-224.684	71.659	-0.160	-0.165
-223.669	-54.018	0.080	0.036
-222.655	12.071	0.291	0.223
-221.640	-83.571	0.047	0.015
-220.625	-58.010	0.147	-0.064
-219.611	7.686	-0.148	0.110
-218.596	373.220	0.013	-0.027
-217.582	-200.000	0.031	0.205
-216.567	-109.102	0.066	0.014
-215.552	-200.000	-0.030	-0.300
-214.538	-132.629	0.278	0.036
-213.523	121.589	0.075	-0.093
-212.509	-200.000	-0.038	-0.264
-211.494	-35.902	0.335	0.181
-210.479	46.530	0.148	-0.137
-209.465	211.251	0.197	-0.309
-208.450	232.789	0.094	-0.155
-207.436	78.328	0.396	0.422
-206.421	800.000	-0.034	0.104
-205.406	-97.896	0.105	-0.027
-204.392	-57.509	-0.047	-0.020
-203.377	-132.634	-0.460	0.059
-202.363	-73.352	0.094	-0.034
-201.348	-200.000	0.030	0.266
-200.333	78.060	-0.065	0.069
-199.319	-122.668	0.423	-0.068
-198.304	-200.000	0.017	0.225
-197.290	-200.000	-0.002	0.165
-196.275	-200.000	-0.024	-0.214
-195.260	163.771	-0.026	-0.036
-194.246	800.000	-0.005	-0.016
-193.231	212.106	0.084	-0.132
-192.217	30.972	0.243	0.207
-191.202	1.457	-0.258	-0.185
-190.187	-78.844	0.398	0.135
-189.173	-116.815	0.060	-0.011
-188.158	-116.679	-0.285	-0.052
-187.144	-44.964	0.429	-0.213
-186.129	0.741	-0.148	0.106
-185.114	682.343	-0.035	-0.091
-184.100	-94.075	0.217	-0.059
-183.085	168.512	-0.104	-0.148
-182.071	-200.000	-0.057	-0.281
-181.056	800.000	-0.072	-0.303
-180.042	-200.000	0.038	-0.426
-179.027	-0.136	-0.247	0.175
-178.012	-121.807	0.341	-0.056
-176.998	37.894	-0.088	0.078
-175.983	-137.586	0.245	-0.027
-174.969	-121.092	0.275	-0.046
-173.954	-171.964	0.277	-0.009
-172.939	32.101	0.111	-0.095
-171.925	48.654	0.065	0.061
-170.910	394.663	-0.146	-0.303
-169.896	-15.935	0.143	0.091
-168.881	52.922	-0.221	0.210
-167.866	-37.923	0.180	0.095
-166.852	-38.027	0.117	-0.062
-165.837	23.810	0.236	-0.194
-164.823	-31.639	-0.280	0.157
-163.808	96.715	-0.270	0.308
-162.793	142.441	0.030	-0.040
-161.779	292.756	-0.090	-0.163
-160.764	-200.000	0.006	-0.175
-159.750	41.747	-0.042	-0.038
-158.735	-200.000	0.017	0.291
-157.720	-200.000	0.036	-0.281
-156.706	-200.000	0.021	-0.110
-155.691	-200.000	0.041	0.624
-154.677	152.530	-0.075	0.102
-153.662	800.000	-0.137	-0.419
-152.647	-190.147	0.066	-0.001
-151.633	-107.502	0.348	0.076
-150.618	-66.152	0.143	-0.057
-149.604	800.000	-0.058	0.192
-148.589	-26.976	-0.249	0.145
-147.574	-134.376	-0.124	0.015
-146.560	-200.000	-0.017	-0.104
-145.545	-147.415	0.022	-0.002
-144.531	-200.000	0.004	-0.261
-143.516	345.771	-0.076	0.149
-142.502	689.209	0.171	0.445
-141.487	24.430	0.164	0.135
-140.472	-128.750	-0.015	-0.002
-139.458	-200.000	0.048	0.268
-138.443	316.916	-0.118	0.222
-137.429	598.528	0.118	0.291
-136.414	174.010	0.244	0.351
-135.399	-86.062	0.162	0.050
-134.385	-200.000	0.010	-0.312
-133.370	-108.403	0.506	-0.108
-132.356	-200.000	-0.047	-0.343
-131.341	800.000	0.085	0.368
-130.326	800.000	-0.091	0.321
-129.312	-116.221	0.159	0.029
-128.297	96.085	0.214	-0.243
-127.283	-135.315	0.175	-0.021
-126.268	800.000	0.089	-0.248
-125.253	-9.069	-0.329	-0.219
-124.239	271.481	-0.118	0.206
-123.224	-90.945	-0.263	0.075
-122.210	88.224	0.228	-0.252
-121.195	87.409	-0.161	0.177
-120.180	-200.000	-0.027	0.219
-119.166	428.770	0.116	-0.249
-118.151	0.633	0.083	-0.059
-117.137	-121.287	0.272	0.045
-116.122	78.102	-0.168	-0.178
-115.107	-94.342	0.227	-0.062
-114.093	800.000	-0.043	0.166
-113.078	126.291	-0.166	-0.209
-112.064	163.577	-0.171	0.239
-111.049	-13.427	0.188	0.121
-110.034	2.412	-0.098	0.070
-109.020	-200.000	0.003	-0.155
-108.005	167.211	-0.223	0.314
-106.991	-74.925	-0.059	0.021
-105.976	45.497	0.242	-0.222
-104.962	800.000	-0.100	-0.327
-103.947	-84.740	0.138	0.043
-102.932	535.152	0.090	0.212
-101.918	-200.000	-0.001	-0.074
-100.903	-200.000	-0.001	-0.012
-99.889	91.057	-0.141	0.157
-98.874	694.010	0.029	-0.076
-97.859	-56.064	-0.089	-0.039
-96.845	-200.000	-0.015	0.234
-95.830	234.877	-0.129	0.211
-94.816	514.592	0.172	-0.399
-93.801	-200.000	0.066	-0.312
-92.786	-36.640	-0.102	0.055
-91.772	-18.938	-0.281	-0.173
-90.757	156.297	-0.173	-0.237
-89.743	-200.000	0.011	-0.404
-88.728	161.194	0.135	-0.187
-87.713	-178.914	0.311	0.007
-86.699	144.270	-0.100	0.132
-85.684	-34.525	0.257	0.140
-84.670	699.339	-0.101	0.264
-83.655	-103.363	-0.080	0.019
-82.640	313.175	0.088	0.164
-81.626	-182.949	-0.233	-0.004
-80.611	-60.301	0.120	0.051
-79.597	-121.650	-0.195	0.032
-78.582	-49.227	0.096	0.045
-77.567	735.375	-0.049	0.129
-76.553	800.000	0.055	-0.221
-75.538	-76.895	-0.331	-0.115
-74.524	-53.680	-0.280	-0.127
-73.509	232.962	-0.165	0.268
-72.494	-200.000	0.029	-0.230
-71.480	-29.210	0.243	0.138
-70.465	-17.535	0.034	-0.021
-69.451	-200.000	-0.064	-0.417
-68.436	-200.000	0.006	-0.025
-67.422	40.327	0.059	0.052
-66.407	800.000	0.032	0.116
-65.392	46.501	-0.137	-0.126
-64.378	-83.538	-0.196	-0.062
-63.363	292.988	0.159	0.288
-62.349	800.000	-0.077	0.275
-61.334	70.452	-1.024	-1.050
-60.319	160.917	0.334	0.463
-59.305	800.000	-0.318	-0.960
-58.290	800.000	0.465	1.287
-57.276	800.000	0.507	1.505
-56.261	-200.000	94.158	523.291
-55.246	569.129	1373.824	3309.534
-54.232	184.660	2613.927	3839.201
-53.217	116.029	2223.998	2698.062
-52.203	44.856	1756.337	1601.676
-51.188	37.953	1564.737	1378.330
-50.173	35.484	1537.094	1336.764
-49.159	52.340	1587.492	1500.404
-48.144	55.654	1606.142	1541.473
-47.130	38.093	1562.239	1376.904
-46.115	34.910	1546.361	1340.585
-45.100	34.918	1542.776	1337.483
-44.086	34.846	1541.042	1335.421
-43.071	34.820	1538.974	1333.395
-42.057	34.759	1537.319	1331.488
-41.042	34.682	1536.482	1330.170
-40.027	34.702	1534.708	1328.718
-39.013	34.791	1532.653	1327.509
-37.998	34.804	1531.816	1326.821
-36.984	34.686	1531.218	1325.431
-35.969	34.740	1529.405	1324.181
-34.954	34.764	1528.146	1323.206
-33.940	34.668	1526.751	1321.279
-32.925	34.806	1524.655	1320.371
-31.911	34.785	1523.816	1319.444
-30.896	34.787	1522.384	1318.166
-29.881	34.783	1521.139	1317.008
-28.867	34.818	1519.838	1316.070
-27.852	34.699	1518.263	1313.836
-26.838	34.815	1516.760	1313.282
-25.823	34.775	1515.179	1311.583
-24.809	34.760	1513.383	1309.878
-23.794	34.777	1512.230	1308.942
-22.779	34.881	1510.811	1308.374
-21.765	34.831	1509.571	1306.905
-20.750	34.746	1508.387	1305.251
-19.736	34.842	1506.958	1304.612
-18.721	34.764	1506.040	1303.238
-17.706	34.756	1505.229	1302.431
-16.692	34.663	1504.418	1301.044
-15.677	34.764	1503.472	1300.862
-14.663	34.749	1502.499	1299.867
-13.648	34.704	1501.179	1298.365
-12.633	34.753	1499.876	1297.520
-11.619	34.778	1498.453	1296.403
-10.604	34.680	1498.280	1295.540
-9.590	34.706	1497.461	1294.956
-8.575	34.680	1496.817	1294.168
-7.560	34.716	1496.008	1293.664
-6.546	34.768	1494.947	1293.046
-5.531	34.709	1494.099	1291.862
-4.517	34.729	1492.918	1290.928
-3.502	34.738	1492.458	1290.539
-2.487	34.746	1491.091	1289.361
-1.473	34.756	1490.016	1288.448
-0.458	34.613	1489.087	1286.630
0.556	33.041	1479.131	1276.673
1.571	30.362	1451.865	1235.229
2.586	27.114	1389.501	1161.342
3.600	25.724	1306.340	1083.385
4.615	24.216	1259.555	1035.735
5.629	19.987	1200.409	963.533
6.644	9.365	1109.517	835.590
7.659	1.447	1066.024	763.115
8.673	0.416	1060.284	753.789
9.688	0.160	1057.374	750.377
10.702	-0.016	1056.101	748.530
11.717	-0.029	1054.189	747.048
12.731	3.667	1058.704	768.598
13.746	13.935	1073.292	830.710
14.761	20.950	1082.464	872.995
15.775	22.021	1082.967	878.686
16.790	21.908	1082.910	877.996
17.804	21.849	1082.141	877.000
18.819	21.722	1080.820	875.216
19.834	21.797	1079.816	874.702
20.848	21.897	1079.681	875.014
21.863	21.985	1079.341	875.098
22.877	21.936	1078.782	874.327
23.892	21.947	1078.149	873.789
24.907	21.696	1077.655	872.061
25.921	21.962	1076.474	872.353
26.936	21.902	1075.879	871.494
27.950	21.815	1074.912	870.200
28.965	21.753	1073.504	868.679
29.980	21.693	1071.507	866.690
30.994	21.705	1070.380	865.760
32.009	21.816	1069.593	865.597
33.023	21.957	1069.231	865.924
34.038	21.766	1068.136	864.019
35.053	21.720	1067.270	863.014
36.067	21.953	1066.189	863.206
37.082	21.919	1065.372	862.305
38.096	22.027	1064.531	862.076
39.111	22.077	1064.195	861.973
40.126	22.258	1062.997	861.814
41.140	22.132	1062.261	860.522
42.155	21.859	1060.688	857.840
43.169	21.490	1059.758	855.207
44.184	21.479	1058.463	854.031
45.199	21.584	1057.472	853.670
46.213	21.522	1056.324	852.365
47.228	21.466	1055.432	851.297
48.242	21.676	1054.384	851.398
49.257	21.741	1054.018	851.340
50.271	21.854	1053.312	851.245
51.286	21.844	1052.524	850.484
52.301	21.909	1051.818	850.154
53.315	21.965	1050.708	849.452
54.330	21.899	1049.986	848.476
55.344	21.782	1049.091	847.109
56.359	21.952	1048.132	847.083
57.374	21.840	1047.580	846.020
58.388	21.594	1046.621	843.987
59.403	21.622	1045.847	843.423
60.417	21.704	1044.530	842.679
61.432	21.587	1043.860	841.503
62.447	21.640	1043.309	841.239
63.461	21.541	1043.224	840.620
64.476	21.729	1042.048	840.502
65.490	21.566	1041.017	838.812
66.505	21.628	1040.035	838.243
67.520	21.570	1039.542	837.497
68.534	21.643	1038.922	837.269
69.549	21.598	1037.330	835.701
70.563	21.241	1036.273	833.073
71.578	21.149	1035.760	832.146
72.593	21.177	1034.588	831.266
73.607	21.131	1033.422	830.037
74.622	21.090	1032.441	828.977
75.636	21.361	1031.987	829.827
76.651	21.465	1031.465	829.826
77.666	21.414	1030.309	828.583
78.680	21.175	1029.555	826.770
79.695	21.410	1028.482	826.949
80.709	21.432	1028.191	826.748
81.724	21.470	1027.467	826.271
82.739	21.530	1026.621	825.801
83.753	21.479	1025.946	824.944
84.768	21.841	1025.262	826.024
85.782	22.076	1024.661	826.573
86.797	22.112	1024.154	826.263
87.812	22.122	1023.193	825.459
88.826	21.988	1021.550	823.433
89.841	22.021	1020.786	822.897
90.855	22.194	1019.672	822.736
91.870	22.168	1019.246	822.200
92.884	22.129	1018.587	821.415
93.899	21.944	1018.307	820.251
94.914	21.808	1016.857	818.374
95.928	22.036	1016.296	818.912
96.943	22.030	1015.364	818.062
97.957	21.811	1014.231	816.059
98.972	21.593	1013.284	814.210
99.987	21.282	1012.023	811.680
101.001	21.399	1011.724	811.910
102.016	21.765	1010.912	812.886
103.030	21.812	1009.768	812.110
104.045	21.710	1009.026	810.973
105.060	21.638	1007.637	809.451
106.074	21.478	1006.086	807.394
107.089	21.508	1005.509	806.998
108.103	21.805	1005.037	807.918
109.118	21.958	1004.253	807.920
110.133	21.681	1002.999	805.568
111.147	21.701	1001.888	804.695
112.162	21.464	1000.750	802.623
113.176	21.421	999.391	801.263
114.191	21.477	998.811	800.985
115.206	21.432	998.100	800.138
116.220	21.275	996.667	798.200
117.235	21.184	995.586	796.849
118.249	21.332	994.988	796.976
119.264	21.502	993.844	796.760
120.279	21.132	993.211	794.499
121.293	21.175	992.291	793.888
122.308	21.271	992.110	794.112
123.322	21.356	990.755	793.343
124.337	21.372	989.429	792.284
125.352	21.304	988.497	791.159
126.366	20.789	986.615	787.254
127.381	20.546	985.064	784.848
128.395	21.079	985.457	787.501
129.410	21.727	984.745	789.785
130.424	21.879	984.324	790.060
131.439	21.787	983.632	789.023
132.454	21.759	982.556	787.961
133.468	21.771	981.351	786.978
134.483	21.736	980.493	786.063
135.497	21.775	980.045	785.810
136.512	21.932	979.359	785.893
137.527	22.056	978.699	785.850
138.541	22.105	977.629	785.141
139.556	22.015	977.293	784.399
140.570	22.034	976.295	783.614
141.585	21.998	975.499	782.748
142.600	22.097	974.294	782.151
143.614	21.860	973.920	780.726
144.629	22.162	972.908	781.188
145.643	22.270	972.170	781.008
146.658	22.164	971.051	779.566
147.673	22.062	969.566	777.855
148.687	21.878	969.056	776.562
149.702	21.848	967.730	775.298
150.716	21.738	966.582	773.826
151.731	21.757	965.709	773.139
152.746	21.896	964.764	772.930
153.760	22.015	964.239	772.965
154.775	22.146	964.057	773.327
155.789	22.104	962.864	772.118
156.804	22.182	962.162	771.827
157.819	21.983	961.145	770.070
158.833	22.063	960.367	769.730
159.848	22.370	958.830	769.773
160.862	22.400	958.282	769.397
161.877	22.122	957.918	767.820
162.892	22.158	956.358	766.657
163.906	22.105	955.932	766.018
164.921	21.964	955.093	764.662
165.935	22.154	953.737	764.338
166.950	22.372	952.522	764.245
167.964	22.157	951.624	762.520
168.979	22.078	950.708	761.377
169.994	22.045	949.740	760.394
171.008	21.846	948.438	758.424
172.023	21.977	948.099	758.649
173.037	22.164	947.388	758.822
174.052	22.016	945.942	756.959
175.067	21.762	945.396	755.360
176.081	21.945	944.135	755.071
177.096	22.012	943.227	754.568
178.110	21.999	942.743	754.059
179.125	21.736	941.657	751.995
180.140	21.526	940.157	749.831
181.154	21.535	939.700	749.440
182.169	21.651	939.318	749.564
183.183	21.827	939.048	750.036
184.198	21.983	938.739	750.388
185.213	22.045	937.958	749.962
186.227	21.942	936.886	748.602
187.242	21.939	936.939	748.563
188.256	22.055	935.800	748.081
189.271	22.118	934.757	747.448
190.286	22.109	934.631	747.244
191.300	22.053	933.596	746.111
192.315	21.493	931.903	742.319
193.329	20.982	930.328	738.833
194.344	20.439	929.254	735.616
195.359	21.035	929.462	738.241
196.373	21.829	929.895	741.878
197.388	21.935	929.994	742.342
198.402	21.951	928.775	741.368
199.417	21.878	928.375	740.677
200.432	21.949	927.603	740.293
201.446	21.881	926.871	739.357
202.461	21.591	926.007	737.383
203.475	21.595	925.842	737.203
204.490	21.205	924.238	734.222
205.504	20.064	922.152	727.711
206.519	20.493	922.012	729.335
207.534	21.443	922.627	733.743
208.548	21.604	921.618	733.553
209.563	21.848	921.785	734.641
210.577	21.873	920.996	734.051
211.592	21.738	920.134	732.735
212.607	21.899	920.397	733.554
213.621	22.186	919.375	733.872
214.636	22.124	918.408	732.779
215.650	22.232	918.086	732.907
216.665	22.108	917.366	731.751
217.680	22.195	917.218	731.929
218.694	22.363	915.962	731.560
219.709	21.866	915.648	729.180
220.723	21.661	914.442	727.302
221.738	21.766	913.967	727.298
222.753	21.833	913.637	727.248
223.767	21.963	912.655	726.941
224.782	22.014	911.920	726.501
225.796	22.164	911.566	726.778
226.811	22.426	910.867	727.238
227.826	21.928	909.674	724.164
228.840	21.201	907.915	719.704
229.855	21.060	907.367	718.626
230.869	21.246	907.204	719.200
231.884	20.909	906.197	716.951
232.899	21.072	905.359	716.894
233.913	21.652	906.136	719.832
234.928	21.891	905.713	720.413
235.942	21.802	905.346	719.692
236.957	21.912	903.649	718.731
237.972	21.719	903.024	717.378
238.986	21.620	901.902	716.020
240.001	21.682	901.797	716.128
241.015	21.606	901.140	715.231
242.030	21.707	900.301	714.915
243.045	21.842	899.879	715.066
244.059	21.867	899.723	714.980
245.074	22.200	899.240	715.892
246.088	22.146	898.112	714.709
247.103	21.705	896.943	711.922
248.117	21.852	896.441	712.059
249.132	22.373	896.381	714.062
250.147	22.626	896.342	714.995
251.161	22.597	895.485	714.132
252.176	22.911	895.133	715.059
253.190	22.893	894.635	714.526
254.205	22.816	894.224	713.824
255.220	22.952	893.519	713.745
256.234	22.909	892.909	713.022
257.249	22.975	892.125	712.599
258.263	22.774	891.480	711.212
259.278	22.749	890.743	710.458
260.293	22.801	890.328	710.274
261.307	22.903	890.015	710.370
262.322	22.808	889.104	709.201
263.336	22.734	888.422	708.295
264.351	22.257	886.909	705.114
265.366	21.141	885.038	699.099
266.380	20.771	884.211	696.900
267.395	21.619	884.876	700.758
268.409	22.397	884.783	703.736
269.424	22.255	884.149	702.603
270.439	22.414	883.780	702.883
271.453	22.572	882.987	702.820
272.468	22.578	882.267	702.207
273.482	22.953	881.347	702.904
274.497	22.993	881.311	702.973
275.512	22.685	879.973	700.621
276.526	22.214	878.997	697.910
277.541	22.279	878.686	697.862
278.555	22.820	878.292	699.631
279.570	22.523	877.515	697.776
280.585	22.383	876.713	696.523
281.599	22.452	876.123	696.262
282.614	22.446	876.239	696.269
283.628	22.176	874.810	694.006
284.643	21.703	874.166	691.567
285.657	22.174	874.103	693.317
286.672	22.075	873.231	692.171
287.687	21.607	872.185	689.441
288.701	21.924	872.075	690.541
289.716	22.335	871.837	691.909
290.730	21.980	870.765	689.601
291.745	21.958	870.234	689.033
292.760	21.789	869.156	687.456
293.774	21.626	868.397	686.156
294.789	22.506	868.995	690.014
295.803	23.119	869.249	692.558
296.818	23.192	868.830	692.446
297.833	23.336	867.903	692.210
298.847	23.056	866.817	690.192
299.862	22.701	865.723	687.875
300.876	22.945	865.137	688.298
301.891	23.228	865.052	689.272
302.906	23.195	864.318	688.499
303.920	22.796	863.312	686.085
304.935	22.652	862.647	684.936
305.949	23.095	862.627	686.580
306.964	23.142	862.042	686.236
307.979	22.767	861.641	684.400
308.993	22.894	861.020	684.340
310.008	23.085	860.843	684.878
311.022	23.444	859.865	685.429
312.037	23.307	859.206	684.315
313.052	22.890	859.045	682.513
314.066	22.839	858.479	681.805
315.081	22.197	856.612	677.790
316.095	21.546	855.293	674.178
317.110	22.021	855.547	676.150
318.125	22.710	855.865	678.995
319.139	22.408	854.882	676.992
320.154	21.408	852.882	671.508
321.168	20.857	852.064	668.692
322.183	21.486	852.243	671.189
323.197	22.286	852.592	674.473
324.212	22.756	852.089	675.815
325.227	22.905	851.753	676.057
326.241	23.028	851.339	676.142
327.256	22.807	850.940	674.917
328.270	22.910	849.902	674.430
329.285	22.716	849.491	673.302
330.300	22.653	848.552	672.258
331.314	22.475	847.465	670.660
332.329	22.413	847.276	670.215
333.343	22.889	846.819	671.606
334.358	23.023	846.835	672.069
335.373	22.993	846.234	671.419
336.387	22.990	845.656	670.887
337.402	23.274	845.068	671.440
338.416	23.474	844.753	671.890
339.431	23.382	844.259	671.087
340.446	23.506	843.500	670.894
341.460	23.615	843.018	670.863
342.475	23.608	842.482	670.351
343.489	23.303	841.754	668.561
344.504	23.393	841.223	668.419
345.519	23.769	840.534	669.230
346.533	23.840	840.679	669.554
347.548	23.844	840.338	669.237
348.562	23.918	839.477	668.772
349.577	23.853	839.227	668.268
350.592	23.951	838.133	667.705
351.606	23.742	837.967	666.728
352.621	23.731	837.516	666.272
353.635	23.722	836.784	665.595
354.650	23.570	836.641	664.852
355.665	23.158	835.959	662.709
356.679	22.427	833.263	657.785
357.694	22.087	833.243	656.438
358.708	22.831	833.142	659.080
359.723	22.649	832.814	658.084
360.738	22.910	832.264	658.563
361.752	23.389	832.453	660.439
362.767	23.380	832.107	660.076
363.781	23.816	831.734	661.345
364.796	23.984	831.687	661.871
365.810	24.146	831.074	661.928
366.825	24.253	830.301	661.651
367.840	24.227	830.467	661.629
368.854	23.995	829.382	659.846
369.869	23.745	828.466	658.131
370.883	23.473	828.156	656.820
371.898	23.632	827.475	656.810
372.913	23.530	826.648	655.719
373.927	23.490	826.137	655.107
374.942	23.481	825.787	654.739
375.956	23.569	825.170	654.516
376.971	23.959	824.484	655.350
377.986	23.866	824.068	654.619
379.000	24.020	823.777	654.899
380.015	24.112	823.268	654.773
381.029	24.036	822.306	653.672
382.044	23.864	821.932	652.686
383.059	24.135	821.358	653.164
384.073	24.159	820.818	652.765
385.088	24.222	820.028	652.311
386.102	24.198	819.781	651.967
387.117	23.936	818.957	650.297
388.132	23.991	818.384	649.988
389.146	23.921	817.668	649.106
390.161	23.007	816.906	645.108
391.175	23.188	816.434	645.340
392.190	23.670	816.553	647.132
393.205	23.648	816.340	646.824
394.219	22.772	814.384	642.032
395.234	21.319	811.724	634.609
396.248	20.598	810.876	631.272
397.263	21.544	811.915	635.462
398.278	23.280	813.372	642.855
399.292	23.768	812.998	644.272
400.307	23.443	812.408	642.570
401.321	23.412	811.723	641.856
402.336	23.468	811.825	642.084
403.350	23.528	811.767	642.200
404.365	24.149	811.491	644.172
405.380	24.507	811.253	645.217
406.394	24.834	810.879	646.045
407.409	24.888	810.333	645.748
408.423	24.829	810.011	645.222
409.438	24.687	809.366	644.137
410.453	24.836	808.982	644.314
411.467	24.756	808.467	643.558
412.482	24.783	808.026	643.248
413.496	24.880	807.337	642.991
414.511	24.834	806.967	642.474
415.526	24.776	806.618	641.930
416.540	24.768	806.650	641.870
417.555	24.621	806.323	641.026
418.569	24.531	804.788	639.426
419.584	24.545	804.152	638.914
420.599	24.445	804.177	638.519
421.613	153.134	1364.594	1792.257
422.628	132.910	1446.271	1792.374
