DTS Sentinel unit serial number:	SN413079Multiplexer serial number:	ORYXHardware model number:	OX4-SRSoftware version number:	ORYX F/W v4.00 Oryx Data Collector v3.7.2.0data status	okinstallation	princeton_trtdifferential loss correction	single-endedforward channel	channel 3reverse channel	N/Adate	2019/09/11time	19:54:11forward acquisition time	60.00reverse acquisition time	0.00gamma	496.2192k internal	0.2299k external	0.2299temperature offset calibration	1.0018default loss term (dB/km)	0.3790temperature slope calibration	1.0000multiplexer offset coefficient	1.0000multiplexer slope coefficient	1.0000fibre end	0.00T internal ref (°C)	39.11T ext. ref 1 (°C)	1.37T ext. ref 2 (°C)	32.01length (m)	temperature (°C)	Stokes	anti-Stokes-747.200	407.239	0.094	-0.202
-746.185	-200.000	-0.039	0.321
-745.171	-38.305	0.321	-0.173
-744.156	-200.000	-0.076	0.406
-743.142	-200.000	-0.019	0.339
-742.127	-32.102	0.237	0.135
-741.112	-200.000	0.003	0.146
-740.098	218.732	-0.233	0.380
-739.083	-200.000	0.013	0.128
-738.069	-124.713	-0.145	0.023
-737.054	-132.039	-0.131	0.017
-736.039	457.193	-0.165	0.375
-735.025	-62.168	0.085	-0.036
-734.010	-58.805	0.222	0.098
-732.996	-200.000	0.009	0.224
-731.981	800.000	0.135	-0.558
-730.966	604.084	0.048	0.121
-729.952	-61.432	0.174	0.075
-728.937	800.000	-0.050	-0.160
-727.923	800.000	-0.019	-0.069
-726.908	29.751	-0.120	0.105
-725.894	49.193	-0.265	-0.254
-724.879	424.721	-0.017	-0.037
-723.864	-55.330	-0.289	-0.132
-722.850	132.026	0.142	0.187
-721.835	-35.115	0.030	0.017
-720.821	399.214	-0.124	0.266
-719.806	-54.106	0.447	-0.207
-718.791	800.000	0.087	-0.287
-717.777	-200.000	0.009	0.286
-716.762	101.381	-0.069	0.082
-715.748	575.730	-0.069	0.171
-714.733	-200.000	0.043	-0.372
-713.718	-172.062	-0.117	-0.004
-712.704	-30.046	-0.252	-0.146
-711.689	-106.143	-0.459	-0.105
-710.675	800.000	0.070	-0.290
-709.660	-15.213	-0.166	-0.108
-708.645	800.000	0.057	-0.209
-707.631	116.344	0.068	0.085
-706.616	800.000	-0.030	0.096
-705.602	-85.786	-0.276	0.087
-704.587	-148.851	0.204	0.017
-703.572	-31.786	0.151	-0.086
-702.558	621.192	0.134	0.344
-701.543	-200.000	0.023	0.312
-700.529	5.889	-0.295	0.222
-699.514	236.079	-0.117	0.198
-698.499	560.685	-0.039	-0.096
-697.485	-30.261	0.172	-0.100
-696.470	-200.000	-0.020	-0.178
-695.456	-147.906	0.222	-0.019
-694.441	-21.774	-0.106	-0.066
-693.426	800.000	-0.077	-0.333
-692.412	-3.941	-0.048	0.034
-691.397	37.932	-0.137	-0.124
-690.383	153.937	0.158	-0.220
-689.368	-35.735	0.091	0.050
-688.354	800.000	-0.067	0.274
-687.339	-200.000	-0.014	-0.195
-686.324	-37.098	-0.073	0.040
-685.310	-104.026	0.259	0.061
-684.295	132.809	-0.175	0.230
-683.281	-82.028	0.307	0.102
-682.266	800.000	-0.066	-0.280
-681.251	-200.000	0.047	0.369
-680.237	107.311	-0.167	-0.203
-679.222	-77.086	0.228	-0.081
-678.208	-22.775	0.313	-0.192
-677.193	280.387	-0.061	-0.110
-676.178	-163.038	0.115	0.006
-675.164	413.627	-0.087	0.189
-674.149	-161.159	-0.293	-0.016
-673.135	-200.000	0.004	-0.187
-672.120	-200.000	0.022	-0.429
-671.105	10.287	-0.138	-0.106
-670.091	745.138	0.057	-0.155
-669.076	800.000	0.064	-0.255
-668.062	93.371	-0.184	-0.212
-667.047	-146.843	0.108	0.009
-666.032	256.216	-0.189	-0.331
-665.018	-149.488	0.276	-0.022
-664.003	-200.000	-0.017	0.153
-662.989	-50.110	0.220	0.106
-661.974	120.096	0.212	0.268
-660.959	-15.006	-0.146	0.095
-659.945	800.000	-0.089	0.286
-658.930	263.097	-0.167	0.295
-657.916	-90.333	-0.332	-0.098
-656.901	-200.000	-0.026	0.363
-655.886	106.858	-0.239	-0.288
-654.872	-163.132	-0.148	-0.007
-653.857	229.912	0.137	-0.228
-652.843	455.161	-0.038	0.086
-651.828	800.000	-0.042	0.167
-650.814	-200.000	-0.030	0.145
-649.799	800.000	0.077	-0.302
-648.784	-34.994	0.166	0.092
-647.770	800.000	0.033	0.097
-646.755	46.269	0.172	0.162
-645.741	-200.000	-0.020	-0.100
-644.726	-200.000	0.013	-0.495
-643.711	-118.625	-0.068	-0.012
-642.697	-56.793	-0.140	0.063
-641.682	-115.976	0.192	0.036
-640.668	-28.384	-0.251	-0.147
-639.653	437.217	0.035	-0.077
-638.638	-200.000	-0.057	0.339
-637.624	-40.298	0.281	0.148
-636.609	-47.436	-0.356	-0.176
-635.595	46.735	0.117	0.110
-634.580	87.716	-0.061	-0.069
-633.565	-200.000	-0.046	-0.432
-632.551	-173.537	0.413	0.013
-631.536	-28.856	-0.078	-0.045
-630.522	-93.352	-0.328	0.092
-629.507	43.545	0.212	-0.197
-628.492	800.000	0.065	-0.227
-627.478	800.000	-0.066	0.273
-626.463	695.844	0.086	0.230
-625.449	159.296	0.102	-0.144
-624.434	-143.745	0.116	-0.011
-623.419	-200.000	0.007	-0.201
-622.405	-200.000	0.015	0.205
-621.390	-125.581	-0.108	0.017
-620.376	-138.351	-0.083	0.009
-619.361	-12.164	-0.160	0.106
-618.346	-46.007	0.074	0.037
-617.332	694.842	0.025	0.068
-616.317	681.117	0.104	-0.274
-615.303	243.334	-0.081	-0.137
-614.288	288.574	-0.095	-0.174
-613.273	16.197	-0.076	-0.060
-612.259	-16.501	-0.053	0.034
-611.244	114.039	-0.269	0.332
-610.230	384.000	-0.127	0.265
-609.215	-3.791	-0.095	0.067
-608.201	-86.549	0.322	-0.100
-607.186	-170.163	-0.172	-0.006
-606.171	800.000	-0.024	-0.068
-605.157	-22.043	-0.083	-0.051
-604.142	-194.583	0.128	-0.001
-603.128	-167.145	-0.188	0.008
-602.113	5.455	-0.089	-0.067
-601.098	100.423	0.237	0.279
-600.084	-149.258	0.322	0.026
-599.069	48.138	0.060	-0.057
-598.055	-81.257	-0.318	0.106
-597.040	772.407	0.068	0.188
-596.025	503.498	0.136	0.320
-595.011	-130.185	0.257	0.035
-593.996	93.533	0.168	0.193
-592.982	-200.000	0.015	0.083
-591.967	-66.260	-0.026	0.010
-590.952	79.134	-0.288	0.313
-589.938	-200.000	-0.023	-0.384
-588.923	-160.811	-0.241	0.013
-587.909	-24.067	0.067	0.040
-586.894	38.471	-0.148	-0.133
-585.879	-70.866	-0.413	0.158
-584.865	-35.550	-0.379	-0.208
-583.850	-56.616	0.120	0.054
-582.836	-200.000	0.048	-0.275
-581.821	491.159	-0.144	-0.335
-580.806	623.903	-0.040	-0.102
-579.792	800.000	0.034	-0.097
-578.777	242.974	0.060	0.103
-577.763	-200.000	0.050	0.271
-576.748	-44.862	0.350	-0.177
-575.733	353.697	0.132	0.265
-574.719	800.000	-0.053	0.163
-573.704	31.245	-0.112	-0.098
-572.690	800.000	-0.036	0.105
-571.675	-9.532	-0.169	-0.114
-570.661	-162.988	-0.025	0.001
-569.646	99.985	0.204	0.240
-568.631	-93.823	-0.208	-0.058
-567.617	3.646	-0.049	0.036
-566.602	800.000	0.004	0.013
-565.588	-136.563	0.195	0.023
-564.573	-24.499	-0.109	-0.066
-563.558	-51.516	0.354	0.167
-562.544	-200.000	-0.012	0.091
-561.529	-200.000	-0.059	0.291
-560.515	-17.752	0.221	-0.140
-559.500	-112.884	0.283	0.057
-558.485	410.302	0.132	-0.284
-557.471	-169.183	-0.193	-0.007
-556.456	-83.945	0.151	0.049
-555.442	-10.011	0.098	0.066
-554.427	-200.000	0.033	0.202
-553.412	-200.000	0.007	-0.056
-552.398	-82.043	-0.086	0.028
-551.383	207.450	-0.158	-0.249
-550.369	-81.146	-0.087	0.029
-549.354	-200.000	-0.018	-0.330
-548.339	307.761	-0.069	-0.130
-547.325	800.000	-0.045	0.159
-546.310	-118.735	0.284	-0.051
-545.296	-200.000	0.063	-0.338
-544.281	-87.773	-0.216	-0.066
-543.266	147.289	-0.008	-0.011
-542.252	-103.418	0.082	-0.020
-541.237	-200.000	-0.041	0.222
-540.223	-200.000	0.017	-0.121
-539.208	-200.000	-0.005	-0.112
-538.193	-69.955	-0.263	0.101
-537.179	22.670	-0.121	0.100
-536.164	199.819	0.127	-0.197
-535.150	-39.459	-0.111	-0.059
-534.135	-82.009	0.361	0.119
-533.121	-114.835	0.337	-0.065
-532.106	-87.732	0.170	0.052
-531.091	553.075	-0.180	-0.437
-530.077	7.321	0.260	-0.196
-529.062	140.844	0.327	-0.437
-528.048	229.588	-0.176	0.291
-527.033	146.216	-0.110	-0.149
-526.018	-200.000	0.045	0.354
-525.004	222.483	-0.163	0.265
-523.989	244.898	-0.115	0.195
-522.975	800.000	-0.031	-0.091
-521.960	-200.000	0.058	-0.495
-520.945	491.529	0.097	-0.224
-519.931	-63.007	-0.113	-0.047
-518.916	15.448	-0.040	-0.032
-517.902	-200.000	0.009	-0.288
-516.887	-200.000	-0.035	0.329
-515.872	-17.504	-0.385	-0.245
-514.858	271.929	-0.223	-0.398
-513.843	-165.626	-0.177	0.008
-512.829	354.829	0.056	-0.113
-511.814	32.109	0.292	-0.254
-510.799	-200.000	0.015	0.112
-509.785	-99.719	0.222	-0.056
-508.770	14.241	-0.078	0.061
-507.756	-37.323	0.183	-0.099
-506.741	-200.000	0.034	0.169
-505.726	-50.742	-0.348	-0.165
-504.712	-37.329	-0.116	0.063
-503.697	-200.000	0.358	0.002
-502.683	275.022	0.030	-0.054
-501.668	-136.806	-0.152	0.018
-500.653	-38.128	0.147	0.079
-499.639	283.103	0.018	0.032
-498.624	112.273	0.081	0.099
-497.610	-150.616	-0.518	-0.040
-496.595	27.556	-0.264	-0.224
-495.581	-84.598	0.102	-0.032
-494.566	147.601	0.215	0.292
-493.551	121.825	0.078	-0.098
-492.537	8.837	-0.199	-0.152
-491.522	-50.299	0.371	-0.177
-490.508	-109.003	-0.316	0.068
-489.493	-30.153	0.041	-0.023
-488.478	126.250	-0.040	0.051
-487.464	258.575	0.069	0.119
-486.449	382.196	0.039	0.081
-485.435	-200.000	-0.035	0.243
-484.420	-88.470	-0.101	0.030
-483.405	-200.000	-0.040	0.205
-482.391	-200.000	0.010	-0.203
-481.376	800.000	-0.051	0.159
-480.362	-145.912	-0.151	-0.013
-479.347	434.372	-0.024	0.053
-478.332	137.176	0.046	-0.061
-477.318	-200.000	-0.041	-0.201
-476.303	-47.729	-0.152	0.074
-475.289	129.069	-0.165	-0.212
-474.274	-200.000	-0.004	-0.246
-473.259	152.706	0.141	-0.195
-472.245	-99.489	-0.274	-0.070
-471.230	1.536	0.155	0.113
-470.216	-200.000	-0.028	0.305
-469.201	-141.413	-0.274	0.028
-468.186	100.226	0.113	-0.133
-467.172	800.000	-0.071	-0.263
-466.157	120.996	-0.225	-0.283
-465.143	-200.000	0.042	-0.208
-464.128	218.236	-0.066	-0.106
-463.113	-62.594	0.118	0.049
-462.099	-116.226	0.227	0.043
-461.084	800.000	-0.091	0.393
-460.070	800.000	-0.066	0.279
-459.055	-103.764	0.197	0.047
-458.040	-2.901	-0.145	0.102
-457.026	-122.338	0.195	0.032
-456.011	800.000	-0.024	-0.093
-454.997	268.823	-0.081	0.144
-453.982	-200.000	0.031	0.223
-452.968	-200.000	0.037	0.216
-451.953	3.282	-0.450	0.331
-450.938	-47.094	0.246	-0.121
-449.924	707.933	-0.059	-0.156
-448.909	-2.079	0.194	-0.137
-447.895	800.000	0.089	-0.333
-446.880	-147.243	-0.413	0.035
-445.865	-118.401	0.180	-0.032
-444.851	-89.995	0.132	-0.039
-443.836	-200.000	-0.010	0.121
-442.822	-200.000	0.055	-0.276
-441.807	-143.051	0.151	-0.015
-440.792	474.227	0.142	0.323
-439.778	52.053	0.160	-0.154
-438.763	-85.464	0.276	0.087
-437.749	163.177	0.288	-0.408
-436.734	104.293	-0.244	0.289
-435.719	18.597	-0.250	0.201
-434.705	262.433	-0.105	0.183
-433.690	162.809	0.101	-0.143
-432.676	-28.253	0.279	0.163
-431.661	-30.920	-0.084	-0.048
-430.646	263.588	0.123	-0.215
-429.632	800.000	-0.033	-0.103
-428.617	-200.000	-0.025	-0.175
-427.603	-63.923	-0.167	-0.069
-426.588	277.772	-0.124	-0.223
-425.573	-12.898	-0.175	0.115
-424.559	520.820	0.076	-0.179
-423.544	-3.178	0.046	0.032
-422.530	-74.552	0.332	0.120
-421.515	-31.875	-0.302	-0.170
-420.500	-112.123	0.333	0.068
-419.486	198.320	0.091	-0.141
-418.471	-200.000	0.029	0.143
-417.457	-133.288	0.110	-0.014
-416.442	800.000	0.111	0.362
-415.428	681.248	-0.027	-0.070
-414.413	-200.000	-0.052	0.378
-413.398	-110.093	-0.076	0.016
-412.384	57.917	0.166	-0.164
-411.369	-117.872	0.272	0.049
-410.355	800.000	0.046	-0.191
-409.340	800.000	-0.035	0.101
-408.325	-121.967	-0.287	0.047
-407.311	205.624	-0.167	-0.261
-406.296	-200.000	0.013	0.104
-405.282	74.928	-0.141	-0.150
-404.267	-58.775	0.120	-0.052
-403.252	325.929	0.181	-0.348
-402.238	218.843	0.082	-0.132
-401.223	197.683	0.161	-0.247
-400.209	-200.000	-0.009	0.223
-399.194	800.000	-0.058	-0.199
-398.179	215.612	-0.091	-0.146
-397.165	-86.983	-0.266	-0.082
-396.150	224.806	-0.038	0.063
-395.136	-200.000	0.050	0.304
-394.121	471.634	-0.061	0.139
-393.106	106.674	0.149	0.178
-392.092	-114.866	-0.239	0.046
-391.077	349.734	-0.096	0.192
-390.063	180.537	0.094	-0.139
-389.048	76.296	0.159	-0.169
-388.033	-32.307	0.130	-0.073
-387.019	-92.397	-0.268	-0.076
-386.004	427.980	0.086	0.187
-384.990	9.338	0.211	0.161
-383.975	-100.193	-0.371	0.093
-382.960	-139.024	0.095	0.010
-381.946	24.557	0.197	0.164
-380.931	467.250	-0.068	0.152
-379.917	-14.806	0.224	0.145
-378.902	110.709	-0.166	0.201
-377.888	-92.635	-0.320	-0.090
-376.873	-200.000	-0.048	0.348
-375.858	109.927	0.040	-0.049
-374.844	-200.000	0.019	0.171
-373.829	-165.046	-0.273	0.012
-372.815	-164.369	-0.232	0.011
-371.800	800.000	0.073	0.249
-370.785	-200.000	0.006	0.073
-369.771	90.184	-0.055	0.062
-368.756	-67.395	-0.226	-0.089
-367.742	-200.000	0.039	0.319
-366.727	-200.000	0.017	0.189
-365.712	-16.245	0.258	0.165
-364.698	-200.000	-0.011	0.189
-363.683	-90.471	0.269	0.078
-362.669	146.977	-0.145	0.196
-361.654	75.128	-0.078	-0.083
-360.639	-200.000	-0.022	-0.187
-359.625	-200.000	-0.027	-0.190
-358.610	-139.029	0.313	0.034
-357.596	23.400	-0.275	-0.227
-356.581	-48.080	-0.192	0.093
-355.566	-108.372	-0.325	0.070
-354.552	63.431	-0.083	-0.084
-353.537	221.889	0.033	-0.053
-352.523	245.292	0.123	0.208
-351.508	800.000	0.023	0.069
-350.493	800.000	0.104	-0.292
-349.479	-52.452	-0.170	0.079
-348.464	-28.349	0.213	-0.124
-347.450	186.340	0.020	0.029
-346.435	800.000	-0.058	0.164
-345.420	39.816	0.266	0.240
-344.406	63.584	-0.100	0.101
-343.391	800.000	-0.080	-0.302
-342.377	-200.000	0.030	0.287
-341.362	300.425	-0.094	0.174
-340.348	-79.501	0.126	-0.043
-339.333	800.000	-0.044	0.153
-338.318	-20.483	0.382	0.236
-337.304	160.639	0.092	-0.129
-336.289	-200.000	-0.005	0.509
-335.275	-14.279	-0.329	-0.213
-334.260	-200.000	0.029	0.217
-333.245	28.648	-0.228	-0.193
-332.231	-200.000	0.017	0.217
-331.216	800.000	0.050	-0.144
-330.202	-87.756	-0.181	-0.055
-329.187	389.442	-0.050	-0.104
-328.172	27.955	-0.242	0.205
-327.158	-13.113	-0.173	0.113
-326.143	5.564	-0.317	-0.235
-325.129	427.357	-0.031	0.067
-324.114	-164.519	-0.231	-0.011
-323.099	-101.569	0.527	-0.129
-322.085	8.980	0.046	-0.035
-321.070	-123.995	0.484	0.076
-320.056	-127.367	0.502	0.073
-319.041	-122.184	0.410	-0.067
-318.026	-81.364	-0.313	-0.104
-317.012	608.022	-0.036	0.091
-315.997	308.644	0.059	0.110
-314.983	-96.928	0.252	-0.066
-313.968	-81.499	0.111	0.037
-312.953	-47.152	0.336	0.165
-311.939	-128.298	-0.150	0.022
-310.924	800.000	-0.063	-0.180
-309.910	488.222	0.150	0.343
-308.895	26.069	0.191	0.159
-307.880	604.689	-0.065	-0.163
-306.866	-111.743	-0.174	-0.035
-305.851	180.748	0.230	0.338
-304.837	50.493	-0.265	0.251
-303.822	-200.000	0.001	-0.332
-302.807	306.264	-0.136	-0.254
-301.793	-200.000	0.040	-0.297
-300.778	-164.994	-0.459	0.021
-299.764	321.162	0.027	0.051
-298.749	16.254	0.190	0.151
-297.735	-114.296	0.230	0.044
-296.720	-200.000	-0.011	0.165
-295.705	128.849	0.043	-0.055
-294.691	-200.000	-0.054	0.295
-293.676	182.410	0.130	-0.192
-292.662	-174.971	-0.134	0.004
-291.647	-49.775	-0.274	-0.131
-290.632	-23.301	-0.134	0.081
-289.618	-74.970	0.103	0.037
-288.603	21.906	-0.223	-0.183
-287.589	-65.239	-0.118	-0.048
-286.574	74.944	-0.108	-0.114
-285.559	-200.000	0.011	-0.062
-284.545	-200.000	-0.048	-0.227
-283.530	800.000	0.076	-0.278
-282.516	-115.788	0.267	0.050
-281.501	-9.360	-0.122	0.081
-280.486	58.505	-0.152	0.150
-279.472	-200.000	-0.052	-0.283
-278.457	-178.417	-0.193	0.004
-277.443	-200.000	-0.108	-0.000
-276.428	43.106	0.288	-0.263
-275.413	474.792	-0.214	-0.485
-274.399	56.106	-0.127	-0.124
-273.384	800.000	0.036	0.128
-272.370	-82.581	-0.215	0.070
-271.355	252.021	0.088	-0.151
-270.340	452.539	-0.109	-0.242
-269.326	68.746	0.056	0.057
-268.311	344.873	-0.054	0.107
-267.297	800.000	-0.021	0.091
-266.282	-38.374	-0.096	-0.051
-265.267	-59.488	0.437	-0.188
-264.253	-59.417	0.147	0.063
-263.238	431.320	-0.052	0.112
-262.224	-12.910	-0.225	0.147
-261.209	0.072	0.353	-0.252
-260.195	664.893	-0.045	0.117
-259.180	133.782	0.071	-0.093
-258.165	312.764	0.220	-0.415
-257.151	-200.000	-0.015	-0.085
-256.136	-22.093	-0.295	-0.180
-255.122	800.000	-0.135	-0.535
-254.107	800.000	0.130	-0.375
-253.092	-44.839	0.121	-0.060
-252.078	21.972	0.151	-0.123
-251.063	44.153	-0.210	0.193
-250.049	779.416	0.030	0.083
-249.034	123.933	0.145	-0.183
-248.019	-49.950	-0.161	-0.076
-247.005	788.842	0.078	0.214
-245.990	382.590	-0.017	0.035
-244.976	-200.000	0.012	-0.100
-243.961	120.289	-0.282	-0.350
-242.946	47.934	0.142	0.133
-241.932	-200.000	-0.004	-0.198
-240.917	-200.000	0.014	-0.201
-239.903	116.226	0.132	-0.162
-238.888	800.000	-0.081	0.326
-237.873	43.507	-0.140	-0.128
-236.859	-16.115	-0.208	0.132
-235.844	59.182	-0.040	0.039
-234.830	-81.920	0.270	-0.088
-233.815	314.880	0.058	0.109
-232.800	340.961	-0.063	0.123
-231.786	-122.970	0.233	0.038
-230.771	-50.477	-0.410	-0.194
-229.757	-35.069	0.336	0.183
-228.742	-47.589	0.126	-0.061
-227.727	27.178	-0.260	0.218
-226.713	-139.043	-0.268	-0.029
-225.698	97.339	-0.170	0.196
-224.684	125.732	-0.144	0.182
-223.669	-75.016	0.619	-0.222
-222.655	-11.136	-0.190	0.125
-221.640	-25.721	-0.107	0.063
-220.625	-165.394	-0.031	0.001
-219.611	-109.012	-0.137	-0.029
-218.596	443.416	0.066	0.144
-217.582	-160.652	-0.418	-0.022
-216.567	62.080	-0.196	0.195
-215.552	800.000	0.023	0.099
-214.538	147.487	-0.137	-0.184
-213.523	122.565	0.085	0.107
-212.509	599.994	-0.167	0.414
-211.494	655.187	0.148	0.379
-210.479	53.917	0.080	0.077
-209.465	-111.081	0.131	0.027
-208.450	67.536	0.120	-0.123
-207.436	99.149	-0.087	0.101
-206.421	106.174	-0.076	0.090
-205.406	169.737	0.071	-0.102
-204.392	2.382	0.243	-0.175
-203.377	117.921	-0.084	0.103
-202.363	-87.155	0.397	-0.121
-201.348	13.464	0.170	-0.132
-200.333	-105.343	0.055	-0.013
-199.319	-36.545	-0.191	0.103
-198.304	338.396	-0.050	0.097
-197.290	212.915	-0.103	0.163
-196.275	168.354	-0.076	-0.108
-195.260	-6.231	-0.116	-0.079
-194.246	-178.282	0.259	-0.006
-193.231	-93.839	-0.250	-0.069
-192.217	-107.286	0.194	-0.043
-191.202	93.796	0.032	-0.036
-190.187	-200.000	0.021	0.151
-189.173	425.651	-0.098	0.211
-188.158	202.546	-0.008	0.013
-187.144	-105.301	-0.312	-0.071
-186.129	607.375	0.047	0.116
-185.114	321.287	0.060	-0.115
-184.100	118.485	0.134	0.165
-183.085	-147.452	-0.368	0.031
-182.071	-200.000	-0.021	0.451
-181.056	800.000	-0.093	0.346
-180.042	120.198	-0.163	-0.202
-179.027	-156.951	0.183	0.011
-178.012	-75.173	0.389	-0.139
-176.998	-200.000	-0.010	-0.150
-175.983	197.590	-0.092	-0.140
-174.969	800.000	0.041	-0.150
-173.954	82.281	0.136	0.147
-172.939	19.012	-0.038	0.030
-171.925	800.000	-0.040	0.120
-170.910	190.644	0.226	0.338
-169.896	-112.831	0.163	-0.032
-168.881	-147.328	0.463	0.039
-167.866	-43.687	-0.197	-0.099
-166.852	-70.490	-0.189	-0.071
-165.837	90.688	0.133	0.149
-164.823	296.983	0.152	-0.278
-163.808	-200.000	0.009	0.133
-162.793	-151.372	0.207	-0.015
-161.779	800.000	0.068	0.188
-160.764	42.216	0.189	-0.171
-159.750	800.000	-0.080	-0.292
-158.735	-200.000	-0.051	0.355
-157.720	-200.000	-0.014	0.098
-156.706	622.361	0.038	-0.096
-155.691	31.905	0.243	-0.209
-154.677	-84.529	-0.218	0.069
-153.662	83.016	-0.194	0.210
-152.647	219.165	-0.081	0.130
-151.633	-126.993	0.401	0.059
-150.618	-200.000	-0.005	-0.098
-149.604	-200.000	0.036	0.251
-148.589	-121.616	0.142	-0.023
-147.574	113.773	-0.019	0.023
-146.560	154.401	0.269	-0.368
-145.545	-117.438	-0.257	0.046
-144.531	352.304	-0.027	0.053
-143.516	33.172	-0.306	0.265
-142.502	-94.320	-0.352	-0.096
-141.487	9.180	-0.168	0.127
-140.472	102.405	0.177	-0.207
-139.458	-58.909	0.225	0.097
-138.443	202.286	0.120	0.185
-137.429	-55.952	0.192	0.085
-136.414	-147.091	-0.256	0.022
-135.399	-0.067	0.043	-0.030
-134.385	148.234	-0.131	-0.176
-133.370	-133.003	0.049	-0.006
-132.356	-168.755	0.421	-0.016
-131.341	24.450	0.108	-0.089
-130.326	69.696	0.177	0.182
-129.312	-117.678	-0.074	-0.013
-128.297	64.370	0.167	0.168
-127.283	84.273	0.074	0.081
-126.268	-200.000	-0.005	-0.138
-125.253	-30.546	0.131	0.074
-124.239	-200.000	0.019	-0.356
-123.224	-62.729	-0.096	0.040
-122.210	800.000	-0.101	0.397
-121.195	115.879	0.186	-0.226
-120.180	-200.000	0.032	0.177
-119.166	192.838	0.118	0.178
-118.151	-83.600	0.136	-0.043
-117.137	35.996	0.153	-0.134
-116.122	-69.982	0.138	-0.052
-115.107	127.428	-0.138	-0.174
-114.093	-162.162	0.143	0.007
-113.078	-200.000	0.050	-0.253
-112.064	121.193	0.179	-0.221
-111.049	-8.687	0.270	-0.180
-110.034	-156.808	-0.118	-0.007
-109.020	198.395	0.041	0.063
-108.005	258.756	-0.111	0.191
-106.991	-200.000	0.042	-0.297
-105.976	-200.000	-0.022	-0.330
-104.962	106.328	0.096	0.113
-103.947	-200.000	-0.019	-0.112
-102.932	-101.074	-0.182	0.044
-101.918	-134.042	-0.051	0.006
-100.903	160.454	0.072	-0.100
-99.889	-56.781	0.421	-0.185
-98.874	-14.158	0.160	0.103
-97.859	-179.398	0.198	0.004
-96.845	65.683	-0.165	0.166
-95.830	266.372	0.125	0.217
-94.816	-153.955	-0.197	-0.013
-93.801	-80.207	-0.199	0.066
-92.786	-31.417	0.246	0.138
-91.772	119.874	0.018	-0.022
-90.757	347.792	-0.048	0.093
-89.743	132.505	-0.015	0.019
-88.728	-9.260	-0.116	0.077
-87.713	138.425	-0.136	-0.178
-86.699	-200.000	-0.002	0.304
-85.684	-65.289	0.201	0.080
-84.670	800.000	-0.104	0.314
-83.655	-118.689	-0.302	0.053
-82.640	-132.382	0.074	-0.009
-81.626	-200.000	-0.043	0.358
-80.611	-200.000	-0.143	0.000
-79.597	42.726	-0.194	-0.175
-78.582	-91.429	0.170	0.048
-77.567	800.000	0.100	0.338
-76.553	-54.333	0.374	0.169
-75.538	-199.567	-0.210	0.001
-74.524	159.958	-0.147	0.204
-73.509	-200.000	-0.004	0.111
-72.494	398.735	0.053	0.111
-71.480	38.092	-0.165	-0.146
-70.465	-121.932	0.381	0.062
-69.451	-105.572	-0.134	0.030
-68.436	-90.121	0.071	0.021
-67.422	-141.715	0.193	-0.019
-66.407	-200.000	0.003	0.061
-65.392	-31.869	0.076	-0.042
-64.378	-80.908	0.059	-0.020
-63.363	-128.561	-0.042	-0.006
-62.349	-139.495	0.353	-0.038
-61.334	23.893	-1.157	-0.948
-60.319	93.923	0.355	0.400
-59.305	-200.000	0.080	-0.488
-58.290	170.762	0.775	1.103
-57.276	767.253	0.669	1.806
-56.261	-200.000	83.735	501.482
-55.246	508.489	1343.816	3099.443
-54.232	150.827	2559.713	3455.672
-53.217	112.651	2219.396	2668.470
-52.203	48.707	1759.442	1638.355
-51.188	42.110	1567.530	1413.258
-50.173	39.695	1539.728	1371.373
-49.159	55.449	1583.061	1521.308
-48.144	60.068	1603.891	1573.867
-47.130	42.700	1562.791	1412.911
-46.115	39.349	1547.646	1375.789
-45.100	39.197	1544.739	1372.084
-44.086	39.043	1543.093	1369.500
-43.071	38.961	1541.171	1367.167
-42.057	39.133	1538.417	1365.861
-41.042	39.052	1536.790	1363.803
-40.027	39.129	1535.580	1363.209
-39.013	38.971	1534.679	1361.256
-37.998	38.992	1533.066	1359.918
-36.984	39.103	1531.440	1359.191
-35.969	39.108	1530.178	1358.049
-34.954	39.041	1529.275	1356.731
-33.940	39.074	1528.190	1355.946
-32.925	39.124	1525.836	1354.150
-31.911	39.126	1524.440	1352.867
-30.896	39.244	1523.072	1352.412
-29.881	39.206	1521.860	1351.024
-28.867	39.193	1520.538	1349.703
-27.852	39.207	1518.894	1348.286
-26.838	39.242	1517.508	1347.245
-25.823	39.118	1516.431	1345.386
-24.809	39.199	1514.149	1343.858
-23.794	39.223	1512.695	1342.680
-22.779	39.203	1511.612	1341.530
-21.765	39.232	1510.705	1340.872
-20.750	39.294	1508.981	1339.707
-19.736	39.216	1507.964	1338.223
-18.721	39.154	1507.187	1337.060
-17.706	39.098	1505.985	1335.559
-16.692	39.092	1504.678	1334.302
-15.677	39.048	1503.883	1333.248
-14.663	39.066	1502.925	1332.468
-13.648	39.094	1501.890	1331.687
-12.633	38.938	1501.364	1330.111
-11.619	39.047	1500.276	1329.835
-10.604	39.033	1499.215	1328.744
-9.590	39.081	1498.121	1328.046
-8.575	39.053	1497.307	1327.082
-7.560	39.024	1496.503	1326.121
-6.546	39.093	1495.637	1325.769
-5.531	39.035	1494.707	1324.498
-4.517	38.996	1493.647	1323.242
-3.502	38.995	1492.949	1322.564
-2.487	39.109	1491.372	1321.882
-1.473	39.134	1489.915	1320.708
-0.458	39.084	1488.929	1319.444
0.556	38.553	1478.879	1306.658
1.571	34.934	1450.968	1258.140
2.586	30.594	1386.798	1175.031
3.600	28.366	1301.857	1089.730
4.615	26.844	1253.621	1040.540
5.629	22.319	1195.471	967.366
6.644	11.378	1104.832	838.036
7.659	2.767	1059.378	760.922
8.673	1.638	1052.831	750.587
9.688	1.401	1049.814	747.205
10.702	1.258	1048.417	745.444
11.717	1.184	1046.781	743.849
12.731	5.116	1050.720	765.909
13.746	15.286	1066.319	827.651
14.761	22.796	1075.505	871.953
15.775	24.093	1076.472	879.068
16.790	24.210	1076.006	879.186
17.804	24.063	1074.879	877.464
18.819	23.909	1074.259	876.120
19.834	23.873	1073.993	875.649
20.848	23.945	1073.535	875.553
21.863	24.058	1073.005	875.599
22.877	23.987	1072.650	874.882
23.892	24.044	1072.117	874.650
24.907	23.865	1071.211	872.957
25.921	23.954	1070.517	872.752
26.936	23.979	1069.733	872.158
27.950	24.005	1068.390	871.111
28.965	23.942	1067.213	869.765
29.980	23.901	1065.647	868.212
30.994	23.871	1064.433	867.002
32.009	24.058	1063.942	867.435
33.023	23.942	1063.656	866.559
34.038	23.972	1061.664	865.008
35.053	23.817	1061.259	863.847
36.067	24.071	1060.237	864.171
37.082	24.015	1059.769	863.444
38.096	24.066	1059.151	863.109
39.111	24.162	1058.471	862.947
40.126	24.307	1057.253	862.577
41.140	24.144	1056.367	860.989
42.155	23.987	1054.914	858.969
43.169	23.631	1053.665	856.161
44.184	23.641	1052.581	855.253
45.199	23.677	1051.728	854.655
46.213	23.675	1050.412	853.504
47.228	23.571	1049.971	852.569
48.242	23.839	1049.120	853.091
49.257	23.918	1048.460	852.855
50.271	23.926	1048.029	852.467
51.286	23.945	1047.403	851.973
52.301	24.005	1046.786	851.683
53.315	24.137	1045.553	851.236
54.330	23.935	1045.323	850.008
55.344	23.931	1044.252	849.045
56.359	24.024	1043.210	848.565
57.374	23.980	1042.421	847.638
58.388	23.932	1041.501	846.586
59.403	23.741	1040.991	845.187
60.417	23.738	1040.372	844.599
61.432	23.598	1039.604	843.234
62.447	23.619	1038.740	842.557
63.461	23.645	1038.712	842.582
64.476	23.731	1037.810	842.185
65.490	23.770	1036.394	841.148
66.505	23.774	1035.395	840.282
67.520	23.720	1034.483	839.211
68.534	23.754	1033.763	838.713
69.549	23.666	1032.745	837.400
70.563	23.355	1031.672	834.989
71.578	23.267	1030.856	833.839
72.593	23.241	1030.321	833.211
73.607	23.159	1028.815	831.534
74.622	23.153	1027.687	830.522
75.636	23.493	1027.138	831.600
76.651	23.674	1026.439	831.804
77.666	23.511	1025.647	830.329
78.680	23.366	1024.942	829.006
79.695	23.466	1024.268	828.854
80.709	23.602	1023.521	828.814
81.724	23.719	1022.737	828.651
82.739	23.603	1022.056	827.484
83.753	23.620	1021.297	826.876
84.768	23.873	1020.295	827.170
85.782	24.164	1020.062	828.258
86.797	24.381	1019.398	828.654
87.812	24.298	1018.846	827.746
88.826	24.107	1017.669	825.832
89.841	24.226	1016.564	825.416
90.855	24.351	1015.993	825.457
91.870	24.358	1015.204	824.776
92.884	24.103	1014.714	823.127
93.899	24.056	1013.546	821.886
94.914	23.969	1012.689	820.717
95.928	24.136	1011.855	820.739
96.943	24.130	1011.119	820.043
97.957	23.959	1009.691	818.023
98.972	23.632	1008.728	815.673
99.987	23.492	1007.870	814.262
101.001	23.600	1006.727	813.763
102.016	23.831	1006.661	814.695
103.030	23.851	1005.935	814.127
104.045	23.908	1004.247	812.948
105.060	23.774	1003.248	811.455
106.074	23.645	1001.837	809.656
107.089	23.692	1000.854	809.003
108.103	23.893	1001.326	810.230
109.118	24.088	999.980	809.955
110.133	23.674	998.944	807.164
111.147	23.596	998.143	806.091
112.162	23.592	996.646	804.792
113.176	23.317	995.231	802.334
114.191	23.579	994.532	802.882
115.206	23.587	994.339	802.694
116.220	23.452	992.967	800.905
117.235	23.188	991.880	798.766
118.249	23.423	991.623	799.549
119.264	23.431	990.485	798.595
120.279	23.233	990.010	797.249
121.293	23.262	988.676	796.239
122.308	23.396	988.508	796.632
123.322	23.424	987.479	795.861
124.337	23.298	986.495	794.428
125.352	23.334	984.871	793.213
126.366	22.952	983.421	790.266
127.381	22.558	981.951	787.256
128.395	23.066	982.033	789.523
129.410	23.779	981.478	792.187
130.424	23.908	980.716	792.076
131.439	23.844	979.858	791.027
132.454	23.860	978.684	790.082
133.468	23.818	978.185	789.420
134.483	23.875	977.405	788.974
135.497	24.005	976.328	788.612
136.512	24.012	975.793	788.143
137.527	24.131	975.144	788.075
138.541	24.117	974.516	787.437
139.556	24.217	973.723	787.167
140.570	24.141	973.165	786.309
141.585	24.096	972.122	785.200
142.600	24.343	971.555	785.759
143.614	24.138	970.183	783.677
144.629	24.211	969.702	783.540
145.643	24.413	969.178	783.938
146.658	24.349	967.802	782.471
147.673	24.054	966.750	780.260
148.687	24.126	965.437	779.449
149.702	24.099	964.352	778.382
150.716	23.852	963.250	776.349
151.731	23.876	962.581	775.843
152.746	23.925	961.625	775.217
153.760	24.138	961.063	775.626
154.775	24.374	960.152	775.847
155.789	24.339	959.760	775.311
156.804	24.284	958.832	774.253
157.819	24.188	957.838	772.966
158.833	24.338	956.801	772.709
159.848	24.466	956.159	772.677
160.862	24.365	955.533	771.668
161.877	24.210	954.807	770.341
162.892	24.220	953.534	769.289
163.906	24.279	952.995	769.042
164.921	24.295	951.779	768.061
165.935	24.199	950.682	766.695
166.950	24.290	949.618	766.161
167.964	24.269	948.600	765.181
168.979	24.139	948.334	764.339
169.994	24.100	946.702	762.792
171.008	24.031	945.494	761.455
172.023	24.085	945.438	761.574
173.037	24.323	944.301	761.606
174.052	24.169	943.296	760.070
175.067	24.037	942.330	758.662
176.081	24.033	941.207	757.677
177.096	23.971	940.718	756.950
178.110	24.090	939.531	756.433
179.125	23.834	939.236	755.041
180.140	23.603	937.814	752.852
181.154	23.600	937.057	752.166
182.169	23.684	936.485	751.996
183.183	23.953	936.301	752.921
184.198	24.184	936.066	753.643
185.213	24.039	935.496	752.502
186.227	24.113	934.518	751.963
187.242	24.196	934.169	751.967
188.256	24.293	933.259	751.577
189.271	24.261	932.644	750.880
190.286	24.341	931.491	750.219
191.300	24.199	930.891	749.076
192.315	23.670	929.431	745.611
193.329	23.031	927.652	741.442
194.344	22.449	926.997	738.411
195.359	23.105	927.421	741.435
196.373	23.957	927.564	745.054
197.388	24.130	927.031	745.282
198.402	24.123	926.560	744.811
199.417	24.132	925.675	744.071
200.432	24.166	925.161	743.731
201.446	24.003	924.752	742.658
202.461	23.711	923.892	740.684
203.475	23.697	923.600	740.324
204.490	23.385	922.045	737.715
205.504	22.295	919.869	731.379
206.519	22.611	919.674	732.474
207.534	23.557	920.118	736.691
208.548	23.686	919.688	736.820
209.563	23.893	919.225	737.240
210.577	24.091	918.487	737.405
211.592	23.674	917.774	735.042
212.607	24.183	917.940	737.215
213.621	24.300	917.656	737.406
214.636	24.306	916.194	736.188
215.650	24.249	915.946	735.690
216.665	24.342	914.821	735.104
217.680	24.264	914.727	734.642
218.694	24.475	914.297	735.100
219.709	23.993	913.372	732.310
220.723	23.776	912.046	730.291
221.738	23.928	911.644	730.528
222.753	24.144	911.033	730.858
223.767	24.010	910.645	729.936
224.782	24.243	909.729	730.092
225.796	24.262	909.477	729.902
226.811	24.335	909.202	729.912
227.826	23.978	907.905	727.348
228.840	23.229	906.225	722.880
229.855	23.103	905.428	721.670
230.869	23.308	905.259	722.306
231.884	23.043	904.056	720.201
232.899	23.178	903.579	720.307
233.913	23.838	904.260	723.475
234.928	24.203	903.281	724.109
235.942	23.987	902.712	722.712
236.957	24.091	902.127	722.605
237.972	23.690	901.181	720.154
238.986	23.652	900.687	719.545
240.001	23.723	900.056	719.264
241.015	23.869	899.381	719.250
242.030	23.883	898.463	718.509
243.045	23.913	898.144	718.311
244.059	24.151	897.651	718.816
245.074	24.099	897.383	718.325
246.088	24.204	896.324	717.838
247.103	23.848	895.437	715.631
248.117	23.850	894.810	715.075
249.132	24.322	895.031	717.087
250.147	24.812	894.528	718.590
251.161	24.940	893.747	718.410
252.176	25.048	893.639	718.697
253.190	24.911	893.074	717.627
254.205	25.034	892.828	717.860
255.220	25.181	892.247	717.916
256.234	25.104	891.366	716.836
257.249	25.030	890.576	715.841
258.263	24.921	890.130	714.984
259.278	24.736	889.938	714.028
260.293	24.890	889.029	713.850
261.307	25.174	888.252	714.295
262.322	24.934	888.059	713.121
263.336	24.913	886.975	712.105
264.351	24.407	885.813	709.098
265.366	23.281	884.136	703.222
266.380	22.670	882.995	699.828
267.395	23.654	883.418	704.008
268.409	24.620	883.254	707.643
269.424	24.546	882.715	706.857
270.439	24.680	882.342	707.023
271.453	24.801	882.043	707.200
272.468	24.841	881.168	706.596
273.482	25.051	880.603	706.905
274.497	25.207	880.188	707.126
275.512	24.886	879.564	705.298
276.526	24.266	877.647	701.259
277.541	24.566	877.058	701.907
278.555	24.937	877.199	703.413
279.570	24.744	876.647	702.153
280.585	24.536	875.577	700.418
281.599	24.609	875.346	700.458
282.614	24.687	875.259	700.633
283.628	24.240	873.979	697.794
284.643	23.950	873.256	696.022
285.657	24.224	873.464	697.198
286.672	24.269	872.080	696.205
287.687	23.760	871.411	693.625
288.701	24.057	871.057	694.442
289.716	24.583	870.627	696.084
290.730	24.131	869.881	693.667
291.745	23.973	869.269	692.505
292.760	23.763	868.494	691.007
293.774	23.762	867.620	690.249
294.789	24.723	868.142	694.334
295.803	25.368	867.890	696.576
296.818	25.368	867.788	696.432
297.833	25.345	867.240	695.840
298.847	25.124	866.395	694.246
299.862	24.618	865.526	691.531
300.876	24.933	865.181	692.412
301.891	25.354	864.556	693.476
302.906	25.417	863.706	692.976
303.920	24.963	862.902	690.521
304.935	24.878	861.778	689.233
305.949	25.176	861.748	690.295
306.964	25.363	861.340	690.627
307.979	25.065	860.140	688.460
308.993	25.012	859.867	687.973
310.008	25.267	860.070	689.055
311.022	25.410	859.717	689.260
312.037	25.245	858.962	687.964
313.052	24.963	858.394	686.367
314.066	24.946	857.532	685.550
315.081	24.219	855.955	681.451
316.095	23.663	854.652	678.230
317.110	24.116	854.446	679.734
318.125	24.960	855.291	683.571
319.139	24.553	854.109	681.012
320.154	23.399	852.492	675.270
321.168	22.782	851.421	672.016
322.183	23.604	851.938	675.490
323.197	24.595	851.863	679.141
324.212	24.788	851.503	679.527
325.227	24.918	851.185	679.707
326.241	24.964	851.130	679.779
327.256	24.984	850.543	679.326
328.270	24.869	849.500	677.996
329.285	24.775	848.895	677.099
330.300	24.815	848.125	676.575
331.314	24.524	847.077	674.580
332.329	24.487	846.603	674.003
333.343	24.926	846.267	675.331
334.358	25.185	846.088	676.106
335.373	25.147	845.599	675.513
336.387	25.148	845.200	675.138
337.402	25.440	844.899	675.935
338.416	25.561	844.350	675.893
339.431	25.606	843.997	675.718
340.446	25.629	843.270	675.162
341.460	25.820	843.088	675.674
342.475	25.867	842.280	675.143
343.489	25.632	841.509	673.587
344.504	25.459	841.144	672.587
345.519	25.728	840.857	673.304
346.533	25.939	840.336	673.614
347.548	26.032	839.785	673.461
348.562	26.073	839.346	673.202
349.577	26.063	838.630	672.531
350.592	25.922	838.121	671.539
351.606	25.945	837.877	671.370
352.621	26.006	837.196	670.993
353.635	25.851	836.570	669.854
354.650	25.682	836.303	668.954
355.665	25.438	835.022	666.963
356.679	24.497	833.329	662.064
357.694	24.201	832.968	660.621
358.708	24.812	833.012	662.862
359.723	24.896	831.856	662.194
360.738	25.120	831.808	662.927
361.752	25.457	832.058	664.312
362.767	25.560	831.669	664.324
363.781	25.727	831.757	664.954
364.796	26.198	831.063	666.075
365.810	26.193	830.942	665.903
366.825	26.248	830.812	665.941
367.840	26.398	830.349	666.063
368.854	26.080	829.564	664.207
369.869	25.734	828.748	662.220
370.883	25.687	827.371	660.889
371.898	25.712	827.274	660.844
372.913	25.639	826.995	660.296
373.927	25.594	825.975	659.257
374.942	25.808	825.880	659.909
375.956	25.914	825.238	659.726
376.971	26.171	824.322	659.875
377.986	26.047	824.389	659.416
379.000	26.176	823.887	659.427
380.015	26.288	823.426	659.409
381.029	26.217	822.463	658.318
382.044	26.184	821.960	657.738
383.059	26.172	821.697	657.427
384.073	26.341	820.924	657.366
385.088	26.184	820.699	656.556
386.102	26.433	819.598	656.523
387.117	26.024	819.355	654.784
388.132	25.900	818.951	653.951
389.146	25.921	817.870	653.107
390.161	25.238	816.825	649.745
391.175	25.398	816.903	650.329
392.190	25.964	816.775	652.216
393.205	25.996	816.183	651.800
394.219	25.005	814.458	646.789
395.234	23.318	812.254	638.904
396.248	22.652	811.191	635.612
397.263	23.661	811.775	639.650
398.278	25.397	813.287	647.043
399.292	25.773	813.322	648.367
400.307	25.484	812.765	646.825
401.321	25.500	812.146	646.334
402.336	25.575	812.073	646.490
403.350	25.831	811.788	647.123
404.365	26.283	811.630	648.566
405.380	26.648	811.207	649.478
406.394	26.818	811.429	650.208
407.409	27.142	810.943	650.920
408.423	27.143	810.271	650.328
409.438	26.945	809.451	648.906
410.453	26.830	809.458	648.442
411.467	27.027	809.098	648.801
412.482	27.009	808.158	647.924
413.496	26.819	807.910	646.989
414.511	26.944	807.279	646.874
415.526	27.072	806.827	646.910
416.540	27.086	806.824	646.900
417.555	26.900	805.921	645.456
418.569	26.670	805.184	643.993
419.584	26.527	804.900	643.201
420.599	26.773	804.166	643.429
421.613	100.241	1270.570	1407.645
422.628	86.198	1338.555	1407.793
