DTS Sentinel unit serial number:	SN413079Multiplexer serial number:	ORYXHardware model number:	OX4-SRSoftware version number:	ORYX F/W v4.00 Oryx Data Collector v3.7.2.0data status	okinstallation	princeton_trtdifferential loss correction	single-endedforward channel	channel 3reverse channel	N/Adate	2019/09/12time	18:13:04forward acquisition time	15.00reverse acquisition time	0.00gamma	496.2192k internal	0.2317k external	0.2317temperature offset calibration	1.0091default loss term (dB/km)	0.3790temperature slope calibration	1.0000multiplexer offset coefficient	1.0000multiplexer slope coefficient	1.0000fibre end	0.00T internal ref (°C)	33.56T ext. ref 1 (°C)	3.02T ext. ref 2 (°C)	28.16length (m)	temperature (°C)	Stokes	anti-Stokes-747.200	-200.000	0.007	-0.036
-746.185	-105.712	-0.814	0.187
-745.171	131.518	-0.063	-0.082
-744.156	-200.000	-0.002	-0.152
-743.142	-29.699	0.900	-0.520
-742.127	466.898	-0.258	0.586
-741.112	-23.475	0.421	-0.256
-740.098	93.874	-0.317	-0.364
-739.083	21.992	0.556	-0.459
-738.069	-200.000	1.053	0.005
-737.054	453.460	0.122	-0.273
-736.039	-116.516	-0.339	-0.063
-735.025	140.558	-0.374	-0.500
-734.010	-200.000	0.100	-1.127
-732.996	800.000	0.228	-0.657
-731.981	-24.160	-0.341	0.206
-730.966	204.708	0.186	0.292
-729.952	-62.648	0.466	-0.196
-728.937	-48.912	-0.359	-0.174
-727.923	229.397	-0.189	-0.312
-726.908	-50.301	-0.428	-0.205
-725.894	-200.000	0.028	-0.631
-724.879	351.979	-0.169	0.338
-723.864	98.868	0.277	0.324
-722.850	-52.034	-0.423	-0.199
-721.835	-60.638	-0.587	-0.252
-720.821	-17.928	0.272	0.172
-719.806	223.569	-0.156	-0.255
-718.791	304.500	-0.057	-0.107
-717.777	-200.000	-0.033	0.309
-716.762	-132.451	-0.712	0.093
-715.748	554.644	0.185	-0.451
-714.733	-137.819	-0.180	0.020
-713.718	-200.000	-0.030	0.232
-712.704	-131.719	0.779	0.103
-711.689	-131.258	-0.382	-0.051
-710.675	-70.270	-0.349	0.134
-709.660	12.404	-0.648	-0.505
-708.645	-127.183	-0.016	0.002
-707.631	663.118	-0.312	-0.814
-706.616	-200.000	-0.067	-0.383
-705.602	253.134	0.311	0.536
-704.587	-135.315	0.566	-0.068
-703.572	-200.000	0.112	0.685
-702.558	28.080	-0.186	-0.159
-701.543	-200.000	0.006	0.270
-700.529	-31.921	-0.072	0.041
-699.514	-42.164	-0.568	-0.294
-698.499	-25.096	-0.287	-0.172
-697.485	-21.293	0.412	-0.255
-696.470	-71.139	-0.204	-0.077
-695.456	-101.887	0.202	-0.049
-694.441	-200.000	0.006	0.132
-693.426	-200.000	-0.142	-0.787
-692.412	76.509	0.133	-0.143
-691.397	-26.601	0.277	-0.164
-690.383	-15.783	0.592	-0.381
-689.368	-126.819	0.566	0.084
-688.354	-200.000	-0.076	-0.967
-687.339	105.880	0.391	0.467
-686.324	139.780	0.675	0.898
-685.310	119.126	-0.326	0.408
-684.295	800.000	-0.020	-0.082
-683.281	-117.289	-0.807	-0.148
-682.266	301.033	0.444	0.828
-681.251	-130.249	-0.462	0.063
-680.237	800.000	-0.207	-0.653
-679.222	-200.000	-0.270	-1.311
-678.208	-200.000	0.090	-0.628
-677.193	-83.875	0.328	0.106
-676.178	205.351	0.117	-0.184
-675.164	-125.538	-0.568	-0.087
-674.149	43.103	0.177	-0.163
-673.135	-69.954	-0.058	0.022
-672.120	-85.287	0.663	-0.209
-671.105	202.149	0.042	0.066
-670.091	391.181	0.106	-0.222
-669.076	616.995	-0.052	0.132
-668.062	-16.891	0.931	-0.594
-667.047	-67.708	0.130	-0.051
-666.032	-159.012	-0.860	0.049
-665.018	360.624	-0.487	-0.984
-664.003	427.009	0.302	-0.658
-662.989	-65.093	0.588	0.239
-661.974	-173.598	-0.869	-0.026
-660.959	-200.000	0.004	1.200
-659.945	-6.631	0.460	-0.316
-658.930	-68.154	-0.648	0.255
-657.916	-44.855	-0.409	-0.206
-656.901	-135.284	0.654	0.079
-655.886	-142.917	-0.469	0.046
-654.872	614.437	0.030	-0.075
-653.857	-33.190	-0.488	0.273
-652.843	255.166	0.448	0.773
-651.828	-200.000	0.043	-0.843
-650.814	35.828	-0.241	0.214
-649.799	168.038	0.534	0.766
-648.784	-34.649	0.195	0.108
-647.770	-13.026	0.382	-0.251
-646.755	-152.804	-0.367	-0.026
-645.741	-140.198	-0.210	-0.022
-644.726	45.544	-0.428	-0.399
-643.711	800.000	0.137	0.575
-642.697	-200.000	0.024	0.672
-641.682	-21.508	-0.488	0.300
-640.668	160.828	0.337	0.475
-639.653	-67.949	0.400	0.157
-638.638	134.714	0.143	-0.188
-637.624	-110.965	0.669	0.139
-636.609	-68.274	0.427	-0.168
-635.595	800.000	-0.112	-0.348
-634.580	-200.000	-0.078	0.543
-633.565	18.250	-0.716	-0.576
-632.551	-122.945	-0.417	-0.068
-631.536	-86.916	-0.521	-0.160
-630.522	-71.009	-0.242	0.092
-629.507	-200.000	-0.041	-0.354
-628.492	-53.673	1.135	0.523
-627.478	-93.040	0.615	-0.173
-626.463	-162.135	-0.542	0.027
-625.449	-32.920	-0.237	0.133
-624.434	-156.148	-0.259	-0.016
-623.419	55.799	-0.239	-0.234
-622.405	-165.010	0.113	0.005
-621.390	-23.715	0.372	0.225
-620.376	266.203	-0.388	-0.683
-619.361	-181.743	0.770	-0.015
-618.346	570.208	0.162	0.397
-617.332	-50.850	-0.560	-0.265
-616.317	38.685	-0.647	-0.581
-615.303	139.460	0.560	0.742
-614.288	-30.896	-0.037	-0.021
-613.273	217.595	0.505	-0.810
-612.259	-44.337	0.634	-0.320
-611.244	-100.346	-0.389	-0.097
-610.230	171.080	-0.262	0.379
-609.215	-104.542	0.483	-0.112
-608.201	-182.775	0.659	0.012
-607.186	476.505	0.270	0.615
-606.171	-94.717	-1.090	-0.298
-605.157	361.274	-0.392	0.792
-604.142	627.346	-0.281	-0.714
-603.128	-105.771	-0.468	0.107
-602.113	-91.574	0.400	-0.115
-601.098	-45.510	-0.122	-0.061
-600.084	-139.341	-0.594	0.064
-599.069	672.054	0.125	0.326
-598.055	87.069	0.335	0.373
-597.040	-165.759	0.015	-0.001
-596.025	800.000	-0.181	-0.584
-595.011	-124.652	-1.284	0.200
-593.996	-44.776	0.667	0.335
-592.982	-147.503	0.076	0.006
-591.967	5.551	0.136	0.101
-590.952	15.834	-0.467	-0.370
-589.938	-190.289	-0.460	0.005
-588.923	-101.274	-0.584	-0.143
-587.909	-124.189	0.683	-0.108
-586.894	160.852	0.190	-0.267
-585.879	46.594	-0.109	0.101
-584.865	-12.583	0.916	0.602
-583.850	-13.623	-0.244	-0.159
-582.836	58.686	0.475	-0.469
-581.821	800.000	-0.111	-0.445
-580.806	-70.157	-0.438	-0.167
-579.792	154.881	-0.322	0.446
-578.777	-97.239	-0.485	-0.127
-577.763	286.129	0.296	-0.537
-576.748	-38.138	-0.649	0.346
-575.733	-133.711	0.473	-0.059
-574.719	612.046	0.145	0.364
-573.704	-112.269	-0.354	-0.071
-572.690	-200.000	0.016	0.086
-571.675	-69.016	-0.451	-0.175
-570.661	-13.031	-0.239	-0.156
-569.646	-36.333	0.349	-0.189
-568.631	800.000	-0.132	-0.424
-567.617	-164.140	-1.029	0.048
-566.602	28.241	-0.584	-0.496
-565.588	-71.583	0.057	0.022
-564.573	-147.029	0.249	0.021
-563.558	25.392	0.581	0.486
-562.544	-113.184	-0.174	-0.034
-561.529	-161.893	-0.623	0.032
-560.515	2.185	0.299	-0.217
-559.500	-35.258	-0.268	-0.147
-558.485	602.124	0.155	-0.387
-557.471	-185.714	0.580	0.009
-556.456	-200.000	0.052	0.936
-555.442	-122.784	0.344	-0.056
-554.427	481.200	-0.226	-0.515
-553.412	91.965	0.272	-0.308
-552.398	210.801	-0.093	0.147
-551.383	155.977	-0.321	0.444
-550.369	337.911	0.132	-0.258
-549.354	731.293	-0.278	0.746
-548.339	249.251	-0.674	-1.147
-547.325	-50.220	-0.466	-0.221
-546.310	-127.133	-0.511	0.075
-545.296	-4.540	-0.107	-0.074
-544.281	800.000	0.012	0.044
-543.266	800.000	-0.316	1.072
-542.252	425.074	-0.198	-0.428
-541.237	296.793	0.177	-0.326
-540.223	-105.046	-0.488	-0.112
-539.208	-200.000	-0.108	-0.570
-538.193	-132.877	-0.604	-0.077
-537.179	-76.334	0.226	0.080
-536.164	76.552	0.792	0.844
-535.150	-101.963	-0.310	-0.075
-534.135	-94.530	-0.220	-0.060
-533.121	-49.754	-0.154	0.073
-532.106	-200.000	-0.009	-0.108
-531.091	800.000	-0.042	-0.169
-530.077	-105.799	0.878	0.199
-529.062	364.223	-0.209	-0.422
-528.048	216.713	-0.272	0.434
-527.033	-200.000	-0.121	0.598
-526.018	285.881	-0.474	0.859
-525.004	-107.281	0.104	-0.023
-523.989	-122.388	0.195	-0.032
-522.975	-67.327	0.677	-0.267
-521.960	148.538	0.022	0.030
-520.945	605.963	0.277	0.693
-519.931	-32.083	-0.327	0.184
-518.916	238.015	-0.363	0.604
-517.902	222.686	0.335	0.542
-516.887	110.758	0.528	0.637
-515.872	601.574	-0.093	0.231
-514.858	-200.000	0.043	0.523
-513.843	-34.022	-0.394	0.217
-512.829	75.907	0.300	0.319
-511.814	-56.277	0.450	-0.201
-510.799	-92.343	-0.874	0.247
-509.785	113.138	0.544	-0.662
-508.770	800.000	0.130	-0.373
-507.756	8.424	-0.606	-0.457
-506.741	-11.107	0.458	-0.303
-505.726	-111.564	0.158	0.032
-504.712	-13.119	0.157	-0.102
-503.697	362.557	-0.257	-0.518
-502.683	-120.736	0.606	-0.103
-501.668	-99.834	-0.510	0.128
-500.653	24.389	-0.166	0.138
-499.639	800.000	-0.155	-0.433
-498.624	260.574	0.330	-0.572
-497.610	-55.783	-0.210	0.094
-496.595	-26.932	0.267	0.156
-495.581	-200.000	-0.025	0.182
-494.566	-45.151	0.937	-0.467
-493.551	800.000	-0.069	-0.279
-492.537	800.000	0.193	-0.644
-491.522	-46.868	0.298	0.146
-490.508	-200.000	0.113	0.673
-489.493	-200.000	-0.031	0.545
-488.478	-93.328	1.030	0.287
-487.464	256.156	-0.390	0.671
-486.449	-65.155	-0.746	-0.302
-485.435	-197.235	0.575	-0.004
-484.420	-200.000	0.013	0.073
-483.405	-200.000	-0.005	0.138
-482.391	62.793	0.669	0.671
-481.376	-193.474	0.672	0.006
-480.362	800.000	0.192	0.560
-479.347	76.576	-0.492	0.523
-478.332	-200.000	0.156	0.736
-477.318	-49.985	0.771	0.366
-476.303	-48.013	-0.214	0.104
-475.289	-4.316	0.328	0.227
-474.274	72.042	0.382	-0.398
-473.259	91.590	0.656	0.739
-472.245	81.294	-0.607	0.657
-471.230	106.044	-0.411	0.487
-470.216	59.822	-0.275	0.272
-469.201	-74.049	0.604	0.219
-468.186	-143.805	-1.017	-0.096
-467.172	-68.805	-0.305	-0.118
-466.157	46.007	-0.245	-0.227
-465.143	-200.000	0.036	0.243
-464.128	-32.637	0.214	0.119
-463.113	800.000	-0.080	0.297
-462.099	661.632	-0.323	-0.834
-461.084	49.425	-0.222	0.209
-460.070	-76.350	-0.461	0.163
-459.055	53.866	0.003	-0.003
-458.040	-200.000	-0.053	0.311
-457.026	-183.216	-0.153	0.003
-456.011	-61.787	0.568	0.238
-454.997	11.287	-0.102	0.078
-453.982	-200.000	0.259	1.138
-452.968	800.000	0.172	-0.602
-451.953	-166.776	0.571	0.024
-450.938	-35.455	-0.166	0.090
-449.924	69.747	-0.290	-0.300
-448.909	117.670	-0.374	0.461
-447.895	800.000	0.271	-0.887
-446.880	-57.113	-0.850	-0.375
-445.865	-20.794	-0.250	0.153
-444.851	-200.000	-0.016	-0.371
-443.836	320.952	-0.344	-0.654
-442.822	800.000	-0.097	-0.405
-441.807	282.608	0.272	0.489
-440.792	-107.877	-0.687	0.150
-439.778	373.684	-0.159	0.324
-438.763	-200.000	0.064	0.296
-437.749	-162.618	-0.266	-0.013
-436.734	-200.000	-0.095	-0.426
-435.719	83.900	0.335	-0.365
-434.705	349.182	0.015	0.029
-433.690	800.000	-0.070	0.247
-432.676	-200.000	-0.004	0.315
-431.661	800.000	0.102	-0.399
-430.646	526.029	0.358	0.842
-429.632	-200.000	0.032	-0.871
-428.617	81.567	-0.176	0.190
-427.603	-84.362	-0.558	0.176
-426.588	-7.568	0.195	0.132
-425.573	380.209	0.060	0.124
-424.559	-148.098	0.635	-0.053
-423.544	-200.000	0.043	0.214
-422.530	89.665	0.198	-0.221
-421.515	168.425	-0.127	0.181
-420.500	-122.349	-0.581	0.095
-419.486	204.766	0.092	-0.143
-418.471	-74.976	0.680	-0.243
-417.457	13.931	-0.089	0.070
-416.442	-6.155	-0.574	-0.392
-415.428	173.013	0.373	0.537
-414.413	140.312	-0.203	-0.268
-413.398	-200.000	-0.124	0.757
-412.384	-200.000	-0.063	-0.735
-411.369	-99.104	0.670	0.170
-410.355	163.014	0.177	0.249
-409.340	-77.321	-0.897	-0.312
-408.325	-118.344	0.812	0.144
-407.311	-200.000	0.036	0.237
-406.296	-69.797	0.462	0.176
-405.282	268.531	0.377	-0.660
-404.267	-200.000	-0.105	-0.945
-403.252	-3.122	0.359	0.250
-402.238	-9.153	0.237	-0.158
-401.223	-40.502	-0.708	0.367
-400.209	-147.129	-1.012	0.086
-399.194	800.000	-0.276	-1.020
-398.179	-41.915	0.430	-0.220
-397.165	-200.000	0.102	0.489
-396.150	39.118	0.470	-0.420
-395.136	-32.571	-0.600	0.334
-394.121	800.000	0.118	0.451
-393.106	117.443	-0.446	-0.548
-392.092	-36.180	0.355	-0.191
-391.077	-200.000	-0.033	-0.408
-390.063	-113.794	0.440	-0.086
-389.048	41.507	0.669	0.605
-388.033	482.301	-0.168	-0.380
-387.019	-200.000	-0.143	-1.046
-386.004	-88.776	0.701	-0.208
-384.990	267.003	0.451	0.788
-383.975	800.000	-0.098	-0.360
-382.960	-200.000	-0.035	0.335
-381.946	-200.000	0.129	-0.597
-380.931	-161.496	0.682	-0.035
-379.917	-92.975	-0.631	0.176
-378.902	-110.770	-0.838	0.173
-377.888	-10.459	-0.464	-0.307
-376.873	800.000	-0.059	0.180
-375.858	70.824	0.180	-0.186
-374.844	800.000	0.134	-0.497
-373.829	127.665	0.452	-0.573
-372.815	48.391	-0.378	-0.353
-371.800	-200.000	-1.133	-0.002
-370.785	642.497	0.105	0.267
-369.771	-172.670	0.273	-0.009
-368.756	800.000	-0.111	0.481
-367.742	-83.311	0.514	0.164
-366.727	151.123	0.292	0.397
-365.712	473.484	0.162	0.364
-364.698	-42.903	0.431	-0.218
-363.683	82.361	-0.512	-0.554
-362.669	-200.000	0.055	-0.777
-361.654	-18.177	-0.572	-0.357
-360.639	-200.000	-0.071	0.461
-359.625	-200.000	0.176	0.840
-358.610	22.990	0.210	0.172
-357.596	-120.869	-0.348	0.058
-356.581	27.924	0.414	-0.348
-355.566	-18.601	-0.112	0.070
-354.552	10.478	-0.369	0.281
-353.537	-52.597	0.534	0.246
-352.523	236.715	0.206	0.340
-351.508	-0.316	-0.176	0.125
-350.493	-200.000	0.033	-0.451
-349.479	21.972	-0.311	-0.253
-348.464	26.927	-0.811	-0.678
-347.450	800.000	-0.109	-0.367
-346.435	-200.000	-0.063	0.384
-345.420	201.371	0.164	-0.252
-344.406	-94.578	0.516	0.140
-343.391	-37.187	0.300	-0.160
-342.377	317.877	-0.045	-0.085
-341.362	800.000	0.236	0.850
-340.348	-170.635	-0.302	-0.010
-339.333	272.398	0.133	0.233
-338.318	800.000	0.047	0.169
-337.304	-69.879	0.656	-0.250
-336.289	160.491	-0.414	-0.576
-335.275	-34.671	0.461	0.251
-334.260	-124.779	0.323	0.050
-333.245	358.387	0.217	-0.432
-332.231	2.873	0.509	-0.368
-331.216	-137.610	0.493	0.055
-330.202	431.054	-0.074	-0.160
-329.187	-200.000	0.145	1.053
-328.172	800.000	0.088	0.362
-327.158	345.325	-0.194	0.379
-326.143	-200.000	0.048	0.265
-325.129	18.391	-0.665	-0.529
-324.114	-200.000	0.052	0.296
-323.099	-11.113	0.584	-0.384
-322.085	58.809	-0.495	0.485
-321.070	-200.000	0.074	0.473
-320.056	7.550	-0.628	-0.468
-319.041	-162.392	-0.690	-0.034
-318.026	-137.242	0.783	0.089
-317.012	800.000	-0.002	-0.008
-315.997	51.541	0.400	0.379
-314.983	185.261	-0.119	-0.176
-313.968	8.644	-0.332	-0.249
-312.953	161.831	0.276	-0.384
-311.939	-11.116	-0.411	0.270
-310.924	-2.473	-0.592	0.413
-309.910	86.503	0.279	0.306
-308.895	-200.000	0.036	-0.756
-307.880	-70.398	-0.661	-0.249
-306.866	-200.000	0.017	0.419
-305.851	-3.467	-0.773	-0.535
-304.837	23.236	-0.163	-0.134
-303.822	60.043	-0.374	0.367
-302.807	509.701	0.108	0.250
-301.793	-108.615	-0.473	0.101
-300.778	141.553	-0.528	0.696
-299.764	324.701	0.273	0.519
-298.749	673.979	-0.127	-0.329
-297.735	174.174	0.490	-0.705
-296.720	800.000	-0.215	-0.713
-295.705	-35.714	1.133	0.611
-294.691	-181.357	0.683	-0.013
-293.676	-170.137	-0.960	0.034
-292.662	44.131	0.390	0.356
-291.647	22.784	0.111	-0.090
-290.632	-73.715	0.256	-0.093
-289.618	-169.141	0.817	0.030
-288.603	-200.000	-0.260	1.354
-287.589	-26.773	0.291	0.169
-286.574	-140.915	0.452	-0.046
-285.559	-50.121	0.339	-0.160
-284.545	800.000	-0.028	0.078
-283.530	-92.303	0.926	-0.260
-282.516	800.000	-0.131	0.518
-281.501	-200.000	0.091	0.432
-280.486	-117.415	0.238	-0.043
-279.472	27.816	0.685	0.574
-278.457	-25.272	0.682	-0.402
-277.443	-200.000	0.078	-0.422
-276.428	-181.354	-0.223	0.004
-275.413	-135.292	-0.076	-0.009
-274.399	-26.294	-0.435	0.254
-273.384	-200.000	-0.057	-0.933
-272.370	18.435	0.201	-0.160
-271.355	-45.475	-0.275	0.135
-270.340	-96.498	-0.986	0.259
-269.326	-200.000	-0.120	0.584
-268.311	17.995	-0.946	0.749
-267.297	670.910	-0.063	0.162
-266.282	17.137	0.231	-0.182
-265.267	800.000	-0.086	0.291
-264.253	37.727	-0.309	0.273
-263.238	800.000	-0.163	-0.486
-262.224	37.934	0.374	-0.330
-261.209	216.015	-0.294	-0.464
-260.195	235.016	0.473	0.775
-259.180	-117.844	-0.298	-0.053
-258.165	-200.000	0.052	-0.691
-257.151	-79.477	-0.601	-0.202
-256.136	-81.588	0.458	-0.150
-255.122	717.113	-0.296	-0.781
-254.107	-32.973	0.958	-0.528
-253.092	-176.566	0.928	0.024
-252.078	19.208	0.832	0.663
-251.063	273.713	0.298	-0.524
-250.049	514.495	-0.420	0.973
-249.034	213.242	0.250	-0.392
-248.019	-84.954	0.744	0.232
-247.005	-134.742	0.250	-0.030
-245.990	-96.067	0.754	0.199
-244.976	11.442	-0.367	-0.279
-243.961	159.481	0.187	0.258
-242.946	-89.543	-0.150	0.044
-241.932	9.816	-0.402	-0.303
-240.917	616.559	0.229	-0.570
-239.903	88.681	-0.578	0.638
-238.888	412.777	-0.100	0.212
-237.873	-8.394	-0.771	-0.515
-236.859	52.341	0.479	-0.454
-235.844	-161.945	0.297	-0.015
-234.830	-200.000	-0.044	0.601
-233.815	34.132	0.315	0.273
-232.800	1.525	-0.830	0.593
-231.786	800.000	0.152	-0.620
-230.771	66.510	0.441	-0.445
-229.757	-200.000	-0.109	0.801
-228.742	464.841	0.089	0.199
-227.727	-118.218	-0.989	-0.175
-226.713	243.379	-0.499	-0.830
-225.698	-189.270	-0.797	-0.009
-224.684	296.963	-0.532	-0.969
-223.669	-200.000	-0.023	-0.974
-222.655	459.452	0.090	0.198
-221.640	-106.173	-0.809	0.180
-220.625	184.206	0.515	0.757
-219.611	-62.258	0.143	-0.059
-218.596	800.000	0.159	-0.636
-217.582	37.164	0.299	-0.263
-216.567	456.569	0.284	0.625
-215.552	-200.000	0.000	-0.724
-214.538	793.519	-0.138	0.376
-213.523	-7.181	0.530	-0.357
-212.509	-153.066	-0.743	0.052
-211.494	241.677	-0.165	0.274
-210.479	-61.257	0.396	0.165
-209.465	-54.200	-0.775	0.349
-208.450	-200.000	0.066	0.455
-207.436	770.879	-0.028	-0.074
-206.421	195.847	-0.471	0.710
-205.406	-7.410	0.343	-0.230
-204.392	61.247	-0.173	-0.171
-203.377	-126.555	0.939	0.138
-202.363	-113.366	-0.452	-0.088
-201.348	103.642	0.437	-0.509
-200.333	-200.000	0.002	-0.619
-199.319	236.866	0.308	-0.505
-198.304	-19.808	0.510	-0.312
-197.290	406.605	0.302	-0.632
-196.275	221.761	-0.224	-0.357
-195.260	-57.526	-0.549	-0.238
-194.246	-200.000	0.062	-0.322
-193.231	-124.294	-1.265	0.196
-192.217	800.000	-0.090	-0.293
-191.202	-200.000	-0.074	-0.336
-190.187	38.263	0.348	0.307
-189.173	54.883	-0.170	-0.163
-188.158	-200.000	-0.036	-0.370
-187.144	-102.434	0.201	0.048
-186.129	175.416	-0.221	-0.317
-185.114	-141.564	-0.554	0.055
-184.100	-111.947	0.552	-0.110
-183.085	14.347	-0.266	-0.206
-182.071	-52.117	0.717	0.330
-181.056	481.479	-0.020	-0.045
-180.042	-40.236	-0.447	-0.230
-179.027	800.000	0.087	-0.345
-178.012	-170.314	0.521	0.018
-176.998	-200.000	0.088	0.630
-175.983	800.000	0.060	-0.212
-174.969	41.002	-0.110	-0.098
-173.954	359.914	0.369	-0.731
-172.939	-200.000	0.143	-0.810
-171.925	2.156	-0.449	-0.321
-170.910	-200.000	-0.021	0.655
-169.896	402.467	-0.104	-0.217
-168.881	16.396	0.102	0.080
-167.866	52.970	0.236	0.223
-166.852	-136.742	0.440	0.050
-165.837	-65.846	-0.441	0.175
-164.823	800.000	0.216	-0.853
-163.808	482.447	0.211	-0.476
-162.793	6.471	0.799	0.588
-161.779	-99.802	0.238	-0.059
-160.764	84.699	0.298	-0.323
-159.750	-200.000	-0.167	1.141
-158.735	114.870	-0.429	-0.518
-157.720	229.649	-0.314	-0.507
-156.706	-58.512	-0.335	-0.144
-155.691	-127.917	-0.620	-0.088
-154.677	-55.332	1.479	0.657
-153.662	221.975	-0.235	0.375
-152.647	-26.566	-0.552	-0.320
-151.633	76.813	-0.178	0.187
-150.618	233.473	-0.964	-1.570
-149.604	-30.981	-0.458	0.256
-148.589	399.553	0.410	0.849
-147.574	-143.270	-0.575	-0.055
-146.560	221.421	0.223	-0.354
-145.545	800.000	-0.460	-1.397
-144.531	-181.504	0.718	0.014
-143.516	287.044	0.208	-0.372
-142.502	-9.909	-0.336	-0.221
-141.487	800.000	0.211	-0.710
-140.472	-124.475	-0.723	0.111
-139.458	17.787	0.591	0.465
-138.443	-200.000	-0.235	-1.160
-137.429	-20.391	0.216	-0.131
-136.414	2.186	-0.328	0.234
-135.399	302.081	0.343	-0.627
-134.385	-200.000	0.037	-0.671
-133.370	-70.158	-0.133	0.050
-132.356	222.735	0.183	-0.291
-131.341	229.847	0.020	-0.032
-130.326	-133.570	-0.525	-0.065
-129.312	800.000	0.073	0.314
-128.297	-89.723	-0.047	-0.013
-127.283	-59.509	-0.436	0.185
-126.268	211.824	0.303	0.472
-125.253	-91.817	-0.058	0.016
-124.239	-125.645	-0.545	-0.082
-123.224	-200.000	-0.004	0.452
-122.210	-200.000	0.169	-0.872
-121.195	307.454	-0.311	-0.572
-120.180	800.000	0.151	-0.490
-119.166	484.585	0.285	0.641
-118.151	-200.000	0.000	-0.758
-117.137	-200.000	-0.020	-0.298
-116.122	85.530	0.024	-0.026
-115.107	345.753	-0.466	0.904
-114.093	800.000	0.136	-0.391
-113.078	-27.981	-0.909	0.520
-112.064	800.000	-0.199	0.704
-111.049	49.601	-0.737	0.685
-110.034	-116.050	-0.625	-0.115
-109.020	601.650	-0.452	-1.109
-108.005	106.466	-0.272	-0.319
-106.991	800.000	-0.073	0.250
-105.976	-114.962	-0.394	-0.074
-104.962	-126.293	1.012	-0.149
-103.947	-200.000	0.023	0.566
-102.932	-22.549	0.810	0.484
-101.918	-200.000	-0.012	0.783
-100.903	-200.000	-0.080	0.413
-99.889	800.000	-0.082	-0.336
-98.874	-39.093	-0.139	-0.072
-97.859	291.422	-0.312	0.560
-96.845	73.008	0.235	0.242
-95.830	526.365	0.250	-0.582
-94.816	-200.000	0.130	-0.846
-93.801	5.938	-0.390	0.285
-92.786	-151.666	1.062	-0.077
-91.772	152.457	0.321	0.432
-90.757	-10.065	-0.394	0.259
-89.743	74.442	0.236	-0.245
-88.728	66.775	0.081	-0.081
-87.713	-73.676	0.962	-0.346
-86.699	-46.113	0.420	0.204
-85.684	234.793	-0.284	-0.463
-84.670	10.737	-0.927	-0.698
-83.655	-87.803	0.239	-0.071
-82.640	-93.635	1.011	0.275
-81.626	197.496	-0.255	0.384
-80.611	110.742	0.211	-0.250
-79.597	160.044	0.283	0.389
-78.582	800.000	0.030	-0.114
-77.567	261.072	-0.215	0.367
-76.553	-200.000	0.023	0.225
-75.538	-107.228	-0.412	-0.090
-74.524	-198.192	-0.359	0.002
-73.509	546.551	0.135	0.318
-72.494	-32.041	-0.560	-0.309
-71.480	800.000	-0.053	0.213
-70.465	800.000	0.193	0.715
-69.451	493.357	0.273	-0.618
-68.436	-116.638	-0.630	-0.114
-67.422	129.444	-0.343	-0.432
-66.407	-116.665	-0.478	-0.087
-65.392	332.920	0.445	0.848
-64.378	-67.157	0.506	0.197
-63.363	375.771	0.387	0.778
-62.349	129.126	0.227	-0.285
-61.334	-108.031	-1.652	-0.353
-60.319	65.262	0.932	0.929
-59.305	800.000	-0.575	-1.744
-58.290	-200.000	0.075	1.656
-57.276	5.613	1.097	0.799
-56.261	-200.000	94.933	567.225
-55.246	629.384	1373.566	3423.053
-54.232	197.853	2549.533	3839.193
-53.217	116.448	2154.607	2603.319
-52.203	43.762	1702.379	1535.786
-51.188	36.662	1516.100	1319.471
-50.173	34.412	1488.642	1280.434
-49.159	54.368	1539.002	1460.438
-48.144	55.475	1557.716	1485.698
-47.130	37.088	1515.118	1321.311
-46.115	34.117	1499.160	1287.279
-45.100	33.352	1498.264	1281.283
-44.086	33.732	1495.603	1281.529
-43.071	33.556	1494.262	1279.136
-42.057	33.724	1491.391	1277.759
-41.042	33.538	1491.589	1276.627
-40.027	33.631	1490.154	1275.976
-39.013	33.590	1488.787	1274.480
-37.998	33.430	1487.873	1272.567
-36.984	33.630	1486.459	1272.650
-35.969	33.725	1483.229	1270.472
-34.954	33.603	1483.458	1269.803
-33.940	33.454	1482.598	1268.015
-32.925	33.714	1479.497	1267.049
-31.911	33.600	1479.377	1266.136
-30.896	33.712	1478.063	1265.709
-29.881	33.696	1476.636	1264.332
-28.867	33.521	1474.922	1261.650
-27.852	33.617	1473.880	1261.342
-26.838	33.475	1473.062	1259.648
-25.823	33.486	1470.306	1257.320
-24.809	33.676	1468.571	1257.044
-23.794	33.778	1467.557	1256.802
-22.779	33.658	1466.665	1255.196
-21.765	33.706	1465.612	1254.560
-20.750	33.280	1465.367	1251.483
-19.736	33.476	1462.993	1250.696
-18.721	33.271	1464.021	1250.177
-17.706	33.800	1460.552	1250.648
-16.692	33.508	1459.914	1248.127
-15.677	33.402	1459.681	1247.181
-14.663	33.552	1458.932	1247.482
-13.648	33.608	1456.871	1246.037
-12.633	33.830	1454.657	1245.552
-11.619	33.517	1455.721	1244.354
-10.604	33.459	1455.081	1243.379
-9.590	33.456	1453.901	1242.300
-8.575	33.695	1452.026	1242.213
-7.560	33.565	1452.696	1241.888
-6.546	33.601	1452.751	1242.120
-5.531	33.263	1451.112	1238.458
-4.517	33.598	1448.839	1238.660
-3.502	33.494	1448.672	1237.790
-2.487	33.550	1447.994	1237.521
-1.473	33.430	1445.955	1234.950
-0.458	33.510	1445.073	1234.669
0.556	34.446	1435.499	1223.308
1.571	31.176	1409.992	1180.821
2.586	27.718	1351.060	1110.362
3.600	25.843	1269.023	1032.116
4.615	24.218	1222.620	985.309
5.629	20.696	1166.501	921.386
6.644	11.638	1080.747	808.941
7.659	4.447	1040.369	744.285
8.673	3.083	1035.040	733.901
9.688	2.883	1031.936	730.681
10.702	3.017	1029.857	729.784
11.717	3.097	1026.972	728.051
12.731	5.973	1032.341	745.465
13.746	15.410	1044.996	799.704
14.761	23.430	1054.332	845.180
15.775	25.656	1057.572	858.336
16.790	26.226	1057.066	860.563
17.804	25.670	1057.588	858.262
18.819	25.706	1055.999	857.071
19.834	25.754	1056.140	857.335
20.848	26.029	1055.388	857.959
21.863	25.941	1054.670	856.877
22.877	26.032	1053.289	856.113
23.892	26.158	1053.496	856.803
24.907	25.944	1051.892	854.408
25.921	26.055	1051.866	854.840
26.936	25.959	1051.329	853.873
27.950	26.198	1049.579	853.505
28.965	26.265	1048.606	852.955
29.980	25.751	1047.949	849.918
30.994	26.006	1045.923	849.403
32.009	26.063	1044.831	848.710
33.023	26.189	1045.131	849.469
34.038	26.107	1043.472	847.660
35.053	26.030	1042.953	846.803
36.067	26.112	1042.886	847.057
37.082	26.040	1041.662	845.652
38.096	26.129	1040.731	845.238
39.111	26.426	1039.749	845.757
40.126	26.043	1039.939	844.041
41.140	26.194	1037.918	843.032
42.155	25.724	1037.744	840.622
43.169	25.742	1035.720	838.994
44.184	25.530	1034.884	837.255
45.199	26.132	1033.017	838.466
46.213	25.557	1033.787	836.345
47.228	25.707	1031.658	835.242
48.242	25.907	1031.557	836.016
49.257	26.118	1030.349	835.939
50.271	25.995	1029.795	834.849
51.286	26.163	1029.182	835.055
52.301	26.125	1028.701	834.414
53.315	26.233	1027.480	833.847
54.330	26.337	1027.899	834.597
55.344	26.266	1025.786	832.478
56.359	26.237	1025.357	831.924
57.374	25.954	1024.706	830.018
58.388	26.135	1023.002	829.395
59.403	25.831	1023.739	828.521
60.417	26.061	1021.522	827.711
61.432	25.751	1021.051	825.834
62.447	25.758	1021.113	825.844
63.461	26.033	1020.312	826.382
64.476	26.097	1020.007	826.356
65.490	25.855	1018.718	824.132
66.505	25.567	1017.706	821.922
67.520	25.839	1016.478	822.099
68.534	26.065	1016.605	823.163
69.549	25.906	1015.871	821.769
70.563	25.509	1013.790	818.205
71.578	25.175	1014.598	817.267
72.593	25.399	1012.873	816.821
73.607	25.232	1011.500	814.886
74.622	25.424	1009.856	814.356
75.636	25.544	1010.038	814.976
76.651	26.041	1008.660	816.040
77.666	25.415	1008.663	813.141
78.680	25.603	1007.423	812.919
79.695	25.719	1007.741	813.627
80.709	25.610	1006.576	812.123
81.724	25.993	1005.198	812.664
82.739	25.890	1004.333	811.430
83.753	25.468	1004.949	809.953
84.768	26.018	1003.997	811.590
85.782	26.547	1002.169	812.416
86.797	26.714	1001.358	812.438
87.812	26.544	1001.148	811.433
88.826	26.153	1000.866	809.379
89.841	26.386	999.734	809.437
90.855	26.616	998.398	809.308
91.870	26.567	997.581	808.355
92.884	26.659	997.004	808.226
93.899	26.300	996.678	806.289
94.914	26.072	996.231	804.839
95.928	26.327	995.304	805.156
96.943	26.146	994.767	803.846
97.957	26.119	993.131	802.333
98.972	25.876	992.402	800.593
99.987	26.007	990.465	799.541
101.001	25.600	991.461	798.468
102.016	25.993	991.149	799.888
103.030	26.213	989.462	799.432
104.045	26.362	987.873	798.736
105.060	25.974	987.135	796.355
106.074	25.747	985.512	793.975
107.089	25.658	986.101	793.985
108.103	25.902	985.577	794.569
109.118	26.194	984.015	794.523
110.133	25.979	983.202	792.852
111.147	25.873	981.760	791.152
112.162	25.758	980.612	789.656
113.176	25.701	979.261	788.247
114.191	25.912	979.712	789.464
115.206	25.699	978.092	787.156
116.220	25.377	977.575	785.265
117.235	25.120	977.432	783.956
118.249	25.755	975.985	785.497
119.264	25.337	975.572	783.272
120.279	25.602	973.907	783.021
121.293	25.593	973.566	782.636
122.308	25.424	973.600	781.861
123.322	25.547	972.400	781.365
124.337	25.610	970.761	780.247
125.352	25.426	970.209	778.938
126.366	24.927	968.015	774.950
127.381	24.738	966.699	773.010
128.395	25.272	966.438	775.042
129.410	25.841	967.124	777.978
130.424	26.384	965.386	778.853
131.439	26.088	965.668	777.735
132.454	25.777	964.667	775.523
133.468	25.899	963.634	775.145
134.483	25.935	963.429	775.067
135.497	26.052	961.696	774.108
136.512	26.057	962.134	774.413
137.527	26.279	960.940	774.336
138.541	26.194	960.619	773.643
139.556	26.385	958.654	772.811
140.570	26.221	958.176	771.655
141.585	26.267	958.115	771.733
142.600	26.235	956.776	770.452
143.614	26.147	956.451	769.744
144.629	26.521	954.885	770.010
145.643	26.453	955.151	769.866
146.658	26.575	954.099	769.468
147.673	26.352	952.980	767.552
148.687	26.199	951.384	765.550
149.702	26.351	951.078	765.878
150.716	26.306	949.142	764.061
151.731	26.147	948.817	763.062
152.746	26.454	946.796	762.663
153.760	26.285	947.873	762.750
154.775	26.163	946.806	761.311
155.789	26.304	947.151	762.114
156.804	26.578	945.511	761.881
157.819	26.540	944.367	760.732
158.833	26.387	943.037	758.949
159.848	26.538	942.812	759.336
160.862	26.493	941.846	758.300
161.877	26.413	941.221	757.396
162.892	26.389	939.930	756.192
163.906	26.639	938.923	756.357
164.921	26.636	937.913	755.464
165.935	26.586	937.181	754.600
166.950	26.468	936.448	753.453
167.964	26.794	935.026	753.596
168.979	26.508	934.725	752.097
169.994	26.327	933.653	750.418
171.008	25.826	933.457	748.112
172.023	26.292	932.639	749.327
173.037	26.377	931.905	749.022
174.052	26.422	930.892	748.327
175.067	26.161	929.049	745.701
176.081	26.224	927.722	744.831
177.096	26.690	927.370	746.404
178.110	26.211	926.650	743.783
179.125	26.188	926.389	743.413
180.140	25.748	924.639	740.135
181.154	26.128	923.416	740.650
182.169	26.045	923.394	740.229
183.183	26.026	924.534	741.000
184.198	26.441	922.821	741.259
185.213	26.451	922.704	741.143
186.227	26.392	921.377	739.768
187.242	26.510	920.732	739.668
188.256	26.496	921.126	739.861
189.271	26.705	919.269	739.158
190.286	26.406	919.589	738.128
191.300	26.234	919.417	737.224
192.315	25.742	918.381	734.321
193.329	25.241	915.775	730.133
194.344	24.966	914.485	727.926
195.359	25.514	914.158	729.826
196.373	26.129	914.726	732.713
197.388	26.649	915.022	734.993
198.402	26.205	915.015	733.121
199.417	26.386	913.979	732.959
200.432	26.736	913.315	733.779
201.446	26.581	912.354	732.316
202.461	26.130	911.225	729.523
203.475	25.971	911.041	728.670
204.490	25.615	909.397	725.853
205.504	24.601	907.231	719.976
206.519	24.610	907.575	720.222
207.534	26.210	907.399	726.461
208.548	26.187	906.879	725.889
209.563	26.364	907.434	726.978
210.577	26.293	906.426	725.821
211.592	26.298	906.181	725.581
212.607	26.399	905.716	725.549
213.621	26.751	905.004	726.327
214.636	26.622	904.893	725.658
215.650	26.745	903.807	725.215
216.665	26.706	902.820	724.203
217.680	26.523	903.510	723.959
218.694	26.842	902.388	724.271
219.709	26.371	902.484	722.401
220.723	25.970	901.054	719.592
221.738	26.130	900.552	719.766
222.753	26.361	900.212	720.351
223.767	26.381	899.411	719.727
224.782	26.554	897.955	719.187
225.796	26.771	897.820	719.877
226.811	26.839	897.345	719.702
227.826	26.414	895.754	716.676
228.840	25.686	894.604	712.810
229.855	25.294	894.787	711.341
230.869	25.925	893.493	712.744
231.884	25.309	893.316	710.105
232.899	25.202	892.749	709.168
233.913	26.055	893.659	713.204
234.928	26.303	891.898	712.712
235.942	26.754	890.446	713.265
236.957	26.202	891.367	711.765
237.972	26.182	890.133	710.636
238.986	25.960	888.460	708.366
240.001	25.783	888.411	707.570
241.015	26.177	887.983	708.713
242.030	26.191	888.464	709.087
243.045	26.322	887.755	708.975
244.059	26.511	886.525	708.670
245.074	26.626	885.058	707.883
246.088	26.382	885.518	707.235
247.103	25.972	885.136	705.263
248.117	26.125	883.966	704.865
249.132	26.793	884.102	707.519
250.147	27.375	882.879	708.747
251.161	27.098	883.323	707.960
252.176	27.469	882.519	708.697
253.190	27.100	882.762	707.394
254.205	27.509	881.209	707.674
255.220	27.236	882.612	707.678
256.234	27.512	880.873	707.294
257.249	27.297	880.240	705.888
258.263	27.198	879.933	705.195
259.278	27.405	878.522	704.802
260.293	27.379	877.770	704.039
261.307	27.270	878.254	703.941
262.322	27.267	877.499	703.261
263.336	27.262	876.424	702.318
264.351	26.907	874.539	699.380
265.366	25.410	873.588	692.787
266.380	25.151	873.058	691.306
267.395	26.234	873.820	696.025
268.409	27.110	872.095	697.956
269.424	26.859	872.366	697.145
270.439	27.030	872.191	697.601
271.453	26.715	872.097	696.256
272.468	27.262	870.446	696.973
273.482	27.314	870.107	696.837
274.497	27.603	869.012	697.004
275.512	27.099	868.572	694.663
276.526	26.855	867.523	692.831
277.541	26.651	867.463	691.941
278.555	27.208	866.345	693.114
279.570	26.984	866.587	692.392
280.585	26.959	865.811	691.618
281.599	27.091	864.916	691.342
282.614	27.002	864.201	690.370
283.628	27.028	862.770	689.265
284.643	26.494	862.539	686.995
285.657	26.421	862.938	686.973
286.672	26.614	860.758	685.908
287.687	26.008	861.072	683.802
288.701	26.565	861.406	686.118
289.716	27.121	860.701	687.601
290.730	25.947	860.884	683.239
291.745	26.344	859.371	683.477
292.760	26.266	858.716	682.601
293.774	26.403	856.794	681.532
294.789	27.251	858.295	685.864
295.803	27.596	858.296	687.107
296.818	27.614	858.091	686.947
297.833	27.805	856.502	686.334
298.847	27.099	855.957	683.182
299.862	26.929	854.610	681.409
300.876	27.106	855.673	682.861
301.891	27.331	855.427	683.451
302.906	27.647	853.946	683.391
303.920	27.619	852.134	681.776
304.935	27.241	852.074	680.254
305.949	27.337	851.906	680.417
306.964	27.743	851.174	681.290
307.979	27.462	850.149	679.362
308.993	27.523	850.139	679.518
310.008	27.500	850.162	679.392
311.022	27.494	849.978	679.162
312.037	27.745	848.966	679.230
313.052	27.289	848.399	677.017
314.066	27.249	848.089	676.560
315.081	26.401	847.300	672.718
316.095	26.040	845.676	670.031
317.110	26.430	846.148	671.795
318.125	27.313	845.734	674.681
319.139	26.976	844.020	672.009
320.154	25.676	842.887	666.235
321.168	25.401	841.392	663.980
322.183	25.757	841.984	665.706
323.197	26.604	843.368	669.875
324.212	27.095	841.967	670.515
325.227	26.997	841.891	670.036
326.241	27.534	841.362	671.533
327.256	27.029	841.212	669.493
328.270	27.222	840.009	669.186
329.285	27.060	838.516	667.342
330.300	27.335	838.003	667.885
331.314	26.859	837.273	665.499
332.329	26.857	837.655	665.736
333.343	27.120	837.315	666.372
334.358	27.582	836.926	667.695
335.373	27.296	836.718	666.423
336.387	27.286	836.325	666.015
337.402	27.797	835.596	667.245
338.416	27.950	834.599	666.947
339.431	27.872	834.695	666.679
340.446	27.743	833.522	665.214
341.460	28.125	834.101	667.009
342.475	28.234	833.151	666.588
343.489	27.631	832.463	663.783
344.504	27.920	832.236	664.596
345.519	27.550	832.629	663.506
346.533	28.406	830.718	665.030
347.548	28.484	830.642	665.195
348.562	28.238	830.821	664.387
349.577	28.510	829.731	664.439
350.592	28.224	829.009	662.769
351.606	28.366	828.906	663.144
352.621	28.106	827.686	661.169
353.635	27.977	828.149	661.011
354.650	27.926	827.694	660.405
355.665	27.342	827.025	657.704
356.679	26.226	825.087	652.078
357.694	26.232	824.192	651.335
358.708	27.111	824.442	654.642
359.723	27.395	823.849	655.137
360.738	27.406	823.876	655.138
361.752	27.810	822.126	655.139
362.767	27.802	822.607	655.435
363.781	28.209	822.778	656.976
364.796	28.503	822.547	657.787
365.810	28.533	821.815	657.251
366.825	29.007	821.232	658.426
367.840	28.694	821.608	657.549
368.854	28.748	819.953	656.357
369.869	28.312	819.619	654.473
370.883	28.061	819.209	653.193
371.898	28.183	818.294	652.840
372.913	28.100	817.121	651.550
373.927	27.826	817.575	650.877
374.942	27.761	816.723	649.913
375.956	28.405	816.515	651.981
376.971	27.967	816.630	650.456
377.986	28.415	815.602	651.170
379.000	28.294	816.355	651.286
380.015	29.024	813.575	651.594
381.029	28.239	814.122	649.195
382.044	28.180	813.751	648.632
383.059	28.490	813.476	649.452
384.073	28.428	813.026	648.817
385.088	28.501	812.169	648.332
386.102	28.514	811.670	647.924
387.117	28.363	810.878	646.699
388.132	28.180	809.949	645.257
389.146	28.002	809.624	644.313
390.161	27.605	807.723	641.349
391.175	27.809	808.626	642.726
392.190	28.129	808.471	643.673
393.205	28.277	807.837	643.633
394.219	27.612	805.982	639.763
395.234	25.697	803.370	630.928
396.248	24.911	802.804	627.673
397.263	25.994	803.637	632.066
398.278	27.401	805.047	638.056
399.292	28.337	804.560	640.890
400.307	28.249	803.586	639.751
401.321	27.642	803.300	637.345
402.336	27.509	803.840	637.251
403.350	28.090	803.973	639.333
404.365	28.789	803.397	641.257
405.380	28.930	803.115	641.470
406.394	29.241	803.366	642.698
407.409	29.535	802.601	643.053
408.423	29.215	801.505	641.003
409.438	29.174	801.749	641.001
410.453	29.359	800.875	640.888
411.467	29.594	800.290	641.178
412.482	29.330	799.446	639.529
413.496	29.322	799.150	639.209
414.511	28.920	798.895	637.555
415.526	29.634	798.648	639.775
416.540	29.527	798.591	639.301
417.555	29.237	797.813	637.620
418.569	29.301	796.022	636.353
419.584	28.974	795.617	634.843
420.599	28.817	796.518	634.962
421.613	159.423	1369.872	1793.383
422.628	138.264	1453.347	1793.503
