DTS Sentinel unit serial number:	SN413079Multiplexer serial number:	ORYXHardware model number:	OX4-SRSoftware version number:	ORYX F/W v4.00 Oryx Data Collector v3.7.2.0data status	okinstallation	princeton_trtdifferential loss correction	single-endedforward channel	channel 3reverse channel	N/Adate	2019/09/18time	22:04:34forward acquisition time	60.00reverse acquisition time	0.00gamma	496.2192k internal	0.2345k external	0.2345temperature offset calibration	0.9990default loss term (dB/km)	0.3790temperature slope calibration	1.0000multiplexer offset coefficient	1.0000multiplexer slope coefficient	1.0000fibre end	0.00T internal ref (°C)	24.53T ext. ref 1 (°C)	0.81T ext. ref 2 (°C)	18.31length (m)	temperature (°C)	Stokes	anti-Stokes-747.200	-2.084	-0.196	-0.138
-746.185	129.956	0.031	0.039
-745.171	800.000	-0.033	0.137
-744.156	-17.888	0.264	0.165
-743.142	-200.000	0.045	0.414
-742.127	800.000	-0.062	0.221
-741.112	-124.321	0.168	-0.026
-740.098	-200.000	0.007	0.120
-739.083	-40.212	0.280	0.146
-738.069	-200.000	-0.062	0.275
-737.054	-200.000	-0.037	0.277
-736.039	-52.595	-0.159	-0.073
-735.025	-200.000	-0.031	-0.161
-734.010	-80.175	0.564	-0.189
-732.996	-142.066	-0.238	-0.024
-731.981	800.000	0.054	-0.156
-730.966	-200.000	-0.088	-0.599
-729.952	-83.369	0.418	-0.134
-728.937	-136.596	-0.103	0.012
-727.923	-200.000	0.134	0.000
-726.908	33.853	0.037	0.032
-725.894	-200.000	-0.012	0.295
-724.879	-56.711	0.508	0.225
-723.864	-94.022	-0.198	0.054
-722.850	-37.080	-0.184	-0.099
-721.835	-138.468	0.207	0.023
-720.821	561.171	-0.057	-0.138
-719.806	110.980	0.172	-0.207
-718.791	-44.115	-0.153	-0.077
-717.777	-79.301	0.160	-0.054
-716.762	800.000	-0.037	-0.134
-715.748	-68.702	0.100	-0.039
-714.733	19.471	-0.210	-0.169
-713.718	-200.000	-0.001	-0.228
-712.704	-200.000	0.019	0.124
-711.689	65.281	0.119	-0.120
-710.675	-76.006	-0.297	-0.105
-709.660	776.872	0.086	-0.234
-708.645	-11.647	0.231	0.151
-707.631	-47.831	0.024	-0.012
-706.616	-200.000	0.012	0.204
-705.602	-30.468	-0.170	0.096
-704.587	-64.809	0.207	-0.084
-703.572	4.872	-0.204	-0.150
-702.558	-200.000	0.063	0.296
-701.543	-200.000	0.027	-0.177
-700.529	386.161	-0.040	0.082
-699.514	31.416	-0.213	0.182
-698.499	7.325	-0.209	-0.156
-697.485	-69.498	0.335	0.128
-696.470	-122.937	-0.123	-0.020
-695.456	425.437	-0.145	-0.312
-694.441	30.489	0.099	0.084
-693.426	94.612	0.047	-0.053
-692.412	-108.376	-0.206	0.044
-691.397	44.528	-0.039	-0.036
-690.383	-105.312	0.053	0.012
-689.368	-111.662	-0.446	-0.090
-688.354	-20.899	0.291	0.178
-687.339	270.288	0.132	-0.232
-686.324	394.590	-0.110	0.229
-685.310	-76.519	0.109	0.038
-684.295	-109.746	-0.131	-0.027
-683.281	92.683	-0.123	-0.139
-682.266	-129.085	-0.337	-0.047
-681.251	215.025	-0.090	0.142
-680.237	130.567	-0.101	0.129
-679.222	800.000	0.029	0.093
-678.208	-111.048	-0.225	0.046
-677.193	800.000	0.014	0.056
-676.178	-200.000	-0.030	0.358
-675.164	-24.158	-0.184	-0.110
-674.149	-54.533	0.253	-0.114
-673.135	21.225	-0.025	-0.020
-672.120	275.189	-0.120	-0.213
-671.105	800.000	0.024	0.081
-670.091	-4.936	0.240	0.165
-669.076	800.000	0.082	0.257
-668.062	260.654	-0.097	-0.167
-667.047	217.917	-0.087	0.139
-666.032	-75.259	-0.248	-0.088
-665.018	-200.000	0.025	-0.239
-664.003	800.000	-0.064	0.211
-662.989	70.521	-0.168	0.174
-661.974	206.820	0.086	-0.134
-660.959	-200.000	0.005	0.051
-659.945	69.227	-0.322	0.330
-658.930	6.771	-0.190	-0.141
-657.916	274.585	0.125	-0.221
-656.901	-98.325	0.342	-0.088
-655.886	-125.605	0.148	0.022
-654.872	75.172	-0.131	-0.138
-653.857	216.820	0.108	-0.171
-652.843	-17.747	0.150	0.094
-651.828	-85.083	-0.299	0.093
-650.814	-72.886	-0.343	0.126
-649.799	14.237	0.269	-0.209
-648.784	107.101	0.115	0.136
-647.770	800.000	-0.039	-0.158
-646.755	-200.000	-0.011	0.051
-645.741	-6.012	0.203	-0.139
-644.726	-52.562	0.198	-0.091
-643.711	-76.589	0.132	-0.046
-642.697	-80.661	0.167	0.055
-641.682	-140.417	0.194	0.020
-640.668	-61.271	0.245	0.103
-639.653	78.913	0.172	-0.184
-638.638	-200.000	0.025	0.220
-637.624	-129.264	-0.220	0.030
-636.609	345.913	0.070	-0.137
-635.595	-200.000	-0.021	-0.260
-634.580	800.000	0.038	-0.134
-633.565	-200.000	0.013	0.113
-632.551	-200.000	0.019	0.133
-631.536	-2.435	-0.202	0.141
-630.522	448.091	-0.136	-0.298
-629.507	-200.000	0.053	-0.236
-628.492	82.566	-0.105	0.113
-627.478	134.653	0.168	0.217
-626.463	-92.966	-0.333	0.093
-625.449	-120.557	-0.325	-0.055
-624.434	-99.133	-0.172	-0.043
-623.419	183.931	0.063	0.093
-622.405	-200.000	-0.070	-0.424
-621.390	-59.078	0.136	0.058
-620.376	331.573	-0.046	-0.089
-619.361	19.673	-0.238	0.190
-618.346	-200.000	0.046	-0.358
-617.332	-39.334	-0.158	-0.082
-616.317	-101.036	0.203	0.050
-615.303	49.479	0.281	-0.264
-614.288	-169.945	-0.614	-0.022
-613.273	235.903	0.121	-0.199
-612.259	32.126	-0.137	-0.118
-611.244	-142.914	0.205	0.020
-610.230	-32.709	-0.021	0.012
-609.215	-124.627	0.267	-0.041
-608.201	-165.778	-0.136	-0.006
-607.186	169.871	0.198	-0.281
-606.171	171.566	0.036	0.051
-605.157	-166.352	0.387	-0.016
-604.142	-200.000	0.016	-0.208
-603.128	-96.650	-0.048	0.013
-602.113	-9.399	-0.191	0.127
-601.098	103.585	-0.101	-0.118
-600.084	30.968	-0.237	-0.202
-599.069	93.696	-0.123	-0.139
-598.055	-200.000	0.015	-0.072
-597.040	-39.561	0.176	-0.092
-596.025	-28.109	-0.166	-0.096
-595.011	12.500	-0.174	0.134
-593.996	-200.000	-0.002	0.150
-592.982	286.383	0.118	0.211
-591.967	-67.206	-0.051	-0.020
-590.952	779.876	-0.019	0.052
-589.938	-3.707	0.139	0.096
-588.923	-200.000	-0.043	0.248
-587.909	731.005	0.039	0.103
-586.894	-200.000	-0.029	0.211
-585.879	-200.000	-0.006	-0.231
-584.865	-15.988	-0.070	-0.044
-583.850	-98.650	0.426	-0.108
-582.836	-74.830	-0.252	-0.090
-581.821	-145.620	0.217	-0.019
-580.806	110.929	0.165	-0.197
-579.792	800.000	-0.025	0.095
-578.777	-74.165	-0.093	0.034
-577.763	489.752	-0.187	-0.425
-576.748	-98.912	-0.217	-0.055
-575.733	-200.000	-0.058	-0.353
-574.719	-150.966	0.238	-0.018
-573.704	-47.830	-0.350	0.169
-572.690	-200.000	0.010	-0.100
-571.675	-200.000	-0.051	-0.223
-570.661	-40.026	0.083	0.043
-569.646	-169.739	0.204	-0.007
-568.631	-23.303	-0.316	0.189
-567.617	-74.863	0.015	-0.005
-566.602	126.421	-0.132	0.166
-565.588	-200.000	0.018	0.117
-564.573	800.000	0.033	0.141
-563.558	172.233	0.284	0.406
-562.544	152.211	-0.186	0.252
-561.529	279.612	-0.191	-0.338
-560.515	542.192	0.086	0.205
-559.500	78.467	0.291	-0.309
-558.485	246.484	-0.096	0.161
-557.471	204.176	-0.119	-0.183
-556.456	800.000	-0.102	-0.387
-555.442	-54.727	0.165	-0.074
-554.427	-200.000	0.034	0.292
-553.412	-34.851	-0.197	-0.107
-552.398	-70.248	0.334	0.126
-551.383	800.000	-0.067	0.186
-550.369	-97.807	-0.408	-0.105
-549.354	-130.050	-0.159	-0.022
-548.339	-58.246	-0.520	-0.225
-547.325	-93.770	0.550	-0.151
-546.310	14.117	-0.123	-0.095
-545.296	346.931	0.073	-0.142
-544.281	-200.000	0.051	0.333
-543.266	-101.355	-0.431	-0.104
-542.252	84.609	0.073	0.079
-541.237	-200.000	-0.014	-0.182
-540.223	-200.000	-0.054	-0.390
-539.208	314.073	0.119	-0.222
-538.193	-200.000	0.008	0.052
-537.179	145.023	-0.101	-0.134
-536.164	-200.000	0.004	0.042
-535.150	-20.054	0.301	-0.184
-534.135	260.681	0.214	-0.368
-533.121	-132.300	-0.287	0.037
-532.106	-200.000	0.043	-0.365
-531.091	-42.398	0.284	-0.144
-530.077	-71.210	-0.590	0.220
-529.062	-104.409	0.166	0.038
-528.048	-21.075	-0.093	0.056
-527.033	-168.185	0.330	0.013
-526.018	800.000	0.048	0.143
-525.004	800.000	-0.038	0.157
-523.989	800.000	0.068	-0.225
-522.975	-200.000	-0.007	-0.090
-521.960	-162.197	0.298	0.015
-520.945	-49.007	-0.256	0.122
-519.931	-99.893	0.046	-0.011
-518.916	374.647	0.176	0.355
-517.902	219.646	-0.149	0.236
-516.887	-45.805	-0.086	0.042
-515.872	409.612	0.089	-0.187
-514.858	-122.101	-0.135	-0.022
-513.843	112.565	-0.342	-0.410
-512.829	800.000	0.123	-0.388
-511.814	-3.957	0.262	-0.180
-510.799	288.668	0.073	-0.131
-509.785	-116.442	-0.113	-0.021
-508.770	-168.741	-0.175	-0.007
-507.756	121.182	0.092	-0.114
-506.741	260.169	-0.127	0.217
-505.726	800.000	-0.032	0.129
-504.712	-42.546	-0.248	-0.125
-503.697	315.871	-0.235	0.439
-502.683	-200.000	0.028	0.333
-501.668	-200.000	-0.032	-0.198
-500.653	-47.901	-0.188	-0.090
-499.639	486.373	-0.062	0.140
-498.624	800.000	0.101	0.331
-497.610	671.009	-0.085	-0.218
-496.595	107.388	-0.133	0.156
-495.581	161.518	-0.051	0.071
-494.566	-200.000	0.011	0.179
-493.551	7.563	0.061	-0.045
-492.537	216.667	0.040	-0.063
-491.522	127.369	0.083	0.104
-490.508	-196.020	0.284	-0.002
-489.493	703.512	-0.141	-0.369
-488.478	36.993	0.362	0.318
-487.464	-200.000	0.011	0.275
-486.449	-43.681	0.128	-0.064
-485.435	-35.301	0.164	-0.088
-484.420	715.124	0.082	-0.215
-483.405	33.942	0.063	-0.054
-482.391	-42.106	-0.205	0.104
-481.376	134.702	-0.075	0.097
-480.362	800.000	-0.052	0.158
-479.347	-193.802	-0.278	0.002
-478.332	-103.983	-0.199	-0.046
-477.318	-49.388	0.195	0.092
-476.303	-52.428	0.040	0.018
-475.289	111.119	-0.157	-0.187
-474.274	-200.000	0.015	-0.132
-473.259	-200.000	-0.022	0.108
-472.245	-49.507	0.116	-0.055
-471.230	-200.000	-0.001	0.015
-470.216	-134.566	0.256	0.031
-469.201	-92.000	0.040	0.011
-468.186	722.654	-0.012	0.030
-467.172	146.372	-0.022	-0.030
-466.157	-170.616	0.343	-0.012
-465.143	166.192	-0.109	-0.152
-464.128	-90.195	0.234	0.067
-463.113	-2.368	-0.250	-0.173
-462.099	-200.000	-0.006	-0.089
-461.084	-200.000	-0.021	-0.355
-460.070	-37.732	-0.398	-0.210
-459.055	-53.642	-0.099	0.045
-458.040	-28.930	0.185	-0.105
-457.026	37.591	-0.039	0.035
-456.011	121.721	-0.202	-0.249
-454.997	-125.228	0.225	-0.034
-453.982	-73.545	0.162	-0.058
-452.968	-148.874	0.172	0.014
-451.953	-55.358	-0.241	0.107
-450.938	-21.000	0.144	0.087
-449.924	-37.659	-0.319	-0.168
-448.909	-200.000	-0.030	-0.156
-447.895	-200.000	-0.028	0.268
-446.880	-93.597	-0.208	0.057
-445.865	-54.074	0.368	0.165
-444.851	-200.000	-0.059	0.359
-443.836	-200.000	-0.012	0.169
-442.822	-88.242	-0.316	-0.094
-441.807	103.963	-0.298	0.346
-440.792	-84.116	0.081	-0.025
-439.778	92.830	-0.097	-0.108
-438.763	103.189	0.101	-0.117
-437.749	800.000	0.111	0.414
-436.734	90.665	0.048	0.053
-435.719	322.749	-0.160	0.301
-434.705	800.000	-0.020	0.082
-433.690	-200.000	0.043	-0.266
-432.676	-75.593	-0.338	-0.119
-431.661	187.220	-0.073	0.108
-430.646	-200.000	-0.063	-0.297
-429.632	-200.000	-0.026	-0.198
-428.617	-200.000	-0.070	-0.339
-427.603	-163.050	-0.197	-0.009
-426.588	-92.307	0.365	-0.102
-425.573	145.774	-0.200	-0.265
-424.559	130.214	0.079	-0.100
-423.544	-99.126	-0.185	-0.046
-422.530	466.506	0.062	-0.138
-421.515	-200.000	-0.018	0.227
-420.500	-25.941	0.246	0.143
-419.486	2.301	-0.145	-0.103
-418.471	92.423	-0.372	0.414
-417.457	-63.126	0.285	-0.116
-416.442	-93.335	0.090	-0.025
-415.428	790.875	0.109	0.297
-414.413	800.000	0.118	0.423
-413.398	15.873	-0.269	-0.209
-412.384	-179.861	-0.215	0.005
-411.369	-200.000	0.004	-0.206
-410.355	-50.064	0.182	0.085
-409.340	-200.000	-0.023	0.359
-408.325	800.000	-0.082	0.305
-407.311	-111.949	-0.195	-0.039
-406.296	65.194	0.208	-0.208
-405.282	-200.000	0.019	-0.283
-404.267	10.969	-0.090	0.068
-403.252	800.000	0.018	0.068
-402.238	-74.818	-0.120	-0.042
-401.223	136.069	0.133	-0.171
-400.209	-53.953	-0.400	0.180
-399.194	244.466	0.116	-0.193
-398.179	-100.892	0.208	0.050
-397.165	16.898	-0.172	0.134
-396.150	-200.000	-0.031	-0.147
-395.136	660.573	-0.069	0.176
-394.121	-61.769	-0.202	-0.084
-393.106	-94.981	-0.211	-0.056
-392.092	208.635	-0.098	-0.151
-391.077	-134.148	-0.133	-0.016
-390.063	-76.558	0.260	0.090
-389.048	-200.000	-0.033	0.213
-388.033	-92.784	0.376	-0.104
-387.019	-72.687	-0.102	-0.037
-386.004	243.663	0.097	0.160
-384.990	33.266	-0.172	0.148
-383.975	137.392	-0.058	0.075
-382.960	800.000	0.048	0.144
-381.946	53.977	0.174	-0.165
-380.931	-200.000	0.071	-0.434
-379.917	231.100	0.115	-0.185
-378.902	-200.000	0.067	-0.304
-377.888	59.136	0.078	0.075
-376.873	8.789	-0.077	0.057
-375.858	-155.391	0.129	0.008
-374.844	147.070	-0.046	-0.060
-373.829	-200.000	0.024	0.192
-372.815	800.000	0.097	0.408
-371.800	-103.320	-0.046	-0.011
-370.785	-55.133	0.225	0.100
-369.771	-79.145	-0.071	-0.024
-368.756	541.870	0.120	0.282
-367.742	-200.000	-0.041	0.202
-366.727	562.060	0.131	0.313
-365.712	205.334	-0.058	0.088
-364.698	800.000	0.065	0.192
-363.683	-75.207	0.221	-0.078
-362.669	-17.485	-0.172	-0.107
-361.654	-44.968	-0.385	0.189
-360.639	800.000	0.052	0.169
-359.625	-98.006	0.178	-0.045
-358.610	-120.210	0.089	-0.015
-357.596	-121.210	-0.211	0.035
-356.581	-48.933	0.158	-0.075
-355.566	800.000	-0.030	0.116
-354.552	-92.973	0.071	0.020
-353.537	-200.000	-0.018	-0.194
-352.523	716.371	-0.084	0.220
-351.508	50.951	-0.184	0.172
-350.493	-137.105	-0.516	-0.058
-349.479	-200.000	0.032	0.239
-348.464	115.617	-0.277	0.333
-347.450	-140.918	-0.529	-0.054
-346.435	101.903	-0.029	0.034
-345.420	-200.000	0.010	-0.269
-344.406	322.897	0.089	-0.167
-343.391	800.000	-0.099	0.378
-342.377	-33.796	0.229	0.124
-341.362	-83.387	-0.191	-0.060
-340.348	-59.066	-0.281	-0.119
-339.333	455.531	0.036	0.079
-338.318	-200.000	0.062	0.283
-337.304	-68.637	0.221	0.084
-336.289	-102.661	0.237	0.056
-335.275	286.274	0.100	-0.177
-334.260	106.393	-0.163	0.190
-333.245	-105.344	0.250	0.056
-332.231	109.517	0.157	0.185
-331.216	-59.618	-0.161	-0.068
-330.202	-98.504	0.365	0.092
-329.187	54.566	0.086	-0.082
-328.172	481.434	0.120	0.268
-327.158	199.553	0.052	-0.078
-326.143	362.412	-0.114	-0.224
-325.129	-46.752	0.129	0.062
-324.114	-200.000	-0.030	-0.482
-323.099	-200.000	-0.029	0.235
-322.085	-118.126	-0.213	0.037
-321.070	35.630	0.219	0.189
-320.056	85.120	-0.032	-0.035
-319.041	800.000	0.052	-0.158
-318.026	-132.822	-0.313	-0.039
-317.012	208.129	0.026	0.041
-315.997	800.000	0.052	0.210
-314.983	-128.525	0.221	0.031
-313.968	-55.170	0.395	0.175
-312.953	-57.321	-0.227	0.098
-311.939	265.781	-0.067	0.115
-310.924	221.902	-0.175	0.277
-309.910	-40.738	0.199	-0.101
-308.895	1.370	-0.115	0.081
-307.880	-200.000	-0.014	-0.119
-306.866	205.222	0.238	-0.364
-305.851	-51.143	-0.332	0.153
-304.837	-123.535	0.136	-0.021
-303.822	-29.273	-0.061	0.035
-302.807	-11.024	-0.145	-0.094
-301.793	-117.385	0.222	-0.039
-300.778	337.030	-0.140	-0.268
-299.764	-200.000	0.018	-0.175
-298.749	800.000	0.063	0.209
-297.735	-7.036	0.064	0.043
-296.720	42.101	-0.142	-0.127
-295.705	-115.816	0.384	0.071
-294.691	-200.000	-0.001	0.593
-293.676	-57.796	0.142	0.061
-292.662	-81.352	0.058	0.019
-291.647	16.837	0.198	-0.154
-290.632	22.529	0.126	0.101
-289.618	-72.882	0.303	-0.109
-288.603	-200.000	0.015	0.315
-287.589	-121.407	0.278	0.045
-286.574	238.784	-0.094	0.154
-285.559	800.000	0.050	-0.164
-284.545	140.995	0.159	0.207
-283.530	102.042	0.258	0.296
-282.516	800.000	0.107	0.349
-281.501	59.549	0.146	-0.141
-280.486	-200.000	0.016	-0.208
-279.472	-200.000	-0.033	-0.265
-278.457	-112.439	0.229	-0.045
-277.443	-109.111	0.136	0.028
-276.428	12.940	-0.125	0.095
-275.413	-200.000	0.017	-0.323
-274.399	-142.324	-0.086	-0.008
-273.384	74.834	0.302	-0.312
-272.370	-200.000	0.001	0.058
-271.355	-167.414	0.065	-0.003
-270.340	-21.082	-0.202	-0.121
-269.326	37.169	0.411	0.357
-268.311	-200.000	-0.020	-0.100
-267.297	-2.544	0.116	-0.080
-266.282	-200.000	-0.043	0.406
-265.267	-200.000	-0.008	0.088
-264.253	-12.909	-0.153	-0.098
-263.238	299.946	-0.043	-0.077
-262.224	63.499	-0.127	-0.125
-261.209	121.621	-0.207	0.253
-260.195	76.468	0.134	0.140
-259.180	60.486	0.108	0.105
-258.165	-53.670	0.189	0.085
-257.151	-0.948	-0.295	-0.205
-256.136	-200.000	-0.018	-0.089
-255.122	-18.284	0.077	-0.048
-254.107	262.828	0.105	0.179
-253.092	800.000	0.030	0.096
-252.078	-169.567	0.248	0.009
-251.063	-200.000	-0.008	0.054
-250.049	-49.809	0.277	-0.129
-249.034	-93.389	0.069	0.019
-248.019	-16.441	0.121	-0.075
-247.005	127.814	0.028	0.035
-245.990	0.448	0.168	-0.118
-244.976	-200.000	0.025	0.214
-243.961	143.938	0.088	0.116
-242.946	-72.724	-0.170	0.061
-241.932	166.669	0.021	-0.029
-240.917	-40.102	0.065	-0.033
-239.903	-153.387	0.103	-0.007
-238.888	-200.000	0.014	-0.107
-237.873	-16.362	-0.148	-0.092
-236.859	-200.000	-0.045	0.379
-235.844	50.609	0.077	0.071
-234.830	-54.934	0.226	-0.100
-233.815	7.085	0.134	0.098
-232.800	644.406	-0.109	0.272
-231.786	212.244	-0.101	0.156
-230.771	-102.509	0.150	-0.035
-229.757	38.603	-0.161	0.141
-228.742	0.921	-0.153	0.108
-227.727	-200.000	-0.047	0.235
-226.713	466.866	0.073	0.160
-225.698	324.659	0.059	-0.111
-224.684	55.558	-0.109	0.104
-223.669	-31.426	0.366	-0.202
-222.655	-200.000	0.002	0.052
-221.640	67.513	-0.112	0.112
-220.625	-177.868	-0.160	-0.004
-219.611	-59.355	0.152	-0.064
-218.596	-70.521	-0.239	-0.089
-217.582	-77.165	0.140	-0.048
-216.567	800.000	-0.058	0.191
-215.552	-88.282	-0.064	0.019
-214.538	-200.000	0.037	-0.178
-213.523	58.750	-0.138	-0.133
-212.509	-8.432	-0.057	-0.037
-211.494	800.000	0.066	-0.218
-210.479	-200.000	0.015	0.321
-209.465	-73.699	0.038	0.014
-208.450	-42.055	0.038	-0.019
-207.436	-200.000	-0.007	-0.405
-206.421	-5.205	0.249	-0.168
-205.406	-25.655	-0.446	-0.258
-204.392	-11.993	-0.146	-0.094
-203.377	-30.343	-0.097	0.054
-202.363	305.114	-0.163	0.297
-201.348	-188.952	-0.259	0.003
-200.333	-53.976	-0.310	0.138
-199.319	61.754	0.146	0.142
-198.304	283.684	-0.088	0.155
-197.290	-200.000	0.002	0.016
-196.275	-200.000	-0.020	-0.138
-195.260	-200.000	-0.039	0.285
-194.246	-173.343	-0.058	0.002
-193.231	-82.099	-0.304	0.097
-192.217	-49.944	0.234	-0.109
-191.202	-200.000	-0.067	-0.472
-190.187	-26.403	-0.225	0.129
-189.173	419.295	0.079	0.166
-188.158	75.286	-0.089	0.092
-187.144	-166.340	0.397	-0.016
-186.129	-140.047	-0.375	0.039
-185.114	176.890	0.104	-0.148
-184.100	-200.000	0.017	0.130
-183.085	-60.457	-0.338	-0.141
-182.071	-18.457	0.199	-0.121
-181.056	35.199	0.118	0.101
-180.042	-0.424	0.160	-0.111
-179.027	800.000	-0.061	-0.192
-178.012	467.498	0.046	0.102
-176.998	-28.621	-0.238	-0.134
-175.983	18.457	-0.370	-0.290
-174.969	-165.301	0.349	-0.015
-173.954	475.820	0.032	0.070
-172.939	73.278	-0.048	0.049
-171.925	68.171	0.120	-0.120
-170.910	-200.000	0.019	0.128
-169.896	-164.353	0.108	0.005
-168.881	-200.000	0.073	-0.359
-167.866	89.886	-0.156	-0.170
-166.852	-157.523	-0.136	0.008
-165.837	529.561	-0.128	-0.297
-164.823	-26.547	0.089	-0.051
-163.808	-81.389	0.374	0.121
-162.793	-121.351	0.198	0.032
-161.779	-89.324	0.084	0.024
-160.764	-137.616	-0.152	0.017
-159.750	-131.069	-0.469	-0.061
-158.735	-200.000	0.007	0.289
-157.720	-200.000	0.051	0.304
-156.706	800.000	0.069	-0.221
-155.691	-200.000	0.007	-0.206
-154.677	-36.241	0.244	0.129
-153.662	5.490	-0.122	-0.088
-152.647	220.157	-0.085	0.133
-151.633	360.502	0.127	-0.249
-150.618	-200.000	-0.040	-0.212
-149.604	-200.000	0.023	-0.113
-148.589	-114.933	-0.601	0.112
-147.574	18.655	0.205	0.160
-146.560	800.000	0.024	0.080
-145.545	-200.000	-0.030	0.357
-144.531	634.542	-0.006	0.015
-143.516	562.799	-0.031	-0.072
-142.502	92.461	-0.236	0.261
-141.487	-44.084	-0.402	-0.197
-140.472	-150.134	0.148	0.011
-139.458	-116.747	0.107	0.019
-138.443	-200.000	-0.042	-0.402
-137.429	-200.000	-0.016	-0.296
-136.414	302.863	-0.106	-0.192
-135.399	-71.759	-0.148	0.054
-134.385	736.901	0.066	0.174
-133.370	-134.491	-0.142	-0.017
-132.356	-200.000	-0.013	0.177
-131.341	-200.000	0.004	-0.144
-130.326	-52.009	0.207	0.094
-129.312	437.401	-0.104	-0.221
-128.297	470.820	-0.104	-0.229
-127.283	-99.863	0.360	0.088
-126.268	29.595	-0.100	0.083
-125.253	308.413	0.159	0.289
-124.239	-91.009	0.144	-0.041
-123.224	800.000	-0.020	-0.054
-122.210	800.000	0.132	-0.400
-121.195	284.443	-0.086	0.151
-120.180	-200.000	-0.003	0.089
-119.166	-45.901	0.013	-0.006
-118.151	122.339	0.069	0.084
-117.137	-10.233	-0.175	0.113
-116.122	-200.000	-0.005	-0.093
-115.107	-42.005	0.124	-0.062
-114.093	218.380	0.101	-0.157
-113.078	-35.885	0.217	-0.115
-112.064	-162.125	0.056	0.003
-111.049	-3.951	0.126	-0.085
-110.034	-34.521	-0.366	0.195
-109.020	-200.000	0.024	-0.232
-108.005	-113.578	0.120	-0.023
-106.991	-98.974	-0.103	-0.026
-105.976	-69.970	-0.277	-0.103
-104.962	-200.000	0.026	-0.225
-103.947	-20.313	-0.057	0.034
-102.932	-200.000	-0.012	-0.177
-101.918	-32.757	0.322	-0.174
-100.903	39.132	0.034	0.030
-99.889	190.487	-0.054	0.079
-98.874	137.051	0.214	0.273
-97.859	15.808	0.062	-0.048
-96.845	166.653	0.088	-0.121
-95.830	96.136	-0.059	0.066
-94.816	41.071	-0.078	-0.069
-93.801	-8.022	0.147	0.097
-92.786	507.506	-0.020	0.045
-91.772	-200.000	-0.009	0.110
-90.757	374.629	0.126	-0.251
-89.743	-3.677	-0.265	-0.180
-88.728	-111.481	-0.065	-0.013
-87.713	-29.226	0.223	0.124
-86.699	196.770	-0.051	-0.076
-85.684	-98.733	-0.310	-0.077
-84.670	4.381	0.316	-0.226
-83.655	-13.616	0.155	0.098
-82.640	-35.466	-0.338	-0.179
-81.626	453.187	0.120	-0.259
-80.611	127.236	0.188	-0.233
-79.597	179.841	-0.151	-0.216
-78.582	131.555	-0.140	0.175
-77.567	88.647	0.218	0.236
-76.553	16.297	0.232	-0.179
-75.538	580.069	0.137	0.328
-74.524	-6.872	0.397	-0.263
-73.509	-16.780	0.186	-0.115
-72.494	77.479	0.023	0.024
-71.480	-200.000	0.004	0.037
-70.465	129.731	-0.045	-0.056
-69.451	13.622	0.147	-0.111
-68.436	-66.794	-0.170	0.065
-67.422	50.087	0.204	0.187
-66.407	168.307	0.154	-0.214
-65.392	-108.070	-0.230	-0.049
-64.378	-200.000	0.012	0.104
-63.363	-51.267	0.130	-0.060
-62.349	424.143	0.059	0.123
-61.334	97.335	-1.016	-1.136
-60.319	6.465	0.741	0.536
-59.305	800.000	-0.390	-1.297
-58.290	662.808	0.547	1.373
-57.276	242.919	1.000	1.632
-56.261	-200.000	120.990	639.875
-55.246	436.448	1531.118	3246.831
-54.232	150.304	2676.330	3537.951
-53.217	98.819	2151.380	2418.080
-52.203	34.945	1679.759	1431.757
-51.188	27.607	1499.000	1228.405
-50.173	25.607	1475.510	1195.825
-49.159	48.847	1544.328	1410.944
-48.144	46.482	1557.850	1407.107
-47.130	27.609	1507.983	1235.580
-46.115	24.837	1492.224	1203.999
-45.100	24.584	1489.008	1199.657
-44.086	24.595	1487.078	1198.132
-43.071	24.593	1484.666	1196.123
-42.057	24.531	1483.140	1194.434
-41.042	24.581	1481.562	1193.452
-40.027	24.550	1480.254	1192.143
-39.013	24.549	1478.552	1190.716
-37.998	24.443	1477.139	1188.829
-36.984	24.487	1476.767	1188.771
-35.969	24.462	1475.245	1187.336
-34.954	24.509	1473.674	1186.335
-33.940	24.538	1471.944	1185.088
-32.925	24.520	1470.867	1184.051
-31.911	24.550	1469.498	1183.102
-30.896	24.473	1468.696	1181.901
-29.881	24.595	1467.282	1181.520
-28.867	24.564	1466.149	1180.361
-27.852	24.584	1464.539	1179.150
-26.838	24.586	1463.165	1178.012
-25.823	24.561	1461.979	1176.839
-24.809	24.590	1460.335	1175.666
-23.794	24.516	1458.609	1173.741
-22.779	24.548	1457.889	1173.322
-21.765	24.570	1456.909	1172.637
-20.750	24.541	1455.721	1171.439
-19.736	24.553	1454.474	1170.469
-18.721	24.559	1453.649	1169.798
-17.706	24.669	1451.966	1169.119
-16.692	24.545	1451.375	1167.786
-15.677	24.524	1450.585	1166.964
-14.663	24.516	1449.335	1165.858
-13.648	24.506	1448.423	1165.019
-12.633	24.439	1447.950	1164.149
-11.619	24.581	1446.459	1163.829
-10.604	24.501	1445.883	1162.802
-9.590	24.572	1445.143	1162.625
-8.575	24.462	1444.753	1161.548
-7.560	24.585	1443.644	1161.409
-6.546	24.561	1442.983	1160.674
-5.531	24.532	1441.471	1159.227
-4.517	24.553	1440.208	1158.301
-3.502	24.543	1439.553	1157.662
-2.487	24.555	1438.926	1157.191
-1.473	24.580	1437.234	1155.946
-0.458	24.492	1436.720	1154.917
0.556	23.516	1426.385	1143.171
1.571	20.283	1402.890	1103.715
2.586	16.671	1341.262	1033.129
3.600	14.991	1259.136	960.149
4.615	14.071	1215.829	921.947
5.629	12.489	1160.662	871.656
6.644	6.622	1080.410	782.289
7.659	1.563	1043.916	731.510
8.673	0.949	1038.629	724.803
9.688	0.743	1035.593	721.636
10.702	0.791	1034.076	720.746
11.717	0.747	1032.261	719.205
12.731	2.700	1033.391	729.224
13.746	9.277	1041.920	766.627
14.761	15.343	1049.113	800.901
15.775	17.344	1051.394	812.135
16.790	17.116	1050.106	809.981
17.804	16.220	1047.617	803.723
18.819	15.201	1046.337	797.821
19.834	14.760	1044.831	794.507
20.848	14.434	1044.023	792.273
21.863	14.201	1043.153	790.435
22.877	14.068	1042.313	789.100
23.892	13.870	1041.104	787.174
24.907	13.699	1040.556	785.881
25.921	13.668	1040.382	785.532
26.936	13.720	1039.261	784.863
27.950	13.779	1038.591	784.565
28.965	13.831	1037.971	784.275
29.980	13.934	1036.824	783.825
30.994	13.896	1036.263	783.153
32.009	14.081	1034.856	782.891
33.023	13.885	1034.829	781.876
34.038	13.948	1034.027	781.497
35.053	13.845	1033.261	780.365
36.067	13.906	1032.241	779.812
37.082	13.971	1031.070	779.163
38.096	13.979	1030.531	778.726
39.111	14.082	1029.854	778.628
40.126	13.998	1029.026	777.541
41.140	13.928	1027.925	776.310
42.155	13.821	1026.995	775.040
43.169	13.771	1026.043	774.019
44.184	13.874	1025.004	773.647
45.199	13.907	1024.065	773.024
46.213	13.850	1022.979	771.871
47.228	13.826	1022.392	771.249
48.242	13.931	1021.151	770.731
49.257	13.926	1020.251	769.961
50.271	13.939	1019.223	769.178
51.286	13.841	1018.399	768.034
52.301	13.848	1018.094	767.767
53.315	13.962	1016.517	767.039
54.330	14.086	1015.595	766.847
55.344	13.844	1014.950	765.179
56.359	13.863	1014.084	764.543
57.374	13.900	1013.147	763.938
58.388	13.918	1012.264	763.288
59.403	13.831	1011.411	762.180
60.417	13.696	1011.261	761.375
61.432	13.806	1010.266	761.064
62.447	13.730	1009.894	760.371
63.461	13.780	1008.891	759.776
64.476	13.813	1007.618	758.904
65.490	13.775	1006.857	758.089
66.505	13.680	1005.933	756.892
67.520	13.797	1005.216	756.820
68.534	13.741	1004.665	756.083
69.549	13.749	1004.022	755.565
70.563	13.840	1003.150	755.259
71.578	13.805	1002.123	754.260
72.593	13.821	1001.401	753.721
73.607	13.892	1000.314	753.157
74.622	13.638	1000.051	751.744
75.636	13.743	998.810	751.217
76.651	13.714	997.790	750.252
77.666	13.843	997.189	750.319
78.680	13.793	996.856	749.777
79.695	13.541	996.215	748.090
80.709	13.603	995.729	747.936
81.724	13.878	994.411	748.121
82.739	13.900	993.563	747.518
83.753	13.830	993.409	747.021
84.768	13.785	992.633	746.167
85.782	13.973	991.895	746.390
86.797	13.915	991.345	745.652
87.812	13.929	990.157	744.754
88.826	13.842	989.373	743.706
89.841	13.879	988.468	743.129
90.855	13.887	987.700	742.520
91.870	13.819	987.102	741.700
92.884	13.973	986.424	741.815
93.899	14.028	985.605	741.377
94.914	14.020	984.444	740.405
95.928	14.123	983.396	740.006
96.943	14.075	983.451	739.771
97.957	13.961	982.920	738.798
98.972	13.969	981.923	738.017
99.987	13.943	981.363	737.419
101.001	13.978	980.472	736.838
102.016	14.120	979.525	736.691
103.030	14.040	978.461	735.473
104.045	13.974	977.543	734.426
105.060	14.108	976.615	734.252
106.074	13.948	975.942	732.977
107.089	13.925	974.971	732.079
108.103	13.873	974.377	731.343
109.118	13.957	972.991	730.607
110.133	13.918	972.371	729.906
111.147	13.982	971.444	729.423
112.162	13.904	970.928	728.631
113.176	13.950	970.011	728.080
114.191	13.958	968.860	727.185
115.206	13.925	968.155	726.447
116.220	13.981	967.670	726.265
117.235	13.877	966.317	724.729
118.249	13.865	965.880	724.286
119.264	14.015	964.418	723.780
120.279	13.963	964.464	723.525
121.293	13.928	963.415	722.522
122.308	13.925	962.807	721.987
123.322	13.865	962.148	721.168
124.337	13.814	961.158	720.141
125.352	13.913	959.595	719.334
126.366	13.887	958.199	718.113
127.381	13.768	957.380	716.923
128.395	13.828	956.295	716.305
129.410	13.792	955.240	715.297
130.424	14.002	954.831	715.830
131.439	14.049	953.914	715.284
132.454	13.928	953.585	714.454
133.468	13.913	952.510	713.521
134.483	13.913	951.595	712.769
135.497	13.957	950.733	712.250
136.512	13.908	950.233	711.604
137.527	13.814	949.649	710.702
138.541	13.975	948.603	710.542
139.556	13.968	948.052	710.038
140.570	13.904	947.286	709.127
141.585	14.126	946.416	709.360
142.600	14.122	945.890	708.887
143.614	14.020	945.289	707.938
144.629	14.073	943.958	707.106
145.643	14.018	943.859	706.736
146.658	14.151	942.810	706.453
147.673	14.059	941.866	705.293
148.687	14.156	940.874	704.898
149.702	14.154	940.035	704.196
150.716	14.066	939.372	703.268
151.731	13.947	938.628	702.143
152.746	13.898	938.040	701.437
153.760	13.916	937.009	700.680
154.775	13.879	936.607	700.159
155.789	14.183	935.534	700.575
156.804	14.074	935.089	699.723
157.819	14.113	934.336	699.262
158.833	14.217	933.604	699.087
159.848	14.191	933.020	698.479
160.862	14.251	932.019	697.921
161.877	14.205	931.467	697.251
162.892	14.166	930.805	696.529
163.906	14.208	929.771	695.873
164.921	14.105	928.969	694.781
165.935	14.167	928.181	694.386
166.950	14.289	926.886	693.864
167.964	14.281	926.023	693.128
168.979	14.106	925.220	691.736
169.994	14.210	923.963	691.168
171.008	14.119	923.824	690.623
172.023	14.253	922.664	690.250
173.037	14.249	922.147	689.785
174.052	14.233	921.224	688.967
175.067	14.223	920.560	688.369
176.081	14.268	919.840	687.957
177.096	14.216	918.990	687.047
178.110	14.258	918.180	686.552
179.125	14.333	917.463	686.265
180.140	14.309	916.784	685.597
181.154	14.134	916.374	684.511
182.169	14.402	915.660	685.015
183.183	14.391	914.740	684.222
184.198	14.528	913.861	684.065
185.213	14.503	913.154	683.375
186.227	14.545	912.686	683.138
187.242	14.366	912.404	682.131
188.256	14.325	911.667	681.354
189.271	14.566	911.067	681.828
190.286	14.494	910.108	680.759
191.300	14.467	909.151	679.872
192.315	14.278	908.730	678.725
193.329	14.364	907.829	678.343
194.344	14.369	907.227	677.852
195.359	14.487	906.611	677.813
196.373	14.606	905.932	677.727
197.388	14.465	905.411	676.708
198.402	14.573	905.255	676.970
199.417	14.476	904.923	676.266
200.432	14.806	904.267	677.052
201.446	14.699	903.878	676.268
202.461	14.804	902.856	675.870
203.475	14.657	903.072	675.379
204.490	14.763	902.194	675.090
205.504	14.726	901.119	674.076
206.519	14.753	900.740	673.840
207.534	14.710	899.439	672.635
208.548	14.773	899.011	672.510
209.563	14.727	898.917	672.193
210.577	14.671	898.012	671.232
211.592	14.681	897.257	670.649
212.607	14.795	896.512	670.491
213.621	14.709	896.539	670.105
214.636	14.949	894.813	669.718
215.650	14.931	894.634	669.453
216.665	14.899	893.946	668.752
217.680	15.005	893.250	668.593
218.694	14.923	893.019	668.035
219.709	15.028	892.431	667.956
220.723	14.913	891.558	666.786
221.738	14.881	891.456	666.520
222.753	15.025	890.203	666.098
223.767	14.909	889.641	665.158
224.782	15.034	888.791	664.958
225.796	15.045	888.054	664.393
226.811	15.025	887.740	664.018
227.826	15.079	886.742	663.429
228.840	15.052	886.210	662.865
229.855	15.060	885.622	662.397
230.869	15.124	885.418	662.441
231.884	15.165	884.294	661.704
232.899	15.050	883.557	660.640
233.913	14.995	882.854	659.840
234.928	15.182	882.220	660.042
235.942	15.097	881.693	659.254
236.957	15.116	880.449	658.343
237.972	15.082	880.168	657.941
238.986	15.178	879.414	657.695
240.001	15.057	879.361	657.121
241.015	15.162	878.361	656.730
242.030	15.101	877.976	656.143
243.045	15.158	877.013	655.589
244.059	15.107	876.595	655.018
245.074	15.192	876.322	655.091
246.088	15.142	875.513	654.230
247.103	15.308	874.595	654.135
248.117	15.253	874.259	653.609
249.132	15.396	873.365	653.441
250.147	15.208	873.257	652.571
251.161	15.276	872.620	652.303
252.176	15.371	872.018	652.163
253.190	15.423	870.841	651.428
254.205	15.439	870.709	651.334
255.220	15.373	869.800	650.340
256.234	15.526	869.214	650.438
257.249	15.646	868.736	650.487
258.263	15.436	868.327	649.308
259.278	15.615	867.336	649.204
260.293	15.655	867.018	649.061
261.307	15.609	866.193	648.210
262.322	15.732	865.456	648.076
263.336	15.861	864.558	647.843
264.351	15.671	864.740	647.188
265.366	15.631	864.125	646.517
266.380	15.729	863.412	646.304
267.395	15.831	862.586	646.020
268.409	15.753	862.063	645.273
269.424	15.884	860.850	644.807
270.439	15.673	860.725	643.849
271.453	15.758	859.629	643.299
272.468	15.726	859.203	642.799
273.482	15.982	858.117	642.908
274.497	15.750	857.688	641.644
275.512	15.941	856.954	641.767
276.526	15.835	856.551	641.005
277.541	15.942	856.070	640.996
278.555	15.868	855.390	640.146
279.570	15.847	855.224	639.888
280.585	16.026	854.210	639.753
281.599	15.986	853.855	639.276
282.614	16.043	853.152	638.909
283.628	15.937	852.648	638.075
284.643	15.961	852.037	637.653
285.657	15.876	851.663	636.994
286.672	15.968	851.209	636.947
287.687	15.940	850.627	636.347
288.701	16.096	850.260	636.606
289.716	16.016	849.276	635.513
290.730	15.943	848.869	634.875
291.745	16.068	848.102	634.718
292.760	16.075	847.701	634.387
293.774	16.095	846.958	633.850
294.789	16.114	846.621	633.612
295.803	16.124	845.833	633.005
296.818	16.013	845.597	632.354
297.833	16.190	844.363	632.041
298.847	16.360	843.808	632.204
299.862	16.226	843.405	631.343
300.876	16.249	842.493	630.694
301.891	16.352	841.805	630.506
302.906	16.231	841.261	629.590
303.920	16.261	840.599	629.152
304.935	16.597	839.441	629.481
305.949	16.449	839.161	628.665
306.964	16.324	838.864	627.921
307.979	16.394	837.891	627.396
308.993	16.400	837.970	627.424
310.008	16.402	837.393	626.944
311.022	16.500	836.934	626.909
312.037	16.579	836.062	626.491
313.052	16.387	835.727	625.475
314.066	16.458	834.675	624.892
315.081	16.422	834.296	624.423
316.095	16.442	833.679	623.979
317.110	16.363	833.677	623.629
318.125	16.527	832.567	623.348
319.139	16.478	832.255	622.881
320.154	16.711	831.749	623.304
321.168	16.511	831.120	622.042
322.183	16.587	830.592	621.871
323.197	16.429	830.433	621.116
324.212	16.553	829.406	620.748
325.227	16.541	828.812	620.206
326.241	16.708	828.368	620.428
327.256	16.590	828.009	619.673
328.270	16.516	827.772	619.171
329.285	16.531	826.842	618.473
330.300	16.664	826.218	618.438
331.314	16.576	825.766	617.725
332.329	16.694	824.859	617.422
333.343	16.661	824.489	616.968
334.358	16.689	824.144	616.758
335.373	16.794	823.002	616.234
336.387	16.865	822.739	616.239
337.402	16.841	822.268	615.745
338.416	16.787	821.922	615.235
339.431	16.700	821.441	614.505
340.446	16.932	820.883	614.873
341.460	16.994	819.737	614.187
342.475	16.833	819.868	613.646
343.489	16.752	819.717	613.185
344.504	16.896	818.294	612.587
345.519	16.932	818.145	612.552
346.533	17.076	817.243	612.341
347.548	17.133	816.766	612.137
348.562	17.064	816.438	611.587
349.577	16.935	815.893	610.660
350.592	17.087	815.220	610.650
351.606	17.046	814.884	610.195
352.621	17.171	814.174	610.060
353.635	16.880	814.140	608.935
354.650	16.879	813.582	608.460
355.665	17.100	813.176	608.896
356.679	17.130	812.519	608.456
357.694	17.158	812.578	608.546
358.708	16.936	812.093	607.336
359.723	17.089	811.430	607.333
360.738	17.137	810.843	607.011
361.752	17.190	809.988	606.508
362.767	17.196	809.780	606.319
363.781	17.210	809.458	606.076
364.796	17.165	809.050	605.556
365.810	17.287	808.637	605.627
366.825	17.308	808.293	605.389
367.840	17.217	808.250	604.980
368.854	17.174	807.713	604.373
369.869	17.405	806.925	604.549
370.883	17.296	806.292	603.636
371.898	17.395	805.829	603.586
372.913	17.419	805.231	603.170
373.927	17.371	804.901	602.699
374.942	17.508	804.042	602.490
375.956	17.563	803.353	602.114
376.971	17.542	802.646	601.455
377.986	17.525	802.371	601.136
379.000	17.610	801.664	600.853
380.015	17.635	801.339	600.645
381.029	17.567	800.841	599.979
382.044	17.701	799.781	599.602
383.059	17.611	799.292	598.866
384.073	17.599	799.441	598.883
385.088	17.599	798.920	598.440
386.102	17.545	798.215	597.671
387.117	17.626	797.845	597.624
388.132	17.552	797.274	596.883
389.146	17.666	796.571	596.704
390.161	17.474	796.987	596.289
391.175	17.621	796.329	596.259
392.190	17.604	795.506	595.532
393.205	17.527	795.486	595.194
394.219	17.803	794.655	595.482
395.234	17.710	794.180	594.748
396.248	17.712	793.607	594.276
397.263	17.610	793.244	593.595
398.278	17.792	792.704	593.773
399.292	17.597	792.406	592.816
400.307	17.655	791.906	592.595
401.321	17.726	791.423	592.425
402.336	17.771	791.202	592.365
403.350	17.681	790.680	591.608
404.365	17.760	790.631	591.796
405.380	17.618	789.683	590.540
406.394	17.775	789.530	590.916
407.409	18.028	788.890	591.263
408.423	17.979	788.626	590.840
409.438	18.084	787.940	590.639
410.453	18.119	787.534	590.404
411.467	18.089	786.932	589.794
412.482	18.002	786.789	589.338
413.496	18.102	786.172	589.168
414.511	18.106	786.071	589.052
415.526	18.204	785.408	588.843
416.540	18.138	785.270	588.459
417.555	18.119	784.889	588.054
418.569	18.132	784.356	587.649
419.584	18.340	783.591	587.737
420.599	18.137	783.650	587.033
421.613	116.267	1295.537	1490.684
422.628	99.930	1370.076	1490.760
