DTS Sentinel unit serial number:	SN413079Multiplexer serial number:	ORYXHardware model number:	OX4-SRSoftware version number:	ORYX F/W v4.00 Oryx Data Collector v3.7.2.0data status	okinstallation	princeton_trtdifferential loss correction	single-endedforward channel	channel 3reverse channel	N/Adate	2019/09/12time	18:01:03forward acquisition time	15.00reverse acquisition time	0.00gamma	496.2192k internal	0.2318k external	0.2318temperature offset calibration	1.0099default loss term (dB/km)	0.3790temperature slope calibration	1.0000multiplexer offset coefficient	1.0000multiplexer slope coefficient	1.0000fibre end	0.00T internal ref (°C)	33.81T ext. ref 1 (°C)	2.90T ext. ref 2 (°C)	28.24length (m)	temperature (°C)	Stokes	anti-Stokes-747.200	-31.430	0.342	-0.194
-746.185	630.527	-0.151	0.388
-745.171	111.888	0.445	-0.544
-744.156	-128.933	-0.934	0.133
-743.142	-200.000	-0.068	-0.333
-742.127	91.469	-0.454	0.516
-741.112	305.824	0.142	0.266
-740.098	19.499	-0.646	-0.525
-739.083	31.374	0.672	-0.584
-738.069	-164.589	0.972	-0.045
-737.054	800.000	-0.040	-0.136
-736.039	423.294	-0.153	-0.333
-735.025	26.662	-0.391	-0.331
-734.010	-97.367	-0.416	0.110
-732.996	-81.803	0.603	0.200
-731.981	800.000	-0.086	0.336
-730.966	-95.319	0.410	-0.112
-729.952	159.313	0.035	0.049
-728.937	-125.526	-0.854	0.131
-727.923	0.918	0.379	0.275
-726.908	154.027	0.283	0.392
-725.894	-61.912	0.473	0.200
-724.879	800.000	-0.222	0.656
-723.864	35.204	-0.482	-0.427
-722.850	562.575	0.045	0.110
-721.835	46.785	-0.594	0.558
-720.821	-150.100	-0.642	-0.050
-719.806	-117.564	-0.141	0.026
-718.791	800.000	-0.181	0.520
-717.777	20.960	0.546	-0.447
-716.762	800.000	-0.172	-0.641
-715.748	-200.000	-0.003	0.080
-714.733	-200.000	0.007	0.087
-713.718	140.714	-0.154	0.206
-712.704	-43.767	0.650	-0.331
-711.689	-54.090	-0.283	0.130
-710.675	449.617	0.222	0.495
-709.660	707.296	-0.178	-0.476
-708.645	-64.455	0.554	-0.227
-707.631	-200.000	0.010	-0.245
-706.616	-87.970	-0.290	0.088
-705.602	-129.620	1.214	-0.169
-704.587	346.298	0.078	-0.154
-703.572	70.993	0.056	0.059
-702.558	740.175	-0.238	0.647
-701.543	800.000	-0.141	-0.433
-700.529	-50.312	0.700	-0.334
-699.514	-113.659	0.329	0.065
-698.499	-70.726	0.540	-0.206
-697.485	-184.301	-0.525	0.009
-696.470	-14.985	0.607	-0.393
-695.456	-200.000	-0.010	0.164
-694.441	-135.419	0.177	0.021
-693.426	800.000	-0.138	-0.433
-692.412	-200.000	0.054	0.337
-691.397	159.581	0.615	0.864
-690.383	78.479	0.277	0.299
-689.368	430.782	-0.360	0.787
-688.354	-200.000	-0.065	0.473
-687.339	-200.000	-0.048	1.166
-686.324	32.875	-0.393	0.344
-685.310	-57.635	-0.371	0.164
-684.295	358.354	0.205	-0.413
-683.281	-116.506	-0.309	0.058
-682.266	-200.000	0.004	0.363
-681.251	-138.775	-0.262	-0.029
-680.237	-96.076	-0.476	-0.128
-679.222	800.000	0.261	-0.796
-678.208	180.546	-0.225	0.333
-677.193	75.197	-0.374	-0.398
-676.178	-200.000	-0.023	-0.222
-675.164	-200.000	-0.020	0.142
-674.149	232.461	0.463	-0.768
-673.135	800.000	0.165	-0.591
-672.120	800.000	-0.379	-1.064
-671.105	147.408	0.235	0.319
-670.091	-69.764	0.441	0.170
-669.076	-9.664	0.272	-0.183
-668.062	-121.254	0.306	0.052
-667.047	-200.000	-0.123	-0.672
-666.032	54.044	0.134	-0.130
-665.018	-149.467	0.809	-0.065
-664.003	-200.000	0.012	-0.368
-662.989	714.637	-0.240	0.643
-661.974	263.742	0.241	0.424
-660.959	800.000	-0.019	0.078
-659.945	225.755	0.279	0.457
-658.930	-197.959	-0.655	0.004
-657.916	42.068	-0.368	0.337
-656.901	127.613	-0.311	0.399
-655.886	285.344	-0.211	-0.384
-654.872	30.399	-0.458	-0.395
-653.857	-50.783	-1.172	-0.556
-652.843	-200.000	0.072	0.498
-651.828	695.102	-0.166	-0.438
-650.814	-5.706	0.083	-0.058
-649.799	163.299	-0.157	-0.223
-648.784	296.408	-0.342	0.631
-647.770	-60.700	0.371	-0.158
-646.755	31.925	-0.225	0.196
-645.741	-161.571	0.861	-0.045
-644.726	800.000	0.144	0.506
-643.711	165.947	0.387	0.553
-642.697	5.589	0.234	-0.174
-641.682	294.120	0.132	0.243
-640.668	163.981	0.326	-0.463
-639.653	-65.192	-0.504	-0.205
-638.638	-174.174	-0.340	-0.010
-637.624	86.674	-0.406	-0.451
-636.609	543.512	0.298	-0.718
-635.595	-64.630	0.745	-0.304
-634.580	339.742	-0.160	0.315
-633.565	800.000	-0.202	0.872
-632.551	-146.717	0.769	0.067
-631.536	-199.523	0.570	0.003
-630.522	-145.976	0.478	0.043
-629.507	53.972	0.551	-0.534
-628.492	-200.000	-0.004	-0.138
-627.478	108.035	-0.304	-0.365
-626.463	800.000	0.081	-0.320
-625.449	-21.722	-0.738	-0.453
-624.434	-156.632	-0.245	-0.015
-623.419	-156.933	-0.727	-0.045
-622.405	-200.000	-0.087	-1.175
-621.390	800.000	0.096	-0.320
-620.376	-157.663	0.631	0.038
-619.361	800.000	0.130	-0.453
-618.346	-200.000	0.191	1.046
-617.332	-200.000	-0.032	0.282
-616.317	666.328	-0.387	1.007
-615.303	-200.000	0.011	-0.211
-614.288	-187.180	-0.394	-0.005
-613.273	39.152	-0.582	0.524
-612.259	800.000	0.174	0.491
-611.244	646.351	0.249	-0.642
-610.230	-39.804	-0.962	0.506
-609.215	102.934	0.538	0.635
-608.201	126.055	-0.108	0.137
-607.186	176.932	0.081	-0.119
-606.171	-200.000	-0.076	0.487
-605.157	53.127	-0.540	-0.521
-604.142	-38.113	-0.593	0.317
-603.128	-58.331	-0.837	-0.366
-602.113	-161.655	-0.598	-0.031
-601.098	-116.495	1.159	-0.215
-600.084	477.361	-0.320	-0.728
-599.069	800.000	0.141	0.536
-598.055	761.326	0.033	0.091
-597.040	327.040	0.258	0.499
-596.025	-200.000	0.013	-1.104
-595.011	-200.000	0.130	-0.612
-593.996	-200.000	0.004	0.165
-592.982	-52.409	0.518	-0.241
-591.967	54.018	-0.323	-0.312
-590.952	116.080	0.191	0.235
-589.938	29.936	0.305	0.262
-588.923	-200.000	-0.020	0.323
-587.909	265.528	0.596	1.045
-586.894	62.237	-0.634	-0.636
-585.879	371.917	0.461	0.941
-584.865	-157.762	0.189	-0.011
-583.850	-200.000	-0.050	-0.365
-582.836	-200.000	-0.035	-0.206
-581.821	-116.120	0.700	0.131
-580.806	166.768	0.237	-0.339
-579.792	-34.638	-0.290	-0.160
-578.777	-200.000	0.008	-0.189
-577.763	146.922	0.401	0.543
-576.748	251.947	-0.180	-0.309
-575.733	306.955	-0.327	-0.612
-574.719	-111.207	1.051	0.216
-573.704	-159.806	0.712	0.039
-572.690	724.762	-0.112	0.301
-571.675	-200.000	-0.018	-0.691
-570.661	296.694	-0.338	-0.622
-569.646	127.185	-0.535	-0.683
-568.631	-200.000	0.068	0.918
-567.617	26.551	-0.188	-0.158
-566.602	-83.963	0.349	-0.111
-565.588	-11.467	0.946	-0.626
-564.573	-200.000	0.061	-0.370
-563.558	-137.036	-0.699	-0.080
-562.544	-200.000	-0.008	0.625
-561.529	-25.133	-0.318	-0.190
-560.515	-72.853	0.282	-0.104
-559.500	-94.274	-0.311	-0.086
-558.485	-200.000	-0.034	0.168
-557.471	-200.000	0.009	-0.804
-556.456	-39.638	0.870	-0.458
-555.442	256.821	0.173	-0.298
-554.427	105.497	0.376	-0.446
-553.412	-144.990	0.511	-0.047
-552.398	142.704	-0.067	0.089
-551.383	123.996	-0.111	-0.140
-550.369	-141.809	0.726	0.073
-549.354	25.775	-0.359	-0.301
-548.339	-83.895	0.236	-0.075
-547.325	548.898	-0.390	0.939
-546.310	294.417	-0.248	-0.456
-545.296	465.722	0.072	-0.162
-544.281	-108.436	-0.253	-0.055
-543.266	-64.608	-0.705	-0.287
-542.252	-99.755	-1.252	-0.315
-541.237	-120.812	0.361	-0.061
-540.223	224.730	0.478	0.776
-539.208	-64.558	-0.789	-0.322
-538.193	-10.168	0.285	-0.190
-537.179	800.000	-0.129	-0.376
-536.164	100.609	0.587	0.684
-535.150	43.898	-0.253	0.233
-534.135	800.000	-0.192	0.596
-533.121	7.723	-0.388	0.291
-532.106	-200.000	-0.071	-0.417
-531.091	37.896	0.264	-0.235
-530.077	-154.421	1.207	0.081
-529.062	-98.666	-0.941	-0.241
-528.048	-200.000	-0.088	0.719
-527.033	800.000	-0.235	0.749
-526.018	-200.000	0.039	0.797
-525.004	-18.785	0.396	-0.248
-523.989	62.224	-0.255	0.255
-522.975	-200.000	0.074	0.376
-521.960	18.168	-0.725	-0.581
-520.945	-183.987	0.288	-0.005
-519.931	257.543	0.163	-0.281
-518.916	-82.606	-0.384	0.125
-517.902	4.609	0.564	0.416
-516.887	69.479	-0.754	0.778
-515.872	-200.000	0.079	0.394
-514.858	145.883	-0.159	-0.214
-513.843	800.000	0.034	-0.097
-512.829	-200.000	-0.037	0.256
-511.814	-183.948	0.160	-0.003
-510.799	351.559	-0.142	-0.282
-509.785	-143.608	0.761	0.073
-508.770	800.000	0.133	0.461
-507.756	74.756	-0.722	0.761
-506.741	36.741	-0.204	-0.180
-505.726	-200.000	-0.099	-0.560
-504.712	730.185	-0.233	0.623
-503.697	545.417	0.121	0.291
-502.683	-78.719	0.233	-0.080
-501.668	-129.998	1.023	-0.140
-500.653	-200.000	-0.049	-0.280
-499.639	-150.913	-0.456	-0.035
-498.624	-14.825	0.228	-0.147
-497.610	8.546	-0.407	-0.307
-496.595	123.358	0.075	-0.094
-495.581	-200.000	-0.068	0.609
-494.566	-151.851	0.818	0.060
-493.551	-200.000	0.063	-0.577
-492.537	-200.000	0.034	0.263
-491.522	-138.737	0.601	0.066
-490.508	23.895	-0.572	-0.473
-489.493	800.000	0.186	0.524
-488.478	-129.399	-0.213	-0.030
-487.464	195.914	-0.351	0.534
-486.449	65.554	-0.303	-0.307
-485.435	800.000	-0.097	-0.399
-484.420	-200.000	-0.025	-0.437
-483.405	800.000	0.218	0.616
-482.391	91.551	-0.377	0.424
-481.376	-72.671	-0.954	0.352
-480.362	800.000	0.180	0.724
-479.347	-70.578	-0.434	-0.164
-478.332	1.854	0.571	-0.412
-477.318	800.000	0.247	-0.689
-476.303	-121.698	-0.663	0.110
-475.289	-57.478	-0.410	-0.180
-474.274	416.696	0.075	0.160
-473.259	-173.736	0.221	-0.007
-472.245	800.000	-0.111	-0.472
-471.230	26.752	-0.734	-0.615
-470.216	-171.100	-0.280	0.010
-469.201	78.591	0.186	-0.199
-468.186	288.727	0.100	0.182
-467.172	-28.169	-0.283	0.163
-466.157	-5.849	0.584	-0.400
-465.143	-200.000	-0.081	-0.527
-464.128	106.838	0.166	-0.197
-463.113	27.884	0.772	-0.651
-462.099	-200.000	0.019	1.069
-461.084	368.075	-0.087	0.176
-460.070	-27.131	-0.168	0.098
-459.055	800.000	0.279	-0.790
-458.040	175.713	0.801	-1.163
-457.026	66.298	-0.353	-0.359
-456.011	-200.000	0.000	-0.390
-454.997	-110.244	0.389	-0.081
-453.982	-71.679	-0.326	0.122
-452.968	-200.000	0.087	-0.491
-451.953	-130.547	-0.136	0.018
-450.938	32.899	-0.373	-0.323
-449.924	93.536	0.097	-0.110
-448.909	-200.000	-0.078	-0.582
-447.895	-113.249	-0.508	-0.100
-446.880	-54.106	-0.850	-0.387
-445.865	-161.523	0.947	0.049
-444.851	-14.877	0.232	0.149
-443.836	-200.000	-0.044	-0.361
-442.822	-160.628	0.583	-0.031
-441.807	501.845	-0.215	0.497
-440.792	-200.000	0.024	0.530
-439.778	-89.214	0.778	-0.230
-438.763	-57.202	-0.729	-0.321
-437.749	8.450	0.247	0.186
-436.734	49.165	0.569	0.535
-435.719	14.189	0.175	-0.137
-434.705	-200.000	0.062	-0.347
-433.690	306.562	0.190	-0.354
-432.676	488.421	-0.276	0.630
-431.661	439.115	-0.409	-0.892
-430.646	-200.000	0.142	-0.947
-429.632	-95.505	0.489	0.131
-428.617	83.489	-0.222	0.242
-427.603	-158.320	0.146	0.009
-426.588	265.069	0.196	0.341
-425.573	39.624	0.261	0.234
-424.559	-200.000	-0.150	-0.759
-423.544	-47.013	0.127	-0.062
-422.530	-76.922	-0.647	-0.226
-421.515	-162.949	-0.373	0.018
-420.500	-200.000	0.098	0.659
-419.486	747.083	0.084	-0.227
-418.471	800.000	-0.087	-0.332
-417.457	800.000	0.136	-0.403
-416.442	51.048	-0.429	-0.407
-415.428	-28.309	-0.685	-0.395
-414.413	108.852	0.405	0.484
-413.398	-150.780	0.674	-0.051
-412.384	360.491	-0.103	-0.206
-411.369	-53.934	-0.721	-0.328
-410.355	-4.663	-0.704	0.485
-409.340	-200.000	-0.180	1.140
-408.325	-44.230	0.217	-0.109
-407.311	32.236	0.237	-0.204
-406.296	800.000	-0.160	0.687
-405.282	800.000	0.136	-0.465
-404.267	-54.131	-0.253	-0.115
-403.252	-18.286	-0.546	-0.341
-402.238	-200.000	0.063	0.445
-401.223	222.811	-0.374	-0.602
-400.209	-200.000	-0.023	0.789
-399.194	423.402	0.239	0.513
-398.179	-44.719	0.771	-0.384
-397.165	-17.827	-1.070	0.670
-396.150	-60.558	-0.562	-0.238
-395.136	305.676	0.304	-0.564
-394.121	-116.773	0.062	0.011
-393.106	-118.522	-1.162	-0.205
-392.092	-168.609	-0.803	0.030
-391.077	104.914	0.633	0.745
-390.063	258.421	0.307	0.527
-389.048	752.433	0.087	0.235
-388.033	-166.438	-0.447	0.019
-387.019	-109.517	-0.241	-0.051
-386.004	188.901	0.470	-0.702
-384.990	-200.000	-0.157	-0.809
-383.975	-40.389	-0.270	0.140
-382.960	501.376	0.327	0.753
-381.946	526.351	-0.142	0.334
-380.931	65.803	-0.246	0.249
-379.917	3.758	-1.140	-0.831
-378.902	146.751	-0.366	-0.491
-377.888	241.914	-0.206	-0.344
-376.873	33.331	-0.229	0.198
-375.858	-157.747	0.706	-0.042
-374.844	-200.000	0.001	0.114
-373.829	794.471	-0.074	-0.203
-372.815	25.970	0.384	0.319
-371.800	-170.876	-0.798	0.027
-370.785	-19.695	0.382	-0.235
-369.771	800.000	-0.147	-0.530
-368.756	319.996	-0.164	0.310
-367.742	-116.674	0.038	-0.007
-366.727	59.791	-0.577	0.568
-365.712	-31.632	-0.476	0.267
-364.698	113.322	-0.142	0.172
-363.683	-200.000	-0.099	0.519
-362.669	336.616	0.078	0.151
-361.654	-142.859	0.468	0.045
-360.639	-200.000	-0.010	0.520
-359.625	-87.204	0.636	0.193
-358.610	-98.516	-0.149	-0.038
-357.596	-200.000	-0.121	0.593
-356.581	79.651	0.297	-0.318
-355.566	421.226	-0.282	-0.603
-354.552	-59.549	-0.552	0.236
-353.537	800.000	-0.090	0.305
-352.523	-200.000	0.086	-0.547
-351.508	-109.643	-0.417	0.088
-350.493	-39.933	0.364	-0.189
-349.479	-57.644	0.533	0.233
-348.464	-73.913	1.120	-0.405
-347.450	-200.000	0.003	0.334
-346.435	-200.000	-0.068	-0.413
-345.420	-200.000	-0.005	0.605
-344.406	54.407	0.423	-0.406
-343.391	-153.617	-0.853	0.059
-342.377	400.911	0.195	-0.409
-341.362	800.000	-0.075	-0.260
-340.348	-18.001	0.511	-0.319
-339.333	598.624	0.338	-0.834
-338.318	14.401	0.194	-0.151
-337.304	18.096	-0.392	0.311
-336.289	104.157	-0.102	-0.120
-335.275	-84.523	0.399	-0.125
-334.260	53.486	-0.231	-0.220
-333.245	800.000	-0.327	0.953
-332.231	56.603	0.273	0.265
-331.216	-107.504	-0.971	-0.212
-330.202	-63.782	0.235	-0.096
-329.187	94.872	0.385	-0.436
-328.172	800.000	0.204	-0.864
-327.158	183.063	0.164	0.241
-326.143	36.657	0.231	0.203
-325.129	-200.000	0.005	0.386
-324.114	800.000	0.050	-0.173
-323.099	-101.822	0.480	0.116
-322.085	-90.476	-0.229	-0.066
-321.070	46.245	0.444	-0.410
-320.056	67.020	-0.394	-0.399
-319.041	273.094	0.099	-0.175
-318.026	79.764	-0.312	-0.333
-317.012	-14.088	0.326	-0.209
-315.997	-9.076	-0.672	0.448
-314.983	800.000	0.134	0.571
-313.968	800.000	0.308	-0.882
-312.953	308.412	-0.337	-0.627
-311.939	17.331	0.563	-0.445
-310.924	164.061	-0.076	0.107
-309.910	67.393	-0.499	0.506
-308.895	-14.377	-0.185	0.119
-307.880	-103.667	-0.267	-0.062
-306.866	30.783	0.676	0.576
-305.851	-200.000	0.002	-0.082
-304.837	-200.000	-0.117	0.932
-303.822	-200.000	0.011	0.409
-302.807	-5.613	0.374	0.255
-301.793	4.137	0.134	0.098
-300.778	-58.511	-0.372	0.160
-299.764	-129.502	0.527	0.073
-298.749	265.436	-0.050	0.086
-297.735	-34.413	0.563	0.307
-296.720	187.878	-0.235	-0.350
-295.705	-200.000	0.025	0.264
-294.691	638.499	-0.421	1.064
-293.676	131.700	0.096	-0.123
-292.662	-140.214	-0.450	-0.047
-291.647	141.917	-0.490	-0.645
-290.632	323.807	0.276	-0.524
-289.618	-200.000	0.008	0.668
-288.603	-34.562	-0.349	-0.190
-287.589	800.000	0.148	0.530
-286.574	-200.000	-0.217	1.315
-285.559	-95.757	0.614	0.163
-284.545	800.000	-0.084	-0.278
-283.530	80.595	0.482	-0.517
-282.516	-200.000	0.026	-0.310
-281.501	800.000	-0.240	0.690
-280.486	-126.032	-0.433	-0.065
-279.472	225.979	-0.341	0.550
-278.457	-26.853	-0.049	0.028
-277.443	251.615	0.612	1.036
-276.428	-200.000	-0.098	0.871
-275.413	-200.000	0.130	-0.592
-274.399	0.446	0.139	-0.099
-273.384	110.586	0.534	-0.638
-272.370	-19.906	-0.423	-0.259
-271.355	188.812	-0.274	-0.408
-270.340	-87.643	0.763	-0.229
-269.326	-83.020	-0.660	0.211
-268.311	-200.000	-0.054	0.994
-267.297	-138.563	0.340	-0.037
-266.282	-23.357	-0.700	-0.418
-265.267	58.759	0.777	-0.758
-264.253	-200.000	-0.148	-0.664
-263.238	393.564	0.180	0.372
-262.224	361.278	-0.144	0.286
-261.209	-51.866	0.367	-0.169
-260.195	22.552	-0.236	-0.191
-259.180	-12.125	-0.889	0.578
-258.165	44.116	-0.548	-0.499
-257.151	-152.136	-0.532	-0.038
-256.136	196.303	0.440	-0.665
-255.122	142.502	0.545	-0.718
-254.107	-79.391	0.638	0.214
-253.092	783.602	-0.115	0.312
-252.078	-106.487	0.797	-0.176
-251.063	17.980	1.121	0.887
-250.049	-71.282	-0.557	-0.207
-249.034	-136.570	0.254	0.029
-248.019	-162.040	-0.368	-0.018
-247.005	-170.776	0.380	0.013
-245.990	55.393	0.258	-0.248
-244.976	438.636	-0.377	0.816
-243.961	36.037	-0.382	0.333
-242.946	-187.206	-0.491	-0.007
-241.932	-127.490	-0.621	0.089
-240.917	-75.285	-0.774	-0.274
-239.903	2.837	0.469	0.338
-238.888	104.810	-0.485	-0.567
-237.873	147.969	0.418	0.560
-236.859	29.724	0.374	0.316
-235.844	-13.207	-0.532	-0.343
-234.830	-43.977	0.245	0.122
-233.815	800.000	-0.175	0.566
-232.800	-125.086	0.878	-0.134
-231.786	-32.236	0.021	0.012
-230.771	800.000	-0.242	1.024
-229.757	1.425	-0.284	0.202
-228.742	293.310	-0.233	-0.422
-227.727	85.224	0.420	0.457
-226.713	-200.000	-0.192	0.944
-225.698	85.701	0.386	0.421
-224.684	-200.000	0.038	0.537
-223.669	800.000	-0.061	0.246
-222.655	800.000	-0.163	0.619
-221.640	-53.098	0.381	-0.174
-220.625	-18.531	-0.128	0.079
-219.611	164.401	-0.360	-0.503
-218.596	-91.139	0.324	0.092
-217.582	-200.000	0.181	-0.815
-216.567	-200.000	-0.026	-0.404
-215.552	452.363	-0.143	0.314
-214.538	-104.556	-0.993	0.227
-213.523	-38.407	-0.629	0.330
-212.509	-200.000	0.014	0.573
-211.494	281.280	0.418	0.743
-210.479	-133.453	-0.778	-0.097
-209.465	800.000	0.199	0.629
-208.450	167.801	0.307	-0.432
-207.436	51.295	-0.092	-0.086
-206.421	-200.000	0.227	-1.038
-205.406	-200.000	0.018	0.323
-204.392	7.693	0.390	0.290
-203.377	16.088	0.544	-0.425
-202.363	-60.606	0.622	-0.261
-201.348	661.619	-0.194	0.496
-200.333	-22.367	-0.353	-0.212
-199.319	-200.000	-0.011	0.987
-198.304	-154.470	1.041	-0.069
-197.290	108.833	0.257	-0.304
-196.275	800.000	0.235	0.812
-195.260	272.640	0.173	-0.302
-194.246	-133.974	-0.771	0.095
-193.231	-200.000	-0.034	0.315
-192.217	261.033	0.472	0.809
-191.202	-103.342	-0.584	-0.136
-190.187	800.000	-0.103	-0.416
-189.173	-54.906	0.191	-0.086
-188.158	41.686	0.375	-0.336
-187.144	800.000	0.221	-0.901
-186.129	11.046	-0.697	-0.528
-185.114	-100.620	0.399	0.098
-184.100	-121.052	0.831	0.138
-183.085	15.982	-0.343	0.268
-182.071	-200.000	0.051	-0.467
-181.056	515.980	-0.052	0.121
-180.042	-73.818	0.206	-0.074
-179.027	-68.478	1.183	0.454
-178.012	101.309	-0.452	0.521
-176.998	800.000	0.117	0.372
-175.983	68.887	-0.336	0.342
-174.969	-18.359	-0.312	-0.193
-173.954	-39.530	-0.147	-0.076
-172.939	-200.000	0.071	-1.162
-171.925	91.870	0.232	0.258
-170.910	-95.386	-0.574	0.153
-169.896	113.784	0.199	0.239
-168.881	775.945	0.197	-0.532
-167.866	-200.000	-0.083	0.473
-166.852	209.396	0.133	0.206
-165.837	37.984	0.423	-0.372
-164.823	339.273	0.456	-0.879
-163.808	-200.000	0.000	0.475
-162.793	190.780	0.251	0.374
-161.779	-200.000	0.062	0.368
-160.764	3.897	0.188	-0.136
-159.750	-83.710	-0.252	-0.080
-158.735	329.894	0.337	-0.642
-157.720	-73.722	-1.359	-0.489
-156.706	-112.201	-0.576	0.114
-155.691	-27.608	0.783	-0.450
-154.677	377.061	0.233	-0.470
-153.662	140.121	-0.198	0.258
-152.647	-126.332	-0.473	-0.070
-151.633	-26.953	0.348	0.201
-150.618	-166.108	0.338	0.014
-149.604	800.000	-0.153	0.485
-148.589	78.768	0.576	0.610
-147.574	43.893	0.627	0.568
-146.560	-196.030	-0.444	0.003
-145.545	-200.000	-0.111	-0.606
-144.531	-73.120	0.519	0.188
-143.516	-200.000	0.046	0.227
-142.502	-158.973	0.288	-0.016
-141.487	-200.000	0.108	-0.509
-140.472	-8.595	0.226	0.150
-139.458	35.178	0.204	0.177
-138.443	-200.000	-0.015	-0.495
-137.429	57.178	0.267	-0.257
-136.414	132.907	0.350	-0.446
-135.399	-99.074	-0.962	0.241
-134.385	-66.707	0.250	-0.098
-133.370	417.260	0.326	0.689
-132.356	-200.000	-0.215	0.967
-131.341	745.765	-0.008	-0.022
-130.326	6.280	0.561	0.411
-129.312	238.960	0.105	0.173
-128.297	-162.803	0.604	0.029
-127.283	800.000	-0.513	-1.419
-126.268	-93.389	1.529	-0.419
-125.253	-2.725	-0.475	-0.328
-124.239	-65.715	0.681	0.269
-123.224	-139.876	0.358	-0.037
-122.210	34.103	-0.443	-0.382
-121.195	-200.000	-0.090	0.394
-120.180	63.279	0.610	0.604
-119.166	-7.474	0.439	0.293
-118.151	800.000	-0.048	0.144
-117.137	-127.159	-0.183	0.026
-116.122	-0.830	-0.624	0.436
-115.107	630.548	-0.108	-0.270
-114.093	169.836	-0.409	0.578
-113.078	-200.000	0.065	0.566
-112.064	-10.778	-0.498	-0.325
-111.049	35.630	-0.645	0.559
-110.034	103.509	0.387	0.448
-109.020	315.582	-0.175	0.327
-108.005	-145.341	0.100	0.009
-106.991	-93.490	0.345	-0.094
-105.976	-20.487	-0.146	0.089
-104.962	-139.988	-0.902	-0.094
-103.947	-200.000	-0.023	-0.444
-102.932	-200.000	0.021	-0.865
-101.918	319.061	0.145	0.271
-100.903	-200.000	-0.122	-0.993
-99.889	155.661	0.345	-0.468
-98.874	142.774	0.191	-0.250
-97.859	-34.794	-0.634	0.342
-96.845	321.603	0.293	-0.550
-95.830	253.217	0.427	-0.720
-94.816	-200.000	-0.032	0.439
-93.801	-200.000	-0.110	0.749
-92.786	-200.000	0.074	0.527
-91.772	25.267	0.694	0.569
-90.757	-160.658	0.495	0.026
-89.743	-53.284	0.312	0.141
-88.728	-112.293	-0.551	0.109
-87.713	96.013	-0.364	0.410
-86.699	166.139	0.404	-0.565
-85.684	800.000	0.031	0.120
-84.670	1.720	0.138	0.098
-83.655	-100.628	0.765	-0.186
-82.640	-128.036	0.385	0.054
-81.626	-200.000	0.136	0.760
-80.611	-88.415	0.240	0.071
-79.597	-200.000	0.025	-1.027
-78.582	7.507	0.362	-0.267
-77.567	-110.990	-0.725	-0.147
-76.553	-37.982	0.922	0.483
-75.538	32.396	0.379	0.322
-74.524	641.423	0.113	-0.284
-73.509	-136.556	-0.622	-0.071
-72.494	18.145	0.907	0.713
-71.480	-200.000	0.025	-0.275
-70.465	-44.490	0.463	-0.228
-69.451	-151.631	0.696	-0.051
-68.436	95.196	-0.134	0.151
-67.422	800.000	-0.088	0.283
-66.407	161.857	-0.181	0.250
-65.392	31.412	0.144	-0.122
-64.378	407.532	-0.175	-0.365
-63.363	204.172	-0.277	0.423
-62.349	-67.864	-0.625	0.241
-61.334	38.115	-0.666	-0.584
-60.319	-127.801	1.599	0.227
-59.305	76.465	-0.788	-0.823
-58.290	-45.928	1.211	0.589
-57.276	89.433	0.764	0.840
-56.261	-200.000	97.486	587.083
-55.246	634.060	1379.702	3446.494
-54.232	197.179	2554.566	3839.180
-53.217	117.856	2156.958	2616.925
-52.203	44.120	1701.574	1537.060
-51.188	36.685	1518.313	1320.938
-50.173	34.526	1490.635	1282.319
-49.159	55.656	1541.230	1470.571
-48.144	56.507	1559.133	1493.402
-47.130	37.216	1516.678	1322.926
-46.115	34.109	1501.783	1288.877
-45.100	33.895	1498.442	1284.514
-44.086	33.950	1497.014	1283.610
-43.071	33.730	1495.372	1280.669
-42.057	33.805	1493.488	1279.510
-41.042	33.732	1491.715	1277.448
-40.027	33.753	1491.749	1277.568
-39.013	33.875	1489.292	1276.227
-37.998	33.794	1488.682	1275.110
-36.984	33.847	1487.467	1274.375
-35.969	33.688	1486.205	1272.176
-34.954	33.747	1485.014	1271.502
-33.940	33.743	1483.943	1270.510
-32.925	34.023	1480.889	1269.715
-31.911	33.867	1480.846	1268.584
-30.896	33.835	1480.368	1267.916
-29.881	33.895	1477.646	1265.933
-28.867	33.951	1475.843	1264.708
-27.852	33.818	1474.877	1262.949
-26.838	33.860	1473.863	1262.309
-25.823	33.857	1472.110	1260.738
-24.809	33.711	1470.826	1258.615
-23.794	33.690	1468.439	1256.388
-22.779	33.776	1467.127	1255.785
-21.765	34.015	1466.954	1257.162
-20.750	33.825	1465.160	1254.323
-19.736	33.755	1464.980	1253.660
-18.721	33.730	1463.751	1252.392
-17.706	33.843	1463.077	1252.507
-16.692	33.911	1460.838	1250.990
-15.677	33.738	1460.689	1249.675
-14.663	33.963	1459.679	1250.240
-13.648	33.761	1457.797	1247.255
-12.633	33.770	1457.738	1247.211
-11.619	33.924	1456.190	1246.850
-10.604	33.774	1455.632	1245.334
-9.590	33.713	1455.695	1244.939
-8.575	33.840	1454.190	1244.439
-7.560	33.678	1453.710	1242.916
-6.546	33.872	1453.126	1243.635
-5.531	33.768	1451.347	1241.384
-4.517	33.672	1451.651	1240.970
-3.502	33.880	1448.927	1239.951
-2.487	33.690	1449.041	1238.757
-1.473	33.712	1447.828	1237.811
-0.458	33.807	1446.945	1237.629
0.556	34.973	1437.276	1226.642
1.571	31.253	1412.192	1181.642
2.586	27.601	1351.695	1108.755
3.600	25.803	1270.099	1031.446
4.615	24.159	1225.370	985.941
5.629	20.765	1166.873	920.872
6.644	11.394	1082.637	808.112
7.659	4.428	1040.596	743.404
8.673	3.140	1036.063	733.959
9.688	2.938	1033.010	730.772
10.702	2.760	1030.916	728.382
11.717	2.763	1029.632	727.422
12.731	6.126	1031.676	744.757
13.746	15.197	1046.089	798.503
14.761	23.672	1056.349	846.872
15.775	26.062	1059.636	860.849
16.790	26.657	1058.267	862.495
17.804	26.480	1057.333	860.814
18.819	26.371	1056.410	859.473
19.834	26.505	1056.559	860.151
20.848	26.649	1055.556	859.946
21.863	26.778	1055.403	860.355
22.877	26.735	1054.795	859.579
23.892	26.808	1054.057	859.247
24.907	26.593	1053.426	857.640
25.921	26.644	1052.522	857.068
26.936	26.649	1052.723	857.179
27.950	26.535	1050.822	855.017
28.965	26.477	1049.594	853.669
29.980	26.225	1049.052	851.965
30.994	26.272	1047.347	850.728
32.009	26.766	1046.729	852.474
33.023	26.741	1046.277	851.910
34.038	26.593	1044.520	849.711
35.053	26.233	1043.956	847.491
36.067	26.629	1043.935	849.255
37.082	26.546	1042.896	847.946
38.096	26.534	1042.415	847.424
39.111	26.554	1042.610	847.599
40.126	26.500	1042.018	846.793
41.140	26.734	1039.865	846.057
42.155	26.589	1038.336	844.066
43.169	25.948	1037.626	840.428
44.184	25.964	1036.147	839.226
45.199	26.215	1035.241	839.585
46.213	26.099	1034.650	838.496
47.228	26.151	1032.908	837.249
48.242	26.164	1033.920	838.058
49.257	26.319	1032.654	837.673
50.271	26.499	1031.944	837.856
51.286	26.524	1030.517	836.739
52.301	26.294	1030.923	835.931
53.315	26.851	1029.594	837.353
54.330	26.657	1028.967	835.872
55.344	26.608	1027.131	834.083
56.359	26.598	1026.392	833.365
57.374	26.499	1025.930	832.459
58.388	26.475	1024.497	831.112
59.403	26.253	1024.363	829.912
60.417	26.350	1023.837	829.855
61.432	26.075	1022.901	827.762
62.447	25.852	1022.505	826.348
63.461	26.252	1022.539	828.136
64.476	26.290	1022.376	828.102
65.490	26.088	1020.321	825.443
66.505	26.063	1019.373	824.489
67.520	26.208	1017.698	823.723
68.534	26.391	1018.031	824.754
69.549	26.294	1017.031	823.426
70.563	25.689	1015.308	819.208
71.578	25.597	1015.240	818.662
72.593	25.684	1014.945	818.748
73.607	25.663	1013.230	817.194
74.622	25.652	1012.025	816.101
75.636	25.718	1011.554	815.947
76.651	26.046	1011.431	817.264
77.666	25.823	1009.984	815.011
78.680	25.700	1009.871	814.291
79.695	25.760	1008.990	813.783
80.709	26.116	1008.105	814.605
81.724	26.096	1007.601	814.035
82.739	26.035	1005.680	812.137
83.753	25.942	1005.871	811.800
84.768	26.603	1004.973	813.973
85.782	26.745	1004.808	814.406
86.797	26.721	1004.824	814.241
87.812	26.984	1003.006	813.871
88.826	26.632	1002.405	811.735
89.841	26.633	1001.861	811.228
90.855	26.912	1000.792	811.541
91.870	27.076	999.780	811.382
92.884	26.783	999.552	809.814
93.899	26.826	998.781	809.308
94.914	26.430	998.585	807.313
95.928	26.607	997.770	807.369
96.943	26.924	996.171	807.416
97.957	26.594	994.428	804.468
98.972	26.326	993.028	802.075
99.987	25.815	993.377	800.017
101.001	26.533	991.824	801.876
102.016	26.526	991.239	801.301
103.030	26.494	990.058	800.136
104.045	26.354	989.200	798.752
105.060	26.416	988.097	798.066
106.074	26.169	987.847	796.702
107.089	25.971	987.915	795.812
108.103	26.608	987.140	797.927
109.118	26.354	986.717	796.393
110.133	26.283	984.489	794.214
111.147	26.215	984.450	793.811
112.162	26.184	982.279	791.857
113.176	25.634	981.352	788.628
114.191	26.254	980.164	790.317
115.206	26.442	979.089	790.203
116.220	25.750	979.789	787.670
117.235	25.711	978.053	786.033
118.249	25.926	977.914	786.795
119.264	26.135	976.437	786.448
120.279	25.812	976.324	784.878
121.293	25.590	975.757	783.386
122.308	25.727	975.778	783.929
123.322	26.045	973.747	783.609
124.337	25.793	972.880	781.749
125.352	25.733	971.987	780.700
126.366	25.344	970.141	777.467
127.381	25.113	967.857	774.569
128.395	25.489	968.694	776.799
129.410	25.945	969.184	779.093
130.424	26.332	968.204	779.906
131.439	26.322	967.322	779.082
132.454	26.367	965.428	777.684
133.468	26.211	965.316	776.851
134.483	26.367	964.943	777.156
135.497	26.413	964.178	776.665
136.512	26.408	963.482	776.014
137.527	26.511	962.480	775.584
138.541	26.381	961.148	773.882
139.556	26.756	961.321	775.560
140.570	26.641	960.130	774.037
141.585	26.584	959.317	773.069
142.600	26.407	959.994	772.791
143.614	26.247	958.544	770.872
144.629	26.869	956.830	772.075
145.643	27.116	955.606	772.070
146.658	26.840	955.036	770.366
147.673	26.613	955.262	769.516
148.687	27.014	952.085	768.588
149.702	26.581	952.238	766.809
150.716	26.229	951.962	765.031
151.731	26.400	951.220	765.088
152.746	26.561	949.736	764.508
153.760	26.608	949.558	764.494
154.775	26.672	949.566	764.704
155.789	26.726	947.815	763.455
156.804	26.932	946.928	763.539
157.819	26.878	945.778	762.318
158.833	26.591	946.063	761.271
159.848	26.723	945.622	761.406
160.862	27.182	943.590	761.626
161.877	26.910	943.061	759.991
162.892	26.593	942.700	758.307
163.906	27.023	941.696	759.230
164.921	26.515	940.692	756.233
165.935	26.799	939.393	756.304
166.950	27.197	937.746	756.571
167.964	26.949	937.809	755.521
168.979	26.594	937.024	753.345
169.994	26.892	935.253	753.092
171.008	26.605	933.752	750.627
172.023	26.681	934.222	751.254
173.037	26.783	933.717	751.203
174.052	26.370	932.188	748.199
175.067	26.814	930.562	748.660
176.081	26.587	929.652	746.926
177.096	26.427	930.066	746.532
178.110	26.394	929.184	745.621
179.125	26.452	928.155	744.968
180.140	26.332	926.726	743.262
181.154	26.196	926.104	742.139
182.169	26.404	925.248	742.242
183.183	26.659	924.933	742.971
184.198	26.822	924.916	743.557
185.213	26.916	924.015	743.151
186.227	26.926	923.643	742.830
187.242	26.665	923.039	741.211
188.256	26.773	922.105	740.835
189.271	26.961	921.260	740.857
190.286	26.821	921.784	740.641
191.300	27.054	920.126	740.193
192.315	26.252	918.417	735.492
193.329	25.228	917.007	730.131
194.344	24.940	916.627	728.593
195.359	25.518	916.448	730.738
196.373	26.414	916.843	734.630
197.388	26.826	916.423	735.900
198.402	26.761	916.255	735.435
199.417	26.594	916.002	734.491
200.432	26.867	915.514	735.140
201.446	26.783	914.437	733.869
202.461	26.375	913.933	731.750
203.475	26.466	913.413	731.637
204.490	26.064	911.715	728.587
205.504	24.806	909.091	721.359
206.519	25.320	909.084	723.362
207.534	25.819	910.041	726.072
208.548	26.504	908.813	727.784
209.563	26.469	909.376	728.029
210.577	26.674	908.452	728.050
211.592	26.625	907.302	726.867
212.607	26.609	908.056	727.341
213.621	26.763	907.661	727.578
214.636	26.674	906.754	726.429
215.650	26.752	905.720	725.848
216.665	26.777	904.930	725.253
217.680	26.756	904.968	725.135
218.694	26.834	904.084	724.676
219.709	26.597	904.654	724.120
220.723	26.285	903.031	721.512
221.738	26.621	901.600	721.643
222.753	26.884	901.689	722.699
223.767	26.513	901.251	720.804
224.782	26.975	900.161	721.708
225.796	27.278	899.410	722.243
226.811	26.872	899.315	720.493
227.826	26.594	897.408	717.799
228.840	25.846	896.143	713.761
229.855	25.674	895.916	712.837
230.869	26.263	895.036	714.404
231.884	26.052	893.566	712.333
232.899	25.972	893.163	711.634
233.913	26.687	894.316	715.312
234.928	26.719	894.749	715.722
235.942	26.333	893.836	713.407
236.957	26.835	891.779	713.677
237.972	26.264	891.392	711.056
238.986	26.213	890.205	709.848
240.001	26.047	890.609	709.454
241.015	26.402	889.270	709.719
242.030	26.519	888.602	709.581
243.045	26.020	889.222	708.056
244.059	26.919	888.135	710.651
245.074	26.784	887.423	709.490
246.088	26.668	887.555	709.076
247.103	26.500	886.044	707.150
248.117	26.410	885.406	706.225
249.132	26.792	886.523	708.548
250.147	27.458	885.664	710.399
251.161	27.493	884.960	709.907
252.176	27.572	884.115	709.475
253.190	27.300	883.992	708.256
254.205	27.474	884.334	709.142
255.220	27.763	883.562	709.585
256.234	27.861	881.779	708.471
257.249	27.823	881.118	707.731
258.263	27.519	881.499	706.793
259.278	27.365	881.142	705.847
260.293	27.509	880.521	705.847
261.307	27.549	880.194	705.675
262.322	27.405	878.455	703.665
263.336	27.436	877.833	703.223
264.351	27.344	876.343	701.611
265.366	25.894	874.192	694.248
266.380	25.411	873.410	691.705
267.395	26.831	874.285	697.804
268.409	27.455	874.427	700.255
269.424	27.232	875.042	699.828
270.439	27.304	874.104	699.293
271.453	27.450	872.328	698.372
272.468	27.199	872.200	697.246
273.482	27.566	871.551	698.068
274.497	27.502	871.462	697.691
275.512	27.429	870.066	696.235
276.526	26.808	868.910	692.874
277.541	26.938	868.667	693.117
278.555	27.491	868.072	694.689
279.570	27.700	867.379	694.869
280.585	27.316	866.976	693.023
281.599	27.501	866.414	693.219
282.614	27.526	865.875	692.821
283.628	26.468	866.638	689.341
284.643	26.034	865.011	686.333
285.657	26.926	864.811	689.507
286.672	26.889	864.055	688.701
287.687	25.975	862.572	683.994
288.701	26.779	862.220	686.701
289.716	26.907	862.617	687.441
290.730	26.574	861.873	685.525
291.745	26.222	861.911	684.163
292.760	26.618	859.391	683.598
293.774	26.415	859.098	682.538
294.789	27.064	860.508	686.051
295.803	27.728	859.684	687.837
296.818	27.880	860.183	688.749
297.833	28.282	858.968	689.228
298.847	27.550	858.337	685.907
299.862	27.244	857.912	684.355
300.876	27.607	855.969	684.107
301.891	27.797	856.366	685.075
302.906	27.957	856.096	685.399
303.920	27.401	854.913	682.310
304.935	27.449	854.248	681.897
305.949	27.896	853.548	682.948
306.964	28.176	852.994	683.494
307.979	27.937	852.731	682.328
308.993	27.644	851.882	680.495
310.008	27.699	853.031	681.559
311.022	28.120	851.458	681.813
312.037	27.669	850.978	679.687
313.052	27.659	849.502	678.409
314.066	27.746	849.754	678.875
315.081	26.594	848.032	673.159
316.095	25.914	847.728	670.333
317.110	26.837	846.416	672.660
318.125	27.317	847.746	675.440
319.139	27.029	845.846	672.798
320.154	25.721	844.516	666.840
321.168	25.609	843.421	665.503
322.183	25.975	844.742	667.840
323.197	27.000	844.320	671.240
324.212	27.302	843.956	672.005
325.227	27.642	843.802	673.079
326.241	27.811	842.974	672.984
327.256	27.720	841.907	671.736
328.270	27.516	841.233	670.388
329.285	27.380	841.111	669.730
330.300	27.247	840.936	669.046
331.314	27.106	839.655	667.447
332.329	27.155	838.180	666.395
333.343	27.611	839.097	668.738
334.358	27.844	838.449	669.017
335.373	27.955	838.097	669.086
336.387	27.760	837.047	667.474
337.402	27.996	836.829	668.103
338.416	28.319	835.928	668.503
339.431	27.913	836.070	667.076
340.446	28.031	836.382	667.699
341.460	28.457	835.230	668.271
342.475	28.531	834.849	668.178
343.489	28.236	834.090	666.438
344.504	27.960	833.964	665.274
345.519	28.074	833.724	665.437
346.533	28.260	833.286	665.704
347.548	28.541	832.314	665.890
348.562	28.671	831.920	665.985
349.577	28.850	830.433	665.385
350.592	28.441	831.411	664.627
351.606	28.141	830.806	662.997
352.621	28.077	830.674	662.603
353.635	28.034	830.314	662.103
354.650	28.381	828.918	662.182
355.665	27.847	828.091	659.535
356.679	26.880	826.346	654.602
357.694	26.735	826.366	654.035
358.708	27.698	824.308	655.813
359.723	27.602	825.252	656.162
360.738	27.472	825.381	655.738
361.752	28.328	825.187	658.604
362.767	28.219	824.102	657.287
363.781	28.462	824.666	658.555
364.796	28.856	823.641	659.089
365.810	28.829	824.163	659.353
366.825	29.153	823.828	660.187
367.840	29.095	823.203	659.419
368.854	28.729	822.284	657.317
369.869	28.525	820.986	655.491
370.883	28.086	820.630	653.582
371.898	28.206	820.198	653.609
372.913	28.373	819.032	653.217
373.927	28.165	818.974	652.371
374.942	28.520	818.241	652.992
375.956	28.208	818.021	651.649
376.971	28.605	816.887	652.097
377.986	28.830	816.580	652.596
379.000	29.153	816.750	653.819
380.015	29.308	816.015	653.725
381.029	28.993	814.925	651.676
382.044	28.483	814.982	649.858
383.059	28.975	814.293	650.993
384.073	28.771	813.963	649.949
385.088	29.010	814.029	650.791
386.102	29.056	812.948	650.030
387.117	28.800	811.497	647.911
388.132	28.743	811.098	647.335
389.146	28.437	810.129	645.426
390.161	27.864	809.618	642.943
391.175	27.782	809.537	642.534
392.190	28.578	809.603	645.333
393.205	28.667	809.289	645.338
394.219	27.587	807.637	640.170
395.234	25.897	805.411	632.426
396.248	25.140	803.175	627.963
397.263	25.831	805.331	632.021
398.278	27.972	806.238	640.185
399.292	28.637	805.949	642.226
400.307	28.248	805.479	640.434
401.321	28.430	804.899	640.554
402.336	28.155	805.074	639.676
403.350	28.262	804.997	639.932
404.365	28.686	805.430	641.699
405.380	29.111	804.488	642.377
406.394	29.503	803.927	643.237
407.409	29.443	803.606	642.717
408.423	30.042	803.036	644.287
409.438	29.376	802.438	641.436
410.453	29.675	801.702	641.830
411.467	29.661	802.334	642.227
412.482	29.384	801.881	640.848
413.496	29.662	800.578	640.714
414.511	29.459	800.499	639.889
415.526	29.655	800.575	640.572
416.540	29.634	799.801	639.824
417.555	29.875	798.783	639.788
418.569	29.222	798.258	637.053
419.584	29.033	798.276	636.358
420.599	29.210	797.298	636.133
421.613	159.828	1369.923	1793.084
422.628	138.633	1453.351	1793.153
