DTS Sentinel unit serial number:	SN413079Multiplexer serial number:	ORYXHardware model number:	OX4-SRSoftware version number:	ORYX F/W v4.00 Oryx Data Collector v3.7.2.0data status	okinstallation	princeton_trtdifferential loss correction	single-endedforward channel	channel 3reverse channel	N/Adate	2019/09/14time	07:08:34forward acquisition time	60.00reverse acquisition time	0.00gamma	496.2192k internal	0.2340k external	0.2340temperature offset calibration	1.0057default loss term (dB/km)	0.3790temperature slope calibration	1.0000multiplexer offset coefficient	1.0000multiplexer slope coefficient	1.0000fibre end	0.00T internal ref (°C)	26.19T ext. ref 1 (°C)	3.45T ext. ref 2 (°C)	20.92length (m)	temperature (°C)	Stokes	anti-Stokes-747.200	-180.092	0.235	0.005
-746.185	800.000	-0.066	-0.188
-745.171	-24.672	-0.076	-0.045
-744.156	179.531	-0.067	-0.098
-743.142	-148.236	-0.128	-0.011
-742.127	264.151	-0.083	-0.144
-741.112	-33.239	0.203	0.113
-740.098	227.610	-0.136	0.221
-739.083	437.385	0.160	0.350
-738.069	800.000	-0.136	0.378
-737.054	-136.894	-0.043	-0.005
-736.039	-28.732	-0.343	-0.198
-735.025	4.969	0.132	0.098
-734.010	-200.000	-0.025	-0.124
-732.996	193.426	-0.086	-0.131
-731.981	-200.000	-0.085	-0.494
-730.966	432.261	-0.202	-0.438
-729.952	89.144	-0.191	-0.213
-728.937	-200.000	0.017	0.121
-727.923	-78.119	-0.235	-0.081
-726.908	-200.000	-0.003	-0.193
-725.894	23.005	-0.114	0.094
-724.879	278.298	-0.149	-0.266
-723.864	-18.921	0.389	-0.242
-722.850	800.000	-0.164	0.491
-721.835	-200.000	-0.021	-0.340
-720.821	800.000	0.073	-0.205
-719.806	114.847	0.343	-0.419
-718.791	33.204	-0.171	-0.148
-717.777	237.440	0.036	0.059
-716.762	-144.244	-0.458	0.043
-715.748	2.515	0.070	0.051
-714.733	19.462	0.227	0.183
-713.718	-38.065	0.260	-0.138
-712.704	-98.931	-0.471	-0.120
-711.689	230.629	0.072	0.119
-710.675	-98.415	-0.245	0.063
-709.660	96.029	-0.085	-0.097
-708.645	-35.700	0.442	0.240
-707.631	-159.591	-0.118	-0.007
-706.616	76.034	-0.152	-0.161
-705.602	-47.736	0.317	0.154
-704.587	800.000	0.149	0.442
-703.572	108.211	-0.092	0.109
-702.558	800.000	0.083	-0.270
-701.543	673.040	-0.097	0.251
-700.529	-100.731	-0.279	0.069
-699.514	338.880	-0.175	0.342
-698.499	-130.448	-0.301	0.041
-697.485	800.000	0.101	-0.293
-696.470	19.931	0.346	-0.279
-695.456	119.419	-0.026	-0.033
-694.441	-151.745	-0.182	-0.013
-693.426	800.000	0.061	0.254
-692.412	37.587	0.100	-0.089
-691.397	-120.082	0.168	-0.029
-690.383	349.972	-0.012	0.024
-689.368	-200.000	-0.006	0.082
-688.354	-19.473	-0.291	0.180
-687.339	-133.521	-0.373	0.047
-686.324	-39.417	0.173	0.091
-685.310	-37.648	0.211	-0.112
-684.295	654.108	0.096	-0.246
-683.281	-97.432	-0.123	0.032
-682.266	-78.624	0.190	0.065
-681.251	-47.010	-0.217	-0.106
-680.237	-200.000	-0.039	-0.242
-679.222	87.238	0.207	-0.228
-678.208	584.244	-0.079	0.193
-677.193	800.000	-0.110	-0.399
-676.178	32.112	0.110	0.095
-675.164	-9.296	-0.411	-0.275
-674.149	488.950	-0.060	-0.137
-673.135	800.000	0.167	-0.475
-672.120	275.111	0.185	-0.327
-671.105	-102.868	-0.178	0.042
-670.091	800.000	-0.035	-0.142
-669.076	-200.000	0.002	0.064
-668.062	68.035	0.248	-0.254
-667.047	-200.000	0.007	-0.142
-666.032	-56.181	0.111	-0.049
-665.018	567.566	0.028	-0.068
-664.003	-42.061	-0.127	0.065
-662.989	-124.922	-0.060	0.009
-661.974	800.000	-0.050	-0.163
-660.959	110.347	-0.201	-0.241
-659.945	-200.000	-0.007	0.045
-658.930	-106.573	0.081	-0.018
-657.916	40.275	-0.207	0.186
-656.901	-52.427	-0.355	0.164
-655.886	-164.798	-0.336	0.015
-654.872	-105.881	0.010	-0.002
-653.857	-200.000	-0.057	0.250
-652.843	72.243	-0.179	0.186
-651.828	-122.600	0.151	-0.025
-650.814	40.271	-0.119	-0.107
-649.799	-49.823	0.136	0.064
-648.784	382.332	0.052	0.107
-647.770	-200.000	0.004	-0.053
-646.755	-200.000	0.001	-0.150
-645.741	800.000	0.044	0.166
-644.726	-56.091	-0.109	-0.049
-643.711	135.979	0.279	-0.364
-642.697	-50.861	0.071	-0.033
-641.682	-200.000	-0.019	0.116
-640.668	-172.375	0.124	0.004
-639.653	800.000	-0.081	0.313
-638.638	181.259	-0.141	-0.206
-637.624	-200.000	0.006	-0.150
-636.609	-10.231	-0.215	0.142
-635.595	3.775	0.324	-0.236
-634.580	-200.000	-0.021	-0.115
-633.565	36.127	-0.248	0.218
-632.551	194.934	-0.136	0.206
-631.536	31.209	0.101	-0.087
-630.522	-60.572	0.262	0.111
-629.507	-55.379	-0.204	0.091
-628.492	800.000	-0.107	-0.361
-627.478	-200.000	-0.001	0.147
-626.463	-51.874	-0.339	-0.157
-625.449	-185.036	0.107	-0.002
-624.434	81.141	-0.139	0.150
-623.419	188.446	-0.166	-0.247
-622.405	86.807	-0.163	0.180
-621.390	310.234	-0.077	-0.144
-620.376	-107.739	-0.137	0.030
-619.361	2.231	0.186	0.134
-618.346	-88.767	-0.139	-0.041
-617.332	-200.000	0.053	0.251
-616.317	67.899	0.100	0.102
-615.303	106.643	0.110	0.131
-614.288	-200.000	0.002	0.279
-613.273	-200.000	0.071	0.367
-612.259	89.802	-0.073	0.081
-611.244	27.543	0.126	-0.106
-610.230	-93.146	0.359	-0.100
-609.215	-200.000	-0.004	0.132
-608.201	-63.126	-0.087	0.036
-607.186	-42.347	0.117	0.059
-606.171	357.635	0.078	0.155
-605.157	-71.258	-0.050	-0.019
-604.142	-200.000	0.065	-0.385
-603.128	-9.331	0.248	0.165
-602.113	-34.488	-0.324	-0.177
-601.098	800.000	-0.094	0.375
-600.084	-200.000	0.008	0.183
-599.069	90.555	0.107	0.119
-598.055	-43.197	-0.163	0.082
-597.040	87.087	0.138	-0.151
-596.025	58.041	0.085	-0.083
-595.011	-119.132	0.306	-0.053
-593.996	-3.340	0.066	-0.046
-592.982	-200.000	-0.024	0.154
-591.967	79.182	-0.159	-0.169
-590.952	-87.778	-0.107	0.032
-589.938	800.000	-0.015	-0.062
-588.923	-200.000	0.004	-0.023
-587.909	65.761	-0.175	-0.177
-586.894	-13.194	-0.337	0.218
-585.879	-200.000	0.020	-0.239
-584.865	497.323	-0.060	0.137
-583.850	-49.887	0.119	-0.056
-582.836	800.000	0.044	0.177
-581.821	-52.710	-0.132	-0.061
-580.806	-93.930	-0.446	-0.122
-579.792	-200.000	0.023	0.131
-578.777	663.180	0.071	0.183
-577.763	-200.000	0.028	0.313
-576.748	316.629	-0.160	-0.302
-575.733	-99.424	0.203	0.051
-574.719	706.824	0.044	0.116
-573.704	305.872	-0.123	0.228
-572.690	-200.000	0.015	0.230
-571.675	-177.137	-0.074	-0.002
-570.661	-116.947	0.290	-0.053
-569.646	-47.889	0.154	-0.074
-568.631	123.972	-0.121	-0.151
-567.617	-126.449	-0.143	0.021
-566.602	-23.535	-0.263	0.157
-565.588	-83.664	0.190	0.060
-564.573	-88.171	0.315	-0.094
-563.558	-88.478	-0.060	-0.018
-562.544	800.000	0.042	0.130
-561.529	120.086	-0.100	-0.124
-560.515	800.000	-0.145	0.461
-559.500	-200.000	-0.018	-0.255
-558.485	-200.000	0.011	-0.162
-557.471	355.321	-0.097	0.192
-556.456	368.917	-0.155	-0.312
-555.442	-200.000	0.020	0.263
-554.427	800.000	0.080	-0.225
-553.412	-28.157	0.352	0.203
-552.398	-38.146	0.143	-0.075
-551.383	-5.962	-0.228	0.155
-550.369	561.337	-0.091	-0.219
-549.354	-95.508	-0.192	-0.051
-548.339	183.383	-0.133	-0.196
-547.325	194.944	0.099	-0.149
-546.310	146.825	0.228	-0.305
-545.296	800.000	0.030	-0.085
-544.281	-56.217	-0.143	-0.063
-543.266	-200.000	-0.004	-0.258
-542.252	90.916	0.189	0.210
-541.237	143.848	-0.154	-0.204
-540.223	70.066	-0.195	0.200
-539.208	800.000	0.028	-0.118
-538.193	627.267	-0.032	-0.080
-537.179	-23.994	0.109	-0.065
-536.164	800.000	0.019	0.080
-535.150	800.000	-0.077	0.244
-534.135	105.699	-0.241	0.284
-533.121	-71.631	-0.128	0.047
-532.106	446.605	-0.079	-0.174
-531.091	158.345	0.046	-0.063
-530.077	-56.089	-0.167	0.074
-529.062	-200.000	-0.034	0.215
-528.048	29.452	-0.112	-0.095
-527.033	-67.430	-0.117	-0.046
-526.018	703.439	0.091	0.239
-525.004	153.222	0.342	-0.465
-523.989	-126.691	-0.209	-0.031
-522.975	142.709	-0.191	0.253
-521.960	-51.494	0.242	0.112
-520.945	-65.456	0.040	0.016
-519.931	800.000	0.060	-0.195
-518.916	-200.000	0.068	-0.440
-517.902	800.000	-0.064	-0.206
-516.887	-200.000	-0.057	-0.257
-515.872	-200.000	0.004	-0.048
-514.858	374.757	0.145	0.294
-513.843	800.000	0.074	-0.230
-512.829	98.912	0.130	-0.150
-511.814	-170.488	-0.040	-0.001
-510.799	-158.133	0.144	0.008
-509.785	-136.187	0.118	0.014
-508.770	-52.746	0.307	0.141
-507.756	38.953	-0.143	0.127
-506.741	-200.000	-0.028	-0.132
-505.726	119.370	-0.112	-0.137
-504.712	16.729	0.124	0.098
-503.697	-35.399	-0.071	-0.038
-502.683	-200.000	0.000	0.084
-501.668	-26.880	-0.113	-0.065
-500.653	141.961	0.095	-0.125
-499.639	-169.995	0.074	0.003
-498.624	-200.000	0.040	0.188
-497.610	-55.148	0.178	0.079
-496.595	800.000	-0.076	0.219
-495.581	-83.415	-0.146	0.047
-494.566	-126.971	0.167	0.024
-493.551	-23.258	0.076	0.046
-492.537	269.221	-0.085	-0.149
-491.522	-80.464	-0.129	-0.043
-490.508	-34.045	-0.056	0.030
-489.493	61.498	0.115	-0.113
-488.478	-91.254	-0.282	-0.080
-487.464	30.278	0.140	0.118
-486.449	-54.399	0.175	0.079
-485.435	74.633	0.170	0.178
-484.420	767.838	-0.052	0.141
-483.405	-200.000	-0.015	-0.268
-482.391	21.633	-0.065	0.052
-481.376	617.524	-0.049	-0.121
-480.362	316.312	0.021	-0.039
-479.347	65.155	-0.207	0.208
-478.332	-31.913	-0.057	-0.032
-477.318	74.907	0.134	0.140
-476.303	-13.307	0.239	-0.154
-475.289	-200.000	-0.010	-0.139
-474.274	-78.534	-0.106	-0.036
-473.259	-137.440	-0.122	-0.014
-472.245	-164.587	-0.164	0.007
-471.230	-200.000	-0.003	-0.160
-470.216	191.165	0.159	0.238
-469.201	-200.000	-0.000	-0.081
-468.186	-200.000	-0.017	0.114
-467.172	800.000	0.037	-0.113
-466.157	179.609	0.151	-0.220
-465.143	-9.573	-0.342	0.226
-464.128	-53.314	-0.112	0.051
-463.113	339.197	0.107	-0.207
-462.099	64.462	-0.040	0.040
-461.084	176.142	-0.059	0.085
-460.070	-94.904	0.405	-0.109
-459.055	41.086	0.180	0.161
-458.040	-135.300	-0.141	0.017
-457.026	-98.283	-0.313	0.080
-456.011	-200.000	0.039	0.198
-454.997	139.773	0.216	0.282
-453.982	-73.724	-0.188	-0.068
-452.968	-200.000	-0.001	0.066
-451.953	267.789	0.132	-0.228
-450.938	603.586	0.092	0.228
-449.924	48.242	-0.239	0.222
-448.909	73.311	0.094	0.098
-447.895	-200.000	-0.049	-0.276
-446.880	-200.000	0.037	-0.237
-445.865	49.541	0.074	0.069
-444.851	-200.000	0.035	0.261
-443.836	49.550	-0.340	0.318
-442.822	162.842	0.058	-0.081
-441.807	-110.391	-0.170	0.035
-440.792	13.473	0.309	0.238
-439.778	126.845	0.302	-0.379
-438.763	-109.142	-0.100	-0.021
-437.749	-141.551	-0.269	0.027
-436.734	33.509	-0.189	-0.162
-435.719	-173.226	0.252	-0.008
-434.705	105.568	0.097	-0.113
-433.690	-120.554	-0.254	-0.043
-432.676	-123.680	-0.086	0.013
-431.661	-200.000	0.037	-0.264
-430.646	800.000	0.095	-0.289
-429.632	-200.000	0.079	-0.350
-428.617	67.254	0.062	-0.062
-427.603	-200.000	-0.064	-0.359
-426.588	399.300	0.064	0.134
-425.573	512.870	-0.115	0.266
-424.559	137.595	-0.227	0.294
-423.544	478.016	0.104	0.234
-422.530	48.269	0.132	0.122
-421.515	-68.618	0.108	-0.041
-420.500	591.196	0.059	-0.144
-419.486	-109.590	-0.276	0.058
-418.471	0.602	-0.074	0.052
-417.457	18.874	0.028	-0.022
-416.442	-65.834	-0.141	0.056
-415.428	-26.264	0.060	0.035
-414.413	143.099	-0.094	-0.123
-413.398	393.265	0.159	0.327
-412.384	800.000	-0.065	-0.280
-411.369	-45.626	0.032	-0.015
-410.355	-61.028	-0.229	-0.096
-409.340	-140.662	-0.229	-0.023
-408.325	27.030	-0.223	-0.185
-407.311	-200.000	0.006	-0.036
-406.296	102.652	-0.333	-0.385
-405.282	-200.000	0.009	0.236
-404.267	800.000	-0.092	-0.259
-403.252	171.903	0.122	0.173
-402.238	215.272	-0.192	-0.302
-401.223	-139.921	-0.145	-0.015
-400.209	-12.688	-0.335	-0.216
-399.194	-38.370	-0.083	0.044
-398.179	79.341	0.128	-0.136
-397.165	133.335	-0.120	-0.154
-396.150	-200.000	-0.028	-0.274
-395.136	3.796	0.084	0.060
-394.121	621.208	-0.098	-0.244
-393.106	30.343	0.215	-0.182
-392.092	-27.356	-0.125	0.072
-391.077	64.333	-0.148	0.148
-390.063	14.952	-0.192	-0.149
-389.048	437.851	0.017	0.036
-388.033	101.880	0.182	-0.210
-387.019	698.218	0.166	0.430
-386.004	-63.760	0.309	0.125
-384.990	-94.394	-0.292	0.079
-383.975	-123.686	-0.296	-0.046
-382.960	800.000	0.101	-0.373
-381.946	242.958	-0.031	-0.052
-380.931	-61.729	0.335	-0.139
-379.917	-200.000	-0.030	-0.260
-378.902	-90.645	0.375	-0.107
-377.888	417.178	0.128	0.270
-376.873	-66.363	-0.103	0.040
-375.858	-65.473	-0.204	-0.081
-374.844	149.494	0.186	0.248
-373.829	4.609	0.089	0.064
-372.815	-51.878	0.211	0.097
-371.800	-200.000	-0.054	0.414
-370.785	48.072	-0.259	0.239
-369.771	-118.388	-0.132	0.023
-368.756	800.000	-0.114	-0.463
-367.742	218.663	-0.044	-0.069
-366.727	-51.403	-0.313	-0.144
-365.712	-88.272	0.047	-0.014
-364.698	-55.045	0.159	-0.071
-363.683	482.483	0.155	0.348
-362.669	118.537	0.133	0.162
-361.654	5.944	0.058	-0.042
-360.639	-200.000	-0.004	-0.034
-359.625	-200.000	-0.036	0.188
-358.610	-64.392	0.153	-0.062
-357.596	-147.409	0.072	0.006
-356.581	59.994	-0.167	-0.163
-355.566	-195.145	0.311	0.002
-354.552	485.500	-0.082	-0.184
-353.537	401.778	0.125	0.259
-352.523	800.000	-0.010	-0.031
-351.508	-1.311	-0.284	-0.198
-350.493	-200.000	-0.024	0.151
-349.479	553.167	0.157	0.372
-348.464	-11.584	0.208	-0.135
-347.450	-120.198	0.147	-0.025
-346.435	800.000	-0.041	0.128
-345.420	-94.241	-0.354	0.095
-344.406	-186.857	0.126	0.002
-343.391	3.757	0.151	0.109
-342.377	70.632	-0.027	0.027
-341.362	-10.640	0.194	0.127
-340.348	696.612	0.043	-0.111
-339.333	-29.351	-0.324	0.183
-338.318	-200.000	0.025	-0.313
-337.304	-10.065	0.222	0.145
-336.289	-120.447	0.433	-0.073
-335.275	-200.000	0.080	-0.353
-334.260	49.914	-0.241	0.225
-333.245	-9.641	0.111	0.073
-332.231	582.115	-0.096	0.232
-331.216	302.237	0.100	-0.182
-330.202	300.223	0.036	0.066
-329.187	92.977	-0.149	0.166
-328.172	190.285	0.093	-0.138
-327.158	-147.375	-0.109	-0.009
-326.143	-200.000	0.003	0.084
-325.129	12.546	-0.004	0.003
-324.114	-97.454	0.145	-0.037
-323.099	272.615	-0.181	-0.316
-322.085	341.694	-0.103	-0.200
-321.070	433.462	-0.058	0.124
-320.056	13.024	0.154	0.117
-319.041	-106.030	0.180	0.040
-318.026	-28.647	-0.560	0.318
-317.012	177.222	0.041	-0.059
-315.997	800.000	0.072	0.206
-314.983	176.566	0.143	0.205
-313.968	-18.730	-0.285	-0.175
-312.953	-45.145	0.037	0.018
-311.939	69.585	0.109	-0.111
-310.924	800.000	0.024	0.100
-309.910	800.000	-0.087	-0.251
-308.895	69.187	0.104	0.105
-307.880	-64.473	0.127	0.051
-306.866	-89.768	-0.229	-0.066
-305.851	336.612	0.154	0.294
-304.837	-72.546	-0.110	0.040
-303.822	-200.000	0.008	-0.096
-302.807	-200.000	-0.013	-0.241
-301.793	-200.000	0.035	0.166
-300.778	-37.233	0.230	-0.121
-299.764	39.862	0.122	-0.108
-298.749	8.948	-0.110	0.082
-297.735	-9.805	-0.200	0.131
-296.720	800.000	-0.077	0.317
-295.705	36.088	-0.218	-0.189
-294.691	62.377	0.158	0.156
-293.676	296.188	0.151	-0.272
-292.662	606.251	-0.129	-0.318
-291.647	792.950	0.076	0.207
-290.632	-111.086	0.198	0.040
-289.618	3.752	0.270	-0.194
-288.603	-200.000	0.000	-0.457
-287.589	47.178	0.361	-0.331
-286.574	-94.109	-0.235	-0.064
-285.559	48.477	0.159	0.147
-284.545	-200.000	-0.091	0.419
-283.530	118.585	0.079	-0.096
-282.516	31.676	0.171	-0.145
-281.501	288.805	-0.042	0.075
-280.486	421.614	0.063	0.132
-279.472	292.018	0.121	0.216
-278.457	-0.649	0.244	-0.170
-277.443	-129.788	0.328	-0.044
-276.428	798.986	-0.057	0.155
-275.413	-142.575	-0.186	0.018
-274.399	-200.000	-0.045	0.233
-273.384	-17.411	-0.048	0.030
-272.370	297.342	-0.097	-0.175
-271.355	-170.668	0.237	-0.008
-270.340	-200.000	-0.003	0.060
-269.326	-116.709	-0.237	0.043
-268.311	-103.213	0.322	-0.075
-267.297	800.000	0.057	0.198
-266.282	-178.127	-0.170	0.004
-265.267	429.961	-0.084	0.179
-264.253	-163.172	-0.165	0.008
-263.238	61.939	0.102	0.100
-262.224	422.448	-0.168	0.355
-261.209	-126.395	-0.438	0.064
-260.195	13.419	-0.170	0.130
-259.180	-131.181	-0.123	0.016
-258.165	-200.000	0.013	0.059
-257.151	570.362	-0.101	0.241
-256.136	117.783	0.138	-0.167
-255.122	206.171	-0.210	-0.321
-254.107	37.404	0.150	0.131
-253.092	89.014	-0.256	0.281
-252.078	800.000	0.066	-0.199
-251.063	-151.442	-0.028	0.002
-250.049	0.063	-0.188	-0.132
-249.034	-200.000	0.029	-0.282
-248.019	297.724	-0.063	0.113
-247.005	-38.040	0.210	0.110
-245.990	800.000	0.091	-0.257
-244.976	383.344	-0.029	-0.060
-243.961	-200.000	-0.050	-0.267
-242.946	355.911	0.079	-0.155
-241.932	379.530	-0.138	-0.279
-240.917	-200.000	0.032	0.161
-239.903	-200.000	0.019	0.170
-238.888	-168.546	0.200	0.008
-237.873	315.109	-0.035	-0.066
-236.859	228.307	-0.167	-0.267
-235.844	-200.000	0.001	0.089
-234.830	-67.359	0.330	0.127
-233.815	727.113	-0.196	0.515
-232.800	-200.000	0.001	-0.168
-231.786	-14.124	-0.289	-0.183
-230.771	-86.430	0.088	-0.027
-229.757	-200.000	-0.208	0.001
-228.742	263.180	0.011	-0.018
-227.727	-131.168	-0.264	0.035
-226.713	-110.416	-0.162	-0.033
-225.698	-68.908	-0.164	-0.062
-224.684	-91.296	-0.120	0.034
-223.669	-107.495	0.027	0.006
-222.655	800.000	0.028	0.088
-221.640	168.731	0.145	-0.202
-220.625	-200.000	-0.002	0.266
-219.611	-156.871	-0.018	-0.001
-218.596	16.902	0.098	-0.076
-217.582	-14.464	0.241	-0.153
-216.567	-70.677	-0.097	-0.036
-215.552	40.525	-0.045	-0.040
-214.538	205.979	0.073	0.112
-213.523	8.331	0.305	-0.225
-212.509	-200.000	-0.045	-0.227
-211.494	-22.941	-0.090	0.053
-210.479	8.727	0.080	-0.059
-209.465	-86.012	-0.157	-0.048
-208.450	-62.337	-0.178	-0.073
-207.436	-95.068	0.363	-0.096
-206.421	306.534	-0.132	0.240
-205.406	800.000	0.200	-0.550
-204.392	-32.386	0.243	0.133
-203.377	-200.000	-0.047	-0.332
-202.363	800.000	0.048	-0.144
-201.348	-86.201	0.241	0.073
-200.333	-198.708	-0.451	0.002
-199.319	-57.661	0.109	0.047
-198.304	-56.477	-0.231	-0.100
-197.290	-200.000	0.004	-0.138
-196.275	-200.000	0.035	-0.220
-195.260	245.486	0.192	0.317
-194.246	-96.027	-0.153	-0.040
-193.231	-96.946	0.100	0.026
-192.217	52.339	-0.283	0.265
-191.202	-150.102	0.152	-0.012
-190.187	-75.809	-0.323	-0.112
-189.173	-200.000	0.039	0.191
-188.158	-63.127	0.147	-0.060
-187.144	13.177	0.108	0.082
-186.129	-88.949	0.219	0.064
-185.114	46.787	-0.097	0.088
-184.100	-200.000	-0.025	0.272
-183.085	-97.915	-0.254	-0.064
-182.071	-200.000	-0.015	0.314
-181.056	65.686	0.171	0.169
-180.042	-200.000	-0.020	0.213
-179.027	-200.000	0.008	0.119
-178.012	-145.887	0.377	-0.033
-176.998	-200.000	-0.028	-0.231
-175.983	81.336	-0.273	0.290
-174.969	-71.395	0.248	0.091
-173.954	800.000	0.012	-0.048
-172.939	-79.634	-0.366	0.121
-171.925	-200.000	0.014	0.214
-170.910	-4.690	0.412	0.279
-169.896	800.000	-0.042	0.119
-168.881	-45.914	0.225	-0.109
-167.866	293.287	-0.081	0.146
-166.852	365.379	0.143	0.282
-165.837	-200.000	0.280	0.001
-164.823	-200.000	-0.016	-0.076
-163.808	-200.000	0.022	-0.313
-162.793	447.040	0.072	-0.156
-161.779	-106.063	0.312	-0.069
-160.764	-25.112	-0.247	-0.143
-159.750	-80.482	-0.203	-0.066
-158.735	208.499	0.190	0.291
-157.720	800.000	-0.050	-0.162
-156.706	-151.096	0.235	0.017
-155.691	-74.784	0.503	-0.177
-154.677	-86.037	-0.079	-0.024
-153.662	-115.252	0.045	-0.008
-152.647	-200.000	-0.072	-0.340
-151.633	-167.906	0.129	-0.005
-150.618	-63.989	0.246	0.098
-149.604	800.000	-0.076	0.231
-148.589	99.947	0.063	-0.071
-147.574	26.884	0.065	0.053
-146.560	606.141	0.112	0.273
-145.545	-200.000	0.022	-0.192
-144.531	-138.830	0.220	-0.023
-143.516	-200.000	-0.013	0.184
-142.502	157.572	0.076	-0.102
-141.487	-9.051	-0.113	0.074
-140.472	261.444	0.169	-0.286
-139.458	16.136	0.115	0.088
-138.443	196.527	-0.095	0.141
-137.429	-82.578	-0.089	-0.028
-136.414	-60.918	0.125	0.052
-135.399	-200.000	-0.031	-0.226
-134.385	68.331	0.108	-0.108
-133.370	10.200	0.168	0.125
-132.356	-51.004	0.172	0.079
-131.341	120.133	-0.332	-0.403
-130.326	-105.726	-0.123	-0.027
-129.312	800.000	0.011	-0.042
-128.297	-78.662	0.183	0.061
-127.283	-67.815	0.228	0.087
-126.268	15.803	-0.107	-0.082
-125.253	800.000	0.166	0.480
-124.239	-137.688	0.121	0.013
-123.224	445.426	-0.098	-0.211
-122.210	37.896	-0.286	-0.249
-121.195	192.101	-0.137	0.202
-120.180	-200.000	-0.029	-0.361
-119.166	327.655	0.093	0.175
-118.151	620.493	0.148	0.363
-117.137	-169.872	0.187	-0.007
-116.122	-9.954	-0.210	0.136
-115.107	461.680	0.094	0.206
-114.093	-47.212	0.208	-0.099
-113.078	-9.475	0.156	-0.102
-112.064	-200.000	0.048	-0.351
-111.049	218.948	0.149	-0.233
-110.034	-105.278	0.216	0.048
-109.020	-132.056	-0.108	-0.014
-108.005	800.000	-0.015	0.054
-106.991	43.625	-0.093	0.083
-105.976	57.687	-0.109	-0.105
-104.962	27.993	0.162	-0.134
-103.947	-200.000	-0.078	-0.399
-102.932	-40.932	0.229	0.116
-101.918	-148.040	0.125	-0.010
-100.903	-40.539	0.344	0.175
-99.889	-145.908	-0.121	0.010
-98.874	-56.707	0.148	-0.064
-97.859	43.942	0.109	-0.098
-96.845	128.274	-0.195	0.242
-95.830	-79.251	0.104	-0.034
-94.816	582.584	0.087	0.209
-93.801	17.400	0.068	0.053
-92.786	-187.701	-0.157	0.002
-91.772	-148.258	0.290	-0.023
-90.757	23.867	-0.259	0.208
-89.743	440.379	0.066	0.140
-88.728	172.274	0.088	0.123
-87.713	-88.292	0.395	0.115
-86.699	-93.667	0.245	-0.066
-85.684	230.944	0.083	-0.132
-84.670	220.692	0.209	-0.327
-83.655	66.225	-0.210	-0.209
-82.640	800.000	-0.106	-0.379
-81.626	-94.734	-0.533	-0.141
-80.611	48.103	0.148	0.135
-79.597	210.387	0.194	-0.297
-78.582	65.902	0.166	-0.164
-77.567	-200.000	-0.051	-0.351
-76.553	141.971	-0.215	-0.279
-75.538	40.965	0.159	0.140
-74.524	109.877	0.122	0.142
-73.509	-160.523	-0.314	0.016
-72.494	257.885	0.125	0.210
-71.480	76.979	-0.212	0.220
-70.465	800.000	0.094	0.318
-69.451	71.076	-0.208	0.211
-68.436	-200.000	-0.018	0.112
-67.422	-200.000	-0.041	0.177
-66.407	44.409	-0.110	-0.098
-65.392	-200.000	0.015	0.105
-64.378	0.183	0.386	-0.269
-63.363	-200.000	0.013	-0.060
-62.349	-147.296	0.253	-0.021
-61.334	39.625	-0.995	-0.871
-60.319	133.393	0.580	0.732
-59.305	800.000	-0.342	-1.331
-58.290	151.264	0.640	0.851
-57.276	431.648	0.712	1.505
-56.261	-200.000	116.879	637.003
-55.246	482.068	1553.907	3444.131
-54.232	174.228	2724.536	3842.181
-53.217	104.496	2181.902	2507.008
-52.203	36.963	1695.424	1463.224
-51.188	29.336	1510.238	1251.809
-50.173	27.131	1485.751	1216.723
-49.159	49.177	1547.566	1418.940
-48.144	47.995	1560.630	1422.773
-47.130	29.348	1515.962	1256.436
-46.115	26.357	1500.961	1223.745
-45.100	26.248	1497.204	1219.895
-44.086	26.310	1494.880	1218.373
-43.071	26.174	1493.786	1216.517
-42.057	26.183	1491.893	1214.984
-41.042	26.128	1491.013	1213.854
-40.027	26.152	1489.231	1212.515
-39.013	26.142	1487.783	1211.219
-37.998	26.094	1486.592	1209.879
-36.984	26.078	1486.176	1209.384
-35.969	26.205	1484.148	1208.537
-34.954	26.163	1482.338	1206.738
-33.940	26.225	1481.120	1206.109
-32.925	26.149	1480.180	1204.791
-31.911	26.160	1478.902	1203.776
-30.896	26.282	1477.155	1203.119
-29.881	26.294	1475.985	1202.198
-28.867	26.318	1474.191	1200.845
-27.852	26.161	1473.784	1199.429
-26.838	26.254	1472.045	1198.581
-25.823	26.219	1470.446	1196.996
-24.809	26.318	1468.655	1196.147
-23.794	26.278	1467.525	1194.913
-22.779	26.204	1466.478	1193.525
-21.765	26.183	1465.153	1192.263
-20.750	26.287	1463.989	1191.951
-19.736	26.190	1463.377	1190.768
-18.721	26.185	1462.357	1189.860
-17.706	26.278	1460.429	1188.853
-16.692	26.329	1459.796	1188.629
-15.677	26.136	1458.940	1186.616
-14.663	26.219	1458.009	1186.353
-13.648	26.088	1457.587	1185.106
-12.633	26.164	1455.924	1184.207
-11.619	26.167	1455.317	1183.682
-10.604	26.182	1454.407	1182.992
-9.590	26.116	1453.961	1182.153
-8.575	26.201	1452.691	1181.630
-7.560	26.078	1451.905	1180.141
-6.546	26.130	1450.722	1179.468
-5.531	26.119	1450.011	1178.776
-4.517	26.164	1448.879	1178.103
-3.502	26.229	1447.758	1177.563
-2.487	26.135	1447.008	1176.296
-1.473	26.158	1446.339	1175.855
-0.458	26.137	1444.324	1174.032
0.556	26.417	1434.712	1163.186
1.571	23.303	1410.151	1123.452
2.586	20.025	1350.760	1056.091
3.600	18.410	1269.140	982.928
4.615	17.201	1224.703	941.728
5.629	14.731	1168.392	885.276
6.644	8.552	1087.763	793.532
7.659	4.072	1051.023	745.145
8.673	3.445	1046.728	739.030
9.688	3.516	1043.389	736.947
10.702	3.328	1042.015	735.013
11.717	3.501	1039.773	734.193
12.731	5.212	1040.688	742.919
13.746	11.551	1049.438	779.431
14.761	17.640	1057.557	814.581
15.775	19.440	1059.176	824.364
16.790	19.190	1057.234	821.590
17.804	18.063	1055.754	814.996
18.819	17.235	1053.592	809.313
19.834	16.838	1052.458	806.483
20.848	16.537	1051.565	804.293
21.863	16.393	1051.308	803.345
22.877	16.181	1050.402	801.574
23.892	16.088	1049.514	800.384
24.907	16.034	1048.683	799.420
25.921	16.022	1047.807	798.625
26.936	16.075	1046.864	798.088
27.950	16.100	1045.732	797.271
28.965	16.083	1045.012	796.573
29.980	16.192	1043.799	796.092
30.994	16.195	1042.992	795.421
32.009	16.260	1041.927	794.843
33.023	16.332	1041.050	794.444
34.038	16.319	1040.349	793.774
35.053	16.370	1039.134	793.019
36.067	16.157	1038.537	791.494
37.082	16.155	1037.204	790.398
38.096	16.356	1036.189	790.495
39.111	16.368	1035.830	790.209
40.126	16.383	1034.902	789.501
41.140	16.221	1033.518	787.617
42.155	15.965	1032.636	785.683
43.169	15.946	1031.654	784.775
44.184	16.039	1029.991	783.873
45.199	15.823	1029.591	782.500
46.213	15.942	1027.976	781.751
47.228	15.980	1027.373	781.402
48.242	16.079	1026.965	781.479
49.257	16.206	1025.921	781.204
50.271	16.105	1025.167	780.098
51.286	16.239	1023.746	779.563
52.301	16.236	1022.944	778.870
53.315	16.144	1022.884	778.331
54.330	16.279	1021.556	777.872
55.344	16.165	1020.372	776.378
56.359	15.991	1019.829	775.098
57.374	16.113	1018.795	774.802
58.388	16.038	1018.199	773.935
59.403	15.902	1017.246	772.518
60.417	15.863	1016.790	771.924
61.432	15.780	1015.880	770.788
62.447	15.894	1014.949	770.534
63.461	15.798	1014.228	769.478
64.476	15.734	1012.914	768.123
65.490	15.798	1012.351	767.919
66.505	15.781	1011.678	767.261
67.520	15.799	1010.913	766.698
68.534	15.841	1010.481	766.493
69.549	15.944	1009.117	765.859
70.563	15.843	1008.505	764.867
71.578	15.776	1007.896	764.035
72.593	15.693	1006.785	762.749
73.607	15.713	1005.592	761.868
74.622	15.647	1004.890	760.968
75.636	15.552	1003.913	759.732
76.651	15.712	1003.117	759.786
77.666	15.838	1002.612	759.903
78.680	15.696	1002.063	758.781
79.695	15.734	1001.425	758.401
80.709	15.718	1001.045	757.974
81.724	15.867	999.866	757.687
82.739	15.961	999.020	757.401
83.753	15.976	998.653	757.121
84.768	16.162	997.449	756.977
85.782	16.101	997.642	756.785
86.797	16.489	996.172	757.340
87.812	16.439	995.666	756.664
88.826	16.223	994.922	755.064
89.841	16.170	994.007	754.068
90.855	16.263	993.092	753.721
91.870	16.347	992.807	753.815
92.884	16.433	991.870	753.420
93.899	16.352	990.860	752.225
94.914	16.293	990.412	751.554
95.928	16.330	989.555	751.001
96.943	16.501	988.964	751.245
97.957	16.412	988.312	750.289
98.972	16.375	986.975	749.044
99.987	16.322	986.746	748.571
101.001	16.293	985.701	747.584
102.016	16.339	985.226	747.359
103.030	16.217	984.152	745.938
104.045	16.306	982.716	745.179
105.060	16.349	982.118	744.849
106.074	16.174	981.032	743.188
107.089	16.001	980.324	741.825
108.103	15.901	979.364	740.593
109.118	15.953	978.060	739.770
110.133	15.884	977.268	738.802
111.147	15.869	976.859	738.364
112.162	15.890	975.616	737.448
113.176	15.993	974.834	737.244
114.191	15.939	974.184	736.449
115.206	16.037	973.555	736.338
116.220	15.909	972.914	735.230
117.235	15.949	972.155	734.765
118.249	15.980	971.020	733.977
119.264	16.000	970.091	733.299
120.279	15.893	969.338	732.199
121.293	15.951	967.975	731.354
122.308	15.922	967.314	730.664
123.322	15.905	966.370	729.813
124.337	15.745	965.484	728.388
125.352	15.674	964.691	727.416
126.366	15.673	963.767	726.651
127.381	15.822	962.212	726.059
128.395	15.763	961.034	724.851
129.410	15.708	960.744	724.329
130.424	15.738	959.773	723.666
131.439	15.811	958.844	723.213
132.454	15.952	957.925	723.062
133.468	15.977	957.018	722.421
134.483	15.841	957.137	721.864
135.497	15.923	956.392	721.590
136.512	15.884	955.543	720.719
137.527	15.887	954.920	720.196
138.541	16.019	953.987	719.992
139.556	16.025	953.276	719.419
140.570	15.951	952.555	718.495
141.585	16.155	951.954	718.849
142.600	16.190	951.497	718.587
143.614	16.349	950.181	718.207
144.629	16.394	949.359	717.712
145.643	16.372	949.324	717.531
146.658	16.259	948.369	716.264
147.673	16.124	947.338	714.851
148.687	16.309	945.898	714.486
149.702	16.164	945.121	713.221
150.716	16.084	944.271	712.177
151.731	16.085	943.491	711.532
152.746	15.936	943.026	710.488
153.760	16.105	942.274	710.572
154.775	16.154	941.309	709.989
155.789	16.268	940.944	710.128
156.804	16.259	940.222	709.485
157.819	16.336	939.179	708.955
158.833	16.267	938.615	708.180
159.848	16.380	937.869	708.028
160.862	16.520	937.306	708.125
161.877	16.460	936.712	707.365
162.892	16.239	935.810	705.696
163.906	16.141	934.550	704.273
164.921	16.044	933.750	703.205
165.935	16.184	932.716	702.945
166.950	16.223	931.791	702.348
167.964	16.213	931.284	701.863
168.979	16.117	930.528	700.834
169.994	16.136	929.176	699.830
171.008	16.304	928.046	699.616
172.023	16.375	927.577	699.495
173.037	16.224	927.376	698.652
174.052	16.527	926.482	699.172
175.067	16.422	925.738	698.114
176.081	16.381	924.654	697.065
177.096	16.230	923.895	695.810
178.110	16.084	923.202	694.624
179.125	16.107	922.824	694.373
180.140	16.307	921.915	694.450
181.154	16.242	920.649	693.170
182.169	16.357	920.305	693.321
183.183	16.374	919.906	693.029
184.198	16.524	918.887	692.816
185.213	16.617	918.445	692.801
186.227	16.556	917.876	692.059
187.242	16.532	917.064	691.291
188.256	16.629	916.499	691.198
189.271	16.717	915.851	691.006
190.286	16.764	915.484	690.860
191.300	16.558	914.251	689.030
192.315	16.298	913.324	687.214
193.329	16.056	912.584	685.611
194.344	16.186	911.857	685.534
195.359	16.209	911.957	685.639
196.373	16.403	911.085	685.711
197.388	16.390	910.714	685.320
198.402	16.604	910.159	685.709
199.417	16.590	910.449	685.809
200.432	16.777	909.692	685.933
201.446	16.832	909.072	685.630
202.461	16.842	908.574	685.235
203.475	16.971	908.224	685.432
204.490	16.899	907.363	684.429
205.504	16.825	906.207	683.198
206.519	16.786	905.588	682.513
207.534	16.693	905.116	681.725
208.548	16.667	904.134	680.820
209.563	16.632	903.445	680.101
210.577	16.672	902.758	679.683
211.592	16.743	902.149	679.449
212.607	16.893	901.860	679.772
213.621	17.025	900.875	679.497
214.636	16.920	900.658	678.855
215.650	16.763	899.605	677.373
216.665	16.970	898.949	677.646
217.680	16.957	898.805	677.426
218.694	17.049	898.191	677.269
219.709	17.199	897.598	677.360
220.723	17.061	897.072	676.354
221.738	17.209	895.927	676.021
222.753	17.021	895.712	675.050
223.767	17.013	895.326	674.670
224.782	17.133	894.341	674.344
225.796	17.256	893.585	674.199
226.811	17.316	892.505	673.563
227.826	17.045	892.281	672.260
228.840	17.210	891.361	672.161
229.855	16.991	891.004	670.968
230.869	16.922	890.667	670.382
231.884	17.179	889.262	670.278
232.899	17.066	888.499	669.197
233.913	16.918	888.239	668.362
234.928	16.874	887.477	667.556
235.942	16.960	886.322	666.964
236.957	16.962	885.908	666.601
237.972	17.069	885.041	666.313
238.986	17.074	884.354	665.753
240.001	16.877	884.161	664.778
241.015	17.079	883.411	664.946
242.030	17.145	882.550	664.498
243.045	17.190	882.275	664.410
244.059	17.058	881.711	663.408
245.074	17.123	881.070	663.122
246.088	17.223	880.136	662.748
247.103	17.248	879.988	662.678
248.117	17.373	879.310	662.597
249.132	17.334	878.911	662.082
250.147	17.495	878.926	662.662
251.161	17.703	877.666	662.463
252.176	17.583	877.326	661.684
253.190	17.755	876.428	661.614
254.205	17.744	875.943	661.148
255.220	17.930	875.166	661.222
256.234	17.787	874.722	660.273
257.249	17.842	873.917	659.823
258.263	17.799	873.920	659.598
259.278	17.882	872.653	658.905
260.293	17.810	872.545	658.485
261.307	17.915	871.476	658.024
262.322	17.887	871.307	657.731
263.336	18.033	871.121	658.095
264.351	17.985	869.850	656.893
265.366	18.060	869.347	656.745
266.380	17.943	869.029	655.994
267.395	18.096	868.190	655.892
268.409	17.978	867.509	654.867
269.424	17.835	866.518	653.511
270.439	17.936	865.773	653.278
271.453	17.881	865.231	652.600
272.468	17.691	864.543	651.299
273.482	17.675	864.006	650.777
274.497	17.727	863.360	650.433
275.512	17.834	862.523	650.151
276.526	17.905	861.696	649.740
277.541	17.938	861.046	649.319
278.555	17.869	860.793	648.808
279.570	18.024	860.363	649.016
280.585	18.087	860.167	649.049
281.599	18.048	859.672	648.470
282.614	18.128	858.407	647.762
283.628	18.021	857.671	646.745
284.643	17.889	857.540	646.088
285.657	17.926	856.552	645.428
286.672	18.082	856.084	645.607
287.687	17.894	856.050	644.813
288.701	18.076	855.190	644.795
289.716	18.108	854.805	644.567
290.730	17.805	854.656	643.257
291.745	18.112	853.589	643.553
292.760	18.137	852.886	643.060
293.774	18.112	852.281	642.453
294.789	18.274	851.908	642.721
295.803	18.327	851.376	642.465
296.818	18.035	850.939	640.980
297.833	18.151	850.066	640.703
298.847	18.232	849.072	640.198
299.862	18.204	848.632	639.705
300.876	18.214	847.928	639.156
301.891	18.356	847.305	639.160
302.906	18.479	846.686	639.095
303.920	18.440	846.043	638.408
304.935	18.426	845.901	638.191
305.949	18.520	845.312	638.042
306.964	18.669	844.204	637.701
307.979	18.486	843.595	636.505
308.993	18.330	843.203	635.575
310.008	18.619	842.357	635.954
311.022	18.492	842.441	635.490
312.037	18.593	841.317	634.959
313.052	18.389	841.309	634.139
314.066	18.342	840.486	633.292
315.081	18.270	839.854	632.493
316.095	18.224	839.292	631.844
317.110	18.327	838.794	631.792
318.125	18.327	838.313	631.375
319.139	18.203	838.043	630.660
320.154	18.198	837.522	630.191
321.168	18.316	836.604	629.881
322.183	18.277	836.272	629.432
323.197	18.252	836.080	629.137
324.212	18.414	835.031	628.888
325.227	18.470	834.422	628.579
326.241	18.596	834.010	628.675
327.256	18.542	833.275	627.868
328.270	18.616	832.575	627.556
329.285	18.447	832.249	626.636
330.300	18.457	831.848	626.315
331.314	18.315	831.389	625.397
332.329	18.552	830.300	625.385
333.343	18.659	830.021	625.512
334.358	18.739	829.335	625.230
335.373	18.572	829.437	624.641
336.387	18.604	828.621	624.088
337.402	18.717	828.192	624.121
338.416	18.853	827.373	623.943
339.431	18.851	826.982	623.584
340.446	19.044	826.463	623.840
341.460	19.015	825.566	623.002
342.475	19.072	825.284	622.939
343.489	19.133	824.812	622.748
344.504	19.051	824.195	621.932
345.519	19.107	823.254	621.368
346.533	19.201	823.127	621.559
347.548	19.229	823.063	621.554
348.562	19.030	822.311	620.215
349.577	18.974	821.668	619.474
350.592	18.992	820.829	618.853
351.606	18.839	820.811	618.231
352.621	18.888	819.797	617.588
353.635	18.766	819.806	617.105
354.650	18.795	819.386	616.838
355.665	18.897	818.965	616.830
356.679	19.110	817.935	616.765
357.694	19.041	817.520	616.150
358.708	18.921	817.305	615.504
359.723	18.939	816.819	615.148
360.738	19.140	816.078	615.254
361.752	19.035	815.754	614.581
362.767	19.082	815.581	614.561
363.781	19.255	814.956	614.654
364.796	19.164	814.599	614.005
365.810	19.226	814.456	614.067
366.825	19.484	813.772	614.413
367.840	19.392	813.658	613.948
368.854	19.407	813.210	613.606
369.869	19.358	812.761	613.041
370.883	19.234	812.197	612.120
371.898	19.247	811.792	611.806
372.913	19.478	810.978	611.959
373.927	19.388	810.210	611.006
374.942	19.457	809.692	610.804
375.956	19.490	808.963	610.317
376.971	19.580	808.327	610.101
377.986	19.618	807.834	609.811
379.000	19.746	807.089	609.647
380.015	19.630	807.187	609.256
381.029	19.622	806.493	608.651
382.044	19.802	805.575	608.538
383.059	19.650	805.227	607.687
384.073	19.647	804.776	607.282
385.088	19.682	804.413	607.078
386.102	19.449	803.859	605.787
387.117	19.332	802.986	604.665
388.132	19.403	802.762	604.692
389.146	19.436	802.565	604.605
390.161	19.539	802.094	604.557
391.175	19.546	801.368	603.982
392.190	19.644	800.933	603.943
393.205	19.608	800.643	603.544
394.219	19.570	800.345	603.132
395.234	19.518	799.727	602.433
396.248	19.444	799.177	601.708
397.263	19.482	798.708	601.432
398.278	19.397	797.693	600.320
399.292	19.414	797.384	600.093
400.307	19.403	797.020	599.728
401.321	19.419	797.000	599.716
402.336	19.490	796.275	599.366
403.350	19.395	796.215	598.936
404.365	19.560	795.605	598.997
405.380	19.643	795.278	598.986
406.394	19.763	795.060	599.183
407.409	19.952	794.323	599.228
408.423	19.883	793.861	598.588
409.438	19.967	793.528	598.576
410.453	19.960	793.214	598.261
411.467	20.068	792.934	598.370
412.482	20.033	792.521	597.887
413.496	20.169	791.954	597.874
414.511	19.987	792.049	597.264
415.526	20.215	791.437	597.534
416.540	20.180	790.609	596.738
417.555	20.054	790.396	596.090
418.569	20.243	789.646	596.122
419.584	20.172	789.456	595.681
420.599	20.124	788.825	594.988
421.613	162.481	1370.762	1797.134
422.628	140.721	1455.557	1797.211
