DTS Sentinel unit serial number:	SN413079Multiplexer serial number:	ORYXHardware model number:	OX4-SRSoftware version number:	ORYX F/W v4.00 Oryx Data Collector v3.7.2.0data status	okinstallation	princeton_trtdifferential loss correction	single-endedforward channel	channel 3reverse channel	N/Adate	2019/09/15time	21:08:35forward acquisition time	60.00reverse acquisition time	0.00gamma	496.2192k internal	0.2328k external	0.2328temperature offset calibration	0.9935default loss term (dB/km)	0.3790temperature slope calibration	1.0000multiplexer offset coefficient	1.0000multiplexer slope coefficient	1.0000fibre end	0.00T internal ref (°C)	31.45T ext. ref 1 (°C)	8.14T ext. ref 2 (°C)	24.34length (m)	temperature (°C)	Stokes	anti-Stokes-747.200	-170.373	0.292	-0.010
-746.185	800.000	-0.114	0.323
-745.171	384.823	0.165	-0.343
-744.156	-65.202	0.069	0.028
-743.142	-200.000	0.027	-0.217
-742.127	-122.623	-0.016	0.003
-741.112	407.969	-0.043	0.092
-740.098	-52.108	-0.117	0.055
-739.083	-21.142	0.091	0.056
-738.069	-38.924	-0.064	-0.034
-737.054	800.000	0.022	0.062
-736.039	15.389	-0.382	-0.302
-735.025	-200.000	0.014	-0.070
-734.010	-126.866	-0.240	0.036
-732.996	265.539	0.060	-0.106
-731.981	-16.384	-0.163	0.104
-730.966	30.740	-0.087	-0.075
-729.952	-87.587	-0.586	0.178
-728.937	-200.000	0.014	0.076
-727.923	8.831	-0.177	0.135
-726.908	800.000	0.058	-0.179
-725.894	277.579	-0.051	-0.091
-724.879	122.271	0.154	0.193
-723.864	-154.235	-0.332	-0.023
-722.850	-141.622	0.166	0.017
-721.835	100.374	-0.311	0.363
-720.821	516.231	-0.105	-0.246
-719.806	-200.000	-0.028	-0.130
-718.791	253.317	0.107	-0.183
-717.777	-200.000	-0.079	-0.384
-716.762	-200.000	-0.048	-0.222
-715.748	129.016	0.185	0.237
-714.733	370.520	0.037	-0.075
-713.718	485.722	0.048	-0.110
-712.704	90.690	0.084	-0.095
-711.689	533.152	-0.068	-0.162
-710.675	-80.638	-0.301	0.101
-709.660	-77.207	0.212	-0.074
-708.645	-64.784	0.151	0.061
-707.631	112.665	0.272	0.331
-706.616	-200.000	0.018	-0.175
-705.602	477.302	0.057	-0.131
-704.587	-103.149	0.276	0.066
-703.572	-69.211	-0.450	0.174
-702.558	77.884	-0.135	-0.144
-701.543	-104.873	0.212	0.049
-700.529	-192.600	0.056	0.001
-699.514	92.069	0.199	0.225
-698.499	57.311	0.096	0.094
-697.485	3.517	-0.161	-0.118
-696.470	800.000	-0.089	-0.277
-695.456	-97.678	0.030	-0.008
-694.441	-200.000	0.010	-0.271
-693.426	-200.000	-0.030	0.203
-692.412	-66.829	0.210	-0.084
-691.397	-105.230	0.306	-0.070
-690.383	-2.729	-0.224	0.158
-689.368	670.883	-0.081	-0.212
-688.354	33.870	0.009	-0.008
-687.339	-40.054	-0.077	0.040
-686.324	-72.195	-0.198	-0.074
-685.310	198.665	-0.026	-0.040
-684.295	-106.212	0.142	-0.032
-683.281	-200.000	-0.023	0.183
-682.266	-170.000	0.180	-0.006
-681.251	-64.364	-0.283	0.116
-680.237	62.145	-0.264	0.264
-679.222	23.892	0.352	-0.291
-678.208	107.311	-0.036	0.043
-677.193	26.168	-0.267	-0.224
-676.178	18.733	-0.222	-0.179
-675.164	-175.792	-0.271	-0.007
-674.149	1.654	0.144	-0.104
-673.135	-68.602	-0.386	-0.150
-672.120	469.117	0.051	0.115
-671.105	-200.000	0.006	0.109
-670.091	-197.491	-0.297	0.002
-669.076	-150.130	0.079	-0.006
-668.062	-200.000	-0.022	-0.449
-667.047	800.000	0.028	-0.082
-666.032	-26.228	0.099	-0.059
-665.018	430.928	0.199	-0.434
-664.003	800.000	-0.047	0.132
-662.989	-27.603	-0.022	0.013
-661.974	-114.048	-0.133	-0.026
-660.959	-26.086	-0.090	0.053
-659.945	-200.000	0.028	-0.395
-658.930	-200.000	0.017	-0.256
-657.916	-36.387	0.100	-0.054
-656.901	17.276	-0.128	0.102
-655.886	-30.911	-0.231	-0.131
-654.872	-200.000	0.021	-0.505
-653.857	30.920	-0.117	0.101
-652.843	-83.941	-0.508	-0.162
-651.828	-188.273	0.437	-0.006
-650.814	-46.933	-0.045	-0.022
-649.799	-200.000	-0.034	0.219
-648.784	306.795	0.099	0.184
-647.770	-100.248	0.205	0.051
-646.755	800.000	0.024	-0.084
-645.741	370.661	-0.076	-0.155
-644.726	96.068	-0.358	0.411
-643.711	125.527	0.081	-0.102
-642.697	231.878	-0.248	-0.409
-641.682	800.000	-0.129	0.367
-640.668	-134.148	-0.191	-0.024
-639.653	-109.856	0.210	-0.044
-638.638	50.483	-0.210	-0.199
-637.624	40.289	0.129	0.117
-636.609	-68.434	0.084	-0.033
-635.595	15.038	0.295	-0.232
-634.580	103.334	-0.216	-0.254
-633.565	3.728	-0.066	-0.048
-632.551	439.484	-0.122	0.267
-631.536	-200.000	-0.015	0.084
-630.522	5.084	0.148	-0.109
-629.507	-74.007	-0.134	0.049
-628.492	112.871	0.053	-0.064
-627.478	-200.000	-0.001	-0.059
-626.463	-73.690	-0.364	0.133
-625.449	-8.720	0.386	0.260
-624.434	517.913	-0.017	0.040
-623.419	7.177	-0.128	-0.096
-622.405	-32.234	0.214	0.120
-621.390	-23.355	-0.195	0.118
-620.376	-119.138	0.253	0.044
-619.361	-54.469	-0.269	0.122
-618.346	-110.668	0.048	0.010
-617.332	74.130	0.260	0.274
-616.317	645.737	-0.189	-0.485
-615.303	-112.907	-0.357	0.071
-614.288	-31.846	0.408	0.229
-613.273	-117.410	-0.346	0.063
-612.259	-200.000	-0.077	0.395
-611.244	767.092	0.034	0.092
-610.230	21.157	0.032	-0.026
-609.215	34.587	0.096	-0.084
-608.201	58.803	-0.298	-0.294
-607.186	43.612	0.169	-0.155
-606.171	689.612	0.005	-0.013
-605.157	-200.000	0.000	-0.170
-604.142	-200.000	-0.028	-0.225
-603.128	-200.000	-0.011	0.321
-602.113	-35.695	0.032	0.017
-601.098	14.798	-0.221	-0.173
-600.084	-68.611	-0.160	0.062
-599.069	122.769	0.116	-0.146
-598.055	15.533	0.323	-0.254
-597.040	-200.000	-0.008	-0.186
-596.025	103.922	-0.153	0.180
-595.011	-101.590	-0.083	-0.020
-593.996	-65.130	-0.152	0.061
-592.982	-200.000	-0.022	-0.189
-591.967	107.263	-0.087	-0.104
-590.952	-119.258	0.220	-0.038
-589.938	483.918	-0.102	-0.232
-588.923	-200.000	-0.033	0.261
-587.909	-87.438	0.205	-0.062
-586.894	-200.000	-0.020	-0.198
-585.879	-47.917	0.336	0.163
-584.865	-167.449	-0.334	-0.013
-583.850	-200.000	0.021	-0.457
-582.836	207.238	-0.154	-0.241
-581.821	-184.480	0.243	0.004
-580.806	-200.000	0.008	0.064
-579.792	226.473	-0.165	-0.268
-578.777	157.409	-0.188	-0.260
-577.763	502.503	-0.127	-0.295
-576.748	-62.475	0.066	0.028
-575.733	138.118	-0.027	0.035
-574.719	52.792	-0.018	0.017
-573.704	298.781	-0.126	-0.232
-572.690	800.000	-0.064	-0.250
-571.675	-173.297	0.042	0.001
-570.661	55.560	-0.208	0.202
-569.646	474.308	-0.070	0.157
-568.631	-29.552	0.118	0.068
-567.617	-169.339	-0.482	0.018
-566.602	15.733	-0.083	0.065
-565.588	-200.000	-0.026	0.190
-564.573	-11.376	0.086	0.057
-563.558	-113.552	-0.262	-0.051
-562.544	91.124	-0.241	-0.271
-561.529	379.106	0.070	-0.143
-560.515	689.327	0.060	0.158
-559.500	6.204	0.362	0.269
-558.485	-75.011	0.298	0.107
-557.471	-43.932	-0.151	-0.076
-556.456	-14.149	-0.044	-0.028
-555.442	9.143	-0.169	-0.128
-554.427	101.498	-0.093	0.108
-553.412	-70.197	0.523	0.199
-552.398	84.919	0.064	0.070
-551.383	800.000	-0.059	0.216
-550.369	-200.000	-0.047	0.349
-549.354	33.608	0.126	0.109
-548.339	-80.024	0.162	0.054
-547.325	-29.125	-0.070	-0.040
-546.310	-81.528	0.173	0.057
-545.296	800.000	0.045	0.176
-544.281	-145.145	-0.380	-0.034
-543.266	272.360	0.094	-0.165
-542.252	-123.138	0.152	0.024
-541.237	-200.000	-0.083	-0.372
-540.223	-117.554	0.069	0.013
-539.208	-200.000	-0.054	-0.378
-538.193	46.671	-0.075	0.069
-537.179	-200.000	-0.008	0.073
-536.164	197.965	0.175	-0.268
-535.150	422.832	0.102	0.220
-534.135	-200.000	-0.000	-0.142
-533.121	-54.542	-0.045	0.020
-532.106	-64.347	0.194	-0.079
-531.091	21.369	0.051	-0.041
-530.077	-38.624	-0.367	0.193
-529.062	11.341	0.146	-0.112
-528.048	800.000	-0.077	-0.225
-527.033	53.636	-0.058	-0.056
-526.018	4.292	-0.262	-0.192
-525.004	-164.039	0.162	0.008
-523.989	129.766	-0.174	0.222
-522.975	203.847	0.153	-0.237
-521.960	344.354	-0.203	0.398
-520.945	244.782	0.121	-0.203
-519.931	7.726	0.109	-0.081
-518.916	10.659	0.120	-0.092
-517.902	-200.000	-0.026	-0.230
-516.887	-200.000	-0.018	-0.151
-515.872	11.434	-0.164	-0.125
-514.858	800.000	-0.003	0.008
-513.843	494.579	0.121	-0.278
-512.829	-103.525	-0.162	0.038
-511.814	800.000	-0.125	-0.394
-510.799	-167.000	-0.315	0.013
-509.785	-42.360	-0.172	-0.087
-508.770	-200.000	0.018	-0.267
-507.756	-76.128	-0.265	0.094
-506.741	181.425	-0.192	-0.281
-505.726	603.808	0.100	0.247
-504.712	-7.283	0.083	0.056
-503.697	-180.804	0.194	0.004
-502.683	-126.197	0.341	-0.051
-501.668	-149.751	0.198	-0.015
-500.653	-16.260	0.104	0.066
-499.639	-124.985	-0.311	-0.048
-498.624	453.746	-0.140	-0.309
-497.610	306.419	0.109	0.203
-496.595	27.017	-0.164	0.137
-495.581	361.775	-0.102	-0.203
-494.566	414.451	-0.012	0.025
-493.551	-200.000	-0.242	-0.000
-492.537	84.609	-0.145	0.159
-491.522	-15.498	0.156	-0.099
-490.508	-113.193	0.367	0.072
-489.493	-87.071	0.148	0.045
-488.478	785.043	0.083	-0.226
-487.464	155.153	-0.177	-0.243
-486.449	-200.000	0.029	0.326
-485.435	-175.534	-0.232	-0.006
-484.420	17.924	-0.150	-0.119
-483.405	-25.190	0.165	0.097
-482.391	219.927	-0.040	-0.064
-481.376	800.000	-0.052	0.160
-480.362	192.682	-0.103	-0.155
-479.347	86.997	0.194	0.214
-478.332	141.958	-0.251	0.331
-477.318	-29.713	-0.085	0.048
-476.303	-200.000	0.002	-0.347
-475.289	-155.413	0.332	0.021
-474.274	-51.502	0.165	0.077
-473.259	-147.102	-0.356	-0.030
-472.245	-35.594	-0.057	-0.031
-471.230	51.859	-0.117	-0.111
-470.216	-35.495	0.349	-0.189
-469.201	-200.000	-0.037	-0.357
-468.186	-66.466	0.232	-0.092
-467.172	-125.958	0.184	0.028
-466.157	51.583	-0.269	-0.255
-465.143	-83.711	-0.235	0.075
-464.128	-24.906	0.474	0.280
-463.113	14.418	-0.265	0.206
-462.099	89.861	0.192	-0.214
-461.084	99.002	0.204	0.234
-460.070	150.811	0.098	0.133
-459.055	-74.961	-0.345	-0.123
-458.040	-106.321	-0.186	-0.041
-457.026	85.146	-0.062	0.068
-456.011	-108.434	0.139	0.030
-454.997	86.162	-0.113	0.123
-453.982	-3.711	-0.080	0.056
-452.968	-22.394	-0.273	0.165
-451.953	-155.482	-0.596	0.038
-450.938	-174.279	0.203	0.006
-449.924	211.054	0.124	0.195
-448.909	-200.000	0.027	0.159
-447.895	59.783	-0.182	0.179
-446.880	612.075	-0.069	-0.172
-445.865	105.810	0.102	0.120
-444.851	325.325	0.134	0.255
-443.836	342.151	-0.083	0.162
-442.822	-152.038	0.140	-0.010
-441.807	45.803	0.095	0.088
-440.792	521.344	-0.020	0.046
-439.778	-200.000	-0.005	0.033
-438.763	-20.112	0.198	0.121
-437.749	13.259	0.043	0.033
-436.734	-113.358	-0.198	0.039
-435.719	-99.947	0.198	-0.049
-434.705	170.601	-0.134	-0.192
-433.690	63.268	0.070	0.070
-432.676	-200.000	-0.001	-0.195
-431.661	-72.972	-0.329	-0.120
-430.646	225.972	0.063	-0.101
-429.632	-171.207	-0.087	0.003
-428.617	241.552	-0.157	-0.261
-427.603	-36.752	-0.441	-0.236
-426.588	-200.000	0.069	-0.309
-425.573	-91.003	0.242	-0.069
-424.559	-136.227	0.238	-0.028
-423.544	800.000	0.083	0.269
-422.530	9.209	-0.137	0.103
-421.515	317.752	-0.135	0.255
-420.500	-200.000	-0.093	0.459
-419.486	130.431	-0.265	0.338
-418.471	-61.894	0.309	0.129
-417.457	260.472	0.061	-0.106
-416.442	-51.314	-0.096	-0.045
-415.428	-200.000	0.009	-0.205
-414.413	800.000	-0.054	0.220
-413.398	-200.000	0.089	0.418
-412.384	-4.935	0.122	0.084
-411.369	285.158	0.050	0.089
-410.355	103.567	-0.049	-0.058
-409.340	800.000	-0.079	-0.227
-408.325	453.446	0.107	-0.235
-407.311	-106.794	-0.098	-0.022
-406.296	38.266	0.112	-0.100
-405.282	53.685	0.085	0.081
-404.267	144.815	0.186	0.247
-403.252	-200.000	0.002	0.088
-402.238	129.827	0.095	-0.121
-401.223	84.269	-0.217	-0.235
-400.209	-153.542	-0.419	0.029
-399.194	126.980	0.144	0.181
-398.179	-125.712	0.202	0.030
-397.165	-170.813	0.242	0.008
-396.150	800.000	-0.074	-0.262
-395.136	-113.859	-0.215	-0.042
-394.121	-113.631	0.256	-0.050
-393.106	229.466	0.270	0.439
-392.092	-200.000	0.004	0.043
-391.077	109.327	0.164	0.195
-390.063	27.028	-0.196	0.164
-389.048	-157.895	0.264	0.016
-388.033	-130.953	0.318	-0.042
-387.019	603.826	-0.101	0.251
-386.004	167.020	0.115	-0.162
-384.990	70.684	0.074	0.076
-383.975	614.978	-0.125	0.310
-382.960	278.285	-0.116	0.206
-381.946	12.123	-0.091	0.070
-380.931	800.000	0.043	0.127
-379.917	-92.338	0.221	-0.062
-378.902	-86.488	0.095	-0.029
-377.888	597.712	-0.095	-0.235
-376.873	-18.987	-0.088	0.054
-375.858	107.526	-0.243	0.288
-374.844	-139.568	-0.398	-0.042
-373.829	-42.519	-0.160	0.081
-372.815	198.249	0.084	0.128
-371.800	-156.827	-0.089	0.005
-370.785	-106.594	0.215	-0.048
-369.771	32.954	-0.187	-0.161
-368.756	-131.104	-0.391	0.052
-367.742	-89.679	-0.191	0.056
-366.727	130.855	0.045	-0.057
-365.712	-52.974	-0.367	-0.168
-364.698	61.420	0.166	-0.164
-363.683	800.000	-0.034	0.131
-362.669	800.000	0.114	-0.351
-361.654	-200.000	0.004	-0.257
-360.639	-161.118	0.125	0.006
-359.625	50.897	0.092	0.086
-358.610	-200.000	-0.021	-0.091
-357.596	-61.992	-0.190	-0.079
-356.581	800.000	-0.023	0.078
-355.566	539.121	-0.047	0.112
-354.552	-41.425	-0.165	-0.084
-353.537	566.940	0.118	-0.285
-352.523	-49.876	-0.561	-0.264
-351.508	-81.551	-0.057	0.019
-350.493	163.332	-0.052	0.072
-349.479	-51.436	0.252	-0.117
-348.464	-47.644	-0.112	0.054
-347.450	127.297	-0.183	-0.230
-346.435	417.417	0.037	0.078
-345.420	-132.798	0.098	0.012
-344.406	-200.000	-0.064	0.323
-343.391	-195.392	-0.131	-0.001
-342.377	14.267	-0.205	-0.159
-341.362	225.896	0.193	-0.310
-340.348	75.211	-0.252	-0.263
-339.333	144.101	0.230	0.305
-338.318	-141.633	0.197	0.020
-337.304	-200.000	-0.001	0.031
-336.289	351.252	0.104	-0.205
-335.275	-75.946	0.164	0.057
-334.260	47.972	0.087	0.080
-333.245	800.000	-0.088	0.282
-332.231	294.165	0.180	-0.326
-331.216	-200.000	0.012	-0.204
-330.202	8.444	-0.247	-0.185
-329.187	-200.000	-0.020	-0.089
-328.172	-26.974	0.252	0.146
-327.158	-30.679	-0.052	0.029
-326.143	1.343	-0.232	0.166
-325.129	149.055	0.016	-0.021
-324.114	-29.416	0.361	0.205
-323.099	-200.000	-0.043	-0.316
-322.085	-200.000	0.036	0.274
-321.070	-200.000	-0.012	-0.156
-320.056	-27.653	-0.116	0.067
-319.041	800.000	0.048	-0.144
-318.026	222.592	0.235	-0.374
-317.012	-200.000	-0.029	0.405
-315.997	800.000	0.135	0.466
-314.983	-108.060	-0.180	0.039
-313.968	-128.229	0.266	-0.038
-312.953	-158.249	-0.171	-0.010
-311.939	-200.000	0.072	-0.326
-310.924	-161.535	0.287	-0.015
-309.910	245.726	0.140	-0.233
-308.895	-34.576	0.348	-0.189
-307.880	-43.937	0.164	-0.082
-306.866	50.707	-0.120	0.112
-305.851	-161.099	-0.276	-0.014
-304.837	-95.704	0.309	0.082
-303.822	79.208	-0.138	-0.146
-302.807	-176.451	0.477	-0.012
-301.793	-200.000	0.005	0.195
-300.778	-200.000	0.020	-0.124
-299.764	-200.000	0.040	-0.185
-298.749	-37.974	-0.089	0.047
-297.735	70.811	-0.172	0.176
-296.720	191.234	0.060	0.089
-295.705	-200.000	-0.033	0.289
-294.691	104.609	-0.252	-0.294
-293.676	-200.000	0.030	-0.365
-292.662	-114.712	-0.101	-0.019
-291.647	-200.000	-0.006	-0.394
-290.632	66.599	0.135	-0.136
-289.618	196.400	0.210	-0.317
-288.603	-53.613	-0.199	-0.090
-287.589	-118.138	-0.067	0.012
-286.574	117.418	-0.157	-0.191
-285.559	142.355	-0.305	-0.400
-284.545	-10.121	0.187	0.123
-283.530	-116.606	0.348	0.063
-282.516	-200.000	0.009	-0.125
-281.501	800.000	0.064	0.226
-280.486	-5.982	-0.093	0.063
-279.472	-54.006	-0.332	0.150
-278.457	-200.000	-0.044	0.556
-277.443	-195.435	-0.177	0.001
-276.428	-18.217	0.189	0.117
-275.413	-3.011	0.191	0.132
-274.399	-158.897	-0.059	0.003
-273.384	550.913	0.033	0.079
-272.370	-12.499	0.155	-0.100
-271.355	-59.034	0.164	-0.070
-270.340	800.000	-0.060	0.221
-269.326	-66.114	0.074	0.029
-268.311	800.000	0.081	0.225
-267.297	41.366	-0.325	0.291
-266.282	-200.000	-0.035	-0.164
-265.267	211.638	-0.141	-0.220
-264.253	800.000	0.033	0.141
-263.238	318.487	-0.113	-0.211
-262.224	-200.000	0.004	0.016
-261.209	144.662	-0.112	-0.148
-260.195	-97.987	-0.122	0.031
-259.180	56.322	0.026	0.025
-258.165	477.688	0.059	-0.131
-257.151	-116.122	0.291	0.053
-256.136	-26.173	-0.256	0.149
-255.122	-3.849	-0.239	0.164
-254.107	-156.869	0.092	-0.006
-253.092	-117.496	0.227	0.041
-252.078	54.765	-0.174	0.166
-251.063	-74.219	-0.187	-0.067
-250.049	85.480	0.139	-0.151
-249.034	-114.429	-0.398	0.076
-248.019	118.386	0.101	-0.123
-247.005	-125.418	0.267	-0.040
-245.990	60.963	0.097	0.096
-244.976	-200.000	-0.009	0.242
-243.961	-61.782	0.128	-0.053
-242.946	800.000	-0.108	0.371
-241.932	202.312	0.031	0.047
-240.917	800.000	0.037	-0.160
-239.903	800.000	0.065	0.227
-238.888	471.362	-0.013	0.028
-237.873	-152.074	-0.346	-0.025
-236.859	-29.841	0.250	-0.141
-235.844	-200.000	-0.019	-0.205
-234.830	-138.331	-0.219	-0.024
-233.815	800.000	0.034	0.133
-232.800	213.843	-0.209	0.326
-231.786	-146.735	0.282	-0.024
-230.771	93.756	0.122	0.137
-229.757	76.073	-0.131	-0.137
-228.742	-90.282	-0.255	-0.073
-227.727	-35.901	-0.115	-0.061
-226.713	16.019	0.376	-0.293
-225.698	62.359	0.113	-0.112
-224.684	485.285	-0.091	0.205
-223.669	-119.232	0.049	0.008
-222.655	-200.000	-0.003	0.193
-221.640	224.928	0.018	-0.029
-220.625	-9.298	0.058	0.038
-219.611	-106.037	-0.129	-0.029
-218.596	800.000	-0.061	-0.190
-217.582	-200.000	0.083	-0.370
-216.567	-185.603	0.315	0.005
-215.552	-79.470	0.197	0.066
-214.538	-17.837	-0.098	0.060
-213.523	-54.546	0.233	0.104
-212.509	-63.752	0.096	0.039
-211.494	-51.827	-0.312	0.143
-210.479	762.047	0.086	0.229
-209.465	-56.820	0.155	0.068
-208.450	800.000	-0.093	-0.279
-207.436	88.146	0.127	0.139
-206.421	112.069	0.142	-0.169
-205.406	136.911	0.173	0.222
-204.392	-200.000	-0.031	0.338
-203.377	-66.047	0.224	-0.088
-202.363	200.337	0.181	0.274
-201.348	800.000	0.046	-0.171
-200.333	516.840	0.156	-0.359
-199.319	-78.067	0.276	0.094
-198.304	800.000	0.037	-0.146
-197.290	-129.057	0.233	0.032
-196.275	11.929	0.134	-0.101
-195.260	-200.000	-0.041	0.268
-194.246	103.178	-0.150	0.173
-193.231	-26.254	0.107	0.062
-192.217	-200.000	0.024	-0.124
-191.202	800.000	0.082	-0.241
-190.187	-32.355	0.147	0.081
-189.173	-154.985	0.264	-0.017
-188.158	177.465	-0.082	0.118
-187.144	-33.060	0.147	-0.080
-186.129	118.741	0.112	0.137
-185.114	-52.821	-0.256	0.116
-184.100	374.398	-0.158	0.318
-183.085	-200.000	0.011	-0.195
-182.071	418.021	0.024	0.051
-181.056	-49.373	0.056	-0.026
-180.042	-85.767	-0.226	0.069
-179.027	-200.000	-0.023	0.208
-178.012	-140.119	-0.146	-0.015
-176.998	43.519	-0.197	0.177
-175.983	-87.080	-0.061	0.018
-174.969	-147.342	0.148	-0.012
-173.954	-100.298	0.476	0.117
-172.939	-57.134	0.209	0.091
-171.925	-149.432	0.220	-0.017
-170.910	-200.000	0.007	-0.180
-169.896	-97.056	0.165	0.043
-168.881	-200.000	0.014	-0.275
-167.866	730.856	0.041	0.107
-166.852	-5.303	-0.349	-0.236
-165.837	-1.456	0.176	-0.122
-164.823	21.652	0.100	-0.080
-163.808	176.200	-0.161	0.230
-162.793	35.010	0.256	0.221
-161.779	-200.000	-0.009	-0.077
-160.764	-200.000	-0.014	0.370
-159.750	201.877	0.082	0.125
-158.735	-200.000	-0.079	-0.419
-157.720	800.000	-0.069	0.214
-156.706	20.713	-0.149	0.119
-155.691	-129.732	-0.142	0.019
-154.677	800.000	0.109	0.385
-153.662	-22.475	0.093	-0.055
-152.647	33.761	0.183	-0.157
-151.633	280.255	0.120	0.212
-150.618	218.569	0.065	-0.102
-149.604	-127.871	-0.046	0.006
-148.589	800.000	-0.047	0.147
-147.574	-200.000	-0.017	-0.090
-146.560	800.000	0.079	0.311
-145.545	589.183	0.078	0.189
-144.531	19.337	0.148	-0.117
-143.516	31.705	0.235	-0.199
-142.502	-51.548	0.107	-0.049
-141.487	-200.000	0.025	-0.190
-140.472	27.437	0.124	0.102
-139.458	-95.264	-0.188	-0.050
-138.443	-129.928	0.308	-0.042
-137.429	-130.928	-0.282	-0.037
-136.414	-200.000	0.008	-0.299
-135.399	-158.543	-0.348	-0.020
-134.385	49.203	0.349	0.323
-133.370	-200.000	0.080	0.379
-132.356	-200.000	0.018	0.080
-131.341	150.289	-0.041	0.055
-130.326	-53.136	-0.143	0.065
-129.312	-99.608	-0.143	0.035
-128.297	-137.012	0.160	0.018
-127.283	294.576	0.164	-0.295
-126.268	-200.000	0.010	-0.300
-125.253	-200.000	-0.015	0.359
-124.239	-17.574	0.132	-0.082
-123.224	230.717	-0.197	-0.316
-122.210	-200.000	0.003	0.030
-121.195	94.899	-0.383	0.428
-120.180	128.695	0.160	-0.201
-119.166	-200.000	-0.032	-0.225
-118.151	-60.795	0.136	0.057
-117.137	-110.107	-0.117	0.024
-116.122	-154.624	-0.246	-0.016
-115.107	166.205	0.075	-0.105
-114.093	-200.000	0.071	0.376
-113.078	-25.234	-0.246	-0.143
-112.064	99.909	-0.247	-0.281
-111.049	-200.000	0.090	-0.607
-110.034	-200.000	-0.011	-0.331
-109.020	-200.000	0.050	-0.417
-108.005	-77.024	0.159	0.055
-106.991	116.236	0.271	-0.327
-105.976	-140.613	0.258	0.026
-104.962	800.000	-0.013	-0.051
-103.947	10.048	-0.249	-0.186
-102.932	672.422	0.057	0.146
-101.918	-39.663	0.209	0.107
-100.903	-71.642	-0.231	0.085
-99.889	56.039	0.137	0.130
-98.874	-29.527	-0.054	-0.031
-97.859	286.560	-0.016	-0.029
-96.845	-112.122	-0.385	0.076
-95.830	42.954	0.488	-0.437
-94.816	3.868	0.294	0.211
-93.801	87.673	0.140	0.153
-92.786	108.165	-0.237	-0.278
-91.772	-107.417	0.311	0.067
-90.757	-187.409	-0.210	0.003
-89.743	-121.635	0.114	0.019
-88.728	-101.108	0.360	0.087
-87.713	-37.522	0.360	0.188
-86.699	20.173	0.122	0.097
-85.684	-37.802	0.091	-0.048
-84.670	-24.623	0.137	0.080
-83.655	800.000	-0.026	0.110
-82.640	58.594	0.047	-0.045
-81.626	16.985	-0.146	0.113
-80.611	-75.145	0.208	-0.073
-79.597	-124.252	-0.120	0.018
-78.582	-200.000	-0.002	0.101
-77.567	-200.000	-0.063	-0.470
-76.553	-150.270	-0.089	-0.007
-75.538	-29.911	-0.197	-0.110
-74.524	-74.395	0.178	0.063
-73.509	-160.482	-0.137	0.007
-72.494	-89.298	-0.231	-0.067
-71.480	-200.000	0.023	0.108
-70.465	-10.966	0.091	0.059
-69.451	-79.653	-0.173	-0.057
-68.436	-82.135	-0.345	-0.111
-67.422	-95.430	0.290	0.076
-66.407	-200.000	-0.019	-0.089
-65.392	67.571	-0.253	-0.254
-64.378	-200.000	-0.020	0.088
-63.363	-113.356	-0.114	0.022
-62.349	666.802	0.104	-0.264
-61.334	136.306	-0.763	-0.977
-60.319	800.000	0.187	0.792
-59.305	-200.000	-0.163	-1.069
-58.290	224.434	0.642	1.019
-57.276	800.000	0.650	1.978
-56.261	-200.000	99.559	575.262
-55.246	505.152	1407.860	3198.452
-54.232	158.759	2577.876	3512.021
-53.217	109.707	2150.202	2528.310
-52.203	41.825	1688.924	1501.868
-51.188	34.680	1500.613	1286.451
-50.173	32.210	1474.255	1247.430
-49.159	51.953	1525.891	1424.979
-48.144	53.236	1544.357	1450.844
-47.130	34.760	1502.156	1288.109
-46.115	31.729	1487.275	1255.030
-45.100	31.514	1483.774	1250.585
-44.086	31.475	1481.818	1248.629
-43.071	31.492	1479.810	1246.996
-42.057	31.389	1478.649	1245.282
-41.042	31.425	1477.047	1244.124
-40.027	31.378	1475.949	1242.838
-39.013	31.352	1474.093	1241.050
-37.998	31.381	1473.290	1240.520
-36.984	31.377	1471.665	1239.080
-35.969	31.492	1470.051	1238.431
-34.954	31.467	1468.960	1237.296
-33.940	31.396	1467.815	1235.811
-32.925	31.394	1466.746	1234.850
-31.911	31.423	1465.263	1233.744
-30.896	31.538	1463.620	1233.068
-29.881	31.594	1462.199	1232.192
-28.867	31.482	1461.030	1230.423
-27.852	31.399	1460.519	1229.399
-26.838	31.495	1458.505	1228.286
-25.823	31.559	1456.948	1227.345
-24.809	31.600	1455.474	1226.325
-23.794	31.494	1454.222	1224.523
-22.779	31.481	1453.089	1223.436
-21.765	31.521	1452.050	1222.774
-20.750	31.479	1450.655	1221.280
-19.736	31.504	1449.813	1220.683
-18.721	31.389	1448.355	1218.659
-17.706	31.461	1447.387	1218.265
-16.692	31.493	1446.602	1217.764
-15.677	31.455	1445.280	1216.353
-14.663	31.441	1444.340	1215.422
-13.648	31.408	1443.582	1214.523
-12.633	31.471	1442.345	1213.843
-11.619	31.448	1441.941	1213.308
-10.604	31.533	1440.552	1212.640
-9.590	31.479	1439.949	1211.737
-8.575	31.382	1439.444	1210.632
-7.560	31.385	1438.417	1209.739
-6.546	31.482	1437.382	1209.452
-5.531	31.387	1436.833	1208.325
-4.517	31.369	1435.912	1207.388
-3.502	31.433	1434.934	1206.928
-2.487	31.430	1433.609	1205.747
-1.473	31.441	1432.467	1204.809
-0.458	31.444	1430.818	1203.394
0.556	29.227	1421.050	1190.548
1.571	25.671	1395.913	1146.769
2.586	21.636	1334.922	1071.921
3.600	19.577	1254.406	995.327
4.615	18.491	1209.133	953.285
5.629	17.242	1156.342	904.933
6.644	12.760	1079.748	822.584
7.659	8.848	1043.309	775.850
8.673	8.271	1037.998	769.053
9.688	8.076	1035.271	766.026
10.702	8.014	1033.326	764.220
11.717	8.179	1031.422	763.535
12.731	9.799	1032.320	771.888
13.746	14.114	1038.217	796.947
14.761	17.376	1041.652	815.172
15.775	17.489	1041.685	815.669
16.790	16.681	1039.540	810.049
17.804	15.536	1037.610	803.005
18.819	14.701	1035.500	797.314
19.834	14.225	1033.860	793.711
20.848	13.925	1032.597	791.244
21.863	13.768	1032.105	790.048
22.877	13.524	1031.264	788.173
23.892	13.351	1030.442	786.652
24.907	13.249	1029.921	785.699
25.921	13.334	1028.766	785.152
26.936	13.236	1028.156	784.154
27.950	13.353	1027.191	783.903
28.965	13.349	1026.369	783.190
29.980	13.425	1024.571	782.104
30.994	13.571	1023.455	781.874
32.009	13.580	1022.827	781.367
33.023	13.426	1022.920	780.641
34.038	13.605	1021.627	780.429
35.053	13.449	1020.917	779.083
36.067	13.582	1019.229	778.351
37.082	13.465	1018.313	777.034
38.096	13.459	1017.917	776.637
39.111	13.422	1017.061	775.740
40.126	13.481	1016.205	775.297
41.140	13.395	1015.139	774.010
42.155	13.462	1013.869	773.286
43.169	13.355	1012.661	771.800
44.184	13.223	1011.671	770.363
45.199	13.160	1011.117	769.578
46.213	13.252	1010.470	769.446
47.228	13.383	1009.143	768.977
48.242	13.383	1008.042	768.068
49.257	13.359	1007.567	767.528
50.271	13.429	1006.342	766.850
51.286	13.433	1005.549	766.198
52.301	13.390	1004.904	765.440
53.315	13.421	1004.313	765.061
54.330	13.278	1003.077	763.394
55.344	13.216	1002.769	762.805
56.359	13.259	1001.113	761.676
57.374	13.374	1000.273	761.498
58.388	13.360	999.794	761.004
59.403	13.097	998.864	759.019
60.417	13.171	997.977	758.619
61.432	13.100	997.735	758.041
62.447	13.262	996.433	757.727
63.461	13.141	995.771	756.605
64.476	13.138	995.174	756.070
65.490	13.217	993.604	755.170
66.505	13.154	993.448	754.697
67.520	13.156	992.788	754.139
68.534	13.095	992.140	753.302
69.549	13.095	991.437	752.701
70.563	13.142	990.738	752.317
71.578	13.138	989.813	751.530
72.593	13.189	989.013	751.088
73.607	13.007	988.395	749.723
74.622	13.019	987.040	748.688
75.636	13.092	985.923	748.101
76.651	12.990	985.406	747.183
77.666	13.076	984.647	746.930
78.680	13.049	984.030	746.274
79.695	13.174	983.718	746.538
80.709	13.151	982.803	745.670
81.724	13.179	981.805	744.976
82.739	13.217	981.455	744.815
83.753	13.324	980.619	744.596
84.768	13.332	979.913	744.032
85.782	13.538	979.155	744.313
86.797	13.493	978.369	743.450
87.812	13.479	977.534	742.684
88.826	13.418	976.923	741.880
89.841	13.251	976.465	740.722
90.855	13.397	975.216	740.363
91.870	13.493	974.417	740.119
92.884	13.411	974.304	739.601
93.899	13.495	973.229	739.095
94.914	13.588	972.363	738.787
95.928	13.548	971.955	738.234
96.943	13.565	971.046	737.549
97.957	13.621	970.261	737.139
98.972	13.490	969.316	735.772
99.987	13.521	968.782	735.440
101.001	13.440	968.036	734.449
102.016	13.483	967.279	734.002
103.030	13.396	966.469	732.936
104.045	13.486	965.172	732.285
105.060	13.444	964.522	731.544
106.074	13.381	963.537	730.451
107.089	13.400	962.176	729.442
108.103	13.264	961.484	728.254
109.118	13.339	960.305	727.625
110.133	13.280	959.729	726.863
111.147	13.223	958.946	725.957
112.162	13.306	957.863	725.436
113.176	13.311	957.115	724.829
114.191	13.425	956.071	724.471
115.206	13.317	955.458	723.472
116.220	13.213	954.862	722.503
117.235	13.170	954.375	721.881
118.249	13.340	953.764	722.099
119.264	13.393	952.561	721.354
120.279	13.286	951.598	720.097
121.293	13.272	951.021	719.534
122.308	13.205	949.641	718.136
123.322	13.376	948.815	718.191
124.337	13.181	948.205	716.817
125.352	13.131	947.312	715.863
126.366	13.291	946.226	715.671
127.381	13.173	945.500	714.549
128.395	13.213	944.469	713.880
129.410	13.195	943.402	712.931
130.424	13.309	942.526	712.698
131.439	13.290	942.095	712.228
132.454	13.247	941.284	711.364
133.468	13.429	940.433	711.441
134.483	13.406	939.695	710.721
135.497	13.356	939.191	710.063
136.512	13.427	938.094	709.474
137.527	13.358	937.492	708.662
138.541	13.347	936.585	707.865
139.556	13.414	935.601	707.347
140.570	13.315	935.700	706.935
141.585	13.407	935.173	706.866
142.600	13.527	934.133	706.533
143.614	13.422	933.205	705.321
144.629	13.491	932.405	704.946
145.643	13.672	931.698	705.119
146.658	13.598	931.567	704.641
147.673	13.506	930.083	703.068
148.687	13.462	929.408	702.309
149.702	13.390	928.424	701.199
150.716	13.409	927.403	700.446
151.731	13.490	926.738	700.224
152.746	13.380	926.064	699.189
153.760	13.473	925.199	698.867
154.775	13.414	924.576	698.085
155.789	13.551	923.821	698.031
156.804	13.589	923.126	697.603
157.819	13.564	922.372	696.863
158.833	13.621	921.687	696.526
159.848	13.711	921.305	696.553
160.862	13.725	920.590	696.009
161.877	13.637	919.674	694.889
162.892	13.535	919.114	693.976
163.906	13.601	917.857	693.239
164.921	13.543	917.330	692.538
165.935	13.558	916.187	691.679
166.950	13.571	915.088	690.840
167.964	13.598	914.322	690.314
168.979	13.654	913.520	689.882
169.994	13.465	912.835	688.514
171.008	13.631	911.622	688.230
172.023	13.704	911.019	688.015
173.037	13.661	910.181	687.144
174.052	13.646	909.927	686.828
175.067	13.698	909.039	686.313
176.081	13.692	908.120	685.533
177.096	13.578	907.688	684.675
178.110	13.610	906.607	683.934
179.125	13.568	905.537	682.891
180.140	13.602	904.950	682.529
181.154	13.571	904.594	682.071
182.169	13.694	904.240	682.251
183.183	13.766	903.309	681.783
184.198	13.785	902.721	681.358
185.213	13.814	902.177	681.006
186.227	13.883	901.619	680.806
187.242	13.846	900.764	679.952
188.256	13.876	900.395	679.733
189.271	14.056	899.404	679.663
190.286	14.024	898.732	678.962
191.300	13.833	898.257	677.765
192.315	13.622	897.617	676.362
193.329	13.621	896.497	675.452
194.344	13.578	896.134	674.945
195.359	13.777	895.433	675.167
196.373	13.777	894.970	674.760
197.388	13.883	894.144	674.508
198.402	13.963	893.892	674.579
199.417	14.016	893.530	674.465
200.432	14.106	893.282	674.579
201.446	14.089	892.810	674.097
202.461	14.187	892.338	674.076
203.475	14.162	891.940	673.615
204.490	14.128	891.260	672.907
205.504	14.266	889.605	672.154
206.519	14.187	889.255	671.509
207.534	14.008	888.840	670.418
208.548	14.106	887.781	669.952
209.563	14.139	887.187	669.579
210.577	14.136	886.507	668.993
211.592	14.108	885.999	668.439
212.607	14.314	885.754	669.024
213.621	14.330	885.193	668.605
214.636	14.127	884.316	667.067
215.650	14.317	883.385	667.068
216.665	14.351	882.886	666.767
217.680	14.279	882.721	666.295
218.694	14.188	882.487	665.699
219.709	14.379	881.712	665.815
220.723	14.285	881.121	664.938
221.738	14.472	880.151	664.889
222.753	14.303	879.600	663.744
223.767	14.398	878.927	663.554
224.782	14.407	877.828	662.700
225.796	14.437	877.708	662.673
226.811	14.505	876.571	662.026
227.826	14.480	876.033	661.460
228.840	14.452	875.335	660.766
229.855	14.364	875.273	660.310
230.869	14.381	874.227	659.528
231.884	14.339	874.004	659.138
232.899	14.327	872.786	658.113
233.913	14.425	872.111	657.930
234.928	14.519	871.227	657.578
235.942	14.388	870.886	656.747
236.957	14.309	870.347	655.971
237.972	14.309	869.785	655.487
238.986	14.373	869.188	655.234
240.001	14.270	868.463	654.223
241.015	14.534	867.037	654.127
242.030	14.485	866.962	653.819
243.045	14.555	866.236	653.489
244.059	14.544	865.773	653.037
245.074	14.404	865.492	652.221
246.088	14.508	864.423	651.765
247.103	14.646	863.753	651.739
248.117	14.643	863.201	651.255
249.132	14.644	863.032	651.074
250.147	14.642	862.662	650.729
251.161	14.813	861.897	650.762
252.176	14.888	861.143	650.424
253.190	14.931	860.267	649.873
254.205	15.062	859.615	649.830
255.220	14.951	859.252	649.070
256.234	14.953	858.512	648.461
257.249	14.958	858.406	648.343
258.263	14.941	857.723	647.702
259.278	14.926	857.130	647.141
260.293	15.049	856.462	647.054
261.307	15.126	855.894	646.866
262.322	15.141	855.515	646.580
263.336	15.123	854.703	645.839
264.351	15.160	853.825	645.261
265.366	15.203	853.515	645.136
266.380	15.249	852.857	644.758
267.395	15.227	852.160	644.090
268.409	15.255	851.252	643.453
269.424	15.041	850.568	642.059
270.439	15.138	850.012	641.952
271.453	15.266	848.983	641.611
272.468	15.146	848.993	641.099
273.482	15.167	848.305	640.603
274.497	15.153	847.522	639.905
275.512	15.043	847.021	639.047
276.526	15.203	845.993	638.828
277.541	15.175	845.622	638.385
278.555	15.063	845.260	637.628
279.570	15.301	844.478	637.884
280.585	15.344	844.177	637.764
281.599	15.295	843.702	637.163
282.614	15.359	843.044	636.853
283.628	15.306	842.004	635.811
284.643	15.370	841.276	635.447
285.657	15.332	841.334	635.293
286.672	15.415	840.519	634.934
287.687	15.389	840.196	634.534
288.701	15.334	839.491	633.740
289.716	15.495	838.526	633.562
290.730	15.416	838.240	632.990
291.745	15.417	837.892	632.675
292.760	15.703	836.721	632.813
293.774	15.404	836.575	631.522
294.789	15.438	836.467	631.512
295.803	15.443	835.820	630.987
296.818	15.321	835.217	630.017
297.833	15.503	833.996	629.723
298.847	15.569	833.246	629.346
299.862	15.506	833.017	628.885
300.876	15.639	831.989	628.551
301.891	15.608	831.671	628.137
302.906	15.683	831.126	627.950
303.920	15.727	830.491	627.578
304.935	15.809	829.799	627.305
305.949	15.852	829.258	627.002
306.964	15.853	828.319	626.242
307.979	15.702	828.171	625.513
308.993	15.774	827.695	625.366
310.008	15.803	827.138	624.994
311.022	15.914	826.501	624.869
312.037	15.867	826.041	624.294
313.052	15.828	825.753	623.875
314.066	15.769	824.568	622.706
315.081	15.739	824.144	622.221
316.095	15.737	823.579	621.733
317.110	15.628	823.380	621.126
318.125	15.720	822.673	620.876
319.139	15.747	822.411	620.723
320.154	15.744	821.754	620.160
321.168	15.740	821.531	619.923
322.183	15.754	820.730	619.313
323.197	15.866	820.105	619.199
324.212	15.821	819.614	618.610
325.227	15.969	819.205	618.791
326.241	15.726	818.896	617.608
327.256	15.921	818.032	617.618
328.270	15.997	817.440	617.395
329.285	15.869	816.745	616.347
330.300	15.848	816.584	616.094
331.314	15.929	816.052	615.934
332.329	15.922	815.277	615.270
333.343	16.019	814.432	614.933
334.358	16.073	813.893	614.667
335.373	16.065	813.451	614.251
336.387	16.013	813.044	613.698
337.402	16.098	812.835	613.796
338.416	16.153	811.853	613.198
339.431	16.175	811.051	612.620
340.446	16.176	811.013	612.539
341.460	16.191	810.744	612.337
342.475	16.310	809.739	611.955
343.489	16.356	809.133	611.609
344.504	16.414	808.928	611.612
345.519	16.314	808.285	610.710
346.533	16.510	807.835	611.024
347.548	16.419	807.342	610.266
348.562	16.318	806.900	609.514
349.577	16.213	806.156	608.522
350.592	16.255	805.802	608.351
351.606	16.262	805.247	607.905
352.621	16.298	804.480	607.398
353.635	16.105	804.736	606.843
354.650	16.302	803.604	606.647
355.665	16.313	803.910	606.863
356.679	16.364	803.217	606.467
357.694	16.347	802.769	606.016
358.708	16.402	802.099	605.652
359.723	16.306	801.482	604.789
360.738	16.455	801.012	604.916
361.752	16.409	800.696	604.459
362.767	16.391	800.293	604.035
363.781	16.470	799.986	604.035
364.796	16.576	799.058	603.657
365.810	16.578	798.910	603.500
366.825	16.761	798.059	603.454
367.840	16.616	798.419	603.158
368.854	16.664	797.699	602.732
369.869	16.632	797.115	602.122
370.883	16.583	796.762	601.630
371.898	16.598	796.104	601.130
372.913	16.694	795.197	600.732
373.927	16.648	795.051	600.408
374.942	16.726	794.493	600.211
375.956	16.778	793.729	599.763
376.971	16.766	793.334	599.368
377.986	16.795	792.587	598.855
379.000	16.858	792.210	598.739
380.015	16.955	791.539	598.520
381.029	16.885	791.266	598.017
382.044	16.808	790.781	597.326
383.059	17.042	789.982	597.493
384.073	16.897	789.515	596.574
385.088	17.029	789.240	596.780
386.102	16.924	788.727	595.971
387.117	16.939	787.936	595.372
388.132	16.840	787.713	594.803
389.146	16.830	787.311	594.412
390.161	16.831	787.257	594.323
391.175	16.921	786.845	594.272
392.190	17.096	785.975	594.177
393.205	16.914	785.910	593.439
394.219	16.970	785.067	592.943
395.234	16.992	784.619	592.631
396.248	17.027	783.934	592.184
397.263	16.884	783.603	591.382
398.278	16.976	783.027	591.217
399.292	16.917	782.705	590.714
400.307	16.823	782.429	590.125
401.321	17.032	781.904	590.407
402.336	17.035	781.420	589.999
403.350	16.962	781.147	589.486
404.365	17.021	780.886	589.440
405.380	16.803	780.498	588.340
406.394	17.134	779.904	588.988
407.409	17.197	779.624	588.943
408.423	17.320	778.800	588.695
409.438	17.300	778.675	588.477
410.453	17.285	777.976	587.848
411.467	17.407	777.577	587.914
412.482	17.463	777.102	587.698
413.496	17.400	776.821	587.214
414.511	17.344	776.649	586.838
415.526	17.442	775.855	586.524
416.540	17.381	775.792	586.216
417.555	17.452	775.112	585.895
418.569	17.321	774.597	585.002
419.584	17.638	774.186	585.732
420.599	17.656	773.477	585.203
421.613	108.807	1287.964	1464.113
422.628	92.921	1362.886	1464.220
