DTS Sentinel unit serial number:	SN413079Multiplexer serial number:	ORYXHardware model number:	OX4-SRSoftware version number:	ORYX F/W v4.00 Oryx Data Collector v3.7.2.0data status	okinstallation	princeton_trtdifferential loss correction	single-endedforward channel	channel 3reverse channel	N/Adate	2019/09/12time	18:04:04forward acquisition time	15.00reverse acquisition time	0.00gamma	496.2192k internal	0.2316k external	0.2316temperature offset calibration	1.0092default loss term (dB/km)	0.3790temperature slope calibration	1.0000multiplexer offset coefficient	1.0000multiplexer slope coefficient	1.0000fibre end	0.00T internal ref (°C)	33.75T ext. ref 1 (°C)	3.00T ext. ref 2 (°C)	28.19length (m)	temperature (°C)	Stokes	anti-Stokes-747.200	-127.434	-1.191	0.175
-746.185	282.082	-0.570	1.035
-745.171	105.731	0.262	0.314
-744.156	-128.666	0.810	-0.116
-743.142	723.917	0.028	-0.075
-742.127	14.220	-0.760	-0.600
-741.112	-108.904	0.346	0.075
-740.098	151.170	0.462	0.636
-739.083	140.262	0.260	-0.348
-738.069	1.279	0.369	-0.269
-737.054	-200.000	0.038	-0.677
-736.039	444.279	-0.108	0.239
-735.025	123.839	0.726	0.923
-734.010	183.168	0.070	0.104
-732.996	-11.132	0.278	0.186
-731.981	-117.492	-0.728	-0.133
-730.966	-21.255	0.791	-0.489
-729.952	242.275	-0.186	-0.315
-728.937	68.158	0.185	0.192
-727.923	-200.000	0.001	-0.084
-726.908	-146.361	-0.388	0.034
-725.894	15.102	-0.396	-0.314
-724.879	83.488	-0.227	-0.251
-723.864	245.671	0.215	-0.367
-722.850	-29.058	-0.699	-0.406
-721.835	27.952	-0.214	0.183
-720.821	800.000	-0.339	1.058
-719.806	-149.488	-1.188	0.095
-718.791	406.989	-0.361	-0.771
-717.777	-155.133	0.617	0.041
-716.762	-86.665	0.755	-0.234
-715.748	218.239	0.437	0.706
-714.733	-57.861	-0.419	-0.185
-713.718	-111.841	-0.187	-0.038
-712.704	-39.444	-0.572	0.303
-711.689	134.120	-0.068	0.089
-710.675	52.320	0.300	-0.289
-709.660	607.742	-0.209	0.526
-708.645	-200.000	0.133	0.000
-707.631	-58.053	-0.464	0.205
-706.616	11.717	-1.014	-0.787
-705.602	-124.739	-0.802	0.126
-704.587	99.580	0.235	-0.276
-703.572	-2.202	-0.440	-0.312
-702.558	-0.309	0.435	-0.312
-701.543	-200.000	0.003	-0.053
-700.529	-200.000	-0.108	0.879
-699.514	800.000	0.182	-0.678
-698.499	-83.203	-0.549	0.179
-697.485	-200.000	0.019	-0.681
-696.470	-44.933	-0.547	0.276
-695.456	14.518	0.272	-0.215
-694.441	17.941	0.515	0.415
-693.426	-54.788	-0.250	0.114
-692.412	186.442	-0.234	-0.353
-691.397	86.382	-0.243	-0.270
-690.383	78.204	-0.080	0.086
-689.368	-74.066	0.423	-0.155
-688.354	268.816	-0.250	-0.443
-687.339	304.295	-0.228	-0.428
-686.324	366.584	0.426	0.869
-685.310	9.324	-0.173	0.132
-684.295	33.690	-0.551	-0.484
-683.281	-140.962	-0.064	-0.007
-682.266	44.458	0.678	-0.629
-681.251	6.484	0.321	-0.241
-680.237	-151.340	-0.195	0.015
-679.222	119.390	-0.458	0.572
-678.208	-200.000	0.058	0.619
-677.193	590.260	0.181	0.450
-676.178	199.109	-0.294	-0.455
-675.164	-200.000	-0.032	-0.321
-674.149	142.632	-0.453	0.608
-673.135	-129.151	0.190	-0.027
-672.120	40.875	0.563	0.513
-671.105	-87.616	-0.388	0.118
-670.091	786.706	-0.317	-0.877
-669.076	392.912	-0.361	0.758
-668.062	-166.613	0.448	0.019
-667.047	98.763	-0.363	-0.423
-666.032	36.081	-0.525	-0.467
-665.018	-200.000	-0.097	0.927
-664.003	664.143	0.324	0.845
-662.989	256.784	0.348	0.604
-661.974	800.000	-0.053	0.232
-660.959	-146.642	0.705	0.062
-659.945	-142.777	-0.349	-0.034
-658.930	-116.888	0.656	0.121
-657.916	14.352	-0.953	-0.750
-656.901	-140.167	-0.899	-0.095
-655.886	-31.012	-0.583	0.332
-654.872	800.000	-0.081	-0.354
-653.857	30.978	-0.663	0.574
-652.843	21.757	-0.345	0.283
-651.828	23.935	-0.756	-0.629
-650.814	55.345	0.460	-0.450
-649.799	-51.926	0.400	-0.188
-648.784	21.494	-0.538	-0.442
-647.770	-152.011	-0.966	-0.071
-646.755	-165.709	-0.681	0.030
-645.741	-200.000	-0.036	-0.385
-644.726	-200.000	0.068	-0.794
-643.711	236.187	0.194	-0.324
-642.697	33.046	0.579	0.506
-641.682	-200.000	0.171	0.813
-640.668	615.208	-0.316	-0.799
-639.653	-142.382	0.668	-0.066
-638.638	-125.151	-0.660	0.102
-637.624	-58.153	-0.432	0.190
-636.609	-118.599	-0.652	-0.116
-635.595	3.851	0.370	-0.273
-634.580	-200.000	0.058	-0.667
-633.565	564.820	-0.211	0.517
-632.551	371.590	0.107	0.219
-631.536	-56.512	-0.498	-0.223
-630.522	-33.058	-0.466	-0.261
-629.507	-200.000	-0.051	0.455
-628.492	-46.453	-0.971	0.481
-627.478	-200.000	0.002	0.529
-626.463	-130.076	0.220	0.030
-625.449	-88.847	0.708	0.212
-624.434	-13.438	-0.412	0.270
-623.419	-41.942	0.380	-0.196
-622.405	153.677	0.316	-0.437
-621.390	177.743	0.407	-0.598
-620.376	279.033	-0.248	0.447
-619.361	62.834	-0.163	-0.165
-618.346	-88.479	-0.800	0.241
-617.332	-74.728	0.661	0.240
-616.317	-93.596	-0.579	-0.161
-615.303	-61.601	0.818	0.346
-614.288	800.000	-0.078	0.268
-613.273	-137.271	-0.488	-0.056
-612.259	-38.763	-0.658	0.350
-611.244	-200.000	-0.075	0.932
-610.230	629.670	-0.366	-0.933
-609.215	782.828	0.162	0.447
-608.201	-34.280	0.366	-0.202
-607.186	6.700	0.327	-0.245
-606.171	-65.717	-0.324	-0.131
-605.157	-200.000	-0.003	-0.587
-604.142	-200.000	0.108	-1.244
-603.128	130.585	0.607	-0.784
-602.113	-200.000	0.014	0.171
-601.098	-200.000	-0.086	0.578
-600.084	800.000	0.172	0.699
-599.069	104.896	0.678	-0.806
-598.055	-163.964	0.640	0.030
-597.040	-89.903	0.311	-0.091
-596.025	-200.000	0.012	0.256
-595.011	-107.576	-0.377	-0.083
-593.996	37.966	1.141	-1.021
-592.982	-52.710	-0.702	0.326
-591.967	-77.899	1.270	0.441
-590.952	-94.282	0.551	0.152
-589.938	209.790	-0.060	0.095
-588.923	-125.568	0.147	0.022
-587.909	301.404	0.584	-1.086
-586.894	-79.455	-0.203	-0.069
-585.879	39.469	0.560	-0.505
-584.865	800.000	-0.041	-0.156
-583.850	56.534	0.442	-0.432
-582.836	-60.588	0.553	0.236
-581.821	349.427	0.181	-0.360
-580.806	245.915	0.368	-0.624
-579.792	-47.557	0.312	-0.152
-578.777	200.351	-0.580	-0.897
-577.763	-68.689	-0.449	0.175
-576.748	-35.543	0.239	-0.131
-575.733	-200.000	-0.011	0.898
-574.719	-192.561	-0.298	0.003
-573.704	-200.000	0.020	0.126
-572.690	-73.248	-0.354	0.130
-571.675	-200.000	0.026	-0.306
-570.661	-61.398	-0.208	0.088
-569.646	604.798	0.052	0.131
-568.631	-85.029	-0.762	-0.240
-567.617	302.136	-0.084	-0.157
-566.602	-81.035	0.152	0.051
-565.588	-99.960	-0.268	-0.067
-564.573	-114.439	-0.292	-0.057
-563.558	-68.672	-0.338	0.132
-562.544	176.846	0.393	0.575
-561.529	109.035	0.196	0.235
-560.515	800.000	-0.246	0.707
-559.500	-102.326	0.147	-0.036
-558.485	173.896	-0.162	-0.235
-557.471	-46.968	0.730	-0.358
-556.456	-117.091	-0.592	-0.108
-555.442	-46.905	0.740	0.364
-554.427	-114.436	0.322	0.062
-553.412	800.000	-0.226	-0.982
-552.398	-200.000	0.016	0.445
-551.383	464.096	0.365	0.820
-550.369	180.692	0.417	-0.615
-549.354	-200.000	-0.052	0.725
-548.339	48.844	-0.506	0.478
-547.325	-23.107	1.207	-0.731
-546.310	-200.000	0.081	-0.586
-545.296	-200.000	-0.003	-0.305
-544.281	63.496	0.139	0.141
-543.266	-180.722	0.625	-0.013
-542.252	-20.416	0.290	0.179
-541.237	-96.572	0.668	-0.177
-540.223	-114.857	-0.257	-0.049
-539.208	186.889	-0.400	0.599
-538.193	88.552	-0.435	0.486
-537.179	-184.414	0.242	0.004
-536.164	111.597	0.196	0.237
-535.150	-118.380	-0.135	0.024
-534.135	34.132	-0.187	-0.163
-533.121	-200.000	0.029	-0.377
-532.106	-125.270	-0.284	-0.044
-531.091	147.426	-0.407	-0.550
-530.077	-5.218	0.137	-0.094
-529.062	-40.190	0.936	-0.489
-528.048	256.569	-0.318	-0.549
-527.033	-200.000	-0.194	0.888
-526.018	-104.316	0.263	0.061
-525.004	-108.801	-1.070	-0.230
-523.989	800.000	-0.259	-0.925
-522.975	-200.000	0.086	0.713
-521.960	472.664	0.063	0.143
-520.945	-200.000	0.037	0.233
-519.931	-200.000	-0.021	0.739
-518.916	23.479	0.584	-0.482
-517.902	-56.235	0.723	-0.323
-516.887	-167.402	-0.375	0.015
-515.872	-82.433	0.684	0.223
-514.858	497.118	0.196	-0.453
-513.843	-80.206	0.423	-0.142
-512.829	-103.821	-0.238	-0.056
-511.814	800.000	0.272	0.920
-510.799	8.005	0.372	0.280
-509.785	-200.000	-0.004	0.566
-508.770	800.000	0.149	-0.450
-507.756	-94.188	-0.504	-0.138
-506.741	-77.590	0.961	-0.334
-505.726	159.371	0.371	-0.517
-504.712	278.870	0.278	-0.498
-503.697	-140.092	-0.516	-0.054
-502.683	375.614	0.233	-0.477
-501.668	-125.103	0.987	-0.152
-500.653	414.528	-0.087	-0.185
-499.639	130.524	0.536	0.689
-498.624	22.700	0.736	0.604
-497.610	93.897	0.305	-0.347
-496.595	-80.474	-0.333	-0.111
-495.581	131.130	-0.416	-0.536
-494.566	-200.000	0.150	0.719
-493.551	800.000	0.168	-0.625
-492.537	7.554	-0.653	-0.490
-491.522	-47.485	0.436	0.213
-490.508	404.080	-0.046	-0.097
-489.493	-75.272	0.689	-0.247
-488.478	-103.138	-0.347	0.082
-487.464	400.542	-0.104	-0.219
-486.449	-1.269	0.678	-0.480
-485.435	-112.576	-0.686	0.137
-484.420	-110.989	1.188	0.245
-483.405	251.668	-0.336	-0.574
-482.391	-92.129	-0.807	-0.229
-481.376	-119.410	0.426	-0.074
-480.362	-102.328	-0.982	0.236
-479.347	-200.000	-0.194	-1.045
-478.332	609.302	-0.373	-0.934
-477.318	-200.000	-0.002	-0.214
-476.303	-200.000	-0.019	-0.542
-475.289	231.208	0.264	0.433
-474.274	-46.072	0.406	0.200
-473.259	36.114	0.430	-0.379
-472.245	-200.000	-0.109	-0.630
-471.230	395.111	0.251	0.524
-470.216	128.587	-0.051	0.065
-469.201	800.000	-0.106	-0.426
-468.186	5.802	0.267	-0.198
-467.172	-77.693	-0.719	0.249
-466.157	-136.505	-0.388	-0.045
-465.143	79.882	-0.366	0.394
-464.128	-160.333	-0.143	-0.008
-463.113	29.001	0.336	0.286
-462.099	-200.000	-0.068	0.656
-461.084	-150.512	-0.235	0.018
-460.070	-71.028	1.473	-0.555
-459.055	-115.673	0.196	-0.037
-458.040	30.652	-0.289	0.247
-457.026	-127.183	-0.976	-0.143
-456.011	-200.000	0.030	-0.425
-454.997	-138.377	-0.611	0.067
-453.982	647.943	-0.145	-0.372
-452.968	544.063	-0.142	0.340
-451.953	800.000	0.245	-0.694
-450.938	-191.101	-0.762	-0.008
-449.924	42.551	-0.348	0.317
-448.909	208.649	0.094	-0.147
-447.895	800.000	-0.230	0.644
-446.880	800.000	0.032	0.119
-445.865	-200.000	-0.017	-0.230
-444.851	553.155	0.248	-0.598
-443.836	-20.640	0.354	-0.218
-442.822	800.000	-0.218	-0.611
-441.807	-83.805	-0.457	-0.146
-440.792	608.473	0.063	-0.159
-439.778	-200.000	-0.065	0.449
-438.763	-39.819	-0.835	-0.437
-437.749	-200.000	-0.082	-0.635
-436.734	-164.610	-0.815	0.037
-435.719	800.000	0.085	-0.235
-434.705	800.000	0.134	-0.382
-433.690	51.583	-0.319	0.304
-432.676	141.455	0.270	0.358
-431.661	-105.450	-0.601	-0.137
-430.646	800.000	-0.170	0.478
-429.632	-145.046	-0.405	0.037
-428.617	30.385	0.454	0.388
-427.603	509.488	0.176	0.410
-426.588	103.896	-0.157	0.184
-425.573	-200.000	-0.010	0.670
-424.559	-34.899	-0.467	0.255
-423.544	-52.029	0.422	-0.196
-422.530	-90.293	-0.257	-0.075
-421.515	-200.000	0.508	0.002
-420.500	733.255	0.274	-0.732
-419.486	-200.000	0.015	0.089
-418.471	412.716	-0.246	-0.522
-417.457	510.212	-0.407	0.946
-416.442	270.530	0.205	-0.361
-415.428	-200.000	-0.021	0.532
-414.413	312.920	-0.246	-0.463
-413.398	-99.517	-0.354	0.089
-412.384	-90.100	-0.209	-0.061
-411.369	51.758	-0.594	-0.565
-410.355	800.000	-0.111	0.483
-409.340	-15.494	-0.330	-0.211
-408.325	-87.838	-0.728	-0.219
-407.311	72.411	0.148	-0.155
-406.296	-92.839	-0.357	0.100
-405.282	-200.000	0.057	-0.287
-404.267	188.316	-0.045	0.067
-403.252	800.000	-0.102	0.359
-402.238	66.319	-0.362	-0.367
-401.223	158.260	-0.237	-0.329
-400.209	-88.262	-0.706	-0.211
-399.194	-200.000	-0.071	0.442
-398.179	413.783	0.374	0.796
-397.165	35.524	0.232	0.203
-396.150	-127.788	-0.182	0.026
-395.136	-48.293	-0.590	0.284
-394.121	311.716	0.230	-0.430
-393.106	800.000	0.129	-0.519
-392.092	-200.000	-0.112	0.852
-391.077	-200.000	0.030	-0.937
-390.063	31.457	0.794	-0.681
-389.048	394.082	-0.267	0.556
-388.033	-74.419	-0.428	-0.154
-387.019	-200.000	0.211	1.018
-386.004	-56.451	-0.144	0.064
-384.990	77.022	-0.362	0.384
-383.975	399.470	0.194	0.405
-382.960	-98.007	-0.403	0.104
-381.946	-30.413	0.523	-0.296
-380.931	745.680	0.092	0.247
-379.917	-84.852	0.264	-0.083
-378.902	800.000	0.229	0.631
-377.888	800.000	0.262	-0.766
-376.873	-77.489	-0.525	-0.182
-375.858	-200.000	0.064	0.306
-374.844	-69.563	0.279	-0.107
-373.829	34.636	-0.572	0.499
-372.815	-162.611	0.411	-0.020
-371.800	-145.682	-0.573	-0.051
-370.785	-200.000	0.094	-0.950
-369.771	-82.921	0.460	0.148
-368.756	728.081	-0.043	0.115
-367.742	-76.157	0.468	-0.165
-366.727	332.079	-0.225	-0.433
-365.712	800.000	-0.190	-0.586
-364.698	800.000	0.195	-0.800
-363.683	66.475	-0.461	0.467
-362.669	800.000	-0.185	0.666
-361.654	-200.000	-0.051	-0.419
-360.639	800.000	0.292	0.980
-359.625	653.420	0.042	0.108
-358.610	-52.716	-0.514	0.237
-357.596	-154.609	0.320	0.021
-356.581	-200.000	-0.051	-0.943
-355.566	-115.045	0.828	-0.157
-354.552	-200.000	-0.142	0.822
-353.537	-123.678	1.219	-0.193
-352.523	-200.000	0.042	0.356
-351.508	800.000	-0.065	-0.194
-350.493	248.114	0.265	0.447
-349.479	-200.000	-0.045	-0.251
-348.464	-196.261	-0.173	0.001
-347.450	-29.635	-0.541	0.308
-346.435	138.006	0.534	0.699
-345.420	-200.000	0.071	0.793
-344.406	19.677	0.794	0.637
-343.391	475.636	0.376	-0.846
-342.377	533.761	-0.093	0.219
-341.362	-103.669	-0.620	0.145
-340.348	5.746	-0.446	0.329
-339.333	18.787	-0.631	0.504
-338.318	-153.659	0.018	-0.001
-337.304	800.000	-0.060	-0.164
-336.289	-200.000	-0.132	-0.578
-335.275	-112.332	-0.901	-0.180
-334.260	-104.360	-0.693	0.160
-333.245	-114.390	-0.061	0.012
-332.231	145.342	-0.265	0.354
-331.216	-46.459	0.468	-0.229
-330.202	298.773	-0.020	0.036
-329.187	-18.093	0.309	0.193
-328.172	-200.000	-0.021	-0.145
-327.158	-62.885	-0.395	-0.163
-326.143	14.908	0.336	-0.262
-325.129	385.143	0.061	-0.126
-324.114	-52.467	-0.800	-0.368
-323.099	-200.000	0.136	0.792
-322.085	800.000	-0.238	0.829
-321.070	46.982	-0.611	0.566
-320.056	-142.014	-0.815	-0.081
-319.041	-68.809	-0.570	0.220
-318.026	117.818	0.454	-0.557
-317.012	6.304	-0.118	-0.087
-315.997	-62.461	0.432	0.179
-314.983	-200.000	-0.116	0.544
-313.968	-27.000	-0.500	0.291
-312.953	548.443	0.211	0.504
-311.939	137.038	-0.133	-0.173
-310.924	-200.000	-0.012	-0.264
-309.910	-132.715	-1.020	0.130
-308.895	-200.000	-0.010	0.483
-307.880	-12.049	-0.196	0.128
-306.866	-102.485	0.865	0.206
-305.851	-200.000	-0.110	0.631
-304.837	-200.000	-0.115	0.575
-303.822	16.157	0.434	0.340
-302.807	193.999	-0.100	-0.151
-301.793	800.000	0.294	-0.941
-300.778	123.167	-0.218	-0.272
-299.764	92.317	0.545	-0.611
-298.749	563.154	-0.363	0.875
-297.735	236.003	0.706	1.161
-296.720	171.439	0.454	0.648
-295.705	-200.000	-0.003	1.175
-294.691	-38.936	-0.594	0.311
-293.676	-55.648	0.853	0.380
-292.662	-90.828	0.305	0.088
-291.647	-23.384	-0.233	0.140
-290.632	-42.659	0.291	-0.147
-289.618	-181.635	0.441	-0.008
-288.603	-27.179	0.586	0.340
-287.589	206.563	-0.383	0.593
-286.574	-163.058	-0.618	-0.030
-285.559	-27.682	-0.700	-0.404
-284.545	800.000	-0.130	-0.511
-283.530	-59.511	0.432	0.185
-282.516	-114.669	-0.637	0.121
-281.501	-12.593	0.745	-0.484
-280.486	-107.224	0.123	0.027
-279.472	-115.908	-0.380	-0.070
-278.457	800.000	-0.149	-0.508
-277.443	-96.620	-0.573	-0.150
-276.428	-91.959	-0.570	0.161
-275.413	-200.000	0.077	-0.340
-274.399	169.205	0.507	0.720
-273.384	-101.067	-0.895	-0.218
-272.370	-89.276	1.002	-0.294
-271.355	-200.000	-0.072	-0.403
-270.340	335.951	-0.328	-0.633
-269.326	-200.000	0.044	0.376
-268.311	-200.000	-0.033	0.244
-267.297	-39.350	0.307	0.160
-266.282	108.400	0.118	0.140
-265.267	800.000	-0.223	-0.640
-264.253	168.204	-0.070	0.099
-263.238	2.349	0.542	0.389
-262.224	35.702	-0.417	0.364
-261.209	-27.199	-0.183	0.106
-260.195	-107.747	-0.610	-0.132
-259.180	-200.000	0.033	-0.300
-258.165	70.092	-0.467	0.479
-257.151	-39.011	-0.590	-0.309
-256.136	800.000	-0.338	-1.252
-255.122	7.332	-0.320	0.237
-254.107	35.024	0.421	0.366
-253.092	-122.457	0.952	0.154
-252.078	-26.579	0.920	-0.535
-251.063	-31.688	0.217	-0.121
-250.049	-62.567	0.538	-0.222
-249.034	15.353	0.558	-0.435
-248.019	22.113	0.594	0.482
-247.005	-200.000	-0.025	0.414
-245.990	-200.000	0.174	0.823
-244.976	17.750	-0.384	-0.303
-243.961	2.465	0.306	0.220
-242.946	-200.000	-0.024	0.182
-241.932	-57.281	0.352	0.154
-240.917	107.668	-0.643	0.761
-239.903	236.727	-0.279	-0.460
-238.888	17.443	-0.476	0.376
-237.873	-200.000	-0.132	0.741
-236.859	730.829	0.012	0.031
-235.844	-152.884	0.921	0.065
-234.830	-83.780	-0.707	0.224
-233.815	-71.183	-0.316	0.118
-232.800	-200.000	0.160	0.951
-231.786	98.932	0.127	0.145
-230.771	-200.000	0.055	0.420
-229.757	663.981	0.091	-0.234
-228.742	399.682	-0.091	0.189
-227.727	87.787	-0.221	0.243
-226.713	677.662	-0.314	0.811
-225.698	-80.518	0.473	-0.156
-224.684	-38.056	0.340	-0.179
-223.669	-105.066	-0.952	0.216
-222.655	591.308	0.155	0.380
-221.640	-78.421	1.108	-0.377
-220.625	-73.526	-0.672	0.243
-219.611	-200.000	-0.003	0.675
-218.596	-17.182	-0.743	0.465
-217.582	27.643	-0.676	-0.564
-216.567	436.093	-0.291	-0.628
-215.552	800.000	0.223	0.769
-214.538	112.732	-0.621	0.746
-213.523	-200.000	-0.064	-0.376
-212.509	45.979	0.693	-0.636
-211.494	-101.071	-0.809	-0.197
-210.479	-200.000	-0.031	0.452
-209.465	-200.000	0.045	-0.561
-208.450	-200.000	-0.069	0.767
-207.436	128.172	-0.173	-0.218
-206.421	76.780	0.462	-0.487
-205.406	152.204	0.367	0.496
-204.392	12.899	0.668	0.512
-203.377	-99.001	0.383	0.096
-202.363	800.000	0.141	0.455
-201.348	-112.471	-0.621	-0.123
-200.333	-24.056	0.275	0.163
-199.319	800.000	0.246	0.695
-198.304	-10.218	-0.279	-0.184
-197.290	-58.807	-0.816	-0.350
-196.275	145.621	-0.164	-0.218
-195.260	-63.077	-0.614	-0.251
-194.246	4.542	0.291	0.212
-193.231	-42.517	-0.986	-0.498
-192.217	800.000	0.199	-0.831
-191.202	14.009	0.466	0.359
-190.187	-200.000	0.121	-0.658
-189.173	-46.552	0.898	0.437
-188.158	800.000	-0.121	-0.381
-187.144	180.879	0.357	-0.520
-186.129	213.895	0.372	-0.584
-185.114	-165.122	0.889	0.039
-184.100	-200.000	0.194	-0.898
-183.085	-200.000	-0.129	0.712
-182.071	19.373	-0.214	-0.170
-181.056	800.000	-0.074	-0.256
-180.042	394.594	-0.101	-0.210
-179.027	-200.000	-0.060	-0.602
-178.012	-200.000	-0.040	0.587
-176.998	-15.214	-0.277	0.176
-175.983	13.780	-0.497	-0.382
-174.969	-131.086	0.411	-0.054
-173.954	83.393	0.490	0.529
-172.939	-43.592	0.444	0.222
-171.925	800.000	0.095	-0.410
-170.910	54.273	-0.068	0.065
-169.896	800.000	0.140	0.605
-168.881	24.814	0.756	-0.620
-167.866	-200.000	-0.103	-0.481
-166.852	72.345	-0.330	0.340
-165.837	800.000	0.128	0.405
-164.823	-112.210	0.096	0.019
-163.808	-176.724	0.818	0.021
-162.793	-28.666	0.421	0.240
-161.779	556.483	-0.212	-0.505
-160.764	-142.525	-0.445	0.043
-159.750	-169.397	0.370	0.013
-158.735	-130.994	-0.425	-0.056
-157.720	249.543	0.225	0.378
-156.706	34.987	-0.479	-0.415
-155.691	59.928	-0.789	-0.771
-154.677	-50.115	0.694	-0.325
-153.662	-87.206	0.483	0.145
-152.647	532.272	-0.233	-0.545
-151.633	-90.430	0.576	0.165
-150.618	-130.940	-0.437	0.058
-149.604	183.597	-0.370	0.541
-148.589	-172.304	0.264	0.008
-147.574	800.000	-0.123	0.420
-146.560	102.025	-0.317	-0.366
-145.545	-200.000	0.008	0.300
-144.531	-200.000	-0.034	0.461
-143.516	-20.790	0.346	-0.210
-142.502	-139.686	-0.680	-0.072
-141.487	-66.233	0.399	-0.157
-140.472	254.403	-0.355	-0.602
-139.458	-131.290	0.488	-0.064
-138.443	-136.208	0.509	-0.059
-137.429	-130.215	-0.920	-0.124
-136.414	-89.954	0.116	-0.034
-135.399	-200.000	-0.046	-0.524
-134.385	-34.807	0.729	-0.394
-133.370	-105.515	-0.372	0.084
-132.356	76.689	-0.534	-0.561
-131.341	-200.000	0.045	-0.623
-130.326	428.184	0.295	-0.630
-129.312	142.418	0.173	0.228
-128.297	800.000	0.163	-0.552
-127.283	352.536	-0.543	1.064
-126.268	-169.316	-0.242	-0.009
-125.253	65.773	0.720	0.722
-124.239	-40.751	0.545	-0.279
-123.224	800.000	-0.074	0.243
-122.210	104.446	0.251	0.292
-121.195	-200.000	0.106	-0.554
-120.180	162.261	-0.243	-0.337
-119.166	-200.000	0.071	-0.384
-118.151	-20.991	0.161	0.097
-117.137	127.719	-0.179	0.225
-116.122	71.106	-0.415	0.425
-115.107	800.000	-0.110	-0.386
-114.093	-200.000	-0.167	-0.875
-113.078	33.309	-0.358	0.307
-112.064	-171.088	0.788	0.026
-111.049	-97.092	0.865	-0.224
-110.034	800.000	-0.104	-0.285
-109.020	220.422	-0.352	-0.557
-108.005	171.782	0.307	-0.435
-106.991	-15.884	0.287	0.180
-105.976	-65.754	-1.103	0.436
-104.962	-83.203	-0.168	0.053
-103.947	652.459	-0.360	-0.912
-102.932	65.527	0.334	-0.334
-101.918	-86.361	0.312	-0.095
-100.903	331.130	0.109	0.207
-99.889	-200.000	-0.023	-0.356
-98.874	-145.890	-0.221	0.019
-97.859	-75.402	-0.435	0.153
-96.845	7.125	-0.738	-0.544
-95.830	-13.354	0.274	-0.176
-94.816	-179.648	1.008	-0.022
-93.801	-34.838	-0.421	0.227
-92.786	7.860	0.488	0.361
-91.772	104.737	-0.166	-0.193
-90.757	-109.929	0.858	-0.178
-89.743	-200.000	-0.047	-0.280
-88.728	-97.303	1.434	-0.369
-87.713	-41.294	-0.343	-0.175
-86.699	-200.000	-0.046	-0.356
-85.684	-200.000	0.119	-0.758
-84.670	21.789	-0.472	0.380
-83.655	60.762	-1.232	-1.206
-82.640	-109.553	0.180	0.038
-81.626	-200.000	0.084	-0.448
-80.611	66.574	-0.360	-0.361
-79.597	-144.595	0.541	-0.049
-78.582	381.298	0.231	-0.468
-77.567	-200.000	0.014	0.387
-76.553	111.172	-0.239	-0.284
-75.538	114.704	0.429	-0.516
-74.524	-11.987	-0.984	0.636
-73.509	195.621	0.360	-0.540
-72.494	800.000	0.135	-0.438
-71.480	-200.000	-0.016	-1.193
-70.465	101.833	-0.049	0.057
-69.451	121.834	0.683	-0.840
-68.436	-65.932	-0.134	-0.053
-67.422	66.879	-0.616	-0.619
-66.407	-105.663	0.347	0.078
-65.392	162.161	-0.474	-0.655
-64.378	35.686	-0.293	0.254
-63.363	782.388	-0.181	0.489
-62.349	-47.984	-0.591	0.282
-61.334	204.595	-0.645	-0.987
-60.319	-116.588	0.789	0.143
-59.305	793.671	0.380	-1.030
-58.290	353.722	-0.257	0.503
-57.276	-200.000	0.001	1.245
-56.261	-200.000	96.783	578.555
-55.246	631.968	1377.898	3440.418
-54.232	196.876	2553.876	3838.627
-53.217	116.976	2156.922	2611.505
-52.203	43.775	1701.446	1535.569
-51.188	36.916	1515.811	1321.407
-50.173	34.530	1489.252	1282.186
-49.159	55.119	1540.301	1467.248
-48.144	56.305	1557.463	1491.630
-47.130	37.284	1516.433	1324.250
-46.115	34.280	1500.983	1290.391
-45.100	33.640	1499.010	1284.312
-44.086	33.680	1497.064	1282.862
-43.071	33.619	1494.576	1280.269
-42.057	33.556	1493.811	1279.138
-41.042	33.583	1492.255	1277.939
-40.027	33.628	1490.466	1276.657
-39.013	33.926	1487.581	1276.135
-37.998	33.633	1486.965	1273.591
-36.984	33.822	1486.195	1274.149
-35.969	33.793	1484.363	1272.333
-34.954	33.916	1483.008	1271.941
-33.940	34.014	1481.032	1270.857
-32.925	33.747	1480.706	1268.742
-31.911	33.847	1478.771	1267.698
-30.896	33.828	1477.966	1266.833
-29.881	33.898	1476.484	1265.974
-28.867	33.913	1475.378	1265.076
-27.852	33.678	1474.321	1262.559
-26.838	33.832	1472.367	1261.857
-25.823	33.760	1470.841	1260.022
-24.809	33.954	1469.584	1260.183
-23.794	33.685	1468.372	1257.308
-22.779	33.975	1465.289	1256.536
-21.765	33.671	1466.287	1255.336
-20.750	33.797	1464.334	1254.443
-19.736	33.608	1463.513	1252.441
-18.721	33.859	1461.079	1251.968
-17.706	33.808	1461.523	1251.962
-16.692	33.863	1458.734	1249.882
-15.677	33.724	1458.489	1248.711
-14.663	33.518	1459.459	1248.136
-13.648	33.802	1456.537	1247.452
-12.633	33.449	1457.514	1245.919
-11.619	33.631	1456.025	1245.787
-10.604	33.705	1454.074	1244.559
-9.590	33.523	1454.724	1243.872
-8.575	33.681	1454.036	1244.271
-7.560	33.646	1453.180	1243.254
-6.546	33.677	1452.512	1242.835
-5.531	33.555	1451.037	1240.726
-4.517	33.715	1449.128	1240.095
-3.502	33.632	1449.376	1239.713
-2.487	33.707	1448.141	1239.099
-1.473	33.837	1446.537	1238.522
-0.458	33.558	1445.736	1235.972
0.556	34.748	1435.992	1225.914
1.571	31.462	1409.570	1182.512
2.586	27.454	1350.501	1108.517
3.600	25.510	1269.787	1031.040
4.615	24.123	1223.502	985.699
5.629	20.813	1165.965	921.769
6.644	11.274	1081.774	808.069
7.659	4.070	1041.180	743.207
8.673	3.218	1034.900	734.591
9.688	3.319	1030.804	732.103
10.702	2.610	1030.138	728.196
11.717	2.855	1027.525	727.447
12.731	5.957	1031.136	744.671
13.746	15.351	1045.586	800.036
14.761	23.518	1054.779	846.130
15.775	25.854	1057.499	859.392
16.790	26.344	1058.258	862.271
17.804	26.208	1056.354	859.999
18.819	26.294	1056.087	860.115
19.834	26.117	1056.101	859.208
20.848	26.439	1054.089	859.025
21.863	26.488	1054.390	859.423
22.877	26.359	1053.964	858.390
23.892	26.366	1053.844	858.250
24.907	26.426	1053.364	858.066
25.921	26.491	1051.510	856.787
26.936	26.520	1051.202	856.599
27.950	26.082	1051.048	854.323
28.965	26.171	1050.487	854.214
29.980	26.143	1047.384	851.482
30.994	26.170	1046.484	850.803
32.009	26.499	1046.142	851.998
33.023	26.533	1045.909	851.896
34.038	25.842	1044.938	847.777
35.053	26.182	1044.156	848.666
36.067	26.516	1043.932	849.976
37.082	26.522	1041.993	848.354
38.096	26.491	1041.313	847.579
39.111	26.577	1040.871	847.549
40.126	26.612	1040.383	847.237
41.140	26.895	1038.458	846.916
42.155	26.452	1037.474	843.973
43.169	26.008	1036.242	840.827
44.184	26.097	1035.030	840.183
45.199	26.153	1034.601	840.021
46.213	26.186	1032.864	838.690
47.228	25.979	1032.921	837.701
48.242	26.169	1031.815	837.609
49.257	26.335	1031.785	838.282
50.271	26.470	1030.735	837.978
51.286	26.576	1030.081	837.865
52.301	26.648	1029.225	837.426
53.315	26.771	1028.169	837.063
54.330	26.488	1027.329	834.998
55.344	26.615	1026.279	834.656
56.359	26.353	1026.242	833.346
57.374	26.610	1024.740	833.234
58.388	26.384	1024.143	831.634
59.403	26.293	1022.356	829.694
60.417	25.851	1023.518	828.530
61.432	25.954	1022.575	828.168
62.447	26.037	1022.174	828.148
63.461	26.032	1021.506	827.511
64.476	26.336	1019.507	827.210
65.490	26.253	1018.801	826.184
66.505	26.484	1018.111	826.607
67.520	26.090	1018.201	824.807
68.534	26.068	1017.644	824.186
69.549	26.065	1016.709	823.340
70.563	25.513	1014.629	819.067
71.578	25.587	1014.065	818.880
72.593	25.620	1013.551	818.541
73.607	25.618	1012.081	817.273
74.622	25.501	1010.961	815.763
75.636	25.632	1010.721	816.091
76.651	26.040	1009.106	816.564
77.666	25.725	1009.292	815.214
78.680	25.733	1008.104	814.218
79.695	25.931	1007.461	814.525
80.709	25.938	1007.011	814.121
81.724	26.304	1005.606	814.562
82.739	26.133	1005.644	813.748
83.753	25.761	1005.086	811.548
84.768	26.230	1004.387	813.025
85.782	26.577	1003.708	813.964
86.797	26.623	1002.632	813.228
87.812	26.938	1001.857	813.937
88.826	26.534	1001.691	811.921
89.841	26.590	1000.097	810.808
90.855	26.720	999.886	811.147
91.870	26.503	999.399	809.708
92.884	26.745	998.351	809.868
93.899	26.716	996.945	808.526
94.914	26.595	996.156	807.276
95.928	26.749	995.211	807.126
96.943	26.556	994.829	805.884
97.957	26.074	994.116	803.093
98.972	26.029	992.103	801.195
99.987	25.655	992.126	799.480
101.001	26.039	990.933	800.153
102.016	26.317	990.686	801.116
103.030	26.196	990.546	800.393
104.045	26.436	988.860	800.023
105.060	26.413	987.494	798.747
106.074	25.826	986.220	795.052
107.089	26.258	985.063	795.956
108.103	26.522	985.272	797.216
109.118	26.280	984.647	795.576
110.133	26.060	983.707	793.777
111.147	25.831	983.248	792.328
112.162	25.937	981.907	791.645
113.176	25.757	980.412	789.577
114.191	25.853	980.430	789.944
115.206	26.083	979.142	789.843
116.220	25.556	978.247	786.747
117.235	25.405	977.335	785.283
118.249	26.059	975.081	786.253
119.264	26.062	974.221	785.504
120.279	25.846	974.818	784.976
121.293	25.459	974.895	783.283
122.308	25.721	973.463	783.203
123.322	25.523	973.483	782.287
124.337	25.785	971.563	781.812
125.352	25.631	969.974	779.795
126.366	25.322	967.843	776.681
127.381	25.034	967.310	774.936
128.395	25.734	966.847	777.519
129.410	26.129	967.736	779.874
130.424	26.227	966.424	779.172
131.439	26.185	965.302	778.016
132.454	26.025	964.716	776.789
133.468	25.945	964.152	775.918
134.483	25.965	962.831	774.872
135.497	25.933	962.536	774.430
136.512	26.472	961.204	775.600
137.527	26.406	961.433	775.434
138.541	25.967	961.496	773.533
139.556	26.341	959.394	773.377
140.570	26.675	958.823	774.272
141.585	26.610	957.695	773.018
142.600	26.620	957.328	772.695
143.614	26.488	956.258	771.202
144.629	26.484	956.841	771.584
145.643	26.956	955.270	772.257
146.658	26.740	954.132	770.352
147.673	26.654	951.943	768.153
148.687	26.418	952.176	767.272
149.702	26.360	950.488	765.600
150.716	26.222	950.777	765.178
151.731	26.476	947.879	763.853
152.746	26.297	948.612	763.619
153.760	26.310	948.645	763.631
154.775	26.749	947.103	764.175
155.789	26.979	945.841	764.057
156.804	26.594	945.089	761.762
157.819	26.749	944.410	761.801
158.833	26.512	944.322	760.666
159.848	26.940	943.040	761.361
160.862	26.918	942.393	760.681
161.877	26.846	941.534	759.616
162.892	26.602	941.217	758.271
163.906	26.369	940.679	756.797
164.921	26.681	939.197	756.840
165.935	26.586	938.160	755.542
166.950	26.676	936.562	754.563
167.964	26.923	935.540	754.701
168.979	26.560	935.530	753.116
169.994	26.605	933.776	751.825
171.008	26.528	933.286	751.042
172.023	26.833	931.684	750.949
173.037	26.881	932.010	751.344
174.052	26.665	930.122	748.864
175.067	26.756	929.279	748.495
176.081	26.425	928.447	746.395
177.096	26.876	927.773	747.646
178.110	26.971	926.306	746.787
179.125	26.142	926.308	743.309
180.140	26.214	925.143	742.607
181.154	26.302	924.314	742.236
182.169	26.011	924.239	740.914
183.183	26.368	924.123	742.224
184.198	26.745	923.837	743.472
185.213	26.432	923.735	742.041
186.227	26.722	921.490	741.360
187.242	26.400	922.658	740.914
188.256	26.857	921.111	741.475
189.271	26.769	919.898	740.076
190.286	26.797	920.434	740.553
191.300	26.428	920.007	738.641
192.315	26.209	917.836	735.938
193.329	24.950	917.269	730.288
194.344	24.592	915.801	727.595
195.359	25.730	914.943	731.477
196.373	26.478	915.705	735.061
197.388	26.754	914.727	735.334
198.402	26.815	913.765	734.741
199.417	26.505	913.715	733.379
200.432	26.960	913.101	734.665
201.446	26.658	912.395	732.810
202.461	26.404	911.609	731.089
203.475	26.155	911.747	730.125
204.490	25.725	910.476	727.307
205.504	24.735	908.756	721.875
206.519	24.888	908.488	722.216
207.534	26.174	908.246	727.142
208.548	26.246	906.961	726.337
209.563	26.595	907.717	728.281
210.577	26.417	906.700	726.685
211.592	26.313	906.376	725.945
212.607	26.645	907.036	727.744
213.621	26.890	904.663	726.758
214.636	26.738	904.518	725.967
215.650	26.644	904.602	725.596
216.665	26.518	904.113	724.633
217.680	26.498	903.693	724.151
218.694	26.917	902.639	724.920
219.709	26.622	901.235	722.552
220.723	26.148	900.899	720.327
221.738	26.202	901.411	720.885
222.753	26.614	899.848	721.214
223.767	26.888	898.636	721.270
224.782	26.793	897.881	720.220
225.796	26.866	898.652	721.065
226.811	27.242	896.616	720.862
227.826	26.621	896.087	717.911
228.840	25.771	895.370	713.905
229.855	25.514	894.151	711.852
230.869	26.113	894.019	714.054
231.884	25.714	893.187	711.750
232.899	25.744	892.158	710.984
233.913	26.610	892.485	714.601
234.928	26.628	892.175	714.360
235.942	26.626	891.597	713.826
236.957	26.269	891.938	712.628
237.972	26.260	888.952	710.147
238.986	26.328	888.203	709.751
240.001	26.115	888.580	709.152
241.015	26.387	888.415	710.026
242.030	26.201	888.551	709.340
243.045	26.616	887.001	709.669
244.059	26.470	887.674	709.571
245.074	26.217	887.196	708.136
246.088	26.573	885.588	708.182
247.103	26.375	884.491	706.468
248.117	26.323	884.462	706.180
249.132	26.852	884.203	707.973
250.147	27.511	882.719	709.291
251.161	27.516	884.141	710.392
252.176	27.474	883.908	709.975
253.190	27.615	882.268	709.144
254.205	27.653	881.873	708.913
255.220	27.939	881.202	709.420
256.234	27.898	881.479	709.422
257.249	27.430	880.751	706.958
258.263	27.146	879.910	705.119
259.278	27.233	879.909	705.391
260.293	27.181	879.801	705.039
261.307	27.366	878.090	704.325
262.322	27.559	876.810	703.980
263.336	27.229	876.870	702.691
264.351	26.755	875.310	699.552
265.366	25.602	873.414	693.528
266.380	25.234	872.928	691.665
267.395	26.176	873.433	695.634
268.409	27.132	873.484	699.295
269.424	27.537	871.859	699.488
270.439	27.016	872.586	698.004
271.453	27.114	871.875	697.753
272.468	27.366	870.942	697.908
273.482	27.491	870.538	698.004
274.497	27.724	869.987	698.390
275.512	27.322	869.736	696.590
276.526	26.942	867.817	693.538
277.541	27.072	867.157	693.446
278.555	27.416	866.927	694.516
279.570	26.972	867.383	693.122
280.585	26.897	865.927	691.612
281.599	27.196	864.925	691.889
282.614	27.042	865.274	691.522
283.628	26.638	864.003	688.907
284.643	26.203	863.557	686.838
285.657	26.718	864.039	689.117
286.672	26.657	862.638	687.707
287.687	26.087	862.100	685.054
288.701	26.441	861.330	685.724
289.716	26.778	861.280	686.902
290.730	26.556	860.373	685.277
291.745	26.603	859.749	684.897
292.760	26.260	858.851	682.827
293.774	26.251	857.909	681.982
294.789	26.943	859.597	685.880
295.803	27.725	859.253	688.499
296.818	27.576	858.554	687.316
297.833	27.914	857.543	687.718
298.847	27.631	856.827	686.019
299.862	27.214	855.576	683.389
300.876	27.610	855.398	684.673
301.891	27.752	855.141	684.941
302.906	27.936	853.866	684.548
303.920	27.542	853.462	682.687
304.935	27.420	852.866	681.692
305.949	27.437	852.709	681.572
306.964	27.664	852.895	682.508
307.979	27.350	850.655	679.483
308.993	27.257	849.725	678.335
310.008	27.990	850.296	681.466
311.022	27.763	850.712	680.891
312.037	28.044	850.110	681.396
313.052	27.363	848.897	677.831
314.066	27.385	848.346	677.409
315.081	26.518	846.885	672.960
316.095	26.249	845.052	670.446
317.110	26.712	844.880	671.968
318.125	27.576	845.738	675.799
319.139	27.241	844.127	673.210
320.154	25.732	842.181	666.021
321.168	25.656	841.588	665.213
322.183	26.386	842.239	668.367
323.197	27.085	842.692	671.252
324.212	27.349	842.780	672.239
325.227	27.443	842.091	671.977
326.241	27.620	843.092	673.367
327.256	27.326	842.142	671.466
328.270	27.344	840.671	670.298
329.285	27.245	840.171	669.475
330.300	27.463	839.078	669.347
331.314	26.871	838.226	666.435
332.329	27.195	837.826	667.247
333.343	27.164	838.669	667.747
334.358	27.567	837.746	668.430
335.373	27.958	836.248	668.608
336.387	27.504	837.151	667.605
337.402	27.826	836.247	668.003
338.416	27.965	836.047	668.296
339.431	28.345	834.424	668.323
340.446	27.966	834.673	667.082
341.460	28.443	833.518	667.837
342.475	28.282	833.687	667.326
343.489	28.175	832.455	665.892
344.504	28.143	832.322	665.610
345.519	28.483	832.118	666.624
346.533	28.461	831.409	665.919
347.548	28.613	830.947	666.040
348.562	29.019	829.463	666.262
349.577	28.624	830.039	665.236
350.592	28.517	829.381	664.262
351.606	28.729	828.481	664.249
352.621	28.590	828.818	663.956
353.635	28.750	826.641	662.731
354.650	28.220	826.761	660.858
355.665	27.979	826.392	659.635
356.679	27.040	824.885	654.987
357.694	26.534	825.059	653.242
358.708	27.522	824.847	656.580
359.723	27.440	824.588	656.020
360.738	27.517	823.674	655.510
361.752	27.830	823.554	656.484
362.767	28.273	822.893	657.488
363.781	28.378	823.866	658.586
364.796	29.180	822.563	660.362
365.810	28.848	822.303	658.905
366.825	29.434	822.067	660.759
367.840	28.701	822.171	658.157
368.854	28.119	822.097	655.952
369.869	28.289	820.236	655.017
370.883	28.093	819.088	653.344
371.898	28.264	818.836	653.695
372.913	27.846	818.149	651.598
373.927	28.046	818.409	652.460
374.942	28.160	818.031	652.507
375.956	28.358	816.833	652.200
376.971	28.399	816.172	651.759
377.986	28.815	815.051	652.284
379.000	28.806	814.557	651.801
380.015	29.078	814.617	652.754
381.029	28.614	815.152	651.478
382.044	28.734	813.412	650.454
383.059	28.708	813.052	650.016
384.073	28.993	812.019	650.141
385.088	28.767	811.951	649.232
386.102	28.772	811.297	648.668
387.117	28.432	811.020	647.188
388.132	28.824	810.473	648.077
389.146	28.432	809.568	645.918
390.161	27.923	808.593	643.289
391.175	27.789	808.767	642.900
392.190	28.496	808.441	645.071
393.205	28.317	807.739	643.824
394.219	27.585	805.793	639.647
395.234	25.905	803.479	631.872
396.248	24.822	803.607	628.114
397.263	25.665	804.248	631.522
398.278	28.002	805.020	640.269
399.292	28.430	804.900	641.617
400.307	27.775	804.017	638.565
401.321	28.037	804.039	639.442
402.336	28.210	802.331	638.632
403.350	28.555	802.929	640.255
404.365	28.701	803.529	641.187
405.380	29.104	802.571	641.771
406.394	29.462	802.663	643.035
407.409	29.812	802.684	644.215
408.423	29.392	801.917	642.079
409.438	29.499	801.622	642.158
410.453	29.250	801.473	641.116
411.467	29.853	799.798	641.812
412.482	29.380	800.241	640.469
413.496	29.337	800.632	640.577
414.511	29.455	799.977	640.404
415.526	29.525	799.002	639.811
416.540	29.411	799.470	639.733
417.555	28.992	798.653	637.572
418.569	29.172	797.691	637.370
419.584	29.089	796.420	636.011
420.599	29.429	795.705	636.557
421.613	159.200	1369.794	1792.585
422.628	138.015	1453.468	1792.703
