DTS Sentinel unit serial number:	SN413079Multiplexer serial number:	ORYXHardware model number:	OX4-SRSoftware version number:	ORYX F/W v4.00 Oryx Data Collector v3.7.2.0data status	okinstallation	princeton_trtdifferential loss correction	single-endedforward channel	channel 3reverse channel	N/Adate	2019/09/15time	00:08:35forward acquisition time	60.00reverse acquisition time	0.00gamma	496.2192k internal	0.2320k external	0.2320temperature offset calibration	0.9975default loss term (dB/km)	0.3790temperature slope calibration	1.0000multiplexer offset coefficient	1.0000multiplexer slope coefficient	1.0000fibre end	0.00T internal ref (°C)	32.19T ext. ref 1 (°C)	4.58T ext. ref 2 (°C)	27.18length (m)	temperature (°C)	Stokes	anti-Stokes-747.200	65.954	0.041	0.042
-746.185	-200.000	-0.062	0.382
-745.171	-22.994	0.205	0.125
-744.156	-54.837	0.110	-0.050
-743.142	232.001	0.151	-0.250
-742.127	-200.000	0.028	0.165
-741.112	-35.352	-0.388	0.214
-740.098	-174.761	-0.119	-0.003
-739.083	-10.021	0.176	-0.118
-738.069	107.578	-0.113	0.136
-737.054	425.901	0.132	0.287
-736.039	137.048	-0.205	0.271
-735.025	228.394	0.283	0.466
-734.010	92.947	-0.195	-0.222
-732.996	101.186	-0.207	-0.244
-731.981	543.605	-0.047	0.114
-730.966	-122.203	-0.140	0.023
-729.952	-200.000	0.021	0.100
-728.937	-200.000	0.000	0.078
-727.923	-200.000	-0.008	-0.220
-726.908	13.050	0.246	-0.192
-725.894	6.604	-0.126	0.095
-724.879	82.132	0.032	-0.035
-723.864	-200.000	0.004	-0.275
-722.850	-126.784	0.101	-0.015
-721.835	-200.000	-0.021	0.258
-720.821	-37.558	-0.174	-0.094
-719.806	-26.336	-0.263	-0.156
-718.791	527.284	-0.112	-0.266
-717.777	144.167	0.095	-0.128
-716.762	696.241	0.109	-0.288
-715.748	-90.235	-0.123	0.036
-714.733	144.216	-0.241	0.325
-713.718	-104.843	-0.412	0.096
-712.704	800.000	0.092	0.283
-711.689	800.000	-0.029	-0.116
-710.675	800.000	-0.073	-0.284
-709.660	-119.668	0.375	0.065
-708.645	-158.338	-0.185	-0.011
-707.631	228.884	0.056	-0.092
-706.616	487.709	-0.116	-0.268
-705.602	-200.000	0.029	-0.397
-704.587	102.197	0.052	-0.061
-703.572	78.061	0.185	0.199
-702.558	52.216	0.109	-0.105
-701.543	-200.000	0.068	-0.363
-700.529	-62.901	-0.293	-0.123
-699.514	202.830	-0.127	-0.198
-698.499	188.241	-0.151	-0.229
-697.485	86.256	-0.127	0.141
-696.470	-174.397	0.328	-0.010
-695.456	-62.869	0.103	-0.043
-694.441	-3.313	-0.196	0.138
-693.426	87.160	0.049	0.055
-692.412	24.016	-0.202	0.168
-691.397	-200.000	0.020	-0.133
-690.383	-113.585	0.069	-0.014
-689.368	-13.208	-0.273	-0.179
-688.354	-39.242	-0.092	0.049
-687.339	-200.000	0.047	-0.323
-686.324	-97.133	0.289	-0.076
-685.310	-110.540	-0.450	0.094
-684.295	446.213	-0.021	0.047
-683.281	350.446	0.070	-0.139
-682.266	-51.859	-0.262	-0.123
-681.251	800.000	0.017	-0.058
-680.237	-200.000	0.100	-0.459
-679.222	6.074	-0.107	0.080
-678.208	-117.211	0.191	0.035
-677.193	404.742	-0.094	-0.199
-676.178	487.978	0.082	-0.189
-675.164	-169.844	-0.041	0.001
-674.149	-102.152	0.406	0.098
-673.135	-77.436	-0.244	-0.085
-672.120	3.186	-0.217	0.160
-671.105	-200.000	0.024	0.124
-670.091	184.089	-0.118	0.176
-669.076	-45.116	-0.290	0.145
-668.062	-109.112	0.218	0.047
-667.047	-81.034	-0.271	0.091
-666.032	-200.000	0.018	0.085
-665.018	-200.000	0.031	-0.141
-664.003	-22.682	-0.179	0.109
-662.989	291.296	-0.190	0.348
-661.974	-32.690	-0.045	0.025
-660.959	-101.146	-0.198	0.049
-659.945	800.000	0.069	-0.222
-658.930	-79.543	0.393	0.134
-657.916	-60.192	0.061	0.026
-656.901	355.330	0.130	-0.262
-655.886	-69.097	0.221	0.086
-654.872	-20.903	-0.234	0.145
-653.857	-138.181	0.270	-0.030
-652.843	72.557	-0.263	-0.277
-651.828	-148.341	0.306	0.025
-650.814	132.557	-0.122	-0.158
-649.799	-114.219	0.148	-0.029
-648.784	800.000	0.084	0.252
-647.770	353.479	0.045	-0.091
-646.755	140.037	-0.114	0.151
-645.741	-24.995	-0.106	0.064
-644.726	557.540	-0.079	-0.192
-643.711	-97.890	-0.240	-0.062
-642.697	-90.626	0.275	-0.080
-641.682	-70.721	0.094	-0.036
-640.668	800.000	0.041	-0.149
-639.653	60.969	0.114	-0.114
-638.638	576.466	-0.028	0.068
-637.624	-200.000	0.022	-0.101
-636.609	1.936	-0.155	-0.113
-635.595	-50.752	-0.230	-0.109
-634.580	43.146	0.119	0.109
-633.565	-200.000	0.070	-0.375
-632.551	-35.483	-0.302	-0.165
-631.536	-165.245	-0.343	0.015
-630.522	-42.663	-0.105	0.054
-629.507	-200.000	0.004	0.266
-628.492	-65.693	-0.414	0.167
-627.478	-83.696	-0.303	0.098
-626.463	-200.000	-0.022	0.099
-625.449	-165.770	-0.206	-0.009
-624.434	46.931	-0.214	-0.200
-623.419	-168.721	-0.130	-0.005
-622.405	369.253	-0.125	-0.255
-621.390	-163.396	0.197	0.009
-620.376	50.177	0.125	0.119
-619.361	-160.463	-0.222	0.012
-618.346	34.581	0.267	-0.235
-617.332	71.005	-0.062	-0.065
-616.317	800.000	-0.075	0.216
-615.303	159.801	-0.094	-0.131
-614.288	-115.650	0.095	0.018
-613.273	-132.314	0.209	0.027
-612.259	800.000	-0.017	0.073
-611.244	800.000	0.051	0.182
-610.230	-47.399	0.180	0.088
-609.215	368.444	0.022	-0.044
-608.201	72.450	-0.072	0.075
-607.186	131.364	-0.138	0.178
-606.171	-6.745	-0.077	-0.053
-605.157	-150.014	-0.297	0.023
-604.142	97.087	-0.094	0.109
-603.128	800.000	-0.062	-0.250
-602.113	-95.421	-0.314	0.085
-601.098	62.135	0.076	-0.076
-600.084	-106.921	-0.166	-0.037
-599.069	119.788	0.279	0.347
-598.055	-127.465	0.194	0.028
-597.040	-172.507	-0.483	0.015
-596.025	-47.603	-0.158	-0.077
-595.011	800.000	0.066	-0.202
-593.996	-151.878	-0.073	-0.005
-592.982	-109.897	-0.302	0.064
-591.967	270.343	-0.282	0.498
-590.952	469.221	0.058	0.132
-589.938	17.635	-0.069	-0.055
-588.923	322.849	-0.115	-0.221
-587.909	10.785	-0.244	0.187
-586.894	286.753	0.143	0.261
-585.879	204.933	0.017	-0.027
-584.865	412.948	-0.143	-0.305
-583.850	28.108	-0.254	-0.216
-582.836	-128.826	-0.366	0.052
-581.821	800.000	-0.057	0.215
-580.806	-200.000	0.066	-0.295
-579.792	220.042	-0.095	-0.152
-578.777	561.385	-0.116	-0.282
-577.763	800.000	-0.082	-0.239
-576.748	-65.183	0.067	0.027
-575.733	-180.470	0.328	0.007
-574.719	800.000	0.071	-0.296
-573.704	-200.000	0.014	-0.066
-572.690	800.000	0.033	-0.111
-571.675	130.371	-0.057	-0.073
-570.661	-109.469	0.254	-0.054
-569.646	3.425	-0.299	-0.219
-568.631	109.618	0.115	0.138
-567.617	-200.000	0.018	0.098
-566.602	-108.438	-0.155	0.033
-565.588	-71.831	-0.356	0.133
-564.573	-41.939	0.233	0.120
-563.558	-128.485	-0.186	-0.027
-562.544	16.809	-0.243	0.193
-561.529	-164.626	-0.160	0.007
-560.515	-200.000	0.007	0.100
-559.500	-26.140	-0.253	0.149
-558.485	126.522	-0.127	0.161
-557.471	3.451	-0.074	-0.054
-556.456	-42.600	0.052	0.026
-555.442	83.781	-0.138	0.151
-554.427	-200.000	-0.029	0.000
-553.412	-71.082	-0.202	-0.076
-552.398	366.917	0.134	0.272
-551.383	9.198	-0.327	0.248
-550.369	682.565	-0.021	-0.054
-549.354	-42.999	-0.167	0.085
-548.339	-100.360	-0.177	-0.044
-547.325	800.000	0.051	0.208
-546.310	61.800	-0.348	-0.347
-545.296	618.920	0.146	-0.368
-544.281	800.000	0.036	0.109
-543.266	-200.000	0.037	0.209
-542.252	800.000	-0.027	-0.086
-541.237	-68.538	-0.036	-0.014
-540.223	-200.000	-0.011	-0.137
-539.208	-200.000	0.014	0.144
-538.193	-200.000	0.004	0.195
-537.179	154.516	0.236	0.325
-536.164	-39.707	-0.073	0.038
-535.150	-69.697	-0.044	-0.017
-534.135	-189.655	0.177	0.002
-533.121	146.326	0.064	0.087
-532.106	-124.407	0.060	-0.009
-531.091	-33.941	0.032	0.017
-530.077	800.000	-0.106	-0.379
-529.062	108.655	0.090	-0.108
-528.048	800.000	-0.018	-0.075
-527.033	111.666	0.096	-0.116
-526.018	15.546	0.275	0.217
-525.004	-70.036	0.227	-0.087
-523.989	-93.310	0.192	0.053
-522.975	97.698	0.093	-0.107
-521.960	-200.000	0.011	0.212
-520.945	800.000	-0.089	-0.279
-519.931	-200.000	0.018	-0.272
-518.916	-6.591	0.125	-0.085
-517.902	800.000	-0.024	0.086
-516.887	136.750	0.213	-0.279
-515.872	-46.948	0.095	0.047
-514.858	101.869	-0.216	-0.252
-513.843	-81.317	-0.127	0.042
-512.829	-122.008	0.113	0.019
-511.814	-44.722	-0.338	0.169
-510.799	-200.000	-0.019	-0.171
-509.785	-53.694	0.084	-0.039
-508.770	-200.000	0.015	-0.311
-507.756	-70.194	-0.303	-0.116
-506.741	-200.000	-0.008	-0.239
-505.726	484.458	-0.057	-0.130
-504.712	-49.850	0.124	-0.059
-503.697	-34.412	0.332	-0.183
-502.683	547.320	0.145	0.348
-501.668	-17.241	0.143	0.090
-500.653	-78.568	-0.130	0.045
-499.639	341.228	0.038	-0.075
-498.624	80.362	0.103	0.111
-497.610	212.632	-0.096	-0.151
-496.595	11.024	0.133	-0.102
-495.581	-72.967	0.011	0.004
-494.566	-1.412	0.228	-0.161
-493.551	483.062	-0.061	-0.139
-492.537	-200.000	0.054	-0.410
-491.522	401.823	-0.009	-0.020
-490.508	-140.367	0.233	0.024
-489.493	119.286	-0.050	-0.061
-488.478	-108.934	-0.341	-0.073
-487.464	162.293	-0.087	-0.122
-486.449	-200.000	-0.017	-0.244
-485.435	134.711	0.096	0.124
-484.420	-156.420	-0.299	0.019
-483.405	-115.646	-0.301	-0.057
-482.391	800.000	-0.057	0.161
-481.376	31.116	0.311	-0.267
-480.362	10.101	-0.193	0.147
-479.347	155.440	-0.164	0.226
-478.332	800.000	-0.096	0.271
-477.318	-42.346	0.292	0.149
-476.303	-14.326	0.026	0.017
-475.289	-94.821	-0.264	-0.072
-474.274	-48.015	0.385	-0.186
-473.259	234.293	0.134	-0.221
-472.245	82.767	0.160	-0.174
-471.230	-47.493	0.444	-0.216
-470.216	-200.000	-0.073	-0.349
-469.201	61.705	-0.155	-0.155
-468.186	2.321	-0.215	-0.156
-467.172	191.436	-0.027	0.041
-466.157	328.542	0.109	-0.209
-465.143	-200.000	0.005	0.024
-464.128	-12.371	0.178	0.116
-463.113	-74.535	-0.265	0.095
-462.099	-200.000	0.000	0.319
-461.084	-137.319	0.115	0.013
-460.070	107.014	-0.212	0.252
-459.055	-52.911	-0.253	-0.116
-458.040	133.219	0.234	-0.302
-457.026	43.536	0.056	-0.051
-456.011	356.651	0.091	-0.180
-454.997	12.209	0.170	-0.131
-453.982	-36.908	0.321	0.172
-452.968	170.393	0.142	-0.203
-451.953	-200.000	0.009	-0.205
-450.938	-68.866	0.312	0.120
-449.924	800.000	0.035	0.130
-448.909	31.728	0.120	0.103
-447.895	-112.393	-0.361	0.072
-446.880	386.525	0.033	0.068
-445.865	7.392	-0.062	0.046
-444.851	-23.050	-0.239	-0.144
-443.836	-200.000	0.009	0.214
-442.822	-138.744	0.120	-0.013
-441.807	-132.371	0.220	-0.028
-440.792	-184.713	0.234	-0.004
-439.778	-182.039	-0.298	0.006
-438.763	-143.475	0.016	-0.002
-437.749	-200.000	0.050	-0.342
-436.734	-105.703	0.222	0.050
-435.719	-200.000	-0.068	0.312
-434.705	293.877	0.119	-0.216
-433.690	-81.003	-0.189	-0.063
-432.676	-29.211	-0.401	-0.229
-431.661	800.000	-0.018	-0.076
-430.646	-140.913	0.351	0.036
-429.632	109.577	-0.059	-0.071
-428.617	55.538	-0.159	-0.154
-427.603	-94.674	0.386	0.105
-426.588	-30.375	0.216	0.122
-425.573	800.000	-0.026	-0.095
-424.559	-118.032	0.238	0.043
-423.544	213.802	-0.251	-0.396
-422.530	-200.000	-0.049	-0.336
-421.515	447.283	-0.128	0.281
-420.500	97.150	-0.061	0.070
-419.486	-164.153	0.090	0.004
-418.471	-19.470	-0.162	0.101
-417.457	-200.000	-0.095	-0.475
-416.442	-91.934	-0.230	0.065
-415.428	-31.501	-0.375	-0.210
-414.413	800.000	-0.050	-0.154
-413.398	-117.476	0.155	0.028
-412.384	-85.350	0.173	0.054
-411.369	-72.511	-0.143	-0.053
-410.355	-128.059	-0.170	0.024
-409.340	264.701	0.077	0.135
-408.325	626.767	0.154	0.388
-407.311	800.000	0.014	0.060
-406.296	439.822	0.036	0.078
-405.282	-11.266	-0.246	-0.161
-404.267	36.521	-0.043	0.038
-403.252	-127.273	-0.096	-0.014
-402.238	-200.000	-0.041	0.413
-401.223	-200.000	0.042	0.235
-400.209	785.620	-0.092	-0.251
-399.194	800.000	0.065	0.183
-398.179	-125.840	-0.150	0.023
-397.165	296.683	-0.056	-0.102
-396.150	-200.000	-0.001	-0.283
-395.136	-34.433	0.162	0.089
-394.121	800.000	-0.142	0.426
-393.106	-77.327	0.170	-0.059
-392.092	-0.169	0.268	0.190
-391.077	102.976	-0.081	0.094
-390.063	-141.631	-0.329	0.033
-389.048	-67.497	-0.188	-0.074
-388.033	800.000	0.070	-0.201
-387.019	67.699	-0.385	0.393
-386.004	-135.666	-0.212	0.025
-384.990	-141.891	0.042	0.004
-383.975	-148.850	-0.202	0.016
-382.960	-69.564	0.169	-0.064
-381.946	66.982	0.207	0.211
-380.931	-200.000	0.064	0.346
-379.917	800.000	-0.081	0.328
-378.902	244.369	0.121	0.202
-377.888	-53.687	0.241	0.110
-376.873	46.922	-0.147	-0.136
-375.858	758.985	-0.091	-0.246
-374.844	-2.207	-0.088	-0.061
-373.829	35.425	0.183	0.160
-372.815	-130.495	-0.191	-0.026
-371.800	-93.288	0.098	-0.027
-370.785	-95.993	-0.113	0.030
-369.771	7.290	-0.117	-0.087
-368.756	-28.596	-0.335	0.192
-367.742	23.346	0.109	-0.089
-366.727	-86.579	0.140	-0.043
-365.712	728.202	0.122	0.324
-364.698	645.029	0.044	-0.112
-363.683	-200.000	-0.039	0.342
-362.669	265.180	-0.144	0.250
-361.654	22.242	-0.049	-0.040
-360.639	800.000	0.095	-0.290
-359.625	166.574	0.161	-0.227
-358.610	696.954	-0.101	0.264
-357.596	27.900	-0.281	-0.236
-356.581	-122.778	0.242	-0.039
-355.566	-143.806	-0.111	-0.010
-354.552	-200.000	0.009	0.221
-353.537	-80.498	-0.185	-0.061
-352.523	-200.000	0.058	0.283
-351.508	-200.000	-0.016	-0.436
-350.493	-35.925	0.119	-0.064
-349.479	-200.000	0.009	-0.109
-348.464	295.422	-0.076	0.139
-347.450	201.935	-0.129	-0.198
-346.435	-119.095	0.494	-0.086
-345.420	0.950	-0.427	0.305
-344.406	6.176	-0.229	0.169
-343.391	-200.000	0.004	-0.065
-342.377	-200.000	0.025	-0.211
-341.362	365.833	0.203	-0.408
-340.348	-73.775	0.348	-0.126
-339.333	177.244	-0.159	0.231
-338.318	-178.070	0.138	-0.003
-337.304	-200.000	-0.003	0.417
-336.289	303.860	0.128	-0.236
-335.275	-160.001	0.039	-0.002
-334.260	-200.000	-0.053	0.382
-333.245	-90.045	-0.346	0.100
-332.231	-200.000	0.020	0.222
-331.216	106.498	-0.207	0.244
-330.202	-180.769	-0.154	-0.003
-329.187	800.000	0.044	-0.126
-328.172	109.643	-0.176	-0.210
-327.158	85.149	0.208	0.227
-326.143	678.621	0.028	0.073
-325.129	-200.000	-0.026	-0.153
-324.114	147.094	-0.056	-0.075
-323.099	-108.318	0.301	-0.065
-322.085	-133.484	0.102	0.013
-321.070	800.000	-0.032	-0.127
-320.056	590.107	-0.132	0.324
-319.041	-23.933	0.204	-0.121
-318.026	800.000	0.050	-0.193
-317.012	11.660	-0.076	0.058
-315.997	320.017	-0.087	0.164
-314.983	-130.159	-0.050	0.007
-313.968	-144.137	-0.311	-0.029
-312.953	-51.999	0.364	-0.168
-311.939	28.908	0.108	-0.091
-310.924	-0.527	0.254	0.179
-309.910	-200.000	-0.009	-0.051
-308.895	771.185	0.092	0.250
-307.880	5.348	0.165	-0.121
-306.866	-108.647	-0.071	-0.015
-305.851	-87.609	0.226	-0.068
-304.837	-93.142	-0.097	0.027
-303.822	43.455	-0.103	0.093
-302.807	270.630	0.051	0.089
-301.793	-134.258	0.189	-0.023
-300.778	-200.000	-0.022	-0.127
-299.764	-58.495	0.105	0.045
-298.749	110.724	0.090	0.107
-297.735	-7.568	0.317	-0.213
-296.720	-200.000	-0.006	0.187
-295.705	-182.753	0.173	-0.003
-294.691	328.056	-0.087	0.165
-293.676	-174.429	0.405	-0.012
-292.662	-68.406	-0.375	0.145
-291.647	137.866	0.073	0.096
-290.632	363.966	0.117	0.233
-289.618	414.893	0.076	0.161
-288.603	-110.804	0.326	0.067
-287.589	93.493	-0.104	0.117
-286.574	390.454	0.138	0.284
-285.559	-104.665	0.131	0.030
-284.545	266.024	0.120	0.207
-283.530	800.000	0.142	-0.452
-282.516	574.251	0.071	0.173
-281.501	-141.088	-0.238	0.024
-280.486	-86.629	0.148	-0.045
-279.472	800.000	0.047	-0.190
-278.457	116.115	0.101	-0.123
-277.443	-200.000	0.058	-0.285
-276.428	355.450	-0.052	-0.103
-275.413	-200.000	-0.020	-0.161
-274.399	-138.105	0.351	-0.039
-273.384	-45.298	-0.232	-0.114
-272.370	198.620	-0.221	0.335
-271.355	800.000	-0.079	0.294
-270.340	93.250	-0.081	0.091
-269.326	-118.235	-0.268	0.047
-268.311	528.833	0.006	-0.015
-267.297	-92.804	0.198	-0.055
-266.282	-84.060	-0.487	-0.154
-265.267	154.020	0.219	0.297
-264.253	-124.877	0.255	0.039
-263.238	-18.919	-0.212	0.131
-262.224	-167.363	-0.124	-0.005
-261.209	-200.000	-0.086	-0.509
-260.195	-32.768	0.118	0.065
-259.180	52.041	0.227	0.215
-258.165	-87.704	-0.126	-0.038
-257.151	499.745	0.074	0.169
-256.136	-93.664	-0.092	0.025
-255.122	-141.043	0.479	0.049
-254.107	120.639	0.138	-0.170
-253.092	800.000	-0.089	-0.295
-252.078	-28.340	-0.150	0.086
-251.063	-200.000	-0.049	0.416
-250.049	143.790	0.163	-0.215
-249.034	-27.355	-0.148	-0.086
-248.019	800.000	0.027	0.090
-247.005	-200.000	0.047	0.241
-245.990	-106.014	0.239	-0.053
-244.976	6.695	0.279	0.206
-243.961	-32.659	-0.294	0.162
-242.946	160.624	-0.079	-0.110
-241.932	81.450	0.130	0.139
-240.917	237.075	0.180	0.296
-239.903	-121.690	0.165	-0.027
-238.888	-54.456	-0.274	-0.123
-237.873	-149.585	-0.205	-0.016
-236.859	-145.298	0.472	-0.042
-235.844	111.148	-0.097	0.116
-234.830	-75.946	-0.118	-0.041
-233.815	-53.955	0.127	0.057
-232.800	483.365	0.087	-0.195
-231.786	-152.462	0.190	-0.014
-230.771	-39.393	0.131	0.068
-229.757	-128.659	-0.178	-0.025
-228.742	88.464	-0.057	0.062
-227.727	143.644	0.237	-0.313
-226.713	-121.047	-0.153	-0.026
-225.698	24.527	0.077	-0.063
-224.684	71.940	0.097	0.100
-223.669	-200.000	0.021	0.103
-222.655	-200.000	0.067	0.357
-221.640	-57.541	-0.146	0.064
-220.625	-123.688	-0.197	-0.031
-219.611	-119.615	0.207	0.036
-218.596	-200.000	0.009	-0.060
-217.582	-40.923	-0.115	-0.059
-216.567	-200.000	0.043	-0.297
-215.552	-200.000	0.000	-0.025
-214.538	-83.637	-0.327	0.104
-213.523	92.657	0.126	0.141
-212.509	800.000	-0.046	-0.176
-211.494	-39.106	0.266	-0.139
-210.479	-37.140	-0.211	0.112
-209.465	20.472	0.078	0.063
-208.450	71.833	0.096	0.099
-207.436	-200.000	0.051	-0.334
-206.421	-19.122	-0.169	0.104
-205.406	-93.622	0.171	0.047
-204.392	800.000	-0.040	-0.140
-203.377	800.000	0.054	0.171
-202.363	482.254	0.075	0.169
-201.348	-136.065	-0.294	-0.034
-200.333	64.901	-0.104	-0.104
-199.319	-29.883	-0.238	-0.134
-198.304	8.307	-0.255	-0.189
-197.290	64.907	-0.314	-0.314
-196.275	-40.788	0.126	-0.064
-195.260	-76.768	0.263	0.091
-194.246	317.007	0.119	0.222
-193.231	-200.000	0.029	-0.152
-192.217	-135.414	0.168	0.020
-191.202	-200.000	0.013	-0.271
-190.187	-36.918	0.363	-0.192
-189.173	-120.592	0.404	0.068
-188.158	-200.000	-0.027	-0.137
-187.144	122.340	0.215	0.265
-186.129	-121.511	0.170	-0.028
-185.114	-19.709	0.320	-0.196
-184.100	-77.639	0.055	-0.019
-183.085	-200.000	-0.013	0.129
-182.071	-33.953	-0.237	-0.129
-181.056	18.387	-0.241	-0.191
-180.042	432.229	-0.152	0.325
-179.027	367.011	-0.088	0.175
-178.012	2.808	-0.263	-0.189
-176.998	-141.371	0.125	-0.012
-175.983	-158.231	0.295	0.017
-174.969	-44.394	0.221	0.109
-173.954	-141.939	0.041	-0.004
-172.939	-128.744	-0.366	-0.051
-171.925	200.778	0.060	-0.092
-170.910	-16.616	-0.135	0.085
-169.896	610.730	0.194	-0.480
-168.881	-127.105	0.298	-0.043
-167.866	-124.237	0.347	-0.054
-166.852	-71.229	0.157	0.058
-165.837	20.044	0.312	0.249
-164.823	306.568	-0.198	0.365
-163.808	44.691	0.106	0.096
-162.793	-200.000	-0.177	0.000
-161.779	3.085	0.160	-0.115
-160.764	-29.770	0.231	0.130
-159.750	800.000	0.129	0.447
-158.735	800.000	-0.084	0.307
-157.720	298.774	0.113	0.206
-156.706	163.518	0.166	-0.230
-155.691	-82.050	0.306	-0.099
-154.677	277.603	-0.069	-0.122
-153.662	65.713	-0.082	-0.082
-152.647	-109.456	0.076	0.016
-151.633	800.000	0.085	0.335
-150.618	13.679	0.188	-0.144
-149.604	800.000	-0.060	-0.227
-148.589	353.551	0.111	-0.219
-147.574	-200.000	-0.057	-0.430
-146.560	54.951	-0.281	-0.268
-145.545	-142.193	-0.191	-0.019
-144.531	800.000	0.071	0.228
-143.516	9.249	0.130	0.097
-142.502	144.096	0.047	-0.062
-141.487	278.035	-0.160	-0.281
-140.472	-51.350	-0.330	0.152
-139.458	-5.422	0.085	-0.057
-138.443	46.781	0.157	-0.144
-137.429	12.211	0.185	0.141
-136.414	-129.028	-0.010	0.001
-135.399	-200.000	-0.009	0.133
-134.385	-11.344	0.113	-0.073
-133.370	-200.000	0.012	0.220
-132.356	-200.000	-0.038	0.301
-131.341	621.800	0.102	0.253
-130.326	364.254	0.189	0.375
-129.312	-160.078	-0.157	-0.008
-128.297	687.946	-0.088	-0.228
-127.283	-21.324	0.429	-0.258
-126.268	-200.000	0.005	-0.170
-125.253	-131.081	-0.192	-0.025
-124.239	385.759	0.135	0.274
-123.224	229.526	0.103	-0.166
-122.210	-94.323	0.115	0.031
-121.195	-27.713	0.019	0.011
-120.180	-87.542	0.188	0.056
-119.166	-74.213	0.249	0.089
-118.151	140.089	-0.297	-0.386
-117.137	-200.000	0.017	0.415
-116.122	-187.914	0.130	-0.002
-115.107	-43.319	-0.029	0.015
-114.093	-200.000	0.003	-0.109
-113.078	387.940	0.020	-0.042
-112.064	-200.000	-0.070	0.339
-111.049	196.841	0.199	0.300
-110.034	-82.774	0.144	-0.046
-109.020	407.057	-0.071	0.148
-108.005	-36.997	0.098	0.052
-106.991	-200.000	-0.014	-0.256
-105.976	800.000	-0.005	-0.018
-104.962	47.741	0.190	-0.175
-103.947	-200.000	-0.010	0.142
-102.932	103.402	0.095	0.110
-101.918	800.000	-0.068	-0.279
-100.903	-105.443	0.116	-0.026
-99.889	-185.358	0.095	0.001
-98.874	40.600	0.167	0.149
-97.859	109.931	0.060	0.071
-96.845	-12.749	0.136	-0.088
-95.830	-146.287	0.054	-0.005
-94.816	-71.740	-0.306	-0.112
-93.801	-20.707	-0.112	-0.068
-92.786	-19.879	-0.143	-0.087
-91.772	68.896	-0.070	-0.071
-90.757	778.593	-0.097	-0.262
-89.743	-99.617	-0.332	0.082
-88.728	32.574	-0.305	0.260
-87.713	800.000	0.077	-0.251
-86.699	-66.798	-0.415	-0.162
-85.684	42.083	-0.141	-0.126
-84.670	49.893	-0.144	-0.133
-83.655	324.411	-0.249	-0.468
-82.640	800.000	-0.049	-0.147
-81.626	505.289	0.101	0.230
-80.611	-169.871	0.189	0.007
-79.597	202.516	0.152	-0.231
-78.582	-42.358	-0.172	-0.087
-77.567	-200.000	-0.009	0.156
-76.553	218.745	0.156	0.245
-75.538	163.401	0.031	-0.042
-74.524	193.283	0.132	0.197
-73.509	-87.714	0.352	-0.105
-72.494	3.030	-0.433	0.310
-71.480	-154.272	0.468	0.031
-70.465	57.662	-0.062	0.059
-69.451	171.779	0.266	-0.377
-68.436	800.000	0.098	-0.341
-67.422	632.895	0.171	0.426
-66.407	-5.057	-0.028	-0.019
-65.392	-97.911	0.187	-0.048
-64.378	395.317	0.216	-0.443
-63.363	-200.000	-0.021	-0.206
-62.349	25.090	0.256	-0.209
-61.334	48.323	-0.888	-0.819
-60.319	145.481	0.422	0.556
-59.305	-200.000	-0.119	-0.724
-58.290	578.399	0.444	1.070
-57.276	800.000	0.387	1.380
-56.261	-200.000	95.157	597.136
-55.246	680.510	1366.536	3503.403
-54.232	200.238	2540.525	3841.602
-53.217	121.551	2160.481	2650.728
-52.203	43.113	1706.224	1532.562
-51.188	35.418	1519.147	1312.115
-50.173	33.028	1492.611	1273.064
-49.159	52.251	1541.090	1446.419
-48.144	54.302	1558.169	1476.431
-47.130	35.643	1518.310	1312.726
-46.115	32.523	1503.844	1279.014
-45.100	32.350	1500.418	1274.873
-44.086	32.192	1498.835	1272.408
-43.071	32.196	1496.783	1270.643
-42.057	32.290	1494.452	1269.247
-41.042	32.158	1493.294	1267.324
-40.027	32.207	1492.056	1266.553
-39.013	32.206	1490.555	1265.226
-37.998	32.207	1489.455	1264.244
-36.984	32.213	1488.196	1263.167
-35.969	32.262	1486.858	1262.314
-34.954	32.219	1485.748	1261.028
-33.940	32.197	1484.231	1259.548
-32.925	32.202	1482.718	1258.248
-31.911	32.317	1481.076	1257.573
-30.896	32.246	1480.037	1256.165
-29.881	32.330	1478.451	1255.327
-28.867	32.292	1477.259	1254.014
-27.852	32.251	1475.976	1252.601
-26.838	32.217	1474.793	1251.323
-25.823	32.296	1472.862	1250.157
-24.809	32.188	1471.334	1248.094
-23.794	32.256	1470.003	1247.369
-22.779	32.156	1468.922	1245.736
-21.765	32.138	1467.518	1244.380
-20.750	32.186	1466.342	1243.647
-19.736	32.211	1465.248	1242.839
-18.721	32.159	1464.362	1241.694
-17.706	32.104	1463.261	1240.348
-16.692	32.194	1461.968	1239.796
-15.677	32.204	1460.766	1238.795
-14.663	32.158	1460.217	1237.975
-13.648	32.178	1458.737	1236.805
-12.633	32.185	1458.171	1236.317
-11.619	32.116	1457.241	1235.028
-10.604	32.193	1456.348	1234.732
-9.590	32.077	1455.993	1233.617
-8.575	32.126	1454.838	1232.913
-7.560	32.141	1454.266	1232.476
-6.546	32.006	1453.703	1231.065
-5.531	32.165	1451.927	1230.550
-4.517	32.119	1451.182	1229.572
-3.502	32.076	1450.144	1228.362
-2.487	32.131	1448.964	1227.669
-1.473	32.112	1447.955	1226.645
-0.458	32.127	1446.625	1225.571
0.556	30.879	1437.374	1214.523
1.571	28.092	1411.489	1174.675
2.586	24.603	1351.960	1103.525
3.600	22.904	1269.988	1026.659
4.615	21.521	1224.413	981.971
5.629	18.573	1168.099	920.920
6.644	10.984	1085.301	817.569
7.659	5.281	1045.941	760.163
8.673	4.620	1040.371	752.847
9.688	4.655	1037.157	750.627
10.702	4.620	1035.699	749.336
11.717	4.425	1034.243	747.277
12.731	6.591	1035.650	758.656
13.746	13.550	1045.260	799.311
14.761	18.487	1051.464	827.891
15.775	18.510	1050.364	827.063
16.790	17.487	1048.055	820.245
17.804	16.479	1045.382	813.233
18.819	15.475	1044.121	807.354
19.834	14.949	1043.071	803.942
20.848	14.797	1042.028	802.337
21.863	14.591	1040.921	800.430
22.877	14.436	1040.109	798.989
23.892	14.161	1039.720	797.304
24.907	14.095	1038.609	796.066
25.921	14.048	1038.219	795.468
26.936	14.126	1037.387	795.132
27.950	14.089	1036.305	794.060
28.965	14.146	1035.143	793.369
29.980	14.212	1034.028	792.761
30.994	14.271	1032.894	792.100
32.009	14.253	1032.401	791.564
33.023	14.397	1031.870	791.776
34.038	14.359	1030.849	790.739
35.053	14.319	1029.489	789.436
36.067	14.314	1028.408	788.513
37.082	14.236	1028.015	787.777
38.096	14.162	1027.405	786.886
39.111	14.245	1026.254	786.328
40.126	14.314	1025.585	786.070
41.140	14.306	1024.559	785.176
42.155	14.127	1023.326	783.323
43.169	13.996	1022.517	782.016
44.184	14.066	1021.010	781.121
45.199	13.947	1020.013	779.732
46.213	14.078	1018.932	779.450
47.228	14.053	1018.190	778.697
48.242	14.118	1017.075	778.078
49.257	14.309	1016.054	778.125
50.271	14.233	1015.073	776.950
51.286	14.231	1014.152	776.167
52.301	14.259	1013.391	775.645
53.315	14.320	1013.017	775.573
54.330	14.194	1011.907	774.072
55.344	14.195	1010.952	773.274
56.359	14.068	1009.938	771.841
57.374	14.089	1009.227	771.327
58.388	14.154	1008.228	770.799
59.403	14.093	1007.957	770.240
60.417	13.980	1007.225	769.086
61.432	13.968	1006.129	768.126
62.447	14.056	1005.479	767.971
63.461	13.967	1004.534	766.771
64.476	13.860	1003.960	765.770
65.490	13.911	1002.735	765.005
66.505	13.923	1002.057	764.473
67.520	13.936	1001.207	763.817
68.534	13.949	1000.518	763.285
69.549	14.062	999.882	763.250
70.563	14.021	999.174	762.453
71.578	13.950	998.439	761.500
72.593	13.916	997.440	760.516
73.607	13.757	996.861	759.276
74.622	13.763	995.614	758.288
75.636	13.711	995.022	757.534
76.651	13.854	993.961	757.309
77.666	13.805	993.604	756.748
78.680	13.854	992.981	756.429
79.695	13.889	992.143	755.882
80.709	13.856	992.207	755.715
81.724	14.092	990.772	755.628
82.739	14.130	989.524	754.783
83.753	14.061	989.492	754.380
84.768	14.157	988.659	754.112
85.782	14.207	987.898	753.692
86.797	14.419	987.126	753.996
87.812	14.381	986.239	753.078
88.826	14.184	985.708	751.716
89.841	14.201	984.377	750.711
90.855	14.289	983.665	750.498
91.870	14.335	982.775	749.960
92.884	14.434	982.458	750.096
93.899	14.376	981.815	749.278
94.914	14.354	981.245	748.681
95.928	14.416	980.296	748.167
96.943	14.504	979.387	747.804
97.957	14.370	978.525	746.475
98.972	14.255	978.043	745.528
99.987	14.410	977.202	745.514
101.001	14.462	976.246	744.951
102.016	14.267	975.773	743.654
103.030	14.166	974.939	742.502
104.045	14.331	973.904	742.382
105.060	14.365	972.585	741.463
106.074	14.357	971.696	740.686
107.089	14.169	970.912	739.186
108.103	14.016	970.453	738.094
109.118	14.023	969.401	737.257
110.133	14.123	968.185	736.711
111.147	14.003	967.744	735.778
112.162	13.875	966.826	734.449
113.176	14.056	965.848	734.441
114.191	14.127	965.040	734.078
115.206	14.062	964.350	733.198
116.220	14.166	963.377	732.851
117.235	14.010	963.058	731.858
118.249	14.088	961.776	731.164
119.264	14.010	961.153	730.281
120.279	13.854	960.653	729.149
121.293	14.041	959.385	728.945
122.308	13.899	958.705	727.739
123.322	14.068	957.083	727.183
124.337	13.966	956.512	726.239
125.352	13.995	955.290	725.375
126.366	13.883	954.268	724.048
127.381	13.981	953.534	723.853
128.395	13.791	952.967	722.530
129.410	13.931	951.861	722.239
130.424	14.054	950.794	721.899
131.439	14.008	949.895	720.954
132.454	14.042	949.111	720.440
133.468	14.127	948.320	720.143
134.483	14.114	947.861	719.677
135.497	14.050	947.413	718.997
136.512	14.097	946.197	718.212
137.527	14.138	945.629	717.896
138.541	14.079	945.138	717.205
139.556	14.166	944.098	716.726
140.570	14.071	943.802	716.030
141.585	14.266	942.752	716.009
142.600	14.388	942.293	716.121
143.614	14.289	941.344	714.909
144.629	14.263	940.700	714.248
145.643	14.433	939.997	714.379
146.658	14.549	938.528	713.695
147.673	14.433	937.708	712.514
148.687	14.201	937.478	711.283
149.702	14.215	936.559	710.584
150.716	14.241	935.303	709.677
151.731	14.339	934.146	709.153
152.746	14.231	933.851	708.409
153.760	14.120	933.347	707.490
154.775	14.139	932.604	706.944
155.789	14.211	931.983	706.717
156.804	14.234	931.136	706.111
157.819	14.394	930.253	706.056
158.833	14.346	929.830	705.471
159.848	14.350	929.230	704.971
160.862	14.510	928.219	704.815
161.877	14.429	927.696	704.015
162.892	14.423	926.683	703.159
163.906	14.281	925.807	701.835
164.921	14.385	924.542	701.250
165.935	14.357	923.818	700.519
166.950	14.284	923.175	699.665
167.964	14.363	922.382	699.332
168.979	14.328	921.419	698.397
169.994	14.307	920.286	697.384
171.008	14.251	919.696	696.645
172.023	14.377	918.715	696.365
173.037	14.445	917.938	695.998
174.052	14.492	917.378	695.709
175.067	14.441	916.952	695.113
176.081	14.400	916.360	694.429
177.096	14.344	915.039	693.136
178.110	14.264	914.268	692.155
179.125	14.348	913.741	692.047
180.140	14.333	913.473	691.717
181.154	14.408	912.250	691.041
182.169	14.432	912.131	690.989
183.183	14.441	911.130	690.209
184.198	14.673	910.052	690.292
185.213	14.578	909.763	689.617
186.227	14.636	909.063	689.265
187.242	14.554	909.112	688.904
188.256	14.761	908.275	689.061
189.271	14.713	907.427	688.159
190.286	14.773	906.367	687.541
191.300	14.596	905.913	686.406
192.315	14.326	905.264	684.745
193.329	14.330	904.365	684.020
194.344	14.357	903.278	683.249
195.359	14.431	902.814	683.142
196.373	14.583	902.610	683.550
197.388	14.540	901.843	682.731
198.402	14.653	901.686	683.014
199.417	14.848	901.240	683.414
200.432	14.838	900.829	683.000
201.446	14.973	900.079	682.923
202.461	14.967	900.367	683.059
203.475	15.193	899.012	682.891
204.490	15.084	898.445	681.954
205.504	14.923	897.697	680.670
206.519	14.889	896.912	679.878
207.534	15.057	896.048	679.845
208.548	14.842	895.780	678.708
209.563	14.781	894.634	677.532
210.577	14.839	894.574	677.664
211.592	14.876	893.462	676.909
212.607	15.014	893.598	677.511
213.621	15.038	892.837	676.970
214.636	14.981	892.577	676.484
215.650	14.917	891.737	675.530
216.665	15.027	890.603	675.054
217.680	15.093	890.482	675.168
218.694	15.199	889.893	675.089
219.709	15.075	889.313	674.092
220.723	15.117	888.660	673.705
221.738	15.188	887.738	673.233
222.753	15.148	887.177	672.586
223.767	15.208	886.095	671.948
224.782	15.132	885.921	671.453
225.796	15.176	885.194	671.015
226.811	15.265	884.576	670.846
227.826	15.301	883.596	670.187
228.840	15.190	882.998	669.229
229.855	15.167	882.649	668.815
230.869	14.988	882.163	667.674
231.884	15.197	880.820	667.431
232.899	15.121	880.319	666.688
233.913	15.177	879.394	666.153
234.928	15.057	879.039	665.347
235.942	15.041	878.484	664.806
236.957	15.105	877.556	664.296
237.972	14.974	877.149	663.412
238.986	15.062	876.827	663.458
240.001	15.057	875.495	662.371
241.015	15.086	875.022	662.071
242.030	15.180	874.538	662.015
243.045	15.179	873.873	661.450
244.059	15.249	873.109	661.091
245.074	15.321	872.621	660.946
246.088	15.218	871.963	659.982
247.103	15.313	871.880	660.236
248.117	15.370	870.999	659.733
249.132	15.437	870.427	659.505
250.147	15.525	869.844	659.352
251.161	15.675	869.408	659.553
252.176	15.793	868.320	659.132
253.190	15.814	867.751	658.722
254.205	15.583	867.843	657.829
255.220	15.753	867.239	657.979
256.234	15.713	866.329	657.074
257.249	15.767	865.591	656.666
258.263	15.720	865.514	656.368
259.278	15.781	864.864	656.051
260.293	15.863	864.060	655.706
261.307	15.860	863.714	655.372
262.322	15.921	862.853	654.898
263.336	15.880	862.502	654.415
264.351	15.988	861.880	654.304
265.366	15.974	861.551	653.942
266.380	16.018	860.383	653.167
267.395	15.982	859.792	652.524
268.409	16.073	859.069	652.267
269.424	15.987	858.291	651.287
270.439	15.964	857.732	650.716
271.453	15.877	857.100	649.843
272.468	15.863	856.103	648.975
273.482	15.851	855.511	648.425
274.497	15.804	855.148	647.911
275.512	15.891	854.271	647.523
276.526	15.918	853.292	646.826
277.541	15.877	853.037	646.421
278.555	15.938	852.556	646.232
279.570	16.013	851.895	645.959
280.585	16.054	851.398	645.686
281.599	16.151	850.790	645.538
282.614	16.208	849.784	644.937
283.628	16.060	849.303	643.947
284.643	16.033	849.082	643.621
285.657	16.051	848.331	643.062
286.672	15.979	848.233	642.658
287.687	15.966	848.010	642.380
288.701	16.252	846.689	642.411
289.716	16.172	846.861	642.181
290.730	16.143	845.987	641.352
291.745	16.125	845.467	640.833
292.760	16.244	844.457	640.462
293.774	16.147	844.138	639.793
294.789	16.385	843.660	640.278
295.803	16.365	843.022	639.663
296.818	16.235	842.389	638.634
297.833	16.339	841.753	638.488
298.847	16.435	840.925	638.164
299.862	16.177	840.457	636.779
300.876	16.206	839.649	636.220
301.891	16.210	839.201	635.841
302.906	16.380	838.463	635.863
303.920	16.444	837.932	635.646
304.935	16.323	837.332	634.679
305.949	16.491	836.840	634.883
306.964	16.657	836.303	635.040
307.979	16.396	835.555	633.439
308.993	16.427	835.066	633.129
310.008	16.350	834.947	632.693
311.022	16.382	834.363	632.316
312.037	16.554	833.485	632.236
313.052	16.581	832.976	631.895
314.066	16.412	832.466	630.821
315.081	16.186	831.748	629.378
316.095	16.429	831.006	629.668
317.110	16.304	830.890	629.058
318.125	16.384	829.969	628.602
319.139	16.523	829.179	628.466
320.154	16.469	829.405	628.379
321.168	16.574	828.555	628.070
322.183	16.393	828.158	627.043
323.197	16.475	827.558	626.835
324.212	16.508	827.035	626.506
325.227	16.499	826.517	626.026
326.241	16.562	826.007	625.817
327.256	16.572	825.334	625.290
328.270	16.441	824.903	624.422
329.285	16.624	824.269	624.563
330.300	16.618	823.660	624.023
331.314	16.532	822.897	623.076
332.329	16.559	822.775	623.028
333.343	16.735	821.644	622.764
334.358	16.653	821.640	622.403
335.373	16.660	821.292	622.108
336.387	16.696	820.458	621.556
337.402	16.631	819.925	620.859
338.416	16.817	819.323	621.027
339.431	16.880	818.578	620.642
340.446	16.990	817.970	620.526
341.460	17.033	817.668	620.399
342.475	16.956	817.249	619.745
343.489	17.150	816.672	619.963
344.504	17.142	816.111	619.453
345.519	17.064	815.658	618.768
346.533	17.298	814.846	618.952
347.548	17.224	814.953	618.706
348.562	17.093	814.051	617.491
349.577	16.955	813.432	616.465
350.592	16.993	812.846	616.103
351.606	16.839	812.452	615.193
352.621	16.872	812.114	615.002
353.635	16.829	811.863	614.601
354.650	16.944	811.342	614.570
355.665	16.922	811.047	614.210
356.679	16.965	810.736	614.077
357.694	16.876	810.433	613.470
358.708	17.049	809.446	613.295
359.723	17.099	808.647	612.817
360.738	16.985	808.551	612.279
361.752	17.011	807.955	611.864
362.767	17.100	807.394	611.707
363.781	17.005	807.460	611.362
364.796	17.292	806.695	611.760
365.810	17.284	806.127	611.246
366.825	17.366	805.680	611.149
367.840	17.363	805.542	610.980
368.854	17.394	805.135	610.727
369.869	17.348	804.911	610.339
370.883	17.330	803.738	609.332
371.898	17.600	803.168	609.810
372.913	17.476	802.692	608.951
373.927	17.454	802.168	608.423
374.942	17.473	801.446	607.889
375.956	17.342	800.894	606.947
376.971	17.593	800.171	607.244
377.986	17.682	799.887	607.291
379.000	17.749	799.432	607.130
380.015	17.609	798.887	606.164
381.029	17.725	798.159	605.969
382.044	17.691	797.681	605.431
383.059	17.730	797.178	605.135
384.073	17.812	796.438	604.809
385.088	17.741	796.132	604.273
386.102	17.746	795.458	603.727
387.117	17.472	795.299	602.583
388.132	17.558	794.595	602.299
389.146	17.471	794.364	601.763
390.161	17.665	794.016	602.131
391.175	17.682	793.834	602.002
392.190	17.696	793.346	601.628
393.205	17.705	792.721	601.132
394.219	17.744	792.156	600.786
395.234	17.626	791.750	600.011
396.248	17.607	791.293	599.545
397.263	17.428	790.700	598.411
398.278	17.421	790.336	598.060
399.292	17.493	790.002	598.006
400.307	17.589	789.339	597.789
401.321	17.560	788.905	597.305
402.336	17.495	788.785	596.934
403.350	17.536	788.802	597.038
404.365	17.675	787.902	596.792
405.380	17.718	787.001	596.207
406.394	17.753	787.207	596.431
407.409	17.883	786.452	596.261
408.423	17.974	786.114	596.271
409.438	17.867	785.771	595.582
410.453	18.001	785.598	595.868
411.467	18.077	784.984	595.614
412.482	18.119	784.558	595.384
413.496	18.145	783.770	594.823
414.511	18.099	783.719	594.574
415.526	18.153	783.614	594.628
416.540	18.209	782.798	594.149
417.555	18.245	782.197	593.768
418.569	18.127	782.185	593.294
419.584	18.065	781.872	592.791
420.599	18.249	780.992	592.707
421.613	155.840	1369.332	1794.167
422.628	134.495	1455.046	1794.271
