DTS Sentinel unit serial number:	SN413079Multiplexer serial number:	ORYXHardware model number:	OX4-SRSoftware version number:	ORYX F/W v4.00 Oryx Data Collector v3.7.2.0data status	okinstallation	princeton_trtdifferential loss correction	single-endedforward channel	channel 3reverse channel	N/Adate	2019/09/18time	20:40:35forward acquisition time	60.00reverse acquisition time	0.00gamma	496.2192k internal	0.2342k external	0.2342temperature offset calibration	1.0003default loss term (dB/km)	0.3790temperature slope calibration	1.0000multiplexer offset coefficient	1.0000multiplexer slope coefficient	1.0000fibre end	0.00T internal ref (°C)	27.64T ext. ref 1 (°C)	0.99T ext. ref 2 (°C)	18.72length (m)	temperature (°C)	Stokes	anti-Stokes-747.200	39.418	0.078	0.070
-746.185	-152.528	-0.175	-0.013
-745.171	31.404	0.153	0.132
-744.156	67.063	0.036	-0.037
-743.142	-200.000	-0.022	-0.131
-742.127	-170.473	-0.278	-0.010
-741.112	-27.983	-0.206	0.119
-740.098	-200.000	-0.017	0.212
-739.083	-95.120	0.051	0.014
-738.069	572.623	0.167	0.408
-737.054	228.758	-0.177	-0.289
-736.039	-97.798	-0.380	0.099
-735.025	-200.000	-0.020	0.105
-734.010	59.635	-0.108	-0.107
-732.996	-74.487	0.342	0.123
-731.981	-200.000	0.054	-0.268
-730.966	-200.000	0.001	-0.200
-729.952	645.817	0.096	-0.246
-728.937	-28.785	-0.141	-0.081
-727.923	-200.000	0.021	0.202
-726.908	-55.397	0.439	-0.197
-725.894	-70.599	0.151	0.057
-724.879	-35.856	0.271	-0.147
-723.864	-22.314	-0.324	-0.196
-722.850	-29.714	0.203	-0.116
-721.835	-176.558	0.216	0.006
-720.821	-106.647	-0.322	-0.072
-719.806	145.786	-0.156	-0.209
-718.791	-53.380	-0.283	-0.130
-717.777	-49.441	-0.458	-0.219
-716.762	-177.051	-0.385	-0.010
-715.748	396.980	0.089	-0.186
-714.733	251.827	0.052	0.089
-713.718	23.009	-0.194	0.160
-712.704	-143.848	-0.154	-0.015
-711.689	-144.161	0.459	-0.043
-710.675	-200.000	0.003	0.155
-709.660	181.578	-0.207	-0.305
-708.645	-200.000	0.054	-0.288
-707.631	-141.675	-0.486	-0.049
-706.616	150.444	-0.054	0.074
-705.602	-29.187	0.254	-0.146
-704.587	-80.328	0.103	0.034
-703.572	-200.000	-0.024	-0.302
-702.558	800.000	-0.063	0.247
-701.543	-86.739	0.305	0.093
-700.529	-200.000	0.053	0.309
-699.514	119.586	0.113	0.140
-698.499	199.711	0.185	0.283
-697.485	-200.000	-0.054	-0.422
-696.470	221.188	-0.094	0.151
-695.456	-32.805	0.398	0.221
-694.441	109.076	0.008	-0.010
-693.426	66.348	-0.076	-0.077
-692.412	-71.352	0.317	-0.119
-691.397	-200.000	0.017	0.119
-690.383	-84.259	0.085	-0.027
-689.368	140.259	-0.144	-0.190
-688.354	-2.644	0.232	0.162
-687.339	-133.315	-0.302	-0.038
-686.324	-200.000	0.015	0.368
-685.310	-47.572	-0.165	0.080
-684.295	227.952	-0.103	-0.168
-683.281	442.265	0.102	0.223
-682.266	-40.708	-0.161	0.083
-681.251	81.561	-0.194	0.210
-680.237	-200.000	-0.042	0.467
-679.222	277.420	-0.099	0.176
-678.208	-57.399	0.130	-0.057
-677.193	-200.000	0.056	-0.295
-676.178	-37.893	-0.100	-0.053
-675.164	-67.482	-0.134	0.053
-674.149	569.337	0.073	0.176
-673.135	-23.612	0.297	-0.178
-672.120	-200.000	-0.004	-0.309
-671.105	53.849	0.044	0.043
-670.091	-186.520	-0.261	-0.004
-669.076	119.307	0.132	0.163
-668.062	406.486	0.081	0.170
-667.047	-87.637	-0.167	0.050
-666.032	-200.000	0.054	-0.410
-665.018	-13.632	-0.225	-0.146
-664.003	-129.088	-0.150	0.021
-662.989	7.347	0.377	0.281
-661.974	-45.165	-0.306	0.152
-660.959	-54.025	0.307	-0.139
-659.945	-107.573	-0.312	0.068
-658.930	-175.114	-0.163	-0.005
-657.916	63.626	-0.120	-0.120
-656.901	69.226	0.132	0.136
-655.886	-75.676	0.196	0.070
-654.872	263.581	0.080	0.140
-653.857	-44.116	0.395	0.198
-652.843	-200.000	-0.011	0.139
-651.828	38.159	-0.040	0.036
-650.814	800.000	0.065	0.245
-649.799	61.235	-0.390	0.387
-648.784	-121.172	0.283	0.047
-647.770	68.700	-0.178	-0.182
-646.755	-200.000	-0.001	0.367
-645.741	26.229	0.133	-0.110
-644.726	800.000	0.024	-0.102
-643.711	4.834	0.052	0.038
-642.697	800.000	0.147	0.454
-641.682	-7.539	-0.258	0.174
-640.668	-42.657	0.242	0.123
-639.653	-200.000	-0.009	-0.278
-638.638	800.000	-0.057	0.235
-637.624	178.392	0.114	-0.166
-636.609	-104.969	0.156	0.036
-635.595	-134.221	-0.323	0.040
-634.580	535.826	0.222	-0.525
-633.565	-200.000	0.033	-0.263
-632.551	-148.709	-0.120	0.010
-631.536	72.644	-0.095	-0.099
-630.522	-200.000	0.015	0.430
-629.507	800.000	-0.064	0.181
-628.492	-200.000	-0.044	-0.279
-627.478	-155.341	-0.158	0.010
-626.463	212.273	0.051	0.080
-625.449	-31.589	0.370	-0.207
-624.434	-38.654	0.068	0.036
-623.419	195.071	-0.228	-0.346
-622.405	-101.771	0.238	0.057
-621.390	-200.000	0.036	0.208
-620.376	-159.239	0.147	-0.008
-619.361	26.110	-0.213	0.177
-618.346	800.000	0.131	-0.465
-617.332	-25.318	-0.410	-0.242
-616.317	19.166	-0.222	-0.178
-615.303	199.835	0.103	0.158
-614.288	684.136	-0.086	0.223
-613.273	530.742	0.048	-0.114
-612.259	492.734	-0.154	-0.351
-611.244	171.321	0.110	0.157
-610.230	42.083	0.047	0.042
-609.215	-10.929	-0.202	-0.133
-608.201	21.565	0.082	-0.067
-607.186	-200.000	-0.026	-0.116
-606.171	800.000	0.046	-0.154
-605.157	-200.000	0.019	-0.358
-604.142	-200.000	0.032	0.238
-603.128	-68.916	-0.250	-0.096
-602.113	-14.889	-0.107	0.068
-601.098	-200.000	-0.002	0.138
-600.084	-200.000	0.039	0.185
-599.069	265.927	-0.035	0.061
-598.055	42.412	-0.044	0.040
-597.040	110.272	0.110	0.132
-596.025	-200.000	0.000	-0.304
-595.011	290.341	0.216	-0.390
-593.996	-83.046	0.094	-0.030
-592.982	-3.095	0.184	-0.128
-591.967	411.104	0.029	0.062
-590.952	313.587	-0.028	-0.053
-589.938	543.410	-0.070	0.167
-588.923	800.000	-0.090	0.323
-587.909	-109.466	-0.151	-0.032
-586.894	-200.000	0.023	-0.145
-585.879	-134.042	-0.294	0.036
-584.865	113.736	0.148	0.179
-583.850	-67.549	-0.209	0.082
-582.836	-137.401	0.086	-0.010
-581.821	-200.000	0.004	0.188
-580.806	-200.000	-0.001	0.380
-579.792	96.024	-0.125	-0.143
-578.777	217.516	0.143	-0.227
-577.763	-119.114	0.145	-0.025
-576.748	-18.535	0.077	-0.048
-575.733	-200.000	0.007	-0.341
-574.719	44.069	-0.178	0.162
-573.704	232.007	0.137	-0.223
-572.690	-32.670	0.299	0.166
-571.675	-68.444	-0.415	-0.160
-570.661	272.581	-0.174	0.306
-569.646	800.000	-0.088	-0.324
-568.631	-183.790	-0.106	-0.002
-567.617	281.207	-0.088	-0.157
-566.602	-80.960	-0.202	-0.067
-565.588	-110.106	-0.155	0.032
-564.573	-139.979	0.133	-0.014
-563.558	379.484	0.151	0.308
-562.544	38.001	-0.013	-0.011
-561.529	346.866	-0.176	-0.345
-560.515	-29.216	0.413	0.236
-559.500	97.249	-0.165	-0.188
-558.485	-200.000	-0.015	0.211
-557.471	772.215	0.095	-0.257
-556.456	-43.309	-0.142	0.071
-555.442	15.299	-0.005	-0.004
-554.427	-173.642	-0.459	-0.014
-553.412	800.000	0.038	-0.112
-552.398	513.260	-0.096	-0.221
-551.383	-82.304	0.115	-0.037
-550.369	120.336	-0.037	0.046
-549.354	0.743	0.020	0.014
-548.339	-105.035	0.152	-0.035
-547.325	293.622	-0.231	-0.419
-546.310	-59.362	0.242	-0.104
-545.296	19.761	-0.178	0.142
-544.281	-84.211	-0.136	0.043
-543.266	42.953	-0.274	0.248
-542.252	-200.000	0.002	0.094
-541.237	-42.469	-0.248	0.126
-540.223	555.466	-0.152	-0.364
-539.208	-200.000	0.016	-0.523
-538.193	-162.453	-0.256	0.013
-537.179	454.628	0.041	0.091
-536.164	-12.259	-0.097	-0.063
-535.150	-62.476	-0.539	-0.223
-534.135	-111.242	0.183	-0.037
-533.121	190.301	-0.100	0.150
-532.106	800.000	-0.073	-0.281
-531.091	-118.460	0.169	0.030
-530.077	354.097	-0.045	-0.090
-529.062	68.004	-0.090	0.092
-528.048	333.907	0.077	-0.149
-527.033	800.000	-0.169	-0.481
-526.018	800.000	-0.042	-0.173
-525.004	243.032	0.174	-0.290
-523.989	-58.727	0.160	0.069
-522.975	-200.000	0.036	0.210
-521.960	-180.509	-0.427	-0.009
-520.945	-140.647	0.203	0.021
-519.931	-96.894	-0.143	0.037
-518.916	-200.000	0.016	-0.500
-517.902	38.673	0.091	-0.081
-516.887	57.870	-0.147	0.143
-515.872	-150.254	-0.626	-0.048
-514.858	-125.972	-0.314	0.047
-513.843	800.000	0.034	-0.130
-512.829	-200.000	-0.088	-0.423
-511.814	226.382	0.111	0.179
-510.799	800.000	0.050	0.176
-509.785	103.558	-0.171	0.200
-508.770	-200.000	0.005	-0.178
-507.756	-200.000	0.033	0.246
-506.741	-114.438	0.307	0.058
-505.726	272.299	0.243	-0.425
-504.712	723.530	-0.034	-0.090
-503.697	-85.788	0.314	-0.097
-502.683	-51.287	0.271	0.126
-501.668	322.375	0.187	0.353
-500.653	-57.332	0.084	0.037
-499.639	-98.638	-0.588	0.149
-498.624	-11.210	-0.137	-0.089
-497.610	-142.423	0.053	0.005
-496.595	-147.101	-0.057	0.005
-495.581	-200.000	0.113	0.497
-494.566	94.026	-0.244	-0.275
-493.551	-94.990	-0.409	-0.110
-492.537	-55.793	0.084	0.037
-491.522	188.811	0.091	0.134
-490.508	209.539	-0.196	-0.305
-489.493	-107.235	-0.149	-0.032
-488.478	-138.938	-0.144	-0.016
-487.464	251.585	0.129	0.217
-486.449	-82.863	0.364	0.116
-485.435	-24.680	-0.192	-0.113
-484.420	-93.266	-0.324	0.089
-483.405	-153.870	-0.201	0.014
-482.391	-80.150	-0.049	0.016
-481.376	10.206	0.206	-0.155
-480.362	-200.000	0.014	0.138
-479.347	-44.066	-0.109	-0.054
-478.332	207.611	-0.071	-0.110
-477.318	-42.012	0.158	-0.080
-476.303	-68.664	0.181	0.070
-475.289	135.613	0.146	-0.188
-474.274	-24.735	0.259	-0.153
-473.259	-1.421	-0.177	-0.124
-472.245	184.809	-0.052	-0.077
-471.230	-76.028	-0.087	-0.031
-470.216	-37.090	0.247	0.131
-469.201	800.000	-0.057	-0.207
-468.186	-12.031	0.211	-0.137
-467.172	-200.000	0.006	-0.073
-466.157	-200.000	-0.038	-0.298
-465.143	-96.891	-0.141	-0.037
-464.128	-200.000	0.020	-0.239
-463.113	-68.262	0.162	0.062
-462.099	-106.716	0.089	0.020
-461.084	172.825	-0.132	-0.188
-460.070	376.365	-0.071	-0.144
-459.055	175.536	-0.067	0.096
-458.040	134.795	-0.146	0.188
-457.026	220.003	-0.257	0.409
-456.011	90.479	0.203	-0.225
-454.997	-200.000	0.031	-0.172
-453.982	-54.457	-0.355	-0.160
-452.968	173.822	0.052	-0.075
-451.953	-21.053	-0.189	-0.115
-450.938	800.000	-0.083	0.249
-449.924	5.921	0.206	0.151
-448.909	-200.000	0.018	-0.132
-447.895	-106.581	0.121	-0.027
-446.880	-50.829	0.163	-0.076
-445.865	-200.000	-0.034	0.228
-444.851	630.597	0.256	0.640
-443.836	-200.000	-0.001	0.066
-442.822	-121.585	-0.317	0.052
-441.807	-6.387	-0.045	-0.030
-440.792	97.970	0.337	0.384
-439.778	-126.166	-0.398	0.059
-438.763	20.566	0.046	0.037
-437.749	167.472	-0.129	0.181
-436.734	800.000	0.038	0.127
-435.719	-78.485	0.266	-0.090
-434.705	-17.038	0.062	0.039
-433.690	800.000	0.051	0.189
-432.676	382.412	-0.060	-0.122
-431.661	-105.696	0.114	-0.026
-430.646	-114.535	0.109	0.021
-429.632	449.618	0.123	-0.269
-428.617	-111.626	0.118	-0.024
-427.603	-0.004	0.260	0.183
-426.588	-200.000	0.019	0.088
-425.573	95.130	-0.075	-0.084
-424.559	177.615	-0.189	0.272
-423.544	-21.190	-0.304	0.184
-422.530	-153.007	-0.213	0.015
-421.515	317.447	0.059	-0.111
-420.500	-200.000	0.048	-0.366
-419.486	178.262	0.040	-0.058
-418.471	-198.802	-0.164	-0.001
-417.457	-200.000	0.044	-0.281
-416.442	60.807	0.084	0.082
-415.428	-100.128	0.149	-0.037
-414.413	259.715	0.048	0.081
-413.398	800.000	-0.070	0.266
-412.384	131.907	0.099	-0.126
-411.369	451.234	0.091	-0.198
-410.355	-85.460	0.181	0.056
-409.340	-47.850	-0.236	-0.113
-408.325	-148.192	0.301	0.025
-407.311	-23.518	0.081	-0.048
-406.296	95.823	0.067	0.075
-405.282	-200.000	0.006	-0.483
-404.267	67.975	-0.104	-0.105
-403.252	113.400	0.426	0.511
-402.238	26.808	0.296	-0.245
-401.223	-51.574	-0.127	-0.059
-400.209	800.000	0.045	-0.185
-399.194	197.813	0.129	0.195
-398.179	-77.027	-0.221	0.076
-397.165	-68.490	0.230	0.088
-396.150	-5.144	-0.194	0.132
-395.136	-20.283	-0.181	0.110
-394.121	-107.575	-0.417	-0.090
-393.106	-200.000	-0.016	-0.104
-392.092	-165.108	-0.051	0.002
-391.077	800.000	0.020	-0.062
-390.063	-200.000	0.036	-0.329
-389.048	-200.000	0.040	-0.281
-388.033	-10.376	-0.315	0.206
-387.019	-200.000	0.047	0.315
-386.004	-51.911	0.239	-0.110
-384.990	-63.125	-0.021	0.008
-383.975	296.352	0.038	0.068
-382.960	-75.133	0.144	0.051
-381.946	-200.000	-0.034	0.174
-380.931	135.659	-0.054	-0.069
-379.917	109.116	-0.218	-0.258
-378.902	-200.000	-0.041	-0.220
-377.888	-47.074	-0.099	0.048
-376.873	-200.000	-0.010	-0.198
-375.858	-200.000	0.039	-0.266
-374.844	308.694	-0.124	0.229
-373.829	327.139	-0.115	-0.218
-372.815	58.593	-0.184	0.178
-371.800	645.373	-0.009	-0.024
-370.785	499.618	-0.127	0.289
-369.771	127.583	-0.125	0.157
-368.756	800.000	-0.052	0.182
-367.742	-200.000	0.025	-0.128
-366.727	146.832	-0.111	-0.147
-365.712	-200.000	-0.019	0.125
-364.698	16.371	-0.250	-0.195
-363.683	298.519	0.200	0.363
-362.669	188.559	-0.186	-0.274
-361.654	137.008	-0.083	0.108
-360.639	253.436	0.155	-0.262
-359.625	-200.000	-0.049	0.257
-358.610	-82.438	0.134	-0.043
-357.596	-200.000	0.010	0.083
-356.581	-126.652	-0.293	-0.043
-355.566	-200.000	0.036	-0.221
-354.552	-162.983	-0.308	0.015
-353.537	381.727	0.052	0.105
-352.523	71.116	0.033	-0.034
-351.508	68.161	0.370	0.374
-350.493	-3.765	0.227	0.155
-349.479	-200.000	-0.053	-0.281
-348.464	-126.269	0.582	0.086
-347.450	118.497	0.147	-0.179
-346.435	-144.124	0.238	0.022
-345.420	74.214	-0.228	-0.236
-344.406	-191.089	-0.181	0.002
-343.391	-200.000	-0.063	-0.334
-342.377	-110.207	0.083	0.017
-341.362	149.358	0.036	0.048
-340.348	-200.000	-0.014	-0.077
-339.333	-200.000	-0.011	0.294
-338.318	-200.000	-0.029	0.346
-337.304	-200.000	0.048	-0.277
-336.289	49.195	-0.257	0.238
-335.275	800.000	0.037	-0.126
-334.260	-200.000	-0.004	0.316
-333.245	-147.779	0.349	-0.029
-332.231	29.275	-0.278	0.233
-331.216	-86.953	0.243	-0.073
-330.202	-41.648	-0.214	0.108
-329.187	210.547	0.101	-0.156
-328.172	-84.888	0.164	0.051
-327.158	-200.000	-0.006	0.033
-326.143	800.000	0.097	-0.285
-325.129	-144.028	-0.261	-0.024
-324.114	420.981	-0.124	0.263
-323.099	479.477	0.064	0.144
-322.085	73.879	0.183	-0.189
-321.070	-142.008	0.293	-0.029
-320.056	398.909	-0.053	-0.109
-319.041	800.000	-0.095	0.401
-318.026	800.000	0.031	0.107
-317.012	-97.867	0.209	-0.053
-315.997	175.386	0.197	0.281
-314.983	41.402	-0.186	-0.165
-313.968	-78.167	0.240	-0.081
-312.953	-143.171	0.313	-0.030
-311.939	-175.302	-0.304	0.008
-310.924	333.814	0.034	-0.065
-309.910	800.000	-0.068	0.238
-308.895	-20.981	0.242	-0.146
-307.880	-72.450	0.138	0.050
-306.866	-129.355	0.263	-0.036
-305.851	518.262	-0.080	-0.183
-304.837	160.099	-0.112	-0.153
-303.822	96.395	0.081	0.091
-302.807	-37.300	-0.172	0.090
-301.793	67.342	0.259	0.260
-300.778	-10.156	0.196	0.128
-299.764	-110.612	0.267	-0.054
-298.749	63.197	-0.155	-0.153
-297.735	-121.496	0.163	-0.027
-296.720	-11.628	0.055	0.035
-295.705	600.765	-0.090	-0.220
-294.691	-76.499	-0.177	0.061
-293.676	446.696	0.028	-0.061
-292.662	137.852	0.258	-0.333
-291.647	128.486	-0.014	0.018
-290.632	-114.478	0.256	-0.048
-289.618	-68.912	-0.132	-0.050
-288.603	-44.416	0.130	0.064
-287.589	800.000	-0.057	-0.186
-286.574	19.319	-0.156	-0.124
-285.559	-200.000	-0.023	-0.117
-284.545	-67.686	-0.162	0.062
-283.530	-102.095	-0.291	-0.069
-282.516	410.975	-0.148	0.308
-281.501	12.803	0.045	0.034
-280.486	170.560	-0.218	-0.307
-279.472	3.948	-0.244	-0.175
-278.457	-65.950	0.654	0.257
-277.443	-134.054	-0.316	0.038
-276.428	350.567	-0.055	0.106
-275.413	800.000	-0.056	0.236
-274.399	-99.597	-0.325	0.080
-273.384	68.210	-0.144	0.145
-272.370	689.150	0.074	0.189
-271.355	-2.711	-0.197	0.135
-270.340	-134.264	-0.283	0.034
-269.326	-15.920	0.076	0.048
-268.311	-200.000	-0.012	0.055
-267.297	-23.448	-0.067	0.039
-266.282	-200.000	0.034	-0.251
-265.267	800.000	0.081	0.339
-264.253	748.408	-0.032	-0.086
-263.238	-88.655	0.186	-0.055
-262.224	-150.065	-0.281	0.021
-261.209	-200.000	-0.041	0.200
-260.195	684.098	-0.050	-0.128
-259.180	662.447	-0.049	-0.125
-258.165	-63.836	-0.173	0.070
-257.151	330.842	0.051	0.097
-256.136	198.760	0.130	0.195
-255.122	438.811	0.066	0.141
-254.107	-15.480	0.113	0.071
-253.092	-4.130	-0.250	0.170
-252.078	-39.511	-0.229	0.118
-251.063	-27.772	-0.283	0.161
-250.049	-38.174	0.465	0.242
-249.034	-200.000	-0.016	0.374
-248.019	-49.387	-0.230	-0.108
-247.005	558.088	-0.045	0.106
-245.990	800.000	-0.033	0.120
-244.976	656.778	-0.026	0.065
-243.961	-34.328	0.246	-0.133
-242.946	369.593	0.074	0.148
-241.932	-200.000	0.007	-0.088
-240.917	-200.000	0.032	0.268
-239.903	789.588	-0.151	0.407
-238.888	88.413	0.171	-0.187
-237.873	-124.581	0.292	0.044
-236.859	-200.000	0.018	0.327
-235.844	-127.583	-0.113	-0.016
-234.830	-200.000	0.014	-0.369
-233.815	-200.000	0.043	0.241
-232.800	800.000	-0.068	0.186
-231.786	-200.000	-0.032	-0.232
-230.771	-79.810	0.065	-0.021
-229.757	400.259	0.187	0.384
-228.742	-51.814	0.193	0.088
-227.727	-198.231	-0.183	-0.001
-226.713	7.664	0.185	0.136
-225.698	-200.000	0.039	0.207
-224.684	-68.878	0.051	-0.019
-223.669	-200.000	-0.016	-0.069
-222.655	-200.000	-0.001	0.006
-221.640	-200.000	0.003	0.046
-220.625	-104.158	-0.133	-0.030
-219.611	-200.000	0.001	-0.066
-218.596	342.891	0.024	0.046
-217.582	35.136	0.243	-0.209
-216.567	-117.142	-0.158	-0.028
-215.552	269.472	0.104	-0.180
-214.538	16.775	0.225	-0.175
-213.523	-76.729	0.251	0.086
-212.509	455.564	0.135	-0.294
-211.494	107.833	0.025	-0.029
-210.479	-200.000	0.030	0.361
-209.465	12.901	-0.168	0.128
-208.450	-80.141	0.446	0.147
-207.436	-140.072	0.085	-0.009
-206.421	177.812	-0.132	-0.189
-205.406	260.170	-0.123	0.208
-204.392	-36.207	0.279	0.148
-203.377	233.551	-0.116	0.187
-202.363	-200.000	0.133	-0.000
-201.348	-4.694	0.201	0.136
-200.333	135.274	-0.102	-0.130
-199.319	218.112	-0.083	-0.130
-198.304	800.000	-0.025	-0.089
-197.290	197.622	0.103	-0.155
-196.275	-26.689	0.054	-0.031
-195.260	800.000	0.063	0.206
-194.246	535.759	0.034	-0.080
-193.231	-200.000	-0.034	-0.268
-192.217	800.000	0.053	0.181
-191.202	232.080	-0.145	-0.234
-190.187	-33.311	0.150	0.082
-189.173	-80.710	0.392	-0.128
-188.158	-154.044	-0.460	-0.031
-187.144	355.380	-0.039	0.077
-186.129	72.857	0.100	0.103
-185.114	-181.488	0.131	0.003
-184.100	-200.000	0.011	0.090
-183.085	86.179	-0.078	-0.085
-182.071	119.266	0.291	-0.353
-181.056	-200.000	0.105	-0.000
-180.042	12.869	0.240	0.182
-179.027	241.867	0.173	0.283
-178.012	800.000	0.037	-0.137
-176.998	-130.002	0.210	0.028
-175.983	-94.631	0.057	0.015
-174.969	800.000	0.065	-0.230
-173.954	-200.000	-0.185	-0.001
-172.939	632.603	0.104	0.259
-171.925	110.186	0.114	0.134
-170.910	-60.919	0.091	-0.038
-169.896	-3.098	0.082	-0.056
-168.881	137.851	0.207	-0.266
-167.866	57.278	0.027	-0.026
-166.852	81.971	-0.170	-0.180
-165.837	196.250	0.185	-0.275
-164.823	-200.000	0.036	-0.213
-163.808	-200.000	-0.065	0.508
-162.793	-116.430	-0.510	0.092
-161.779	-84.532	-0.390	0.121
-160.764	-200.000	0.050	-0.430
-159.750	14.613	0.048	0.037
-158.735	231.333	0.101	0.162
-157.720	-163.096	0.243	0.011
-156.706	-62.682	0.281	-0.114
-155.691	-28.382	-0.165	-0.093
-154.677	800.000	0.093	0.316
-153.662	-200.000	-0.021	0.202
-152.647	95.483	0.183	0.204
-151.633	22.419	0.391	0.313
-150.618	-200.000	-0.009	0.109
-149.604	501.996	0.146	0.331
-148.589	-200.000	0.020	-0.195
-147.574	-200.000	-0.060	0.283
-146.560	-200.000	0.041	-0.247
-145.545	100.911	-0.098	0.111
-144.531	800.000	-0.043	0.162
-143.516	-200.000	0.007	-0.065
-142.502	292.838	0.014	0.024
-141.487	-42.319	0.063	-0.032
-140.472	93.891	-0.176	0.196
-139.458	444.905	-0.084	0.180
-138.443	-200.000	0.045	-0.194
-137.429	-200.000	-0.011	0.113
-136.414	-119.970	0.111	0.019
-135.399	-200.000	-0.006	-0.461
-134.385	-63.159	-0.228	0.092
-133.370	-200.000	-0.009	-0.438
-132.356	31.110	-0.132	-0.110
-131.341	-40.543	0.150	0.076
-130.326	162.353	0.132	0.181
-129.312	110.923	-0.033	0.039
-128.297	800.000	-0.025	0.076
-127.283	800.000	-0.062	0.236
-126.268	264.189	-0.139	0.237
-125.253	25.290	0.210	0.171
-124.239	169.641	-0.116	0.162
-123.224	-28.127	-0.398	0.225
-122.210	51.179	-0.158	0.147
-121.195	4.405	0.148	-0.106
-120.180	149.537	0.154	-0.204
-119.166	-33.708	0.162	-0.087
-118.151	-61.657	-0.407	0.167
-117.137	800.000	0.037	-0.100
-116.122	-86.784	-0.133	0.040
-115.107	-44.504	0.189	-0.092
-114.093	-193.570	0.141	0.001
-113.078	95.944	0.043	-0.048
-112.064	-52.448	-0.164	0.074
-111.049	-33.807	-0.186	-0.100
-110.034	405.265	0.096	-0.198
-109.020	104.650	-0.068	-0.078
-108.005	-131.496	0.436	0.056
-106.991	4.623	-0.169	0.121
-105.976	158.500	0.272	0.368
-104.962	-55.759	0.043	0.019
-103.947	500.805	0.117	0.264
-102.932	800.000	-0.032	0.124
-101.918	-198.225	0.236	-0.001
-100.903	-182.723	0.281	-0.005
-99.889	-120.459	0.226	0.038
-98.874	-190.342	0.186	0.002
-97.859	-22.391	-0.198	-0.117
-96.845	-200.000	0.008	0.246
-95.830	-200.000	-0.040	0.349
-94.816	-115.170	0.126	-0.023
-93.801	-27.896	0.332	-0.188
-92.786	100.782	-0.203	0.231
-91.772	-54.915	0.130	-0.057
-90.757	800.000	-0.050	0.146
-89.743	-67.128	0.175	-0.067
-88.728	-200.000	-0.028	0.142
-87.713	-81.150	-0.150	0.048
-86.699	45.048	-0.207	0.186
-85.684	28.540	-0.309	0.255
-84.670	-46.660	0.340	-0.162
-83.655	189.013	-0.202	-0.296
-82.640	-98.974	0.124	0.031
-81.626	86.569	0.068	-0.073
-80.611	702.287	-0.026	-0.066
-79.597	178.002	0.072	0.102
-78.582	3.396	-0.134	0.096
-77.567	20.789	-0.240	0.190
-76.553	469.349	0.097	0.212
-75.538	75.710	0.239	0.246
-74.524	39.021	-0.187	0.163
-73.509	-30.891	0.260	-0.143
-72.494	3.493	0.196	0.139
-71.480	-37.128	0.064	-0.033
-70.465	-120.093	-0.361	0.060
-69.451	47.368	-0.116	-0.105
-68.436	-28.231	-0.147	-0.083
-67.422	84.365	0.215	0.230
-66.407	190.527	0.068	-0.100
-65.392	147.088	0.145	-0.190
-64.378	9.529	0.261	-0.193
-63.363	57.552	0.228	-0.217
-62.349	-200.000	0.038	-0.262
-61.334	46.873	-1.183	-1.072
-60.319	50.157	0.882	0.812
-59.305	441.657	-0.504	-1.076
-58.290	189.669	1.026	1.500
-57.276	698.809	0.711	1.824
-56.261	-200.000	112.949	632.922
-55.246	477.257	1475.920	3255.218
-54.232	154.587	2634.754	3528.570
-53.217	99.995	2151.613	2431.611
-52.203	37.691	1684.682	1458.377
-51.188	30.806	1502.261	1254.229
-50.173	28.570	1476.999	1218.259
-49.159	49.060	1535.531	1406.122
-48.144	48.407	1552.159	1416.852
-47.130	30.696	1508.555	1258.538
-46.115	27.898	1492.691	1226.497
-45.100	27.692	1489.208	1222.204
-44.086	27.739	1486.940	1220.609
-43.071	27.635	1484.996	1218.274
-42.057	27.620	1483.772	1217.121
-41.042	27.570	1482.144	1215.402
-40.027	27.604	1480.522	1214.251
-39.013	27.649	1478.962	1213.224
-37.998	27.561	1478.554	1212.254
-36.984	27.586	1477.314	1211.355
-35.969	27.635	1475.907	1210.478
-34.954	27.592	1474.391	1208.900
-33.940	27.632	1472.755	1207.780
-32.925	27.644	1471.545	1206.818
-31.911	27.594	1470.508	1205.585
-30.896	27.701	1468.523	1204.618
-29.881	27.728	1467.510	1203.918
-28.867	27.766	1466.257	1203.095
-27.852	27.676	1465.024	1201.445
-26.838	27.651	1464.125	1200.492
-25.823	27.721	1462.162	1199.294
-24.809	27.737	1460.440	1197.940
-23.794	27.620	1459.307	1196.198
-22.779	27.649	1457.792	1195.095
-21.765	27.653	1456.621	1194.115
-20.750	27.606	1455.781	1193.071
-19.736	27.727	1454.721	1192.949
-18.721	27.605	1453.831	1191.370
-17.706	27.645	1452.613	1190.587
-16.692	27.695	1451.426	1189.893
-15.677	27.710	1450.267	1188.994
-14.663	27.663	1449.529	1188.038
-13.648	27.572	1448.830	1186.824
-12.633	27.651	1447.767	1186.418
-11.619	27.683	1446.891	1185.864
-10.604	27.586	1446.698	1185.026
-9.590	27.546	1445.376	1183.635
-8.575	27.726	1444.313	1183.889
-7.560	27.618	1443.580	1182.537
-6.546	27.531	1443.320	1181.715
-5.531	27.656	1441.719	1181.166
-4.517	27.638	1440.702	1180.171
-3.502	27.577	1440.289	1179.393
-2.487	27.599	1439.088	1178.506
-1.473	27.579	1437.775	1177.254
-0.458	27.534	1436.785	1176.105
0.556	26.518	1426.242	1162.333
1.571	22.479	1399.786	1115.153
2.586	17.896	1336.953	1037.222
3.600	15.640	1254.110	959.991
4.615	14.333	1209.995	918.935
5.629	12.617	1155.272	868.254
6.644	6.890	1075.882	780.308
7.659	1.891	1038.649	729.362
8.673	1.014	1033.793	721.712
9.688	1.034	1030.307	719.307
10.702	1.000	1028.769	718.012
11.717	0.902	1027.127	716.338
12.731	2.955	1027.907	726.533
13.746	9.270	1036.294	762.428
14.761	15.356	1044.313	797.271
15.775	17.589	1046.048	809.141
16.790	17.313	1044.806	806.799
17.804	16.317	1042.964	800.585
18.819	15.486	1040.852	794.960
19.834	14.949	1039.578	791.379
20.848	14.669	1039.007	789.549
21.863	14.469	1037.801	787.619
22.877	14.168	1037.204	785.673
23.892	13.932	1036.347	783.841
24.907	13.884	1035.351	782.791
25.921	13.964	1034.748	782.645
26.936	13.877	1034.467	781.952
27.950	13.920	1033.411	781.290
28.965	13.975	1032.858	781.062
29.980	14.042	1031.935	780.608
30.994	14.127	1030.709	780.012
32.009	14.105	1030.076	779.358
33.023	14.178	1029.627	779.291
34.038	14.083	1028.687	778.068
35.053	14.288	1027.671	778.190
36.067	14.111	1026.906	776.714
37.082	14.118	1025.943	775.947
38.096	14.197	1025.289	775.755
39.111	14.133	1024.614	774.874
40.126	14.020	1023.677	773.572
41.140	14.102	1022.656	773.116
42.155	14.085	1021.833	772.343
43.169	14.016	1021.096	771.399
44.184	13.900	1020.286	770.181
45.199	14.079	1018.669	769.719
46.213	13.960	1017.891	768.513
47.228	14.129	1016.458	768.145
48.242	14.101	1015.930	767.551
49.257	14.056	1014.889	766.488
50.271	14.117	1013.929	765.973
51.286	14.058	1013.287	765.150
52.301	13.959	1012.761	764.232
53.315	14.102	1011.729	764.039
54.330	13.975	1010.764	762.663
55.344	14.122	1009.949	762.655
56.359	14.091	1008.471	761.328
57.374	14.042	1008.053	760.722
58.388	14.044	1007.188	760.011
59.403	13.960	1006.736	759.216
60.417	13.962	1005.641	758.336
61.432	13.869	1005.453	757.700
62.447	13.980	1004.044	757.076
63.461	13.918	1003.464	756.292
64.476	14.018	1002.331	755.827
65.490	13.933	1001.542	754.777
66.505	13.877	1001.031	754.072
67.520	13.972	1000.284	753.873
68.534	13.951	999.386	753.035
69.549	13.979	998.377	752.335
70.563	14.071	997.571	752.077
71.578	13.915	997.301	751.098
72.593	14.035	995.751	750.407
73.607	13.966	995.379	749.751
74.622	13.896	994.936	749.037
75.636	14.001	993.588	748.427
76.651	13.945	992.621	747.381
77.666	13.946	992.067	746.902
78.680	13.821	991.780	746.055
79.695	13.876	990.936	745.605
80.709	13.818	990.387	744.865
81.724	13.943	989.386	744.607
82.739	14.000	988.321	743.992
83.753	14.063	988.034	743.993
84.768	14.152	986.604	743.247
85.782	14.066	986.381	742.632
86.797	14.147	985.617	742.349
87.812	14.114	984.618	741.388
88.826	14.081	983.723	740.499
89.841	14.107	982.920	739.947
90.855	14.167	982.201	739.604
91.870	14.072	981.654	738.707
92.884	14.146	980.672	738.229
93.899	14.147	979.872	737.566
94.914	14.047	979.878	737.063
95.928	14.137	978.757	736.553
96.943	14.179	977.735	735.905
97.957	14.158	977.472	735.548
98.972	14.112	976.580	734.607
99.987	14.166	975.830	734.219
101.001	14.279	974.407	733.579
102.016	14.169	973.858	732.619
103.030	14.295	972.967	732.435
104.045	14.121	972.277	731.088
105.060	14.275	970.938	730.692
106.074	14.074	970.504	729.421
107.089	14.124	969.642	728.927
108.103	13.893	969.063	727.415
109.118	14.108	967.833	727.369
110.133	14.082	966.980	726.550
111.147	14.134	966.426	726.295
112.162	14.138	965.077	725.232
113.176	14.110	964.148	724.350
114.191	14.103	963.554	723.811
115.206	14.028	963.075	723.061
116.220	14.098	962.311	722.725
117.235	14.230	961.265	722.451
118.249	14.233	960.322	721.690
119.264	14.013	959.842	720.312
120.279	14.045	958.848	719.639
121.293	14.095	957.922	719.098
122.308	14.129	957.179	718.623
123.322	14.101	956.320	717.794
124.337	14.069	955.179	716.739
125.352	14.083	954.058	715.890
126.366	14.059	953.036	714.958
127.381	14.031	952.046	714.032
128.395	14.006	951.003	713.079
129.410	14.112	950.118	712.810
130.424	14.098	949.192	711.992
131.439	14.041	948.258	710.980
132.454	14.140	947.640	710.878
133.468	14.101	946.731	709.969
134.483	14.126	946.207	709.619
135.497	14.188	945.369	709.193
136.512	14.139	944.720	708.431
137.527	14.025	944.163	707.469
138.541	14.091	943.071	706.866
139.556	14.217	942.217	706.699
140.570	13.994	941.935	705.478
141.585	14.171	940.713	705.252
142.600	14.188	939.951	704.693
143.614	14.170	939.619	704.302
144.629	14.224	938.882	703.916
145.643	14.285	937.675	703.205
146.658	14.286	937.165	702.766
147.673	14.203	936.530	701.878
148.687	14.160	935.247	700.673
149.702	14.154	934.774	700.232
150.716	14.279	933.952	700.081
151.731	14.066	933.234	698.586
152.746	14.177	932.031	698.089
153.760	14.166	931.744	697.765
154.775	14.168	930.788	696.995
155.789	14.257	929.865	696.614
156.804	14.236	929.459	696.161
157.819	14.228	928.579	695.408
158.833	14.355	928.022	695.460
159.848	14.370	927.242	694.875
160.862	14.364	926.527	694.255
161.877	14.403	925.916	693.895
162.892	14.372	924.828	692.890
163.906	14.239	923.652	691.397
164.921	14.287	923.312	691.280
165.935	14.334	922.509	690.811
166.950	14.340	921.015	689.657
167.964	14.340	920.199	688.987
168.979	14.355	919.329	688.334
169.994	14.482	918.132	687.901
171.008	14.319	917.930	687.019
172.023	14.313	916.896	686.159
173.037	14.508	916.120	686.320
174.052	14.545	915.379	685.856
175.067	14.646	914.412	685.487
176.081	14.373	914.111	684.079
177.096	14.401	912.996	683.300
178.110	14.409	912.486	682.888
179.125	14.424	911.831	682.398
180.140	14.457	911.311	682.086
181.154	14.539	910.821	681.995
182.169	14.494	909.430	680.707
183.183	14.585	909.268	680.897
184.198	14.432	908.647	679.751
185.213	14.647	907.685	679.847
186.227	14.605	906.930	679.048
187.242	14.636	906.512	678.799
188.256	14.671	905.956	678.467
189.271	14.737	905.057	678.000
190.286	14.762	904.337	677.502
191.300	14.490	904.145	676.197
192.315	14.555	903.124	675.636
193.329	14.614	902.389	675.266
194.344	14.582	901.857	674.679
195.359	14.530	901.126	673.861
196.373	14.682	900.456	673.914
197.388	14.619	900.104	673.337
198.402	14.862	899.231	673.603
199.417	14.816	898.911	673.118
200.432	14.830	898.666	672.931
201.446	14.865	898.008	672.521
202.461	14.892	897.884	672.478
203.475	14.883	897.271	671.923
204.490	15.012	896.124	671.521
205.504	15.014	895.672	671.133
206.519	14.867	895.054	670.021
207.534	15.018	894.047	669.813
208.548	14.872	893.522	668.777
209.563	14.839	893.092	668.264
210.577	14.808	892.483	667.624
211.592	14.898	891.442	667.145
212.607	14.944	891.303	667.166
213.621	15.089	890.646	667.192
214.636	15.207	889.484	666.734
215.650	15.145	888.635	665.789
216.665	15.095	888.607	665.513
217.680	14.967	888.283	664.703
218.694	15.141	887.404	664.677
219.709	15.215	886.865	664.508
220.723	15.143	886.410	663.821
221.738	15.151	885.787	663.328
222.753	15.088	884.728	662.228
223.767	15.147	884.068	661.908
224.782	15.194	883.509	661.618
225.796	15.167	883.167	661.195
226.811	15.262	882.096	660.710
227.826	15.323	881.482	660.431
228.840	15.204	881.052	659.582
229.855	15.197	880.081	658.770
230.869	15.305	879.654	658.814
231.884	15.179	879.005	657.778
232.899	15.254	877.671	657.014
233.913	15.220	877.325	656.563
234.928	15.246	876.749	656.178
235.942	15.130	876.654	655.594
236.957	15.137	875.742	654.879
237.972	15.286	875.155	654.966
238.986	15.195	874.363	653.960
240.001	15.296	873.698	653.798
241.015	15.391	872.844	653.472
242.030	15.341	872.425	652.904
243.045	15.292	871.806	652.193
244.059	15.390	871.373	652.192
245.074	15.428	870.371	651.534
246.088	15.344	869.908	650.803
247.103	15.447	869.134	650.565
248.117	15.414	868.803	650.134
249.132	15.446	868.031	649.620
250.147	15.527	867.451	649.444
251.161	15.535	866.596	648.776
252.176	15.619	866.124	648.691
253.190	15.612	865.407	648.067
254.205	15.719	864.690	647.885
255.220	15.752	864.024	647.459
256.234	15.818	863.811	647.493
257.249	15.669	863.318	646.492
258.263	15.736	862.617	646.168
259.278	15.724	861.981	645.590
260.293	15.547	861.737	644.670
261.307	15.807	861.107	645.140
262.322	15.769	860.389	644.400
263.336	15.889	859.478	644.117
264.351	15.953	858.626	643.669
265.366	15.945	858.515	643.496
266.380	15.928	857.675	642.744
267.395	15.900	857.023	642.095
268.409	15.964	856.711	642.045
269.424	16.015	855.664	641.398
270.439	16.003	855.149	640.910
271.453	16.044	854.154	640.264
272.468	15.998	853.700	639.694
273.482	15.875	853.559	639.062
274.497	15.904	852.671	638.451
275.512	15.987	851.846	638.092
276.526	15.829	851.108	636.885
277.541	15.945	850.536	636.840
278.555	16.012	850.128	636.731
279.570	16.035	849.484	636.280
280.585	16.094	848.891	636.001
281.599	16.171	848.295	635.788
282.614	16.184	847.640	635.291
283.628	16.083	846.901	634.298
284.643	16.158	846.502	634.228
285.657	16.099	845.892	633.493
286.672	16.033	845.761	633.089
287.687	16.229	844.847	633.084
288.701	16.197	844.575	632.706
289.716	16.230	843.668	632.093
290.730	16.194	843.005	631.407
291.745	16.368	842.673	631.753
292.760	16.348	841.926	631.061
293.774	16.334	841.408	630.566
294.789	16.423	840.814	630.397
295.803	16.369	840.492	629.897
296.818	16.270	839.905	629.032
297.833	16.294	839.115	628.476
298.847	16.315	838.633	628.138
299.862	16.389	837.516	627.520
300.876	16.322	836.536	626.482
301.891	16.357	836.351	626.417
302.906	16.606	835.644	626.754
303.920	16.385	835.304	625.628
304.935	16.416	834.485	625.073
305.949	16.559	833.854	625.074
306.964	16.610	833.329	624.810
307.979	16.623	833.068	624.609
308.993	16.464	832.715	623.704
310.008	16.616	831.720	623.464
311.022	16.764	831.181	623.548
312.037	16.635	830.848	622.769
313.052	16.739	830.104	622.539
314.066	16.631	829.128	621.352
315.081	16.562	829.081	621.011
316.095	16.547	828.486	620.454
317.110	16.620	828.099	620.379
318.125	16.518	827.658	619.618
319.139	16.499	826.965	618.975
320.154	16.599	826.351	618.826
321.168	16.599	826.119	618.599
322.183	16.598	825.525	618.094
323.197	16.693	824.652	617.732
324.212	16.808	823.878	617.518
325.227	16.654	823.680	616.753
326.241	16.810	822.807	616.612
327.256	16.712	822.522	615.991
328.270	16.725	822.183	615.727
329.285	16.700	821.745	615.253
330.300	16.826	820.819	614.963
331.314	16.722	820.638	614.399
332.329	16.701	819.964	613.763
333.343	16.923	818.975	613.770
334.358	16.884	818.554	613.261
335.373	16.881	817.868	612.679
336.387	16.863	817.726	612.457
337.402	16.956	817.072	612.245
338.416	17.024	816.158	611.752
339.431	17.018	816.145	611.668
340.446	17.005	815.454	611.049
341.460	17.212	814.601	611.098
342.475	17.151	813.804	610.228
343.489	17.095	813.642	609.851
344.504	17.183	813.156	609.751
345.519	17.136	812.871	609.312
346.533	17.229	812.210	609.096
347.548	17.242	811.772	608.763
348.562	17.064	811.139	607.597
349.577	17.188	810.564	607.555
350.592	17.016	810.201	606.616
351.606	17.137	809.839	606.721
352.621	17.131	809.408	606.324
353.635	17.171	808.995	606.105
354.650	17.101	808.861	605.699
355.665	17.169	808.149	605.354
356.679	17.249	807.381	605.012
357.694	17.240	806.894	604.562
358.708	17.309	806.311	604.316
359.723	17.325	805.910	604.020
360.738	17.176	805.538	603.159
361.752	17.408	804.576	603.207
362.767	17.403	804.326	602.947
363.781	17.376	804.236	602.730
364.796	17.411	803.524	602.267
365.810	17.312	803.371	601.749
366.825	17.412	802.964	601.745
367.840	17.506	802.732	601.852
368.854	17.657	801.719	601.572
369.869	17.528	801.413	600.832
370.883	17.608	800.762	600.574
371.898	17.700	799.844	600.158
372.913	17.558	799.526	599.365
373.927	17.591	799.011	599.042
374.942	17.688	798.220	598.737
375.956	17.569	797.983	598.089
376.971	17.644	798.046	598.346
377.986	17.586	797.010	597.313
379.000	17.683	796.740	597.399
380.015	17.515	796.418	596.516
381.029	17.741	795.359	596.460
382.044	17.783	795.083	596.346
383.059	17.856	794.310	595.970
384.073	17.971	793.416	595.645
385.088	17.677	793.405	594.561
386.102	17.691	792.819	594.117
387.117	17.848	791.984	593.987
388.132	17.811	791.592	593.509
389.146	17.727	791.561	593.143
390.161	17.878	791.208	593.350
391.175	17.899	790.591	592.909
392.190	17.983	790.412	593.011
393.205	17.747	790.588	592.273
394.219	17.798	789.610	591.663
395.234	18.007	788.550	591.540
396.248	17.992	788.126	591.121
397.263	17.863	787.731	590.325
398.278	17.892	787.330	590.074
399.292	17.799	787.470	589.802
400.307	17.882	786.790	589.528
401.321	17.958	786.342	589.404
402.336	17.842	785.942	588.650
403.350	17.809	785.918	588.467
404.365	17.849	785.205	588.018
405.380	18.031	784.863	588.336
406.394	18.146	784.004	588.038
407.409	18.121	783.626	587.615
408.423	18.180	783.309	587.527
409.438	18.022	783.106	586.783
410.453	18.220	782.086	586.645
411.467	18.228	782.052	586.595
412.482	18.273	781.302	586.133
413.496	18.227	780.853	585.587
414.511	18.303	780.689	585.673
415.526	18.345	780.099	585.320
416.540	18.229	779.826	584.670
417.555	18.379	779.330	584.757
418.569	18.287	779.029	584.167
419.584	18.225	778.600	583.580
420.599	18.244	778.306	583.374
421.613	114.790	1293.885	1481.526
422.628	98.441	1368.987	1481.604
