DTS Sentinel unit serial number:	SN413079Multiplexer serial number:	ORYXHardware model number:	OX4-SRSoftware version number:	ORYX F/W v4.00 Oryx Data Collector v3.7.2.0data status	okinstallation	princeton_trtdifferential loss correction	single-endedforward channel	channel 3reverse channel	N/Adate	2019/09/15time	01:52:34forward acquisition time	60.00reverse acquisition time	0.00gamma	496.2192k internal	0.2321k external	0.2321temperature offset calibration	0.9966default loss term (dB/km)	0.3790temperature slope calibration	1.0000multiplexer offset coefficient	1.0000multiplexer slope coefficient	1.0000fibre end	0.00T internal ref (°C)	31.77T ext. ref 1 (°C)	4.51T ext. ref 2 (°C)	26.72length (m)	temperature (°C)	Stokes	anti-Stokes-747.200	168.948	0.088	0.127
-746.185	800.000	-0.107	0.336
-745.171	-20.820	0.102	0.063
-744.156	-200.000	-0.039	0.205
-743.142	67.779	-0.061	-0.063
-742.127	800.000	-0.057	0.236
-741.112	800.000	-0.101	0.337
-740.098	-123.679	0.102	-0.016
-739.083	-133.955	-0.212	0.027
-738.069	72.195	-0.316	0.332
-737.054	-94.748	-0.222	0.061
-736.039	64.933	-0.391	0.399
-735.025	22.417	-0.372	-0.307
-734.010	-156.144	-0.361	-0.023
-732.996	-83.699	0.194	-0.063
-731.981	112.180	-0.108	-0.132
-730.966	-109.551	-0.135	0.029
-729.952	-74.529	-0.373	-0.136
-728.937	-150.217	-0.100	0.008
-727.923	505.956	-0.087	0.203
-726.908	265.292	-0.147	-0.260
-725.894	-41.766	0.170	0.088
-724.879	358.094	-0.076	0.153
-723.864	-61.424	-0.365	-0.155
-722.850	-101.043	-0.481	-0.119
-721.835	-168.784	-0.374	-0.014
-720.821	-87.369	0.127	0.039
-719.806	-113.881	0.217	0.043
-718.791	97.990	-0.227	0.264
-717.777	-68.622	-0.079	-0.031
-716.762	-133.352	-0.282	0.036
-715.748	-33.585	-0.140	-0.078
-714.733	800.000	0.059	0.183
-713.718	-61.922	-0.082	0.035
-712.704	-200.000	0.021	0.173
-711.689	800.000	-0.017	-0.075
-710.675	-37.169	0.176	-0.095
-709.660	224.548	-0.107	-0.175
-708.645	182.557	0.072	-0.107
-707.631	-59.692	0.135	0.059
-706.616	566.396	-0.036	-0.089
-705.602	190.652	0.085	0.128
-704.587	129.889	0.044	0.057
-703.572	277.927	-0.313	-0.563
-702.558	-200.000	0.022	-0.318
-701.543	-23.484	0.262	-0.159
-700.529	-104.585	0.271	0.063
-699.514	-137.508	0.099	0.011
-698.499	-154.024	0.029	0.002
-697.485	304.032	0.092	0.172
-696.470	2.059	-0.128	0.093
-695.456	-54.538	-0.345	-0.158
-694.441	800.000	0.054	-0.232
-693.426	800.000	0.049	-0.144
-692.412	-36.897	-0.166	-0.090
-691.397	130.817	-0.078	-0.100
-690.383	800.000	-0.077	-0.248
-689.368	-166.530	0.342	-0.014
-688.354	148.338	0.083	-0.113
-687.339	-200.000	0.013	0.167
-686.324	-46.364	0.085	0.042
-685.310	-112.898	-0.211	-0.042
-684.295	253.585	0.148	-0.255
-683.281	-96.450	-0.491	0.131
-682.266	-59.073	0.071	-0.031
-681.251	30.782	0.233	-0.201
-680.237	242.647	-0.130	-0.220
-679.222	-29.291	-0.201	-0.116
-678.208	-123.663	0.067	-0.011
-677.193	62.134	0.090	-0.090
-676.178	-200.000	0.044	-0.202
-675.164	161.297	0.137	-0.193
-674.149	236.741	-0.196	-0.328
-673.135	-200.000	-0.003	0.455
-672.120	57.677	0.148	-0.146
-671.105	-200.000	0.007	-0.458
-670.091	-57.890	0.283	-0.125
-669.076	-200.000	-0.007	-0.399
-668.062	-18.350	0.112	-0.071
-667.047	550.041	0.081	-0.197
-666.032	-109.565	-0.244	-0.052
-665.018	167.464	-0.141	-0.202
-664.003	-200.000	-0.006	0.041
-662.989	-126.555	0.240	-0.036
-661.974	-77.434	0.146	-0.051
-660.959	446.379	-0.135	-0.299
-659.945	800.000	-0.047	0.207
-658.930	-200.000	-0.000	0.252
-657.916	800.000	-0.039	0.139
-656.901	104.454	-0.152	0.180
-655.886	-71.083	0.062	-0.023
-654.872	55.651	-0.168	0.164
-653.857	-98.295	0.362	-0.094
-652.843	141.637	0.025	-0.033
-651.828	-132.709	0.149	-0.019
-650.814	-105.448	0.203	0.046
-649.799	-70.392	0.078	0.030
-648.784	-76.144	-0.168	-0.060
-647.770	-35.845	-0.405	0.221
-646.755	-19.776	-0.171	-0.107
-645.741	-200.000	0.037	0.232
-644.726	-45.817	0.265	-0.132
-643.711	-86.376	-0.222	0.069
-642.697	58.558	-0.142	-0.140
-641.682	651.279	0.034	0.087
-640.668	28.963	0.079	0.067
-639.653	-47.244	0.023	-0.011
-638.638	-70.787	0.403	-0.153
-637.624	-96.788	-0.293	-0.077
-636.609	152.327	-0.185	0.255
-635.595	-48.287	0.447	0.217
-634.580	-34.617	-0.125	-0.069
-633.565	60.988	-0.068	0.068
-632.551	-10.552	-0.190	0.127
-631.536	-35.793	-0.038	0.021
-630.522	-200.000	-0.014	-0.119
-629.507	-183.946	-0.135	0.002
-628.492	27.655	-0.071	-0.060
-627.478	67.848	-0.306	-0.315
-626.463	-185.264	-0.256	0.004
-625.449	129.709	0.319	-0.411
-624.434	141.123	-0.164	-0.218
-623.419	137.189	-0.109	-0.143
-622.405	-152.583	-0.272	-0.020
-621.390	653.179	0.101	0.261
-620.376	-54.292	-0.310	0.142
-619.361	-174.770	0.628	0.018
-618.346	164.101	-0.230	-0.327
-617.332	800.000	-0.109	-0.469
-616.317	-71.022	0.113	0.043
-615.303	-19.512	0.114	0.071
-614.288	-6.236	-0.019	-0.013
-613.273	800.000	-0.049	-0.177
-612.259	-115.684	0.187	-0.035
-611.244	-54.985	-0.253	0.115
-610.230	800.000	0.048	0.162
-609.215	-25.937	-0.135	0.080
-608.201	451.779	0.098	-0.218
-607.186	136.560	-0.218	-0.286
-606.171	-100.575	0.337	-0.084
-605.157	-114.669	-0.374	-0.072
-604.142	-200.000	0.003	0.306
-603.128	-146.561	0.211	-0.018
-602.113	734.373	-0.061	0.163
-601.098	-7.413	-0.114	0.078
-600.084	-118.781	0.277	-0.049
-599.069	-200.000	-0.008	-0.053
-598.055	64.100	-0.210	-0.213
-597.040	-37.699	-0.028	-0.015
-596.025	-22.353	-0.206	0.125
-595.011	-95.420	-0.433	0.117
-593.996	-63.474	-0.274	-0.113
-592.982	44.938	0.047	0.043
-591.967	-200.000	-0.014	0.156
-590.952	193.182	-0.121	-0.183
-589.938	800.000	-0.089	0.334
-588.923	41.731	-0.105	0.096
-587.909	503.160	-0.137	-0.318
-586.894	-76.070	0.045	-0.016
-585.879	34.847	-0.297	0.261
-584.865	-81.422	-0.322	-0.107
-583.850	17.001	-0.077	0.062
-582.836	-67.297	-0.125	0.049
-581.821	-98.200	0.320	-0.083
-580.806	-101.125	0.229	0.056
-579.792	325.666	0.050	-0.096
-578.777	59.015	-0.104	-0.102
-577.763	-17.946	-0.092	0.058
-576.748	53.374	-0.133	-0.128
-575.733	94.253	0.213	-0.243
-574.719	369.315	-0.085	-0.173
-573.704	-21.386	-0.130	-0.080
-572.690	203.438	0.035	0.054
-571.675	18.598	-0.144	-0.116
-570.661	-1.130	-0.296	0.210
-569.646	623.129	-0.032	0.081
-568.631	75.489	0.175	0.185
-567.617	-74.331	0.333	0.121
-566.602	-200.000	0.048	-0.242
-565.588	-128.660	-0.444	-0.063
-564.573	326.677	0.088	0.169
-563.558	-44.034	-0.130	0.066
-562.544	206.465	0.082	-0.127
-561.529	269.979	-0.223	0.394
-560.515	-5.223	-0.274	0.189
-559.500	61.991	0.161	-0.162
-558.485	-14.464	-0.292	-0.189
-557.471	-106.519	0.204	0.046
-556.456	118.118	0.233	0.288
-555.442	-15.527	0.125	0.080
-554.427	23.916	0.083	0.069
-553.412	-43.932	0.106	-0.054
-552.398	798.644	-0.063	0.175
-551.383	4.473	0.204	0.150
-550.369	-15.594	0.180	0.115
-549.354	800.000	0.011	0.032
-548.339	-15.025	0.331	-0.213
-547.325	-11.926	0.154	-0.101
-546.310	372.512	-0.190	-0.387
-545.296	-18.465	-0.182	0.114
-544.281	356.119	0.082	-0.163
-543.266	800.000	-0.131	0.403
-542.252	180.810	0.189	0.278
-541.237	616.221	0.108	0.272
-540.223	-114.210	0.376	0.073
-539.208	800.000	0.062	-0.195
-538.193	217.436	-0.183	-0.293
-537.179	-71.343	0.091	0.034
-536.164	-185.191	0.299	0.005
-535.150	86.783	0.211	0.234
-534.135	206.306	0.113	0.176
-533.121	-121.995	-0.255	0.042
-532.106	-200.000	0.019	0.152
-531.091	-120.807	0.451	-0.076
-530.077	-153.958	-0.396	0.027
-529.062	-122.518	0.310	-0.051
-528.048	178.392	-0.053	0.077
-527.033	-200.000	-0.005	-0.152
-526.018	-200.000	0.035	-0.247
-525.004	-25.649	-0.359	-0.212
-523.989	-20.262	-0.178	0.110
-522.975	-200.000	0.021	-0.149
-521.960	-200.000	-0.016	-0.173
-520.945	-111.517	-0.009	0.002
-519.931	3.842	0.146	0.107
-518.916	177.803	-0.120	-0.176
-517.902	-153.638	-0.351	-0.024
-516.887	-33.770	0.269	0.149
-515.872	-89.860	0.066	0.019
-514.858	-118.114	-0.139	-0.025
-513.843	-125.149	-0.116	-0.018
-512.829	-200.000	-0.014	-0.137
-511.814	-22.223	0.227	0.138
-510.799	393.795	0.098	-0.205
-509.785	397.960	-0.032	-0.067
-508.770	-140.534	-0.066	-0.007
-507.756	-200.000	-0.041	-0.183
-506.741	25.783	0.223	0.186
-505.726	25.301	0.232	0.193
-504.712	28.581	-0.141	-0.119
-503.697	-200.000	0.010	-0.194
-502.683	-200.000	0.021	0.107
-501.668	-200.000	0.026	0.127
-500.653	-200.000	0.073	-0.323
-499.639	-137.070	-0.379	0.043
-498.624	118.009	0.232	0.287
-497.610	-200.000	-0.009	-0.258
-496.595	4.994	-0.233	0.172
-495.581	-52.200	-0.135	0.063
-494.566	800.000	0.038	0.111
-493.551	62.664	-0.111	-0.111
-492.537	266.161	-0.146	-0.255
-491.522	-200.000	-0.011	-0.118
-490.508	800.000	-0.064	-0.198
-489.493	-85.882	-0.416	-0.129
-488.478	-200.000	-0.019	-0.397
-487.464	237.154	-0.015	0.026
-486.449	300.086	-0.144	-0.265
-485.435	80.479	-0.213	-0.229
-484.420	380.748	0.036	-0.073
-483.405	90.558	0.087	-0.097
-482.391	-200.000	-0.041	-0.255
-481.376	-8.322	-0.196	-0.132
-480.362	-200.000	0.010	0.217
-479.347	-89.283	-0.192	-0.057
-478.332	41.619	0.061	0.056
-477.318	-200.000	-0.032	0.350
-476.303	-149.610	-0.019	-0.002
-475.289	-200.000	0.001	0.063
-474.274	-73.799	0.219	-0.080
-473.259	97.704	0.165	-0.190
-472.245	-140.483	0.168	0.017
-471.230	800.000	-0.023	0.080
-470.216	-61.622	0.166	0.070
-469.201	244.114	0.240	0.403
-468.186	-171.866	-0.069	-0.002
-467.172	33.006	0.062	-0.053
-466.157	198.520	0.099	-0.151
-465.143	376.372	-0.060	0.122
-464.128	-153.040	-0.109	0.008
-463.113	177.076	-0.155	0.226
-462.099	-200.000	-0.004	0.130
-461.084	215.748	-0.112	-0.178
-460.070	-18.455	-0.132	0.082
-459.055	800.000	-0.057	-0.207
-458.040	-200.000	0.012	0.058
-457.026	481.280	-0.054	-0.122
-456.011	101.454	-0.080	-0.093
-454.997	195.753	0.075	-0.114
-453.982	50.430	0.220	0.208
-452.968	-163.220	0.270	0.013
-451.953	-104.757	-0.083	-0.019
-450.938	476.639	-0.104	-0.235
-449.924	202.079	-0.019	-0.029
-448.909	-40.559	-0.169	-0.087
-447.895	800.000	-0.051	-0.151
-446.880	166.173	0.174	0.245
-445.865	-66.690	0.181	-0.072
-444.851	-46.212	-0.052	-0.026
-443.836	-200.000	-0.010	0.098
-442.822	-108.598	0.065	-0.014
-441.807	-63.740	0.258	-0.106
-440.792	-200.000	-0.019	-0.096
-439.778	95.755	-0.160	-0.182
-438.763	-58.379	-0.214	0.093
-437.749	-200.000	-0.000	-0.110
-436.734	-200.000	-0.020	-0.336
-435.719	-21.866	0.440	-0.267
-434.705	-111.314	0.154	0.031
-433.690	-121.756	-0.212	0.035
-432.676	220.210	-0.150	-0.240
-431.661	-73.073	0.146	-0.054
-430.646	186.398	-0.133	-0.197
-429.632	458.074	0.077	-0.170
-428.617	-133.705	0.166	-0.021
-427.603	193.725	0.214	0.323
-426.588	-102.880	-0.342	0.081
-425.573	-200.000	0.025	0.257
-424.559	800.000	0.058	0.222
-423.544	80.088	0.170	-0.183
-422.530	16.991	-0.179	-0.142
-421.515	123.002	-0.147	-0.184
-420.500	102.788	0.098	0.115
-419.486	800.000	-0.061	0.233
-418.471	56.034	0.148	-0.144
-417.457	-149.975	-0.155	-0.012
-416.442	-200.000	0.022	-0.195
-415.428	800.000	0.057	-0.226
-414.413	-40.694	0.449	-0.232
-413.398	297.189	-0.156	0.287
-412.384	-9.767	-0.237	0.158
-411.369	800.000	0.054	0.216
-410.355	-145.244	-0.341	-0.031
-409.340	599.910	0.033	-0.081
-408.325	-105.182	0.183	0.042
-407.311	-60.185	-0.171	0.073
-406.296	-39.791	-0.330	0.172
-405.282	-76.090	-0.154	0.054
-404.267	-170.809	0.163	-0.006
-403.252	-111.638	0.057	0.012
-402.238	475.287	0.144	0.324
-401.223	142.667	0.158	-0.209
-400.209	-151.969	0.331	-0.024
-399.194	800.000	0.018	0.061
-398.179	169.472	-0.135	-0.192
-397.165	554.474	-0.045	-0.108
-396.150	-80.613	-0.133	0.044
-395.136	34.669	-0.144	0.125
-394.121	-50.715	0.070	-0.033
-393.106	-116.611	0.296	0.054
-392.092	-154.906	0.204	0.013
-391.077	136.599	0.053	-0.069
-390.063	278.448	-0.058	0.103
-389.048	-143.618	0.260	0.025
-388.033	800.000	0.041	0.115
-387.019	286.633	0.085	-0.153
-386.004	289.384	-0.112	0.203
-384.990	-200.000	-0.001	-0.082
-383.975	375.106	-0.092	0.188
-382.960	-41.689	-0.160	0.082
-381.946	800.000	0.092	0.268
-380.931	104.963	0.268	0.315
-379.917	-200.000	0.011	0.075
-378.902	-200.000	-0.002	-0.060
-377.888	-21.429	0.082	0.050
-376.873	-165.763	0.138	0.006
-375.858	-26.564	-0.216	0.126
-374.844	-70.505	-0.405	-0.153
-373.829	-200.000	0.042	-0.275
-372.815	-200.000	0.009	0.132
-371.800	77.814	0.261	0.277
-370.785	-200.000	0.004	0.191
-369.771	97.099	-0.281	-0.321
-368.756	343.409	0.112	0.219
-367.742	-200.000	0.031	-0.139
-366.727	564.969	-0.111	0.268
-365.712	-151.265	-0.119	-0.009
-364.698	615.742	0.062	-0.154
-363.683	-143.312	-0.144	-0.014
-362.669	53.574	-0.057	-0.055
-361.654	-119.091	0.218	-0.038
-360.639	-4.865	-0.236	-0.162
-359.625	-200.000	0.002	-0.026
-358.610	800.000	-0.095	0.266
-357.596	-149.148	-0.033	-0.003
-356.581	800.000	-0.051	-0.155
-355.566	-73.014	0.206	0.075
-354.552	215.238	0.154	-0.244
-353.537	-83.496	0.222	0.071
-352.523	800.000	0.074	0.263
-351.508	-200.000	-0.040	-0.302
-350.493	-170.289	-0.287	0.010
-349.479	98.717	-0.119	0.137
-348.464	-200.000	-0.000	0.367
-347.450	-141.002	0.076	0.008
-346.435	800.000	0.049	-0.183
-345.420	-84.570	-0.304	0.095
-344.406	-36.237	0.106	-0.057
-343.391	-54.448	0.258	-0.116
-342.377	-63.853	-0.276	-0.112
-341.362	14.459	0.258	-0.201
-340.348	-87.999	0.167	0.050
-339.333	800.000	-0.117	-0.363
-338.318	263.805	-0.135	-0.233
-337.304	-82.854	-0.200	0.064
-336.289	-91.901	-0.230	0.065
-335.275	37.471	0.193	-0.170
-334.260	-66.864	-0.285	-0.112
-333.245	65.292	0.088	-0.089
-332.231	566.182	-0.092	0.221
-331.216	-70.412	0.370	0.139
-330.202	-50.215	-0.254	-0.120
-329.187	-88.237	-0.173	0.052
-328.172	-4.448	-0.109	-0.075
-327.158	336.366	0.029	0.056
-326.143	-200.000	-0.010	0.426
-325.129	205.124	-0.051	0.078
-324.114	7.308	0.150	-0.111
-323.099	496.508	-0.092	0.211
-322.085	121.541	0.176	0.218
-321.070	623.090	0.089	-0.223
-320.056	568.031	0.096	-0.233
-319.041	182.413	0.140	-0.206
-318.026	-11.079	0.295	0.193
-317.012	134.885	-0.202	-0.261
-315.997	-172.202	-0.270	-0.009
-314.983	132.981	-0.065	0.084
-313.968	-9.504	-0.128	-0.085
-312.953	515.889	0.098	-0.227
-311.939	42.910	0.099	0.090
-310.924	62.229	-0.097	-0.097
-309.910	-149.304	-0.249	0.020
-308.895	-200.000	0.014	-0.255
-307.880	800.000	0.076	-0.305
-306.866	-15.969	0.153	0.097
-305.851	800.000	0.106	0.343
-304.837	-77.441	-0.074	0.026
-303.822	29.772	0.248	-0.210
-302.807	-139.855	-0.087	-0.009
-301.793	-152.414	-0.257	0.018
-300.778	410.157	0.092	-0.194
-299.764	-200.000	0.048	-0.331
-298.749	66.924	-0.082	0.083
-297.735	-200.000	0.012	-0.204
-296.720	-74.926	0.132	-0.047
-295.705	233.714	-0.094	-0.153
-294.691	-184.121	0.408	0.007
-293.676	-200.000	-0.012	0.108
-292.662	-57.993	0.107	0.046
-291.647	125.571	-0.117	0.147
-290.632	188.465	-0.085	0.126
-289.618	-141.898	-0.127	0.013
-288.603	800.000	0.014	-0.050
-287.589	-42.644	-0.254	0.128
-286.574	-200.000	0.052	0.269
-285.559	12.883	-0.067	-0.051
-284.545	94.767	0.220	0.248
-283.530	-200.000	-0.002	-0.024
-282.516	-15.492	-0.181	0.115
-281.501	665.885	-0.050	-0.127
-280.486	46.692	-0.210	-0.193
-279.472	-200.000	0.034	-0.337
-278.457	-26.846	0.264	0.153
-277.443	60.323	0.206	0.202
-276.428	-200.000	-0.063	0.301
-275.413	210.909	0.136	0.213
-274.399	-60.362	-0.349	-0.147
-273.384	122.238	-0.205	-0.255
-272.370	-77.948	0.236	0.081
-271.355	-67.417	-0.403	0.157
-270.340	47.032	-0.011	0.010
-269.326	-105.876	-0.219	0.049
-268.311	-118.640	-0.300	-0.053
-267.297	-82.228	0.298	0.096
-266.282	-75.041	0.214	0.076
-265.267	113.531	0.108	0.130
-264.253	761.032	-0.102	0.274
-263.238	387.161	0.082	-0.168
-262.224	800.000	0.017	-0.068
-261.209	-42.300	0.262	0.133
-260.195	-54.337	0.214	0.096
-259.180	227.003	0.100	0.161
-258.165	-43.913	-0.198	0.099
-257.151	-78.372	0.130	0.044
-256.136	-200.000	0.013	-0.096
-255.122	-200.000	-0.053	0.324
-254.107	137.547	-0.076	-0.099
-253.092	-100.163	0.115	0.028
-252.078	75.239	0.183	0.192
-251.063	249.634	0.056	0.094
-250.049	-200.000	0.042	0.275
-249.034	203.359	-0.038	0.058
-248.019	87.373	-0.165	0.181
-247.005	-200.000	0.012	0.197
-245.990	-200.000	0.053	0.244
-244.976	-169.206	-0.061	-0.002
-243.961	800.000	0.069	-0.263
-242.946	13.741	-0.155	0.120
-241.932	35.126	0.218	-0.189
-240.917	800.000	0.070	0.219
-239.903	43.357	0.118	-0.107
-238.888	-79.241	-0.191	0.064
-237.873	379.446	0.136	0.276
-236.859	167.647	0.091	-0.128
-235.844	661.956	-0.125	0.319
-234.830	-176.762	-0.389	-0.010
-233.815	420.376	-0.137	0.291
-232.800	-116.634	-0.236	0.043
-231.786	800.000	-0.186	0.605
-230.771	-200.000	0.004	0.119
-229.757	316.329	0.121	0.226
-228.742	-78.405	0.086	0.029
-227.727	-200.000	-0.034	0.268
-226.713	411.896	-0.101	-0.213
-225.698	-63.419	0.136	-0.055
-224.684	201.073	0.083	-0.126
-223.669	-200.000	0.249	-0.000
-222.655	9.159	0.259	0.194
-221.640	38.321	0.162	-0.143
-220.625	268.011	-0.104	-0.181
-219.611	-102.014	0.300	0.072
-218.596	-200.000	0.019	-0.137
-217.582	-163.925	-0.114	-0.005
-216.567	13.174	0.325	-0.249
-215.552	-21.834	-0.387	0.233
-214.538	-1.405	-0.281	0.196
-213.523	-100.101	0.490	0.121
-212.509	-200.000	-0.047	0.360
-211.494	-139.649	0.157	0.017
-210.479	137.663	0.163	0.211
-209.465	485.757	0.047	-0.107
-208.450	-118.385	-0.431	-0.076
-207.436	107.303	0.285	-0.335
-206.421	-200.000	-0.016	-0.207
-205.406	-109.476	0.112	-0.024
-204.392	-149.961	0.061	0.005
-203.377	-98.993	0.079	-0.020
-202.363	-200.000	0.026	0.257
-201.348	20.591	0.058	0.046
-200.333	-132.845	0.264	0.033
-199.319	34.910	0.026	-0.022
-198.304	-87.175	0.076	-0.023
-197.290	-66.363	0.087	-0.034
-196.275	121.278	0.137	0.169
-195.260	-200.000	0.005	0.111
-194.246	-149.740	0.229	0.018
-193.231	-200.000	-0.001	-0.104
-192.217	-120.610	-0.125	-0.021
-191.202	211.410	-0.110	-0.172
-190.187	70.275	-0.162	-0.166
-189.173	-200.000	-0.026	-0.148
-188.158	47.966	0.236	-0.218
-187.144	91.708	-0.132	-0.146
-186.129	81.366	-0.195	-0.209
-185.114	-200.000	0.020	0.141
-184.100	199.238	-0.099	0.151
-183.085	800.000	-0.107	0.298
-182.071	110.781	0.223	0.265
-181.056	800.000	0.081	0.293
-180.042	153.676	0.163	-0.221
-179.027	-200.000	0.035	-0.368
-178.012	732.585	0.064	0.171
-176.998	-200.000	0.030	-0.210
-175.983	-200.000	-0.019	0.100
-174.969	365.441	0.044	0.089
-173.954	-67.963	-0.190	-0.073
-172.939	161.899	-0.177	-0.245
-171.925	-189.852	0.465	-0.005
-170.910	-200.000	0.035	0.262
-169.896	800.000	-0.141	-0.585
-168.881	788.837	-0.091	-0.248
-167.866	-11.630	0.216	0.141
-166.852	-135.182	0.353	-0.042
-165.837	306.401	-0.142	-0.260
-164.823	-200.000	0.027	-0.487
-163.808	-200.000	-0.016	0.072
-162.793	65.589	0.120	0.120
-161.779	800.000	0.046	0.141
-160.764	-200.000	-0.001	0.374
-159.750	-200.000	0.043	0.277
-158.735	-200.000	0.020	0.231
-157.720	-200.000	0.024	0.257
-156.706	-87.076	-0.134	0.040
-155.691	-94.840	0.302	-0.081
-154.677	-94.725	0.296	-0.079
-153.662	-200.000	-0.039	-0.365
-152.647	800.000	-0.101	-0.332
-151.633	-24.841	0.272	-0.159
-150.618	-130.109	-0.247	-0.033
-149.604	109.509	-0.166	0.196
-148.589	152.748	0.157	-0.212
-147.574	-161.824	0.215	0.011
-146.560	187.895	0.044	-0.065
-145.545	116.483	0.099	0.120
-144.531	-29.180	0.148	-0.084
-143.516	-94.175	0.103	-0.028
-142.502	538.645	-0.065	-0.152
-141.487	166.544	-0.128	0.179
-140.472	-92.489	0.054	-0.015
-139.458	-200.000	-0.041	-0.322
-138.443	-40.360	-0.130	-0.067
-137.429	-200.000	0.006	-0.155
-136.414	-200.000	0.016	0.146
-135.399	-65.763	0.129	-0.051
-134.385	283.371	-0.045	0.079
-133.370	-200.000	0.013	0.156
-132.356	-61.728	0.128	-0.053
-131.341	-52.874	0.291	-0.132
-130.326	-200.000	0.017	-0.135
-129.312	-68.827	-0.135	-0.052
-128.297	-200.000	-0.005	0.154
-127.283	-107.505	0.362	0.078
-126.268	28.485	0.112	0.093
-125.253	-160.768	-0.161	0.008
-124.239	-55.207	-0.132	0.058
-123.224	-99.134	-0.191	0.048
-122.210	-200.000	-0.065	0.326
-121.195	115.109	-0.259	-0.311
-120.180	-145.864	0.160	-0.014
-119.166	-77.939	-0.226	0.077
-118.151	-106.293	0.098	-0.022
-117.137	43.596	0.048	0.044
-116.122	-118.533	0.046	0.008
-115.107	800.000	-0.107	0.394
-114.093	-147.851	0.348	0.029
-113.078	113.353	0.063	-0.075
-112.064	800.000	-0.073	0.275
-111.049	-77.227	0.352	-0.121
-110.034	-143.496	-0.296	-0.028
-109.020	39.542	0.273	0.241
-108.005	-25.982	0.214	0.124
-106.991	173.612	-0.172	0.244
-105.976	213.965	-0.223	0.348
-104.962	-27.986	0.147	0.084
-103.947	285.591	-0.176	-0.313
-102.932	388.566	0.034	0.070
-101.918	-200.000	-0.013	0.379
-100.903	-60.625	0.097	-0.040
-99.889	-19.369	-0.076	-0.046
-98.874	-153.726	-0.024	-0.002
-97.859	-107.806	-0.170	-0.037
-96.845	-80.695	-0.203	-0.066
-95.830	157.311	0.119	-0.162
-94.816	324.651	-0.137	-0.258
-93.801	143.598	0.039	-0.051
-92.786	-19.992	-0.225	0.137
-91.772	-200.000	-0.073	0.348
-90.757	323.989	-0.065	0.123
-89.743	170.322	0.127	0.179
-88.728	8.228	-0.083	-0.062
-87.713	-200.000	-0.082	-0.532
-86.699	88.635	-0.103	-0.112
-85.684	-200.000	0.028	0.130
-84.670	194.465	0.146	0.218
-83.655	-16.295	-0.224	-0.140
-82.640	-71.533	0.288	-0.106
-81.626	197.363	-0.207	-0.311
-80.611	800.000	0.115	0.385
-79.597	336.350	0.162	0.310
-78.582	800.000	-0.067	-0.230
-77.567	409.213	0.123	-0.256
-76.553	277.175	0.063	0.110
-75.538	-30.984	-0.159	-0.088
-74.524	-200.000	-0.051	0.242
-73.509	97.999	-0.150	0.170
-72.494	390.829	0.078	-0.158
-71.480	-120.813	0.210	0.035
-70.465	-200.000	-0.023	-0.102
-69.451	-117.125	-0.054	0.010
-68.436	-68.771	0.157	-0.060
-67.422	800.000	-0.031	0.109
-66.407	800.000	0.127	-0.387
-65.392	580.788	-0.087	-0.210
-64.378	-106.796	-0.197	-0.043
-63.363	-200.000	0.012	0.188
-62.349	-40.096	-0.244	0.125
-61.334	145.152	-0.776	-1.022
-60.319	102.899	0.582	0.671
-59.305	363.904	-0.492	-0.974
-58.290	437.192	0.465	0.997
-57.276	159.235	1.088	1.489
-56.261	-200.000	96.511	600.867
-55.246	649.083	1375.664	3462.940
-54.232	198.503	2551.821	3841.742
-53.217	120.066	2158.945	2634.866
-52.203	42.630	1702.699	1524.900
-51.188	34.961	1514.841	1304.571
-50.173	32.528	1488.289	1265.332
-49.159	51.857	1537.805	1439.887
-48.144	53.888	1554.744	1469.560
-47.130	35.087	1515.242	1305.567
-46.115	31.948	1500.686	1271.735
-45.100	31.844	1496.691	1267.597
-44.086	31.886	1494.990	1266.393
-43.071	31.839	1492.656	1264.045
-42.057	31.851	1490.933	1262.618
-41.042	31.803	1489.935	1261.401
-40.027	31.734	1488.782	1259.911
-39.013	31.738	1487.081	1258.449
-37.998	31.765	1485.761	1257.459
-36.984	31.797	1484.363	1256.444
-35.969	31.819	1483.369	1255.700
-34.954	31.721	1481.904	1253.749
-33.940	31.810	1480.091	1252.765
-32.925	31.778	1479.062	1251.632
-31.911	31.727	1477.837	1250.202
-30.896	31.842	1476.340	1249.652
-29.881	31.850	1475.100	1248.604
-28.867	31.877	1473.167	1247.101
-27.852	31.800	1472.552	1246.021
-26.838	31.880	1470.675	1244.911
-25.823	31.811	1469.240	1243.194
-24.809	31.829	1467.740	1241.992
-23.794	31.835	1466.109	1240.600
-22.779	31.809	1464.873	1239.334
-21.765	31.768	1464.416	1238.626
-20.750	31.790	1462.605	1237.195
-19.736	31.717	1461.693	1235.887
-18.721	31.657	1461.006	1234.862
-17.706	31.838	1458.803	1234.142
-16.692	31.735	1458.675	1233.309
-15.677	31.735	1457.638	1232.384
-14.663	31.726	1456.476	1231.295
-13.648	31.700	1455.590	1230.327
-12.633	31.759	1454.255	1229.535
-11.619	31.737	1454.102	1229.212
-10.604	31.716	1453.179	1228.247
-9.590	31.741	1452.397	1227.701
-8.575	31.785	1451.127	1226.863
-7.560	31.753	1449.948	1225.611
-6.546	31.752	1449.418	1225.108
-5.531	31.672	1448.584	1223.831
-4.517	31.696	1447.405	1222.942
-3.502	31.666	1446.203	1221.681
-2.487	31.808	1445.001	1221.544
-1.473	31.661	1444.876	1220.430
-0.458	31.712	1443.302	1219.390
0.556	30.424	1433.606	1208.825
1.571	27.432	1408.067	1168.021
2.586	23.978	1348.079	1096.909
3.600	22.436	1266.882	1021.808
4.615	20.916	1222.107	977.092
5.629	18.140	1165.620	916.981
6.644	10.877	1083.300	815.822
7.659	5.431	1044.264	759.953
8.673	4.644	1039.181	752.380
9.688	4.566	1035.989	749.624
10.702	4.452	1034.370	747.837
11.717	4.389	1032.644	746.220
12.731	6.459	1034.462	757.429
13.746	13.110	1043.978	796.505
14.761	18.380	1049.299	825.972
15.775	18.303	1049.109	825.381
16.790	17.413	1046.561	819.018
17.804	16.249	1044.360	811.632
18.819	15.331	1042.614	805.793
19.834	14.911	1041.209	802.622
20.848	14.643	1040.143	800.441
21.863	14.352	1040.020	798.882
22.877	14.141	1038.987	797.009
23.892	13.954	1038.044	795.317
24.907	13.954	1037.387	794.742
25.921	13.921	1036.453	793.802
26.936	13.842	1035.795	792.849
27.950	14.030	1034.641	792.793
28.965	13.980	1033.893	791.909
29.980	14.076	1032.760	791.432
30.994	14.310	1031.159	791.243
32.009	14.237	1030.577	790.382
33.023	14.270	1029.775	789.854
34.038	14.164	1029.311	788.926
35.053	14.106	1028.571	788.011
36.067	14.211	1026.896	787.158
37.082	14.123	1026.408	786.297
38.096	13.986	1025.876	785.171
39.111	14.140	1024.988	785.153
40.126	14.246	1023.573	784.495
41.140	14.158	1022.636	783.293
42.155	13.981	1021.656	781.640
43.169	13.971	1020.342	780.522
44.184	13.891	1019.617	779.520
45.199	13.777	1018.477	778.046
46.213	13.807	1017.618	777.460
47.228	13.971	1016.383	777.216
48.242	13.981	1015.877	776.809
49.257	14.100	1014.995	776.621
50.271	14.054	1013.694	775.344
51.286	13.988	1013.246	774.623
52.301	14.146	1012.137	774.441
53.315	14.172	1010.793	773.467
54.330	13.984	1010.656	772.418
55.344	13.976	1009.563	771.477
56.359	13.939	1008.807	770.660
57.374	13.994	1007.792	770.073
58.388	13.932	1007.162	769.236
59.403	13.920	1006.175	768.356
60.417	13.866	1005.335	767.399
61.432	13.834	1004.626	766.641
62.447	13.767	1003.890	765.704
63.461	13.819	1003.155	765.316
64.476	13.755	1002.494	764.449
65.490	13.729	1001.571	763.557
66.505	13.781	1000.449	762.874
67.520	13.809	999.749	762.400
68.534	13.771	999.312	761.825
69.549	13.851	998.431	761.454
70.563	13.902	997.622	761.003
71.578	13.829	997.397	760.428
72.593	13.773	996.339	759.297
73.607	13.704	995.182	758.033
74.622	13.725	994.247	757.352
75.636	13.772	993.378	756.834
76.651	13.742	992.316	755.825
77.666	13.720	992.166	755.541
78.680	13.662	990.997	754.320
79.695	13.767	990.607	754.435
80.709	13.746	990.219	753.977
81.724	13.856	989.278	753.696
82.739	13.906	988.563	753.308
83.753	13.893	987.884	752.666
84.768	14.128	987.115	753.080
85.782	14.159	986.594	752.755
86.797	14.371	985.703	752.967
87.812	14.235	984.892	751.667
88.826	14.115	984.307	750.613
89.841	14.108	983.542	749.931
90.855	14.205	982.066	749.177
91.870	14.202	981.780	748.876
92.884	14.224	981.165	748.443
93.899	14.199	980.706	747.911
94.914	14.226	979.780	747.260
95.928	14.294	979.267	747.107
96.943	14.310	978.206	746.303
97.957	14.247	977.866	745.697
98.972	14.173	976.691	744.402
99.987	14.237	976.434	744.428
101.001	14.240	975.552	743.701
102.016	14.033	974.882	742.204
103.030	14.185	973.364	741.657
104.045	14.159	972.587	740.884
105.060	14.228	971.662	740.424
106.074	14.075	971.433	739.504
107.089	14.017	970.173	738.221
108.103	13.917	969.310	737.056
109.118	13.935	968.054	736.113
110.133	13.851	967.638	735.359
111.147	13.851	966.674	734.560
112.162	13.921	965.600	733.989
113.176	13.862	964.992	733.202
114.191	14.006	963.678	732.774
115.206	13.997	963.168	732.280
116.220	13.986	962.779	731.874
117.235	14.031	961.536	731.062
118.249	13.944	961.326	730.457
119.264	13.926	959.891	729.220
120.279	13.901	958.930	728.319
121.293	13.871	958.259	727.609
122.308	14.010	957.384	727.489
123.322	13.878	956.631	726.279
124.337	13.850	955.713	725.395
125.352	13.789	954.390	724.058
126.366	13.779	953.056	722.937
127.381	13.700	952.669	722.239
128.395	13.912	951.555	722.250
129.410	13.972	950.358	721.540
130.424	13.857	950.015	720.717
131.439	13.960	948.897	720.250
132.454	13.928	948.581	719.809
133.468	13.898	947.708	718.953
134.483	13.967	947.072	718.704
135.497	14.064	946.474	718.607
136.512	14.049	945.759	717.933
137.527	14.000	944.996	717.081
138.541	14.031	944.251	716.585
139.556	13.978	943.380	715.634
140.570	13.961	942.657	714.947
141.585	14.053	942.026	714.802
142.600	14.135	941.282	714.529
143.614	14.173	940.617	714.123
144.629	14.192	939.463	713.263
145.643	14.297	938.740	713.100
146.658	14.245	938.233	712.432
147.673	14.232	937.479	711.740
148.687	14.209	936.325	710.703
149.702	14.108	935.328	709.454
150.716	14.006	934.525	708.346
151.731	14.062	933.941	708.079
152.746	14.049	933.238	707.427
153.760	14.154	932.338	707.129
154.775	14.190	931.589	706.653
155.789	14.355	930.458	706.430
156.804	14.184	930.163	705.419
157.819	14.231	929.172	704.804
158.833	14.203	928.839	704.370
159.848	14.233	928.295	704.024
160.862	14.319	927.757	703.916
161.877	14.380	926.611	703.242
162.892	14.046	926.199	701.457
163.906	14.098	925.125	700.803
164.921	14.097	924.248	700.070
165.935	14.145	922.995	699.261
166.950	14.117	922.104	698.406
167.964	14.218	921.040	697.963
168.979	14.288	920.070	697.458
169.994	14.130	919.479	696.287
171.008	14.141	918.580	695.592
172.023	14.081	918.185	694.981
173.037	14.285	917.016	694.884
174.052	14.398	916.500	694.905
175.067	14.395	915.665	694.198
176.081	14.300	915.159	693.356
177.096	14.137	914.343	692.000
178.110	14.193	913.357	691.427
179.125	14.289	912.327	690.982
180.140	14.256	911.835	690.411
181.154	14.261	911.010	689.745
182.169	14.319	910.673	689.669
183.183	14.251	910.169	688.945
184.198	14.453	909.756	689.410
185.213	14.440	908.708	688.499
186.227	14.581	907.990	688.478
187.242	14.521	907.983	688.162
188.256	14.563	906.992	687.524
189.271	14.649	906.044	687.097
190.286	14.806	905.113	686.976
191.300	14.461	904.913	685.348
192.315	14.291	904.097	683.968
193.329	14.192	903.805	683.284
194.344	14.156	902.998	682.465
195.359	14.102	902.349	681.692
196.373	14.415	901.456	682.240
197.388	14.544	901.193	682.506
198.402	14.429	901.224	682.000
199.417	14.636	900.437	682.189
200.432	14.841	899.912	682.569
201.446	14.794	899.512	682.012
202.461	14.794	899.005	681.566
203.475	14.945	898.400	681.665
204.490	14.853	897.992	680.918
205.504	14.920	896.827	680.247
206.519	14.673	896.058	678.600
207.534	14.614	895.689	678.022
208.548	14.772	894.536	677.729
209.563	14.698	894.329	677.211
210.577	14.779	893.643	676.962
211.592	14.667	892.781	675.796
212.607	14.932	892.144	676.326
213.621	14.870	891.663	675.652
214.636	15.025	890.757	675.531
215.650	14.829	890.908	674.795
216.665	14.932	890.251	674.650
217.680	14.857	889.563	673.767
218.694	14.890	889.114	673.501
219.709	14.929	888.604	673.211
220.723	15.023	887.640	672.803
221.738	14.999	887.161	672.283
222.753	15.033	886.501	671.860
223.767	14.973	885.887	671.091
224.782	15.095	884.919	670.788
225.796	15.101	884.590	670.504
226.811	15.207	883.361	669.938
227.826	15.122	882.869	669.166
228.840	15.012	882.453	668.351
229.855	15.048	881.400	667.637
230.869	14.988	880.944	666.993
231.884	15.028	880.478	666.744
232.899	14.994	879.602	665.886
233.913	14.943	878.993	665.164
234.928	14.900	878.375	664.464
235.942	14.978	877.647	664.166
236.957	14.963	876.716	663.342
237.972	15.067	876.134	663.253
238.986	14.995	875.577	662.488
240.001	14.885	875.009	661.567
241.015	15.037	874.343	661.604
242.030	15.018	873.685	660.973
243.045	15.101	873.254	660.915
244.059	15.009	872.457	659.894
245.074	15.332	871.491	660.374
246.088	15.209	871.423	659.780
247.103	15.276	870.629	659.386
248.117	15.254	870.080	658.824
249.132	15.289	869.916	658.778
250.147	15.313	869.113	658.208
251.161	15.539	868.802	658.799
252.176	15.679	867.539	658.333
253.190	15.677	867.263	658.056
254.205	15.650	866.379	657.223
255.220	15.609	866.194	656.862
256.234	15.602	865.746	656.439
257.249	15.659	864.927	655.981
258.263	15.677	864.221	655.457
259.278	15.629	864.061	655.093
260.293	15.550	863.530	654.325
261.307	15.803	862.531	654.494
262.322	15.917	862.011	654.483
263.336	15.725	861.755	653.486
264.351	15.663	861.091	652.683
265.366	15.813	860.608	652.841
266.380	15.944	859.721	652.619
267.395	15.931	859.152	652.077
268.409	15.788	858.435	650.922
269.424	15.752	857.650	650.129
270.439	15.908	856.954	650.147
271.453	15.889	856.030	649.315
272.468	15.838	855.322	648.524
273.482	15.706	855.017	647.727
274.497	15.812	854.394	647.608
275.512	15.850	853.559	647.062
276.526	15.832	852.951	646.475
277.541	15.844	852.374	646.026
278.555	15.777	851.697	645.201
279.570	15.835	851.143	644.946
280.585	15.950	851.011	645.228
281.599	16.049	850.372	645.068
282.614	15.981	849.682	644.224
283.628	15.812	849.184	643.147
284.643	15.913	848.451	642.920
285.657	15.968	848.269	642.934
286.672	16.015	847.515	642.484
287.687	15.910	847.075	641.694
288.701	16.037	846.562	641.732
289.716	15.974	846.025	641.030
290.730	15.921	845.327	640.240
291.745	16.009	844.751	640.085
292.760	16.099	844.088	639.865
293.774	16.198	843.142	639.468
294.789	16.101	843.105	639.014
295.803	16.168	842.565	638.804
296.818	16.182	841.715	638.154
297.833	16.208	841.113	637.742
298.847	16.188	840.205	636.921
299.862	16.127	839.776	636.307
300.876	16.160	839.137	635.893
301.891	16.291	838.659	635.967
302.906	16.305	838.123	635.559
303.920	16.403	837.163	635.142
304.935	16.373	836.639	634.574
305.949	16.373	836.380	634.320
306.964	16.385	835.641	633.751
307.979	16.342	835.207	633.203
308.993	16.441	834.466	632.957
310.008	16.388	834.380	632.639
311.022	16.451	833.791	632.372
312.037	16.458	833.164	631.864
313.052	16.295	832.442	630.654
314.066	16.334	832.242	630.592
315.081	16.427	830.870	629.842
316.095	16.204	830.770	628.882
317.110	16.367	830.123	628.940
318.125	16.403	829.641	628.654
319.139	16.337	829.504	628.248
320.154	16.298	828.986	627.657
321.168	16.381	828.145	627.274
322.183	16.465	827.279	626.874
323.197	16.428	827.184	626.608
324.212	16.425	826.758	626.220
325.227	16.377	826.084	625.474
326.241	16.329	825.800	625.026
327.256	16.403	824.957	624.607
328.270	16.426	824.380	624.201
329.285	16.323	824.003	623.479
330.300	16.409	823.534	623.387
331.314	16.540	822.780	623.244
332.329	16.585	822.076	622.822
333.343	16.631	821.236	622.299
334.358	16.478	821.440	621.837
335.373	16.551	820.873	621.619
336.387	16.624	820.316	621.409
337.402	16.672	819.995	621.289
338.416	16.751	819.097	620.845
339.431	16.764	818.249	620.194
340.446	16.913	817.977	620.476
341.460	16.926	817.453	620.071
342.475	16.977	817.163	619.982
343.489	16.854	816.435	618.927
344.504	16.917	816.254	618.964
345.519	16.934	815.827	618.648
346.533	16.901	815.171	617.978
347.548	17.104	814.495	618.147
348.562	17.015	813.380	616.923
349.577	16.841	813.196	616.097
350.592	16.908	812.739	615.941
351.606	16.865	811.899	615.091
352.621	16.778	811.689	614.562
353.635	16.845	811.115	614.317
354.650	16.726	811.238	613.924
355.665	17.102	810.505	614.676
356.679	17.037	810.018	614.017
357.694	17.065	809.463	613.644
358.708	17.034	808.687	612.891
359.723	17.118	808.085	612.685
360.738	16.992	808.064	612.158
361.752	16.886	807.873	611.577
362.767	17.053	807.152	611.578
363.781	17.083	806.798	611.364
364.796	17.280	806.187	611.557
365.810	17.293	806.164	611.530
366.825	17.214	805.776	610.900
367.840	17.307	805.076	610.649
368.854	17.335	804.729	610.431
369.869	17.326	804.074	609.849
370.883	17.328	803.560	609.412
371.898	17.286	802.679	608.541
372.913	17.359	802.640	608.719
373.927	17.331	801.801	607.926
374.942	17.349	801.468	607.687
375.956	17.268	800.949	606.950
376.971	17.391	800.403	606.922
377.986	17.477	799.704	606.643
379.000	17.679	798.848	606.660
380.015	17.552	798.459	605.859
381.029	17.639	798.033	605.791
382.044	17.525	797.666	605.052
383.059	17.447	797.392	604.513
384.073	17.513	796.829	604.269
385.088	17.512	796.161	603.704
386.102	17.547	795.420	603.214
387.117	17.624	794.464	602.708
388.132	17.428	794.198	601.758
389.146	17.414	794.145	601.616
390.161	17.474	793.861	601.558
391.175	17.495	793.423	601.249
392.190	17.572	793.260	601.345
393.205	17.534	792.341	600.461
394.219	17.509	791.957	600.030
395.234	17.615	791.689	600.145
396.248	17.476	790.915	599.017
397.263	17.424	790.253	598.281
398.278	17.398	789.867	597.844
399.292	17.412	789.583	597.626
400.307	17.402	789.206	597.250
401.321	17.380	789.072	597.018
402.336	17.540	788.538	597.125
403.350	17.609	788.322	597.148
404.365	17.404	788.046	596.168
405.380	17.611	787.428	596.374
406.394	17.784	786.575	596.281
407.409	17.939	785.893	596.249
408.423	17.802	785.871	595.703
409.438	17.846	785.671	595.651
410.453	17.868	785.158	595.288
411.467	17.958	784.755	595.241
412.482	17.875	784.168	594.456
413.496	17.893	783.780	594.171
414.511	17.935	783.503	594.053
415.526	18.073	782.878	594.008
416.540	17.934	782.970	593.541
417.555	18.015	782.340	593.293
418.569	17.998	781.857	592.815
419.584	17.982	781.249	592.246
420.599	17.990	780.747	591.844
421.613	155.964	1368.588	1794.452
422.628	134.610	1454.244	1794.559
